#ParticleID	Turn	x[m]	xp	y[m]	yp	z[m]	dE[GeV]# s	beta_x	beta_y	alpha_x	alpha_y	D_x	D_y	D_px	D_py	orbit_x	orbit_px	orbit_y	orbit_py
0.300000	11.951791	25.307573	-0.020106	-0.021810	2.600625	0.000000	0.000595	0.000000	-0.000757	0.000660	0.000000	0.000000
0.601250	11.971501	25.324301	-0.045322	-0.033719	2.600606	0.000000	0.000595	0.000000	-0.000558	0.000660	0.000000	0.000000
0.898573	12.005851	25.347846	-0.040666	-0.107606	2.600586	0.000000	-0.005804	0.000000	-0.000362	0.000661	0.000000	0.000000
1.339533	12.195499	25.161430	-0.390820	0.528749	2.613941	0.000000	0.067700	0.000000	-0.000072	0.000656	0.000000	0.000000
1.780493	12.700637	24.422302	-0.758834	1.141049	2.659846	0.000000	0.141967	0.000000	0.000218	0.000658	0.000000	0.000000
2.221453	13.544350	23.164085	-1.161522	1.701435	2.738822	0.000000	0.217845	0.000000	0.000509	0.000667	0.000000	0.000000
2.662413	14.765194	21.444022	-1.617284	2.184407	2.851766	0.000000	0.296196	0.000000	0.000807	0.000684	0.000000	0.000000
3.108373	16.440035	19.315170	-2.151313	2.569156	3.001811	0.000000	0.378405	0.000000	0.001117	0.000709	0.000000	0.000000
3.657433	18.587040	16.923775	-1.735446	1.811906	3.184129	0.000000	0.286034	0.000000	0.001496	0.000667	0.000000	0.000000
4.206493	20.206940	15.288611	-1.196976	1.183716	3.314290	0.000000	0.188600	0.000000	0.001847	0.000612	0.000000	0.000000
4.755553	21.185287	14.293216	-0.573938	0.639842	3.389988	0.000000	0.087830	0.000000	0.002166	0.000547	0.000000	0.000000
5.304613	21.452952	13.866693	0.089655	0.141542	3.409885	0.000000	-0.014489	0.000000	0.002447	0.000473	0.000000	0.000000
5.603185	21.436353	13.767672	0.020824	0.154726	3.408021	0.000000	-0.005763	0.000000	0.002590	0.000479	0.000000	0.000000
5.936519	21.427656	13.672785	0.005267	0.129935	3.405941	0.000000	-0.005763	0.000000	0.002749	0.000479	0.000000	0.000000
6.269852	21.429330	13.594425	-0.010289	0.105144	3.403860	0.000000	-0.005763	0.000000	0.002909	0.000479	0.000000	0.000000
6.604435	21.441440	13.532392	-0.025904	0.080260	3.401771	0.000000	-0.005763	0.000000	0.003069	0.000479	0.000000	0.000000
6.901758	21.460976	13.491236	-0.094331	0.092535	3.399916	0.000000	0.002879	0.000000	0.003212	0.000487	0.000000	0.000000
7.450818	21.198551	13.651347	0.569697	-0.385851	3.373258	0.000000	-0.099010	0.000000	0.003450	0.000379	0.000000	0.000000
7.999878	20.224748	14.348730	1.193486	-0.891724	3.291113	0.000000	-0.199137	0.000000	0.003627	0.000265	0.000000	0.000000
8.548938	18.608359	15.633069	1.732966	-1.461120	3.154943	0.000000	-0.295727	0.000000	0.003740	0.000145	0.000000	0.000000
9.097998	16.463576	17.595855	2.150022	-2.134601	2.967164	0.000000	-0.387069	0.000000	0.003786	0.000023	0.000000	0.000000
9.543958	14.790132	19.344583	1.615629	-1.769892	2.812717	0.000000	-0.305798	0.000000	0.003819	0.000122	0.000000	0.000000
9.984918	13.571005	20.715030	1.159488	-1.325981	2.694946	0.000000	-0.228508	0.000000	0.003894	0.000222	0.000000	0.000000
10.425878	12.729398	21.665757	0.756327	-0.821731	2.610610	0.000000	-0.153822	0.000000	0.004014	0.000323	0.000000	0.000000
10.866838	12.226853	22.153500	0.387725	-0.280089	2.558747	0.000000	-0.080892	0.000000	0.004180	0.000429	0.000000	0.000000
11.309048	12.040253	22.155494	0.065019	0.222022	2.538746	0.000000	-0.014853	0.000000	0.004394	0.000529	0.000000	0.000000
11.606371	12.008963	22.027656	0.040220	0.207941	2.534172	0.000000	-0.014853	0.000000	0.004552	0.000529	0.000000	0.000000
12.086371	11.989568	21.838945	0.000185	0.185208	2.526789	0.000000	-0.014853	0.000000	0.004805	0.000529	0.000000	0.000000
12.566371	12.008607	21.672057	-0.039849	0.162475	2.519406	0.000000	-0.014853	0.000000	0.005059	0.000529	0.000000	0.000000
13.046371	12.066079	21.526993	-0.079884	0.139742	2.512023	0.000000	-0.014853	0.000000	0.005313	0.000529	0.000000	0.000000
13.526371	12.161984	21.403753	-0.119919	0.117009	2.504640	0.000000	-0.014853	0.000000	0.005567	0.000529	0.000000	0.000000
14.007621	12.296723	21.302101	-0.160058	0.094217	2.497237	0.000000	-0.014853	0.000000	0.005822	0.000529	0.000000	0.000000
14.304943	12.399261	21.250284	-0.156197	0.031170	2.492663	0.000000	-0.020614	0.000000	0.005979	0.000515	0.000000	0.000000
14.745903	12.695955	20.990368	-0.518920	0.555969	2.498890	0.000000	0.050027	0.000000	0.006241	0.000672	0.000000	0.000000
15.186863	13.321814	20.277007	-0.905364	1.055470	2.536296	0.000000	0.121231	0.000000	0.006573	0.000838	0.000000	0.000000
15.627823	14.305451	19.142659	-1.333189	1.506941	2.605304	0.000000	0.193807	0.000000	0.006981	0.001012	0.000000	0.000000
16.068783	15.691836	17.638937	-1.821952	1.889837	2.706697	0.000000	0.268580	0.000000	0.007468	0.001199	0.000000	0.000000
16.514743	17.567970	15.812707	-2.398903	2.187619	2.843324	0.000000	0.346887	0.000000	0.008047	0.001400	0.000000	0.000000
17.063803	19.976735	13.774334	-1.960977	1.546327	3.009502	0.000000	0.259893	0.000000	0.008742	0.001128	0.000000	0.000000
17.612863	21.825089	12.375976	-1.384463	1.015199	3.126728	0.000000	0.168306	0.000000	0.009282	0.000836	0.000000	0.000000
18.161923	22.982379	11.518024	-0.710099	0.556398	3.192927	0.000000	0.073747	0.000000	0.009657	0.000529	0.000000	0.000000
18.710983	23.366795	11.139360	0.014455	0.137236	3.206930	0.000000	-0.022113	0.000000	0.009861	0.000213	0.000000	0.000000
19.009556	23.395285	11.049774	-0.054223	0.136316	3.202541	0.000000	-0.014444	0.000000	0.009932	0.000237	0.000000	0.000000
19.342889	23.436197	10.969139	-0.068513	0.105589	3.197648	0.000000	-0.014444	0.000000	0.010011	0.000237	0.000000	0.000000
19.676223	23.486635	10.908989	-0.082802	0.074862	3.192754	0.000000	-0.014444	0.000000	0.010090	0.000237	0.000000	0.000000
20.010806	23.547134	10.869078	-0.213811	0.097872	3.187861	0.000000	0.001350	0.000000	0.010169	0.000288	0.000000	0.000000
20.308129	23.678275	10.819057	-0.283419	0.096077	3.188182	0.000000	0.008945	0.000000	0.010255	0.000313	0.000000	0.000000
20.857189	23.581291	10.933295	0.459083	-0.305336	3.166864	0.000000	-0.086190	0.000000	0.010335	-0.000020	0.000000	0.000000
21.406249	22.681770	11.497687	1.169143	-0.728505	3.093823	0.000000	-0.179796	0.000000	0.010233	-0.000354	0.000000	0.000000
21.955309	21.043296	12.552442	1.796577	-1.203577	2.970353	0.000000	-0.270218	0.000000	0.009948	-0.000681	0.000000	0.000000
22.504369	18.781684	14.172699	2.297041	-1.764399	2.798642	0.000000	-0.355856	0.000000	0.009487	-0.000996	0.000000	0.000000
22.950329	17.001189	15.628297	1.708503	-1.485317	2.657565	0.000000	-0.278757	0.000000	0.009097	-0.000754	0.000000	0.000000
23.391289	15.721907	16.790373	1.202964	-1.139648	2.551197	0.000000	-0.205311	0.000000	0.008816	-0.000523	0.000000	0.000000
23.832249	14.862739	17.623429	0.752411	-0.742115	2.476578	0.000000	-0.134198	0.000000	0.008635	-0.000298	0.000000	0.000000
24.273209	14.384406	18.089558	0.336249	-0.310809	2.432861	0.000000	-0.064611	0.000000	0.008552	-0.000077	0.000000	0.000000
24.715418	14.265152	18.167273	-0.032547	0.093674	2.419548	0.000000	-0.001202	0.000000	0.008567	0.000124	0.000000	0.000000
25.012741	14.290709	18.116478	-0.053412	0.077165	2.419154	0.000000	-0.001202	0.000000	0.008604	0.000124	0.000000	0.000000
25.346075	14.334114	18.071205	-0.076803	0.058656	2.418712	0.000000	-0.001202	0.000000	0.008645	0.000124	0.000000	0.000000
25.679408	14.393114	18.038271	-0.100195	0.040147	2.418270	0.000000	-0.001202	0.000000	0.008686	0.000124	0.000000	0.000000
26.013991	14.467723	18.017987	-0.006303	-0.124602	2.417803	0.000000	-0.020816	0.000000	0.008727	0.000053	0.000000	0.000000
26.311314	14.477549	18.097105	0.005647	-0.181979	2.411595	0.000000	-0.026230	0.000000	0.008743	0.000032	0.000000	0.000000
26.752274	14.651465	18.061554	-0.401436	0.262283	2.415071	0.000000	0.042290	0.000000	0.008807	0.000259	0.000000	0.000000
27.193234	15.191189	17.637937	-0.826869	0.694608	2.448746	0.000000	0.111289	0.000000	0.008972	0.000488	0.000000	0.000000
27.634194	16.121397	16.845530	-1.290098	1.095323	2.513002	0.000000	0.181551	0.000000	0.009238	0.000722	0.000000	0.000000
28.075154	17.484620	15.720391	-1.812299	1.446190	2.608568	0.000000	0.253874	0.000000	0.009610	0.000965	0.000000	0.000000
28.521114	19.367059	14.296648	-2.422463	1.732338	2.738148	0.000000	0.329555	0.000000	0.010097	0.001221	0.000000	0.000000
29.070174	21.760679	12.711073	-1.909937	1.172080	2.895883	0.000000	0.246102	0.000000	0.010676	0.000885	0.000000	0.000000
29.619234	23.513399	11.691614	-1.262422	0.695328	3.006710	0.000000	0.158296	0.000000	0.011066	0.000532	0.000000	0.000000
30.168294	24.501315	11.165646	-0.525682	0.268117	3.068666	0.000000	0.067691	0.000000	0.011259	0.000170	0.000000	0.000000
30.717354	24.654590	11.095699	0.248213	-0.139991	3.080656	0.000000	-0.024113	0.000000	0.011253	-0.000194	0.000000	0.000000
31.015927	24.544756	11.171823	0.177504	-0.141041	3.075670	0.000000	-0.016846	0.000000	0.011203	-0.000166	0.000000	0.000000
31.349260	24.431089	11.275994	0.163496	-0.171471	3.070110	0.000000	-0.016846	0.000000	0.011148	-0.000166	0.000000	0.000000
31.682593	24.326762	11.400452	0.149487	-0.201902	3.064550	0.000000	-0.016846	0.000000	0.011092	-0.000166	0.000000	0.000000
32.017177	24.231435	11.545777	0.135426	-0.232446	3.058969	0.000000	-0.016846	0.000000	0.011036	-0.000166	0.000000	0.000000
32.314499	24.154705	11.692029	0.065798	-0.231958	3.054015	0.000000	-0.009622	0.000000	0.010987	-0.000139	0.000000	0.000000
32.863559	23.668900	12.185407	0.813403	-0.671794	3.023964	0.000000	-0.100269	0.000000	0.010813	-0.000492	0.000000	0.000000
33.412619	22.388757	13.185144	1.503516	-1.159493	2.944732	0.000000	-0.189145	0.000000	0.010448	-0.000837	0.000000	0.000000
33.961679	20.404774	14.762457	2.087361	-1.729801	2.817721	0.000000	-0.274678	0.000000	0.009897	-0.001166	0.000000	0.000000
34.510739	17.857201	17.029711	2.523679	-2.423348	2.645178	0.000000	-0.355357	0.000000	0.009171	-0.001475	0.000000	0.000000
34.956699	15.877838	19.058032	1.929362	-2.105263	2.503646	0.000000	-0.282251	0.000000	0.008565	-0.001245	0.000000	0.000000
35.397659	14.402421	20.739206	1.428360	-1.692305	2.395071	0.000000	-0.212804	0.000000	0.008063	-0.001031	0.000000	0.000000
35.838619	13.338608	22.020648	0.992647	-1.202335	2.316474	0.000000	-0.145771	0.000000	0.007654	-0.000828	0.000000	0.000000
36.279579	12.637761	22.844048	0.602308	-0.657650	2.266964	0.000000	-0.080389	0.000000	0.007331	-0.000635	0.000000	0.000000
36.721789	12.267187	23.172249	0.267420	-0.135890	2.245955	0.000000	-0.021048	0.000000	0.007092	-0.000466	0.000000	0.000000
37.019112	12.115888	23.256941	0.241449	-0.148958	2.239835	0.000000	-0.021048	0.000000	0.006953	-0.000466	0.000000	0.000000
37.352445	11.964627	23.361129	0.212333	-0.163608	2.232975	0.000000	-0.021048	0.000000	0.006798	-0.000466	0.000000	0.000000
37.685779	11.832777	23.475085	0.183217	-0.178259	2.226114	0.000000	-0.021048	0.000000	0.006643	-0.000466	0.000000	0.000000
38.020362	11.719952	23.599290	0.153992	-0.192964	2.219228	0.000000	-0.021048	0.000000	0.006487	-0.000466	0.000000	0.000000
38.317684	11.636089	23.717949	0.154817	-0.260807	2.213107	0.000000	-0.026144	0.000000	0.006348	-0.000481	0.000000	0.000000
38.758644	11.648564	23.685122	-0.183345	0.334962	2.215722	0.000000	0.037243	0.000000	0.006172	-0.000320	0.000000	0.000000
39.199604	11.961872	23.131568	-0.529883	0.915488	2.246291	0.000000	0.101057	0.000000	0.006066	-0.000162	0.000000	0.000000
39.640564	12.590330	22.082481	-0.900635	1.454352	2.305162	0.000000	0.166024	0.000000	0.006029	-0.000006	0.000000	0.000000
40.081524	13.562660	20.585600	-1.312545	1.927032	2.393006	0.000000	0.232883	0.000000	0.006061	0.000150	0.000000	0.000000
40.527484	14.940844	18.686322	-1.788357	2.313476	2.512309	0.000000	0.302819	0.000000	0.006163	0.000308	0.000000	0.000000
41.076544	16.702016	16.551457	-1.399887	1.597349	2.657849	0.000000	0.226895	0.000000	0.006277	0.000107	0.000000	0.000000
41.625604	17.979339	15.136319	-0.912508	0.995018	2.760638	0.000000	0.146947	0.000000	0.006280	-0.000097	0.000000	0.000000
42.174664	18.682553	14.340095	-0.360659	0.463572	2.818852	0.000000	0.064391	0.000000	0.006171	-0.000298	0.000000	0.000000
42.723724	18.761974	14.106060	0.216666	-0.034847	2.831456	0.000000	-0.019312	0.000000	0.005953	-0.000495	0.000000	0.000000
43.022297	18.665251	14.112249	0.153756	-0.020923	2.827928	0.000000	-0.012290	0.000000	0.005810	-0.000480	0.000000	0.000000
43.502297	18.530281	14.148669	0.127432	-0.054951	2.822260	0.000000	-0.012290	0.000000	0.005580	-0.000480	0.000000	0.000000
43.982297	18.420581	14.217756	0.101108	-0.088979	2.816591	0.000000	-0.012290	0.000000	0.005350	-0.000480	0.000000	0.000000
44.462297	18.336154	14.319509	0.074784	-0.123007	2.810922	0.000000	-0.012290	0.000000	0.005120	-0.000480	0.000000	0.000000
44.942297	18.276997	14.453929	0.048459	-0.157035	2.805253	0.000000	-0.012290	0.000000	0.004889	-0.000480	0.000000	0.000000
45.423547	18.243282	14.621312	-0.068321	-0.118708	2.799587	0.000000	0.001581	0.000000	0.004659	-0.000456	0.000000	0.000000
45.720870	18.288788	14.698024	-0.130648	-0.102494	2.800194	0.000000	0.008617	0.000000	0.004523	-0.000445	0.000000	0.000000
46.269930	18.124073	15.094525	0.428579	-0.623868	2.782493	0.000000	-0.073987	0.000000	0.004239	-0.000587	0.000000	0.000000
46.818990	17.358262	16.084487	0.957517	-1.189682	2.719799	0.000000	-0.155287	0.000000	0.003880	-0.000718	0.000000	0.000000
47.368050	16.045477	17.738421	1.418797	-1.840241	2.613219	0.000000	-0.233845	0.000000	0.003453	-0.000837	0.000000	0.000000
47.917110	14.278482	20.174130	1.779832	-2.621884	2.464639	0.000000	-0.308268	0.000000	0.002964	-0.000941	0.000000	0.000000
48.363070	12.902374	22.339124	1.316353	-2.212229	2.342919	0.000000	-0.239618	0.000000	0.002560	-0.000870	0.000000	0.000000
48.804030	11.921188	24.072364	0.916828	-1.703285	2.252144	0.000000	-0.174096	0.000000	0.002191	-0.000808	0.000000	0.000000
49.244990	11.272647	25.320713	0.559199	-1.116840	2.189777	0.000000	-0.110548	0.000000	0.001846	-0.000756	0.000000	0.000000
49.685950	10.927108	26.027378	0.227127	-0.479581	2.155111	0.000000	-0.048251	0.000000	0.001522	-0.000713	0.000000	0.000000
50.128160	10.868949	26.159919	-0.068333	0.116289	2.147764	0.000000	0.008297	0.000000	0.001215	-0.000680	0.000000	0.000000
50.425482	10.917754	26.094193	-0.095816	0.104769	2.150434	0.000000	0.008297	0.000000	0.001013	-0.000680	0.000000	0.000000
50.758816	10.991902	26.028651	-0.126628	0.091855	2.153426	0.000000	0.008297	0.000000	0.000786	-0.000680	0.000000	0.000000
51.092149	11.086591	25.971719	-0.157439	0.078941	2.156419	0.000000	0.008297	0.000000	0.000559	-0.000680	0.000000	0.000000
51.426732	11.202064	25.923758	-0.097488	-0.144328	2.159401	0.000000	-0.009221	0.000000	0.000332	-0.000683	0.000000	0.000000
51.724055	11.268002	26.013063	-0.096683	-0.220004	2.156863	0.000000	-0.014504	0.000000	0.000129	-0.000684	0.000000	0.000000
52.165015	11.500003	25.917529	-0.431662	0.435831	2.164419	0.000000	0.047486	0.000000	-0.000173	-0.000684	0.000000	0.000000
52.605975	12.034968	25.250172	-0.786358	1.071834	2.199408	0.000000	0.110025	0.000000	-0.000476	-0.000692	0.000000	0.000000
53.046935	12.897330	24.041365	-1.176974	1.659067	2.262229	0.000000	0.173824	0.000000	-0.000785	-0.000709	0.000000	0.000000
53.487895	14.126480	22.346112	-1.621355	2.170814	2.353602	0.000000	0.239610	0.000000	-0.001102	-0.000733	0.000000	0.000000
53.933855	15.799579	20.216220	-2.144076	2.585106	2.476084	0.000000	0.308530	0.000000	-0.001436	-0.000766	0.000000	0.000000
54.482915	17.953159	17.819146	-1.755456	1.806543	2.625560	0.000000	0.233736	0.000000	-0.001843	-0.000713	0.000000	0.000000
55.031975	19.608970	16.201766	-1.242862	1.156654	2.732735	0.000000	0.154784	0.000000	-0.002216	-0.000647	0.000000	0.000000
55.581035	20.650082	15.248873	-0.642500	0.589148	2.795702	0.000000	0.073077	0.000000	-0.002551	-0.000570	0.000000	0.000000
56.130095	21.002984	14.892589	0.003228	0.063606	2.813340	0.000000	-0.009935	0.000000	-0.002840	-0.000482	0.000000	0.000000
56.428668	21.038852	14.836815	-0.067202	0.083275	2.812766	0.000000	-0.002410	0.000000	-0.002987	-0.000490	0.000000	0.000000
56.762001	21.088959	14.788839	-0.083117	0.060653	2.812126	0.000000	-0.002410	0.000000	-0.003150	-0.000490	0.000000	0.000000
57.095334	21.149675	14.755945	-0.099032	0.038030	2.811485	0.000000	-0.002410	0.000000	-0.003313	-0.000490	0.000000	0.000000
57.429918	21.221289	14.738094	-0.115007	0.015323	2.810843	0.000000	-0.002410	0.000000	-0.003477	-0.000490	0.000000	0.000000
57.727240	21.293907	14.734976	-0.186512	0.034697	2.810272	0.000000	0.005153	0.000000	-0.003623	-0.000500	0.000000	0.000000
58.276300	21.134742	14.979384	0.474431	-0.482488	2.790553	0.000000	-0.077724	0.000000	-0.003864	-0.000378	0.000000	0.000000
58.825360	20.264057	15.807115	1.101860	-1.034035	2.725577	0.000000	-0.159229	0.000000	-0.004037	-0.000250	0.000000	0.000000
59.374420	18.743346	17.277114	1.651467	-1.659225	2.616492	0.000000	-0.237913	0.000000	-0.004138	-0.000118	0.000000	0.000000
59.923480	16.680004	19.494072	2.084441	-2.402582	2.465233	0.000000	-0.312380	0.000000	-0.004166	0.000017	0.000000	0.000000
60.369440	15.063804	21.464292	1.552588	-1.996844	2.341307	0.000000	-0.243776	0.000000	-0.004183	-0.000092	0.000000	0.000000
60.810400	13.900408	23.012744	1.095844	-1.501554	2.248397	0.000000	-0.178334	0.000000	-0.004247	-0.000200	0.000000	0.000000
61.251360	13.116273	24.092512	0.689158	-0.937954	2.183914	0.000000	-0.114920	0.000000	-0.004360	-0.000311	0.000000	0.000000
61.692320	12.675581	24.654474	0.313954	-0.331684	2.147128	0.000000	-0.052811	0.000000	-0.004522	-0.000426	0.000000	0.000000
62.134530	12.558244	24.672485	-0.014845	0.226634	2.137625	0.000000	0.003227	0.000000	-0.004736	-0.000533	0.000000	0.000000
62.431853	12.574112	24.541485	-0.038526	0.213964	2.138743	0.000000	0.003227	0.000000	-0.004895	-0.000533	0.000000	0.000000
62.765186	12.608646	24.403577	-0.065075	0.199760	2.139996	0.000000	0.003227	0.000000	-0.005073	-0.000533	0.000000	0.000000
63.098520	12.660879	24.275139	-0.091624	0.185555	2.141249	0.000000	0.003227	0.000000	-0.005250	-0.000533	0.000000	0.000000
63.433103	12.731106	24.155742	-0.118272	0.171298	2.142507	0.000000	0.003227	0.000000	-0.005429	-0.000533	0.000000	0.000000
63.730426	12.808465	24.057669	-0.108909	0.096380	2.143624	0.000000	-0.002304	0.000000	-0.005587	-0.000519	0.000000	0.000000
64.171386	13.066816	23.707841	-0.479462	0.694000	2.156453	0.000000	0.059404	0.000000	-0.005848	-0.000666	0.000000	0.000000
64.612346	13.660290	22.842967	-0.871909	1.260046	2.196680	0.000000	0.121796	0.000000	-0.006176	-0.000821	0.000000	0.000000
65.053306	14.615984	21.502402	-1.304174	1.768769	2.264766	0.000000	0.185583	0.000000	-0.006574	-0.000986	0.000000	0.000000
65.494266	15.977535	19.747136	-1.795997	2.197026	2.361488	0.000000	0.251494	0.000000	-0.007047	-0.001161	0.000000	0.000000
65.940226	17.830408	17.632184	-2.374376	2.525921	2.489533	0.000000	0.320659	0.000000	-0.007607	-0.001351	0.000000	0.000000
66.489286	20.203109	15.266721	-1.922580	1.808196	2.645776	0.000000	0.245335	0.000000	-0.008279	-0.001094	0.000000	0.000000
67.038346	22.001856	13.614430	-1.335053	1.219240	2.759260	0.000000	0.165643	0.000000	-0.008805	-0.000817	0.000000	0.000000
67.587406	23.099688	12.557630	-0.653277	0.717110	2.827968	0.000000	0.083001	0.000000	-0.009174	-0.000526	0.000000	0.000000
68.136466	23.419120	12.021056	0.074612	0.266047	2.850675	0.000000	-0.001122	0.000000	-0.009380	-0.000226	0.000000	0.000000
68.435038	23.417653	11.850086	-0.004019	0.272830	2.852805	0.000000	0.006897	0.000000	-0.009455	-0.000251	0.000000	0.000000
68.768372	23.425077	11.678273	-0.018254	0.242607	2.855188	0.000000	0.006897	0.000000	-0.009539	-0.000251	0.000000	0.000000
69.101705	23.441991	11.526610	-0.032488	0.212384	2.857571	0.000000	0.006897	0.000000	-0.009623	-0.000251	0.000000	0.000000
69.436288	23.468511	11.394640	-0.046776	0.182047	2.859962	0.000000	0.006897	0.000000	-0.009707	-0.000251	0.000000	0.000000
69.733611	23.500167	11.294370	-0.125774	0.186912	2.862092	0.000000	0.014972	0.000000	-0.009781	-0.000278	0.000000	0.000000
70.282671	23.234730	11.315560	0.606341	-0.225738	2.847125	0.000000	-0.069645	0.000000	-0.009846	0.000040	0.000000	0.000000
