#ParticleID	Turn	x[m]	xp	y[m]	yp	z[m]	dE[GeV]# s	beta_x	beta_y	alpha_x	alpha_y	D_x	D_y	D_px	D_py	orbit_x	orbit_px	orbit_y	orbit_py
0.300000	11.961569	25.279086	-0.017209	-0.023096	2.599030	0.000000	-0.000514	0.000000	-0.001117	0.000955	0.000000	0.000000
0.601250	11.979527	25.296594	-0.042401	-0.035020	2.598587	0.000000	-0.000514	0.000000	-0.000829	0.000955	0.000000	0.000000
0.898573	12.012133	25.320917	-0.037656	-0.108855	2.598150	0.000000	-0.006918	0.000000	-0.000545	0.000957	0.000000	0.000000
1.339533	12.199209	25.135912	-0.387875	0.526812	2.610874	0.000000	0.066514	0.000000	-0.000126	0.000948	0.000000	0.000000
1.780493	12.701778	24.398763	-0.755823	1.138514	2.656114	0.000000	0.140694	0.000000	0.000292	0.000950	0.000000	0.000000
2.221453	13.542808	23.143002	-1.158310	1.698417	2.734381	0.000000	0.216466	0.000000	0.000714	0.000963	0.000000	0.000000
2.662413	14.760736	21.425757	-1.613727	2.181045	2.846564	0.000000	0.294693	0.000000	0.001143	0.000987	0.000000	0.000000
3.108373	16.432263	19.299986	-2.147254	2.565614	2.995776	0.000000	0.376758	0.000000	0.001591	0.001023	0.000000	0.000000
3.657433	18.574829	16.912047	-1.731281	1.809080	3.177088	0.000000	0.284596	0.000000	0.002137	0.000962	0.000000	0.000000
4.206493	20.190332	15.279671	-1.192990	1.181405	3.306376	0.000000	0.187402	0.000000	0.002645	0.000885	0.000000	0.000000
4.755553	21.164622	14.286595	-0.570403	0.637881	3.381354	0.000000	0.086897	0.000000	0.003105	0.000792	0.000000	0.000000
5.304613	21.428846	13.862092	0.092496	0.139792	3.400698	0.000000	-0.015136	0.000000	0.003511	0.000684	0.000000	0.000000
5.603185	21.410213	13.764343	0.024214	0.152603	3.398546	0.000000	-0.006514	0.000000	0.003718	0.000693	0.000000	0.000000
5.936519	21.399263	13.670869	0.008636	0.127821	3.396143	0.000000	-0.006514	0.000000	0.003949	0.000693	0.000000	0.000000
6.269852	21.398699	13.593915	-0.006942	0.103040	3.393741	0.000000	-0.006514	0.000000	0.004180	0.000693	0.000000	0.000000
6.604435	21.408576	13.533286	-0.022579	0.078166	3.391329	0.000000	-0.006514	0.000000	0.004412	0.000693	0.000000	0.000000
6.901758	21.426148	13.493368	-0.090261	0.090074	3.389187	0.000000	0.001994	0.000000	0.004619	0.000705	0.000000	0.000000
7.450818	21.159977	13.656246	0.572515	-0.388454	3.362036	0.000000	-0.099544	0.000000	0.004964	0.000550	0.000000	0.000000
7.999878	20.183886	14.356668	1.194856	-0.894657	3.279621	0.000000	-0.199307	0.000000	0.005221	0.000385	0.000000	0.000000
8.548938	18.566830	15.644534	1.732787	-1.464595	3.143405	0.000000	-0.295529	0.000000	0.005385	0.000213	0.000000	0.000000
9.097998	16.423058	17.611594	2.148298	-2.138871	2.955810	0.000000	-0.386504	0.000000	0.005454	0.000037	0.000000	0.000000
9.543958	14.750757	19.364093	1.614696	-1.773937	2.801533	0.000000	-0.305516	0.000000	0.005502	0.000180	0.000000	0.000000
9.984918	13.532089	20.737988	1.159340	-1.329651	2.683787	0.000000	-0.228510	0.000000	0.005613	0.000323	0.000000	0.000000
10.425878	12.690268	21.691747	0.756961	-0.824856	2.599332	0.000000	-0.154110	0.000000	0.005788	0.000470	0.000000	0.000000
10.866838	12.186823	22.181964	0.389170	-0.282523	2.547205	0.000000	-0.081471	0.000000	0.006028	0.000622	0.000000	0.000000
11.309048	11.998598	22.185747	0.066688	0.221272	2.526790	0.000000	-0.015585	0.000000	0.006338	0.000767	0.000000	0.000000
11.606371	11.966343	22.058348	0.041798	0.207214	2.521928	0.000000	-0.015585	0.000000	0.006566	0.000767	0.000000	0.000000
12.086371	11.945504	21.870316	0.001615	0.184519	2.514079	0.000000	-0.015585	0.000000	0.006934	0.000767	0.000000	0.000000
12.566371	11.963241	21.704071	-0.038567	0.161824	2.506230	0.000000	-0.015585	0.000000	0.007302	0.000767	0.000000	0.000000
13.046371	12.019553	21.559613	-0.078750	0.139130	2.498381	0.000000	-0.015585	0.000000	0.007670	0.000767	0.000000	0.000000
13.526371	12.114440	21.436942	-0.118932	0.116435	2.490532	0.000000	-0.015585	0.000000	0.008038	0.000767	0.000000	0.000000
14.007621	12.248301	21.335824	-0.159220	0.093681	2.482663	0.000000	-0.015585	0.000000	0.008407	0.000767	0.000000	0.000000
14.304943	12.350354	21.284343	-0.156354	0.032008	2.477799	0.000000	-0.021154	0.000000	0.008635	0.000746	0.000000	0.000000
14.745903	12.646758	21.023272	-0.517984	0.557716	2.483591	0.000000	0.049103	0.000000	0.009014	0.000974	0.000000	0.000000
15.186863	13.271377	20.307970	-0.903296	1.058044	2.520360	0.000000	0.119910	0.000000	0.009495	0.001212	0.000000	0.000000
15.627823	14.252776	19.170979	-1.329905	1.510223	2.588522	0.000000	0.192069	0.000000	0.010085	0.001465	0.000000	0.000000
16.068783	15.635836	17.664036	-1.817312	1.893672	2.688848	0.000000	0.266402	0.000000	0.010790	0.001734	0.000000	0.000000
16.514743	17.507454	15.834036	-2.392771	2.191912	2.824163	0.000000	0.344245	0.000000	0.011627	0.002025	0.000000	0.000000
17.063803	19.910796	13.791389	-1.956743	1.549660	2.988774	0.000000	0.257886	0.000000	0.012633	0.001632	0.000000	0.000000
17.612863	21.755921	12.389702	-1.382392	1.017820	3.104858	0.000000	0.166977	0.000000	0.013414	0.001210	0.000000	0.000000
18.161923	22.912365	11.529120	-0.710314	0.558500	3.170364	0.000000	0.073125	0.000000	0.013957	0.000766	0.000000	0.000000
18.710983	23.298348	11.148336	0.011986	0.138973	3.184137	0.000000	-0.022012	0.000000	0.014253	0.000309	0.000000	0.000000
19.009556	23.326731	11.058420	-0.054183	0.136935	3.179629	0.000000	-0.014723	0.000000	0.014356	0.000344	0.000000	0.000000
19.342889	23.367631	10.977366	-0.068515	0.106227	3.174607	0.000000	-0.014723	0.000000	0.014470	0.000344	0.000000	0.000000
19.676223	23.418085	10.916784	-0.082847	0.075519	3.169585	0.000000	-0.014723	0.000000	0.014585	0.000344	0.000000	0.000000
20.010806	23.478627	10.876427	-0.213558	0.098584	3.164563	0.000000	0.000956	0.000000	0.014700	0.000417	0.000000	0.000000
20.308129	23.609707	10.825942	-0.280518	0.095689	3.164734	0.000000	0.008157	0.000000	0.014824	0.000453	0.000000	0.000000
20.857189	23.510769	10.940736	0.459752	-0.305953	3.143153	0.000000	-0.086227	0.000000	0.014940	-0.000029	0.000000	0.000000
21.406249	22.611682	11.505988	1.167527	-0.729397	3.070338	0.000000	-0.179081	0.000000	0.014792	-0.000511	0.000000	0.000000
21.955309	20.976018	12.561972	1.792769	-1.204814	2.947577	0.000000	-0.268766	0.000000	0.014381	-0.000984	0.000000	0.000000
22.504369	18.719431	14.183922	2.291281	-1.766079	2.777045	0.000000	-0.353697	0.000000	0.013714	-0.001439	0.000000	0.000000
22.950329	16.943119	15.641003	1.704233	-1.486632	2.636966	0.000000	-0.277126	0.000000	0.013151	-0.001091	0.000000	0.000000
23.391289	15.666846	16.804159	1.200088	-1.140622	2.531317	0.000000	-0.204194	0.000000	0.012744	-0.000757	0.000000	0.000000
23.832249	14.809564	17.637952	0.750809	-0.742698	2.457154	0.000000	-0.133581	0.000000	0.012482	-0.000431	0.000000	0.000000
24.273209	14.332066	18.104436	0.335855	-0.310971	2.413633	0.000000	-0.064486	0.000000	0.012362	-0.000111	0.000000	0.000000
24.715418	14.212665	18.182061	-0.033192	0.095590	2.400263	0.000000	-0.001298	0.000000	0.012384	0.000179	0.000000	0.000000
25.012741	14.238629	18.130125	-0.054135	0.079088	2.399824	0.000000	-0.001298	0.000000	0.012437	0.000179	0.000000	0.000000
25.346075	14.282545	18.083567	-0.077614	0.060587	2.399331	0.000000	-0.001298	0.000000	0.012497	0.000179	0.000000	0.000000
25.679408	14.342114	18.049342	-0.101093	0.042087	2.398839	0.000000	-0.001298	0.000000	0.012557	0.000179	0.000000	0.000000
26.013991	14.417355	18.027758	-0.007697	-0.122733	2.398320	0.000000	-0.020755	0.000000	0.012616	0.000077	0.000000	0.000000
26.311314	14.427996	18.105803	0.002693	-0.178381	2.392121	0.000000	-0.025897	0.000000	0.012639	0.000048	0.000000	0.000000
26.752274	14.604058	18.066973	-0.403318	0.266090	2.395607	0.000000	0.042128	0.000000	0.012732	0.000375	0.000000	0.000000
27.193234	15.145065	17.639945	-0.827769	0.698451	2.429031	0.000000	0.110629	0.000000	0.012971	0.000706	0.000000	0.000000
27.634194	16.075761	16.844153	-1.290066	1.099023	2.492773	0.000000	0.180384	0.000000	0.013357	0.001046	0.000000	0.000000
28.075154	17.438713	15.715809	-1.811347	1.449573	2.587555	0.000000	0.252182	0.000000	0.013895	0.001397	0.000000	0.000000
28.521114	19.320261	14.289054	-2.420663	1.735336	2.716066	0.000000	0.327324	0.000000	0.014600	0.001767	0.000000	0.000000
29.070174	21.713145	12.700191	-1.909831	1.174912	2.872535	0.000000	0.244594	0.000000	0.015438	0.001280	0.000000	0.000000
29.619234	23.466904	11.677544	-1.263981	0.698206	2.982581	0.000000	0.157545	0.000000	0.016002	0.000771	0.000000	0.000000
30.168294	24.457519	11.148257	-0.528771	0.271251	3.044258	0.000000	0.067712	0.000000	0.016282	0.000247	0.000000	0.000000
30.717354	24.614937	11.074620	0.243821	-0.136375	3.056475	0.000000	-0.023318	0.000000	0.016273	-0.000280	0.000000	0.000000
31.015927	24.505839	11.149443	0.176097	-0.138804	3.051618	0.000000	-0.016469	0.000000	0.016201	-0.000241	0.000000	0.000000
31.349260	24.393116	11.252136	0.162073	-0.169277	3.046208	0.000000	-0.016469	0.000000	0.016121	-0.000241	0.000000	0.000000
31.682593	24.289742	11.375145	0.148049	-0.199750	3.040799	0.000000	-0.016469	0.000000	0.016041	-0.000241	0.000000	0.000000
32.017177	24.195382	11.519045	0.133972	-0.230337	3.035369	0.000000	-0.016469	0.000000	0.015960	-0.000241	0.000000	0.000000
32.314499	24.119614	11.664008	0.067185	-0.231305	3.030555	0.000000	-0.009649	0.000000	0.015889	-0.000202	0.000000	0.000000
32.863559	23.632800	12.156270	0.813685	-0.670340	3.000766	0.000000	-0.099553	0.000000	0.015637	-0.000713	0.000000	0.000000
33.412619	22.352780	13.153996	1.502654	-1.157141	2.922280	0.000000	-0.187702	0.000000	0.015108	-0.001211	0.000000	0.000000
33.961679	20.370079	14.728268	2.085388	-1.726394	2.796482	0.000000	-0.272540	0.000000	0.014311	-0.001688	0.000000	0.000000
34.510739	17.824904	16.991239	2.520694	-2.418656	2.625595	0.000000	-0.352569	0.000000	0.013260	-0.002134	0.000000	0.000000
34.956699	15.847565	19.015877	1.927072	-2.101344	2.485447	0.000000	-0.279936	0.000000	0.012383	-0.001802	0.000000	0.000000
35.397659	14.373682	20.694136	1.426757	-1.689433	2.378003	0.000000	-0.210938	0.000000	0.011657	-0.001492	0.000000	0.000000
35.838619	13.310876	21.973617	0.991672	-1.200632	2.300308	0.000000	-0.144328	0.000000	0.011065	-0.001199	0.000000	0.000000
36.279579	12.610538	22.796100	0.601926	-0.657190	2.251482	0.000000	-0.079349	0.000000	0.010598	-0.000920	0.000000	0.000000
36.721789	12.240012	23.124428	0.266618	-0.134749	2.230952	0.000000	-0.020190	0.000000	0.010251	-0.000675	0.000000	0.000000
37.019112	12.089204	23.208448	0.240600	-0.147840	2.225150	0.000000	-0.020190	0.000000	0.010050	-0.000675	0.000000	0.000000
37.352445	11.938527	23.311900	0.211431	-0.162516	2.218645	0.000000	-0.020190	0.000000	0.009825	-0.000675	0.000000	0.000000
37.685779	11.807295	23.425136	0.182262	-0.177193	2.212140	0.000000	-0.020190	0.000000	0.009601	-0.000675	0.000000	0.000000
38.020362	11.695127	23.548637	0.152984	-0.191924	2.205610	0.000000	-0.020190	0.000000	0.009375	-0.000675	0.000000	0.000000
38.317684	11.611863	23.666714	0.152915	-0.258128	2.199805	0.000000	-0.025106	0.000000	0.009174	-0.000696	0.000000	0.000000
38.758644	11.625763	23.632121	-0.184745	0.336270	2.202882	0.000000	0.037949	0.000000	0.008919	-0.000463	0.000000	0.000000
39.199604	11.940104	23.078022	-0.530845	0.915363	2.233738	0.000000	0.101440	0.000000	0.008765	-0.000235	0.000000	0.000000
39.640564	12.569253	22.029637	-0.901205	1.452797	2.292726	0.000000	0.166090	0.000000	0.008711	-0.000010	0.000000	0.000000
40.081524	13.541967	20.534679	-1.312753	1.924113	2.380520	0.000000	0.232632	0.000000	0.008757	0.000215	0.000000	0.000000
40.527484	14.920298	18.638443	-1.788272	2.309381	2.499604	0.000000	0.302255	0.000000	0.008904	0.000445	0.000000	0.000000
41.076544	16.681922	16.507163	-1.400622	1.594724	2.644903	0.000000	0.226739	0.000000	0.009068	0.000153	0.000000	0.000000
41.625604	17.960526	15.094131	-0.913998	0.993684	2.747723	0.000000	0.147204	0.000000	0.009072	-0.000141	0.000000	0.000000
42.174664	18.665744	14.298675	-0.362792	0.463441	2.806239	0.000000	0.065054	0.000000	0.008914	-0.000432	0.000000	0.000000
42.723724	18.747745	14.064122	0.214041	-0.033782	2.819410	0.000000	-0.018257	0.000000	0.008599	-0.000716	0.000000	0.000000
43.022297	18.651874	14.070250	0.152291	-0.020826	2.816201	0.000000	-0.011433	0.000000	0.008392	-0.000694	0.000000	0.000000
43.502297	18.518313	14.106625	0.125959	-0.054955	2.811046	0.000000	-0.011433	0.000000	0.008058	-0.000694	0.000000	0.000000
43.982297	18.410031	14.175765	0.099628	-0.089085	2.805891	0.000000	-0.011433	0.000000	0.007725	-0.000694	0.000000	0.000000
44.462297	18.327028	14.277668	0.073296	-0.123214	2.800736	0.000000	-0.011433	0.000000	0.007392	-0.000694	0.000000	0.000000
44.942297	18.269302	14.412336	0.046965	-0.157343	2.795581	0.000000	-0.011433	0.000000	0.007059	-0.000694	0.000000	0.000000
45.423547	18.237030	14.580066	-0.069792	-0.119323	2.790430	0.000000	0.002392	0.000000	0.006725	-0.000661	0.000000	0.000000
45.720870	18.283425	14.657152	-0.131289	-0.103977	2.791339	0.000000	0.009280	0.000000	0.006529	-0.000644	0.000000	0.000000
46.269930	18.119420	15.054657	0.427805	-0.624204	2.774199	0.000000	-0.073051	0.000000	0.006118	-0.000849	0.000000	0.000000
46.818990	17.354409	16.044398	0.956659	-1.188896	2.712242	0.000000	-0.154100	0.000000	0.005599	-0.001039	0.000000	0.000000
47.368050	16.042468	17.696870	1.417904	-1.838279	2.606558	0.000000	-0.232432	0.000000	0.004981	-0.001210	0.000000	0.000000
47.917110	14.276318	20.129770	1.778953	-2.618610	2.459015	0.000000	-0.306660	0.000000	0.004274	-0.001360	0.000000	0.000000
48.363070	12.900857	22.292396	1.315557	-2.210132	2.338155	0.000000	-0.238140	0.000000	0.003691	-0.001257	0.000000	0.000000
48.804030	11.920264	24.024382	0.916105	-1.702488	2.248164	0.000000	-0.172729	0.000000	0.003156	-0.001169	0.000000	0.000000
49.244990	11.272279	25.272634	0.558520	-1.117379	2.186527	0.000000	-0.109273	0.000000	0.002658	-0.001094	0.000000	0.000000
49.685950	10.927281	25.980363	0.226464	-0.481431	2.152546	0.000000	-0.047050	0.000000	0.002190	-0.001031	0.000000	0.000000
50.128160	10.869668	26.115092	-0.069140	0.113755	2.145851	0.000000	0.009473	0.000000	0.001745	-0.000985	0.000000	0.000000
50.425482	10.918954	26.050877	-0.096625	0.102223	2.148960	0.000000	0.009473	0.000000	0.001453	-0.000985	0.000000	0.000000
50.758816	10.993641	25.987038	-0.127438	0.089293	2.152446	0.000000	0.009473	0.000000	0.001124	-0.000985	0.000000	0.000000
51.092149	11.088871	25.931819	-0.158251	0.076364	2.155932	0.000000	0.009473	0.000000	0.000796	-0.000985	0.000000	0.000000
51.426732	11.204888	25.885586	-0.098278	-0.146610	2.159409	0.000000	-0.008045	0.000000	0.000467	-0.000989	0.000000	0.000000
51.724055	11.271294	25.976255	-0.097474	-0.222307	2.157311	0.000000	-0.013327	0.000000	0.000173	-0.000989	0.000000	0.000000
52.165015	11.503990	25.883173	-0.432550	0.432593	2.165521	0.000000	0.048683	0.000000	-0.000263	-0.000990	0.000000	0.000000
52.605975	12.039748	25.219034	-0.787382	1.067806	2.201176	0.000000	0.111259	0.000000	-0.000702	-0.001003	0.000000	0.000000
53.046935	12.903037	24.014066	-1.178178	1.654432	2.264687	0.000000	0.175112	0.000000	-0.001149	-0.001026	0.000000	0.000000
53.487895	14.133285	22.323102	-1.622790	2.165782	2.356780	0.000000	0.240970	0.000000	-0.001609	-0.001062	0.000000	0.000000
53.933855	15.807716	20.197807	-2.145793	2.579894	2.480032	0.000000	0.309980	0.000000	-0.002093	-0.001110	0.000000	0.000000
54.482915	17.962997	17.805917	-1.757019	1.802302	2.630442	0.000000	0.235045	0.000000	-0.002682	-0.001033	0.000000	0.000000
55.031975	19.620282	16.192824	-1.244171	1.153079	2.738450	0.000000	0.155925	0.000000	-0.003223	-0.000937	0.000000	0.000000
55.581035	20.662552	15.243623	-0.643472	0.585985	2.802134	0.000000	0.074024	0.000000	-0.003708	-0.000825	0.000000	0.000000
56.130095	21.016224	14.890695	0.002654	0.060629	2.820357	0.000000	-0.009203	0.000000	-0.004126	-0.000698	0.000000	0.000000
56.428668	21.052796	14.836431	-0.068386	0.080758	2.820095	0.000000	-0.001582	0.000000	-0.004338	-0.000709	0.000000	0.000000
56.762001	21.103689	14.790130	-0.084293	0.058144	2.819804	0.000000	-0.001582	0.000000	-0.004574	-0.000709	0.000000	0.000000
57.095334	21.165187	14.758905	-0.100200	0.035530	2.819513	0.000000	-0.001582	0.000000	-0.004811	-0.000709	0.000000	0.000000
57.429918	21.237580	14.742724	-0.116167	0.012832	2.819221	0.000000	-0.001582	0.000000	-0.005048	-0.000709	0.000000	0.000000
57.727240	21.310894	14.741079	-0.188454	0.032700	2.818963	0.000000	0.006104	0.000000	-0.005258	-0.000723	0.000000	0.000000
58.276300	21.153492	14.987791	0.473069	-0.484723	2.799792	0.000000	-0.077060	0.000000	-0.005607	-0.000547	0.000000	0.000000
58.825360	20.283914	15.818154	1.101174	-1.036663	2.735173	0.000000	-0.158865	0.000000	-0.005857	-0.000361	0.000000	0.000000
59.374420	18.763574	17.291297	1.651509	-1.662428	2.626250	0.000000	-0.237859	0.000000	-0.006003	-0.000169	0.000000	0.000000
59.923480	16.699830	19.512130	2.085216	-2.406584	2.474950	0.000000	-0.312637	0.000000	-0.006042	0.000026	0.000000	0.000000
60.369440	15.083109	21.485824	1.553007	-2.000642	2.350971	0.000000	-0.243791	0.000000	-0.006065	-0.000131	0.000000	0.000000
60.810400	13.919532	23.037411	1.095882	-1.504934	2.258138	0.000000	-0.178102	0.000000	-0.006158	-0.000288	0.000000	0.000000
61.251360	13.135533	24.119890	0.688815	-0.940766	2.193863	0.000000	-0.114437	0.000000	-0.006320	-0.000449	0.000000	0.000000
61.692320	12.695303	24.684019	0.313212	-0.333804	2.157416	0.000000	-0.052071	0.000000	-0.006554	-0.000615	0.000000	0.000000
62.134530	12.578788	24.703546	-0.015365	0.224128	2.148393	0.000000	0.004104	0.000000	-0.006864	-0.000771	0.000000	0.000000
62.431853	12.594954	24.574027	-0.039007	0.211488	2.149842	0.000000	0.004104	0.000000	-0.007094	-0.000771	0.000000	0.000000
62.765186	12.629794	24.437759	-0.065513	0.197317	2.151467	0.000000	0.004104	0.000000	-0.007350	-0.000771	0.000000	0.000000
63.098520	12.682305	24.310938	-0.092019	0.183146	2.153092	0.000000	0.004104	0.000000	-0.007607	-0.000771	0.000000	0.000000
63.433103	12.752783	24.193143	-0.118625	0.168921	2.154723	0.000000	0.004104	0.000000	-0.007865	-0.000771	0.000000	0.000000
63.730426	12.830328	24.096499	-0.108449	0.092501	2.156171	0.000000	-0.001579	0.000000	-0.008094	-0.000750	0.000000	0.000000
64.171386	13.088427	23.749627	-0.479469	0.691228	2.169503	0.000000	0.060454	0.000000	-0.008472	-0.000964	0.000000	0.000000
64.612346	13.682033	22.886695	-0.872380	1.258509	2.210407	0.000000	0.123187	0.000000	-0.008946	-0.001188	0.000000	0.000000
65.053306	14.638241	21.546966	-1.305121	1.768539	2.279354	0.000000	0.187334	0.000000	-0.009521	-0.001426	0.000000	0.000000
65.494266	16.000699	19.791393	-1.797453	2.198120	2.377133	0.000000	0.253630	0.000000	-0.010206	-0.001680	0.000000	0.000000
65.940226	17.854971	17.674925	-2.376309	2.528243	2.506462	0.000000	0.323200	0.000000	-0.011016	-0.001955	0.000000	0.000000
66.489286	20.229088	15.307638	-1.923724	1.809433	2.664229	0.000000	0.247313	0.000000	-0.011988	-0.001583	0.000000	0.000000
67.038346	22.028396	13.654635	-1.335358	1.219469	2.778854	0.000000	0.167015	0.000000	-0.012748	-0.001182	0.000000	0.000000
67.587406	23.125933	12.598192	-0.652747	0.716338	2.848295	0.000000	0.083737	0.000000	-0.013282	-0.000761	0.000000	0.000000
68.136466	23.444265	12.063070	0.075928	0.264215	2.871314	0.000000	-0.001039	0.000000	-0.013581	-0.000325	0.000000	0.000000
68.435038	23.443193	11.892494	-0.004787	0.272279	2.873590	0.000000	0.007287	0.000000	-0.013689	-0.000363	0.000000	0.000000
68.768372	23.451124	11.721010	-0.019006	0.242172	2.876140	0.000000	0.007287	0.000000	-0.013810	-0.000363	0.000000	0.000000
69.101705	23.468534	11.569598	-0.033225	0.212065	2.878689	0.000000	0.007287	0.000000	-0.013931	-0.000363	0.000000	0.000000
69.436288	23.495542	11.437802	-0.047497	0.181845	2.881249	0.000000	0.007287	0.000000	-0.014053	-0.000363	0.000000	0.000000
69.733611	23.527696	11.337587	-0.128670	0.187934	2.883532	0.000000	0.015681	0.000000	-0.014160	-0.000402	0.000000	0.000000
70.282671	23.264956	11.358299	0.604346	-0.225888	2.868795	0.000000	-0.069623	0.000000	-0.014255	0.000058	0.000000	0.000000
