#ParticleID	Turn	x[m]	xp	y[m]	yp	z[m]	dE[GeV]# s	beta_x	beta_y	alpha_x	alpha_y	D_x	D_y	D_px	D_py	orbit_x	orbit_px	orbit_y	orbit_py
0.300000	11.964080	25.297941	-0.017966	-0.022629	2.598652	0.000000	-0.000276	0.000000	-0.001075	0.000923	0.000000	0.000000
0.601250	11.982493	25.315164	-0.043154	-0.034543	2.598291	0.000000	-0.000276	0.000000	-0.000797	0.000923	0.000000	0.000000
0.898573	12.015545	25.339202	-0.038402	-0.108414	2.597934	0.000000	-0.006678	0.000000	-0.000523	0.000924	0.000000	0.000000
1.339533	12.203315	25.153595	-0.388718	0.527728	2.610777	0.000000	0.066750	0.000000	-0.000118	0.000916	0.000000	0.000000
1.780493	12.706679	24.415444	-0.756802	1.139862	2.656134	0.000000	0.140929	0.000000	0.000286	0.000918	0.000000	0.000000
2.221453	13.548643	23.158326	-1.159469	1.700136	2.734519	0.000000	0.216703	0.000000	0.000693	0.000931	0.000000	0.000000
2.662413	14.767685	21.439429	-1.615119	2.183057	2.846821	0.000000	0.294935	0.000000	0.001109	0.000954	0.000000	0.000000
3.108373	16.440574	19.311767	-2.148944	2.567826	2.996157	0.000000	0.377008	0.000000	0.001541	0.000988	0.000000	0.000000
3.657433	18.584897	16.921688	-1.732793	1.810793	3.177620	0.000000	0.284832	0.000000	0.002068	0.000930	0.000000	0.000000
4.206493	20.201901	15.287648	-1.194217	1.182742	3.307049	0.000000	0.187618	0.000000	0.002559	0.000855	0.000000	0.000000
4.755553	21.177332	14.293268	-0.571261	0.638936	3.382154	0.000000	0.087090	0.000000	0.003004	0.000765	0.000000	0.000000
5.304613	21.442257	13.867725	0.092068	0.140642	3.401610	0.000000	-0.014971	0.000000	0.003396	0.000661	0.000000	0.000000
5.603185	21.423930	13.769436	0.023706	0.153509	3.399517	0.000000	-0.006338	0.000000	0.003596	0.000670	0.000000	0.000000
5.936519	21.413315	13.675356	0.008139	0.128730	3.397181	0.000000	-0.006338	0.000000	0.003819	0.000670	0.000000	0.000000
6.269852	21.413078	13.597795	-0.007429	0.103951	3.394845	0.000000	-0.006338	0.000000	0.004043	0.000670	0.000000	0.000000
6.604435	21.423278	13.536556	-0.023055	0.079080	3.392501	0.000000	-0.006338	0.000000	0.004267	0.000670	0.000000	0.000000
6.901758	21.441128	13.496095	-0.090839	0.091038	3.390418	0.000000	0.002185	0.000000	0.004466	0.000681	0.000000	0.000000
7.450818	21.175308	13.657949	0.572449	-0.387542	3.363373	0.000000	-0.099394	0.000000	0.004799	0.000531	0.000000	0.000000
7.999878	20.199002	14.357366	1.195305	-0.893732	3.281036	0.000000	-0.199201	0.000000	0.005047	0.000371	0.000000	0.000000
8.548938	18.581182	15.644177	1.733721	-1.463592	3.144872	0.000000	-0.295469	0.000000	0.005206	0.000205	0.000000	0.000000
9.097998	16.436151	17.610053	2.149652	-2.137716	2.957300	0.000000	-0.386492	0.000000	0.005272	0.000036	0.000000	0.000000
9.543958	14.762803	19.361495	1.615708	-1.772742	2.803038	0.000000	-0.305466	0.000000	0.005318	0.000173	0.000000	0.000000
9.984918	13.543379	20.734334	1.160054	-1.328468	2.685328	0.000000	-0.228421	0.000000	0.005425	0.000311	0.000000	0.000000
10.425878	12.701047	21.687073	0.757409	-0.823740	2.600927	0.000000	-0.153981	0.000000	0.005594	0.000454	0.000000	0.000000
10.866838	12.197314	22.176352	0.389373	-0.281524	2.548874	0.000000	-0.081300	0.000000	0.005826	0.000601	0.000000	0.000000
11.309048	12.009010	22.179323	0.066741	0.222018	2.528554	0.000000	-0.015388	0.000000	0.006125	0.000740	0.000000	0.000000
11.606371	11.976717	22.051483	0.041872	0.207952	2.523759	0.000000	-0.015388	0.000000	0.006345	0.000740	0.000000	0.000000
12.086371	11.955791	21.862750	0.001724	0.185243	2.516018	0.000000	-0.015388	0.000000	0.006701	0.000740	0.000000	0.000000
12.566371	11.973407	21.695816	-0.038424	0.162534	2.508276	0.000000	-0.015388	0.000000	0.007056	0.000740	0.000000	0.000000
13.046371	12.029565	21.550683	-0.078572	0.139826	2.500535	0.000000	-0.015388	0.000000	0.007411	0.000740	0.000000	0.000000
13.526371	12.124265	21.427350	-0.118720	0.117117	2.492794	0.000000	-0.015388	0.000000	0.007767	0.000740	0.000000	0.000000
14.007621	12.257905	21.325582	-0.158973	0.094350	2.485032	0.000000	-0.015388	0.000000	0.008123	0.000740	0.000000	0.000000
14.304943	12.359806	21.273703	-0.155977	0.032534	2.480234	0.000000	-0.020979	0.000000	0.008343	0.000721	0.000000	0.000000
14.745903	12.655962	21.012299	-0.517808	0.557943	2.486130	0.000000	0.049342	0.000000	0.008709	0.000940	0.000000	0.000000
15.186863	13.280503	20.296935	-0.903314	1.057963	2.523035	0.000000	0.120215	0.000000	0.009174	0.001171	0.000000	0.000000
15.627823	14.261990	19.160157	-1.330115	1.509837	2.591366	0.000000	0.192445	0.000000	0.009744	0.001415	0.000000	0.000000
16.068783	15.645307	17.653691	-1.817725	1.892999	2.691896	0.000000	0.266852	0.000000	0.010424	0.001675	0.000000	0.000000
16.514743	17.517354	15.824428	-2.393395	2.190973	2.827456	0.000000	0.344776	0.000000	0.011233	0.001956	0.000000	0.000000
17.063803	19.921155	13.782654	-1.957011	1.549025	2.992361	0.000000	0.258307	0.000000	0.012204	0.001576	0.000000	0.000000
17.612863	21.766343	12.381527	-1.382288	1.017443	3.108669	0.000000	0.167280	0.000000	0.012959	0.001168	0.000000	0.000000
18.161923	22.922452	11.521237	-0.709847	0.558353	3.174324	0.000000	0.073303	0.000000	0.013484	0.000740	0.000000	0.000000
18.710983	23.307729	11.140497	0.012779	0.139046	3.188170	0.000000	-0.021962	0.000000	0.013769	0.000298	0.000000	0.000000
19.009556	23.335817	11.050473	-0.053671	0.137098	3.183694	0.000000	-0.014628	0.000000	0.013868	0.000332	0.000000	0.000000
19.342889	23.376372	10.969318	-0.067996	0.106366	3.178708	0.000000	-0.014628	0.000000	0.013979	0.000332	0.000000	0.000000
19.676223	23.426478	10.908651	-0.082321	0.075634	3.173721	0.000000	-0.014628	0.000000	0.014089	0.000332	0.000000	0.000000
20.010806	23.486667	10.868226	-0.213066	0.098636	3.168735	0.000000	0.001072	0.000000	0.014201	0.000402	0.000000	0.000000
20.308129	23.617442	10.817720	-0.280318	0.095826	3.168944	0.000000	0.008320	0.000000	0.014320	0.000437	0.000000	0.000000
20.857189	23.518147	10.932235	0.460193	-0.305580	3.147420	0.000000	-0.086200	0.000000	0.014433	-0.000028	0.000000	0.000000
21.406249	22.618468	11.496933	1.168177	-0.728762	3.074577	0.000000	-0.179191	0.000000	0.014289	-0.000494	0.000000	0.000000
21.955309	20.982013	12.552048	1.793586	-1.203871	2.951707	0.000000	-0.269009	0.000000	0.013892	-0.000951	0.000000	0.000000
22.504369	18.724491	14.172752	2.292209	-1.764759	2.780986	0.000000	-0.354070	0.000000	0.013248	-0.001390	0.000000	0.000000
22.950329	16.947456	15.628763	1.705004	-1.485601	2.640745	0.000000	-0.277401	0.000000	0.012704	-0.001054	0.000000	0.000000
23.391289	15.670578	16.791143	1.200726	-1.139916	2.534984	0.000000	-0.204374	0.000000	0.012310	-0.000731	0.000000	0.000000
23.832249	14.812789	17.624463	0.751343	-0.742350	2.460754	0.000000	-0.133668	0.000000	0.012057	-0.000417	0.000000	0.000000
24.273209	14.334862	18.090802	0.336308	-0.310996	2.417211	0.000000	-0.064481	0.000000	0.011942	-0.000108	0.000000	0.000000
24.715418	14.215084	18.168621	-0.032646	0.095033	2.403864	0.000000	-0.001234	0.000000	0.011963	0.000173	0.000000	0.000000
25.012741	14.240722	18.117019	-0.053585	0.078521	2.403446	0.000000	-0.001234	0.000000	0.012014	0.000173	0.000000	0.000000
25.346075	14.284270	18.070843	-0.077059	0.060009	2.402977	0.000000	-0.001234	0.000000	0.012072	0.000173	0.000000	0.000000
25.679408	14.343467	18.037008	-0.100533	0.041496	2.402508	0.000000	-0.001234	0.000000	0.012129	0.000173	0.000000	0.000000
26.013991	14.418332	18.015823	-0.007125	-0.123239	2.402013	0.000000	-0.020721	0.000000	0.012187	0.000074	0.000000	0.000000
26.311314	14.428637	18.094166	0.003421	-0.179067	2.395825	0.000000	-0.025896	0.000000	0.012209	0.000046	0.000000	0.000000
26.752274	14.604053	18.056080	-0.402583	0.265096	2.399335	0.000000	0.042224	0.000000	0.012299	0.000362	0.000000	0.000000
27.193234	15.144390	17.630052	-0.826994	0.697194	2.432831	0.000000	0.110821	0.000000	0.012529	0.000682	0.000000	0.000000
27.634194	16.074360	16.835469	-1.289214	1.097560	2.496691	0.000000	0.180674	0.000000	0.012902	0.001010	0.000000	0.000000
28.075154	17.436494	15.708489	-1.810379	1.447973	2.591641	0.000000	0.252575	0.000000	0.013422	0.001349	0.000000	0.000000
28.521114	19.317063	14.283219	-2.419518	1.733661	2.720373	0.000000	0.327824	0.000000	0.014103	0.001706	0.000000	0.000000
29.070174	21.708663	12.696035	-1.908715	1.173533	2.877104	0.000000	0.244952	0.000000	0.014912	0.001236	0.000000	0.000000
29.619234	23.461224	11.674794	-1.262977	0.697024	2.987323	0.000000	0.157753	0.000000	0.015457	0.000744	0.000000	0.000000
30.168294	24.450817	11.146739	-0.527952	0.270182	3.049081	0.000000	0.067767	0.000000	0.015727	0.000239	0.000000	0.000000
30.717354	24.607463	11.074249	0.244396	-0.137407	3.061285	0.000000	-0.023418	0.000000	0.015718	-0.000271	0.000000	0.000000
31.015927	24.498221	11.149599	0.176359	-0.139699	3.056412	0.000000	-0.016518	0.000000	0.015649	-0.000232	0.000000	0.000000
31.349260	24.385324	11.252892	0.162330	-0.170179	3.050983	0.000000	-0.016518	0.000000	0.015571	-0.000232	0.000000	0.000000
31.682593	24.281781	11.376504	0.148300	-0.200659	3.045555	0.000000	-0.016518	0.000000	0.015494	-0.000232	0.000000	0.000000
32.017177	24.187255	11.521015	0.134218	-0.231253	3.040106	0.000000	-0.016518	0.000000	0.015416	-0.000232	0.000000	0.000000
32.314499	24.111331	11.666531	0.067135	-0.232070	3.035275	0.000000	-0.009648	0.000000	0.015347	-0.000195	0.000000	0.000000
32.863559	23.624738	12.159686	0.813352	-0.671218	3.005436	0.000000	-0.099703	0.000000	0.015104	-0.000688	0.000000	0.000000
33.412619	22.345249	13.158458	1.502065	-1.158193	2.926810	0.000000	-0.188000	0.000000	0.014593	-0.001170	0.000000	0.000000
33.961679	20.363348	14.734003	2.084587	-1.727694	2.800784	0.000000	-0.272979	0.000000	0.013823	-0.001630	0.000000	0.000000
34.510739	17.819179	16.998563	2.519742	-2.420295	2.629585	0.000000	-0.353141	0.000000	0.012808	-0.002062	0.000000	0.000000
34.956699	15.842633	19.024612	1.926323	-2.102901	2.489178	0.000000	-0.280410	0.000000	0.011961	-0.001740	0.000000	0.000000
35.397659	14.369360	20.704167	1.426163	-1.690826	2.381522	0.000000	-0.211320	0.000000	0.011260	-0.001441	0.000000	0.000000
35.838619	13.307033	21.984774	0.991206	-1.201799	2.303659	0.000000	-0.144621	0.000000	0.010687	-0.001158	0.000000	0.000000
36.279579	12.607069	22.808162	0.601564	-0.658078	2.254707	0.000000	-0.079558	0.000000	0.010237	-0.000888	0.000000	0.000000
36.721789	12.236826	23.137140	0.266442	-0.135549	2.234091	0.000000	-0.020344	0.000000	0.009902	-0.000652	0.000000	0.000000
37.019112	12.086124	23.221635	0.240419	-0.148636	2.228236	0.000000	-0.020344	0.000000	0.009708	-0.000652	0.000000	0.000000
37.352445	11.935569	23.325616	0.211245	-0.163307	2.221673	0.000000	-0.020344	0.000000	0.009491	-0.000652	0.000000	0.000000
37.685779	11.804463	23.439378	0.182071	-0.177979	2.215109	0.000000	-0.020344	0.000000	0.009273	-0.000652	0.000000	0.000000
38.020362	11.692425	23.563402	0.152788	-0.192705	2.208520	0.000000	-0.020344	0.000000	0.009055	-0.000652	0.000000	0.000000
38.317684	11.609281	23.681939	0.152797	-0.259112	2.202663	0.000000	-0.025282	0.000000	0.008862	-0.000673	0.000000	0.000000
38.758644	11.623261	23.648033	-0.184803	0.335702	2.205669	0.000000	0.037844	0.000000	0.008615	-0.000447	0.000000	0.000000
39.199604	11.937629	23.094245	-0.530846	0.915235	2.236489	0.000000	0.101407	0.000000	0.008466	-0.000227	0.000000	0.000000
39.640564	12.566752	22.045781	-0.901148	1.453115	2.295476	0.000000	0.166127	0.000000	0.008414	-0.000009	0.000000	0.000000
40.081524	13.539385	20.550356	-1.312637	1.924864	2.383303	0.000000	0.232740	0.000000	0.008458	0.000208	0.000000	0.000000
40.527484	14.917569	18.653282	-1.788082	2.310526	2.502455	0.000000	0.302434	0.000000	0.008600	0.000429	0.000000	0.000000
41.076544	16.679030	16.521006	-1.400534	1.595421	2.647832	0.000000	0.226826	0.000000	0.008759	0.000148	0.000000	0.000000
41.625604	17.957590	15.107436	-0.914019	0.993982	2.750673	0.000000	0.147196	0.000000	0.008762	-0.000136	0.000000	0.000000
42.174664	18.662891	14.311866	-0.362922	0.463360	2.809153	0.000000	0.064952	0.000000	0.008610	-0.000417	0.000000	0.000000
42.723724	18.745095	14.077612	0.213812	-0.034247	2.822232	0.000000	-0.018451	0.000000	0.008306	-0.000691	0.000000	0.000000
43.022297	18.649435	14.083937	0.151942	-0.021149	2.818965	0.000000	-0.011602	0.000000	0.008105	-0.000670	0.000000	0.000000
43.502297	18.516210	14.120606	0.125610	-0.055246	2.813718	0.000000	-0.011602	0.000000	0.007784	-0.000670	0.000000	0.000000
43.982297	18.408264	14.190009	0.099278	-0.089342	2.808471	0.000000	-0.011602	0.000000	0.007462	-0.000670	0.000000	0.000000
44.462297	18.325597	14.292144	0.072945	-0.123439	2.803223	0.000000	-0.011602	0.000000	0.007140	-0.000670	0.000000	0.000000
44.942297	18.268209	14.427012	0.046613	-0.157536	2.797976	0.000000	-0.011602	0.000000	0.006818	-0.000670	0.000000	0.000000
45.423547	18.236275	14.594911	-0.070140	-0.119409	2.792732	0.000000	0.002235	0.000000	0.006496	-0.000638	0.000000	0.000000
45.720870	18.282877	14.672043	-0.131730	-0.103927	2.793588	0.000000	0.009142	0.000000	0.006306	-0.000622	0.000000	0.000000
46.269930	18.119372	15.069734	0.427355	-0.624597	2.776340	0.000000	-0.073260	0.000000	0.005909	-0.000820	0.000000	0.000000
46.818990	17.354857	16.060158	0.956231	-1.189760	2.714232	0.000000	-0.154375	0.000000	0.005408	-0.001003	0.000000	0.000000
47.368050	16.043372	17.713860	1.417530	-1.839675	2.608361	0.000000	-0.232767	0.000000	0.004811	-0.001169	0.000000	0.000000
47.917110	14.277604	20.148624	1.778662	-2.620638	2.460595	0.000000	-0.307050	0.000000	0.004128	-0.001314	0.000000	0.000000
48.363070	12.902409	22.312857	1.315274	-2.211702	2.339550	0.000000	-0.238492	0.000000	0.003565	-0.001214	0.000000	0.000000
48.804030	11.922077	24.045995	0.915812	-1.703528	2.249395	0.000000	-0.173047	0.000000	0.003049	-0.001129	0.000000	0.000000
49.244990	11.274366	25.294910	0.558206	-1.117842	2.187608	0.000000	-0.109562	0.000000	0.002567	-0.001056	0.000000	0.000000
49.685950	10.929665	26.002783	0.226112	-0.481295	2.153489	0.000000	-0.047313	0.000000	0.002115	-0.000996	0.000000	0.000000
50.128160	10.872392	26.137127	-0.069525	0.114382	2.146669	0.000000	0.009228	0.000000	0.001686	-0.000951	0.000000	0.000000
50.425482	10.921904	26.072537	-0.097003	0.102858	2.149695	0.000000	0.009228	0.000000	0.001403	-0.000951	0.000000	0.000000
50.758816	10.996842	26.008272	-0.127810	0.089938	2.153088	0.000000	0.009228	0.000000	0.001086	-0.000951	0.000000	0.000000
51.092149	11.092318	25.952620	-0.158617	0.077018	2.156481	0.000000	0.009228	0.000000	0.000769	-0.000951	0.000000	0.000000
51.426732	11.208578	25.905946	-0.098608	-0.146113	2.159865	0.000000	-0.008294	0.000000	0.000451	-0.000955	0.000000	0.000000
51.724055	11.275179	25.996317	-0.097786	-0.221839	2.157683	0.000000	-0.013577	0.000000	0.000167	-0.000955	0.000000	0.000000
52.165015	11.508196	25.902590	-0.432960	0.433583	2.165770	0.000000	0.048441	0.000000	-0.000254	-0.000956	0.000000	0.000000
52.605975	12.044370	25.237363	-0.787907	1.069273	2.201306	0.000000	0.111021	0.000000	-0.000678	-0.000968	0.000000	0.000000
53.046935	12.908188	24.030914	-1.178843	1.656310	2.264697	0.000000	0.174876	0.000000	-0.001110	-0.000991	0.000000	0.000000
53.487895	14.139102	22.338143	-1.623626	2.167984	2.356672	0.000000	0.240734	0.000000	-0.001554	-0.001026	0.000000	0.000000
53.933855	15.814378	20.210772	-2.146842	2.582323	2.479801	0.000000	0.309739	0.000000	-0.002021	-0.001072	0.000000	0.000000
54.482915	17.970731	17.816527	-1.757890	1.804184	2.630062	0.000000	0.234814	0.000000	-0.002590	-0.000997	0.000000	0.000000
55.031975	19.628857	16.201602	-1.244802	1.154549	2.737930	0.000000	0.155708	0.000000	-0.003113	-0.000905	0.000000	0.000000
55.581035	20.671677	15.250963	-0.643817	0.587147	2.801484	0.000000	0.073826	0.000000	-0.003581	-0.000797	0.000000	0.000000
56.130095	21.025566	14.896889	0.002621	0.061566	2.819590	0.000000	-0.009378	0.000000	-0.003986	-0.000674	0.000000	0.000000
56.428668	21.062133	14.842083	-0.068374	0.081666	2.819266	0.000000	-0.001768	0.000000	-0.004190	-0.000685	0.000000	0.000000
56.762001	21.113016	14.795175	-0.084274	0.059058	2.818905	0.000000	-0.001768	0.000000	-0.004418	-0.000685	0.000000	0.000000
57.095334	21.174499	14.763340	-0.100174	0.036449	2.818544	0.000000	-0.001768	0.000000	-0.004646	-0.000685	0.000000	0.000000
57.429918	21.246872	14.746542	-0.116134	0.013756	2.818182	0.000000	-0.001768	0.000000	-0.004875	-0.000685	0.000000	0.000000
57.727240	21.320164	14.744346	-0.188359	0.033586	2.817861	0.000000	0.005904	0.000000	-0.005079	-0.000698	0.000000	0.000000
58.276300	21.162492	14.990130	0.473474	-0.483906	2.798578	0.000000	-0.077222	0.000000	-0.005416	-0.000528	0.000000	0.000000
58.825360	20.292315	15.819611	1.101859	-1.035859	2.733873	0.000000	-0.158987	0.000000	-0.005657	-0.000349	0.000000	0.000000
59.374420	18.771089	17.291857	1.652426	-1.661580	2.624889	0.000000	-0.237939	0.000000	-0.005798	-0.000163	0.000000	0.000000
59.923480	16.706236	19.511714	2.086299	-2.405632	2.473556	0.000000	-0.312673	0.000000	-0.005836	0.000025	0.000000	0.000000
60.369440	15.088647	21.484524	1.553875	-1.999615	2.349552	0.000000	-0.243862	0.000000	-0.005858	-0.000126	0.000000	0.000000
60.810400	13.924380	23.035197	1.096581	-1.503885	2.256676	0.000000	-0.178210	0.000000	-0.005947	-0.000279	0.000000	0.000000
61.251360	13.139827	24.116762	0.689376	-0.939742	2.192340	0.000000	-0.114583	0.000000	-0.006104	-0.000434	0.000000	0.000000
61.692320	12.699154	24.680018	0.313663	-0.332851	2.155812	0.000000	-0.052257	0.000000	-0.006331	-0.000594	0.000000	0.000000
62.134530	12.582284	24.698752	-0.015061	0.225099	2.146687	0.000000	0.003892	0.000000	-0.006630	-0.000744	0.000000	0.000000
62.431853	12.598267	24.568658	-0.038697	0.212451	2.148065	0.000000	0.003892	0.000000	-0.006851	-0.000744	0.000000	0.000000
62.765186	12.632898	24.431751	-0.065195	0.198271	2.149610	0.000000	0.003892	0.000000	-0.007100	-0.000744	0.000000	0.000000
63.098520	12.685194	24.304297	-0.091694	0.184091	2.151156	0.000000	0.003892	0.000000	-0.007348	-0.000744	0.000000	0.000000
63.433103	12.755452	24.185872	-0.118291	0.169858	2.152707	0.000000	0.003892	0.000000	-0.007597	-0.000744	0.000000	0.000000
63.730426	12.832797	24.088670	-0.108180	0.093607	2.154083	0.000000	-0.001773	0.000000	-0.007818	-0.000725	0.000000	0.000000
64.171386	13.090690	23.740920	-0.479254	0.692101	2.167306	0.000000	0.060206	0.000000	-0.008183	-0.000931	0.000000	0.000000
64.612346	13.684134	22.877332	-0.872207	1.259108	2.208072	0.000000	0.122880	0.000000	-0.008640	-0.001148	0.000000	0.000000
65.053306	14.640218	21.537200	-1.304985	1.768837	2.276852	0.000000	0.186966	0.000000	-0.009196	-0.001377	0.000000	0.000000
65.494266	16.002586	19.781494	-1.797347	2.198103	2.374432	0.000000	0.253195	0.000000	-0.009857	-0.001623	0.000000	0.000000
65.940226	17.856791	17.665180	-2.376241	2.527915	2.503525	0.000000	0.322694	0.000000	-0.010640	-0.001889	0.000000	0.000000
66.489286	20.230812	15.298114	-1.923562	1.809331	2.661009	0.000000	0.246906	0.000000	-0.011579	-0.001529	0.000000	0.000000
67.038346	22.029921	13.645092	-1.335111	1.219588	2.775415	0.000000	0.166714	0.000000	-0.012313	-0.001142	0.000000	0.000000
67.587406	23.127164	12.588387	-0.652430	0.716688	2.844705	0.000000	0.083549	0.000000	-0.012829	-0.000735	0.000000	0.000000
68.136466	23.445128	12.052741	0.076295	0.264819	2.867642	0.000000	-0.001111	0.000000	-0.013118	-0.000314	0.000000	0.000000
68.435038	23.443715	11.881895	-0.004201	0.272708	2.869883	0.000000	0.007177	0.000000	-0.013222	-0.000350	0.000000	0.000000
68.768372	23.451255	11.710137	-0.018419	0.242567	2.872392	0.000000	0.007177	0.000000	-0.013339	-0.000350	0.000000	0.000000
69.101705	23.468275	11.558472	-0.032638	0.212427	2.874901	0.000000	0.007177	0.000000	-0.013456	-0.000350	0.000000	0.000000
69.436288	23.494890	11.426445	-0.046910	0.182174	2.877420	0.000000	0.007177	0.000000	-0.013573	-0.000350	0.000000	0.000000
69.733611	23.526685	11.326047	-0.127849	0.188091	2.879666	0.000000	0.015532	0.000000	-0.013677	-0.000388	0.000000	0.000000
70.282671	23.263066	11.346412	0.605119	-0.225407	2.864878	0.000000	-0.069647	0.000000	-0.013768	0.000056	0.000000	0.000000
