#ParticleID	Turn	x[m]	xp	y[m]	yp	z[m]	dE[GeV]# s	beta_x	beta_y	alpha_x	alpha_y	D_x	D_y	D_px	D_py	orbit_x	orbit_px	orbit_y	orbit_py
0.300000	11.934710	25.133930	-0.012483	-0.026340	2.603235	0.000000	-0.001904	0.000000	-0.001266	0.001063	0.000000	0.000000
0.601250	11.949836	25.153414	-0.037729	-0.038334	2.602341	0.000000	-0.001904	0.000000	-0.000946	0.001063	0.000000	0.000000
0.898573	11.979680	25.179729	-0.033093	-0.111904	2.601459	0.000000	-0.008322	0.000000	-0.000629	0.001065	0.000000	0.000000
1.339533	12.162385	24.999046	-0.382452	0.520095	2.613535	0.000000	0.065187	0.000000	-0.000163	0.001055	0.000000	0.000000
1.780493	12.659719	24.269333	-0.749293	1.128433	2.658159	0.000000	0.139428	0.000000	0.000303	0.001057	0.000000	0.000000
2.221453	13.494412	23.023781	-1.150375	1.685432	2.735834	0.000000	0.215245	0.000000	0.000771	0.001070	0.000000	0.000000
2.662413	14.704613	21.319052	-1.604026	2.165747	2.847439	0.000000	0.293502	0.000000	0.001248	0.001096	0.000000	0.000000
3.108373	16.366556	19.207701	-2.135329	2.548702	2.996078	0.000000	0.375583	0.000000	0.001745	0.001135	0.000000	0.000000
3.657433	18.496850	16.836113	-1.720926	1.796027	3.176686	0.000000	0.283422	0.000000	0.002351	0.001069	0.000000	0.000000
4.206493	20.102218	15.216381	-1.184932	1.171282	3.305282	0.000000	0.186251	0.000000	0.002916	0.000983	0.000000	0.000000
4.755553	21.069222	14.233146	-0.565209	0.629967	3.379591	0.000000	0.085792	0.000000	0.003428	0.000881	0.000000	0.000000
5.304613	21.329520	13.816382	0.094461	0.133525	3.398301	0.000000	-0.016175	0.000000	0.003880	0.000762	0.000000	0.000000
5.603185	21.309477	13.722531	0.026538	0.146065	3.395804	0.000000	-0.007587	0.000000	0.004111	0.000772	0.000000	0.000000
5.936519	21.297002	13.633424	0.010885	0.121256	3.393018	0.000000	-0.007587	0.000000	0.004368	0.000772	0.000000	0.000000
6.269852	21.294964	13.560856	-0.004769	0.096447	3.390231	0.000000	-0.007587	0.000000	0.004625	0.000772	0.000000	0.000000
6.604435	21.303412	13.504649	-0.020481	0.071544	3.387434	0.000000	-0.007587	0.000000	0.004884	0.000772	0.000000	0.000000
6.901758	21.319758	13.468675	-0.087726	0.083231	3.384950	0.000000	0.000872	0.000000	0.005114	0.000785	0.000000	0.000000
7.450818	21.052795	13.638736	0.571453	-0.394766	3.357185	0.000000	-0.100520	0.000000	0.005498	0.000613	0.000000	0.000000
7.999878	20.079832	14.346009	1.190272	-0.900888	3.274248	0.000000	-0.200119	0.000000	0.005785	0.000431	0.000000	0.000000
8.548938	18.469604	15.640888	1.725004	-1.471191	3.137616	0.000000	-0.296161	0.000000	0.005970	0.000240	0.000000	0.000000
9.097998	16.335881	17.615622	2.137864	-2.146303	2.949714	0.000000	-0.386946	0.000000	0.006048	0.000045	0.000000	0.000000
9.543958	14.671761	19.375006	1.606692	-1.781842	2.795197	0.000000	-0.306115	0.000000	0.006103	0.000203	0.000000	0.000000
9.984918	13.459215	20.755964	1.153397	-1.337673	2.677136	0.000000	-0.229275	0.000000	0.006228	0.000362	0.000000	0.000000
10.425878	12.621830	21.716724	0.752807	-0.832630	2.592285	0.000000	-0.155051	0.000000	0.006423	0.000525	0.000000	0.000000
10.866838	12.121336	22.213561	0.386617	-0.289694	2.539674	0.000000	-0.082598	0.000000	0.006692	0.000694	0.000000	0.000000
11.309048	11.934719	22.223290	0.065272	0.215290	2.518682	0.000000	-0.016852	0.000000	0.007038	0.000855	0.000000	0.000000
11.606371	11.903344	22.099431	0.040253	0.201291	2.513418	0.000000	-0.016852	0.000000	0.007292	0.000855	0.000000	0.000000
12.086371	11.884088	21.917040	-0.000137	0.178691	2.504919	0.000000	-0.016852	0.000000	0.007702	0.000855	0.000000	0.000000
12.566371	11.903607	21.756344	-0.040527	0.156091	2.496419	0.000000	-0.016852	0.000000	0.008112	0.000855	0.000000	0.000000
13.046371	11.961901	21.617345	-0.080918	0.133491	2.487920	0.000000	-0.016852	0.000000	0.008522	0.000855	0.000000	0.000000
13.526371	12.058969	21.500042	-0.121308	0.110891	2.479421	0.000000	-0.016852	0.000000	0.008933	0.000855	0.000000	0.000000
14.007621	12.195217	21.404214	-0.161803	0.088232	2.470900	0.000000	-0.016852	0.000000	0.009344	0.000855	0.000000	0.000000
14.304943	12.298838	21.355968	-0.159470	0.026982	2.465632	0.000000	-0.022336	0.000000	0.009598	0.000832	0.000000	0.000000
14.745903	12.597529	21.098441	-0.520031	0.554727	2.470791	0.000000	0.047602	0.000000	0.010020	0.001085	0.000000	0.000000
15.186863	13.223548	20.384811	-0.904370	1.057229	2.506772	0.000000	0.118070	0.000000	0.010557	0.001350	0.000000	0.000000
15.627823	14.205528	19.247546	-1.330058	1.511617	2.573980	0.000000	0.189868	0.000000	0.011213	0.001631	0.000000	0.000000
16.068783	15.588381	17.738394	-1.816556	1.897210	2.673175	0.000000	0.263813	0.000000	0.011998	0.001930	0.000000	0.000000
16.514743	17.459022	15.904262	-2.391096	2.197476	2.807157	0.000000	0.341238	0.000000	0.012930	0.002254	0.000000	0.000000
17.063803	19.861680	13.856624	-1.956983	1.553166	2.970166	0.000000	0.255452	0.000000	0.014049	0.001816	0.000000	0.000000
17.612863	21.708204	12.452064	-1.384516	1.019521	3.084999	0.000000	0.165163	0.000000	0.014919	0.001347	0.000000	0.000000
18.161923	22.868013	11.590524	-0.714163	0.558519	3.149629	0.000000	0.071964	0.000000	0.015524	0.000854	0.000000	0.000000
18.710983	23.259080	11.210627	0.006688	0.137315	3.162917	0.000000	-0.022497	0.000000	0.015854	0.000345	0.000000	0.000000
19.009556	23.290023	11.121838	-0.058538	0.135158	3.158200	0.000000	-0.015377	0.000000	0.015969	0.000384	0.000000	0.000000
19.342889	23.333835	11.041906	-0.072899	0.104640	3.152946	0.000000	-0.015377	0.000000	0.016097	0.000384	0.000000	0.000000
19.676223	23.387221	10.982318	-0.087260	0.074121	3.147693	0.000000	-0.015377	0.000000	0.016225	0.000384	0.000000	0.000000
20.010806	23.450727	10.942833	-0.217863	0.097706	3.142439	0.000000	0.000193	0.000000	0.016353	0.000465	0.000000	0.000000
20.308129	23.584415	10.892801	-0.283872	0.094713	3.142370	0.000000	0.007218	0.000000	0.016491	0.000505	0.000000	0.000000
20.857189	23.489589	11.009700	0.455674	-0.308828	3.120460	0.000000	-0.086440	0.000000	0.016621	-0.000032	0.000000	0.000000
21.406249	22.595218	11.579253	1.163009	-0.734376	3.047741	0.000000	-0.178565	0.000000	0.016456	-0.000568	0.000000	0.000000
21.955309	20.964548	12.642043	1.788125	-1.212255	2.925503	0.000000	-0.267531	0.000000	0.015999	-0.001094	0.000000	0.000000
22.504369	18.712891	14.273789	2.286827	-1.776515	2.755910	0.000000	-0.351766	0.000000	0.015259	-0.001600	0.000000	0.000000
22.950329	16.940225	15.739261	1.700233	-1.494793	2.616628	0.000000	-0.275726	0.000000	0.014632	-0.001212	0.000000	0.000000
23.391289	15.667285	16.908516	1.196393	-1.146180	2.511524	0.000000	-0.203309	0.000000	0.014179	-0.000841	0.000000	0.000000
23.832249	14.813157	17.745981	0.747255	-0.745398	2.437667	0.000000	-0.133200	0.000000	0.013889	-0.000479	0.000000	0.000000
24.273209	14.338776	18.213545	0.332282	-0.310688	2.394216	0.000000	-0.064603	0.000000	0.013756	-0.000123	0.000000	0.000000
24.715418	14.222618	18.289577	-0.037416	0.099237	2.380681	0.000000	-0.001792	0.000000	0.013780	0.000201	0.000000	0.000000
25.012741	14.251092	18.235448	-0.058350	0.082820	2.380089	0.000000	-0.001792	0.000000	0.013840	0.000201	0.000000	0.000000
25.346075	14.297816	18.186369	-0.081820	0.064416	2.379424	0.000000	-0.001792	0.000000	0.013907	0.000201	0.000000	0.000000
25.679408	14.360186	18.149560	-0.105290	0.046011	2.378760	0.000000	-0.001792	0.000000	0.013974	0.000201	0.000000	0.000000
26.013991	14.438231	18.125320	-0.011715	-0.119504	2.378069	0.000000	-0.021085	0.000000	0.014041	0.000087	0.000000	0.000000
26.311314	14.451237	18.201435	-0.001759	-0.174609	2.371768	0.000000	-0.026099	0.000000	0.014067	0.000055	0.000000	0.000000
26.752274	14.631515	18.158137	-0.408442	0.272407	2.375038	0.000000	0.041401	0.000000	0.014171	0.000419	0.000000	0.000000
27.193234	15.177448	17.724508	-0.833802	0.707024	2.407999	0.000000	0.109369	0.000000	0.014437	0.000788	0.000000	0.000000
27.634194	16.114007	16.920282	-1.297287	1.109461	2.471022	0.000000	0.178574	0.000000	0.014867	0.001165	0.000000	0.000000
28.075154	17.484035	15.782055	-1.820091	1.461400	2.564824	0.000000	0.249801	0.000000	0.015467	0.001557	0.000000	0.000000
28.521114	19.374373	14.344245	-2.431391	1.748047	2.692070	0.000000	0.324344	0.000000	0.016253	0.001968	0.000000	0.000000
29.070174	21.778555	12.742816	-1.919338	1.185147	2.847031	0.000000	0.242412	0.000000	0.017186	0.001426	0.000000	0.000000
29.619234	23.541854	11.709919	-1.271580	0.706698	2.956048	0.000000	0.156201	0.000000	0.017814	0.000859	0.000000	0.000000
30.168294	24.539559	11.171965	-0.533916	0.278608	3.017194	0.000000	0.067232	0.000000	0.018127	0.000277	0.000000	0.000000
30.717354	24.701106	11.090624	0.241497	-0.129627	3.029387	0.000000	-0.022926	0.000000	0.018117	-0.000311	0.000000	0.000000
31.015927	24.592800	11.161683	0.174720	-0.132428	3.024594	0.000000	-0.016271	0.000000	0.018038	-0.000267	0.000000	0.000000
31.349260	24.480976	11.260097	0.160752	-0.162816	3.019260	0.000000	-0.016271	0.000000	0.017949	-0.000267	0.000000	0.000000
31.682593	24.378463	11.378770	0.146784	-0.193203	3.013925	0.000000	-0.016271	0.000000	0.017860	-0.000267	0.000000	0.000000
32.017177	24.284931	11.518261	0.132764	-0.223705	3.008571	0.000000	-0.016271	0.000000	0.017770	-0.000267	0.000000	0.000000
32.314499	24.209911	11.659238	0.066864	-0.225113	3.003826	0.000000	-0.009640	0.000000	0.017691	-0.000224	0.000000	0.000000
32.863559	23.721749	12.144490	0.816386	-0.663670	2.974305	0.000000	-0.098687	0.000000	0.017411	-0.000793	0.000000	0.000000
33.412619	22.437110	13.134437	1.508180	-1.149519	2.896581	0.000000	-0.185995	0.000000	0.016822	-0.001348	0.000000	0.000000
33.961679	20.446857	14.699609	2.093338	-1.717280	2.772028	0.000000	-0.270025	0.000000	0.015935	-0.001879	0.000000	0.000000
34.510739	17.891748	16.951512	2.530491	-2.407405	2.602845	0.000000	-0.349293	0.000000	0.014765	-0.002376	0.000000	0.000000
34.956699	15.906512	18.966251	1.934751	-2.090328	2.464122	0.000000	-0.277226	0.000000	0.013788	-0.002006	0.000000	0.000000
35.397659	14.426568	20.635133	1.432723	-1.679195	2.357831	0.000000	-0.208761	0.000000	0.012981	-0.001661	0.000000	0.000000
35.838619	13.359101	21.906123	0.996204	-1.191636	2.281047	0.000000	-0.142657	0.000000	0.012321	-0.001334	0.000000	0.000000
36.279579	12.655286	22.721385	0.605234	-0.649843	2.232901	0.000000	-0.078164	0.000000	0.011801	-0.001023	0.000000	0.000000
36.721789	12.282306	23.044059	0.268600	-0.128528	2.212828	0.000000	-0.019373	0.000000	0.011415	-0.000751	0.000000	0.000000
37.019112	12.130301	23.124387	0.242646	-0.141643	2.207291	0.000000	-0.019373	0.000000	0.011192	-0.000751	0.000000	0.000000
37.352445	11.978236	23.223717	0.213548	-0.156347	2.201084	0.000000	-0.019373	0.000000	0.010942	-0.000751	0.000000	0.000000
37.685779	11.845570	23.332850	0.184451	-0.171051	2.194876	0.000000	-0.019373	0.000000	0.010692	-0.000751	0.000000	0.000000
38.020362	11.731913	23.452250	0.155245	-0.185810	2.188646	0.000000	-0.019373	0.000000	0.010441	-0.000751	0.000000	0.000000
38.317684	11.647279	23.566714	0.155023	-0.251241	2.183105	0.000000	-0.024196	0.000000	0.010217	-0.000774	0.000000	0.000000
38.758644	11.659663	23.527233	-0.183424	0.340421	2.186517	0.000000	0.038433	0.000000	0.009933	-0.000515	0.000000	0.000000
39.199604	11.973163	22.970746	-0.530252	0.916588	2.217511	0.000000	0.101506	0.000000	0.009763	-0.000261	0.000000	0.000000
39.640564	12.602106	21.922584	-0.901313	1.451038	2.276443	0.000000	0.165739	0.000000	0.009703	-0.000010	0.000000	0.000000
40.081524	13.575242	20.430448	-1.313570	1.919449	2.363985	0.000000	0.231859	0.000000	0.009754	0.000241	0.000000	0.000000
40.527484	14.954681	18.539554	-1.789860	2.302031	2.482615	0.000000	0.301051	0.000000	0.009918	0.000496	0.000000	0.000000
41.076544	16.717369	16.414650	-1.400896	1.590338	2.627388	0.000000	0.226093	0.000000	0.010102	0.000172	0.000000	0.000000
41.625604	17.995555	15.004936	-0.912933	0.991953	2.730010	0.000000	0.147126	0.000000	0.010107	-0.000156	0.000000	0.000000
42.174664	18.698899	14.209976	-0.360461	0.464243	2.788657	0.000000	0.065545	0.000000	0.009932	-0.000480	0.000000	0.000000
42.723724	18.777697	13.973129	0.217474	-0.030388	2.802287	0.000000	-0.017205	0.000000	0.009581	-0.000796	0.000000	0.000000
43.022297	18.679554	13.977589	0.156081	-0.018090	2.799382	0.000000	-0.010487	0.000000	0.009350	-0.000772	0.000000	0.000000
43.502297	18.542351	14.011444	0.129758	-0.052442	2.794719	0.000000	-0.010487	0.000000	0.008979	-0.000772	0.000000	0.000000
43.982297	18.430418	14.078277	0.103436	-0.086794	2.790056	0.000000	-0.010487	0.000000	0.008609	-0.000772	0.000000	0.000000
44.462297	18.343754	14.178088	0.077113	-0.121146	2.785393	0.000000	-0.010487	0.000000	0.008238	-0.000772	0.000000	0.000000
44.942297	18.282360	14.310877	0.050791	-0.155498	2.780730	0.000000	-0.010487	0.000000	0.007867	-0.000772	0.000000	0.000000
45.423547	18.246401	14.476939	-0.066003	-0.118211	2.776072	0.000000	0.003267	0.000000	0.007495	-0.000735	0.000000	0.000000
45.720870	18.290544	14.553402	-0.127191	-0.103525	2.777264	0.000000	0.010073	0.000000	0.007277	-0.000717	0.000000	0.000000
46.269930	18.121909	14.948711	0.432041	-0.620626	2.760728	0.000000	-0.071813	0.000000	0.006820	-0.000945	0.000000	0.000000
46.818990	17.352272	15.932710	0.960729	-1.181938	2.699623	0.000000	-0.152441	0.000000	0.006242	-0.001157	0.000000	0.000000
47.368050	16.036040	17.575484	1.421518	-1.827445	2.595026	0.000000	-0.230383	0.000000	0.005553	-0.001348	0.000000	0.000000
47.917110	14.266244	19.994040	1.781851	-2.603131	2.448782	0.000000	-0.304260	0.000000	0.004766	-0.001515	0.000000	0.000000
48.363070	12.888215	22.144264	1.318357	-2.197887	2.328999	0.000000	-0.235989	0.000000	0.004116	-0.001400	0.000000	0.000000
48.804030	11.905116	23.867095	0.918947	-1.694031	2.239965	0.000000	-0.170802	0.000000	0.003521	-0.001302	0.000000	0.000000
49.244990	11.254536	25.109713	0.561537	-1.113095	2.179187	0.000000	-0.107546	0.000000	0.002966	-0.001218	0.000000	0.000000
49.685950	10.906731	25.815586	0.229794	-0.481514	2.145978	0.000000	-0.045502	0.000000	0.002445	-0.001148	0.000000	0.000000
50.128160	10.845965	25.952330	-0.065454	0.109863	2.139981	0.000000	0.010886	0.000000	0.001950	-0.001096	0.000000	0.000000
50.425482	10.893072	25.890448	-0.092985	0.098268	2.143543	0.000000	0.010886	0.000000	0.001625	-0.001096	0.000000	0.000000
50.758816	10.965351	25.829269	-0.123850	0.085269	2.147537	0.000000	0.010886	0.000000	0.001259	-0.001096	0.000000	0.000000
51.092149	11.058206	25.776756	-0.154715	0.072270	2.151531	0.000000	0.010886	0.000000	0.000894	-0.001096	0.000000	0.000000
51.426732	11.171876	25.733283	-0.095063	-0.149539	2.155519	0.000000	-0.006601	0.000000	0.000527	-0.001100	0.000000	0.000000
51.724055	11.236389	25.825718	-0.094414	-0.224970	2.153883	0.000000	-0.011873	0.000000	0.000200	-0.001101	0.000000	0.000000
52.165015	11.465995	25.736733	-0.428613	0.425999	2.162764	0.000000	0.050058	0.000000	-0.000286	-0.001102	0.000000	0.000000
52.605975	11.997814	25.080039	-0.782387	1.057581	2.199059	0.000000	0.112570	0.000000	-0.000774	-0.001116	0.000000	0.000000
53.046935	12.856131	23.885527	-1.171896	1.641040	2.263185	0.000000	0.176377	0.000000	-0.001271	-0.001142	0.000000	0.000000
53.487895	14.080146	22.207554	-1.614933	2.149833	2.355879	0.000000	0.242204	0.000000	-0.001783	-0.001181	0.000000	0.000000
53.933855	15.746701	20.097369	-2.135979	2.562105	2.479729	0.000000	0.311197	0.000000	-0.002321	-0.001235	0.000000	0.000000
54.482915	17.891987	17.722656	-1.748804	1.788635	2.630871	0.000000	0.236261	0.000000	-0.002977	-0.001149	0.000000	0.000000
55.031975	19.541365	16.122772	-1.238140	1.142560	2.739600	0.000000	0.157116	0.000000	-0.003579	-0.001043	0.000000	0.000000
55.581035	20.578379	15.183749	-0.640053	0.577865	2.803978	0.000000	0.075168	0.000000	-0.004118	-0.000918	0.000000	0.000000
56.130095	20.929823	14.838694	0.003217	0.054329	2.822856	0.000000	-0.008128	0.000000	-0.004584	-0.000777	0.000000	0.000000
56.428668	20.966056	14.788195	-0.067853	0.074432	2.822950	0.000000	-0.000472	0.000000	-0.004820	-0.000789	0.000000	0.000000
56.762001	21.016615	14.746129	-0.083825	0.051766	2.823056	0.000000	-0.000472	0.000000	-0.005083	-0.000789	0.000000	0.000000
57.095334	21.077822	14.719173	-0.099796	0.029101	2.823161	0.000000	-0.000472	0.000000	-0.005346	-0.000789	0.000000	0.000000
57.429918	21.149967	14.707312	-0.115828	0.006351	2.823267	0.000000	-0.000472	0.000000	-0.005610	-0.000789	0.000000	0.000000
57.727240	21.223101	14.709532	-0.188198	0.026253	2.823363	0.000000	0.007260	0.000000	-0.005845	-0.000805	0.000000	0.000000
58.276300	21.067013	14.962876	0.470392	-0.490432	2.804824	0.000000	-0.076054	0.000000	-0.006234	-0.000609	0.000000	0.000000
58.825360	20.201901	15.799282	1.095752	-1.042040	2.740740	0.000000	-0.158030	0.000000	-0.006512	-0.000403	0.000000	0.000000
59.374420	18.688860	17.278308	1.643726	-1.667855	2.632242	0.000000	-0.237209	0.000000	-0.006674	-0.000189	0.000000	0.000000
59.923480	16.634730	19.505280	2.075624	-2.412444	2.481251	0.000000	-0.312185	0.000000	-0.006719	0.000028	0.000000	0.000000
60.369440	15.025639	21.484555	1.545431	-2.007260	2.357513	0.000000	-0.243176	0.000000	-0.006745	-0.000147	0.000000	0.000000
60.810400	13.868004	23.042177	1.089945	-1.511986	2.264999	0.000000	-0.177315	0.000000	-0.006848	-0.000322	0.000000	0.000000
61.251360	13.088622	24.130938	0.684243	-0.947932	2.201130	0.000000	-0.113470	0.000000	-0.007030	-0.000501	0.000000	0.000000
61.692320	12.651895	24.701312	0.309797	-0.340759	2.165178	0.000000	-0.050911	0.000000	-0.007291	-0.000685	0.000000	0.000000
62.134530	12.537939	24.726771	-0.017670	0.217246	2.156747	0.000000	0.005411	0.000000	-0.007636	-0.000858	0.000000	0.000000
62.431853	12.555499	24.601331	-0.041391	0.204654	2.158611	0.000000	0.005411	0.000000	-0.007891	-0.000858	0.000000	0.000000
62.765186	12.591958	24.469600	-0.067985	0.190537	2.160701	0.000000	0.005411	0.000000	-0.008178	-0.000858	0.000000	0.000000
63.098520	12.646146	24.347281	-0.094579	0.176421	2.162791	0.000000	0.005411	0.000000	-0.008464	-0.000858	0.000000	0.000000
63.433103	12.718367	24.233967	-0.121274	0.162251	2.164889	0.000000	0.005411	0.000000	-0.008751	-0.000858	0.000000	0.000000
63.730426	12.797504	24.141286	-0.111005	0.085242	2.166750	0.000000	-0.000344	0.000000	-0.009006	-0.000835	0.000000	0.000000
64.171386	13.057525	23.800240	-0.481331	0.685334	2.180730	0.000000	0.061970	0.000000	-0.009426	-0.001073	0.000000	0.000000
64.612346	13.652470	22.941813	-0.873629	1.254249	2.222418	0.000000	0.125000	0.000000	-0.009954	-0.001323	0.000000	0.000000
65.053306	14.609491	21.605065	-1.305813	1.766108	2.292296	0.000000	0.189467	0.000000	-0.010595	-0.001588	0.000000	0.000000
65.494266	15.972270	19.850812	-1.797614	2.197630	2.391164	0.000000	0.256109	0.000000	-0.011357	-0.001870	0.000000	0.000000
65.940226	17.826401	17.733902	-2.375907	2.529712	2.521770	0.000000	0.326052	0.000000	-0.012258	-0.002177	0.000000	0.000000
66.489286	20.200645	15.365774	-1.924538	1.809582	2.681066	0.000000	0.249648	0.000000	-0.013341	-0.001762	0.000000	0.000000
67.038346	22.001411	13.713357	-1.337342	1.218305	2.796901	0.000000	0.168789	0.000000	-0.014187	-0.001316	0.000000	0.000000
67.587406	23.101651	12.658968	-0.655769	0.713776	2.867211	0.000000	0.084916	0.000000	-0.014782	-0.000847	0.000000	0.000000
68.136466	23.423750	12.127518	0.072076	0.260070	2.890740	0.000000	-0.000476	0.000000	-0.015114	-0.000363	0.000000	0.000000
68.435038	23.425350	11.959035	-0.009317	0.268899	2.893239	0.000000	0.007995	0.000000	-0.015235	-0.000405	0.000000	0.000000
68.768372	23.436305	11.789731	-0.023548	0.239010	2.896039	0.000000	0.007995	0.000000	-0.015370	-0.000405	0.000000	0.000000
69.101705	23.456747	11.640354	-0.037779	0.209122	2.898838	0.000000	0.007995	0.000000	-0.015505	-0.000405	0.000000	0.000000
69.436288	23.486807	11.510454	-0.052063	0.179122	2.901649	0.000000	0.007995	0.000000	-0.015640	-0.000405	0.000000	0.000000
69.733611	23.521712	11.411783	-0.133986	0.185982	2.904157	0.000000	0.016543	0.000000	-0.015760	-0.000448	0.000000	0.000000
70.282671	23.264884	11.435780	0.598954	-0.229955	2.889722	0.000000	-0.069429	0.000000	-0.015866	0.000064	0.000000	0.000000
