#ParticleID	Turn	x[m]	xp	y[m]	yp	z[m]	dE[GeV]# s	beta_x	beta_y	alpha_x	alpha_y	D_x	D_y	D_px	D_py	orbit_x	orbit_px	orbit_y	orbit_py
0.300000	11.943529	25.177918	-0.013807	-0.025391	2.601839	0.000000	-0.001525	0.000000	-0.001237	0.001044	0.000000	0.000000
0.601250	11.959447	25.196823	-0.039034	-0.037363	2.601065	0.000000	-0.001525	0.000000	-0.000923	0.001044	0.000000	0.000000
0.898573	11.990062	25.222555	-0.034360	-0.111014	2.600301	0.000000	-0.007939	0.000000	-0.000612	0.001046	0.000000	0.000000
1.339533	12.173996	25.040591	-0.383989	0.522098	2.612548	0.000000	0.065543	0.000000	-0.000154	0.001036	0.000000	0.000000
1.780493	12.672827	24.308652	-0.751170	1.131459	2.657331	0.000000	0.139760	0.000000	0.000303	0.001038	0.000000	0.000000
2.221453	13.509353	23.060029	-1.152678	1.689343	2.735156	0.000000	0.215558	0.000000	0.000763	0.001051	0.000000	0.000000
2.662413	14.721807	21.351525	-1.606860	2.170365	2.846904	0.000000	0.293799	0.000000	0.001232	0.001077	0.000000	0.000000
3.108373	16.386559	19.235817	-2.138828	2.553816	2.995680	0.000000	0.375867	0.000000	0.001720	0.001115	0.000000	0.000000
3.657433	18.520441	16.859286	-1.723932	1.799970	3.176459	0.000000	0.283717	0.000000	0.002315	0.001050	0.000000	0.000000
4.206493	20.128735	15.235738	-1.187234	1.174334	3.305227	0.000000	0.186551	0.000000	0.002870	0.000966	0.000000	0.000000
4.755553	21.097797	14.249539	-0.566645	0.632346	3.379709	0.000000	0.086091	0.000000	0.003373	0.000865	0.000000	0.000000
5.304613	21.359142	13.830453	0.093993	0.135399	3.398590	0.000000	-0.015883	0.000000	0.003817	0.000748	0.000000	0.000000
5.603185	21.339436	13.735446	0.025985	0.148006	3.396187	0.000000	-0.007289	0.000000	0.004043	0.000758	0.000000	0.000000
5.936519	21.327323	13.645042	0.010354	0.123206	3.393504	0.000000	-0.007289	0.000000	0.004296	0.000758	0.000000	0.000000
6.269852	21.325630	13.571171	-0.005277	0.098406	3.390822	0.000000	-0.007289	0.000000	0.004548	0.000758	0.000000	0.000000
6.604435	21.334411	13.513650	-0.020967	0.073514	3.388129	0.000000	-0.007289	0.000000	0.004802	0.000758	0.000000	0.000000
6.901758	21.351040	13.476502	-0.088312	0.085251	3.385738	0.000000	0.001179	0.000000	0.005027	0.000771	0.000000	0.000000
7.450818	21.084138	13.644451	0.571922	-0.392918	3.358140	0.000000	-0.100241	0.000000	0.005405	0.000602	0.000000	0.000000
7.999878	20.110091	14.349729	1.191761	-0.899081	3.275353	0.000000	-0.199874	0.000000	0.005686	0.000422	0.000000	0.000000
8.548938	18.497712	15.642585	1.727409	-1.469296	3.138849	0.000000	-0.295953	0.000000	0.005867	0.000235	0.000000	0.000000
9.097998	16.360922	17.615125	2.141016	-2.144184	2.951053	0.000000	-0.386779	0.000000	0.005944	0.000044	0.000000	0.000000
9.543958	14.694320	19.372537	1.609130	-1.779564	2.796619	0.000000	-0.305914	0.000000	0.005998	0.000199	0.000000	0.000000
9.984918	13.479898	20.751453	1.155234	-1.335340	2.678658	0.000000	-0.229036	0.000000	0.006119	0.000355	0.000000	0.000000
10.425878	12.641125	21.710168	0.754128	-0.830348	2.593925	0.000000	-0.154771	0.000000	0.006311	0.000515	0.000000	0.000000
10.866838	12.139671	22.205053	0.387481	-0.287567	2.541452	0.000000	-0.082274	0.000000	0.006575	0.000681	0.000000	0.000000
11.309048	11.952474	22.213007	0.065795	0.217127	2.520620	0.000000	-0.016493	0.000000	0.006914	0.000839	0.000000	0.000000
11.606371	11.920777	22.088061	0.040812	0.203111	2.515467	0.000000	-0.016493	0.000000	0.007163	0.000839	0.000000	0.000000
12.086371	11.900957	21.903936	0.000479	0.180483	2.507148	0.000000	-0.016493	0.000000	0.007566	0.000839	0.000000	0.000000
12.566371	11.919857	21.741534	-0.039854	0.157855	2.498829	0.000000	-0.016493	0.000000	0.007968	0.000839	0.000000	0.000000
13.046371	11.977477	21.600854	-0.080187	0.135228	2.490510	0.000000	-0.016493	0.000000	0.008371	0.000839	0.000000	0.000000
13.526371	12.073816	21.481896	-0.120520	0.112600	2.482191	0.000000	-0.016493	0.000000	0.008774	0.000839	0.000000	0.000000
14.007621	12.209277	21.384437	-0.160958	0.089913	2.473851	0.000000	-0.016493	0.000000	0.009177	0.000839	0.000000	0.000000
14.304943	12.312386	21.335193	-0.158507	0.028599	2.468694	0.000000	-0.021993	0.000000	0.009426	0.000817	0.000000	0.000000
14.745903	12.610350	21.076498	-0.519345	0.555750	2.474030	0.000000	0.048025	0.000000	0.009841	0.001065	0.000000	0.000000
15.186863	13.235869	20.362248	-0.903930	1.057612	2.510226	0.000000	0.118579	0.000000	0.010368	0.001325	0.000000	0.000000
15.627823	14.217553	19.224939	-1.329842	1.511342	2.577690	0.000000	0.190470	0.000000	0.011012	0.001601	0.000000	0.000000
16.068783	15.600300	17.716320	-1.816554	1.896291	2.677185	0.000000	0.264514	0.000000	0.011783	0.001895	0.000000	0.000000
16.514743	17.471013	15.883296	-2.391303	2.195944	2.811519	0.000000	0.342046	0.000000	0.012698	0.002213	0.000000	0.000000
17.063803	19.873604	13.837011	-1.956690	1.552232	2.974951	0.000000	0.256113	0.000000	0.013797	0.001783	0.000000	0.000000
17.612863	21.719525	12.433186	-1.383748	1.019118	3.090118	0.000000	0.165664	0.000000	0.014651	0.001322	0.000000	0.000000
18.161923	22.878241	11.571815	-0.712974	0.558619	3.154988	0.000000	0.072296	0.000000	0.015245	0.000838	0.000000	0.000000
18.710983	23.267803	11.191533	0.008213	0.137923	3.168416	0.000000	-0.022341	0.000000	0.015568	0.000339	0.000000	0.000000
19.009556	23.297946	11.102374	-0.057184	0.135748	3.163758	0.000000	-0.015186	0.000000	0.015681	0.000376	0.000000	0.000000
19.342889	23.340853	11.022068	-0.071538	0.105171	3.158570	0.000000	-0.015186	0.000000	0.015806	0.000376	0.000000	0.000000
19.676223	23.393330	10.962146	-0.085892	0.074594	3.153383	0.000000	-0.015186	0.000000	0.015932	0.000376	0.000000	0.000000
20.010806	23.455917	10.922363	-0.216514	0.098019	3.148195	0.000000	0.000412	0.000000	0.016058	0.000456	0.000000	0.000000
20.308129	23.588793	10.872164	-0.282689	0.095003	3.148194	0.000000	0.007472	0.000000	0.016193	0.000495	0.000000	0.000000
20.857189	23.492598	10.988428	0.456968	-0.307953	3.126374	0.000000	-0.086375	0.000000	0.016321	-0.000031	0.000000	0.000000
21.406249	22.596791	11.556671	1.164324	-0.732854	3.053636	0.000000	-0.178691	0.000000	0.016159	-0.000558	0.000000	0.000000
21.955309	20.964718	12.617381	1.789370	-1.209977	2.931270	0.000000	-0.267844	0.000000	0.015710	-0.001074	0.000000	0.000000
22.504369	18.711791	14.246132	2.287915	-1.773318	2.761442	0.000000	-0.352262	0.000000	0.014982	-0.001572	0.000000	0.000000
22.950329	16.938207	15.709039	1.701255	-1.492292	2.621960	0.000000	-0.276082	0.000000	0.014367	-0.001191	0.000000	0.000000
23.391289	15.664388	16.876429	1.197391	-1.144479	2.516722	0.000000	-0.203530	0.000000	0.013922	-0.000826	0.000000	0.000000
23.832249	14.809380	17.712773	0.748274	-0.744574	2.442791	0.000000	-0.133288	0.000000	0.013637	-0.000471	0.000000	0.000000
24.273209	14.334076	18.180011	0.333368	-0.310780	2.399329	0.000000	-0.064560	0.000000	0.013506	-0.000121	0.000000	0.000000
24.715418	14.216908	18.256534	-0.036139	0.098192	2.385843	0.000000	-0.001643	0.000000	0.013530	0.000197	0.000000	0.000000
25.012741	14.244624	18.203034	-0.057079	0.081749	2.385296	0.000000	-0.001643	0.000000	0.013589	0.000197	0.000000	0.000000
25.346075	14.290503	18.154679	-0.080556	0.063315	2.384683	0.000000	-0.001643	0.000000	0.013654	0.000197	0.000000	0.000000
25.679408	14.352032	18.118614	-0.104033	0.044880	2.384070	0.000000	-0.001643	0.000000	0.013720	0.000197	0.000000	0.000000
26.013991	14.429240	18.095140	-0.010539	-0.120420	2.383430	0.000000	-0.020979	0.000000	0.013786	0.000085	0.000000	0.000000
26.311314	14.441553	18.171805	-0.000523	-0.175609	2.377161	0.000000	-0.026019	0.000000	0.013811	0.000053	0.000000	0.000000
26.752274	14.620628	18.129742	-0.406944	0.270617	2.380499	0.000000	0.041620	0.000000	0.013913	0.000411	0.000000	0.000000
27.193234	15.165094	17.698012	-0.831972	0.704527	2.413592	0.000000	0.109730	0.000000	0.014174	0.000773	0.000000	0.000000
27.634194	16.099856	16.896263	-1.295042	1.106370	2.476815	0.000000	0.179081	0.000000	0.014596	0.001144	0.000000	0.000000
28.075154	17.467671	15.760979	-1.817327	1.457856	2.570884	0.000000	0.250461	0.000000	0.015185	0.001528	0.000000	0.000000
28.521114	19.355234	14.326489	-2.427968	1.744205	2.698473	0.000000	0.325165	0.000000	0.015956	0.001932	0.000000	0.000000
29.070174	21.755868	12.728842	-1.916378	1.182075	2.853842	0.000000	0.243019	0.000000	0.016872	0.001400	0.000000	0.000000
29.619234	23.516254	11.699003	-1.269296	0.704177	2.963142	0.000000	0.156583	0.000000	0.017489	0.000843	0.000000	0.000000
30.168294	24.511890	11.163601	-0.532471	0.276458	3.024440	0.000000	0.067383	0.000000	0.017795	0.000271	0.000000	0.000000
30.717354	24.672359	11.084490	0.242001	-0.131560	3.036652	0.000000	-0.023009	0.000000	0.017786	-0.000305	0.000000	0.000000
31.015927	24.563845	11.156662	0.175074	-0.134312	3.031845	0.000000	-0.016314	0.000000	0.017708	-0.000262	0.000000	0.000000
31.349260	24.451791	11.256342	0.161088	-0.164729	3.026495	0.000000	-0.016314	0.000000	0.017620	-0.000262	0.000000	0.000000
31.682593	24.349060	11.376300	0.147102	-0.195145	3.021144	0.000000	-0.016314	0.000000	0.017533	-0.000262	0.000000	0.000000
32.017177	24.255322	11.517100	0.133064	-0.225676	3.015774	0.000000	-0.016314	0.000000	0.017445	-0.000262	0.000000	0.000000
32.314499	24.180119	11.659260	0.067026	-0.227018	3.011015	0.000000	-0.009644	0.000000	0.017367	-0.000220	0.000000	0.000000
32.863559	23.692333	12.146649	0.815554	-0.665682	2.981422	0.000000	-0.098922	0.000000	0.017092	-0.000779	0.000000	0.000000
33.412619	22.409142	13.138926	1.506415	-1.151782	2.903497	0.000000	-0.186457	0.000000	0.016514	-0.001323	0.000000	0.000000
33.961679	20.421305	14.706787	2.090765	-1.719954	2.778616	0.000000	-0.270704	0.000000	0.015643	-0.001844	0.000000	0.000000
34.510739	17.869406	16.961929	2.527296	-2.410680	2.608982	0.000000	-0.350178	0.000000	0.014494	-0.002333	0.000000	0.000000
34.956699	15.886726	18.979573	1.932249	-2.093571	2.469882	0.000000	-0.277958	0.000000	0.013535	-0.001969	0.000000	0.000000
35.397659	14.408744	20.651237	1.430787	-1.682249	2.363287	0.000000	-0.209349	0.000000	0.012742	-0.001630	0.000000	0.000000
35.838619	13.342778	21.924781	0.994744	-1.194362	2.286263	0.000000	-0.143107	0.000000	0.012095	-0.001310	0.000000	0.000000
36.279579	12.640072	22.742255	0.604184	-0.652118	2.237938	0.000000	-0.078483	0.000000	0.011585	-0.001005	0.000000	0.000000
36.721789	12.267860	23.066705	0.267941	-0.130420	2.217747	0.000000	-0.019586	0.000000	0.011206	-0.000737	0.000000	0.000000
37.019112	12.116253	23.148156	0.241966	-0.143529	2.212142	0.000000	-0.019586	0.000000	0.010986	-0.000737	0.000000	0.000000
37.352445	11.964650	23.248742	0.212844	-0.158226	2.205859	0.000000	-0.019586	0.000000	0.010741	-0.000737	0.000000	0.000000
37.685779	11.832461	23.359124	0.183722	-0.172923	2.199577	0.000000	-0.019586	0.000000	0.010495	-0.000737	0.000000	0.000000
38.020362	11.719301	23.479774	0.154490	-0.187674	2.193270	0.000000	-0.019586	0.000000	0.010248	-0.000737	0.000000	0.000000
38.317684	11.635123	23.595341	0.154273	-0.253266	2.187663	0.000000	-0.024429	0.000000	0.010029	-0.000761	0.000000	0.000000
38.758644	11.648050	23.557306	-0.183905	0.339181	2.190992	0.000000	0.038317	0.000000	0.009750	-0.000506	0.000000	0.000000
39.199604	11.961864	23.001546	-0.530486	0.916190	2.221957	0.000000	0.101505	0.000000	0.009582	-0.000256	0.000000	0.000000
39.640564	12.590908	21.953357	-0.901311	1.451500	2.280913	0.000000	0.165852	0.000000	0.009524	-0.000010	0.000000	0.000000
40.081524	13.563935	20.460444	-1.313332	1.920751	2.368531	0.000000	0.232088	0.000000	0.009574	0.000236	0.000000	0.000000
40.527484	14.943042	18.568041	-1.789369	2.304114	2.487292	0.000000	0.301399	0.000000	0.009735	0.000487	0.000000	0.000000
41.076544	16.705429	16.441333	-1.400851	1.591570	2.632217	0.000000	0.226287	0.000000	0.009915	0.000168	0.000000	0.000000
41.625604	17.983811	15.030695	-0.913340	0.992421	2.734902	0.000000	0.147163	0.000000	0.009919	-0.000153	0.000000	0.000000
42.174664	18.687837	14.235626	-0.361291	0.463980	2.793523	0.000000	0.065425	0.000000	0.009747	-0.000472	0.000000	0.000000
42.723724	18.767756	13.999476	0.216280	-0.031401	2.807038	0.000000	-0.017482	0.000000	0.009403	-0.000782	0.000000	0.000000
43.022297	18.670360	14.004457	0.154832	-0.018945	2.804054	0.000000	-0.010740	0.000000	0.009176	-0.000758	0.000000	0.000000
43.502297	18.534357	14.039101	0.128507	-0.053232	2.799262	0.000000	-0.010740	0.000000	0.008812	-0.000758	0.000000	0.000000
43.982297	18.423627	14.106662	0.102181	-0.087519	2.794471	0.000000	-0.010740	0.000000	0.008448	-0.000758	0.000000	0.000000
44.462297	18.338169	14.207138	0.075856	-0.121806	2.789680	0.000000	-0.010740	0.000000	0.008084	-0.000758	0.000000	0.000000
44.942297	18.277984	14.340529	0.049530	-0.156093	2.784888	0.000000	-0.010740	0.000000	0.007720	-0.000758	0.000000	0.000000
45.423547	18.243239	14.507133	-0.067251	-0.118592	2.780102	0.000000	0.003034	0.000000	0.007355	-0.000722	0.000000	0.000000
45.720870	18.288125	14.583810	-0.128495	-0.103742	2.781221	0.000000	0.009858	0.000000	0.007141	-0.000704	0.000000	0.000000
46.269930	18.120962	14.979858	0.430689	-0.621763	2.764523	0.000000	-0.072153	0.000000	0.006692	-0.000928	0.000000	0.000000
46.818990	17.352798	15.965644	0.959427	-1.184076	2.703188	0.000000	-0.152900	0.000000	0.006125	-0.001136	0.000000	0.000000
47.368050	16.037935	17.611379	1.420357	-1.830737	2.598296	0.000000	-0.230953	0.000000	0.005448	-0.001323	0.000000	0.000000
47.917110	14.269306	20.034282	1.780915	-2.607810	2.451698	0.000000	-0.304930	0.000000	0.004676	-0.001487	0.000000	0.000000
48.363070	12.892101	22.188268	1.317454	-2.201613	2.331621	0.000000	-0.236588	0.000000	0.004038	-0.001374	0.000000	0.000000
48.804030	11.909806	23.913901	0.918033	-1.696637	2.242327	0.000000	-0.171336	0.000000	0.003454	-0.001278	0.000000	0.000000
49.244990	11.260055	25.158276	0.560571	-1.114462	2.181317	0.000000	-0.108022	0.000000	0.002909	-0.001196	0.000000	0.000000
49.685950	10.913145	25.864783	0.228731	-0.481581	2.147901	0.000000	-0.045926	0.000000	0.002398	-0.001127	0.000000	0.000000
50.128160	10.853382	26.001006	-0.066635	0.110954	2.141717	0.000000	0.010503	0.000000	0.001912	-0.001076	0.000000	0.000000
50.425482	10.901187	25.938469	-0.094152	0.099378	2.145160	0.000000	0.010503	0.000000	0.001592	-0.001076	0.000000	0.000000
50.758816	10.974238	25.876543	-0.125000	0.086400	2.149020	0.000000	0.010503	0.000000	0.001233	-0.001076	0.000000	0.000000
51.092149	11.067855	25.823269	-0.155849	0.073422	2.152880	0.000000	0.010503	0.000000	0.000875	-0.001076	0.000000	0.000000
51.426732	11.182278	25.779019	-0.096096	-0.148736	2.156732	0.000000	-0.006994	0.000000	0.000514	-0.001080	0.000000	0.000000
51.724055	11.247399	25.870970	-0.095399	-0.224252	2.154974	0.000000	-0.012269	0.000000	0.000193	-0.001081	0.000000	0.000000
52.165015	11.477995	25.780826	-0.429875	0.427900	2.163677	0.000000	0.049688	0.000000	-0.000283	-0.001082	0.000000	0.000000
52.605975	12.011072	25.121963	-0.783983	1.060579	2.199805	0.000000	0.112221	0.000000	-0.000763	-0.001096	0.000000	0.000000
53.046935	12.870974	23.924371	-1.173900	1.644999	2.263773	0.000000	0.176045	0.000000	-0.001251	-0.001122	0.000000	0.000000
53.487895	14.096974	22.242548	-1.617437	2.154571	2.356315	0.000000	0.241886	0.000000	-0.001754	-0.001160	0.000000	0.000000
53.933855	15.766034	20.127866	-2.139104	2.567410	2.480016	0.000000	0.310888	0.000000	-0.002282	-0.001213	0.000000	0.000000
54.482915	17.914500	17.748038	-1.751425	1.792699	2.630975	0.000000	0.235946	0.000000	-0.002926	-0.001128	0.000000	0.000000
55.031975	19.566398	16.144234	-1.240070	1.145674	2.739520	0.000000	0.156801	0.000000	-0.003518	-0.001024	0.000000	0.000000
55.581035	20.605093	15.202210	-0.641156	0.580249	2.803717	0.000000	0.074858	0.000000	-0.004047	-0.000901	0.000000	0.000000
56.130095	20.957260	14.854859	0.003019	0.056153	2.822419	0.000000	-0.008428	0.000000	-0.004504	-0.000763	0.000000	0.000000
56.428668	20.993630	14.803256	-0.068071	0.076287	2.822417	0.000000	-0.000778	0.000000	-0.004736	-0.000775	0.000000	0.000000
56.762001	21.044327	14.759948	-0.084022	0.053638	2.822416	0.000000	-0.000778	0.000000	-0.004994	-0.000775	0.000000	0.000000
57.095334	21.105659	14.731738	-0.099973	0.030990	2.822415	0.000000	-0.000778	0.000000	-0.005252	-0.000775	0.000000	0.000000
57.429918	21.177915	14.718607	-0.115985	0.008256	2.822414	0.000000	-0.000778	0.000000	-0.005511	-0.000775	0.000000	0.000000
57.727240	21.251136	14.719690	-0.188366	0.028172	2.822415	0.000000	0.006946	0.000000	-0.005742	-0.000790	0.000000	0.000000
58.276300	21.094721	14.971072	0.471161	-0.488754	2.803706	0.000000	-0.076335	0.000000	-0.006123	-0.000598	0.000000	0.000000
58.825360	20.228272	15.805715	1.097404	-1.040485	2.739472	0.000000	-0.158272	0.000000	-0.006396	-0.000395	0.000000	0.000000
59.374420	18.712982	17.283053	1.646144	-1.666312	2.630849	0.000000	-0.237409	0.000000	-0.006556	-0.000185	0.000000	0.000000
59.923480	16.655849	19.508291	2.078638	-2.410803	2.479761	0.000000	-0.312339	0.000000	-0.006599	0.000028	0.000000	0.000000
60.369440	15.044365	21.485988	1.547803	-2.005373	2.355944	0.000000	-0.243369	0.000000	-0.006625	-0.000144	0.000000	0.000000
60.810400	13.884876	23.041873	1.091791	-1.509943	2.263335	0.000000	-0.177549	0.000000	-0.006726	-0.000316	0.000000	0.000000
61.251360	13.104066	24.128799	0.685647	-0.945826	2.199349	0.000000	-0.113748	0.000000	-0.006904	-0.000491	0.000000	0.000000
61.692320	12.666272	24.697324	0.310824	-0.338685	2.163260	0.000000	-0.051237	0.000000	-0.007160	-0.000673	0.000000	0.000000
62.134530	12.551559	24.721000	-0.016975	0.219278	2.154668	0.000000	0.005047	0.000000	-0.007499	-0.000843	0.000000	0.000000
62.431853	12.568698	24.594355	-0.040670	0.206673	2.156419	0.000000	0.005047	0.000000	-0.007750	-0.000843	0.000000	0.000000
62.765186	12.604666	24.461284	-0.067235	0.192541	2.158382	0.000000	0.005047	0.000000	-0.008031	-0.000843	0.000000	0.000000
63.098520	12.658345	24.337634	-0.093800	0.178408	2.160345	0.000000	0.005047	0.000000	-0.008311	-0.000843	0.000000	0.000000
63.433103	12.730034	24.222995	-0.120464	0.164223	2.162315	0.000000	0.005047	0.000000	-0.008593	-0.000843	0.000000	0.000000
63.730426	12.808683	24.129144	-0.110185	0.087325	2.164064	0.000000	-0.000693	0.000000	-0.008844	-0.000820	0.000000	0.000000
64.171386	13.068092	23.786418	-0.480748	0.687044	2.177866	0.000000	0.061548	0.000000	-0.009256	-0.001053	0.000000	0.000000
64.612346	13.662622	22.926676	-0.873257	1.255507	2.219343	0.000000	0.124502	0.000000	-0.009774	-0.001299	0.000000	0.000000
65.053306	14.619408	21.589035	-1.305634	1.766858	2.288972	0.000000	0.188888	0.000000	-0.010404	-0.001559	0.000000	0.000000
65.494266	15.982121	19.834355	-1.797622	2.197836	2.387552	0.000000	0.255441	0.000000	-0.011151	-0.001836	0.000000	0.000000
65.940226	17.836351	17.717510	-2.376109	2.529365	2.517823	0.000000	0.325287	0.000000	-0.012037	-0.002137	0.000000	0.000000
66.489286	20.210608	15.349556	-1.924327	1.809596	2.676717	0.000000	0.249017	0.000000	-0.013100	-0.001730	0.000000	0.000000
67.038346	22.010936	13.696921	-1.336731	1.218681	2.792230	0.000000	0.168303	0.000000	-0.013930	-0.001292	0.000000	0.000000
67.587406	23.110314	12.641906	-0.654800	0.714542	2.862305	0.000000	0.084584	0.000000	-0.014514	-0.000831	0.000000	0.000000
68.136466	23.431187	12.109375	0.073336	0.261280	2.885690	0.000000	-0.000648	0.000000	-0.014840	-0.000356	0.000000	0.000000
68.435038	23.431975	11.940255	-0.007945	0.269932	2.888126	0.000000	0.007793	0.000000	-0.014959	-0.000397	0.000000	0.000000
68.768372	23.442014	11.770284	-0.022172	0.239981	2.890856	0.000000	0.007793	0.000000	-0.015091	-0.000397	0.000000	0.000000
69.101705	23.461538	11.620280	-0.036398	0.210030	2.893586	0.000000	0.007793	0.000000	-0.015224	-0.000397	0.000000	0.000000
69.436288	23.490672	11.489794	-0.050678	0.179967	2.896327	0.000000	0.007793	0.000000	-0.015356	-0.000397	0.000000	0.000000
69.733611	23.524746	11.390640	-0.132472	0.186645	2.898772	0.000000	0.016308	0.000000	-0.015474	-0.000440	0.000000	0.000000
70.282671	23.266212	11.413583	0.600531	-0.228685	2.884254	0.000000	-0.069489	0.000000	-0.015578	0.000063	0.000000	0.000000
