#ParticleID	Turn	x[m]	xp	y[m]	yp	z[m]	dE[GeV]# s	beta_x	beta_y	alpha_x	alpha_y	D_x	D_y	D_px	D_py	orbit_x	orbit_px	orbit_y	orbit_py
0.300000	11.928878	25.105486	-0.011653	-0.026946	2.604164	0.000000	-0.002140	0.000000	-0.001281	0.001073	0.000000	0.000000
0.601250	11.943508	25.125339	-0.036910	-0.038954	2.603196	0.000000	-0.002140	0.000000	-0.000958	0.001073	0.000000	0.000000
0.898573	11.972868	25.152027	-0.032300	-0.112471	2.602241	0.000000	-0.008560	0.000000	-0.000639	0.001075	0.000000	0.000000
1.339533	12.154801	24.972166	-0.381483	0.518807	2.614213	0.000000	0.064968	0.000000	-0.000168	0.001064	0.000000	0.000000
1.780493	12.651188	24.243886	-0.748104	1.126483	2.658739	0.000000	0.139225	0.000000	0.000302	0.001066	0.000000	0.000000
2.221453	13.484718	23.000314	-1.148912	1.682909	2.736323	0.000000	0.215056	0.000000	0.000774	0.001080	0.000000	0.000000
2.662413	14.693485	21.298022	-1.602221	2.162766	2.847844	0.000000	0.293325	0.000000	0.001256	0.001106	0.000000	0.000000
3.108373	16.353636	19.189486	-2.133097	2.545397	2.996401	0.000000	0.375414	0.000000	0.001757	0.001145	0.000000	0.000000
3.657433	18.481646	16.821091	-1.719015	1.793480	3.176910	0.000000	0.283245	0.000000	0.002369	0.001078	0.000000	0.000000
4.206493	20.085158	15.203825	-1.183477	1.169312	3.305402	0.000000	0.186068	0.000000	0.002938	0.000992	0.000000	0.000000
4.755553	21.050866	14.222502	-0.564313	0.628434	3.379605	0.000000	0.085607	0.000000	0.003455	0.000889	0.000000	0.000000
5.304613	21.310520	13.807233	0.094735	0.132318	3.398210	0.000000	-0.016359	0.000000	0.003911	0.000769	0.000000	0.000000
5.603185	21.290279	13.714124	0.026863	0.144819	3.395656	0.000000	-0.007774	0.000000	0.004143	0.000779	0.000000	0.000000
5.936519	21.277593	13.625850	0.011195	0.120003	3.392804	0.000000	-0.007774	0.000000	0.004403	0.000779	0.000000	0.000000
6.269852	21.275353	13.554120	-0.004473	0.095188	3.389953	0.000000	-0.007774	0.000000	0.004663	0.000779	0.000000	0.000000
6.604435	21.283608	13.498758	-0.020200	0.070279	3.387091	0.000000	-0.007774	0.000000	0.004924	0.000779	0.000000	0.000000
6.901758	21.299791	13.463538	-0.087388	0.081935	3.384550	0.000000	0.000681	0.000000	0.005155	0.000793	0.000000	0.000000
7.450818	21.032827	13.634950	0.571120	-0.395947	3.356680	0.000000	-0.100696	0.000000	0.005544	0.000619	0.000000	0.000000
7.999878	20.060592	14.343498	1.189290	-0.902040	3.273649	0.000000	-0.200278	0.000000	0.005833	0.000435	0.000000	0.000000
8.548938	18.451768	15.639663	1.723442	-1.472395	3.136933	0.000000	-0.296299	0.000000	0.006020	0.000243	0.000000	0.000000
9.097998	16.320029	17.615787	2.135833	-2.147644	2.948961	0.000000	-0.387060	0.000000	0.006099	0.000046	0.000000	0.000000
9.543958	14.657509	19.376422	1.605118	-1.783290	2.794387	0.000000	-0.306250	0.000000	0.006155	0.000205	0.000000	0.000000
9.984918	13.446179	20.758681	1.152204	-1.339161	2.676261	0.000000	-0.229432	0.000000	0.006281	0.000366	0.000000	0.000000
10.425878	12.609697	21.720747	0.751942	-0.834090	2.591333	0.000000	-0.155230	0.000000	0.006479	0.000530	0.000000	0.000000
10.866838	12.109837	22.218836	0.386040	-0.291060	2.538636	0.000000	-0.082803	0.000000	0.006750	0.000701	0.000000	0.000000
11.309048	11.923614	22.229707	0.064913	0.214096	2.517544	0.000000	-0.017079	0.000000	0.007099	0.000862	0.000000	0.000000
11.606371	11.892459	22.106555	0.039873	0.200108	2.512209	0.000000	-0.017079	0.000000	0.007355	0.000862	0.000000	0.000000
12.086371	11.873585	21.925291	-0.000553	0.177525	2.503597	0.000000	-0.017079	0.000000	0.007769	0.000862	0.000000	0.000000
12.566371	11.893521	21.765706	-0.040979	0.154943	2.494985	0.000000	-0.017079	0.000000	0.008183	0.000862	0.000000	0.000000
13.046371	11.952266	21.627800	-0.081405	0.132360	2.486373	0.000000	-0.017079	0.000000	0.008597	0.000862	0.000000	0.000000
13.526371	12.049819	21.511574	-0.121831	0.109778	2.477761	0.000000	-0.017079	0.000000	0.009011	0.000862	0.000000	0.000000
14.007621	12.186587	21.416809	-0.162362	0.087137	2.469127	0.000000	-0.017079	0.000000	0.009426	0.000862	0.000000	0.000000
14.304943	12.290547	21.369211	-0.160095	0.025915	2.463789	0.000000	-0.022553	0.000000	0.009683	0.000840	0.000000	0.000000
14.745903	12.589715	21.112461	-0.520488	0.554039	2.468838	0.000000	0.047335	0.000000	0.010109	0.001095	0.000000	0.000000
15.186863	13.216074	20.399257	-0.904680	1.056952	2.504685	0.000000	0.117751	0.000000	0.010650	0.001363	0.000000	0.000000
15.627823	14.198271	19.262050	-1.330235	1.511763	2.571735	0.000000	0.189494	0.000000	0.011313	0.001646	0.000000	0.000000
16.068783	15.581229	17.752582	-1.816609	1.897772	2.670745	0.000000	0.263379	0.000000	0.012105	0.001948	0.000000	0.000000
16.514743	17.451873	15.917764	-2.391029	2.198434	2.804512	0.000000	0.340739	0.000000	0.013045	0.002274	0.000000	0.000000
17.063803	19.854635	13.869285	-1.957220	1.553742	2.967261	0.000000	0.255042	0.000000	0.014175	0.001833	0.000000	0.000000
17.612863	21.701588	12.464279	-1.385040	1.019757	3.081888	0.000000	0.164850	0.000000	0.015052	0.001359	0.000000	0.000000
18.161923	22.862119	11.602657	-0.714936	0.558432	3.146369	0.000000	0.071754	0.000000	0.015663	0.000861	0.000000	0.000000
18.710983	23.254150	11.223034	0.005722	0.136898	3.159568	0.000000	-0.022601	0.000000	0.015996	0.000348	0.000000	0.000000
19.009556	23.285614	11.134492	-0.059419	0.134765	3.154813	0.000000	-0.015498	0.000000	0.016112	0.000387	0.000000	0.000000
19.342889	23.330015	11.054809	-0.073784	0.104284	3.149517	0.000000	-0.015498	0.000000	0.016241	0.000387	0.000000	0.000000
19.676223	23.383993	10.995447	-0.088150	0.073804	3.144222	0.000000	-0.015498	0.000000	0.016370	0.000387	0.000000	0.000000
20.010806	23.448095	10.956161	-0.218744	0.097492	3.138926	0.000000	0.000054	0.000000	0.016500	0.000469	0.000000	0.000000
20.308129	23.582312	10.906244	-0.284671	0.094527	3.138815	0.000000	0.007060	0.000000	0.016639	0.000509	0.000000	0.000000
20.857189	23.488396	11.023555	0.454826	-0.309395	3.116849	0.000000	-0.086483	0.000000	0.016770	-0.000032	0.000000	0.000000
21.406249	22.594953	11.593960	1.162173	-0.735365	3.044140	0.000000	-0.178491	0.000000	0.016604	-0.000573	0.000000	0.000000
21.955309	20.965162	12.658100	1.787358	-1.213736	2.921978	0.000000	-0.267341	0.000000	0.016143	-0.001103	0.000000	0.000000
22.504369	18.714277	14.291794	2.286183	-1.778595	2.752526	0.000000	-0.351465	0.000000	0.015396	-0.001614	0.000000	0.000000
22.950329	16.942160	15.758932	1.699615	-1.496421	2.613364	0.000000	-0.275510	0.000000	0.014763	-0.001223	0.000000	0.000000
23.391289	15.669759	16.929400	1.195776	-1.147288	2.508340	0.000000	-0.203177	0.000000	0.014307	-0.000848	0.000000	0.000000
23.832249	14.816183	17.767594	0.746611	-0.745934	2.434525	0.000000	-0.133149	0.000000	0.014014	-0.000483	0.000000	0.000000
24.273209	14.342391	18.235370	0.331582	-0.310629	2.391080	0.000000	-0.064633	0.000000	0.013880	-0.000124	0.000000	0.000000
24.715418	14.226892	18.311084	-0.038240	0.099899	2.377515	0.000000	-0.001889	0.000000	0.013905	0.000203	0.000000	0.000000
25.012741	14.255854	18.256556	-0.059169	0.083500	2.376893	0.000000	-0.001889	0.000000	0.013965	0.000203	0.000000	0.000000
25.346075	14.303122	18.207018	-0.082633	0.065114	2.376196	0.000000	-0.001889	0.000000	0.014033	0.000203	0.000000	0.000000
25.679408	14.366032	18.169737	-0.106098	0.046729	2.375498	0.000000	-0.001889	0.000000	0.014100	0.000203	0.000000	0.000000
26.013991	14.444616	18.145010	-0.012465	-0.118927	2.374775	0.000000	-0.021154	0.000000	0.014168	0.000088	0.000000	0.000000
26.311314	14.458064	18.220778	-0.002532	-0.173994	2.368452	0.000000	-0.026154	0.000000	0.014194	0.000055	0.000000	0.000000
26.752274	14.639102	18.176707	-0.409398	0.273537	2.371678	0.000000	0.041260	0.000000	0.014299	0.000423	0.000000	0.000000
27.193234	15.185976	17.741871	-0.834983	0.708618	2.404555	0.000000	0.109140	0.000000	0.014568	0.000795	0.000000	0.000000
27.634194	16.123700	16.936058	-1.298748	1.111446	2.467454	0.000000	0.178255	0.000000	0.015002	0.001176	0.000000	0.000000
28.075154	17.495170	15.795939	-1.821900	1.463686	2.561089	0.000000	0.249388	0.000000	0.015607	0.001571	0.000000	0.000000
28.521114	19.387325	14.355985	-2.433639	1.750533	2.688122	0.000000	0.323832	0.000000	0.016400	0.001986	0.000000	0.000000
29.070174	21.793825	12.752112	-1.921265	1.187129	2.842830	0.000000	0.242032	0.000000	0.017342	0.001439	0.000000	0.000000
29.619234	23.559009	11.717246	-1.273050	0.708318	2.951671	0.000000	0.155959	0.000000	0.017976	0.000867	0.000000	0.000000
30.168294	24.558033	11.177656	-0.534824	0.279982	3.012720	0.000000	0.067133	0.000000	0.018292	0.000279	0.000000	0.000000
30.717354	24.720238	11.094896	0.241216	-0.128402	3.024899	0.000000	-0.022880	0.000000	0.018282	-0.000313	0.000000	0.000000
31.015927	24.612058	11.165240	0.174505	-0.131220	3.020114	0.000000	-0.016246	0.000000	0.018202	-0.000269	0.000000	0.000000
31.349260	24.500374	11.262843	0.160549	-0.161588	3.014788	0.000000	-0.016246	0.000000	0.018112	-0.000269	0.000000	0.000000
31.682593	24.397993	11.380691	0.146593	-0.191957	3.009463	0.000000	-0.016246	0.000000	0.018022	-0.000269	0.000000	0.000000
32.017177	24.304585	11.519341	0.132585	-0.222439	3.004117	0.000000	-0.016246	0.000000	0.017932	-0.000269	0.000000	0.000000
32.314499	24.229672	11.659558	0.066745	-0.223875	2.999381	0.000000	-0.009637	0.000000	0.017852	-0.000226	0.000000	0.000000
32.863559	23.741274	12.143426	0.816925	-0.662371	2.969902	0.000000	-0.098541	0.000000	0.017570	-0.000800	0.000000	0.000000
33.412619	22.455690	13.131874	1.509340	-1.148067	2.892303	0.000000	-0.185709	0.000000	0.016976	-0.001360	0.000000	0.000000
33.961679	20.463849	14.695324	2.095034	-1.715572	2.767952	0.000000	-0.269603	0.000000	0.016081	-0.001896	0.000000	0.000000
34.510739	17.906625	16.945162	2.532602	-2.405320	2.599044	0.000000	-0.348745	0.000000	0.014900	-0.002398	0.000000	0.000000
34.956699	15.919703	18.958045	1.936404	-2.088256	2.460553	0.000000	-0.276773	0.000000	0.013914	-0.002024	0.000000	0.000000
35.397659	14.438465	20.625144	1.434001	-1.677233	2.354449	0.000000	-0.208397	0.000000	0.013099	-0.001676	0.000000	0.000000
35.838619	13.370010	21.894487	0.997165	-1.189874	2.277812	0.000000	-0.142378	0.000000	0.012433	-0.001346	0.000000	0.000000
36.279579	12.665467	22.708315	0.605923	-0.648362	2.229775	0.000000	-0.077967	0.000000	0.011909	-0.001033	0.000000	0.000000
36.721789	12.291986	23.029827	0.269037	-0.127302	2.209776	0.000000	-0.019243	0.000000	0.011520	-0.000757	0.000000	0.000000
37.019112	12.139717	23.109427	0.243098	-0.140421	2.204279	0.000000	-0.019243	0.000000	0.011295	-0.000757	0.000000	0.000000
37.352445	11.987345	23.207944	0.214017	-0.155130	2.198117	0.000000	-0.019243	0.000000	0.011042	-0.000757	0.000000	0.000000
37.685779	11.854361	23.316266	0.184936	-0.169838	2.191955	0.000000	-0.019243	0.000000	0.010790	-0.000757	0.000000	0.000000
38.020362	11.740374	23.434856	0.155746	-0.184602	2.185770	0.000000	-0.019243	0.000000	0.010537	-0.000757	0.000000	0.000000
38.317684	11.655436	23.548603	0.155531	-0.249945	2.180270	0.000000	-0.024055	0.000000	0.010311	-0.000781	0.000000	0.000000
38.758644	11.667452	23.508194	-0.183097	0.341220	2.183730	0.000000	0.038502	0.000000	0.010025	-0.000519	0.000000	0.000000
39.199604	11.980736	22.951236	-0.530089	0.916853	2.214740	0.000000	0.101504	0.000000	0.009853	-0.000263	0.000000	0.000000
39.640564	12.609606	21.903078	-0.901308	1.450758	2.273656	0.000000	0.165665	0.000000	0.009793	-0.000010	0.000000	0.000000
40.081524	13.582809	20.411425	-1.313723	1.918635	2.361149	0.000000	0.231713	0.000000	0.009844	0.000244	0.000000	0.000000
40.527484	14.962462	18.521479	-1.790181	2.300720	2.479695	0.000000	0.300831	0.000000	0.010010	0.000501	0.000000	0.000000
41.076544	16.725343	16.397710	-1.400917	1.589566	2.624373	0.000000	0.225968	0.000000	0.010196	0.000174	0.000000	0.000000
41.625604	18.003387	14.988573	-0.912653	0.991665	2.726952	0.000000	0.147099	0.000000	0.010200	-0.000157	0.000000	0.000000
42.174664	18.706266	14.193673	-0.359900	0.464419	2.785613	0.000000	0.065617	0.000000	0.010024	-0.000484	0.000000	0.000000
42.723724	18.784309	13.956372	0.218277	-0.029735	2.799312	0.000000	-0.017036	0.000000	0.009670	-0.000804	0.000000	0.000000
43.022297	18.685672	13.960491	0.156908	-0.017530	2.796457	0.000000	-0.010331	0.000000	0.009437	-0.000779	0.000000	0.000000
43.502297	18.547673	13.993829	0.130588	-0.051924	2.791872	0.000000	-0.010331	0.000000	0.009063	-0.000779	0.000000	0.000000
43.982297	18.434943	14.060185	0.104267	-0.086317	2.787287	0.000000	-0.010331	0.000000	0.008689	-0.000779	0.000000	0.000000
44.462297	18.347480	14.159558	0.077947	-0.120710	2.782703	0.000000	-0.010331	0.000000	0.008315	-0.000779	0.000000	0.000000
44.942297	18.285285	14.291949	0.051626	-0.155104	2.778118	0.000000	-0.010331	0.000000	0.007941	-0.000779	0.000000	0.000000
45.423547	18.248521	14.457652	-0.065176	-0.117954	2.773538	0.000000	0.003411	0.000000	0.007566	-0.000742	0.000000	0.000000
45.720870	18.292171	14.533970	-0.126336	-0.103366	2.774775	0.000000	0.010206	0.000000	0.007345	-0.000723	0.000000	0.000000
46.269930	18.122573	14.928784	0.432928	-0.619878	2.758338	0.000000	-0.071601	0.000000	0.006884	-0.000954	0.000000	0.000000
46.818990	17.351970	15.911617	0.961585	-1.180548	2.697375	0.000000	-0.152154	0.000000	0.006301	-0.001167	0.000000	0.000000
47.368050	16.034838	17.552470	1.422282	-1.825315	2.592961	0.000000	-0.230026	0.000000	0.005606	-0.001360	0.000000	0.000000
47.917110	14.264274	19.968215	1.782469	-2.600108	2.446938	0.000000	-0.303840	0.000000	0.004811	-0.001529	0.000000	0.000000
48.363070	12.885703	22.116005	1.318952	-2.195473	2.327338	0.000000	-0.235615	0.000000	0.004156	-0.001413	0.000000	0.000000
48.804030	11.902076	23.837019	0.919548	-1.692336	2.238465	0.000000	-0.170468	0.000000	0.003555	-0.001313	0.000000	0.000000
49.244990	11.250950	25.078488	0.562172	-1.112195	2.177831	0.000000	-0.107248	0.000000	0.002995	-0.001229	0.000000	0.000000
49.685950	10.902559	25.783935	0.230491	-0.481451	2.144751	0.000000	-0.045238	0.000000	0.002469	-0.001159	0.000000	0.000000
50.128160	10.841134	25.920997	-0.064679	0.109177	2.138868	0.000000	0.011124	0.000000	0.001970	-0.001106	0.000000	0.000000
50.425482	10.887783	25.859526	-0.092219	0.097570	2.142504	0.000000	0.011124	0.000000	0.001641	-0.001106	0.000000	0.000000
50.758816	10.959555	25.798816	-0.123095	0.084558	2.146580	0.000000	0.011124	0.000000	0.001273	-0.001106	0.000000	0.000000
51.092149	11.051910	25.746782	-0.153970	0.071545	2.150657	0.000000	0.011124	0.000000	0.000904	-0.001106	0.000000	0.000000
51.426732	11.165085	25.703798	-0.094383	-0.150039	2.154727	0.000000	-0.006357	0.000000	0.000534	-0.001110	0.000000	0.000000
51.724055	11.229198	25.796535	-0.093766	-0.225414	2.153167	0.000000	-0.011627	0.000000	0.000204	-0.001111	0.000000	0.000000
52.165015	11.458154	25.708282	-0.427784	0.424791	2.162157	0.000000	0.050287	0.000000	-0.000286	-0.001112	0.000000	0.000000
52.605975	11.989146	25.052971	-0.781339	1.055664	2.198553	0.000000	0.112785	0.000000	-0.000779	-0.001126	0.000000	0.000000
53.046935	12.846424	23.860430	-1.170581	1.638503	2.262776	0.000000	0.176579	0.000000	-0.001281	-0.001152	0.000000	0.000000
53.487895	14.069139	22.184928	-1.613291	2.146789	2.355562	0.000000	0.242397	0.000000	-0.001797	-0.001192	0.000000	0.000000
53.933855	15.734053	20.077634	-2.133931	2.558694	2.479501	0.000000	0.311383	0.000000	-0.002340	-0.001246	0.000000	0.000000
54.482915	17.877256	17.706209	-1.747086	1.786024	2.630753	0.000000	0.236453	0.000000	-0.003001	-0.001159	0.000000	0.000000
55.031975	19.524982	16.108840	-1.236873	1.140564	2.739593	0.000000	0.157311	0.000000	-0.003609	-0.001052	0.000000	0.000000
55.581035	20.560892	15.171740	-0.639327	0.576340	2.804082	0.000000	0.075361	0.000000	-0.004153	-0.000926	0.000000	0.000000
56.130095	20.911859	14.828152	0.003350	0.053167	2.823069	0.000000	-0.007941	0.000000	-0.004623	-0.000784	0.000000	0.000000
56.428668	20.947997	14.778358	-0.067700	0.073246	2.823221	0.000000	-0.000282	0.000000	-0.004861	-0.000796	0.000000	0.000000
56.762001	20.998459	14.737087	-0.083685	0.050569	2.823393	0.000000	-0.000282	0.000000	-0.005126	-0.000796	0.000000	0.000000
57.095334	21.059578	14.710933	-0.099671	0.027893	2.823564	0.000000	-0.000282	0.000000	-0.005392	-0.000796	0.000000	0.000000
57.429918	21.131642	14.699884	-0.115716	0.005131	2.823737	0.000000	-0.000282	0.000000	-0.005658	-0.000796	0.000000	0.000000
57.727240	21.204713	14.702831	-0.188070	0.025020	2.823891	0.000000	0.007455	0.000000	-0.005895	-0.000812	0.000000	0.000000
58.276300	21.048823	14.957435	0.469905	-0.491505	2.805458	0.000000	-0.075878	0.000000	-0.006287	-0.000615	0.000000	0.000000
58.825360	20.184567	15.794966	1.094684	-1.043030	2.741467	0.000000	-0.157875	0.000000	-0.006568	-0.000407	0.000000	0.000000
59.374420	18.672985	17.275064	1.642153	-1.668831	2.633049	0.000000	-0.237080	0.000000	-0.006733	-0.000191	0.000000	0.000000
59.923480	16.620812	19.503129	2.073658	-2.413476	2.482123	0.000000	-0.312083	0.000000	-0.006778	0.000028	0.000000	0.000000
60.369440	15.013282	21.483401	1.543885	-2.008456	2.358435	0.000000	-0.243051	0.000000	-0.006804	-0.000148	0.000000	0.000000
60.810400	13.856854	23.042128	1.088744	-1.513288	2.265984	0.000000	-0.177165	0.000000	-0.006909	-0.000325	0.000000	0.000000
61.251360	13.078398	24.132060	0.683333	-0.949281	2.202188	0.000000	-0.113294	0.000000	-0.007092	-0.000506	0.000000	0.000000
61.692320	12.642361	24.703621	0.309136	-0.342094	2.166323	0.000000	-0.050707	0.000000	-0.007355	-0.000692	0.000000	0.000000
62.134530	12.528890	24.730231	-0.018117	0.215943	2.157992	0.000000	0.005640	0.000000	-0.007704	-0.000866	0.000000	0.000000
62.431853	12.546722	24.605563	-0.041856	0.203360	2.159926	0.000000	0.005640	0.000000	-0.007961	-0.000866	0.000000	0.000000
62.765186	12.583497	24.474692	-0.068470	0.189252	2.162095	0.000000	0.005640	0.000000	-0.008250	-0.000866	0.000000	0.000000
63.098520	12.638015	24.353226	-0.095083	0.175145	2.164264	0.000000	0.005640	0.000000	-0.008539	-0.000866	0.000000	0.000000
63.433103	12.710579	24.240763	-0.121797	0.160985	2.166441	0.000000	0.005640	0.000000	-0.008829	-0.000866	0.000000	0.000000
63.730426	12.790033	24.148834	-0.111543	0.083919	2.168373	0.000000	-0.000123	0.000000	-0.009086	-0.000843	0.000000	0.000000
64.171386	13.050456	23.808855	-0.481711	0.684245	2.182463	0.000000	0.062233	0.000000	-0.009510	-0.001083	0.000000	0.000000
64.612346	13.645670	22.951269	-0.873869	1.253442	2.224282	0.000000	0.125310	0.000000	-0.010043	-0.001335	0.000000	0.000000
65.053306	14.602841	21.615095	-1.305922	1.765621	2.294313	0.000000	0.189827	0.000000	-0.010690	-0.001602	0.000000	0.000000
65.494266	15.965656	19.861125	-1.797598	2.197485	2.393358	0.000000	0.256523	0.000000	-0.011458	-0.001887	0.000000	0.000000
65.940226	17.819713	17.744189	-2.375761	2.529916	2.524169	0.000000	0.326525	0.000000	-0.012368	-0.002196	0.000000	0.000000
66.489286	20.193938	15.375965	-1.924668	1.809561	2.683712	0.000000	0.250040	0.000000	-0.013460	-0.001778	0.000000	0.000000
67.038346	21.994988	13.723699	-1.337739	1.218057	2.799745	0.000000	0.169092	0.000000	-0.014314	-0.001328	0.000000	0.000000
67.587406	23.095793	12.669717	-0.656406	0.713283	2.870200	0.000000	0.085125	0.000000	-0.014914	-0.000855	0.000000	0.000000
68.136466	23.418701	12.138959	0.071243	0.259296	2.893821	0.000000	-0.000366	0.000000	-0.015250	-0.000366	0.000000	0.000000
68.435038	23.420826	11.970888	-0.010202	0.268228	2.896358	0.000000	0.008123	0.000000	-0.015372	-0.000408	0.000000	0.000000
68.768372	23.432372	11.802019	-0.024436	0.238379	2.899202	0.000000	0.008123	0.000000	-0.015508	-0.000408	0.000000	0.000000
69.101705	23.453407	11.653050	-0.038670	0.208530	2.902046	0.000000	0.008123	0.000000	-0.015644	-0.000408	0.000000	0.000000
69.436288	23.484064	11.523532	-0.052957	0.178570	2.904900	0.000000	0.008123	0.000000	-0.015781	-0.000408	0.000000	0.000000
69.733611	23.519504	11.425178	-0.134943	0.185537	2.907448	0.000000	0.016689	0.000000	-0.015902	-0.000453	0.000000	0.000000
70.282671	23.263759	11.449870	0.597949	-0.230785	2.893064	0.000000	-0.069391	0.000000	-0.016009	0.000064	0.000000	0.000000
