#ParticleID	Turn	x[m]	xp	y[m]	yp	z[m]	dE[GeV]# s	beta_x	beta_y	alpha_x	alpha_y	D_x	D_y	D_px	D_py	orbit_x	orbit_px	orbit_y	orbit_py
0.300000	11.904354	25.170719	-0.018289	-0.023907	2.607861	0.000000	0.000516	0.000000	-0.000407	0.000357	0.000000	0.000000
0.601250	11.922999	25.188730	-0.043603	-0.035882	2.607909	0.000000	0.000516	0.000000	-0.000300	0.000357	0.000000	0.000000
0.898573	11.956356	25.213582	-0.039214	-0.109517	2.607957	0.000000	-0.005891	0.000000	-0.000193	0.000358	0.000000	0.000000
1.339533	12.144168	25.030409	-0.388197	0.523333	2.621443	0.000000	0.067805	0.000000	-0.000036	0.000355	0.000000	0.000000
1.780493	12.646386	24.297520	-0.754918	1.132372	2.667566	0.000000	0.142269	0.000000	0.000120	0.000356	0.000000	0.000000
2.221453	13.485960	23.048257	-1.156132	1.689891	2.746848	0.000000	0.218349	0.000000	0.000278	0.000361	0.000000	0.000000
2.662413	14.701250	21.339459	-1.610171	2.170521	2.860191	0.000000	0.296913	0.000000	0.000439	0.000370	0.000000	0.000000
3.108373	16.368773	19.223827	-2.142121	2.553543	3.010740	0.000000	0.379344	0.000000	0.000607	0.000384	0.000000	0.000000
3.657433	18.506684	16.847475	-1.728369	1.799996	3.193658	0.000000	0.286676	0.000000	0.000812	0.000361	0.000000	0.000000
4.206493	20.120107	15.223775	-1.192523	1.174659	3.324238	0.000000	0.188930	0.000000	0.001002	0.000332	0.000000	0.000000
4.755553	21.095062	14.237075	-0.572433	0.632992	3.400168	0.000000	0.087837	0.000000	0.001175	0.000296	0.000000	0.000000
5.304613	21.362671	13.817098	0.088100	0.136411	3.420101	0.000000	-0.014809	0.000000	0.001327	0.000256	0.000000	0.000000
5.603185	21.347198	13.720997	0.018914	0.149811	3.418241	0.000000	-0.005973	0.000000	0.001404	0.000259	0.000000	0.000000
5.936519	21.339796	13.629403	0.003294	0.124972	3.416164	0.000000	-0.005973	0.000000	0.001491	0.000259	0.000000	0.000000
6.269852	21.342807	13.554368	-0.012327	0.100133	3.414086	0.000000	-0.005973	0.000000	0.001577	0.000259	0.000000	0.000000
6.604435	21.356301	13.495704	-0.028006	0.075201	3.412001	0.000000	-0.005973	0.000000	0.001664	0.000259	0.000000	0.000000
6.901758	21.377099	13.457572	-0.096974	0.087743	3.410149	0.000000	0.002807	0.000000	0.001741	0.000264	0.000000	0.000000
7.450818	21.119041	13.622435	0.564322	-0.389772	3.383466	0.000000	-0.099409	0.000000	0.001870	0.000205	0.000000	0.000000
7.999878	20.152450	14.323761	1.185758	-0.895053	3.301094	0.000000	-0.199858	0.000000	0.001965	0.000143	0.000000	0.000000
8.548938	18.545604	15.611508	1.723435	-1.464091	3.164494	0.000000	-0.296759	0.000000	0.002026	0.000078	0.000000	0.000000
9.097998	16.412013	17.577405	2.139368	-2.137419	2.976092	0.000000	-0.388396	0.000000	0.002051	0.000012	0.000000	0.000000
9.543958	14.747215	19.329022	1.606901	-1.773625	2.821119	0.000000	-0.306911	0.000000	0.002069	0.000066	0.000000	0.000000
9.984918	13.535128	20.703049	1.152228	-1.330416	2.702940	0.000000	-0.229413	0.000000	0.002109	0.000120	0.000000	0.000000
10.425878	12.699403	21.657901	0.750201	-0.826670	2.618304	0.000000	-0.154529	0.000000	0.002174	0.000175	0.000000	0.000000
10.866838	12.201853	22.150127	0.382450	-0.285308	2.566247	0.000000	-0.081407	0.000000	0.002264	0.000232	0.000000	0.000000
11.309048	12.019595	22.156786	0.060877	0.215779	2.546155	0.000000	-0.015317	0.000000	0.002380	0.000286	0.000000	0.000000
11.606371	11.990777	22.032650	0.036049	0.201735	2.541516	0.000000	-0.015317	0.000000	0.002465	0.000286	0.000000	0.000000
12.086371	11.975410	21.849867	-0.004034	0.179063	2.534026	0.000000	-0.015317	0.000000	0.002602	0.000286	0.000000	0.000000
12.566371	11.998523	21.688849	-0.044117	0.156390	2.526537	0.000000	-0.015317	0.000000	0.002739	0.000286	0.000000	0.000000
13.046371	12.060115	21.549597	-0.084200	0.133718	2.519047	0.000000	-0.015317	0.000000	0.002877	0.000286	0.000000	0.000000
13.526371	12.160186	21.432110	-0.124283	0.111046	2.511558	0.000000	-0.015317	0.000000	0.003014	0.000286	0.000000	0.000000
14.007621	12.299148	21.336168	-0.164470	0.088314	2.504049	0.000000	-0.015317	0.000000	0.003152	0.000286	0.000000	0.000000
14.304943	12.404327	21.287835	-0.159818	0.023761	2.499409	0.000000	-0.021257	0.000000	0.003237	0.000278	0.000000	0.000000
14.745903	12.704241	21.033975	-0.522753	0.549718	2.505506	0.000000	0.049551	0.000000	0.003378	0.000364	0.000000	0.000000
15.186863	13.333553	20.325540	-0.909578	1.050663	2.542884	0.000000	0.120920	0.000000	0.003558	0.000453	0.000000	0.000000
15.627823	14.321024	19.194762	-1.337970	1.503799	2.611969	0.000000	0.193661	0.000000	0.003778	0.000548	0.000000	0.000000
16.068783	15.711785	17.693092	-1.827504	1.888508	2.713544	0.000000	0.268603	0.000000	0.004042	0.000648	0.000000	0.000000
16.514743	17.593022	15.867351	-2.405395	2.188101	2.850463	0.000000	0.347074	0.000000	0.004355	0.000757	0.000000	0.000000
17.063803	20.008484	13.829168	-1.967171	1.545702	3.016979	0.000000	0.259854	0.000000	0.004731	0.000610	0.000000	0.000000
17.612863	21.863031	12.432210	-1.389955	1.013412	3.134350	0.000000	0.168035	0.000000	0.005023	0.000452	0.000000	0.000000
18.161923	23.025617	11.576970	-0.714528	0.553313	3.200496	0.000000	0.073242	0.000000	0.005226	0.000286	0.000000	0.000000
18.710983	23.414086	11.202527	0.011387	0.132631	3.214247	0.000000	-0.022846	0.000000	0.005336	0.000115	0.000000	0.000000
19.009556	23.445958	11.114825	-0.059796	0.133216	3.209780	0.000000	-0.014828	0.000000	0.005375	0.000128	0.000000	0.000000
19.342889	23.490578	11.036188	-0.074064	0.102694	3.204795	0.000000	-0.014828	0.000000	0.005417	0.000128	0.000000	0.000000
19.676223	23.544710	10.977900	-0.088332	0.072171	3.199809	0.000000	-0.014828	0.000000	0.005460	0.000128	0.000000	0.000000
20.010806	23.608902	10.939721	-0.219625	0.095737	3.194825	0.000000	0.001001	0.000000	0.005503	0.000156	0.000000	0.000000
20.308129	23.743448	10.890936	-0.291935	0.095449	3.195077	0.000000	0.008955	0.000000	0.005550	0.000170	0.000000	0.000000
20.857189	23.654616	11.006939	0.452807	-0.307956	3.173744	0.000000	-0.086390	0.000000	0.005593	-0.000011	0.000000	0.000000
21.406249	22.760637	11.575341	1.165557	-0.733300	3.100496	0.000000	-0.180202	0.000000	0.005538	-0.000191	0.000000	0.000000
21.955309	21.124680	12.636632	1.795954	-1.210883	2.976632	0.000000	-0.270820	0.000000	0.005384	-0.000368	0.000000	0.000000
22.504369	18.862346	14.266412	2.299457	-1.774726	2.804348	0.000000	-0.356640	0.000000	0.005135	-0.000538	0.000000	0.000000
22.950329	17.080623	15.730133	1.709391	-1.493387	2.662789	0.000000	-0.279421	0.000000	0.004924	-0.000408	0.000000	0.000000
23.391289	15.801397	16.898094	1.202255	-1.145027	2.556037	0.000000	-0.205853	0.000000	0.004772	-0.000283	0.000000	0.000000
23.832249	14.943658	17.734567	0.750060	-0.744563	2.481128	0.000000	-0.134626	0.000000	0.004674	-0.000161	0.000000	0.000000
24.273209	14.468203	18.201492	0.332143	-0.310218	2.437212	0.000000	-0.064931	0.000000	0.004630	-0.000041	0.000000	0.000000
24.715418	14.353406	18.277371	-0.037048	0.095321	2.423786	0.000000	-0.001656	0.000000	0.004638	0.000067	0.000000	0.000000
25.012741	14.381603	18.225569	-0.057791	0.078906	2.423273	0.000000	-0.001656	0.000000	0.004658	0.000067	0.000000	0.000000
25.346075	14.427882	18.179099	-0.081046	0.060503	2.422699	0.000000	-0.001656	0.000000	0.004680	0.000067	0.000000	0.000000
25.679408	14.489664	18.144898	-0.104301	0.042100	2.422125	0.000000	-0.001656	0.000000	0.004703	0.000067	0.000000	0.000000
26.013991	14.566974	18.123275	-0.009467	-0.123397	2.421523	0.000000	-0.021301	0.000000	0.004725	0.000029	0.000000	0.000000
26.311314	14.578662	18.201616	0.004252	-0.182661	2.415181	0.000000	-0.026955	0.000000	0.004734	0.000017	0.000000	0.000000
26.752274	14.754837	18.165427	-0.405233	0.264414	2.418384	0.000000	0.041647	0.000000	0.004768	0.000140	0.000000	0.000000
27.193234	15.298963	17.738745	-0.833237	0.699457	2.451862	0.000000	0.110721	0.000000	0.004857	0.000264	0.000000	0.000000
27.634194	16.235912	16.940987	-1.299320	1.102671	2.515997	0.000000	0.181055	0.000000	0.005002	0.000391	0.000000	0.000000
28.075154	17.608505	15.808451	-1.824782	1.455709	2.611518	0.000000	0.253446	0.000000	0.005203	0.000523	0.000000	0.000000
28.521114	19.503407	14.375563	-2.438678	1.743515	2.741123	0.000000	0.329182	0.000000	0.005467	0.000661	0.000000	0.000000
29.070174	21.912410	12.779415	-1.922158	1.180467	2.898874	0.000000	0.245645	0.000000	0.005780	0.000479	0.000000	0.000000
29.619234	23.675724	11.752073	-1.269822	0.701514	3.009591	0.000000	0.157758	0.000000	0.005991	0.000288	0.000000	0.000000
30.168294	24.668743	11.220355	-0.527763	0.272535	3.071311	0.000000	0.067078	0.000000	0.006096	0.000092	0.000000	0.000000
30.717354	24.821294	11.146384	0.251587	-0.137029	3.082941	0.000000	-0.024792	0.000000	0.006092	-0.000105	0.000000	0.000000
31.015927	24.711472	11.219817	0.177635	-0.136506	3.077844	0.000000	-0.017154	0.000000	0.006065	-0.000090	0.000000	0.000000
31.349260	24.597687	11.320909	0.163720	-0.166769	3.072156	0.000000	-0.017154	0.000000	0.006035	-0.000090	0.000000	0.000000
31.682593	24.493178	11.442176	0.149805	-0.197032	3.066468	0.000000	-0.017154	0.000000	0.006006	-0.000090	0.000000	0.000000
32.017177	24.397607	11.584187	0.135839	-0.227409	3.060758	0.000000	-0.017154	0.000000	0.005976	-0.000090	0.000000	0.000000
32.314499	24.320546	11.727428	0.063100	-0.225325	3.055686	0.000000	-0.009575	0.000000	0.005949	-0.000075	0.000000	0.000000
32.863559	23.834799	12.213851	0.816160	-0.665751	3.025576	0.000000	-0.100261	0.000000	0.005855	-0.000266	0.000000	0.000000
33.412619	22.548897	13.207006	1.511550	-1.153605	2.946183	0.000000	-0.189172	0.000000	0.005658	-0.000452	0.000000	0.000000
33.961679	20.553711	14.777637	2.100136	-1.723638	2.818915	0.000000	-0.274736	0.000000	0.005360	-0.000631	0.000000	0.000000
34.510739	17.990232	17.037624	2.540331	-2.416458	2.646024	0.000000	-0.355435	0.000000	0.004967	-0.000798	0.000000	0.000000
34.956699	15.998000	19.059245	1.942316	-2.097517	2.504201	0.000000	-0.282330	0.000000	0.004639	-0.000674	0.000000	0.000000
35.397659	14.512779	20.733209	1.438130	-1.683974	2.395376	0.000000	-0.212878	0.000000	0.004368	-0.000557	0.000000	0.000000
35.838619	13.441719	22.007119	0.999665	-1.193804	2.316569	0.000000	-0.145845	0.000000	0.004147	-0.000448	0.000000	0.000000
36.279579	12.735867	22.823011	0.606884	-0.649311	2.266884	0.000000	-0.080469	0.000000	0.003973	-0.000343	0.000000	0.000000
36.721789	12.362291	23.144077	0.270933	-0.129921	2.245731	0.000000	-0.021311	0.000000	0.003843	-0.000251	0.000000	0.000000
37.019112	12.208857	23.225218	0.245117	-0.142984	2.239469	0.000000	-0.021311	0.000000	0.003769	-0.000251	0.000000	0.000000
37.352445	12.055094	23.325423	0.216174	-0.157630	2.232449	0.000000	-0.021311	0.000000	0.003685	-0.000251	0.000000	0.000000
37.685779	11.920625	23.435392	0.187231	-0.172276	2.225429	0.000000	-0.021311	0.000000	0.003601	-0.000251	0.000000	0.000000
38.020362	11.805057	23.555592	0.158180	-0.186976	2.218383	0.000000	-0.021311	0.000000	0.003517	-0.000251	0.000000	0.000000
38.317684	11.718667	23.670669	0.160158	-0.256268	2.212121	0.000000	-0.026558	0.000000	0.003442	-0.000260	0.000000	0.000000
38.758644	11.727261	23.634417	-0.179792	0.338163	2.214469	0.000000	0.036795	0.000000	0.003347	-0.000172	0.000000	0.000000
39.199604	12.038165	23.078708	-0.527955	0.917206	2.244783	0.000000	0.100570	0.000000	0.003290	-0.000087	0.000000	0.000000
39.640564	12.665585	22.028830	-0.900242	1.454513	2.303410	0.000000	0.165490	0.000000	0.003270	-0.000002	0.000000	0.000000
40.081524	13.638191	20.532556	-1.313664	1.925634	2.391017	0.000000	0.232296	0.000000	0.003288	0.000082	0.000000	0.000000
40.527484	15.017960	18.635319	-1.790986	2.310509	2.510082	0.000000	0.302164	0.000000	0.003344	0.000168	0.000000	0.000000
41.076544	16.780304	16.502973	-1.399555	1.595859	2.655328	0.000000	0.226323	0.000000	0.003406	0.000059	0.000000	0.000000
41.625604	18.055590	15.088776	-0.909251	0.994889	2.757825	0.000000	0.146469	0.000000	0.003408	-0.000051	0.000000	0.000000
42.174664	18.753718	14.291989	-0.354714	0.464790	2.815753	0.000000	0.064016	0.000000	0.003350	-0.000161	0.000000	0.000000
42.723724	18.825369	14.055853	0.224879	-0.032199	2.828085	0.000000	-0.019576	0.000000	0.003232	-0.000268	0.000000	0.000000
43.022297	18.724531	14.060063	0.160679	-0.017665	2.824463	0.000000	-0.012389	0.000000	0.003155	-0.000259	0.000000	0.000000
43.502297	18.582902	14.093413	0.134382	-0.051814	2.818641	0.000000	-0.012389	0.000000	0.003030	-0.000259	0.000000	0.000000
43.982297	18.466517	14.159547	0.108085	-0.085964	2.812819	0.000000	-0.012389	0.000000	0.002906	-0.000259	0.000000	0.000000
44.462297	18.375378	14.258465	0.081789	-0.120114	2.806997	0.000000	-0.012389	0.000000	0.002782	-0.000259	0.000000	0.000000
44.942297	18.309483	14.390166	0.055492	-0.154264	2.801174	0.000000	-0.012389	0.000000	0.002657	-0.000259	0.000000	0.000000
45.423547	18.268986	14.554943	-0.061388	-0.116389	2.795354	0.000000	0.001461	0.000000	0.002532	-0.000247	0.000000	0.000000
45.720870	18.310350	14.630306	-0.124573	-0.099710	2.795862	0.000000	0.008615	0.000000	0.002459	-0.000240	0.000000	0.000000
46.269930	18.138707	15.022573	0.435179	-0.618916	2.778076	0.000000	-0.073842	0.000000	0.002306	-0.000317	0.000000	0.000000
46.818990	17.365674	16.005726	0.964183	-1.182208	2.715346	0.000000	-0.154994	0.000000	0.002112	-0.000389	0.000000	0.000000
47.368050	16.045869	17.649792	1.425070	-1.829709	2.608782	0.000000	-0.233403	0.000000	0.001880	-0.000454	0.000000	0.000000
47.917110	14.272536	20.071872	1.785281	-2.607541	2.460272	0.000000	-0.307680	0.000000	0.001615	-0.000510	0.000000	0.000000
48.363070	12.891838	22.224992	1.321452	-2.200137	2.338612	0.000000	-0.239147	0.000000	0.001396	-0.000471	0.000000	0.000000
48.804030	11.906309	23.948721	0.921786	-1.693952	2.247858	0.000000	-0.173737	0.000000	0.001196	-0.000438	0.000000	0.000000
49.244990	11.253436	25.190201	0.564240	-1.110692	2.185472	0.000000	-0.110301	0.000000	0.001009	-0.000409	0.000000	0.000000
49.685950	10.903384	25.892948	0.232477	-0.476897	2.150746	0.000000	-0.048117	0.000000	0.000834	-0.000386	0.000000	0.000000
50.128160	10.840311	26.024702	-0.062364	0.115267	2.143297	0.000000	0.008300	0.000000	0.000668	-0.000368	0.000000	0.000000
50.425482	10.885582	25.959601	-0.089898	0.103690	2.145874	0.000000	0.008300	0.000000	0.000558	-0.000368	0.000000	0.000000
50.758816	10.955804	25.894800	-0.120767	0.090712	2.148764	0.000000	0.008300	0.000000	0.000436	-0.000368	0.000000	0.000000
51.092149	11.046605	25.838652	-0.151636	0.077733	2.151653	0.000000	0.008300	0.000000	0.000313	-0.000368	0.000000	0.000000
51.426732	11.158215	25.791517	-0.092098	-0.144528	2.154531	0.000000	-0.009179	0.000000	0.000190	-0.000370	0.000000	0.000000
51.724055	11.220970	25.880959	-0.091474	-0.219852	2.151912	0.000000	-0.014452	0.000000	0.000080	-0.000370	0.000000	0.000000
52.165015	11.447907	25.786834	-0.425240	0.432496	2.159329	0.000000	0.047409	0.000000	-0.000083	-0.000370	0.000000	0.000000
52.605975	11.976616	25.123904	-0.778431	1.065165	2.194119	0.000000	0.109813	0.000000	-0.000246	-0.000374	0.000000	0.000000
53.046935	12.831249	23.922336	-1.167184	1.649369	2.256679	0.000000	0.173473	0.000000	-0.000413	-0.000382	0.000000	0.000000
53.487895	14.050848	22.236804	-1.609257	2.158527	2.347725	0.000000	0.239112	0.000000	-0.000584	-0.000395	0.000000	0.000000
53.933855	15.711995	20.118810	-2.129112	2.570799	2.469802	0.000000	0.307877	0.000000	-0.000764	-0.000413	0.000000	0.000000
54.482915	17.850363	17.735322	-1.742671	1.795912	2.618798	0.000000	0.233292	0.000000	-0.000984	-0.000385	0.000000	0.000000
55.031975	19.493862	16.127933	-1.233148	1.148942	2.725625	0.000000	0.154562	0.000000	-0.001185	-0.000349	0.000000	0.000000
55.581035	20.526420	15.182150	-0.636534	0.583807	2.788386	0.000000	0.073086	0.000000	-0.001366	-0.000308	0.000000	0.000000
56.130095	20.875115	14.830604	0.005034	0.060255	2.805965	0.000000	-0.009692	0.000000	-0.001523	-0.000261	0.000000	0.000000
56.428668	20.909373	14.777228	-0.064541	0.079221	2.805368	0.000000	-0.002267	0.000000	-0.001602	-0.000265	0.000000	0.000000
56.762001	20.957737	14.731981	-0.080550	0.056522	2.804700	0.000000	-0.002267	0.000000	-0.001690	-0.000265	0.000000	0.000000
57.095334	21.016773	14.701866	-0.096558	0.033823	2.804033	0.000000	-0.002267	0.000000	-0.001779	-0.000265	0.000000	0.000000
57.429918	21.086763	14.686856	-0.112626	0.011039	2.803363	0.000000	-0.002267	0.000000	-0.001867	-0.000265	0.000000	0.000000
57.727240	21.157983	14.686309	-0.183083	0.029731	2.802768	0.000000	0.005175	0.000000	-0.001946	-0.000270	0.000000	0.000000
58.276300	20.997619	14.935444	0.473290	-0.486170	2.783020	0.000000	-0.077463	0.000000	-0.002077	-0.000205	0.000000	0.000000
58.825360	20.130697	15.766657	1.096231	-1.036697	2.718175	0.000000	-0.158730	0.000000	-0.002171	-0.000136	0.000000	0.000000
59.374420	18.618450	17.239150	1.641744	-1.661060	2.609381	0.000000	-0.237184	0.000000	-0.002226	-0.000065	0.000000	0.000000
59.923480	16.567682	19.457797	2.071303	-2.403729	2.458568	0.000000	-0.311432	0.000000	-0.002242	0.000007	0.000000	0.000000
60.369440	14.961775	21.429632	1.542526	-1.999250	2.335020	0.000000	-0.242986	0.000000	-0.002252	-0.000051	0.000000	0.000000
60.810400	13.806039	22.980781	1.088421	-1.505142	2.242393	0.000000	-0.177699	0.000000	-0.002287	-0.000110	0.000000	0.000000
61.251360	13.027411	24.064205	0.684040	-0.942556	2.178106	0.000000	-0.114434	0.000000	-0.002349	-0.000169	0.000000	0.000000
61.692320	12.590320	24.630612	0.310908	-0.337088	2.141429	0.000000	-0.052470	0.000000	-0.002437	-0.000231	0.000000	0.000000
62.134530	12.474842	24.653677	-0.016794	0.221858	2.131949	0.000000	0.003545	0.000000	-0.002553	-0.000289	0.000000	0.000000
62.431853	12.491916	24.525513	-0.040634	0.209204	2.133089	0.000000	0.003545	0.000000	-0.002639	-0.000289	0.000000	0.000000
62.765186	12.527915	24.390772	-0.067362	0.195018	2.134367	0.000000	0.003545	0.000000	-0.002735	-0.000289	0.000000	0.000000
63.098520	12.581733	24.265489	-0.094090	0.180832	2.135645	0.000000	0.003545	0.000000	-0.002832	-0.000289	0.000000	0.000000
63.433103	12.653671	24.149247	-0.120919	0.166592	2.136928	0.000000	0.003545	0.000000	-0.002928	-0.000289	0.000000	0.000000
63.730426	12.732660	24.053952	-0.112652	0.093186	2.138068	0.000000	-0.001846	0.000000	-0.003014	-0.000281	0.000000	0.000000
64.171386	12.993642	23.706934	-0.481586	0.690813	2.150953	0.000000	0.059723	0.000000	-0.003156	-0.000361	0.000000	0.000000
64.612346	13.588395	22.844781	-0.872515	1.257011	2.191146	0.000000	0.121977	0.000000	-0.003333	-0.000445	0.000000	0.000000
65.053306	14.544084	21.506720	-1.303298	1.766019	2.259106	0.000000	0.185624	0.000000	-0.003549	-0.000533	0.000000	0.000000
65.494266	15.904355	19.753631	-1.793611	2.194681	2.355610	0.000000	0.251391	0.000000	-0.003804	-0.000628	0.000000	0.000000
65.940226	17.754568	17.640480	-2.370464	2.524154	2.483331	0.000000	0.320417	0.000000	-0.004107	-0.000731	0.000000	0.000000
66.489286	20.124781	15.276813	-1.921461	1.806453	2.639205	0.000000	0.245290	0.000000	-0.004471	-0.000592	0.000000	0.000000
67.038346	21.924108	13.626382	-1.336773	1.217407	2.752495	0.000000	0.165804	0.000000	-0.004755	-0.000442	0.000000	0.000000
67.587406	23.025503	12.571638	-0.657692	0.715065	2.821189	0.000000	0.083370	0.000000	-0.004955	-0.000285	0.000000	0.000000
68.136466	23.351202	12.037456	0.067830	0.263649	2.844066	0.000000	-0.000547	0.000000	-0.005067	-0.000123	0.000000	0.000000
68.435038	23.352458	11.868505	-0.008525	0.269456	2.846254	0.000000	0.007195	0.000000	-0.005108	-0.000136	0.000000	0.000000
68.768372	23.362900	11.698909	-0.022800	0.239331	2.848698	0.000000	0.007195	0.000000	-0.005153	-0.000136	0.000000	0.000000
69.101705	23.382858	11.549396	-0.037075	0.209206	2.851142	0.000000	0.007195	0.000000	-0.005198	-0.000136	0.000000	0.000000
69.436288	23.412462	11.419519	-0.051404	0.178969	2.853595	0.000000	0.007195	0.000000	-0.005244	-0.000136	0.000000	0.000000
69.733611	23.446834	11.321076	-0.128073	0.182946	2.855776	0.000000	0.014983	0.000000	-0.005284	-0.000150	0.000000	0.000000
70.282671	23.184820	11.347059	0.602447	-0.230551	2.840838	0.000000	-0.069442	0.000000	-0.005320	0.000022	0.000000	0.000000
