#ParticleID	Turn	x[m]	xp	y[m]	yp	z[m]	dE[GeV]# s	beta_x	beta_y	alpha_x	alpha_y	D_x	D_y	D_px	D_py	orbit_x	orbit_px	orbit_y	orbit_py
0.300000	11.964389	25.300552	-0.018076	-0.022563	2.598607	0.000000	-0.000241	0.000000	-0.001069	0.000918	0.000000	0.000000
0.601250	11.982868	25.317735	-0.043263	-0.034476	2.598258	0.000000	-0.000241	0.000000	-0.000792	0.000918	0.000000	0.000000
0.898573	12.015985	25.341732	-0.038511	-0.108351	2.597913	0.000000	-0.006643	0.000000	-0.000519	0.000919	0.000000	0.000000
1.339533	12.203856	25.156041	-0.388840	0.527856	2.610773	0.000000	0.066785	0.000000	-0.000116	0.000911	0.000000	0.000000
1.780493	12.707334	24.417750	-0.756942	1.140050	2.656148	0.000000	0.140964	0.000000	0.000285	0.000913	0.000000	0.000000
2.221453	13.549431	23.160442	-1.159634	1.700375	2.734551	0.000000	0.216739	0.000000	0.000690	0.000925	0.000000	0.000000
2.662413	14.768632	21.441316	-1.615316	2.183336	2.846872	0.000000	0.294972	0.000000	0.001103	0.000948	0.000000	0.000000
3.108373	16.441714	19.313392	-2.149183	2.568133	2.996227	0.000000	0.377046	0.000000	0.001533	0.000983	0.000000	0.000000
3.657433	18.586285	16.923015	-1.733008	1.811031	3.177713	0.000000	0.284868	0.000000	0.002057	0.000924	0.000000	0.000000
4.206493	20.203504	15.288745	-1.194394	1.182928	3.307163	0.000000	0.187651	0.000000	0.002545	0.000850	0.000000	0.000000
4.755553	21.179100	14.294183	-0.571386	0.639084	3.382288	0.000000	0.087119	0.000000	0.002988	0.000760	0.000000	0.000000
5.304613	21.444129	13.868495	0.092002	0.140761	3.401760	0.000000	-0.014946	0.000000	0.003378	0.000657	0.000000	0.000000
5.603185	21.425850	13.770129	0.023628	0.153636	3.399676	0.000000	-0.006312	0.000000	0.003576	0.000666	0.000000	0.000000
5.936519	21.415286	13.675965	0.008062	0.128858	3.397350	0.000000	-0.006312	0.000000	0.003798	0.000666	0.000000	0.000000
6.269852	21.415100	13.598319	-0.007504	0.104080	3.395024	0.000000	-0.006312	0.000000	0.004020	0.000666	0.000000	0.000000
6.604435	21.425349	13.536994	-0.023129	0.079208	3.392690	0.000000	-0.006312	0.000000	0.004243	0.000666	0.000000	0.000000
6.901758	21.443243	13.496456	-0.090929	0.091174	3.390616	0.000000	0.002213	0.000000	0.004441	0.000677	0.000000	0.000000
7.450818	21.177480	13.658165	0.572432	-0.387413	3.363586	0.000000	-0.099372	0.000000	0.004772	0.000528	0.000000	0.000000
7.999878	20.201153	14.357439	1.195362	-0.893600	3.281261	0.000000	-0.199187	0.000000	0.005019	0.000369	0.000000	0.000000
8.548938	18.583233	15.644097	1.733847	-1.463447	3.145104	0.000000	-0.295462	0.000000	0.005177	0.000204	0.000000	0.000000
9.097998	16.438029	17.609803	2.149839	-2.137549	2.957534	0.000000	-0.386492	0.000000	0.005243	0.000035	0.000000	0.000000
9.543958	14.764537	19.361092	1.615847	-1.772571	2.803274	0.000000	-0.305460	0.000000	0.005289	0.000172	0.000000	0.000000
9.984918	13.545011	20.733780	1.160150	-1.328299	2.685568	0.000000	-0.228409	0.000000	0.005395	0.000310	0.000000	0.000000
10.425878	12.702611	21.686373	0.757468	-0.823581	2.601175	0.000000	-0.153963	0.000000	0.005562	0.000451	0.000000	0.000000
10.866838	12.198842	22.175520	0.389396	-0.281383	2.549133	0.000000	-0.081275	0.000000	0.005793	0.000597	0.000000	0.000000
11.309048	12.010532	22.178377	0.066743	0.222120	2.528827	0.000000	-0.015359	0.000000	0.006091	0.000736	0.000000	0.000000
11.606371	11.978237	22.050476	0.041877	0.208052	2.524042	0.000000	-0.015359	0.000000	0.006310	0.000736	0.000000	0.000000
12.086371	11.957303	21.861647	0.001734	0.185342	2.516316	0.000000	-0.015359	0.000000	0.006663	0.000736	0.000000	0.000000
12.566371	11.974907	21.694620	-0.038409	0.162631	2.508591	0.000000	-0.015359	0.000000	0.007016	0.000736	0.000000	0.000000
13.046371	12.031047	21.549395	-0.078552	0.139921	2.500865	0.000000	-0.015359	0.000000	0.007370	0.000736	0.000000	0.000000
13.526371	12.125726	21.425971	-0.118695	0.117210	2.493139	0.000000	-0.015359	0.000000	0.007723	0.000736	0.000000	0.000000
14.007621	12.259338	21.324114	-0.158942	0.094441	2.485394	0.000000	-0.015359	0.000000	0.008077	0.000736	0.000000	0.000000
14.304943	12.361221	21.272181	-0.155925	0.032602	2.480606	0.000000	-0.020954	0.000000	0.008296	0.000716	0.000000	0.000000
14.745903	12.657343	21.010736	-0.517788	0.557969	2.486517	0.000000	0.049376	0.000000	0.008660	0.000935	0.000000	0.000000
15.186863	13.281878	20.295369	-0.903322	1.057945	2.523442	0.000000	0.120260	0.000000	0.009122	0.001164	0.000000	0.000000
15.627823	14.263383	19.158628	-1.330153	1.509776	2.591798	0.000000	0.192500	0.000000	0.009688	0.001407	0.000000	0.000000
16.068783	15.646744	17.652235	-1.817794	1.892898	2.692358	0.000000	0.266919	0.000000	0.010365	0.001665	0.000000	0.000000
16.514743	17.518863	15.823081	-2.393497	2.190834	2.827956	0.000000	0.344856	0.000000	0.011170	0.001945	0.000000	0.000000
17.063803	19.922742	13.781436	-1.957060	1.548930	2.992905	0.000000	0.258370	0.000000	0.012135	0.001567	0.000000	0.000000
17.612863	21.767948	12.380395	-1.382280	1.017385	3.109246	0.000000	0.167324	0.000000	0.012886	0.001162	0.000000	0.000000
18.161923	22.924014	11.520151	-0.709784	0.558327	3.174923	0.000000	0.073329	0.000000	0.013407	0.000736	0.000000	0.000000
18.710983	23.309192	11.139423	0.012893	0.139051	3.188779	0.000000	-0.021956	0.000000	0.013691	0.000296	0.000000	0.000000
19.009556	23.337241	11.049386	-0.053602	0.137118	3.184308	0.000000	-0.014614	0.000000	0.013789	0.000330	0.000000	0.000000
19.342889	23.377750	10.968219	-0.067926	0.106383	3.179327	0.000000	-0.014614	0.000000	0.013900	0.000330	0.000000	0.000000
19.676223	23.427809	10.907542	-0.082251	0.075648	3.174345	0.000000	-0.014614	0.000000	0.014010	0.000330	0.000000	0.000000
20.010806	23.487950	10.867108	-0.213001	0.098640	3.169365	0.000000	0.001089	0.000000	0.014120	0.000400	0.000000	0.000000
20.308129	23.618685	10.816601	-0.280299	0.095846	3.169579	0.000000	0.008344	0.000000	0.014239	0.000435	0.000000	0.000000
20.857189	23.519348	10.931077	0.460250	-0.305529	3.148063	0.000000	-0.086196	0.000000	0.014351	-0.000028	0.000000	0.000000
21.406249	22.619587	11.495698	1.168269	-0.728674	3.075217	0.000000	-0.179207	0.000000	0.014208	-0.000491	0.000000	0.000000
21.955309	20.983019	12.550693	1.793707	-1.203741	2.952330	0.000000	-0.269047	0.000000	0.013813	-0.000945	0.000000	0.000000
22.504369	18.725356	14.171224	2.292351	-1.764578	2.781579	0.000000	-0.354127	0.000000	0.013173	-0.001382	0.000000	0.000000
22.950329	16.948212	15.627088	1.705120	-1.485459	2.641314	0.000000	-0.277442	0.000000	0.012631	-0.001048	0.000000	0.000000
23.391289	15.671244	16.789361	1.200821	-1.139819	2.535535	0.000000	-0.204401	0.000000	0.012240	-0.000727	0.000000	0.000000
23.832249	14.813381	17.622616	0.751419	-0.742301	2.461295	0.000000	-0.133682	0.000000	0.011989	-0.000415	0.000000	0.000000
24.273209	14.335394	18.088933	0.336370	-0.310999	2.417749	0.000000	-0.064480	0.000000	0.011874	-0.000107	0.000000	0.000000
24.715418	14.215566	18.166779	-0.032571	0.094953	2.404405	0.000000	-0.001225	0.000000	0.011895	0.000172	0.000000	0.000000
25.012741	14.241159	18.115225	-0.053509	0.078439	2.403990	0.000000	-0.001225	0.000000	0.011946	0.000172	0.000000	0.000000
25.346075	14.284656	18.069104	-0.076982	0.059925	2.403524	0.000000	-0.001225	0.000000	0.012003	0.000172	0.000000	0.000000
25.679408	14.343802	18.035325	-0.100455	0.041411	2.403058	0.000000	-0.001225	0.000000	0.012061	0.000172	0.000000	0.000000
26.013991	14.418614	18.014196	-0.007044	-0.123312	2.402566	0.000000	-0.020717	0.000000	0.012118	0.000074	0.000000	0.000000
26.311314	14.428872	18.092583	0.003528	-0.179170	2.396380	0.000000	-0.025897	0.000000	0.012140	0.000046	0.000000	0.000000
26.752274	14.604195	18.054606	-0.402479	0.264951	2.399893	0.000000	0.042237	0.000000	0.012229	0.000360	0.000000	0.000000
27.193234	15.144439	17.628722	-0.826887	0.697014	2.433399	0.000000	0.110849	0.000000	0.012458	0.000678	0.000000	0.000000
27.634194	16.074309	16.834311	-1.289100	1.097354	2.497277	0.000000	0.180717	0.000000	0.012829	0.001004	0.000000	0.000000
28.075154	17.436335	15.707523	-1.810252	1.447749	2.592251	0.000000	0.252633	0.000000	0.013345	0.001342	0.000000	0.000000
28.521114	19.316775	14.282461	-2.419370	1.733427	2.721017	0.000000	0.327898	0.000000	0.014022	0.001697	0.000000	0.000000
29.070174	21.708205	12.695511	-1.908566	1.173340	2.877787	0.000000	0.245004	0.000000	0.014827	0.001229	0.000000	0.000000
29.619234	23.460603	11.674468	-1.262837	0.696858	2.988031	0.000000	0.157783	0.000000	0.015369	0.000740	0.000000	0.000000
30.168294	24.450051	11.146588	-0.527833	0.270030	3.049801	0.000000	0.067774	0.000000	0.015637	0.000237	0.000000	0.000000
30.717354	24.606581	11.074263	0.244486	-0.137556	3.062003	0.000000	-0.023434	0.000000	0.015629	-0.000269	0.000000	0.000000
31.015927	24.497316	11.149687	0.176399	-0.139825	3.057127	0.000000	-0.016525	0.000000	0.015560	-0.000231	0.000000	0.000000
31.349260	24.384394	11.253064	0.162368	-0.170306	3.051695	0.000000	-0.016525	0.000000	0.015483	-0.000231	0.000000	0.000000
31.682593	24.280825	11.376762	0.148338	-0.200787	3.046264	0.000000	-0.016525	0.000000	0.015406	-0.000231	0.000000	0.000000
32.017177	24.186274	11.521358	0.134255	-0.231382	3.040812	0.000000	-0.016525	0.000000	0.015328	-0.000231	0.000000	0.000000
32.314499	24.110326	11.666952	0.067124	-0.232175	3.035978	0.000000	-0.009648	0.000000	0.015260	-0.000194	0.000000	0.000000
32.863559	23.623765	12.160230	0.813307	-0.671340	3.006132	0.000000	-0.099725	0.000000	0.015018	-0.000684	0.000000	0.000000
33.412619	22.344348	13.159148	1.501989	-1.158341	2.927485	0.000000	-0.188044	0.000000	0.014510	-0.001163	0.000000	0.000000
33.961679	20.362550	14.734872	2.084486	-1.727878	2.801425	0.000000	-0.273045	0.000000	0.013744	-0.001621	0.000000	0.000000
34.510739	17.818508	16.999657	2.519624	-2.420528	2.630179	0.000000	-0.353227	0.000000	0.012735	-0.002050	0.000000	0.000000
34.956699	15.842063	19.025906	1.926230	-2.103121	2.489732	0.000000	-0.280481	0.000000	0.011893	-0.001730	0.000000	0.000000
35.397659	14.368867	20.705643	1.426089	-1.691021	2.382044	0.000000	-0.211376	0.000000	0.011196	-0.001433	0.000000	0.000000
35.838619	13.306601	21.986406	0.991146	-1.201960	2.304156	0.000000	-0.144665	0.000000	0.010627	-0.001151	0.000000	0.000000
36.279579	12.606686	22.809919	0.601517	-0.658198	2.255186	0.000000	-0.079589	0.000000	0.010178	-0.000883	0.000000	0.000000
36.721789	12.236480	23.138983	0.266420	-0.135660	2.234557	0.000000	-0.020367	0.000000	0.009845	-0.000648	0.000000	0.000000
37.019112	12.085792	23.223543	0.240398	-0.148746	2.228694	0.000000	-0.020367	0.000000	0.009653	-0.000648	0.000000	0.000000
37.352445	11.935251	23.327597	0.211223	-0.163416	2.222121	0.000000	-0.020367	0.000000	0.009437	-0.000648	0.000000	0.000000
37.685779	11.804161	23.441431	0.182049	-0.178087	2.215548	0.000000	-0.020367	0.000000	0.009221	-0.000648	0.000000	0.000000
38.020362	11.692138	23.565528	0.152765	-0.192813	2.208951	0.000000	-0.020367	0.000000	0.009004	-0.000648	0.000000	0.000000
38.317684	11.609007	23.684129	0.152786	-0.259251	2.203085	0.000000	-0.025309	0.000000	0.008811	-0.000669	0.000000	0.000000
38.758644	11.622995	23.650320	-0.184807	0.335621	2.206081	0.000000	0.037828	0.000000	0.008566	-0.000445	0.000000	0.000000
39.199604	11.937363	23.096575	-0.530843	0.915218	2.236895	0.000000	0.101401	0.000000	0.008418	-0.000226	0.000000	0.000000
39.640564	12.566480	22.048098	-0.901139	1.453162	2.295882	0.000000	0.166132	0.000000	0.008366	-0.000009	0.000000	0.000000
40.081524	13.539102	20.552605	-1.312621	1.924973	2.383713	0.000000	0.232755	0.000000	0.008410	0.000207	0.000000	0.000000
40.527484	14.917265	18.655411	-1.788057	2.310692	2.502875	0.000000	0.302460	0.000000	0.008551	0.000427	0.000000	0.000000
41.076544	16.678703	16.522991	-1.400520	1.595522	2.648263	0.000000	0.226838	0.000000	0.008709	0.000147	0.000000	0.000000
41.625604	17.957253	15.109343	-0.914018	0.994026	2.751107	0.000000	0.147194	0.000000	0.008713	-0.000135	0.000000	0.000000
42.174664	18.662560	14.313755	-0.362933	0.463350	2.809581	0.000000	0.064936	0.000000	0.008561	-0.000415	0.000000	0.000000
42.723724	18.744783	14.079543	0.213789	-0.034313	2.822646	0.000000	-0.018481	0.000000	0.008258	-0.000687	0.000000	0.000000
43.022297	18.649149	14.085894	0.151900	-0.021193	2.819371	0.000000	-0.011627	0.000000	0.008059	-0.000667	0.000000	0.000000
43.502297	18.515965	14.122604	0.125567	-0.055285	2.814110	0.000000	-0.011627	0.000000	0.007739	-0.000667	0.000000	0.000000
43.982297	18.408059	14.192041	0.099235	-0.089377	2.808848	0.000000	-0.011627	0.000000	0.007419	-0.000667	0.000000	0.000000
44.462297	18.325433	14.294207	0.072903	-0.123469	2.803587	0.000000	-0.011627	0.000000	0.007099	-0.000667	0.000000	0.000000
44.942297	18.268086	14.429101	0.046570	-0.157561	2.798326	0.000000	-0.011627	0.000000	0.006779	-0.000667	0.000000	0.000000
45.423547	18.236193	14.597022	-0.070183	-0.119419	2.793068	0.000000	0.002211	0.000000	0.006459	-0.000635	0.000000	0.000000
45.720870	18.282820	14.674159	-0.131787	-0.103916	2.793916	0.000000	0.009121	0.000000	0.006270	-0.000619	0.000000	0.000000
46.269930	18.119380	15.071872	0.427297	-0.624649	2.776651	0.000000	-0.073290	0.000000	0.005876	-0.000815	0.000000	0.000000
46.818990	17.354929	16.062389	0.956176	-1.189878	2.714522	0.000000	-0.154415	0.000000	0.005377	-0.000998	0.000000	0.000000
47.368050	16.043502	17.716260	1.417483	-1.839868	2.608622	0.000000	-0.232817	0.000000	0.004783	-0.001162	0.000000	0.000000
47.917110	14.277783	20.151282	1.778626	-2.620919	2.460824	0.000000	-0.307107	0.000000	0.004105	-0.001306	0.000000	0.000000
48.363070	12.902622	22.315737	1.315238	-2.211919	2.339752	0.000000	-0.238543	0.000000	0.003545	-0.001207	0.000000	0.000000
48.804030	11.922323	24.049034	0.915775	-1.703670	2.249572	0.000000	-0.173094	0.000000	0.003031	-0.001122	0.000000	0.000000
49.244990	11.274647	25.298038	0.558165	-1.117902	2.187762	0.000000	-0.109604	0.000000	0.002553	-0.001050	0.000000	0.000000
49.685950	10.929985	26.005927	0.226067	-0.481271	2.153623	0.000000	-0.047352	0.000000	0.002103	-0.000990	0.000000	0.000000
50.128160	10.872755	26.140214	-0.069574	0.114474	2.146784	0.000000	0.009192	0.000000	0.001676	-0.000946	0.000000	0.000000
50.425482	10.922296	26.075569	-0.097052	0.102950	2.149798	0.000000	0.009192	0.000000	0.001395	-0.000946	0.000000	0.000000
50.758816	10.997266	26.011241	-0.127858	0.090032	2.153177	0.000000	0.009192	0.000000	0.001080	-0.000946	0.000000	0.000000
51.092149	11.092774	25.955526	-0.158664	0.077113	2.156556	0.000000	0.009192	0.000000	0.000765	-0.000946	0.000000	0.000000
51.426732	11.209065	25.908789	-0.098650	-0.146039	2.159926	0.000000	-0.008331	0.000000	0.000448	-0.000949	0.000000	0.000000
51.724055	11.275690	25.999116	-0.097826	-0.221770	2.157731	0.000000	-0.013614	0.000000	0.000166	-0.000950	0.000000	0.000000
52.165015	11.508748	25.905295	-0.433012	0.433725	2.165800	0.000000	0.048405	0.000000	-0.000253	-0.000951	0.000000	0.000000
52.605975	12.044976	25.239913	-0.787974	1.069482	2.201317	0.000000	0.110986	0.000000	-0.000674	-0.000963	0.000000	0.000000
53.046935	12.908861	24.033254	-1.178928	1.656575	2.264691	0.000000	0.174841	0.000000	-0.001103	-0.000986	0.000000	0.000000
53.487895	14.139861	22.340228	-1.623734	2.168295	2.356647	0.000000	0.240698	0.000000	-0.001545	-0.001020	0.000000	0.000000
53.933855	15.815246	20.212566	-2.146977	2.582664	2.479758	0.000000	0.309702	0.000000	-0.002010	-0.001066	0.000000	0.000000
54.482915	17.971739	17.817989	-1.758002	1.804449	2.629996	0.000000	0.234779	0.000000	-0.002576	-0.000992	0.000000	0.000000
55.031975	19.629973	16.202806	-1.244882	1.154757	2.737843	0.000000	0.155676	0.000000	-0.003096	-0.000900	0.000000	0.000000
55.581035	20.672862	15.251963	-0.643860	0.587312	2.801377	0.000000	0.073797	0.000000	-0.003561	-0.000792	0.000000	0.000000
56.130095	21.026779	14.897727	0.002618	0.061700	2.819466	0.000000	-0.009404	0.000000	-0.003963	-0.000670	0.000000	0.000000
56.428668	21.063343	14.842844	-0.068369	0.081795	2.819133	0.000000	-0.001795	0.000000	-0.004166	-0.000681	0.000000	0.000000
56.762001	21.114222	14.795850	-0.084268	0.059187	2.818761	0.000000	-0.001795	0.000000	-0.004393	-0.000681	0.000000	0.000000
57.095334	21.175701	14.763927	-0.100167	0.036580	2.818390	0.000000	-0.001795	0.000000	-0.004620	-0.000681	0.000000	0.000000
57.429918	21.248069	14.747042	-0.116126	0.013887	2.818017	0.000000	-0.001795	0.000000	-0.004848	-0.000681	0.000000	0.000000
57.727240	21.321355	14.744769	-0.188340	0.033711	2.817687	0.000000	0.005874	0.000000	-0.005050	-0.000694	0.000000	0.000000
58.276300	21.163642	14.990421	0.473532	-0.483791	2.798388	0.000000	-0.077246	0.000000	-0.005385	-0.000525	0.000000	0.000000
58.825360	20.293382	15.819777	1.101953	-1.035744	2.733670	0.000000	-0.159005	0.000000	-0.005625	-0.000347	0.000000	0.000000
59.374420	18.772036	17.291894	1.652549	-1.661458	2.624677	0.000000	-0.237949	0.000000	-0.005765	-0.000162	0.000000	0.000000
59.923480	16.707035	19.511609	2.086442	-2.405493	2.473340	0.000000	-0.312677	0.000000	-0.005802	0.000025	0.000000	0.000000
60.369440	15.089332	21.484290	1.553990	-1.999467	2.349332	0.000000	-0.243872	0.000000	-0.005825	-0.000126	0.000000	0.000000
60.810400	13.924972	23.034832	1.096674	-1.503735	2.256450	0.000000	-0.178225	0.000000	-0.005913	-0.000277	0.000000	0.000000
61.251360	13.140344	24.116267	0.689453	-0.939597	2.192105	0.000000	-0.114604	0.000000	-0.006069	-0.000431	0.000000	0.000000
61.692320	12.699610	24.679399	0.313726	-0.332717	2.155566	0.000000	-0.052284	0.000000	-0.006295	-0.000591	0.000000	0.000000
62.134530	12.582690	24.698023	-0.015019	0.225236	2.146426	0.000000	0.003860	0.000000	-0.006592	-0.000740	0.000000	0.000000
62.431853	12.598648	24.567848	-0.038654	0.212587	2.147793	0.000000	0.003860	0.000000	-0.006812	-0.000740	0.000000	0.000000
62.765186	12.633250	24.430850	-0.065151	0.198406	2.149327	0.000000	0.003860	0.000000	-0.007059	-0.000740	0.000000	0.000000
63.098520	12.685517	24.303307	-0.091649	0.184225	2.150860	0.000000	0.003860	0.000000	-0.007306	-0.000740	0.000000	0.000000
63.433103	12.755744	24.184792	-0.118245	0.169991	2.152400	0.000000	0.003860	0.000000	-0.007553	-0.000740	0.000000	0.000000
63.730426	12.833062	24.087511	-0.108146	0.093767	2.153766	0.000000	-0.001801	0.000000	-0.007773	-0.000720	0.000000	0.000000
64.171386	13.090928	23.739635	-0.479225	0.692226	2.166972	0.000000	0.060169	0.000000	-0.008136	-0.000925	0.000000	0.000000
64.612346	13.684350	22.875954	-0.872183	1.259194	2.207718	0.000000	0.122835	0.000000	-0.008591	-0.001141	0.000000	0.000000
65.053306	14.640416	21.535764	-1.304963	1.768879	2.276472	0.000000	0.186911	0.000000	-0.009144	-0.001370	0.000000	0.000000
65.494266	16.002769	19.780041	-1.797328	2.198098	2.374022	0.000000	0.253130	0.000000	-0.009801	-0.001614	0.000000	0.000000
65.940226	17.856960	17.663752	-2.376226	2.527865	2.503080	0.000000	0.322618	0.000000	-0.010579	-0.001878	0.000000	0.000000
66.489286	20.230964	15.296720	-1.923537	1.809315	2.660522	0.000000	0.246845	0.000000	-0.011513	-0.001520	0.000000	0.000000
67.038346	22.030045	13.643697	-1.335077	1.219604	2.774895	0.000000	0.166670	0.000000	-0.012243	-0.001135	0.000000	0.000000
67.587406	23.127250	12.586955	-0.652389	0.716737	2.844162	0.000000	0.083521	0.000000	-0.012756	-0.000730	0.000000	0.000000
68.136466	23.445167	12.051235	0.076340	0.264906	2.867088	0.000000	-0.001120	0.000000	-0.013043	-0.000313	0.000000	0.000000
68.435038	23.443708	11.880352	-0.004120	0.272767	2.869323	0.000000	0.007161	0.000000	-0.013147	-0.000348	0.000000	0.000000
68.768372	23.451194	11.708555	-0.018339	0.242622	2.871827	0.000000	0.007161	0.000000	-0.013263	-0.000348	0.000000	0.000000
69.101705	23.468159	11.556856	-0.032557	0.212477	2.874330	0.000000	0.007161	0.000000	-0.013379	-0.000348	0.000000	0.000000
69.436288	23.494721	11.424797	-0.046829	0.182219	2.876843	0.000000	0.007161	0.000000	-0.013496	-0.000348	0.000000	0.000000
69.733611	23.526466	11.324375	-0.127731	0.188109	2.879083	0.000000	0.015510	0.000000	-0.013599	-0.000386	0.000000	0.000000
70.282671	23.262721	11.344694	0.605229	-0.225342	2.864288	0.000000	-0.069650	0.000000	-0.013690	0.000056	0.000000	0.000000
