#ParticleID	Turn	x[m]	xp	y[m]	yp	z[m]	dE[GeV]# s	beta_x	beta_y	alpha_x	alpha_y	D_x	D_y	D_px	D_py	orbit_x	orbit_px	orbit_y	orbit_py
0.300000	11.933896	25.129939	-0.012366	-0.026425	2.603364	0.000000	-0.001937	0.000000	-0.001268	0.001065	0.000000	0.000000
0.601250	11.948952	25.149474	-0.037613	-0.038421	2.602460	0.000000	-0.001937	0.000000	-0.000947	0.001065	0.000000	0.000000
0.898573	11.978727	25.175842	-0.032981	-0.111983	2.601567	0.000000	-0.008355	0.000000	-0.000631	0.001066	0.000000	0.000000
1.339533	12.161323	24.995274	-0.382315	0.519914	2.613629	0.000000	0.065156	0.000000	-0.000163	0.001056	0.000000	0.000000
1.780493	12.658523	24.265763	-0.749125	1.128159	2.658239	0.000000	0.139399	0.000000	0.000302	0.001058	0.000000	0.000000
2.221453	13.493053	23.020489	-1.150169	1.685078	2.735900	0.000000	0.215218	0.000000	0.000772	0.001072	0.000000	0.000000
2.662413	14.703052	21.316102	-1.603772	2.165329	2.847494	0.000000	0.293477	0.000000	0.001249	0.001098	0.000000	0.000000
3.108373	16.364742	19.205146	-2.135015	2.548238	2.996121	0.000000	0.375558	0.000000	0.001747	0.001137	0.000000	0.000000
3.657433	18.494714	16.834006	-1.720656	1.795670	3.176715	0.000000	0.283397	0.000000	0.002354	0.001070	0.000000	0.000000
4.206493	20.099820	15.214621	-1.184726	1.171006	3.305296	0.000000	0.186225	0.000000	0.002919	0.000985	0.000000	0.000000
4.755553	21.066641	14.231654	-0.565083	0.629752	3.379589	0.000000	0.085765	0.000000	0.003432	0.000882	0.000000	0.000000
5.304613	21.326848	13.815099	0.094500	0.133355	3.398285	0.000000	-0.016201	0.000000	0.003885	0.000763	0.000000	0.000000
5.603185	21.306776	13.721353	0.026585	0.145890	3.395780	0.000000	-0.007614	0.000000	0.004116	0.000773	0.000000	0.000000
5.936519	21.294271	13.632363	0.010930	0.121080	3.392984	0.000000	-0.007614	0.000000	0.004373	0.000773	0.000000	0.000000
6.269852	21.292203	13.559913	-0.004726	0.096270	3.390189	0.000000	-0.007614	0.000000	0.004631	0.000773	0.000000	0.000000
6.604435	21.300624	13.503825	-0.020440	0.071367	3.387382	0.000000	-0.007614	0.000000	0.004890	0.000773	0.000000	0.000000
6.901758	21.316947	13.467956	-0.087677	0.083049	3.384890	0.000000	0.000845	0.000000	0.005120	0.000786	0.000000	0.000000
7.450818	21.049982	13.638207	0.571408	-0.394932	3.357110	0.000000	-0.100545	0.000000	0.005505	0.000614	0.000000	0.000000
7.999878	20.077120	14.345660	1.190135	-0.901050	3.274160	0.000000	-0.200141	0.000000	0.005793	0.000431	0.000000	0.000000
8.548938	18.467088	15.640720	1.724785	-1.471361	3.137516	0.000000	-0.296180	0.000000	0.005977	0.000241	0.000000	0.000000
9.097998	16.333644	17.615650	2.137578	-2.146492	2.949605	0.000000	-0.386961	0.000000	0.006056	0.000046	0.000000	0.000000
9.543958	14.669748	19.375210	1.606471	-1.782045	2.795079	0.000000	-0.306134	0.000000	0.006111	0.000203	0.000000	0.000000
9.984918	13.457374	20.756352	1.153229	-1.337883	2.677009	0.000000	-0.229297	0.000000	0.006236	0.000363	0.000000	0.000000
10.425878	12.620115	21.717295	0.752686	-0.832835	2.592147	0.000000	-0.155076	0.000000	0.006432	0.000526	0.000000	0.000000
10.866838	12.119710	22.214308	0.386537	-0.289886	2.539525	0.000000	-0.082627	0.000000	0.006701	0.000695	0.000000	0.000000
11.309048	11.933147	22.224198	0.065222	0.215123	2.518518	0.000000	-0.016884	0.000000	0.007047	0.000856	0.000000	0.000000
11.606371	11.901802	22.100438	0.040200	0.201125	2.513244	0.000000	-0.016884	0.000000	0.007302	0.000856	0.000000	0.000000
12.086371	11.882600	21.918204	-0.000195	0.178528	2.504729	0.000000	-0.016884	0.000000	0.007712	0.000856	0.000000	0.000000
12.566371	11.902177	21.757665	-0.040590	0.155930	2.496214	0.000000	-0.016884	0.000000	0.008123	0.000856	0.000000	0.000000
13.046371	11.960533	21.618819	-0.080985	0.133332	2.487698	0.000000	-0.016884	0.000000	0.008534	0.000856	0.000000	0.000000
13.526371	12.057669	21.501666	-0.121381	0.110735	2.479183	0.000000	-0.016884	0.000000	0.008944	0.000856	0.000000	0.000000
14.007621	12.193989	21.405987	-0.161881	0.088078	2.470646	0.000000	-0.016884	0.000000	0.009356	0.000856	0.000000	0.000000
14.304943	12.297657	21.357832	-0.159557	0.026833	2.465368	0.000000	-0.022366	0.000000	0.009611	0.000833	0.000000	0.000000
14.745903	12.596416	21.100413	-0.520095	0.554632	2.470512	0.000000	0.047564	0.000000	0.010034	0.001086	0.000000	0.000000
15.186863	13.222482	20.386842	-0.904413	1.057191	2.506474	0.000000	0.118025	0.000000	0.010571	0.001352	0.000000	0.000000
15.627823	14.204491	19.249585	-1.330081	1.511639	2.573659	0.000000	0.189815	0.000000	0.011228	0.001633	0.000000	0.000000
16.068783	15.587357	17.740387	-1.816562	1.897290	2.672828	0.000000	0.263752	0.000000	0.012014	0.001933	0.000000	0.000000
16.514743	17.457997	15.906157	-2.391084	2.197612	2.806780	0.000000	0.341167	0.000000	0.012948	0.002257	0.000000	0.000000
17.063803	19.860668	13.858400	-1.957014	1.553248	2.969752	0.000000	0.255394	0.000000	0.014068	0.001819	0.000000	0.000000
17.612863	21.707250	12.453777	-1.384589	1.019555	3.084555	0.000000	0.165119	0.000000	0.014939	0.001349	0.000000	0.000000
18.161923	22.867160	11.592224	-0.714271	0.558508	3.149164	0.000000	0.071935	0.000000	0.015545	0.000855	0.000000	0.000000
18.710983	23.258363	11.212365	0.006552	0.137257	3.162440	0.000000	-0.022512	0.000000	0.015876	0.000346	0.000000	0.000000
19.009556	23.289379	11.123611	-0.058661	0.135104	3.157717	0.000000	-0.015394	0.000000	0.015990	0.000384	0.000000	0.000000
19.342889	23.333273	11.043713	-0.073023	0.104590	3.152457	0.000000	-0.015394	0.000000	0.016118	0.000384	0.000000	0.000000
19.676223	23.386743	10.984157	-0.087385	0.074077	3.147198	0.000000	-0.015394	0.000000	0.016246	0.000384	0.000000	0.000000
20.010806	23.450331	10.944699	-0.217987	0.097676	3.141938	0.000000	0.000173	0.000000	0.016375	0.000465	0.000000	0.000000
20.308129	23.584094	10.894683	-0.283983	0.094687	3.141864	0.000000	0.007196	0.000000	0.016514	0.000505	0.000000	0.000000
20.857189	23.489395	11.011640	0.455555	-0.308907	3.119945	0.000000	-0.086446	0.000000	0.016644	-0.000032	0.000000	0.000000
21.406249	22.595154	11.581313	1.162891	-0.734515	3.047228	0.000000	-0.178555	0.000000	0.016479	-0.000569	0.000000	0.000000
21.955309	20.964608	12.644291	1.788016	-1.212463	2.925001	0.000000	-0.267504	0.000000	0.016021	-0.001095	0.000000	0.000000
22.504369	18.713062	14.276311	2.286735	-1.776807	2.755428	0.000000	-0.351723	0.000000	0.015279	-0.001602	0.000000	0.000000
22.950329	16.940474	15.742016	1.700145	-1.495021	2.616163	0.000000	-0.275695	0.000000	0.014652	-0.001214	0.000000	0.000000
23.391289	15.667611	16.911440	1.196306	-1.146335	2.511071	0.000000	-0.203290	0.000000	0.014199	-0.000842	0.000000	0.000000
23.832249	14.813561	17.749008	0.747164	-0.745473	2.437220	0.000000	-0.133193	0.000000	0.013907	-0.000480	0.000000	0.000000
24.273209	14.339263	18.216602	0.332184	-0.310680	2.393769	0.000000	-0.064608	0.000000	0.013775	-0.000123	0.000000	0.000000
24.715418	14.223197	18.292590	-0.037532	0.099330	2.380231	0.000000	-0.001806	0.000000	0.013799	0.000201	0.000000	0.000000
25.012741	14.251740	18.238403	-0.058465	0.082916	2.379634	0.000000	-0.001806	0.000000	0.013859	0.000201	0.000000	0.000000
25.346075	14.298540	18.189260	-0.081934	0.064514	2.378965	0.000000	-0.001806	0.000000	0.013926	0.000201	0.000000	0.000000
25.679408	14.360985	18.152385	-0.105403	0.046112	2.378296	0.000000	-0.001806	0.000000	0.013993	0.000201	0.000000	0.000000
26.013991	14.439107	18.128076	-0.011821	-0.119423	2.377601	0.000000	-0.021094	0.000000	0.014060	0.000087	0.000000	0.000000
26.311314	14.452175	18.204142	-0.001868	-0.174521	2.371296	0.000000	-0.026106	0.000000	0.014086	0.000055	0.000000	0.000000
26.752274	14.632560	18.160734	-0.408577	0.272566	2.374561	0.000000	0.041381	0.000000	0.014191	0.000419	0.000000	0.000000
27.193234	15.178625	17.726936	-0.833968	0.707248	2.407509	0.000000	0.109336	0.000000	0.014457	0.000789	0.000000	0.000000
27.634194	16.115348	16.922486	-1.297491	1.109740	2.470515	0.000000	0.178529	0.000000	0.014888	0.001167	0.000000	0.000000
28.075154	17.485577	15.783994	-1.820344	1.461720	2.564293	0.000000	0.249743	0.000000	0.015488	0.001559	0.000000	0.000000
28.521114	19.376170	14.345883	-2.431705	1.748396	2.691509	0.000000	0.324272	0.000000	0.016275	0.001971	0.000000	0.000000
29.070174	21.780676	12.744111	-1.919608	1.185425	2.846434	0.000000	0.242358	0.000000	0.017210	0.001428	0.000000	0.000000
29.619234	23.544240	11.710937	-1.271787	0.706926	2.955426	0.000000	0.156167	0.000000	0.017839	0.000860	0.000000	0.000000
30.168294	24.542131	11.172753	-0.534044	0.278802	3.016558	0.000000	0.067218	0.000000	0.018152	0.000277	0.000000	0.000000
30.717354	24.703772	11.091213	0.241456	-0.129455	3.028750	0.000000	-0.022919	0.000000	0.018142	-0.000311	0.000000	0.000000
31.015927	24.595483	11.162171	0.174689	-0.132258	3.023958	0.000000	-0.016267	0.000000	0.018062	-0.000267	0.000000	0.000000
31.349260	24.483679	11.260471	0.160723	-0.162643	3.018625	0.000000	-0.016267	0.000000	0.017973	-0.000267	0.000000	0.000000
31.682593	24.381185	11.379028	0.146757	-0.193028	3.013292	0.000000	-0.016267	0.000000	0.017884	-0.000267	0.000000	0.000000
32.017177	24.287671	11.518401	0.132738	-0.223527	3.007939	0.000000	-0.016267	0.000000	0.017795	-0.000267	0.000000	0.000000
32.314499	24.212666	11.659271	0.066847	-0.224939	3.003195	0.000000	-0.009639	0.000000	0.017715	-0.000225	0.000000	0.000000
32.863559	23.724470	12.144328	0.816461	-0.663487	2.973680	0.000000	-0.098666	0.000000	0.017435	-0.000794	0.000000	0.000000
33.412619	22.439699	13.134065	1.508343	-1.149315	2.895974	0.000000	-0.185954	0.000000	0.016846	-0.001350	0.000000	0.000000
33.961679	20.449225	14.698995	2.093575	-1.717039	2.771450	0.000000	-0.269965	0.000000	0.015957	-0.001881	0.000000	0.000000
34.510739	17.893820	16.950607	2.530785	-2.407112	2.602305	0.000000	-0.349215	0.000000	0.014785	-0.002379	0.000000	0.000000
34.956699	15.908349	18.965085	1.934982	-2.090037	2.463615	0.000000	-0.277162	0.000000	0.013807	-0.002008	0.000000	0.000000
35.397659	14.428224	20.633716	1.432901	-1.678919	2.357351	0.000000	-0.208710	0.000000	0.012998	-0.001663	0.000000	0.000000
35.838619	13.360619	21.904475	0.996338	-1.191389	2.280588	0.000000	-0.142618	0.000000	0.012338	-0.001336	0.000000	0.000000
36.279579	12.656703	22.719536	0.605331	-0.649636	2.232457	0.000000	-0.078136	0.000000	0.011818	-0.001025	0.000000	0.000000
36.721789	12.283652	23.042047	0.268661	-0.128356	2.212395	0.000000	-0.019355	0.000000	0.011431	-0.000752	0.000000	0.000000
37.019112	12.131611	23.122273	0.242709	-0.141472	2.206864	0.000000	-0.019355	0.000000	0.011208	-0.000752	0.000000	0.000000
37.352445	11.979503	23.221490	0.213614	-0.156177	2.200663	0.000000	-0.019355	0.000000	0.010957	-0.000752	0.000000	0.000000
37.685779	11.846792	23.330509	0.184519	-0.170881	2.194462	0.000000	-0.019355	0.000000	0.010707	-0.000752	0.000000	0.000000
38.020362	11.733089	23.449795	0.155315	-0.185641	2.188238	0.000000	-0.019355	0.000000	0.010455	-0.000752	0.000000	0.000000
38.317684	11.648413	23.564158	0.155094	-0.251059	2.182703	0.000000	-0.024176	0.000000	0.010232	-0.000775	0.000000	0.000000
38.758644	11.660746	23.524547	-0.183379	0.340533	2.186122	0.000000	0.038443	0.000000	0.009947	-0.000515	0.000000	0.000000
39.199604	11.974216	22.967994	-0.530229	0.916625	2.217118	0.000000	0.101506	0.000000	0.009776	-0.000261	0.000000	0.000000
39.640564	12.603149	21.919833	-0.901313	1.450998	2.276048	0.000000	0.165728	0.000000	0.009716	-0.000010	0.000000	0.000000
40.081524	13.576294	20.427765	-1.313592	1.919334	2.363583	0.000000	0.231839	0.000000	0.009768	0.000241	0.000000	0.000000
40.527484	14.955763	18.537006	-1.789905	2.301846	2.482201	0.000000	0.301020	0.000000	0.009932	0.000497	0.000000	0.000000
41.076544	16.718479	16.412262	-1.400899	1.590229	2.626961	0.000000	0.226075	0.000000	0.010116	0.000172	0.000000	0.000000
41.625604	17.996645	15.002630	-0.912895	0.991912	2.729577	0.000000	0.147122	0.000000	0.010121	-0.000156	0.000000	0.000000
42.174664	18.699924	14.207679	-0.360383	0.464268	2.788226	0.000000	0.065556	0.000000	0.009946	-0.000481	0.000000	0.000000
42.723724	18.778618	13.970768	0.217585	-0.030296	2.801866	0.000000	-0.017181	0.000000	0.009594	-0.000797	0.000000	0.000000
43.022297	18.680406	13.975180	0.156196	-0.018012	2.798968	0.000000	-0.010465	0.000000	0.009363	-0.000773	0.000000	0.000000
43.502297	18.543092	14.008963	0.129874	-0.052369	2.794317	0.000000	-0.010465	0.000000	0.008992	-0.000773	0.000000	0.000000
43.982297	18.431048	14.075729	0.103552	-0.086727	2.789665	0.000000	-0.010465	0.000000	0.008621	-0.000773	0.000000	0.000000
44.462297	18.344272	14.175479	0.077230	-0.121085	2.785013	0.000000	-0.010465	0.000000	0.008249	-0.000773	0.000000	0.000000
44.942297	18.282767	14.308212	0.050907	-0.155443	2.780361	0.000000	-0.010465	0.000000	0.007878	-0.000773	0.000000	0.000000
45.423547	18.246695	14.474224	-0.065888	-0.118176	2.775714	0.000000	0.003288	0.000000	0.007506	-0.000736	0.000000	0.000000
45.720870	18.290769	14.550667	-0.127072	-0.103503	2.776913	0.000000	0.010092	0.000000	0.007287	-0.000718	0.000000	0.000000
46.269930	18.122000	14.945907	0.432165	-0.620522	2.760390	0.000000	-0.071783	0.000000	0.006830	-0.000947	0.000000	0.000000
46.818990	17.352228	15.929743	0.960849	-1.181743	2.699305	0.000000	-0.152400	0.000000	0.006251	-0.001158	0.000000	0.000000
47.368050	16.035870	17.572247	1.421625	-1.827146	2.594734	0.000000	-0.230333	0.000000	0.005561	-0.001350	0.000000	0.000000
47.917110	14.265966	19.990409	1.781938	-2.602707	2.448522	0.000000	-0.304201	0.000000	0.004773	-0.001517	0.000000	0.000000
48.363070	12.887862	22.140291	1.318440	-2.197548	2.328764	0.000000	-0.235936	0.000000	0.004122	-0.001402	0.000000	0.000000
48.804030	11.904690	23.862868	0.919031	-1.693794	2.239753	0.000000	-0.170755	0.000000	0.003526	-0.001303	0.000000	0.000000
49.244990	11.254033	25.105325	0.561625	-1.112969	2.178996	0.000000	-0.107504	0.000000	0.002971	-0.001220	0.000000	0.000000
49.685950	10.906147	25.811139	0.229891	-0.481506	2.145806	0.000000	-0.045464	0.000000	0.002449	-0.001150	0.000000	0.000000
50.128160	10.845288	25.947928	-0.065346	0.109766	2.139824	0.000000	0.010920	0.000000	0.001953	-0.001098	0.000000	0.000000
50.425482	10.892331	25.886104	-0.092878	0.098169	2.143397	0.000000	0.010920	0.000000	0.001627	-0.001098	0.000000	0.000000
50.758816	10.964539	25.824991	-0.123745	0.085168	2.147403	0.000000	0.010920	0.000000	0.001261	-0.001098	0.000000	0.000000
51.092149	11.057325	25.772546	-0.154611	0.072167	2.151409	0.000000	0.010920	0.000000	0.000895	-0.001098	0.000000	0.000000
51.426732	11.170925	25.729142	-0.094968	-0.149610	2.155408	0.000000	-0.006566	0.000000	0.000528	-0.001102	0.000000	0.000000
51.724055	11.235382	25.821620	-0.094323	-0.225033	2.153783	0.000000	-0.011838	0.000000	0.000200	-0.001102	0.000000	0.000000
52.165015	11.464898	25.732738	-0.428497	0.425829	2.162679	0.000000	0.050090	0.000000	-0.000286	-0.001104	0.000000	0.000000
52.605975	11.996601	25.076239	-0.782240	1.057311	2.198989	0.000000	0.112601	0.000000	-0.000775	-0.001117	0.000000	0.000000
53.046935	12.854772	23.882004	-1.171712	1.640683	2.263129	0.000000	0.176405	0.000000	-0.001273	-0.001144	0.000000	0.000000
53.487895	14.078606	22.204378	-1.614703	2.149405	2.355836	0.000000	0.242232	0.000000	-0.001785	-0.001183	0.000000	0.000000
53.933855	15.744931	20.094600	-2.135693	2.561626	2.479699	0.000000	0.311223	0.000000	-0.002324	-0.001236	0.000000	0.000000
54.482915	17.889926	17.720350	-1.748564	1.788268	2.630857	0.000000	0.236289	0.000000	-0.002980	-0.001150	0.000000	0.000000
55.031975	19.539073	16.120818	-1.237963	1.142280	2.739601	0.000000	0.157144	0.000000	-0.003584	-0.001044	0.000000	0.000000
55.581035	20.575932	15.182066	-0.639952	0.577650	2.803995	0.000000	0.075195	0.000000	-0.004124	-0.000919	0.000000	0.000000
56.130095	20.927309	14.837218	0.003235	0.054165	2.822889	0.000000	-0.008102	0.000000	-0.004590	-0.000778	0.000000	0.000000
56.428668	20.963530	14.786818	-0.067832	0.074265	2.822991	0.000000	-0.000445	0.000000	-0.004826	-0.000790	0.000000	0.000000
56.762001	21.014076	14.744864	-0.083805	0.051598	2.823106	0.000000	-0.000445	0.000000	-0.005090	-0.000790	0.000000	0.000000
57.095334	21.075270	14.718021	-0.099779	0.028931	2.823221	0.000000	-0.000445	0.000000	-0.005353	-0.000790	0.000000	0.000000
57.429918	21.147404	14.706274	-0.115813	0.006179	2.823336	0.000000	-0.000445	0.000000	-0.005617	-0.000790	0.000000	0.000000
57.727240	21.220529	14.708596	-0.188180	0.026080	2.823440	0.000000	0.007287	0.000000	-0.005852	-0.000806	0.000000	0.000000
58.276300	21.064470	14.962117	0.470323	-0.490583	2.804916	0.000000	-0.076030	0.000000	-0.006242	-0.000610	0.000000	0.000000
58.825360	20.199478	15.798682	1.095602	-1.042179	2.740845	0.000000	-0.158008	0.000000	-0.006520	-0.000403	0.000000	0.000000
59.374420	18.686642	17.277859	1.643505	-1.667993	2.632358	0.000000	-0.237191	0.000000	-0.006683	-0.000189	0.000000	0.000000
59.923480	16.632786	19.504985	2.075349	-2.412589	2.481377	0.000000	-0.312171	0.000000	-0.006728	0.000028	0.000000	0.000000
60.369440	15.023914	21.484400	1.545215	-2.007429	2.357645	0.000000	-0.243159	0.000000	-0.006754	-0.000147	0.000000	0.000000
60.810400	13.866448	23.042178	1.089777	-1.512170	2.265141	0.000000	-0.177294	0.000000	-0.006858	-0.000322	0.000000	0.000000
61.251360	13.087196	24.131104	0.684115	-0.948122	2.201282	0.000000	-0.113445	0.000000	-0.007039	-0.000502	0.000000	0.000000
61.692320	12.650565	24.701644	0.309704	-0.340946	2.165342	0.000000	-0.050882	0.000000	-0.007301	-0.000686	0.000000	0.000000
62.134530	12.536678	24.727265	-0.017732	0.217063	2.156925	0.000000	0.005444	0.000000	-0.007646	-0.000860	0.000000	0.000000
62.431853	12.554276	24.601933	-0.041456	0.204472	2.158799	0.000000	0.005444	0.000000	-0.007902	-0.000860	0.000000	0.000000
62.765186	12.590779	24.470324	-0.068053	0.190357	2.160901	0.000000	0.005444	0.000000	-0.008189	-0.000860	0.000000	0.000000
63.098520	12.645014	24.348124	-0.094650	0.176241	2.163002	0.000000	0.005444	0.000000	-0.008475	-0.000860	0.000000	0.000000
63.433103	12.717283	24.234930	-0.121347	0.162073	2.165111	0.000000	0.005444	0.000000	-0.008763	-0.000860	0.000000	0.000000
63.730426	12.796464	24.142355	-0.111080	0.085055	2.166982	0.000000	-0.000312	0.000000	-0.009018	-0.000837	0.000000	0.000000
64.171386	13.056542	23.801459	-0.481384	0.685181	2.180977	0.000000	0.062007	0.000000	-0.009439	-0.001074	0.000000	0.000000
64.612346	13.651524	22.943151	-0.873663	1.254136	2.222684	0.000000	0.125044	0.000000	-0.009968	-0.001325	0.000000	0.000000
65.053306	14.608566	21.606483	-1.305828	1.766040	2.292584	0.000000	0.189518	0.000000	-0.010609	-0.001590	0.000000	0.000000
65.494266	15.971351	19.852270	-1.797612	2.197610	2.391477	0.000000	0.256168	0.000000	-0.011372	-0.001873	0.000000	0.000000
65.940226	17.825472	17.735356	-2.375887	2.529741	2.522112	0.000000	0.326119	0.000000	-0.012275	-0.002180	0.000000	0.000000
66.489286	20.199714	15.367214	-1.924557	1.809580	2.681443	0.000000	0.249704	0.000000	-0.013359	-0.001764	0.000000	0.000000
67.038346	22.000519	13.714818	-1.337398	1.218271	2.797307	0.000000	0.168832	0.000000	-0.014206	-0.001318	0.000000	0.000000
67.587406	23.100838	12.660486	-0.655858	0.713707	2.867637	0.000000	0.084946	0.000000	-0.014802	-0.000848	0.000000	0.000000
68.136466	23.423050	12.129133	0.071959	0.259961	2.891179	0.000000	-0.000461	0.000000	-0.015135	-0.000363	0.000000	0.000000
68.435038	23.424724	11.960708	-0.009441	0.268805	2.893683	0.000000	0.008013	0.000000	-0.015256	-0.000405	0.000000	0.000000
68.768372	23.435762	11.791465	-0.023673	0.238922	2.896489	0.000000	0.008013	0.000000	-0.015391	-0.000405	0.000000	0.000000
69.101705	23.456287	11.642145	-0.037904	0.209039	2.899295	0.000000	0.008013	0.000000	-0.015526	-0.000405	0.000000	0.000000
69.436288	23.486431	11.512299	-0.052188	0.179044	2.902112	0.000000	0.008013	0.000000	-0.015661	-0.000405	0.000000	0.000000
69.733611	23.521411	11.413672	-0.134121	0.185920	2.904626	0.000000	0.016564	0.000000	-0.015782	-0.000449	0.000000	0.000000
70.282671	23.264736	11.437766	0.598813	-0.230071	2.890197	0.000000	-0.069424	0.000000	-0.015888	0.000064	0.000000	0.000000
