#ParticleID	Turn	x[m]	xp	y[m]	yp	z[m]	dE[GeV]# s	beta_x	beta_y	alpha_x	alpha_y	D_x	D_y	D_px	D_py	orbit_x	orbit_px	orbit_y	orbit_py
0.300000	11.965170	25.323639	-0.019308	-0.021892	2.598520	0.000000	0.000178	0.000000	-0.000967	0.000836	0.000000	0.000000
0.601250	11.984391	25.340415	-0.044495	-0.033794	2.598322	0.000000	0.000178	0.000000	-0.000715	0.000836	0.000000	0.000000
0.898573	12.018240	25.364003	-0.039751	-0.107711	2.598126	0.000000	-0.006221	0.000000	-0.000467	0.000837	0.000000	0.000000
1.339533	12.207225	25.177490	-0.390164	0.529072	2.611208	0.000000	0.067215	0.000000	-0.000100	0.000830	0.000000	0.000000
1.780493	12.711917	24.437893	-0.758410	1.141786	2.656810	0.000000	0.141408	0.000000	0.000267	0.000832	0.000000	0.000000
2.221453	13.555382	23.178854	-1.161312	1.702552	2.735448	0.000000	0.217203	0.000000	0.000636	0.000844	0.000000	0.000000
2.662413	14.776167	21.457651	-1.617280	2.185855	2.848014	0.000000	0.295463	0.000000	0.001012	0.000865	0.000000	0.000000
3.108373	16.451141	19.327374	-2.151522	2.570876	2.997631	0.000000	0.377570	0.000000	0.001404	0.000896	0.000000	0.000000
3.657433	18.598183	16.934339	-1.735192	1.813170	3.179435	0.000000	0.285341	0.000000	0.001882	0.000843	0.000000	0.000000
4.206493	20.217615	15.297986	-1.196270	1.184614	3.309170	0.000000	0.188064	0.000000	0.002327	0.000775	0.000000	0.000000
4.755553	21.195015	14.301767	-0.572825	0.640438	3.384540	0.000000	0.087464	0.000000	0.002730	0.000693	0.000000	0.000000
5.304613	21.461315	13.874731	0.091101	0.141880	3.404215	0.000000	-0.014676	0.000000	0.003085	0.000599	0.000000	0.000000
5.603185	21.443680	13.775626	0.022556	0.154874	3.402238	0.000000	-0.006013	0.000000	0.003267	0.000606	0.000000	0.000000
5.936519	21.433827	13.680636	0.007004	0.130096	3.400031	0.000000	-0.006013	0.000000	0.003469	0.000606	0.000000	0.000000
6.269852	21.434342	13.602165	-0.008549	0.105318	3.397824	0.000000	-0.006013	0.000000	0.003671	0.000606	0.000000	0.000000
6.604435	21.445285	13.540011	-0.024159	0.080447	3.395610	0.000000	-0.006013	0.000000	0.003874	0.000606	0.000000	0.000000
6.901758	21.463786	13.498738	-0.092185	0.092525	3.393642	0.000000	0.002549	0.000000	0.004054	0.000617	0.000000	0.000000
7.450818	21.199002	13.658985	0.571887	-0.386089	3.366798	0.000000	-0.099137	0.000000	0.004356	0.000481	0.000000	0.000000
7.999878	20.222855	14.356772	1.195567	-0.892208	3.284595	0.000000	-0.199056	0.000000	0.004580	0.000336	0.000000	0.000000
8.548938	18.604303	15.641812	1.734789	-1.461887	3.148495	0.000000	-0.295439	0.000000	0.004724	0.000185	0.000000	0.000000
9.097998	16.457699	17.605648	2.151453	-2.135708	2.960916	0.000000	-0.386577	0.000000	0.004783	0.000031	0.000000	0.000000
9.543958	14.782991	19.355275	1.616992	-1.770730	2.806642	0.000000	-0.305461	0.000000	0.004825	0.000156	0.000000	0.000000
9.984918	13.562648	20.726357	1.160872	-1.326533	2.688965	0.000000	-0.228323	0.000000	0.004921	0.000281	0.000000	0.000000
10.425878	12.719787	21.677449	0.757797	-0.821972	2.604644	0.000000	-0.153790	0.000000	0.005073	0.000410	0.000000	0.000000
10.866838	12.215891	22.165269	0.389348	-0.280004	2.552718	0.000000	-0.081012	0.000000	0.005283	0.000544	0.000000	0.000000
11.309048	12.027781	22.167037	0.066509	0.222968	2.532575	0.000000	-0.015043	0.000000	0.005554	0.000670	0.000000	0.000000
11.606371	11.995613	22.038636	0.041680	0.208889	2.527903	0.000000	-0.015043	0.000000	0.005754	0.000670	0.000000	0.000000
12.086371	11.974841	21.849013	0.001596	0.186158	2.520360	0.000000	-0.015043	0.000000	0.006075	0.000670	0.000000	0.000000
12.566371	11.992549	21.681212	-0.038488	0.163428	2.512818	0.000000	-0.015043	0.000000	0.006397	0.000670	0.000000	0.000000
13.046371	12.048738	21.535231	-0.078572	0.140698	2.505275	0.000000	-0.015043	0.000000	0.006719	0.000670	0.000000	0.000000
13.526371	12.143408	21.411072	-0.118656	0.117967	2.497733	0.000000	-0.015043	0.000000	0.007040	0.000670	0.000000	0.000000
14.007621	12.276955	21.308496	-0.158845	0.095178	2.490171	0.000000	-0.015043	0.000000	0.007363	0.000670	0.000000	0.000000
14.304943	12.378773	21.256121	-0.155533	0.032968	2.485497	0.000000	-0.020694	0.000000	0.007562	0.000652	0.000000	0.000000
14.745903	12.674705	20.994551	-0.517778	0.557891	2.491581	0.000000	0.049764	0.000000	0.007893	0.000851	0.000000	0.000000
15.186863	13.299376	20.279455	-0.903694	1.057428	2.528746	0.000000	0.120779	0.000000	0.008314	0.001060	0.000000	0.000000
15.627823	14.281351	19.143368	-1.330921	1.508845	2.597409	0.000000	0.193159	0.000000	0.008830	0.001281	0.000000	0.000000
16.068783	15.665531	17.637982	-1.818989	1.891596	2.698349	0.000000	0.267726	0.000000	0.009447	0.001517	0.000000	0.000000
16.514743	17.538841	15.810183	-2.395155	2.189198	2.834406	0.000000	0.345820	0.000000	0.010180	0.001772	0.000000	0.000000
17.063803	19.944096	13.770106	-1.958045	1.547751	2.999907	0.000000	0.259119	0.000000	0.011059	0.001427	0.000000	0.000000
17.612863	21.789917	12.370173	-1.382534	1.016575	3.116658	0.000000	0.167843	0.000000	0.011743	0.001058	0.000000	0.000000
18.161923	22.945804	11.510658	-0.709295	0.557828	3.182598	0.000000	0.073607	0.000000	0.012218	0.000670	0.000000	0.000000
18.710983	23.330030	11.130332	0.014086	0.138825	3.196563	0.000000	-0.021925	0.000000	0.012476	0.000270	0.000000	0.000000
19.009556	23.357809	11.040247	-0.053108	0.137169	3.192144	0.000000	-0.014475	0.000000	0.012566	0.000300	0.000000	0.000000
19.342889	23.397985	10.959054	-0.067419	0.106408	3.187219	0.000000	-0.014475	0.000000	0.012666	0.000300	0.000000	0.000000
19.676223	23.447701	10.898369	-0.081730	0.075648	3.182294	0.000000	-0.014475	0.000000	0.012766	0.000300	0.000000	0.000000
20.010806	23.507490	10.857944	-0.212564	0.098569	3.177370	0.000000	0.001268	0.000000	0.012867	0.000364	0.000000	0.000000
20.308129	23.637937	10.807498	-0.280595	0.096045	3.177646	0.000000	0.008636	0.000000	0.012975	0.000396	0.000000	0.000000
20.857189	23.538582	10.921610	0.460570	-0.305064	3.156230	0.000000	-0.086164	0.000000	0.013077	-0.000026	0.000000	0.000000
21.406249	22.638164	11.485550	1.169184	-0.727910	3.083318	0.000000	-0.179435	0.000000	0.012947	-0.000448	0.000000	0.000000
21.955309	21.000341	12.539498	1.795157	-1.202621	2.960205	0.000000	-0.269530	0.000000	0.012587	-0.000861	0.000000	0.000000
22.504369	18.740905	14.158539	2.294243	-1.763019	2.789069	0.000000	-0.354856	0.000000	0.012004	-0.001260	0.000000	0.000000
22.950329	16.962339	15.613117	1.706604	-1.484241	2.648478	0.000000	-0.277986	0.000000	0.011510	-0.000955	0.000000	0.000000
23.391289	15.684265	16.774458	1.201937	-1.138973	2.542468	0.000000	-0.204766	0.000000	0.011154	-0.000662	0.000000	0.000000
23.832249	14.825584	17.607133	0.752217	-0.741867	2.468085	0.000000	-0.133871	0.000000	0.010925	-0.000378	0.000000	0.000000
24.273209	14.347033	18.073250	0.336883	-0.310997	2.424485	0.000000	-0.064497	0.000000	0.010820	-0.000098	0.000000	0.000000
24.715418	14.226858	18.151299	-0.031927	0.094090	2.411173	0.000000	-0.001147	0.000000	0.010839	0.000156	0.000000	0.000000
25.012741	14.252064	18.100262	-0.052847	0.077565	2.410785	0.000000	-0.001147	0.000000	0.010885	0.000156	0.000000	0.000000
25.346075	14.295113	18.054728	-0.076301	0.059038	2.410351	0.000000	-0.001147	0.000000	0.010937	0.000156	0.000000	0.000000
25.679408	14.353799	18.021545	-0.099755	0.040511	2.409916	0.000000	-0.001147	0.000000	0.010989	0.000156	0.000000	0.000000
26.013991	14.428135	18.001023	-0.006246	-0.124118	2.409456	0.000000	-0.020694	0.000000	0.011042	0.000067	0.000000	0.000000
26.311314	14.437925	18.079881	0.004742	-0.180445	2.403279	0.000000	-0.025954	0.000000	0.011062	0.000041	0.000000	0.000000
26.752274	14.612253	18.043181	-0.401441	0.263343	2.406814	0.000000	0.042357	0.000000	0.011143	0.000328	0.000000	0.000000
27.193234	15.151624	17.618842	-0.825977	0.695147	2.440431	0.000000	0.111147	0.000000	0.011351	0.000617	0.000000	0.000000
27.634194	16.080703	16.826174	-1.288275	1.095313	2.504511	0.000000	0.181197	0.000000	0.011689	0.000915	0.000000	0.000000
28.075154	17.441977	15.701247	-1.809468	1.445628	2.599781	0.000000	0.253301	0.000000	0.012159	0.001222	0.000000	0.000000
28.521114	19.321613	14.278132	-2.418559	1.731300	2.728941	0.000000	0.328761	0.000000	0.012776	0.001545	0.000000	0.000000
29.070174	21.711915	12.693363	-1.907495	1.171527	2.886180	0.000000	0.245606	0.000000	0.013509	0.001120	0.000000	0.000000
29.619234	23.462967	11.674218	-1.261592	0.695228	2.996725	0.000000	0.158112	0.000000	0.014002	0.000674	0.000000	0.000000
30.168294	24.450959	11.148093	-0.526507	0.268465	3.058621	0.000000	0.067823	0.000000	0.014247	0.000216	0.000000	0.000000
30.717354	24.606031	11.077505	0.245795	-0.139169	3.070771	0.000000	-0.023666	0.000000	0.014239	-0.000246	0.000000	0.000000
31.015927	24.496498	11.153659	0.176897	-0.141071	3.065858	0.000000	-0.016637	0.000000	0.014176	-0.000211	0.000000	0.000000
31.349260	24.383244	11.257866	0.162864	-0.171551	3.060382	0.000000	-0.016637	0.000000	0.014106	-0.000211	0.000000	0.000000
31.682593	24.279346	11.382394	0.148831	-0.202032	3.054907	0.000000	-0.016637	0.000000	0.014035	-0.000211	0.000000	0.000000
32.017177	24.184466	11.527823	0.134745	-0.232626	3.049411	0.000000	-0.016637	0.000000	0.013965	-0.000211	0.000000	0.000000
32.314499	24.108199	11.674170	0.066845	-0.233026	3.044535	0.000000	-0.009643	0.000000	0.013902	-0.000176	0.000000	0.000000
32.863559	23.622020	12.168502	0.812940	-0.672435	3.014598	0.000000	-0.099992	0.000000	0.013682	-0.000623	0.000000	0.000000
33.412619	22.343094	13.168773	1.501565	-1.159758	2.935688	0.000000	-0.188577	0.000000	0.013220	-0.001059	0.000000	0.000000
33.961679	20.361854	14.746245	2.084043	-1.729714	2.809201	0.000000	-0.273834	0.000000	0.012522	-0.001476	0.000000	0.000000
34.510739	17.818383	17.013296	2.519204	-2.422911	2.637372	0.000000	-0.354255	0.000000	0.011603	-0.001867	0.000000	0.000000
34.956699	15.842366	19.041535	1.925890	-2.105294	2.496438	0.000000	-0.281333	0.000000	0.010835	-0.001576	0.000000	0.000000
35.397659	14.369502	20.723021	1.425785	-1.692857	2.388353	0.000000	-0.212063	0.000000	0.010201	-0.001305	0.000000	0.000000
35.838619	13.307530	22.005207	0.990860	-1.203378	2.310149	0.000000	-0.145194	0.000000	0.009682	-0.001049	0.000000	0.000000
36.279579	12.607889	22.829750	0.601233	-0.659134	2.260941	0.000000	-0.079968	0.000000	0.009274	-0.000804	0.000000	0.000000
36.721789	12.237948	23.159420	0.266388	-0.136627	2.240147	0.000000	-0.020661	0.000000	0.008970	-0.000590	0.000000	0.000000
37.019112	12.087278	23.244553	0.240368	-0.149705	2.234180	0.000000	-0.020661	0.000000	0.008795	-0.000590	0.000000	0.000000
37.352445	11.936756	23.349244	0.211198	-0.164367	2.227489	0.000000	-0.020661	0.000000	0.008598	-0.000590	0.000000	0.000000
37.685779	11.805681	23.463709	0.182027	-0.179028	2.220799	0.000000	-0.020661	0.000000	0.008401	-0.000590	0.000000	0.000000
38.020362	11.693670	23.588433	0.152747	-0.193745	2.214083	0.000000	-0.020661	0.000000	0.008204	-0.000590	0.000000	0.000000
38.317684	11.610554	23.707575	0.152996	-0.260658	2.208113	0.000000	-0.025657	0.000000	0.008029	-0.000609	0.000000	0.000000
38.758644	11.624375	23.674731	-0.184623	0.334849	2.210962	0.000000	0.037607	0.000000	0.007805	-0.000405	0.000000	0.000000
39.199604	11.938591	23.121380	-0.530677	0.915116	2.241693	0.000000	0.101303	0.000000	0.007671	-0.000206	0.000000	0.000000
39.640564	12.567561	22.072706	-0.900982	1.453735	2.300659	0.000000	0.166156	0.000000	0.007623	-0.000008	0.000000	0.000000
40.081524	13.540033	20.576434	-1.312464	1.926196	2.388530	0.000000	0.232902	0.000000	0.007663	0.000189	0.000000	0.000000
40.527484	14.918020	18.677912	-1.787877	2.312496	2.507796	0.000000	0.302729	0.000000	0.007792	0.000389	0.000000	0.000000
41.076544	16.679211	16.543918	-1.400301	1.596643	2.653300	0.000000	0.226948	0.000000	0.007936	0.000134	0.000000	0.000000
41.625604	17.957496	15.129392	-0.913780	0.994541	2.756159	0.000000	0.147142	0.000000	0.007939	-0.000123	0.000000	0.000000
42.174664	18.662539	14.333563	-0.362695	0.463294	2.814547	0.000000	0.064724	0.000000	0.007801	-0.000378	0.000000	0.000000
42.723724	18.744522	14.099728	0.214011	-0.034945	2.827426	0.000000	-0.018848	0.000000	0.007525	-0.000626	0.000000	0.000000
43.022297	18.648949	14.106281	0.151808	-0.021522	2.824042	0.000000	-0.011936	0.000000	0.007344	-0.000607	0.000000	0.000000
43.502297	18.515852	14.143283	0.125476	-0.055565	2.818603	0.000000	-0.011936	0.000000	0.007053	-0.000607	0.000000	0.000000
43.982297	18.408034	14.212966	0.099145	-0.089608	2.813165	0.000000	-0.011936	0.000000	0.006761	-0.000607	0.000000	0.000000
44.462297	18.325494	14.315331	0.072813	-0.123652	2.807727	0.000000	-0.011936	0.000000	0.006470	-0.000607	0.000000	0.000000
44.942297	18.268234	14.450378	0.046481	-0.157695	2.802289	0.000000	-0.011936	0.000000	0.006178	-0.000607	0.000000	0.000000
45.423547	18.236427	14.618404	-0.070273	-0.119398	2.796854	0.000000	0.001921	0.000000	0.005886	-0.000578	0.000000	0.000000
45.720870	18.283104	14.695522	-0.132107	-0.103616	2.797599	0.000000	0.008875	0.000000	0.005714	-0.000563	0.000000	0.000000
46.269930	18.120032	15.093245	0.426987	-0.624973	2.780134	0.000000	-0.073651	0.000000	0.005355	-0.000743	0.000000	0.000000
46.818990	17.355933	16.084463	0.955900	-1.190849	2.717734	0.000000	-0.154883	0.000000	0.004901	-0.000909	0.000000	0.000000
47.368050	16.044815	17.739773	1.417263	-1.841554	2.611500	0.000000	-0.233382	0.000000	0.004360	-0.001059	0.000000	0.000000
47.917110	14.279334	20.177078	1.778481	-2.623440	2.463310	0.000000	-0.307758	0.000000	0.003741	-0.001190	0.000000	0.000000
48.363070	12.904331	22.343493	1.315089	-2.213797	2.341914	0.000000	-0.239135	0.000000	0.003231	-0.001100	0.000000	0.000000
48.804030	11.924192	24.078120	0.915607	-1.704814	2.251440	0.000000	-0.173635	0.000000	0.002764	-0.001023	0.000000	0.000000
49.244990	11.276692	25.327784	0.557969	-1.118260	2.189361	0.000000	-0.110100	0.000000	0.002327	-0.000957	0.000000	0.000000
49.685950	10.932234	26.035632	0.225832	-0.480826	2.154974	0.000000	-0.047810	0.000000	0.001918	-0.000902	0.000000	0.000000
50.128160	10.875244	26.169176	-0.069814	0.115511	2.147902	0.000000	0.008755	0.000000	0.001529	-0.000862	0.000000	0.000000
50.425482	10.924927	26.103911	-0.097287	0.103997	2.150761	0.000000	0.008755	0.000000	0.001273	-0.000862	0.000000	0.000000
50.758816	11.000051	26.038882	-0.128087	0.091090	2.153966	0.000000	0.008755	0.000000	0.000986	-0.000862	0.000000	0.000000
51.092149	11.095709	25.982458	-0.158887	0.078182	2.157172	0.000000	0.008755	0.000000	0.000699	-0.000862	0.000000	0.000000
51.426732	11.212148	25.935002	-0.098842	-0.145171	2.160367	0.000000	-0.008772	0.000000	0.000410	-0.000865	0.000000	0.000000
51.724055	11.278885	26.024808	-0.098000	-0.220926	2.158016	0.000000	-0.014056	0.000000	0.000153	-0.000865	0.000000	0.000000
52.165015	11.512142	25.929946	-0.433264	0.435233	2.165855	0.000000	0.047968	0.000000	-0.000228	-0.000866	0.000000	0.000000
52.605975	12.048643	25.262965	-0.788315	1.071586	2.201143	0.000000	0.110547	0.000000	-0.000612	-0.000877	0.000000	0.000000
53.046935	12.912889	24.054219	-1.179375	1.659181	2.264284	0.000000	0.174394	0.000000	-0.001003	-0.000898	0.000000	0.000000
53.487895	14.144355	22.358715	-1.624308	2.171283	2.356003	0.000000	0.240238	0.000000	-0.001405	-0.000929	0.000000	0.000000
53.933855	15.820340	20.228262	-2.147711	2.585903	2.478865	0.000000	0.309223	0.000000	-0.001829	-0.000971	0.000000	0.000000
54.482915	17.977592	17.830523	-1.758589	1.806992	2.628800	0.000000	0.234333	0.000000	-0.002344	-0.000903	0.000000	0.000000
55.031975	19.636401	16.212838	-1.245279	1.156787	2.736369	0.000000	0.155272	0.000000	-0.002817	-0.000820	0.000000	0.000000
55.581035	20.679634	15.259976	-0.644035	0.588974	2.799656	0.000000	0.073444	0.000000	-0.003241	-0.000721	0.000000	0.000000
56.130095	21.033638	14.904060	0.002678	0.063111	2.817533	0.000000	-0.009698	0.000000	-0.003607	-0.000611	0.000000	0.000000
56.428668	21.070081	14.848397	-0.068162	0.083101	2.817085	0.000000	-0.002116	0.000000	-0.003793	-0.000620	0.000000	0.000000
56.762001	21.120820	14.800531	-0.084055	0.060497	2.816587	0.000000	-0.002116	0.000000	-0.003999	-0.000620	0.000000	0.000000
57.095334	21.182155	14.767735	-0.099949	0.037893	2.816088	0.000000	-0.002116	0.000000	-0.004206	-0.000620	0.000000	0.000000
57.429918	21.254376	14.749970	-0.115902	0.015204	2.815587	0.000000	-0.002116	0.000000	-0.004413	-0.000620	0.000000	0.000000
57.727240	21.327525	14.746915	-0.187923	0.034907	2.815143	0.000000	0.005519	0.000000	-0.004598	-0.000632	0.000000	0.000000
58.276300	21.169256	14.991279	0.474153	-0.482623	2.795644	0.000000	-0.077517	0.000000	-0.004903	-0.000478	0.000000	0.000000
58.825360	20.298228	15.819336	1.102733	-1.034523	2.730781	0.000000	-0.159185	0.000000	-0.005122	-0.000316	0.000000	0.000000
59.374420	18.775958	17.290054	1.653433	-1.660096	2.621702	0.000000	-0.238036	0.000000	-0.005249	-0.000148	0.000000	0.000000
59.923480	16.709946	19.508171	2.087365	-2.403897	2.470339	0.000000	-0.312668	0.000000	-0.005284	0.000023	0.000000	0.000000
60.369440	15.091486	21.479411	1.554763	-1.997833	2.346317	0.000000	-0.243938	0.000000	-0.005304	-0.000115	0.000000	0.000000
60.810400	13.926487	23.028539	1.097347	-1.502150	2.253380	0.000000	-0.178369	0.000000	-0.005385	-0.000252	0.000000	0.000000
61.251360	13.141298	24.108631	0.690056	-0.938131	2.188940	0.000000	-0.114828	0.000000	-0.005527	-0.000393	0.000000	0.000000
61.692320	12.700056	24.670553	0.314288	-0.331436	2.152265	0.000000	-0.052590	0.000000	-0.005732	-0.000538	0.000000	0.000000
62.134530	12.582653	24.688152	-0.014639	0.226600	2.142944	0.000000	0.003505	0.000000	-0.006004	-0.000674	0.000000	0.000000
62.431853	12.598385	24.557170	-0.038273	0.213939	2.144187	0.000000	0.003505	0.000000	-0.006204	-0.000674	0.000000	0.000000
62.765186	12.632733	24.419276	-0.064771	0.199744	2.145580	0.000000	0.003505	0.000000	-0.006429	-0.000674	0.000000	0.000000
63.098520	12.684746	24.290845	-0.091268	0.185549	2.146973	0.000000	0.003505	0.000000	-0.006654	-0.000674	0.000000	0.000000
63.433103	12.754718	24.171449	-0.117864	0.171301	2.148372	0.000000	0.003505	0.000000	-0.006879	-0.000674	0.000000	0.000000
63.730426	12.831814	24.073386	-0.107966	0.095497	2.149613	0.000000	-0.002112	0.000000	-0.007080	-0.000656	0.000000	0.000000
64.171386	13.089524	23.724158	-0.479018	0.693543	2.162627	0.000000	0.059750	0.000000	-0.007410	-0.000843	0.000000	0.000000
64.612346	13.682770	22.859511	-0.871940	1.260037	2.203125	0.000000	0.122301	0.000000	-0.007825	-0.001040	0.000000	0.000000
65.053306	14.638634	21.518787	-1.304677	1.769209	2.271571	0.000000	0.186257	0.000000	-0.008328	-0.001248	0.000000	0.000000
65.494266	16.000752	19.762985	-1.796988	2.197899	2.368748	0.000000	0.252346	0.000000	-0.008927	-0.001470	0.000000	0.000000
65.940226	17.854651	17.647099	-2.375844	2.527158	2.497359	0.000000	0.321696	0.000000	-0.009636	-0.001711	0.000000	0.000000
66.489286	20.228333	15.280588	-1.923196	1.809010	2.654269	0.000000	0.246114	0.000000	-0.010487	-0.001385	0.000000	0.000000
67.038346	22.027134	13.627664	-1.334792	1.219682	2.768236	0.000000	0.166146	0.000000	-0.011152	-0.001034	0.000000	0.000000
67.587406	23.124110	12.570606	-0.652173	0.717207	2.837232	0.000000	0.083214	0.000000	-0.011619	-0.000666	0.000000	0.000000
68.136466	23.441857	12.034131	0.076474	0.265802	2.860026	0.000000	-0.001204	0.000000	-0.011880	-0.000285	0.000000	0.000000
68.435038	23.439999	11.862920	-0.003420	0.273276	2.862202	0.000000	0.006990	0.000000	-0.011975	-0.000317	0.000000	0.000000
68.768372	23.447020	11.690802	-0.017641	0.243079	2.864638	0.000000	0.006990	0.000000	-0.012081	-0.000317	0.000000	0.000000
69.101705	23.463521	11.538815	-0.031862	0.212882	2.867073	0.000000	0.006990	0.000000	-0.012187	-0.000317	0.000000	0.000000
69.436288	23.489618	11.406503	-0.046136	0.182571	2.869518	0.000000	0.006990	0.000000	-0.012293	-0.000317	0.000000	0.000000
69.733611	23.520930	11.305895	-0.126443	0.188087	2.871697	0.000000	0.015246	0.000000	-0.012387	-0.000351	0.000000	0.000000
70.282671	23.255871	11.325959	0.606322	-0.224851	2.856814	0.000000	-0.069677	0.000000	-0.012470	0.000051	0.000000	0.000000
