#ParticleID	Turn	x[m]	xp	y[m]	yp	z[m]	dE[GeV]# s	beta_x	beta_y	alpha_x	alpha_y	D_x	D_y	D_px	D_py	orbit_x	orbit_px	orbit_y	orbit_py
0.300000	11.884750	25.106956	-0.017146	-0.024961	2.610834	0.000000	0.000369	0.000000	-0.000289	0.000254	0.000000	0.000000
0.601250	11.902719	25.125612	-0.042501	-0.036968	2.610869	0.000000	0.000369	0.000000	-0.000212	0.000254	0.000000	0.000000
0.898573	11.935432	25.151117	-0.038219	-0.110484	2.610903	0.000000	-0.006042	0.000000	-0.000137	0.000254	0.000000	0.000000
1.339533	12.122133	24.969522	-0.386697	0.520735	2.624384	0.000000	0.067730	0.000000	-0.000026	0.000252	0.000000	0.000000
1.780493	12.622766	24.239602	-0.752845	1.128262	2.670534	0.000000	0.142270	0.000000	0.000085	0.000253	0.000000	0.000000
2.221453	13.460206	22.994566	-1.153391	1.684455	2.749878	0.000000	0.218428	0.000000	0.000197	0.000256	0.000000	0.000000
2.662413	14.672717	21.291060	-1.606634	2.164007	2.863318	0.000000	0.297071	0.000000	0.000312	0.000263	0.000000	0.000000
3.108373	16.336641	19.181618	-2.137614	2.546241	3.014002	0.000000	0.379584	0.000000	0.000431	0.000272	0.000000	0.000000
3.657433	18.470043	16.812307	-1.724777	1.794413	3.197079	0.000000	0.286809	0.000000	0.000576	0.000256	0.000000	0.000000
4.206493	20.080106	15.193986	-1.190101	1.170398	3.327754	0.000000	0.188951	0.000000	0.000711	0.000235	0.000000	0.000000
4.755553	21.053094	14.211387	-0.571356	0.629748	3.403712	0.000000	0.087745	0.000000	0.000834	0.000210	0.000000	0.000000
5.304613	21.320272	13.794524	0.087753	0.133954	3.423606	0.000000	-0.015014	0.000000	0.000941	0.000181	0.000000	0.000000
5.603185	21.305057	13.699852	0.018468	0.147408	3.421718	0.000000	-0.006139	0.000000	0.000996	0.000184	0.000000	0.000000
5.936519	21.297962	13.609867	0.002817	0.122548	3.419610	0.000000	-0.006139	0.000000	0.001057	0.000184	0.000000	0.000000
6.269852	21.301301	13.536455	-0.012834	0.097688	3.417502	0.000000	-0.006139	0.000000	0.001119	0.000184	0.000000	0.000000
6.604435	21.315145	13.479434	-0.028544	0.072735	3.415387	0.000000	-0.006139	0.000000	0.001180	0.000184	0.000000	0.000000
6.901758	21.336270	13.442774	-0.097673	0.085356	3.413507	0.000000	0.002687	0.000000	0.001235	0.000187	0.000000	0.000000
7.450818	21.079705	13.610039	0.562280	-0.391787	3.386765	0.000000	-0.099635	0.000000	0.001326	0.000146	0.000000	0.000000
7.999878	20.116023	14.313433	1.182517	-0.896838	3.304267	0.000000	-0.200187	0.000000	0.001394	0.000101	0.000000	0.000000
8.548938	18.513297	15.603061	1.719224	-1.465772	3.167477	0.000000	-0.297187	0.000000	0.001437	0.000056	0.000000	0.000000
9.097998	16.384743	17.570785	2.134487	-2.139114	2.978823	0.000000	-0.388914	0.000000	0.001455	0.000009	0.000000	0.000000
9.543958	14.723875	19.324079	1.602957	-1.775705	2.823640	0.000000	-0.307365	0.000000	0.001467	0.000047	0.000000	0.000000
9.984918	13.514936	20.700058	1.149019	-1.332771	2.705287	0.000000	-0.229805	0.000000	0.001496	0.000085	0.000000	0.000000
10.425878	12.681773	21.657061	0.747579	-0.829194	2.620510	0.000000	-0.154864	0.000000	0.001542	0.000124	0.000000	0.000000
10.866838	12.186317	22.151542	0.380294	-0.287888	2.568342	0.000000	-0.081688	0.000000	0.001606	0.000165	0.000000	0.000000
11.309048	12.005785	22.160467	0.059250	0.212920	2.548170	0.000000	-0.015592	0.000000	0.001688	0.000203	0.000000	0.000000
11.606371	11.977942	22.038025	0.034398	0.198895	2.543473	0.000000	-0.015592	0.000000	0.001748	0.000203	0.000000	0.000000
12.086371	11.964178	21.857954	-0.005723	0.176253	2.535892	0.000000	-0.015592	0.000000	0.001846	0.000203	0.000000	0.000000
12.566371	11.988930	21.699619	-0.045844	0.153611	2.528310	0.000000	-0.015592	0.000000	0.001943	0.000203	0.000000	0.000000
13.046371	12.052198	21.563021	-0.085965	0.130969	2.520728	0.000000	-0.015592	0.000000	0.002041	0.000203	0.000000	0.000000
13.526371	12.153983	21.448160	-0.126086	0.108327	2.513146	0.000000	-0.015592	0.000000	0.002138	0.000203	0.000000	0.000000
14.007621	12.294699	21.354820	-0.166312	0.085625	2.505545	0.000000	-0.015592	0.000000	0.002236	0.000203	0.000000	0.000000
14.304943	12.400983	21.308077	-0.161417	0.020548	2.500848	0.000000	-0.021591	0.000000	0.002296	0.000197	0.000000	0.000000
14.745903	12.702269	21.056796	-0.524321	0.547113	2.506844	0.000000	0.049251	0.000000	0.002396	0.000258	0.000000	0.000000
15.186863	13.332946	20.350356	-0.911183	1.048785	2.544147	0.000000	0.120652	0.000000	0.002524	0.000321	0.000000	0.000000
15.627823	14.321834	19.220897	-1.339683	1.502735	2.613181	0.000000	0.193423	0.000000	0.002680	0.000388	0.000000	0.000000
16.068783	15.714126	17.719810	-1.829399	1.888308	2.714730	0.000000	0.268393	0.000000	0.002867	0.000460	0.000000	0.000000
16.514743	17.597075	15.893897	-2.407529	2.188757	2.851645	0.000000	0.346889	0.000000	0.003089	0.000537	0.000000	0.000000
17.063803	20.014835	13.855360	-1.969392	1.545764	3.018151	0.000000	0.259635	0.000000	0.003356	0.000433	0.000000	0.000000
17.612863	21.871714	12.458686	-1.392117	1.012881	3.135471	0.000000	0.167783	0.000000	0.003563	0.000321	0.000000	0.000000
18.161923	23.036514	11.604389	-0.716488	0.552149	3.201525	0.000000	0.072959	0.000000	0.003707	0.000203	0.000000	0.000000
18.710983	23.426933	11.231617	0.009763	0.130750	3.215144	0.000000	-0.023155	0.000000	0.003785	0.000081	0.000000	0.000000
19.009556	23.460288	11.144729	-0.062263	0.131886	3.210630	0.000000	-0.015024	0.000000	0.003812	0.000091	0.000000	0.000000
19.342889	23.506551	11.066948	-0.076526	0.101456	3.205592	0.000000	-0.015024	0.000000	0.003843	0.000091	0.000000	0.000000
19.676223	23.562323	11.009453	-0.090790	0.071027	3.200554	0.000000	-0.015024	0.000000	0.003873	0.000091	0.000000	0.000000
20.010806	23.628160	10.972008	-0.222174	0.094845	3.195516	0.000000	0.000809	0.000000	0.003904	0.000111	0.000000	0.000000
20.308129	23.764212	10.923734	-0.295400	0.095112	3.195725	0.000000	0.008880	0.000000	0.003937	0.000121	0.000000	0.000000
20.857189	23.678800	11.040602	0.450069	-0.309208	3.174359	0.000000	-0.086480	0.000000	0.003968	-0.000007	0.000000	0.000000
21.406249	22.787367	11.610905	1.163741	-0.735555	3.101043	0.000000	-0.180306	0.000000	0.003929	-0.000135	0.000000	0.000000
21.955309	21.152898	12.675268	1.795196	-1.214299	2.977079	0.000000	-0.270936	0.000000	0.003820	-0.000261	0.000000	0.000000
22.504369	18.890874	14.309508	2.299821	-1.779544	2.804663	0.000000	-0.356764	0.000000	0.003643	-0.000382	0.000000	0.000000
22.950329	17.109122	15.777043	1.709255	-1.497159	2.662992	0.000000	-0.279546	0.000000	0.003493	-0.000289	0.000000	0.000000
23.391289	15.830300	16.947771	1.201574	-1.147561	2.556145	0.000000	-0.205976	0.000000	0.003385	-0.000201	0.000000	0.000000
23.832249	14.973443	17.785873	0.748800	-0.745746	2.481156	0.000000	-0.134751	0.000000	0.003316	-0.000114	0.000000	0.000000
24.273209	14.499391	18.253214	0.330243	-0.309997	2.437172	0.000000	-0.065059	0.000000	0.003285	-0.000029	0.000000	0.000000
24.715418	14.386584	18.328282	-0.039139	0.096238	2.423691	0.000000	-0.001864	0.000000	0.003290	0.000048	0.000000	0.000000
25.012741	14.416011	18.275922	-0.059837	0.079866	2.423122	0.000000	-0.001864	0.000000	0.003305	0.000048	0.000000	0.000000
25.346075	14.463638	18.228796	-0.083042	0.061511	2.422485	0.000000	-0.001864	0.000000	0.003321	0.000048	0.000000	0.000000
25.679408	14.526734	18.193907	-0.106247	0.043156	2.421848	0.000000	-0.001864	0.000000	0.003336	0.000048	0.000000	0.000000
26.013991	14.605328	18.171562	-0.011052	-0.122685	2.421183	0.000000	-0.021507	0.000000	0.003352	0.000021	0.000000	0.000000
26.311314	14.617949	18.249460	0.003288	-0.182610	2.414782	0.000000	-0.027239	0.000000	0.003359	0.000012	0.000000	0.000000
26.752274	14.795378	18.212657	-0.407143	0.265751	2.417867	0.000000	0.041349	0.000000	0.003383	0.000099	0.000000	0.000000
27.193234	15.341614	17.784258	-0.836178	0.702018	2.451235	0.000000	0.110407	0.000000	0.003446	0.000187	0.000000	0.000000
27.634194	16.281620	16.983757	-1.303424	1.106342	2.515266	0.000000	0.180720	0.000000	0.003549	0.000278	0.000000	0.000000
28.075154	17.658354	15.847577	-1.830231	1.460324	2.610689	0.000000	0.253089	0.000000	0.003692	0.000371	0.000000	0.000000
28.521114	19.558705	14.410274	-2.445689	1.748838	2.740197	0.000000	0.328793	0.000000	0.003879	0.000469	0.000000	0.000000
29.070174	21.974469	12.809046	-1.927588	1.184519	2.897829	0.000000	0.245293	0.000000	0.004101	0.000340	0.000000	0.000000
29.619234	23.742620	11.777844	-1.273301	0.704579	3.008419	0.000000	0.157447	0.000000	0.004251	0.000204	0.000000	0.000000
30.168294	24.738227	11.243213	-0.529052	0.274830	3.070008	0.000000	0.066811	0.000000	0.004325	0.000066	0.000000	0.000000
30.717354	24.890942	11.167070	0.252574	-0.135341	3.081504	0.000000	-0.025008	0.000000	0.004322	-0.000075	0.000000	0.000000
31.015927	24.781228	11.239177	0.177493	-0.134265	3.076371	0.000000	-0.017252	0.000000	0.004304	-0.000063	0.000000	0.000000
31.349260	24.667524	11.338752	0.163619	-0.164458	3.070642	0.000000	-0.017252	0.000000	0.004282	-0.000063	0.000000	0.000000
31.682593	24.563070	11.458455	0.149744	-0.194651	3.064912	0.000000	-0.017252	0.000000	0.004261	-0.000063	0.000000	0.000000
32.017177	24.467526	11.598848	0.135817	-0.224957	3.059161	0.000000	-0.017252	0.000000	0.004240	-0.000063	0.000000	0.000000
32.314499	24.390456	11.740619	0.061993	-0.222318	3.054052	0.000000	-0.009558	0.000000	0.004221	-0.000053	0.000000	0.000000
32.863559	23.904689	12.223853	0.817358	-0.662937	3.023941	0.000000	-0.100186	0.000000	0.004155	-0.000188	0.000000	0.000000
33.412619	22.616302	13.213906	1.514975	-1.150780	2.944552	0.000000	-0.189040	0.000000	0.004015	-0.000321	0.000000	0.000000
33.961679	20.616330	14.781300	2.105556	-1.720599	2.817292	0.000000	-0.274546	0.000000	0.003804	-0.000447	0.000000	0.000000
34.510739	18.046085	17.037684	2.547377	-2.412983	2.644415	0.000000	-0.355189	0.000000	0.003525	-0.000566	0.000000	0.000000
34.956699	16.048376	19.056010	1.947795	-2.093729	2.502602	0.000000	-0.282132	0.000000	0.003292	-0.000478	0.000000	0.000000
35.397659	14.558993	20.726516	1.442265	-1.680021	2.393781	0.000000	-0.212724	0.000000	0.003100	-0.000395	0.000000	0.000000
35.838619	13.484853	21.996911	1.002641	-1.189867	2.314971	0.000000	-0.145734	0.000000	0.002943	-0.000317	0.000000	0.000000
36.279579	12.776868	22.809392	0.608833	-0.645572	2.265278	0.000000	-0.080401	0.000000	0.002820	-0.000243	0.000000	0.000000
36.721789	12.402005	23.127303	0.272363	-0.127141	2.244109	0.000000	-0.021342	0.000000	0.002728	-0.000178	0.000000	0.000000
37.019112	12.247702	23.206791	0.246611	-0.140205	2.237816	0.000000	-0.021342	0.000000	0.002675	-0.000178	0.000000	0.000000
37.352445	12.092919	23.305143	0.217740	-0.154851	2.230762	0.000000	-0.021342	0.000000	0.002616	-0.000178	0.000000	0.000000
37.685779	11.957383	23.413259	0.188869	-0.169497	2.223707	0.000000	-0.021342	0.000000	0.002556	-0.000178	0.000000	0.000000
38.020362	11.840694	23.531599	0.159889	-0.184198	2.216626	0.000000	-0.021342	0.000000	0.002497	-0.000178	0.000000	0.000000
38.317684	11.753271	23.645020	0.162289	-0.253960	2.210334	0.000000	-0.026636	0.000000	0.002444	-0.000184	0.000000	0.000000
38.758644	11.760332	23.607043	-0.178413	0.339752	2.212609	0.000000	0.036668	0.000000	0.002376	-0.000122	0.000000	0.000000
39.199604	12.070330	23.050285	-0.527267	0.918004	2.242839	0.000000	0.100392	0.000000	0.002336	-0.000061	0.000000	0.000000
39.640564	12.697428	22.000081	-0.900213	1.454484	2.301370	0.000000	0.165260	0.000000	0.002322	-0.000001	0.000000	0.000000
40.081524	13.670282	20.504218	-1.314290	1.924783	2.388867	0.000000	0.232010	0.000000	0.002335	0.000059	0.000000	0.000000
40.527484	15.050879	18.608132	-1.792278	2.308847	2.507805	0.000000	0.301815	0.000000	0.002374	0.000120	0.000000	0.000000
41.076544	16.813929	16.477200	-1.399598	1.594987	2.652896	0.000000	0.226054	0.000000	0.002419	0.000042	0.000000	0.000000
41.625604	18.088554	15.063579	-0.908045	0.994742	2.755266	0.000000	0.146282	0.000000	0.002421	-0.000036	0.000000	0.000000
42.174664	18.784708	14.266576	-0.352347	0.465355	2.813099	0.000000	0.063916	0.000000	0.002379	-0.000114	0.000000	0.000000
42.723724	18.853214	14.029417	0.228239	-0.030883	2.825367	0.000000	-0.019586	0.000000	0.002296	-0.000190	0.000000	0.000000
43.022297	18.750647	14.032727	0.163583	-0.016180	2.821736	0.000000	-0.012347	0.000000	0.002241	-0.000184	0.000000	0.000000
43.502297	18.606223	14.064683	0.137299	-0.050395	2.815897	0.000000	-0.012347	0.000000	0.002153	-0.000184	0.000000	0.000000
43.982297	18.487033	14.129485	0.111015	-0.084610	2.810059	0.000000	-0.012347	0.000000	0.002065	-0.000184	0.000000	0.000000
44.462297	18.393075	14.227134	0.084731	-0.118825	2.804221	0.000000	-0.012347	0.000000	0.001976	-0.000184	0.000000	0.000000
44.942297	18.324350	14.357628	0.058447	-0.153039	2.798383	0.000000	-0.012347	0.000000	0.001888	-0.000184	0.000000	0.000000
45.423547	18.281003	14.521258	-0.058480	-0.115396	2.792546	0.000000	0.001489	0.000000	0.001800	-0.000175	0.000000	0.000000
45.720870	18.320632	14.596045	-0.121964	-0.098603	2.793041	0.000000	0.008679	0.000000	0.001748	-0.000170	0.000000	0.000000
46.269930	18.145987	14.986510	0.438050	-0.616729	2.775273	0.000000	-0.073685	0.000000	0.001639	-0.000225	0.000000	0.000000
46.818990	17.369784	15.966590	0.967116	-1.178784	2.712601	0.000000	-0.154745	0.000000	0.001501	-0.000276	0.000000	0.000000
47.368050	16.046862	17.606095	1.427860	-1.824803	2.606135	0.000000	-0.233065	0.000000	0.001337	-0.000322	0.000000	0.000000
47.917110	14.270678	20.021801	1.787737	-2.600802	2.457761	0.000000	-0.307257	0.000000	0.001149	-0.000362	0.000000	0.000000
48.363070	12.887907	22.169377	1.323732	-2.194519	2.336215	0.000000	-0.238790	0.000000	0.000993	-0.000335	0.000000	0.000000
48.804030	11.900436	23.888726	0.923988	-1.689695	2.245549	0.000000	-0.173441	0.000000	0.000851	-0.000311	0.000000	0.000000
49.244990	11.245640	25.127120	0.566461	-1.107990	2.183228	0.000000	-0.110064	0.000000	0.000719	-0.000291	0.000000	0.000000
49.685950	10.893601	25.828215	0.234818	-0.475873	2.148545	0.000000	-0.047938	0.000000	0.000594	-0.000274	0.000000	0.000000
50.128160	10.828381	25.959827	-0.059777	0.114569	2.141116	0.000000	0.008419	0.000000	0.000477	-0.000261	0.000000	0.000000
50.425482	10.872120	25.895149	-0.087333	0.102965	2.143697	0.000000	0.008419	0.000000	0.000399	-0.000261	0.000000	0.000000
50.758816	10.940640	25.830842	-0.118226	0.089956	2.146590	0.000000	0.008419	0.000000	0.000312	-0.000261	0.000000	0.000000
51.092149	11.029755	25.775208	-0.149119	0.076947	2.149483	0.000000	0.008419	0.000000	0.000225	-0.000261	0.000000	0.000000
51.426732	11.139690	25.728608	-0.089756	-0.144833	2.152365	0.000000	-0.009043	0.000000	0.000138	-0.000262	0.000000	0.000000
51.724055	11.201062	25.818240	-0.089209	-0.220007	2.149754	0.000000	-0.014312	0.000000	0.000060	-0.000262	0.000000	0.000000
52.165015	11.425798	25.724983	-0.422460	0.430690	2.157175	0.000000	0.047494	0.000000	-0.000056	-0.000262	0.000000	0.000000
52.605975	11.951800	25.064347	-0.775011	1.061789	2.191944	0.000000	0.109843	0.000000	-0.000172	-0.000265	0.000000	0.000000
53.046935	12.803097	23.866393	-1.162968	1.644577	2.254458	0.000000	0.173445	0.000000	-0.000290	-0.000271	0.000000	0.000000
53.487895	14.018579	22.185630	-1.604054	2.152537	2.345430	0.000000	0.239026	0.000000	-0.000411	-0.000280	0.000000	0.000000
53.933855	15.674582	20.073410	-2.122679	2.563887	2.467406	0.000000	0.307731	0.000000	-0.000539	-0.000292	0.000000	0.000000
54.482915	17.806395	17.696511	-1.737166	1.790739	2.616282	0.000000	0.233225	0.000000	-0.000694	-0.000272	0.000000	0.000000
55.031975	19.444577	16.094014	-1.228957	1.145140	2.723039	0.000000	0.154577	0.000000	-0.000837	-0.000248	0.000000	0.000000
55.581035	20.473428	15.151775	-0.633948	0.581106	2.785780	0.000000	0.073184	0.000000	-0.000965	-0.000218	0.000000	0.000000
56.130095	20.820284	14.802679	0.005833	0.058463	2.803393	0.000000	-0.009511	0.000000	-0.001076	-0.000185	0.000000	0.000000
56.428668	20.853869	14.750521	-0.063431	0.077165	2.802816	0.000000	-0.002120	0.000000	-0.001132	-0.000188	0.000000	0.000000
56.762001	20.901506	14.706656	-0.079480	0.054432	2.802172	0.000000	-0.002120	0.000000	-0.001195	-0.000188	0.000000	0.000000
57.095334	20.959842	14.677945	-0.095528	0.031699	2.801528	0.000000	-0.002120	0.000000	-0.001258	-0.000188	0.000000	0.000000
57.429918	21.029156	14.664368	-0.111637	0.008881	2.800881	0.000000	-0.002120	0.000000	-0.001321	-0.000188	0.000000	0.000000
57.727240	21.099798	14.665114	-0.181715	0.027322	2.800307	0.000000	0.005280	0.000000	-0.001377	-0.000192	0.000000	0.000000
58.276300	20.939025	14.916580	0.472701	-0.488027	2.780601	0.000000	-0.077280	0.000000	-0.001470	-0.000146	0.000000	0.000000
58.825360	20.073820	15.749600	1.093727	-1.038136	2.715851	0.000000	-0.158471	0.000000	-0.001536	-0.000097	0.000000	0.000000
59.374420	18.565295	17.223504	1.637500	-1.662184	2.607203	0.000000	-0.236854	0.000000	-0.001576	-0.000047	0.000000	0.000000
59.923480	16.519995	19.443272	2.065616	-2.404621	2.456583	0.000000	-0.311036	0.000000	-0.001587	0.000005	0.000000	0.000000
60.369440	14.918547	21.416162	1.538160	-2.000687	2.333199	0.000000	-0.242637	0.000000	-0.001594	-0.000037	0.000000	0.000000
60.810400	13.766146	22.968815	1.085182	-1.507070	2.240705	0.000000	-0.177393	0.000000	-0.001620	-0.000078	0.000000	0.000000
61.251360	12.989934	24.054133	0.681779	-0.944885	2.176526	0.000000	-0.114169	0.000000	-0.001663	-0.000120	0.000000	0.000000
61.692320	12.554448	24.622738	0.309524	-0.339711	2.139932	0.000000	-0.052244	0.000000	-0.001726	-0.000164	0.000000	0.000000
62.134530	12.439840	24.648211	-0.017664	0.219465	2.130511	0.000000	0.003775	0.000000	-0.001808	-0.000205	0.000000	0.000000
62.431853	12.457452	24.521466	-0.041573	0.206821	2.131694	0.000000	0.003775	0.000000	-0.001869	-0.000205	0.000000	0.000000
62.765186	12.494102	24.388311	-0.068377	0.192646	2.133021	0.000000	0.003775	0.000000	-0.001938	-0.000205	0.000000	0.000000
63.098520	12.548621	24.264605	-0.095181	0.178471	2.134347	0.000000	0.003775	0.000000	-0.002006	-0.000205	0.000000	0.000000
63.433103	12.621314	24.149939	-0.122085	0.164243	2.135679	0.000000	0.003775	0.000000	-0.002075	-0.000205	0.000000	0.000000
63.730426	12.701019	24.056035	-0.114221	0.091353	2.136862	0.000000	-0.001571	0.000000	-0.002136	-0.000200	0.000000	0.000000
64.171386	12.963100	23.710587	-0.482478	0.689091	2.149823	0.000000	0.059970	0.000000	-0.002236	-0.000256	0.000000	0.000000
64.612346	13.558386	22.849863	-0.872773	1.255476	2.190069	0.000000	0.122196	0.000000	-0.002362	-0.000315	0.000000	0.000000
65.053306	14.514067	21.513028	-1.302936	1.764741	2.258061	0.000000	0.185818	0.000000	-0.002515	-0.000378	0.000000	0.000000
65.494266	15.873794	19.760904	-1.792616	2.193717	2.354574	0.000000	0.251560	0.000000	-0.002696	-0.000445	0.000000	0.000000
65.940226	17.722889	17.648426	-2.368821	2.523573	2.482282	0.000000	0.320564	0.000000	-0.002911	-0.000518	0.000000	0.000000
66.489286	20.092035	15.285403	-1.920990	1.805777	2.638146	0.000000	0.245469	0.000000	-0.003169	-0.000420	0.000000	0.000000
67.038346	21.891587	13.635755	-1.337497	1.216592	2.751465	0.000000	0.166013	0.000000	-0.003371	-0.000314	0.000000	0.000000
67.587406	22.994468	12.581985	-0.659550	0.714056	2.820228	0.000000	0.083607	0.000000	-0.003512	-0.000202	0.000000	0.000000
68.136466	23.322800	12.049038	0.064973	0.262376	2.843211	0.000000	-0.000284	0.000000	-0.003592	-0.000087	0.000000	0.000000
68.435038	23.325289	11.881038	-0.010584	0.267878	2.845439	0.000000	0.007366	0.000000	-0.003621	-0.000097	0.000000	0.000000
68.768372	23.337109	11.712476	-0.024876	0.237809	2.847927	0.000000	0.007366	0.000000	-0.003653	-0.000097	0.000000	0.000000
69.101705	23.358457	11.563959	-0.039168	0.207740	2.850414	0.000000	0.007366	0.000000	-0.003685	-0.000097	0.000000	0.000000
69.436288	23.389467	11.435045	-0.053514	0.177558	2.852911	0.000000	0.007366	0.000000	-0.003718	-0.000097	0.000000	0.000000
69.733611	23.425089	11.337431	-0.129370	0.181264	2.855131	0.000000	0.015058	0.000000	-0.003746	-0.000107	0.000000	0.000000
70.282671	23.164865	11.365523	0.600503	-0.232733	2.840229	0.000000	-0.069350	0.000000	-0.003772	0.000015	0.000000	0.000000
