#ParticleID	Turn	x[m]	xp	y[m]	yp	z[m]	dE[GeV]# s	beta_x	beta_y	alpha_x	alpha_y	D_x	D_y	D_px	D_py	orbit_x	orbit_px	orbit_y	orbit_py
0.300000	11.965551	25.316264	-0.018832	-0.022134	2.598446	0.000000	0.000010	0.000000	-0.001013	0.000873	0.000000	0.000000
0.601250	11.984484	25.333186	-0.044018	-0.034039	2.598186	0.000000	0.000010	0.000000	-0.000750	0.000873	0.000000	0.000000
0.898573	12.018050	25.356921	-0.039266	-0.107943	2.597929	0.000000	-0.006391	0.000000	-0.000490	0.000875	0.000000	0.000000
1.339533	12.206607	25.170694	-0.389663	0.528658	2.610919	0.000000	0.067039	0.000000	-0.000107	0.000867	0.000000	0.000000
1.780493	12.710847	24.431536	-0.757869	1.141208	2.656426	0.000000	0.141224	0.000000	0.000276	0.000869	0.000000	0.000000
2.221453	13.553815	23.173069	-1.160707	1.701837	2.734964	0.000000	0.217008	0.000000	0.000661	0.000881	0.000000	0.000000
2.662413	14.774035	21.452545	-1.616584	2.185035	2.847424	0.000000	0.295254	0.000000	0.001054	0.000903	0.000000	0.000000
3.108373	16.448345	19.323030	-2.150703	2.569990	2.996928	0.000000	0.377344	0.000000	0.001464	0.000936	0.000000	0.000000
3.657433	18.594513	16.930855	-1.734405	1.812475	3.178594	0.000000	0.285140	0.000000	0.001963	0.000880	0.000000	0.000000
4.206493	20.213138	15.295180	-1.195570	1.184062	3.308207	0.000000	0.187892	0.000000	0.002428	0.000809	0.000000	0.000000
4.755553	21.189852	14.299506	-0.572260	0.639988	3.383475	0.000000	0.087324	0.000000	0.002849	0.000724	0.000000	0.000000
5.304613	21.455634	13.872922	0.091492	0.141500	3.403067	0.000000	-0.014781	0.000000	0.003220	0.000625	0.000000	0.000000
5.603185	21.437720	13.774074	0.023021	0.154443	3.401047	0.000000	-0.006131	0.000000	0.003409	0.000634	0.000000	0.000000
5.936519	21.427558	13.679371	0.007464	0.129666	3.398792	0.000000	-0.006131	0.000000	0.003621	0.000634	0.000000	0.000000
6.269852	21.427768	13.601187	-0.008093	0.104889	3.396537	0.000000	-0.006131	0.000000	0.003832	0.000634	0.000000	0.000000
6.604435	21.438408	13.539320	-0.023708	0.080018	3.394273	0.000000	-0.006131	0.000000	0.004044	0.000634	0.000000	0.000000
6.901758	21.456643	13.498301	-0.091635	0.092047	3.392263	0.000000	0.002414	0.000000	0.004232	0.000645	0.000000	0.000000
7.450818	21.191396	13.659072	0.572187	-0.386569	3.365344	0.000000	-0.099226	0.000000	0.004548	0.000502	0.000000	0.000000
7.999878	20.215070	14.357405	1.195596	-0.892724	3.283095	0.000000	-0.199098	0.000000	0.004782	0.000351	0.000000	0.000000
8.548938	18.596636	15.643052	1.734544	-1.462477	3.146978	0.000000	-0.295432	0.000000	0.004932	0.000194	0.000000	0.000000
9.097998	16.450439	17.607601	2.150951	-2.136414	2.959412	0.000000	-0.386523	0.000000	0.004994	0.000033	0.000000	0.000000
9.543958	14.776100	19.357860	1.616653	-1.771422	2.805152	0.000000	-0.305444	0.000000	0.005038	0.000163	0.000000	0.000000
9.984918	13.555987	20.729542	1.160684	-1.327185	2.687469	0.000000	-0.228344	0.000000	0.005139	0.000294	0.000000	0.000000
10.425878	12.713227	21.681183	0.757752	-0.822553	2.603124	0.000000	-0.153849	0.000000	0.005298	0.000429	0.000000	0.000000
10.866838	12.209310	22.169475	0.389445	-0.280488	2.551154	0.000000	-0.081111	0.000000	0.005518	0.000568	0.000000	0.000000
11.309048	12.021055	22.171617	0.066665	0.222715	2.530946	0.000000	-0.015164	0.000000	0.005801	0.000700	0.000000	0.000000
11.606371	11.988799	22.043365	0.041822	0.208640	2.526229	0.000000	-0.015164	0.000000	0.006009	0.000700	0.000000	0.000000
12.086371	11.967902	21.853978	0.001715	0.185916	2.518614	0.000000	-0.015164	0.000000	0.006345	0.000700	0.000000	0.000000
12.566371	11.985508	21.686406	-0.038393	0.163193	2.510999	0.000000	-0.015164	0.000000	0.006681	0.000700	0.000000	0.000000
13.046371	12.041616	21.540647	-0.078500	0.140470	2.503384	0.000000	-0.015164	0.000000	0.007018	0.000700	0.000000	0.000000
13.526371	12.136228	21.416703	-0.118608	0.117747	2.495769	0.000000	-0.015164	0.000000	0.007354	0.000700	0.000000	0.000000
14.007621	12.269740	21.314336	-0.158820	0.094965	2.488135	0.000000	-0.015164	0.000000	0.007691	0.000700	0.000000	0.000000
14.304943	12.371546	21.262089	-0.155639	0.032927	2.483415	0.000000	-0.020790	0.000000	0.007899	0.000682	0.000000	0.000000
14.745903	12.667507	21.000483	-0.517725	0.558013	2.489432	0.000000	0.049614	0.000000	0.008245	0.000890	0.000000	0.000000
15.186863	13.292071	20.285206	-0.903480	1.057707	2.526500	0.000000	0.120573	0.000000	0.008685	0.001108	0.000000	0.000000
15.627823	14.273798	19.148801	-1.330537	1.509268	2.595037	0.000000	0.192895	0.000000	0.009224	0.001339	0.000000	0.000000
16.068783	15.657579	17.642977	-1.818419	1.892143	2.695821	0.000000	0.267399	0.000000	0.009868	0.001585	0.000000	0.000000
16.514743	17.530327	15.814622	-2.394383	2.189854	2.831688	0.000000	0.345426	0.000000	0.010634	0.001851	0.000000	0.000000
17.063803	19.934921	13.773906	-1.957551	1.548238	2.996960	0.000000	0.258816	0.000000	0.011553	0.001491	0.000000	0.000000
17.612863	21.780399	12.373504	-1.382349	1.016929	3.113543	0.000000	0.167637	0.000000	0.012267	0.001106	0.000000	0.000000
18.161923	22.936280	11.513654	-0.709429	0.558075	3.179378	0.000000	0.073502	0.000000	0.012764	0.000700	0.000000	0.000000
18.710983	23.320833	11.133104	0.013646	0.138983	3.193302	0.000000	-0.021927	0.000000	0.013034	0.000282	0.000000	0.000000
19.009556	23.348673	11.043011	-0.053229	0.137193	3.188864	0.000000	-0.014526	0.000000	0.013128	0.000314	0.000000	0.000000
19.342889	23.388931	10.961800	-0.067545	0.106440	3.183917	0.000000	-0.014526	0.000000	0.013232	0.000314	0.000000	0.000000
19.676223	23.438734	10.901092	-0.081862	0.075687	3.178970	0.000000	-0.014526	0.000000	0.013337	0.000314	0.000000	0.000000
20.010806	23.498612	10.860638	-0.212658	0.098628	3.174025	0.000000	0.001200	0.000000	0.013442	0.000381	0.000000	0.000000
20.308129	23.629128	10.810150	-0.280352	0.095973	3.174277	0.000000	0.008518	0.000000	0.013555	0.000414	0.000000	0.000000
20.857189	23.529664	10.924384	0.460529	-0.305215	3.152821	0.000000	-0.086174	0.000000	0.013662	-0.000027	0.000000	0.000000
21.406249	22.629436	11.488542	1.168861	-0.728151	3.079939	0.000000	-0.179337	0.000000	0.013526	-0.000468	0.000000	0.000000
21.955309	20.992091	12.542820	1.794572	-1.202969	2.956923	0.000000	-0.269325	0.000000	0.013150	-0.000900	0.000000	0.000000
22.504369	18.733391	14.162328	2.293434	-1.763502	2.785951	0.000000	-0.354549	0.000000	0.012540	-0.001316	0.000000	0.000000
22.950329	16.955425	15.617310	1.705984	-1.484619	2.645499	0.000000	-0.277756	0.000000	0.012025	-0.000997	0.000000	0.000000
23.391289	15.677803	16.778944	1.201490	-1.139238	2.539588	0.000000	-0.204610	0.000000	0.011653	-0.000692	0.000000	0.000000
23.832249	14.819437	17.611805	0.751924	-0.742008	2.465268	0.000000	-0.133788	0.000000	0.011413	-0.000395	0.000000	0.000000
24.273209	14.341075	18.077992	0.336731	-0.311006	2.421692	0.000000	-0.064486	0.000000	0.011304	-0.000102	0.000000	0.000000
24.715418	14.220979	18.155985	-0.032126	0.094416	2.408370	0.000000	-0.001172	0.000000	0.011323	0.000164	0.000000	0.000000
25.012741	14.246305	18.104753	-0.053055	0.077894	2.407972	0.000000	-0.001172	0.000000	0.011372	0.000164	0.000000	0.000000
25.346075	14.289496	18.058998	-0.076518	0.059371	2.407527	0.000000	-0.001172	0.000000	0.011427	0.000164	0.000000	0.000000
25.679408	14.348330	18.025592	-0.099982	0.040847	2.407082	0.000000	-0.001172	0.000000	0.011481	0.000164	0.000000	0.000000
26.013991	14.422822	18.004845	-0.006526	-0.123809	2.406611	0.000000	-0.020696	0.000000	0.011536	0.000070	0.000000	0.000000
26.311314	14.432776	18.083523	0.004267	-0.179919	2.400432	0.000000	-0.025920	0.000000	0.011557	0.000043	0.000000	0.000000
26.752274	14.607477	18.046315	-0.401810	0.263964	2.403963	0.000000	0.042318	0.000000	0.011641	0.000342	0.000000	0.000000
27.193234	15.147140	17.621394	-0.826256	0.695833	2.437537	0.000000	0.111035	0.000000	0.011859	0.000645	0.000000	0.000000
27.634194	16.076444	16.828097	-1.288478	1.096034	2.501537	0.000000	0.181010	0.000000	0.012212	0.000956	0.000000	0.000000
28.075154	17.437890	15.702523	-1.809608	1.446350	2.596689	0.000000	0.253037	0.000000	0.012704	0.001277	0.000000	0.000000
28.521114	19.317674	14.278750	-2.418655	1.732001	2.725688	0.000000	0.328417	0.000000	0.013348	0.001615	0.000000	0.000000
29.070174	21.708213	12.693250	-1.907755	1.172141	2.882737	0.000000	0.245369	0.000000	0.014114	0.001170	0.000000	0.000000
29.619234	23.459661	11.673450	-1.261993	0.695799	2.993163	0.000000	0.157987	0.000000	0.014629	0.000704	0.000000	0.000000
30.168294	24.448172	11.146697	-0.527018	0.269035	3.055011	0.000000	0.067812	0.000000	0.014885	0.000226	0.000000	0.000000
30.717354	24.603849	11.075462	0.245212	-0.138558	3.067187	0.000000	-0.023562	0.000000	0.014876	-0.000256	0.000000	0.000000
31.015927	24.494427	11.151360	0.176690	-0.140632	3.062290	0.000000	-0.016587	0.000000	0.014811	-0.000220	0.000000	0.000000
31.349260	24.381311	11.255275	0.162657	-0.171115	3.056834	0.000000	-0.016587	0.000000	0.014737	-0.000220	0.000000	0.000000
31.682593	24.277551	11.379513	0.148623	-0.201598	3.051379	0.000000	-0.016587	0.000000	0.014664	-0.000220	0.000000	0.000000
32.017177	24.182811	11.524653	0.134537	-0.232195	3.045902	0.000000	-0.016587	0.000000	0.014590	-0.000220	0.000000	0.000000
32.314499	24.106680	11.670738	0.066993	-0.232777	3.041046	0.000000	-0.009646	0.000000	0.014525	-0.000184	0.000000	0.000000
32.863559	23.620349	12.164744	0.813046	-0.672079	3.011146	0.000000	-0.099884	0.000000	0.014295	-0.000651	0.000000	0.000000
33.412619	22.341309	13.164563	1.501619	-1.159270	2.932345	0.000000	-0.188361	0.000000	0.013812	-0.001107	0.000000	0.000000
33.961679	20.360007	14.741424	2.084037	-1.729060	2.806035	0.000000	-0.273513	0.000000	0.013083	-0.001543	0.000000	0.000000
34.510739	17.816535	17.007663	2.519134	-2.422047	2.634447	0.000000	-0.353837	0.000000	0.012122	-0.001951	0.000000	0.000000
34.956699	15.840531	19.035194	1.925840	-2.104527	2.493714	0.000000	-0.280987	0.000000	0.011320	-0.001647	0.000000	0.000000
35.397659	14.367674	20.716076	1.425766	-1.692235	2.385794	0.000000	-0.211784	0.000000	0.010657	-0.001364	0.000000	0.000000
35.838619	13.305689	21.997796	0.990873	-1.202927	2.307721	0.000000	-0.144979	0.000000	0.010115	-0.001096	0.000000	0.000000
36.279579	12.606010	22.822030	0.601280	-0.658876	2.258611	0.000000	-0.079814	0.000000	0.009689	-0.000841	0.000000	0.000000
36.721789	12.236007	23.151558	0.266348	-0.136321	2.237886	0.000000	-0.020538	0.000000	0.009372	-0.000617	0.000000	0.000000
37.019112	12.085362	23.236510	0.240325	-0.149403	2.231963	0.000000	-0.020538	0.000000	0.009188	-0.000617	0.000000	0.000000
37.352445	11.934870	23.341000	0.211151	-0.164068	2.225323	0.000000	-0.020538	0.000000	0.008983	-0.000617	0.000000	0.000000
37.685779	11.803827	23.455267	0.181976	-0.178733	2.218682	0.000000	-0.020538	0.000000	0.008777	-0.000617	0.000000	0.000000
38.020362	11.691853	23.579795	0.152692	-0.193454	2.212017	0.000000	-0.020538	0.000000	0.008571	-0.000617	0.000000	0.000000
38.317684	11.608769	23.698770	0.152832	-0.260153	2.206091	0.000000	-0.025510	0.000000	0.008388	-0.000637	0.000000	0.000000
38.758644	11.622715	23.665584	-0.184751	0.335116	2.209003	0.000000	0.037703	0.000000	0.008154	-0.000423	0.000000	0.000000
39.199604	11.937030	23.112103	-0.530776	0.915133	2.239772	0.000000	0.101350	0.000000	0.008014	-0.000215	0.000000	0.000000
39.640564	12.566078	22.063520	-0.901056	1.453502	2.298749	0.000000	0.166154	0.000000	0.007964	-0.000009	0.000000	0.000000
40.081524	13.538612	20.567553	-1.312517	1.925722	2.386608	0.000000	0.232851	0.000000	0.008006	0.000197	0.000000	0.000000
40.527484	14.916653	18.669538	-1.787919	2.311809	2.505835	0.000000	0.302629	0.000000	0.008140	0.000406	0.000000	0.000000
41.076544	16.677935	16.536144	-1.400401	1.596212	2.651296	0.000000	0.226911	0.000000	0.008291	0.000140	0.000000	0.000000
41.625604	17.956363	15.121960	-0.913928	0.994335	2.754153	0.000000	0.147170	0.000000	0.008294	-0.000128	0.000000	0.000000
42.174664	18.661590	14.326235	-0.362879	0.463300	2.812580	0.000000	0.064815	0.000000	0.008150	-0.000395	0.000000	0.000000
42.723724	18.743784	14.092277	0.213803	-0.034726	2.825539	0.000000	-0.018696	0.000000	0.007861	-0.000654	0.000000	0.000000
43.022297	18.648245	14.098776	0.151745	-0.021435	2.822200	0.000000	-0.011810	0.000000	0.007672	-0.000634	0.000000	0.000000
43.502297	18.515209	14.135703	0.125413	-0.055496	2.816836	0.000000	-0.011810	0.000000	0.007367	-0.000634	0.000000	0.000000
43.982297	18.407452	14.205329	0.099081	-0.089557	2.811471	0.000000	-0.011810	0.000000	0.007063	-0.000634	0.000000	0.000000
44.462297	18.324974	14.307654	0.072748	-0.123619	2.806107	0.000000	-0.011810	0.000000	0.006758	-0.000634	0.000000	0.000000
44.942297	18.267775	14.442677	0.046416	-0.157680	2.800743	0.000000	-0.011810	0.000000	0.006454	-0.000634	0.000000	0.000000
45.423547	18.236032	14.610697	-0.070337	-0.119439	2.795382	0.000000	0.002040	0.000000	0.006149	-0.000604	0.000000	0.000000
45.720870	18.282748	14.687843	-0.132066	-0.103777	2.796169	0.000000	0.008975	0.000000	0.005969	-0.000589	0.000000	0.000000
46.269930	18.119626	15.085622	0.427019	-0.624913	2.778787	0.000000	-0.073507	0.000000	0.005594	-0.000776	0.000000	0.000000
46.818990	17.355485	16.076653	0.955920	-1.190563	2.716497	0.000000	-0.154698	0.000000	0.005119	-0.000950	0.000000	0.000000
47.368050	16.044337	17.731522	1.417268	-1.841022	2.610399	0.000000	-0.233159	0.000000	0.004554	-0.001106	0.000000	0.000000
47.917110	14.278844	20.168097	1.778469	-2.622624	2.462366	0.000000	-0.307503	0.000000	0.003908	-0.001244	0.000000	0.000000
48.363070	12.903836	22.333889	1.315082	-2.213210	2.341100	0.000000	-0.238902	0.000000	0.003375	-0.001149	0.000000	0.000000
48.804030	11.923691	24.068113	0.915608	-1.704484	2.250745	0.000000	-0.173421	0.000000	0.002886	-0.001068	0.000000	0.000000
49.244990	11.276178	25.317608	0.557979	-1.118203	2.188775	0.000000	-0.109903	0.000000	0.002431	-0.001000	0.000000	0.000000
49.685950	10.931699	26.025529	0.225853	-0.481044	2.154489	0.000000	-0.047626	0.000000	0.002003	-0.000943	0.000000	0.000000
50.128160	10.874681	26.159384	-0.069801	0.115106	2.147513	0.000000	0.008932	0.000000	0.001597	-0.000900	0.000000	0.000000
50.425482	10.924356	26.094361	-0.097275	0.103589	2.150436	0.000000	0.008932	0.000000	0.001329	-0.000900	0.000000	0.000000
50.758816	10.999474	26.029606	-0.128076	0.090678	2.153713	0.000000	0.008932	0.000000	0.001029	-0.000900	0.000000	0.000000
51.092149	11.095125	25.973457	-0.158878	0.077767	2.156991	0.000000	0.008932	0.000000	0.000729	-0.000900	0.000000	0.000000
51.426732	11.211558	25.926280	-0.098840	-0.145520	2.160258	0.000000	-0.008594	0.000000	0.000428	-0.000904	0.000000	0.000000
51.724055	11.278294	26.016295	-0.098002	-0.221270	2.157972	0.000000	-0.013878	0.000000	0.000159	-0.000904	0.000000	0.000000
52.165015	11.511542	25.921834	-0.433252	0.434670	2.165906	0.000000	0.048146	0.000000	-0.000240	-0.000905	0.000000	0.000000
52.605975	12.048020	25.255437	-0.788290	1.070830	2.201289	0.000000	0.110728	0.000000	-0.000641	-0.000916	0.000000	0.000000
53.046935	12.912230	24.047433	-1.179334	1.658264	2.264529	0.000000	0.174580	0.000000	-0.001049	-0.000938	0.000000	0.000000
53.487895	14.143644	22.352793	-1.624249	2.170249	2.356348	0.000000	0.240431	0.000000	-0.001470	-0.000971	0.000000	0.000000
53.933855	15.819557	20.223300	-2.147628	2.584796	2.479317	0.000000	0.309426	0.000000	-0.001912	-0.001015	0.000000	0.000000
54.482915	17.976719	17.826647	-1.758534	1.806115	2.629382	0.000000	0.234520	0.000000	-0.002450	-0.000944	0.000000	0.000000
55.031975	19.635470	16.209832	-1.245256	1.156075	2.737067	0.000000	0.155439	0.000000	-0.002945	-0.000856	0.000000	0.000000
55.581035	20.678684	15.257686	-0.644047	0.588377	2.800457	0.000000	0.073587	0.000000	-0.003388	-0.000754	0.000000	0.000000
56.130095	21.032709	14.902382	0.002632	0.062588	2.818421	0.000000	-0.009583	0.000000	-0.003771	-0.000638	0.000000	0.000000
56.428668	21.069223	14.847000	-0.068281	0.082631	2.818020	0.000000	-0.001988	0.000000	-0.003964	-0.000648	0.000000	0.000000
56.762001	21.120042	14.799448	-0.084175	0.060026	2.817574	0.000000	-0.001988	0.000000	-0.004180	-0.000648	0.000000	0.000000
57.095334	21.181457	14.766966	-0.100070	0.037421	2.817127	0.000000	-0.001988	0.000000	-0.004396	-0.000648	0.000000	0.000000
57.429918	21.253759	14.749516	-0.116024	0.014732	2.816678	0.000000	-0.001988	0.000000	-0.004613	-0.000648	0.000000	0.000000
57.727240	21.326982	14.746740	-0.188138	0.034494	2.816281	0.000000	0.005662	0.000000	-0.004806	-0.000661	0.000000	0.000000
58.276300	21.168952	14.991558	0.473920	-0.483043	2.796863	0.000000	-0.077411	0.000000	-0.005125	-0.000500	0.000000	0.000000
58.825360	20.298178	15.820090	1.102501	-1.034978	2.732057	0.000000	-0.159120	0.000000	-0.005353	-0.000330	0.000000	0.000000
59.374420	18.776159	17.291338	1.653216	-1.660620	2.623008	0.000000	-0.238012	0.000000	-0.005486	-0.000155	0.000000	0.000000
59.923480	16.710373	19.510077	2.087181	-2.404525	2.471649	0.000000	-0.312685	0.000000	-0.005522	0.000024	0.000000	0.000000
60.369440	15.092071	21.481876	1.554596	-1.998459	2.347628	0.000000	-0.243923	0.000000	-0.005543	-0.000120	0.000000	0.000000
60.810400	13.927219	23.031538	1.097183	-1.502739	2.254709	0.000000	-0.178320	0.000000	-0.005628	-0.000264	0.000000	0.000000
61.251360	13.142177	24.112120	0.689887	-0.938658	2.190305	0.000000	-0.114744	0.000000	-0.005776	-0.000411	0.000000	0.000000
61.692320	12.701087	24.674468	0.314106	-0.331877	2.153683	0.000000	-0.052471	0.000000	-0.005990	-0.000562	0.000000	0.000000
62.134530	12.583851	24.692409	-0.014762	0.226116	2.144435	0.000000	0.003645	0.000000	-0.006274	-0.000705	0.000000	0.000000
62.431853	12.599656	24.561713	-0.038395	0.213460	2.145728	0.000000	0.003645	0.000000	-0.006483	-0.000705	0.000000	0.000000
62.765186	12.634084	24.424137	-0.064890	0.199270	2.147178	0.000000	0.003645	0.000000	-0.006718	-0.000705	0.000000	0.000000
63.098520	12.686176	24.296020	-0.091384	0.185080	2.148628	0.000000	0.003645	0.000000	-0.006953	-0.000705	0.000000	0.000000
63.433103	12.756225	24.176935	-0.117978	0.170838	2.150083	0.000000	0.003645	0.000000	-0.007189	-0.000705	0.000000	0.000000
63.730426	12.833386	24.079149	-0.107983	0.094842	2.151374	0.000000	-0.001993	0.000000	-0.007398	-0.000686	0.000000	0.000000
64.171386	13.091120	23.730429	-0.479068	0.693055	2.164465	0.000000	0.059915	0.000000	-0.007743	-0.000881	0.000000	0.000000
64.612346	13.684416	22.866135	-0.872026	1.259738	2.205064	0.000000	0.122515	0.000000	-0.008177	-0.001086	0.000000	0.000000
65.053306	14.640358	21.525592	-1.304801	1.769114	2.273637	0.000000	0.186521	0.000000	-0.008703	-0.001304	0.000000	0.000000
65.494266	16.002585	19.769791	-1.797155	2.198012	2.370968	0.000000	0.252665	0.000000	-0.009328	-0.001536	0.000000	0.000000
65.940226	17.856636	17.653717	-2.376048	2.527468	2.499764	0.000000	0.322073	0.000000	-0.010069	-0.001788	0.000000	0.000000
66.489286	20.230478	15.286970	-1.923345	1.809157	2.656895	0.000000	0.246411	0.000000	-0.010958	-0.001447	0.000000	0.000000
67.038346	22.029378	13.633980	-1.334879	1.219676	2.771030	0.000000	0.166356	0.000000	-0.011653	-0.001081	0.000000	0.000000
67.587406	23.126392	12.577021	-0.652195	0.717045	2.840135	0.000000	0.083333	0.000000	-0.012141	-0.000695	0.000000	0.000000
68.136466	23.444116	12.040818	0.076518	0.265473	2.862981	0.000000	-0.001178	0.000000	-0.012414	-0.000298	0.000000	0.000000
68.435038	23.442380	11.869711	-0.003639	0.273118	2.865180	0.000000	0.007055	0.000000	-0.012513	-0.000332	0.000000	0.000000
68.768372	23.449545	11.697691	-0.017858	0.242941	2.867642	0.000000	0.007055	0.000000	-0.012623	-0.000332	0.000000	0.000000
69.101705	23.466190	11.545790	-0.032077	0.212763	2.870104	0.000000	0.007055	0.000000	-0.012734	-0.000332	0.000000	0.000000
69.436288	23.492431	11.413551	-0.046350	0.182473	2.872575	0.000000	0.007055	0.000000	-0.012845	-0.000332	0.000000	0.000000
69.733611	23.523880	11.312992	-0.126931	0.188152	2.874778	0.000000	0.015352	0.000000	-0.012944	-0.000367	0.000000	0.000000
70.282671	23.259304	11.333091	0.605934	-0.224981	2.859931	0.000000	-0.069669	0.000000	-0.013030	0.000053	0.000000	0.000000
