#ParticleID	Turn	x[m]	xp	y[m]	yp	z[m]	dE[GeV]# s	beta_x	beta_y	alpha_x	alpha_y	D_x	D_y	D_px	D_py	orbit_x	orbit_px	orbit_y	orbit_py
0.300000	11.940202	25.161160	-0.013296	-0.025754	2.602364	0.000000	-0.001672	0.000000	-0.001249	0.001052	0.000000	0.000000
0.601250	11.955815	25.180286	-0.038530	-0.037735	2.601543	0.000000	-0.001672	0.000000	-0.000932	0.001052	0.000000	0.000000
0.898573	11.986132	25.206242	-0.033870	-0.111355	2.600734	0.000000	-0.008087	0.000000	-0.000619	0.001054	0.000000	0.000000
1.339533	12.169592	25.024768	-0.383397	0.521333	2.612915	0.000000	0.065405	0.000000	-0.000157	0.001044	0.000000	0.000000
1.780493	12.667847	24.293678	-0.750448	1.130305	2.657635	0.000000	0.139630	0.000000	0.000303	0.001046	0.000000	0.000000
2.221453	13.503670	23.046227	-1.151794	1.687852	2.735401	0.000000	0.215435	0.000000	0.000767	0.001059	0.000000	0.000000
2.662413	14.715260	21.339162	-1.605773	2.168605	2.847093	0.000000	0.293683	0.000000	0.001239	0.001085	0.000000	0.000000
3.108373	16.378935	19.225115	-2.137487	2.551867	2.995815	0.000000	0.375755	0.000000	0.001731	0.001124	0.000000	0.000000
3.657433	18.511441	16.850467	-1.722778	1.798467	3.176526	0.000000	0.283601	0.000000	0.002331	0.001058	0.000000	0.000000
4.206493	20.118611	15.228374	-1.186348	1.173170	3.305227	0.000000	0.186434	0.000000	0.002889	0.000973	0.000000	0.000000
4.755553	21.086881	14.243306	-0.566090	0.631439	3.379641	0.000000	0.085975	0.000000	0.003396	0.000871	0.000000	0.000000
5.304613	21.347819	13.825105	0.094178	0.134684	3.398456	0.000000	-0.015995	0.000000	0.003843	0.000754	0.000000	0.000000
5.603185	21.327979	13.730540	0.026204	0.147264	3.396016	0.000000	-0.007405	0.000000	0.004071	0.000764	0.000000	0.000000
5.936519	21.315722	13.640632	0.010565	0.122461	3.393294	0.000000	-0.007405	0.000000	0.004326	0.000764	0.000000	0.000000
6.269852	21.313893	13.567259	-0.005075	0.097658	3.390571	0.000000	-0.007405	0.000000	0.004581	0.000764	0.000000	0.000000
6.604435	21.322541	13.510239	-0.020773	0.072761	3.387838	0.000000	-0.007405	0.000000	0.004836	0.000764	0.000000	0.000000
6.901758	21.339058	13.473540	-0.088078	0.084479	3.385410	0.000000	0.001060	0.000000	0.005064	0.000777	0.000000	0.000000
7.450818	21.072122	13.642297	0.571751	-0.393626	3.357748	0.000000	-0.100348	0.000000	0.005444	0.000607	0.000000	0.000000
7.999878	20.098482	14.348340	1.191199	-0.899774	3.274903	0.000000	-0.199967	0.000000	0.005728	0.000426	0.000000	0.000000
8.548938	18.486918	15.641972	1.726494	-1.470024	3.138350	0.000000	-0.296032	0.000000	0.005910	0.000237	0.000000	0.000000
9.097998	16.351297	17.615354	2.139813	-2.144999	2.950515	0.000000	-0.386841	0.000000	0.005988	0.000044	0.000000	0.000000
9.543958	14.685641	19.373525	1.608201	-1.780438	2.796049	0.000000	-0.305989	0.000000	0.006042	0.000200	0.000000	0.000000
9.984918	13.471934	20.753223	1.154535	-1.336234	2.678051	0.000000	-0.229127	0.000000	0.006165	0.000358	0.000000	0.000000
10.425878	12.633688	21.712722	0.753628	-0.831221	2.593272	0.000000	-0.154878	0.000000	0.006358	0.000519	0.000000	0.000000
10.866838	12.132596	22.208354	0.387157	-0.288380	2.540747	0.000000	-0.082399	0.000000	0.006624	0.000687	0.000000	0.000000
11.309048	11.945615	22.216985	0.065601	0.216429	2.519853	0.000000	-0.016631	0.000000	0.006966	0.000845	0.000000	0.000000
11.606371	11.914038	22.092452	0.040604	0.202419	2.514657	0.000000	-0.016631	0.000000	0.007217	0.000845	0.000000	0.000000
12.086371	11.894429	21.908986	0.000249	0.179802	2.506268	0.000000	-0.016631	0.000000	0.007623	0.000845	0.000000	0.000000
12.566371	11.913561	21.747233	-0.040106	0.157185	2.497880	0.000000	-0.016631	0.000000	0.008029	0.000845	0.000000	0.000000
13.046371	11.971433	21.607191	-0.080461	0.134568	2.489491	0.000000	-0.016631	0.000000	0.008435	0.000845	0.000000	0.000000
13.526371	12.068047	21.488862	-0.120816	0.111951	2.481103	0.000000	-0.016631	0.000000	0.008840	0.000845	0.000000	0.000000
14.007621	12.203804	21.392023	-0.161277	0.089275	2.472692	0.000000	-0.016631	0.000000	0.009247	0.000845	0.000000	0.000000
14.304943	12.307106	21.343158	-0.158873	0.027989	2.467493	0.000000	-0.022125	0.000000	0.009498	0.000823	0.000000	0.000000
14.745903	12.605346	21.084903	-0.519603	0.555367	2.472760	0.000000	0.047862	0.000000	0.009916	0.001073	0.000000	0.000000
15.186863	13.231052	20.370883	-0.904091	1.057474	2.508873	0.000000	0.118382	0.000000	0.010447	0.001336	0.000000	0.000000
15.627823	14.212842	19.233583	-1.329915	1.511455	2.576238	0.000000	0.190237	0.000000	0.011097	0.001614	0.000000	0.000000
16.068783	15.595619	17.724753	-1.816542	1.896649	2.675616	0.000000	0.264242	0.000000	0.011873	0.001910	0.000000	0.000000
16.514743	17.466292	15.891299	-2.391207	2.196537	2.809813	0.000000	0.341733	0.000000	0.012795	0.002230	0.000000	0.000000
17.063803	19.868894	13.844490	-1.956789	1.552595	2.973081	0.000000	0.255857	0.000000	0.013903	0.001797	0.000000	0.000000
17.612863	21.715035	12.440378	-1.384034	1.019278	3.088118	0.000000	0.165470	0.000000	0.014763	0.001333	0.000000	0.000000
18.161923	22.874163	11.578935	-0.713426	0.558587	3.152895	0.000000	0.072169	0.000000	0.015362	0.000844	0.000000	0.000000
18.710983	23.264301	11.198793	0.007627	0.137697	3.166269	0.000000	-0.022400	0.000000	0.015688	0.000341	0.000000	0.000000
19.009556	23.294748	11.109774	-0.057698	0.135527	3.161588	0.000000	-0.015259	0.000000	0.015801	0.000380	0.000000	0.000000
19.342889	23.337999	11.029608	-0.072055	0.104972	3.156375	0.000000	-0.015259	0.000000	0.015928	0.000380	0.000000	0.000000
19.676223	23.390821	10.969811	-0.086412	0.074417	3.151162	0.000000	-0.015259	0.000000	0.016054	0.000380	0.000000	0.000000
20.010806	23.453758	10.930140	-0.217026	0.097903	3.145949	0.000000	0.000327	0.000000	0.016181	0.000460	0.000000	0.000000
20.308129	23.586942	10.880003	-0.283131	0.094892	3.145922	0.000000	0.007374	0.000000	0.016318	0.000499	0.000000	0.000000
20.857189	23.491262	10.996508	0.456478	-0.308286	3.124067	0.000000	-0.086400	0.000000	0.016447	-0.000032	0.000000	0.000000
21.406249	22.596003	11.565250	1.163820	-0.733433	3.051337	0.000000	-0.178641	0.000000	0.016283	-0.000562	0.000000	0.000000
21.955309	20.964471	12.626750	1.788886	-1.210843	2.929021	0.000000	-0.267721	0.000000	0.015831	-0.001082	0.000000	0.000000
22.504369	18.712041	14.256640	2.287485	-1.774533	2.759286	0.000000	-0.352068	0.000000	0.015098	-0.001584	0.000000	0.000000
22.950329	16.938817	15.720523	1.700855	-1.493242	2.619882	0.000000	-0.275942	0.000000	0.014478	-0.001200	0.000000	0.000000
23.391289	15.665341	16.888621	1.197004	-1.145125	2.514697	0.000000	-0.203443	0.000000	0.014030	-0.000832	0.000000	0.000000
23.832249	14.810672	17.725392	0.747882	-0.744887	2.440795	0.000000	-0.133253	0.000000	0.013742	-0.000474	0.000000	0.000000
24.273209	14.335721	18.192753	0.332954	-0.310745	2.397338	0.000000	-0.064576	0.000000	0.013611	-0.000122	0.000000	0.000000
24.715418	14.218937	18.269090	-0.036626	0.098593	2.383833	0.000000	-0.001700	0.000000	0.013635	0.000198	0.000000	0.000000
25.012741	14.246942	18.215348	-0.057564	0.082161	2.383269	0.000000	-0.001700	0.000000	0.013694	0.000198	0.000000	0.000000
25.346075	14.293143	18.166715	-0.081039	0.063737	2.382636	0.000000	-0.001700	0.000000	0.013760	0.000198	0.000000	0.000000
25.679408	14.354994	18.130364	-0.104513	0.045314	2.382004	0.000000	-0.001700	0.000000	0.013826	0.000198	0.000000	0.000000
26.013991	14.432521	18.106596	-0.010989	-0.120067	2.381344	0.000000	-0.021019	0.000000	0.013893	0.000086	0.000000	0.000000
26.311314	14.445100	18.183049	-0.001001	-0.175220	2.375063	0.000000	-0.026049	0.000000	0.013918	0.000054	0.000000	0.000000
26.752274	14.624637	18.140509	-0.407518	0.271306	2.378376	0.000000	0.041537	0.000000	0.014021	0.000414	0.000000	0.000000
27.193234	15.169664	17.708051	-0.832670	0.705483	2.411418	0.000000	0.109591	0.000000	0.014284	0.000779	0.000000	0.000000
27.634194	16.105111	16.905353	-1.295894	1.107551	2.474563	0.000000	0.178886	0.000000	0.014710	0.001153	0.000000	0.000000
28.075154	17.473765	15.768946	-1.818374	1.459207	2.568529	0.000000	0.250206	0.000000	0.015303	0.001540	0.000000	0.000000
28.521114	19.362380	14.333190	-2.429263	1.745668	2.695985	0.000000	0.324847	0.000000	0.016080	0.001947	0.000000	0.000000
29.070174	21.764360	12.734101	-1.917502	1.183247	2.851196	0.000000	0.242785	0.000000	0.017004	0.001411	0.000000	0.000000
29.619234	23.525855	11.703095	-1.270168	0.705140	2.960386	0.000000	0.156436	0.000000	0.017625	0.000850	0.000000	0.000000
30.168294	24.522284	11.166717	-0.533028	0.277282	3.021626	0.000000	0.067326	0.000000	0.017934	0.000274	0.000000	0.000000
30.717354	24.683174	11.086751	0.241798	-0.130817	3.033831	0.000000	-0.022975	0.000000	0.017925	-0.000308	0.000000	0.000000
31.015927	24.574741	11.158497	0.174936	-0.133592	3.029030	0.000000	-0.016296	0.000000	0.017846	-0.000264	0.000000	0.000000
31.349260	24.462777	11.257694	0.160957	-0.163997	3.023686	0.000000	-0.016296	0.000000	0.017758	-0.000264	0.000000	0.000000
31.682593	24.360132	11.377160	0.146977	-0.194403	3.018342	0.000000	-0.016296	0.000000	0.017670	-0.000264	0.000000	0.000000
32.017177	24.266474	11.517460	0.132946	-0.224923	3.012978	0.000000	-0.016296	0.000000	0.017581	-0.000264	0.000000	0.000000
32.314499	24.191344	11.659168	0.066967	-0.226294	3.008225	0.000000	-0.009642	0.000000	0.017503	-0.000222	0.000000	0.000000
32.863559	23.703412	12.145743	0.815870	-0.664915	2.978660	0.000000	-0.098831	0.000000	0.017226	-0.000785	0.000000	0.000000
33.412619	22.419673	13.137131	1.507083	-1.150917	2.900814	0.000000	-0.186278	0.000000	0.016643	-0.001334	0.000000	0.000000
33.961679	20.430921	14.703963	2.091737	-1.718930	2.776060	0.000000	-0.270441	0.000000	0.015765	-0.001859	0.000000	0.000000
34.510739	17.877810	16.957864	2.528502	-2.409424	2.606601	0.000000	-0.349835	0.000000	0.014607	-0.002351	0.000000	0.000000
34.956699	15.894164	18.974395	1.933193	-2.092329	2.467648	0.000000	-0.277674	0.000000	0.013641	-0.001984	0.000000	0.000000
35.397659	14.415441	20.644995	1.431518	-1.681082	2.361172	0.000000	-0.209121	0.000000	0.012842	-0.001643	0.000000	0.000000
35.838619	13.348907	21.917565	0.995296	-1.193323	2.284241	0.000000	-0.142933	0.000000	0.012189	-0.001320	0.000000	0.000000
36.279579	12.645782	22.734198	0.604582	-0.651254	2.235986	0.000000	-0.078359	0.000000	0.011675	-0.001013	0.000000	0.000000
36.721789	12.273278	23.057974	0.268189	-0.129700	2.215841	0.000000	-0.019503	0.000000	0.011293	-0.000743	0.000000	0.000000
37.019112	12.121521	23.138998	0.242222	-0.142811	2.210263	0.000000	-0.019503	0.000000	0.011072	-0.000743	0.000000	0.000000
37.352445	11.969744	23.239106	0.213109	-0.157511	2.204009	0.000000	-0.019503	0.000000	0.010825	-0.000743	0.000000	0.000000
37.685779	11.837376	23.349013	0.183996	-0.172210	2.197756	0.000000	-0.019503	0.000000	0.010577	-0.000743	0.000000	0.000000
38.020362	11.724029	23.469187	0.154774	-0.186965	2.191479	0.000000	-0.019503	0.000000	0.010329	-0.000743	0.000000	0.000000
38.317684	11.639679	23.584334	0.154553	-0.252491	2.185898	0.000000	-0.024338	0.000000	0.010108	-0.000766	0.000000	0.000000
38.758644	11.652404	23.545746	-0.183726	0.339654	2.189260	0.000000	0.038363	0.000000	0.009827	-0.000509	0.000000	0.000000
39.199604	11.966101	22.989710	-0.530400	0.916339	2.220237	0.000000	0.101506	0.000000	0.009658	-0.000258	0.000000	0.000000
39.640564	12.595108	21.941534	-0.901314	1.451320	2.279184	0.000000	0.165809	0.000000	0.009599	-0.000010	0.000000	0.000000
40.081524	13.568178	20.448922	-1.313423	1.920248	2.366773	0.000000	0.232001	0.000000	0.009649	0.000238	0.000000	0.000000
40.527484	14.947412	18.557101	-1.789556	2.303312	2.485483	0.000000	0.301266	0.000000	0.009812	0.000491	0.000000	0.000000
41.076544	16.709914	16.431089	-1.400870	1.591094	2.630351	0.000000	0.226213	0.000000	0.009993	0.000170	0.000000	0.000000
41.625604	17.988225	15.020808	-0.913189	0.992239	2.733011	0.000000	0.147149	0.000000	0.009998	-0.000154	0.000000	0.000000
42.174664	18.691997	14.225783	-0.360981	0.464079	2.791643	0.000000	0.065472	0.000000	0.009824	-0.000475	0.000000	0.000000
42.723724	18.771497	13.989367	0.216727	-0.031014	2.805203	0.000000	-0.017374	0.000000	0.009477	-0.000788	0.000000	0.000000
43.022297	18.673820	13.994151	0.155303	-0.018621	2.802250	0.000000	-0.010642	0.000000	0.009249	-0.000764	0.000000	0.000000
43.502297	18.537365	14.028497	0.128979	-0.052933	2.797509	0.000000	-0.010642	0.000000	0.008882	-0.000764	0.000000	0.000000
43.982297	18.426181	14.095782	0.102654	-0.087245	2.792767	0.000000	-0.010642	0.000000	0.008515	-0.000764	0.000000	0.000000
44.462297	18.340268	14.196006	0.076330	-0.121556	2.788026	0.000000	-0.010642	0.000000	0.008148	-0.000764	0.000000	0.000000
44.942297	18.279627	14.329170	0.050005	-0.155868	2.783285	0.000000	-0.010642	0.000000	0.007782	-0.000764	0.000000	0.000000
45.423547	18.244425	14.495570	-0.066781	-0.118450	2.778548	0.000000	0.003125	0.000000	0.007414	-0.000728	0.000000	0.000000
45.720870	18.289031	14.572167	-0.128001	-0.103664	2.779696	0.000000	0.009941	0.000000	0.007197	-0.000709	0.000000	0.000000
46.269930	18.121311	14.967937	0.431201	-0.621333	2.763061	0.000000	-0.072022	0.000000	0.006745	-0.000935	0.000000	0.000000
46.818990	17.352589	15.953045	0.959919	-1.183263	2.701815	0.000000	-0.152723	0.000000	0.006173	-0.001145	0.000000	0.000000
47.368050	16.037208	17.597654	1.420796	-1.829483	2.597038	0.000000	-0.230733	0.000000	0.005492	-0.001334	0.000000	0.000000
47.917110	14.268137	20.018901	1.781268	-2.606027	2.450577	0.000000	-0.304671	0.000000	0.004713	-0.001499	0.000000	0.000000
48.363070	12.890621	22.171454	1.317795	-2.200194	2.330613	0.000000	-0.236357	0.000000	0.004071	-0.001385	0.000000	0.000000
48.804030	11.908022	23.896021	0.918379	-1.695647	2.241420	0.000000	-0.171130	0.000000	0.003482	-0.001288	0.000000	0.000000
49.244990	11.257957	25.139730	0.560936	-1.113945	2.180500	0.000000	-0.107838	0.000000	0.002933	-0.001205	0.000000	0.000000
49.685950	10.910708	25.845999	0.229133	-0.481561	2.147164	0.000000	-0.045762	0.000000	0.002417	-0.001136	0.000000	0.000000
50.128160	10.850565	25.982426	-0.066189	0.110533	2.141053	0.000000	0.010651	0.000000	0.001928	-0.001085	0.000000	0.000000
50.425482	10.898107	25.920141	-0.093710	0.098950	2.144543	0.000000	0.010651	0.000000	0.001605	-0.001085	0.000000	0.000000
50.758816	10.970865	25.858503	-0.124565	0.085964	2.148455	0.000000	0.010651	0.000000	0.001244	-0.001085	0.000000	0.000000
51.092149	11.064194	25.805523	-0.155420	0.072978	2.152367	0.000000	0.010651	0.000000	0.000882	-0.001085	0.000000	0.000000
51.426732	11.178332	25.761572	-0.095705	-0.149047	2.156271	0.000000	-0.006842	0.000000	0.000520	-0.001089	0.000000	0.000000
51.724055	11.243223	25.853710	-0.095026	-0.224530	2.154561	0.000000	-0.012115	0.000000	0.000196	-0.001089	0.000000	0.000000
52.165015	11.473445	25.764012	-0.429398	0.427170	2.163333	0.000000	0.049831	0.000000	-0.000284	-0.001090	0.000000	0.000000
52.605975	12.006045	25.105981	-0.783379	1.059431	2.199526	0.000000	0.112357	0.000000	-0.000768	-0.001104	0.000000	0.000000
53.046935	12.865347	23.909567	-1.173141	1.643485	2.263556	0.000000	0.176174	0.000000	-0.001260	-0.001130	0.000000	0.000000
53.487895	14.090596	22.229216	-1.616489	2.152761	2.356158	0.000000	0.242010	0.000000	-0.001766	-0.001169	0.000000	0.000000
53.933855	15.758707	20.116251	-2.137921	2.565385	2.479918	0.000000	0.311009	0.000000	-0.002299	-0.001222	0.000000	0.000000
54.482915	17.905968	17.738377	-1.750433	1.791146	2.630949	0.000000	0.236069	0.000000	-0.002947	-0.001137	0.000000	0.000000
55.031975	19.556912	16.136071	-1.239339	1.144483	2.739565	0.000000	0.156923	0.000000	-0.003544	-0.001032	0.000000	0.000000
55.581035	20.594971	15.195195	-0.640739	0.579336	2.803833	0.000000	0.074978	0.000000	-0.004077	-0.000908	0.000000	0.000000
56.130095	20.946865	14.848724	0.003093	0.055453	2.822603	0.000000	-0.008312	0.000000	-0.004538	-0.000769	0.000000	0.000000
56.428668	20.983184	14.797544	-0.067991	0.075577	2.822639	0.000000	-0.000660	0.000000	-0.004771	-0.000781	0.000000	0.000000
56.762001	21.033831	14.754711	-0.083950	0.052922	2.822679	0.000000	-0.000660	0.000000	-0.005031	-0.000781	0.000000	0.000000
57.095334	21.095117	14.726981	-0.099909	0.030267	2.822719	0.000000	-0.000660	0.000000	-0.005292	-0.000781	0.000000	0.000000
57.429918	21.167333	14.714336	-0.115928	0.007527	2.822760	0.000000	-0.000660	0.000000	-0.005553	-0.000781	0.000000	0.000000
57.727240	21.240522	14.715854	-0.188307	0.027439	2.822797	0.000000	0.007067	0.000000	-0.005785	-0.000796	0.000000	0.000000
58.276300	21.084236	14.967986	0.470866	-0.489396	2.804154	0.000000	-0.076227	0.000000	-0.006170	-0.000603	0.000000	0.000000
58.825360	20.218297	15.803305	1.096774	-1.041082	2.739978	0.000000	-0.158179	0.000000	-0.006445	-0.000398	0.000000	0.000000
59.374420	18.703863	17.281291	1.645225	-1.666906	2.631403	0.000000	-0.237333	0.000000	-0.006606	-0.000187	0.000000	0.000000
59.923480	16.647871	19.507196	2.077494	-2.411436	2.480352	0.000000	-0.312281	0.000000	-0.006649	0.000028	0.000000	0.000000
60.369440	15.037295	21.485501	1.546903	-2.006099	2.356565	0.000000	-0.243296	0.000000	-0.006675	-0.000145	0.000000	0.000000
60.810400	13.878510	23.042053	1.091089	-1.510727	2.263992	0.000000	-0.177460	0.000000	-0.006777	-0.000318	0.000000	0.000000
61.251360	13.098243	24.129682	0.685113	-0.946632	2.200051	0.000000	-0.113641	0.000000	-0.006957	-0.000495	0.000000	0.000000
61.692320	12.660856	24.698913	0.310432	-0.339477	2.164015	0.000000	-0.051111	0.000000	-0.007215	-0.000678	0.000000	0.000000
62.134530	12.546432	24.723269	-0.017240	0.218501	2.155485	0.000000	0.005187	0.000000	-0.007557	-0.000849	0.000000	0.000000
62.431853	12.563732	24.597085	-0.040945	0.205901	2.157280	0.000000	0.005187	0.000000	-0.007809	-0.000849	0.000000	0.000000
62.765186	12.599887	24.464526	-0.067521	0.191775	2.159292	0.000000	0.005187	0.000000	-0.008092	-0.000849	0.000000	0.000000
63.098520	12.653760	24.341385	-0.094097	0.177648	2.161304	0.000000	0.005187	0.000000	-0.008375	-0.000849	0.000000	0.000000
63.433103	12.725652	24.227253	-0.120772	0.163469	2.163324	0.000000	0.005187	0.000000	-0.008660	-0.000849	0.000000	0.000000
63.730426	12.804487	24.133849	-0.110495	0.086525	2.165116	0.000000	-0.000559	0.000000	-0.008912	-0.000826	0.000000	0.000000
64.171386	13.064127	23.791767	-0.480969	0.686389	2.178987	0.000000	0.061711	0.000000	-0.009328	-0.001062	0.000000	0.000000
64.612346	13.658814	22.932529	-0.873399	1.255026	2.220546	0.000000	0.124695	0.000000	-0.009850	-0.001309	0.000000	0.000000
65.053306	14.615691	21.595229	-1.305704	1.766573	2.290272	0.000000	0.189112	0.000000	-0.010484	-0.001571	0.000000	0.000000
65.494266	15.978431	19.840709	-1.797622	2.197761	2.388964	0.000000	0.255700	0.000000	-0.011237	-0.001851	0.000000	0.000000
65.940226	17.832626	17.723836	-2.376036	2.529503	2.519366	0.000000	0.325584	0.000000	-0.012130	-0.002154	0.000000	0.000000
66.489286	20.206881	15.355811	-1.924409	1.809594	2.678416	0.000000	0.249262	0.000000	-0.013201	-0.001743	0.000000	0.000000
67.038346	22.007376	13.703257	-1.336964	1.218540	2.794054	0.000000	0.168491	0.000000	-0.014038	-0.001302	0.000000	0.000000
67.587406	23.107079	12.648480	-0.655166	0.714250	2.864220	0.000000	0.084712	0.000000	-0.014626	-0.000838	0.000000	0.000000
68.136466	23.428415	12.116362	0.072860	0.260817	2.887661	0.000000	-0.000582	0.000000	-0.014955	-0.000359	0.000000	0.000000
68.435038	23.429513	11.947484	-0.008468	0.269539	2.890121	0.000000	0.007871	0.000000	-0.015075	-0.000400	0.000000	0.000000
68.768372	23.439902	11.777767	-0.022697	0.239612	2.892878	0.000000	0.007871	0.000000	-0.015208	-0.000400	0.000000	0.000000
69.101705	23.459775	11.628001	-0.036925	0.209685	2.895635	0.000000	0.007871	0.000000	-0.015341	-0.000400	0.000000	0.000000
69.436288	23.489262	11.497738	-0.051206	0.179646	2.898402	0.000000	0.007871	0.000000	-0.015475	-0.000400	0.000000	0.000000
69.733611	23.523653	11.398767	-0.133054	0.186397	2.900872	0.000000	0.016399	0.000000	-0.015594	-0.000444	0.000000	0.000000
70.282671	23.265774	11.422107	0.599926	-0.229167	2.886386	0.000000	-0.069466	0.000000	-0.015699	0.000063	0.000000	0.000000
