#ParticleID	Turn	x[m]	xp	y[m]	yp	z[m]	dE[GeV]# s	beta_x	beta_y	alpha_x	alpha_y	D_x	D_y	D_px	D_py	orbit_x	orbit_px	orbit_y	orbit_py
0.300000	11.897787	25.149646	-0.017921	-0.024254	2.608857	0.000000	0.000471	0.000000	-0.000367	0.000322	0.000000	0.000000
0.601250	11.916215	25.167870	-0.043249	-0.036239	2.608902	0.000000	0.000471	0.000000	-0.000270	0.000322	0.000000	0.000000
0.898573	11.949365	25.192936	-0.038895	-0.109835	2.608946	0.000000	-0.005938	0.000000	-0.000174	0.000322	0.000000	0.000000
1.339533	12.136817	25.010283	-0.387710	0.522476	2.622433	0.000000	0.067783	0.000000	-0.000033	0.000320	0.000000	0.000000
1.780493	12.638519	24.278374	-0.754240	1.131015	2.668566	0.000000	0.142273	0.000000	0.000108	0.000321	0.000000	0.000000
2.221453	13.477393	23.030507	-1.155233	1.688095	2.747871	0.000000	0.218379	0.000000	0.000251	0.000325	0.000000	0.000000
2.662413	14.691770	21.323457	-1.609008	2.168369	2.861248	0.000000	0.296970	0.000000	0.000396	0.000334	0.000000	0.000000
3.108373	16.358109	19.209869	-2.140637	2.551130	3.011845	0.000000	0.379429	0.000000	0.000547	0.000346	0.000000	0.000000
3.657433	18.494537	16.835844	-1.727190	1.798152	3.194819	0.000000	0.286725	0.000000	0.000732	0.000325	0.000000	0.000000
4.206493	20.106859	15.213920	-1.191733	1.173252	3.325434	0.000000	0.188940	0.000000	0.000903	0.000299	0.000000	0.000000
4.755553	21.081176	14.228575	-0.572089	0.631921	3.401375	0.000000	0.087809	0.000000	0.001059	0.000267	0.000000	0.000000
5.304613	21.348656	13.809625	0.087973	0.135601	3.421297	0.000000	-0.014875	0.000000	0.001196	0.000230	0.000000	0.000000
5.603185	21.333277	13.713995	0.018753	0.149020	3.419428	0.000000	-0.006026	0.000000	0.001265	0.000234	0.000000	0.000000
5.936519	21.325985	13.622930	0.003122	0.124174	3.417341	0.000000	-0.006026	0.000000	0.001343	0.000234	0.000000	0.000000
6.269852	21.329114	13.548429	-0.012508	0.099328	3.415255	0.000000	-0.006026	0.000000	0.001421	0.000234	0.000000	0.000000
6.604435	21.342733	13.490306	-0.028198	0.074389	3.413161	0.000000	-0.006026	0.000000	0.001499	0.000234	0.000000	0.000000
6.901758	21.363648	13.452659	-0.097222	0.086959	3.411300	0.000000	0.002770	0.000000	0.001568	0.000238	0.000000	0.000000
7.450818	21.106100	13.618311	0.563632	-0.390433	3.384599	0.000000	-0.099483	0.000000	0.001685	0.000185	0.000000	0.000000
7.999878	20.140486	14.320314	1.184675	-0.895637	3.302185	0.000000	-0.199967	0.000000	0.001771	0.000129	0.000000	0.000000
8.548938	18.535012	15.608674	1.722035	-1.464638	3.165523	0.000000	-0.296903	0.000000	0.001826	0.000071	0.000000	0.000000
9.097998	16.403093	17.575165	2.137751	-2.137968	2.977036	0.000000	-0.388570	0.000000	0.001848	0.000011	0.000000	0.000000
9.543958	14.739598	19.327327	1.605593	-1.774303	2.821992	0.000000	-0.307063	0.000000	0.001864	0.000059	0.000000	0.000000
9.984918	13.528556	20.701991	1.151161	-1.331186	2.703755	0.000000	-0.229543	0.000000	0.001901	0.000108	0.000000	0.000000
10.425878	12.693684	21.657547	0.749326	-0.827498	2.619073	0.000000	-0.154640	0.000000	0.001959	0.000158	0.000000	0.000000
10.866838	12.196833	22.150514	0.381728	-0.286156	2.566979	0.000000	-0.081499	0.000000	0.002040	0.000209	0.000000	0.000000
11.309048	12.015156	22.157919	0.060329	0.214833	2.546862	0.000000	-0.015407	0.000000	0.002144	0.000258	0.000000	0.000000
11.606371	11.986666	22.034343	0.035494	0.200796	2.542204	0.000000	-0.015407	0.000000	0.002221	0.000258	0.000000	0.000000
12.086371	11.971838	21.852457	-0.004601	0.178133	2.534685	0.000000	-0.015407	0.000000	0.002345	0.000258	0.000000	0.000000
12.566371	11.995500	21.692327	-0.044696	0.155471	2.527166	0.000000	-0.015407	0.000000	0.002468	0.000258	0.000000	0.000000
13.046371	12.057655	21.553953	-0.084791	0.132808	2.519647	0.000000	-0.015407	0.000000	0.002592	0.000258	0.000000	0.000000
13.526371	12.158300	21.437336	-0.124886	0.110146	2.512129	0.000000	-0.015407	0.000000	0.002716	0.000258	0.000000	0.000000
14.007621	12.297849	21.342255	-0.165086	0.087424	2.504590	0.000000	-0.015407	0.000000	0.002840	0.000258	0.000000	0.000000
14.304943	12.403397	21.294448	-0.160350	0.022693	2.499932	0.000000	-0.021367	0.000000	0.002917	0.000251	0.000000	0.000000
14.745903	12.703769	21.041447	-0.523279	0.548849	2.505997	0.000000	0.049454	0.000000	0.003044	0.000328	0.000000	0.000000
15.186863	13.333540	20.333679	-0.910121	1.050032	2.543352	0.000000	0.120835	0.000000	0.003206	0.000408	0.000000	0.000000
15.627823	14.321492	19.203346	-1.338553	1.503437	2.612422	0.000000	0.193587	0.000000	0.003405	0.000493	0.000000	0.000000
16.068783	15.712776	17.701879	-1.828152	1.888430	2.713992	0.000000	0.268539	0.000000	0.003642	0.000584	0.000000	0.000000
16.514743	17.594600	15.876091	-2.406129	2.188306	2.850913	0.000000	0.347020	0.000000	0.003924	0.000682	0.000000	0.000000
17.063803	20.010848	13.837804	-1.967927	1.545713	3.017430	0.000000	0.259787	0.000000	0.004263	0.000550	0.000000	0.000000
17.612863	21.866185	12.440949	-1.390683	1.013228	3.134787	0.000000	0.167955	0.000000	0.004526	0.000407	0.000000	0.000000
18.161923	23.029511	11.586029	-0.715180	0.552921	3.200905	0.000000	0.073150	0.000000	0.004709	0.000258	0.000000	0.000000
18.710983	23.418624	11.212146	0.010856	0.132002	3.214613	0.000000	-0.022949	0.000000	0.004808	0.000103	0.000000	0.000000
19.009556	23.450989	11.124714	-0.060615	0.132774	3.210130	0.000000	-0.014893	0.000000	0.004843	0.000116	0.000000	0.000000
19.342889	23.496154	11.046362	-0.074881	0.102282	3.205128	0.000000	-0.014893	0.000000	0.004881	0.000116	0.000000	0.000000
19.676223	23.550831	10.988338	-0.089148	0.071791	3.200125	0.000000	-0.014893	0.000000	0.004920	0.000116	0.000000	0.000000
20.010806	23.615569	10.950402	-0.220472	0.095440	3.195123	0.000000	0.000938	0.000000	0.004959	0.000140	0.000000	0.000000
20.308129	23.750614	10.901788	-0.293095	0.095340	3.195361	0.000000	0.008932	0.000000	0.005000	0.000153	0.000000	0.000000
20.857189	23.662923	11.018075	0.451897	-0.308368	3.174018	0.000000	-0.086420	0.000000	0.005040	-0.000010	0.000000	0.000000
21.406249	22.769785	11.587103	1.164963	-0.734043	3.100747	0.000000	-0.180239	0.000000	0.004990	-0.000172	0.000000	0.000000
21.955309	21.134309	12.649407	1.795720	-1.212010	2.976848	0.000000	-0.270863	0.000000	0.004852	-0.000331	0.000000	0.000000
22.504369	18.872055	14.280658	2.299603	-1.776316	2.804516	0.000000	-0.356687	0.000000	0.004627	-0.000485	0.000000	0.000000
22.950329	17.090305	15.745636	1.709364	-1.494631	2.662917	0.000000	-0.279467	0.000000	0.004437	-0.000367	0.000000	0.000000
23.391289	15.811200	16.914509	1.202042	-1.145862	2.556131	0.000000	-0.205897	0.000000	0.004300	-0.000255	0.000000	0.000000
23.832249	14.953744	17.751519	0.749650	-0.744952	2.481195	0.000000	-0.134669	0.000000	0.004212	-0.000145	0.000000	0.000000
24.273209	14.478750	18.218578	0.331516	-0.310143	2.437255	0.000000	-0.064974	0.000000	0.004172	-0.000037	0.000000	0.000000
24.715418	14.364612	18.294187	-0.037738	0.095621	2.423811	0.000000	-0.001725	0.000000	0.004179	0.000061	0.000000	0.000000
25.012741	14.393216	18.242203	-0.058466	0.079220	2.423280	0.000000	-0.001725	0.000000	0.004197	0.000061	0.000000	0.000000
25.346075	14.439939	18.195519	-0.081704	0.060832	2.422685	0.000000	-0.001725	0.000000	0.004217	0.000061	0.000000	0.000000
25.679408	14.502154	18.161093	-0.104942	0.042445	2.422089	0.000000	-0.001725	0.000000	0.004238	0.000061	0.000000	0.000000
26.013991	14.579887	18.139233	-0.009986	-0.123165	2.421467	0.000000	-0.021370	0.000000	0.004258	0.000026	0.000000	0.000000
26.311314	14.591881	18.217430	0.003944	-0.182654	2.415105	0.000000	-0.027051	0.000000	0.004265	0.000016	0.000000	0.000000
26.752274	14.768464	18.181046	-0.405859	0.264846	2.418269	0.000000	0.041548	0.000000	0.004297	0.000126	0.000000	0.000000
27.193234	15.313286	17.753805	-0.834209	0.700295	2.451711	0.000000	0.110619	0.000000	0.004377	0.000238	0.000000	0.000000
27.634194	16.251246	16.955148	-1.300681	1.103877	2.515813	0.000000	0.180947	0.000000	0.004507	0.000352	0.000000	0.000000
28.075154	17.625214	15.821414	-1.826593	1.457228	2.611304	0.000000	0.253332	0.000000	0.004688	0.000471	0.000000	0.000000
28.521114	19.521927	14.387073	-2.441011	1.745269	2.740879	0.000000	0.329059	0.000000	0.004926	0.000596	0.000000	0.000000
29.070174	21.933176	12.789252	-1.923960	1.181801	2.898594	0.000000	0.245532	0.000000	0.005209	0.000431	0.000000	0.000000
29.619234	23.698091	11.760641	-1.270970	0.702521	3.009271	0.000000	0.157657	0.000000	0.005399	0.000260	0.000000	0.000000
30.168294	24.691958	11.227967	-0.528179	0.273286	3.070948	0.000000	0.066989	0.000000	0.005493	0.000083	0.000000	0.000000
30.717354	24.844547	11.153287	0.251932	-0.136480	3.082533	0.000000	-0.024866	0.000000	0.005490	-0.000095	0.000000	0.000000
31.015927	24.734757	11.226283	0.177596	-0.135769	3.077424	0.000000	-0.017188	0.000000	0.005466	-0.000081	0.000000	0.000000
31.349260	24.620994	11.326876	0.163694	-0.166009	3.071722	0.000000	-0.017188	0.000000	0.005439	-0.000081	0.000000	0.000000
31.682593	24.516498	11.447628	0.149793	-0.196248	3.066020	0.000000	-0.017188	0.000000	0.005412	-0.000081	0.000000	0.000000
32.017177	24.420930	11.589106	0.135839	-0.226601	3.060296	0.000000	-0.017188	0.000000	0.005385	-0.000081	0.000000	0.000000
32.314499	24.343861	11.731863	0.062731	-0.224328	3.055211	0.000000	-0.009569	0.000000	0.005361	-0.000067	0.000000	0.000000
32.863559	23.858106	12.217231	0.816560	-0.664820	3.025099	0.000000	-0.100238	0.000000	0.005276	-0.000239	0.000000	0.000000
33.412619	22.571375	13.209360	1.512693	-1.152672	2.945706	0.000000	-0.189133	0.000000	0.005099	-0.000407	0.000000	0.000000
33.961679	20.574594	14.778923	2.101944	-1.722636	2.818437	0.000000	-0.274679	0.000000	0.004830	-0.000568	0.000000	0.000000
34.510739	18.008859	17.037722	2.542681	-2.415314	2.645546	0.000000	-0.355361	0.000000	0.004476	-0.000719	0.000000	0.000000
34.956699	16.014800	19.058257	1.944144	-2.096267	2.503723	0.000000	-0.282271	0.000000	0.004181	-0.000607	0.000000	0.000000
35.397659	14.528192	20.731079	1.439510	-1.682668	2.394895	0.000000	-0.212832	0.000000	0.003936	-0.000502	0.000000	0.000000
35.838619	13.456104	22.003826	1.000658	-1.192500	2.316085	0.000000	-0.145813	0.000000	0.003737	-0.000403	0.000000	0.000000
36.279579	12.749540	22.818588	0.607535	-0.648071	2.266395	0.000000	-0.080450	0.000000	0.003580	-0.000309	0.000000	0.000000
36.721789	12.375534	23.138606	0.271413	-0.129003	2.245235	0.000000	-0.021324	0.000000	0.003464	-0.000227	0.000000	0.000000
37.019112	12.221809	23.219201	0.245618	-0.142066	2.238963	0.000000	-0.021324	0.000000	0.003396	-0.000227	0.000000	0.000000
37.352445	12.067703	23.318794	0.216699	-0.156712	2.231930	0.000000	-0.021324	0.000000	0.003321	-0.000227	0.000000	0.000000
37.685779	11.932876	23.428150	0.187780	-0.171358	2.224898	0.000000	-0.021324	0.000000	0.003245	-0.000227	0.000000	0.000000
38.020362	11.816932	23.547736	0.158753	-0.186058	2.217839	0.000000	-0.021324	0.000000	0.003170	-0.000227	0.000000	0.000000
38.317684	11.730196	23.662265	0.160874	-0.255511	2.211566	0.000000	-0.026587	0.000000	0.003102	-0.000234	0.000000	0.000000
38.758644	11.738274	23.625447	-0.179326	0.338684	2.213888	0.000000	0.036751	0.000000	0.003016	-0.000155	0.000000	0.000000
39.199604	12.048870	23.069394	-0.527719	0.917468	2.244174	0.000000	0.100510	0.000000	0.002965	-0.000078	0.000000	0.000000
39.640564	12.676177	22.019410	-0.900225	1.454504	2.302768	0.000000	0.165414	0.000000	0.002948	-0.000002	0.000000	0.000000
40.081524	13.648858	20.523270	-1.313864	1.925355	2.390339	0.000000	0.232202	0.000000	0.002963	0.000074	0.000000	0.000000
40.527484	15.028895	18.626411	-1.791406	2.309964	2.509363	0.000000	0.302050	0.000000	0.003014	0.000152	0.000000	0.000000
41.076544	16.791463	16.494528	-1.399559	1.595573	2.654558	0.000000	0.226234	0.000000	0.003070	0.000053	0.000000	0.000000
41.625604	18.066518	15.080520	-0.908841	0.994841	2.757013	0.000000	0.146406	0.000000	0.003072	-0.000046	0.000000	0.000000
42.174664	18.763980	14.283662	-0.353918	0.464976	2.814908	0.000000	0.063981	0.000000	0.003020	-0.000145	0.000000	0.000000
42.723724	18.834577	14.047191	0.226003	-0.031767	2.827218	0.000000	-0.019582	0.000000	0.002914	-0.000241	0.000000	0.000000
43.022297	18.733162	14.051103	0.161648	-0.017174	2.823591	0.000000	-0.012377	0.000000	0.002844	-0.000234	0.000000	0.000000
43.502297	18.590600	14.083993	0.135356	-0.051345	2.817763	0.000000	-0.012377	0.000000	0.002732	-0.000234	0.000000	0.000000
43.982297	18.473279	14.149686	0.109063	-0.085516	2.811934	0.000000	-0.012377	0.000000	0.002620	-0.000234	0.000000	0.000000
44.462297	18.381198	14.248184	0.082771	-0.119687	2.806105	0.000000	-0.012377	0.000000	0.002508	-0.000234	0.000000	0.000000
44.942297	18.314359	14.379486	0.056478	-0.153858	2.800276	0.000000	-0.012377	0.000000	0.002396	-0.000234	0.000000	0.000000
45.423547	18.272911	14.543882	-0.060417	-0.116059	2.794449	0.000000	0.001468	0.000000	0.002283	-0.000222	0.000000	0.000000
45.720870	18.313696	14.619054	-0.123704	-0.099340	2.794952	0.000000	0.008634	0.000000	0.002217	-0.000216	0.000000	0.000000
46.269930	18.141055	15.010722	0.436133	-0.618191	2.777170	0.000000	-0.073792	0.000000	0.002079	-0.000286	0.000000	0.000000
46.818990	17.366970	15.992858	0.965155	-1.181076	2.714457	0.000000	-0.154915	0.000000	0.001904	-0.000351	0.000000	0.000000
47.368050	16.046133	17.635416	1.425992	-1.828089	2.607923	0.000000	-0.233295	0.000000	0.001695	-0.000409	0.000000	0.000000
47.917110	14.271860	20.055391	1.786090	-2.605316	2.459455	0.000000	-0.307544	0.000000	0.001456	-0.000460	0.000000	0.000000
48.363070	12.890478	22.206680	1.322204	-2.198281	2.337830	0.000000	-0.239033	0.000000	0.001259	-0.000425	0.000000	0.000000
48.804030	11.904308	23.928961	0.922514	-1.692544	2.247103	0.000000	-0.173643	0.000000	0.001079	-0.000395	0.000000	0.000000
49.244990	11.250799	25.169419	0.564976	-1.109796	2.184737	0.000000	-0.110226	0.000000	0.000911	-0.000369	0.000000	0.000000
49.685950	10.900088	25.871616	0.233253	-0.476553	2.150023	0.000000	-0.048061	0.000000	0.000753	-0.000348	0.000000	0.000000
50.128160	10.836302	26.003317	-0.061504	0.115041	2.142579	0.000000	0.008336	0.000000	0.000603	-0.000332	0.000000	0.000000
50.425482	10.881064	25.938353	-0.089045	0.103456	2.145156	0.000000	0.008336	0.000000	0.000504	-0.000332	0.000000	0.000000
50.758816	10.950720	25.873712	-0.119923	0.090467	2.148045	0.000000	0.008336	0.000000	0.000394	-0.000332	0.000000	0.000000
51.092149	11.040961	25.817730	-0.150800	0.077479	2.150935	0.000000	0.008336	0.000000	0.000283	-0.000332	0.000000	0.000000
51.426732	11.152015	25.770768	-0.091320	-0.144623	2.153813	0.000000	-0.009137	0.000000	0.000173	-0.000333	0.000000	0.000000
51.724055	11.214311	25.860270	-0.090722	-0.219898	2.151195	0.000000	-0.014409	0.000000	0.000074	-0.000333	0.000000	0.000000
52.165015	11.440516	25.766426	-0.424316	0.431906	2.158612	0.000000	0.047434	0.000000	-0.000073	-0.000333	0.000000	0.000000
52.605975	11.968325	25.104248	-0.777293	1.064057	2.193393	0.000000	0.109820	0.000000	-0.000221	-0.000337	0.000000	0.000000
53.046935	12.821848	23.903868	-1.165780	1.647793	2.255936	0.000000	0.173460	0.000000	-0.000371	-0.000345	0.000000	0.000000
53.487895	14.040077	22.219905	-1.607525	2.156555	2.346955	0.000000	0.239080	0.000000	-0.000525	-0.000356	0.000000	0.000000
53.933855	15.699511	20.103813	-2.126970	2.568522	2.468996	0.000000	0.307824	0.000000	-0.000687	-0.000372	0.000000	0.000000
54.482915	17.835696	17.722495	-1.740838	1.794209	2.617949	0.000000	0.233266	0.000000	-0.000885	-0.000346	0.000000	0.000000
55.031975	19.477426	16.116716	-1.231754	1.147691	2.724751	0.000000	0.154564	0.000000	-0.001066	-0.000315	0.000000	0.000000
55.581035	20.508752	15.172098	-0.635675	0.582920	2.787504	0.000000	0.073116	0.000000	-0.001229	-0.000278	0.000000	0.000000
56.130095	20.856838	14.821355	0.005297	0.059669	2.805092	0.000000	-0.009634	0.000000	-0.001370	-0.000235	0.000000	0.000000
56.428668	20.890873	14.768379	-0.064173	0.078545	2.804500	0.000000	-0.002221	0.000000	-0.001442	-0.000239	0.000000	0.000000
56.762001	20.938995	14.723586	-0.080194	0.055835	2.803840	0.000000	-0.002221	0.000000	-0.001521	-0.000239	0.000000	0.000000
57.095334	20.997799	14.693932	-0.096216	0.033126	2.803179	0.000000	-0.002221	0.000000	-0.001601	-0.000239	0.000000	0.000000
57.429918	21.067564	14.679392	-0.112298	0.010330	2.802516	0.000000	-0.002221	0.000000	-0.001681	-0.000239	0.000000	0.000000
57.727240	21.138592	14.679271	-0.182627	0.028938	2.801927	0.000000	0.005207	0.000000	-0.001752	-0.000244	0.000000	0.000000
58.276300	20.978091	14.929172	0.473095	-0.486780	2.782192	0.000000	-0.077404	0.000000	-0.001870	-0.000185	0.000000	0.000000
58.825360	20.111740	15.760978	1.095398	-1.037167	2.717377	0.000000	-0.158645	0.000000	-0.001955	-0.000123	0.000000	0.000000
59.374420	18.600732	17.233931	1.640331	-1.661425	2.608631	0.000000	-0.237075	0.000000	-0.002005	-0.000059	0.000000	0.000000
59.923480	16.551786	19.452940	2.069408	-2.404015	2.457882	0.000000	-0.311300	0.000000	-0.002019	0.000006	0.000000	0.000000
60.369440	14.947364	21.425117	1.541072	-1.999717	2.334389	0.000000	-0.242870	0.000000	-0.002028	-0.000046	0.000000	0.000000
60.810400	13.792739	22.976756	1.087342	-1.505772	2.241806	0.000000	-0.177598	0.000000	-0.002060	-0.000099	0.000000	0.000000
61.251360	13.014915	24.060801	0.683287	-0.943321	2.177554	0.000000	-0.114347	0.000000	-0.002115	-0.000153	0.000000	0.000000
61.692320	12.578358	24.627932	0.310448	-0.337952	2.140903	0.000000	-0.052397	0.000000	-0.002195	-0.000208	0.000000	0.000000
62.134530	12.463169	24.651791	-0.017084	0.221072	2.131442	0.000000	0.003619	0.000000	-0.002299	-0.000260	0.000000	0.000000
62.431853	12.480423	24.524092	-0.040948	0.208421	2.132595	0.000000	0.003619	0.000000	-0.002377	-0.000260	0.000000	0.000000
62.765186	12.516639	24.389872	-0.067701	0.194239	2.133888	0.000000	0.003619	0.000000	-0.002464	-0.000260	0.000000	0.000000
63.098520	12.570691	24.265107	-0.094454	0.180056	2.135181	0.000000	0.003619	0.000000	-0.002550	-0.000260	0.000000	0.000000
63.433103	12.642881	24.149383	-0.121308	0.165821	2.136479	0.000000	0.003619	0.000000	-0.002638	-0.000260	0.000000	0.000000
63.730426	12.722108	24.054545	-0.113178	0.092590	2.137632	0.000000	-0.001757	0.000000	-0.002715	-0.000254	0.000000	0.000000
64.171386	12.983459	23.708038	-0.481885	0.690251	2.150541	0.000000	0.059802	0.000000	-0.002843	-0.000325	0.000000	0.000000
64.612346	13.578392	22.846352	-0.872603	1.256508	2.190750	0.000000	0.122046	0.000000	-0.003002	-0.000401	0.000000	0.000000
65.053306	14.534080	21.508693	-1.303180	1.765598	2.258718	0.000000	0.185683	0.000000	-0.003196	-0.000481	0.000000	0.000000
65.494266	15.894172	19.755924	-1.793282	2.194360	2.355222	0.000000	0.251441	0.000000	-0.003427	-0.000566	0.000000	0.000000
65.940226	17.744016	17.642999	-2.369920	2.523957	2.482935	0.000000	0.320458	0.000000	-0.003700	-0.000658	0.000000	0.000000
66.489286	20.113877	15.279549	-1.921307	1.806226	2.638801	0.000000	0.245344	0.000000	-0.004027	-0.000533	0.000000	0.000000
67.038346	21.913283	13.629378	-1.337017	1.217138	2.752098	0.000000	0.165870	0.000000	-0.004283	-0.000399	0.000000	0.000000
67.587406	23.015176	12.574954	-0.658313	0.714734	2.820813	0.000000	0.083447	0.000000	-0.004464	-0.000257	0.000000	0.000000
68.136466	23.341756	12.041176	0.066876	0.263234	2.843724	0.000000	-0.000460	0.000000	-0.004565	-0.000111	0.000000	0.000000
68.435038	23.343420	11.872538	-0.009208	0.268936	2.845925	0.000000	0.007251	0.000000	-0.004601	-0.000123	0.000000	0.000000
68.768372	23.354319	11.703284	-0.023488	0.238829	2.848383	0.000000	0.007251	0.000000	-0.004642	-0.000123	0.000000	0.000000
69.101705	23.374738	11.554100	-0.037769	0.208722	2.850841	0.000000	0.007251	0.000000	-0.004683	-0.000123	0.000000	0.000000
69.436288	23.404808	11.424541	-0.052103	0.178503	2.853308	0.000000	0.007251	0.000000	-0.004724	-0.000123	0.000000	0.000000
69.733611	23.439594	11.326372	-0.128497	0.182386	2.855501	0.000000	0.015006	0.000000	-0.004761	-0.000135	0.000000	0.000000
70.282671	23.178167	11.353054	0.601808	-0.231273	2.840575	0.000000	-0.069411	0.000000	-0.004793	0.000019	0.000000	0.000000
