#ParticleID	Turn	x[m]	xp	y[m]	yp	z[m]	dE[GeV]# s	beta_x	beta_y	alpha_x	alpha_y	D_x	D_y	D_px	D_py	orbit_x	orbit_px	orbit_y	orbit_py
0.300000	11.918008	25.054103	-0.010212	-0.028023	2.605900	0.000000	-0.002544	0.000000	-0.001300	0.001084	0.000000	0.000000
0.601250	11.931776	25.074612	-0.035491	-0.040057	2.604807	0.000000	-0.002544	0.000000	-0.000973	0.001084	0.000000	0.000000
0.898573	11.960299	25.101963	-0.030931	-0.113479	2.603729	0.000000	-0.008968	0.000000	-0.000651	0.001085	0.000000	0.000000
1.339533	12.140889	24.923571	-0.379792	0.516496	2.615524	0.000000	0.064596	0.000000	-0.000175	0.001075	0.000000	0.000000
1.780493	12.635615	24.197868	-0.746013	1.122975	2.659889	0.000000	0.138884	0.000000	0.000299	0.001076	0.000000	0.000000
2.221453	13.467092	22.957861	-1.146326	1.678363	2.737325	0.000000	0.214742	0.000000	0.000776	0.001090	0.000000	0.000000
2.662413	14.673319	21.259962	-1.599022	2.157388	2.848709	0.000000	0.293035	0.000000	0.001262	0.001116	0.000000	0.000000
3.108373	16.330288	19.156505	-2.129132	2.539433	2.997137	0.000000	0.375146	0.000000	0.001768	0.001156	0.000000	0.000000
3.657433	18.454245	16.793872	-1.715638	1.788886	3.177487	0.000000	0.282955	0.000000	0.002385	0.001088	0.000000	0.000000
4.206493	20.054487	15.181052	-1.180926	1.165761	3.305810	0.000000	0.185762	0.000000	0.002960	0.001002	0.000000	0.000000
4.755553	21.017936	14.203174	-0.562769	0.625673	3.379838	0.000000	0.085290	0.000000	0.003482	0.000897	0.000000	0.000000
5.304613	21.276502	13.790596	0.095165	0.130150	3.398263	0.000000	-0.016680	0.000000	0.003942	0.000777	0.000000	0.000000
5.603185	21.255952	13.698817	0.027370	0.142587	3.395610	0.000000	-0.008097	0.000000	0.004177	0.000787	0.000000	0.000000
5.936519	21.242936	13.612035	0.011676	0.117759	3.392648	0.000000	-0.008097	0.000000	0.004440	0.000787	0.000000	0.000000
6.269852	21.240383	13.541805	-0.004018	0.092931	3.389687	0.000000	-0.008097	0.000000	0.004702	0.000787	0.000000	0.000000
6.604435	21.248342	13.487957	-0.019770	0.068011	3.386714	0.000000	-0.008097	0.000000	0.004966	0.000787	0.000000	0.000000
6.901758	21.264277	13.454088	-0.086871	0.079621	3.384074	0.000000	0.000354	0.000000	0.005200	0.000801	0.000000	0.000000
7.450818	20.997404	13.627912	0.570443	-0.398050	3.356025	0.000000	-0.101006	0.000000	0.005592	0.000626	0.000000	0.000000
7.999878	20.026550	14.338723	1.187467	-0.904081	3.272827	0.000000	-0.200563	0.000000	0.005885	0.000440	0.000000	0.000000
8.548938	18.420301	15.637163	1.720603	-1.474519	3.135960	0.000000	-0.296556	0.000000	0.006073	0.000246	0.000000	0.000000
9.097998	16.292148	17.615736	2.132177	-2.150004	2.947855	0.000000	-0.387283	0.000000	0.006154	0.000048	0.000000	0.000000
9.543958	14.632516	19.378576	1.602274	-1.785849	2.793173	0.000000	-0.306503	0.000000	0.006211	0.000208	0.000000	0.000000
9.984918	13.423388	20.763139	1.150036	-1.341803	2.674927	0.000000	-0.229717	0.000000	0.006339	0.000370	0.000000	0.000000
10.425878	12.588559	21.727527	0.750351	-0.836693	2.589864	0.000000	-0.155552	0.000000	0.006538	0.000536	0.000000	0.000000
10.866838	12.089876	22.227851	0.384953	-0.293506	2.537013	0.000000	-0.083165	0.000000	0.006812	0.000708	0.000000	0.000000
11.309048	11.904410	22.240775	0.064218	0.211926	2.515748	0.000000	-0.017476	0.000000	0.007165	0.000871	0.000000	0.000000
11.606371	11.873680	22.118907	0.039140	0.197957	2.510293	0.000000	-0.017476	0.000000	0.007424	0.000871	0.000000	0.000000
12.086371	11.855540	21.939693	-0.001348	0.175405	2.501486	0.000000	-0.017476	0.000000	0.007843	0.000871	0.000000	0.000000
12.566371	11.876268	21.782129	-0.041836	0.152854	2.492679	0.000000	-0.017476	0.000000	0.008261	0.000871	0.000000	0.000000
13.046371	11.935864	21.646213	-0.082323	0.130303	2.483872	0.000000	-0.017476	0.000000	0.008679	0.000871	0.000000	0.000000
13.526371	12.034328	21.531947	-0.122811	0.107752	2.475065	0.000000	-0.017476	0.000000	0.009097	0.000871	0.000000	0.000000
14.007621	12.172069	21.439117	-0.163404	0.085142	2.466235	0.000000	-0.017476	0.000000	0.009517	0.000871	0.000000	0.000000
14.304943	12.276658	21.392701	-0.161233	0.023939	2.460776	0.000000	-0.022938	0.000000	0.009776	0.000849	0.000000	0.000000
14.745903	12.576706	21.137402	-0.521347	0.552737	2.465633	0.000000	0.046870	0.000000	0.010206	0.001106	0.000000	0.000000
15.186863	13.203717	20.425027	-0.905300	1.056382	2.501252	0.000000	0.117201	0.000000	0.010753	0.001376	0.000000	0.000000
15.627823	14.186370	19.287986	-1.330643	1.511952	2.568032	0.000000	0.188852	0.000000	0.011423	0.001662	0.000000	0.000000
16.068783	15.569608	17.778015	-1.816825	1.898712	2.666730	0.000000	0.262637	0.000000	0.012222	0.001967	0.000000	0.000000
16.514743	17.440374	15.942029	-2.391066	2.200089	2.800133	0.000000	0.339889	0.000000	0.013172	0.002297	0.000000	0.000000
17.063803	19.843468	13.892109	-1.957764	1.554720	2.962446	0.000000	0.254341	0.000000	0.014313	0.001851	0.000000	0.000000
17.612863	21.691290	12.486365	-1.386053	1.020126	3.076723	0.000000	0.164310	0.000000	0.015200	0.001373	0.000000	0.000000
18.161923	22.853164	11.624654	-0.716343	0.558220	3.140948	0.000000	0.071386	0.000000	0.015817	0.000870	0.000000	0.000000
18.710983	23.246916	11.245587	0.004019	0.136090	3.153990	0.000000	-0.022792	0.000000	0.016153	0.000352	0.000000	0.000000
19.009556	23.279334	11.157506	-0.061024	0.134027	3.149169	0.000000	-0.015714	0.000000	0.016270	0.000392	0.000000	0.000000
19.342889	23.324808	11.078292	-0.075396	0.103615	3.143800	0.000000	-0.015714	0.000000	0.016400	0.000392	0.000000	0.000000
19.676223	23.379863	11.019353	-0.089769	0.073203	3.138432	0.000000	-0.015714	0.000000	0.016531	0.000392	0.000000	0.000000
20.010806	23.445050	10.980445	-0.220354	0.097081	3.133063	0.000000	-0.000191	0.000000	0.016662	0.000474	0.000000	0.000000
20.308129	23.580232	10.930752	-0.286195	0.094191	3.132878	0.000000	0.006790	0.000000	0.016803	0.000515	0.000000	0.000000
20.857189	23.488019	11.048809	0.453270	-0.310425	3.110815	0.000000	-0.086559	0.000000	0.016936	-0.000032	0.000000	0.000000
21.406249	22.596248	11.620758	1.160695	-0.737162	3.038119	0.000000	-0.178372	0.000000	0.016768	-0.000578	0.000000	0.000000
21.955309	20.967983	12.687351	1.786063	-1.216429	2.916079	0.000000	-0.267030	0.000000	0.016303	-0.001114	0.000000	0.000000
22.504369	18.718369	14.324583	2.285161	-1.782375	2.746856	0.000000	-0.350967	0.000000	0.015548	-0.001630	0.000000	0.000000
22.950329	16.947145	15.794747	1.698601	-1.499382	2.607889	0.000000	-0.275156	0.000000	0.014909	-0.001235	0.000000	0.000000
23.391289	15.675646	16.967420	1.194728	-1.149302	2.502996	0.000000	-0.202961	0.000000	0.014449	-0.000856	0.000000	0.000000
23.832249	14.823023	17.806940	0.745481	-0.746910	2.429248	0.000000	-0.133070	0.000000	0.014153	-0.000488	0.000000	0.000000
24.273209	14.350282	18.275101	0.330319	-0.310521	2.385809	0.000000	-0.064690	0.000000	0.014018	-0.000124	0.000000	0.000000
24.715418	14.235981	18.350237	-0.039724	0.101065	2.372187	0.000000	-0.002063	0.000000	0.014043	0.000205	0.000000	0.000000
25.012741	14.265822	18.295005	-0.060642	0.084697	2.371513	0.000000	-0.002063	0.000000	0.014104	0.000205	0.000000	0.000000
25.346075	14.314067	18.244658	-0.084094	0.066346	2.370757	0.000000	-0.002063	0.000000	0.014172	0.000205	0.000000	0.000000
25.679408	14.377947	18.206543	-0.107546	0.047996	2.370001	0.000000	-0.002063	0.000000	0.014241	0.000205	0.000000	0.000000
26.013991	14.457496	18.180958	-0.013797	-0.117916	2.369218	0.000000	-0.021284	0.000000	0.014309	0.000089	0.000000	0.000000
26.311314	14.471728	18.256116	-0.003868	-0.172956	2.362856	0.000000	-0.026263	0.000000	0.014336	0.000056	0.000000	0.000000
26.752274	14.654099	18.210709	-0.411092	0.275517	2.366001	0.000000	0.041006	0.000000	0.014442	0.000427	0.000000	0.000000
27.193234	15.202656	17.773742	-0.837114	0.711450	2.398730	0.000000	0.108738	0.000000	0.014714	0.000803	0.000000	0.000000
27.634194	16.142492	16.965100	-1.301414	1.115001	2.461414	0.000000	0.177700	0.000000	0.015152	0.001188	0.000000	0.000000
28.075154	17.516600	15.821582	-1.825222	1.467801	2.554764	0.000000	0.248674	0.000000	0.015764	0.001587	0.000000	0.000000
28.521114	19.412086	14.377766	-2.437781	1.755027	2.681434	0.000000	0.322950	0.000000	0.016565	0.002007	0.000000	0.000000
29.070174	21.822830	12.769486	-1.924783	1.190700	2.835709	0.000000	0.241373	0.000000	0.017517	0.001454	0.000000	0.000000
29.619234	23.591428	11.731082	-1.275693	0.711222	2.944246	0.000000	0.155536	0.000000	0.018158	0.000876	0.000000	0.000000
30.168294	24.592790	11.188571	-0.536404	0.282425	3.005126	0.000000	0.066953	0.000000	0.018476	0.000283	0.000000	0.000000
30.717354	24.756093	11.103300	0.240810	-0.126245	3.017274	0.000000	-0.022814	0.000000	0.018467	-0.000316	0.000000	0.000000
31.015927	24.648125	11.172367	0.174150	-0.129060	3.012499	0.000000	-0.016211	0.000000	0.018386	-0.000272	0.000000	0.000000
31.349260	24.536670	11.268518	0.160217	-0.159393	3.007186	0.000000	-0.016211	0.000000	0.018295	-0.000272	0.000000	0.000000
31.682593	24.434503	11.384891	0.146283	-0.189725	3.001873	0.000000	-0.016211	0.000000	0.018205	-0.000272	0.000000	0.000000
32.017177	24.341295	11.522035	0.132297	-0.220172	2.996540	0.000000	-0.016211	0.000000	0.018114	-0.000272	0.000000	0.000000
32.314499	24.266553	11.660892	0.066500	-0.221623	2.991816	0.000000	-0.009631	0.000000	0.018033	-0.000228	0.000000	0.000000
32.863559	23.777744	12.142253	0.817908	-0.660030	2.962410	0.000000	-0.098291	0.000000	0.017748	-0.000808	0.000000	0.000000
33.412619	22.490427	13.128008	1.511479	-1.145470	2.885018	0.000000	-0.185221	0.000000	0.017148	-0.001374	0.000000	0.000000
33.961679	20.495656	14.688386	2.098178	-1.712535	2.761008	0.000000	-0.268885	0.000000	0.016244	-0.001915	0.000000	0.000000
34.510739	17.934513	16.934554	2.536527	-2.401627	2.592567	0.000000	-0.347809	0.000000	0.015051	-0.002422	0.000000	0.000000
34.956699	15.944467	18.944137	1.939476	-2.084564	2.454465	0.000000	-0.276000	0.000000	0.014056	-0.002044	0.000000	0.000000
35.397659	14.460830	20.608048	1.436371	-1.673717	2.348676	0.000000	-0.207777	0.000000	0.013233	-0.001692	0.000000	0.000000
35.838619	13.390548	21.874428	0.998943	-1.186693	2.272287	0.000000	-0.141904	0.000000	0.012560	-0.001360	0.000000	0.000000
36.279579	12.684664	22.685653	0.607190	-0.645661	2.224433	0.000000	-0.077632	0.000000	0.012031	-0.001043	0.000000	0.000000
36.721789	12.310265	23.005033	0.269855	-0.125081	2.204555	0.000000	-0.019027	0.000000	0.011638	-0.000765	0.000000	0.000000
37.019112	12.157501	23.083315	0.243944	-0.138207	2.199125	0.000000	-0.019027	0.000000	0.011410	-0.000765	0.000000	0.000000
37.352445	12.004554	23.180359	0.214895	-0.152924	2.193038	0.000000	-0.019027	0.000000	0.011155	-0.000765	0.000000	0.000000
37.685779	11.870974	23.287213	0.185845	-0.167640	2.186950	0.000000	-0.019027	0.000000	0.010901	-0.000765	0.000000	0.000000
38.020362	11.756369	23.404334	0.156687	-0.182411	2.180840	0.000000	-0.019027	0.000000	0.010645	-0.000765	0.000000	0.000000
38.317684	11.670863	23.516782	0.156503	-0.247632	2.175407	0.000000	-0.023822	0.000000	0.010417	-0.000789	0.000000	0.000000
38.758644	11.682173	23.474713	-0.182465	0.342658	2.178945	0.000000	0.038611	0.000000	0.010128	-0.000524	0.000000	0.000000
39.199604	11.995039	22.916897	-0.529768	0.917351	2.209978	0.000000	0.101490	0.000000	0.009954	-0.000265	0.000000	0.000000
39.640564	12.623757	21.868723	-0.901284	1.450292	2.268860	0.000000	0.165527	0.000000	0.009894	-0.000009	0.000000	0.000000
40.081524	13.597070	20.377897	-1.313994	1.917227	2.356265	0.000000	0.231451	0.000000	0.009946	0.000247	0.000000	0.000000
40.527484	14.977107	18.489604	-1.790764	2.298431	2.474664	0.000000	0.300441	0.000000	0.010114	0.000507	0.000000	0.000000
41.076544	16.740324	16.367813	-1.400936	1.588225	2.619171	0.000000	0.225743	0.000000	0.010302	0.000176	0.000000	0.000000
41.625604	18.018079	14.959672	-0.912106	0.991178	2.721673	0.000000	0.147044	0.000000	0.010307	-0.000158	0.000000	0.000000
42.174664	18.720062	14.164856	-0.358825	0.464751	2.780353	0.000000	0.065733	0.000000	0.010129	-0.000489	0.000000	0.000000
42.723724	18.796666	13.926734	0.219803	-0.028561	2.794165	0.000000	-0.016752	0.000000	0.009771	-0.000811	0.000000	0.000000
43.022297	18.697108	13.930227	0.158451	-0.016505	2.791391	0.000000	-0.010066	0.000000	0.009536	-0.000787	0.000000	0.000000
43.502297	18.557627	13.962616	0.132134	-0.050972	2.786937	0.000000	-0.010066	0.000000	0.009159	-0.000787	0.000000	0.000000
43.982297	18.443410	14.028092	0.105817	-0.085438	2.782483	0.000000	-0.010066	0.000000	0.008781	-0.000787	0.000000	0.000000
44.462297	18.354458	14.126657	0.079500	-0.119905	2.778030	0.000000	-0.010066	0.000000	0.008403	-0.000787	0.000000	0.000000
44.942297	18.290770	14.258311	0.053183	-0.154372	2.773576	0.000000	-0.010066	0.000000	0.008025	-0.000787	0.000000	0.000000
45.423547	18.252506	14.423345	-0.063636	-0.117466	2.769128	0.000000	0.003654	0.000000	0.007647	-0.000749	0.000000	0.000000
45.720870	18.295239	14.499386	-0.124764	-0.103037	2.770439	0.000000	0.010434	0.000000	0.007424	-0.000730	0.000000	0.000000
46.269930	18.123867	14.893269	0.434561	-0.618499	2.754169	0.000000	-0.071236	0.000000	0.006958	-0.000963	0.000000	0.000000
46.818990	17.351486	15.873971	0.963163	-1.178021	2.693449	0.000000	-0.151657	0.000000	0.006369	-0.001179	0.000000	0.000000
47.368050	16.032699	17.511342	1.423693	-1.821460	2.589348	0.000000	-0.229408	0.000000	0.005667	-0.001374	0.000000	0.000000
47.917110	14.260719	19.922004	1.783613	-2.594650	2.443704	0.000000	-0.303111	0.000000	0.004864	-0.001545	0.000000	0.000000
48.363070	12.881147	22.065395	1.320053	-2.191104	2.324417	0.000000	-0.234965	0.000000	0.004202	-0.001427	0.000000	0.000000
48.804030	11.896546	23.783111	0.920658	-1.689251	2.235820	0.000000	-0.169890	0.000000	0.003595	-0.001327	0.000000	0.000000
49.244990	11.244416	25.022480	0.563342	-1.110534	2.175432	0.000000	-0.106736	0.000000	0.003030	-0.001241	0.000000	0.000000
49.685950	10.894944	25.727121	0.231776	-0.481290	2.142570	0.000000	-0.044784	0.000000	0.002498	-0.001170	0.000000	0.000000
50.128160	10.832309	25.864709	-0.063248	0.107985	2.136880	0.000000	0.011530	0.000000	0.001994	-0.001117	0.000000	0.000000
50.425482	10.878113	25.803954	-0.090806	0.096356	2.140641	0.000000	0.011530	0.000000	0.001662	-0.001117	0.000000	0.000000
50.758816	10.948949	25.744063	-0.121701	0.083318	2.144856	0.000000	0.011530	0.000000	0.001290	-0.001117	0.000000	0.000000
51.092149	11.040382	25.692864	-0.152596	0.070280	2.149072	0.000000	0.011530	0.000000	0.000917	-0.001117	0.000000	0.000000
51.426732	11.152644	25.650734	-0.093130	-0.150898	2.153282	0.000000	-0.005939	0.000000	0.000543	-0.001122	0.000000	0.000000
51.724055	11.216018	25.743990	-0.092570	-0.226172	2.151849	0.000000	-0.011205	0.000000	0.000210	-0.001122	0.000000	0.000000
52.165015	11.443777	25.657016	-0.426257	0.422658	2.161022	0.000000	0.050676	0.000000	-0.000285	-0.001123	0.000000	0.000000
52.605975	11.973249	25.004160	-0.779409	1.052253	2.197590	0.000000	0.113147	0.000000	-0.000782	-0.001137	0.000000	0.000000
53.046935	12.828615	23.815135	-1.168161	1.633969	2.261972	0.000000	0.176919	0.000000	-0.001289	-0.001164	0.000000	0.000000
53.487895	14.048939	22.144053	-1.610271	2.141338	2.354908	0.000000	0.242719	0.000000	-0.001810	-0.001203	0.000000	0.000000
53.933855	15.710835	20.041941	-2.130166	2.552573	2.478992	0.000000	0.311689	0.000000	-0.002359	-0.001258	0.000000	0.000000
54.482915	17.850210	17.676413	-1.743925	1.781344	2.630422	0.000000	0.236773	0.000000	-0.003026	-0.001170	0.000000	0.000000
55.031975	19.494897	16.083547	-1.234539	1.136993	2.739445	0.000000	0.157638	0.000000	-0.003640	-0.001062	0.000000	0.000000
55.581035	20.528775	15.149879	-0.637986	0.573624	2.804120	0.000000	0.075690	0.000000	-0.004189	-0.000935	0.000000	0.000000
56.130095	20.878859	14.808896	0.003603	0.051112	2.823292	0.000000	-0.007615	0.000000	-0.004664	-0.000792	0.000000	0.000000
56.428668	20.914810	14.760358	-0.067398	0.071134	2.823545	0.000000	0.000047	0.000000	-0.004904	-0.000804	0.000000	0.000000
56.762001	20.965079	14.720501	-0.083408	0.048436	2.823828	0.000000	0.000047	0.000000	-0.005172	-0.000804	0.000000	0.000000
57.095334	21.026021	14.695776	-0.099418	0.025739	2.824112	0.000000	0.000047	0.000000	-0.005441	-0.000804	0.000000	0.000000
57.429918	21.097925	14.686175	-0.115488	0.002957	2.824397	0.000000	0.000047	0.000000	-0.005710	-0.000804	0.000000	0.000000
57.727240	21.170867	14.690421	-0.187795	0.022808	2.824651	0.000000	0.007789	0.000000	-0.005949	-0.000820	0.000000	0.000000
58.276300	21.015297	14.947275	0.469047	-0.493418	2.806398	0.000000	-0.075572	0.000000	-0.006345	-0.000621	0.000000	0.000000
58.825360	20.152580	15.786805	1.092754	-1.044780	2.742569	0.000000	-0.157602	0.000000	-0.006629	-0.000411	0.000000	0.000000
59.374420	18.643647	17.268792	1.639288	-1.670544	2.634293	0.000000	-0.236844	0.000000	-0.006795	-0.000194	0.000000	0.000000
59.923480	16.595044	19.498771	2.070059	-2.415272	2.483486	0.000000	-0.311889	0.000000	-0.006841	0.000027	0.000000	0.000000
60.369440	14.990368	21.480787	1.541061	-2.010557	2.359893	0.000000	-0.242821	0.000000	-0.006868	-0.000150	0.000000	0.000000
60.810400	13.836142	23.041463	1.086557	-1.515594	2.267553	0.000000	-0.176897	0.000000	-0.006974	-0.000329	0.000000	0.000000
61.251360	13.059373	24.133480	0.681683	-0.951687	2.203886	0.000000	-0.112983	0.000000	-0.007159	-0.000511	0.000000	0.000000
61.692320	12.624582	24.707165	0.307947	-0.344489	2.168171	0.000000	-0.050351	0.000000	-0.007425	-0.000699	0.000000	0.000000
62.134530	12.511978	24.735848	-0.018922	0.213614	2.160012	0.000000	0.006037	0.000000	-0.007778	-0.000875	0.000000	0.000000
62.431853	12.530298	24.612560	-0.042694	0.201046	2.162067	0.000000	0.006037	0.000000	-0.008038	-0.000875	0.000000	0.000000
62.765186	12.567645	24.483227	-0.069345	0.186955	2.164371	0.000000	0.006037	0.000000	-0.008330	-0.000875	0.000000	0.000000
63.098520	12.622758	24.363287	-0.095995	0.172865	2.166675	0.000000	0.006037	0.000000	-0.008621	-0.000875	0.000000	0.000000
63.433103	12.695945	24.252344	-0.122746	0.158721	2.168988	0.000000	0.006037	0.000000	-0.008914	-0.000875	0.000000	0.000000
63.730426	12.775972	24.161757	-0.112538	0.081586	2.171040	0.000000	0.000263	0.000000	-0.009174	-0.000852	0.000000	0.000000
64.171386	13.037136	23.823668	-0.482408	0.682312	2.185320	0.000000	0.062690	0.000000	-0.009603	-0.001094	0.000000	0.000000
64.612346	13.632843	22.967577	-0.874300	1.251999	2.227363	0.000000	0.125843	0.000000	-0.010141	-0.001348	0.000000	0.000000
65.053306	14.590282	21.632437	-1.306107	1.764732	2.297652	0.000000	0.190443	0.000000	-0.010794	-0.001618	0.000000	0.000000
65.494266	15.953150	19.878992	-1.797545	2.197192	2.396995	0.000000	0.257229	0.000000	-0.011570	-0.001906	0.000000	0.000000
65.940226	17.807047	17.762044	-2.375463	2.530234	2.528152	0.000000	0.327329	0.000000	-0.012489	-0.002218	0.000000	0.000000
66.489286	20.181220	15.393688	-1.924888	1.809492	2.688110	0.000000	0.250708	0.000000	-0.013592	-0.001796	0.000000	0.000000
67.038346	21.982782	13.741714	-1.338463	1.217595	2.804477	0.000000	0.169613	0.000000	-0.014455	-0.001341	0.000000	0.000000
67.587406	23.084631	12.688471	-0.657584	0.712395	2.875181	0.000000	0.085489	0.000000	-0.015061	-0.000863	0.000000	0.000000
68.136466	23.409042	12.158951	0.069694	0.257919	2.898960	0.000000	-0.000165	0.000000	-0.015400	-0.000370	0.000000	0.000000
68.435038	23.412116	11.991628	-0.011798	0.267009	2.901565	0.000000	0.008347	0.000000	-0.015523	-0.000413	0.000000	0.000000
68.768372	23.424728	11.823548	-0.026038	0.237231	2.904485	0.000000	0.008347	0.000000	-0.015660	-0.000413	0.000000	0.000000
69.101705	23.446833	11.675320	-0.040277	0.207452	2.907405	0.000000	0.008347	0.000000	-0.015798	-0.000413	0.000000	0.000000
69.436288	23.478567	11.546502	-0.054570	0.177561	2.910336	0.000000	0.008347	0.000000	-0.015936	-0.000413	0.000000	0.000000
69.733611	23.514971	11.448727	-0.136622	0.184694	2.912952	0.000000	0.016938	0.000000	-0.016059	-0.000457	0.000000	0.000000
70.282671	23.261138	11.474709	0.596166	-0.232305	2.898657	0.000000	-0.069320	0.000000	-0.016167	0.000065	0.000000	0.000000
