#ParticleID	Turn	x[m]	xp	y[m]	yp	z[m]	dE[GeV]# s	beta_x	beta_y	alpha_x	alpha_y	D_x	D_y	D_px	D_py	orbit_x	orbit_px	orbit_y	orbit_py
0.300000	11.859195	25.020531	-0.015498	-0.026401	2.614713	0.000000	0.000144	0.000000	-0.000140	0.000123	0.000000	0.000000
0.601250	11.876187	25.040067	-0.040906	-0.038450	2.614720	0.000000	0.000144	0.000000	-0.000103	0.000123	0.000000	0.000000
0.898573	11.907968	25.066467	-0.036763	-0.111806	2.614726	0.000000	-0.006272	0.000000	-0.000066	0.000123	0.000000	0.000000
1.339533	12.093078	24.887020	-0.384577	0.517204	2.628182	0.000000	0.067597	0.000000	-0.000012	0.000122	0.000000	0.000000
1.780493	12.591491	24.161134	-0.749961	1.122681	2.674350	0.000000	0.142236	0.000000	0.000041	0.000122	0.000000	0.000000
2.221453	13.425982	22.921835	-1.149611	1.677078	2.753756	0.000000	0.218493	0.000000	0.000096	0.000124	0.000000	0.000000
2.662413	14.634675	21.225508	-1.601784	2.155170	2.867303	0.000000	0.297237	0.000000	0.000151	0.000127	0.000000	0.000000
3.108373	16.293677	19.124462	-2.131456	2.536339	3.018144	0.000000	0.379855	0.000000	0.000208	0.000132	0.000000	0.000000
3.657433	18.420897	16.764699	-1.719826	1.786839	3.201403	0.000000	0.286944	0.000000	0.000279	0.000124	0.000000	0.000000
4.206493	20.026308	15.153677	-1.186713	1.164613	3.332180	0.000000	0.188945	0.000000	0.000344	0.000114	0.000000	0.000000
4.755553	20.996507	14.176647	-0.569773	0.625340	3.408155	0.000000	0.087597	0.000000	0.000403	0.000102	0.000000	0.000000
5.304613	21.262960	13.764019	0.087416	0.130608	3.427981	0.000000	-0.015304	0.000000	0.000455	0.000088	0.000000	0.000000
5.603185	21.248005	13.671300	0.018016	0.144124	3.426049	0.000000	-0.006381	0.000000	0.000482	0.000089	0.000000	0.000000
5.936519	21.241226	13.583514	0.002323	0.119235	3.423893	0.000000	-0.006381	0.000000	0.000512	0.000089	0.000000	0.000000
6.269852	21.244908	13.512320	-0.013370	0.094347	3.421736	0.000000	-0.006381	0.000000	0.000541	0.000089	0.000000	0.000000
6.604435	21.259125	13.457545	-0.029121	0.069365	3.419571	0.000000	-0.006381	0.000000	0.000571	0.000089	0.000000	0.000000
6.901758	21.280604	13.422898	-0.098442	0.082078	3.417647	0.000000	0.002504	0.000000	0.000597	0.000090	0.000000	0.000000
7.450818	21.025877	13.593468	0.559674	-0.394567	3.390814	0.000000	-0.099949	0.000000	0.000642	0.000070	0.000000	0.000000
7.999878	20.065976	14.299726	1.178258	-0.899318	3.308143	0.000000	-0.200627	0.000000	0.000674	0.000049	0.000000	0.000000
8.548938	18.468706	15.591980	1.713614	-1.468127	3.171102	0.000000	-0.297747	0.000000	0.000695	0.000027	0.000000	0.000000
9.097998	16.346892	17.562276	2.127926	-2.141509	2.982120	0.000000	-0.389584	0.000000	0.000704	0.000004	0.000000	0.000000
9.543958	14.691300	19.317929	1.597674	-1.778615	2.826663	0.000000	-0.307957	0.000000	0.000710	0.000023	0.000000	0.000000
9.984918	13.486567	20.696629	1.144743	-1.336042	2.708081	0.000000	-0.230324	0.000000	0.000724	0.000041	0.000000	0.000000
10.425878	12.656804	21.656611	0.744113	-0.832679	2.623114	0.000000	-0.155315	0.000000	0.000746	0.000060	0.000000	0.000000
10.866838	12.164101	22.154196	0.377481	-0.291429	2.570794	0.000000	-0.082075	0.000000	0.000777	0.000080	0.000000	0.000000
11.309048	11.985804	22.166221	0.057155	0.209052	2.550505	0.000000	-0.015977	0.000000	0.000817	0.000098	0.000000	0.000000
11.606371	11.959216	22.046071	0.032268	0.195053	2.545725	0.000000	-0.015977	0.000000	0.000846	0.000098	0.000000	0.000000
12.086371	11.947525	21.869669	-0.007910	0.172452	2.538009	0.000000	-0.015977	0.000000	0.000893	0.000098	0.000000	0.000000
12.566371	11.974404	21.714964	-0.048089	0.149851	2.530293	0.000000	-0.015977	0.000000	0.000940	0.000098	0.000000	0.000000
13.046371	12.039855	21.581955	-0.088267	0.127250	2.522577	0.000000	-0.015977	0.000000	0.000987	0.000098	0.000000	0.000000
13.526371	12.143877	21.470643	-0.128445	0.104649	2.514861	0.000000	-0.015977	0.000000	0.001034	0.000098	0.000000	0.000000
14.007621	12.286891	21.380824	-0.168728	0.081989	2.507125	0.000000	-0.015977	0.000000	0.001081	0.000098	0.000000	0.000000
14.304943	12.394624	21.336232	-0.163540	0.016247	2.502345	0.000000	-0.022049	0.000000	0.001111	0.000095	0.000000	0.000000
14.745903	12.697713	21.088390	-0.526358	0.543656	2.508197	0.000000	0.048828	0.000000	0.001159	0.000125	0.000000	0.000000
15.186863	13.330147	20.384581	-0.913226	1.046328	2.545383	0.000000	0.120259	0.000000	0.001221	0.000155	0.000000	0.000000
15.627823	14.320821	19.256827	-1.341820	1.501392	2.614326	0.000000	0.193059	0.000000	0.001296	0.000188	0.000000	0.000000
16.068783	15.715003	17.756440	-1.831723	1.888142	2.715811	0.000000	0.268056	0.000000	0.001387	0.000222	0.000000	0.000000
16.514743	17.600036	15.930190	-2.410108	2.189753	2.852688	0.000000	0.346570	0.000000	0.001494	0.000260	0.000000	0.000000
17.063803	20.020617	13.891065	-1.972161	1.545934	3.019140	0.000000	0.259289	0.000000	0.001623	0.000209	0.000000	0.000000
17.612863	21.880448	12.494687	-1.394896	1.012233	3.136361	0.000000	0.167411	0.000000	0.001723	0.000155	0.000000	0.000000
18.161923	23.048141	11.641593	-0.719093	0.550635	3.202275	0.000000	0.072567	0.000000	0.001793	0.000098	0.000000	0.000000
18.710983	23.441205	11.271018	0.007510	0.128258	3.215712	0.000000	-0.023563	0.000000	0.001831	0.000039	0.000000	0.000000
19.009556	23.476542	11.185225	-0.065566	0.130101	3.211133	0.000000	-0.015291	0.000000	0.001844	0.000044	0.000000	0.000000
19.342889	23.525005	11.108593	-0.079826	0.099796	3.206022	0.000000	-0.015291	0.000000	0.001859	0.000044	0.000000	0.000000
19.676223	23.582976	11.052164	-0.094085	0.069490	3.200910	0.000000	-0.015291	0.000000	0.001873	0.000044	0.000000	0.000000
20.010806	23.651016	11.015705	-0.225579	0.093649	3.195799	0.000000	0.000543	0.000000	0.001888	0.000053	0.000000	0.000000
20.308129	23.789086	10.968111	-0.299949	0.094629	3.195945	0.000000	0.008760	0.000000	0.001904	0.000058	0.000000	0.000000
20.857189	23.708207	11.086181	0.446396	-0.310932	3.174529	0.000000	-0.086601	0.000000	0.001919	-0.000004	0.000000	0.000000
21.406249	22.820243	11.659093	1.161207	-0.738641	3.101130	0.000000	-0.180425	0.000000	0.001900	-0.000065	0.000000	0.000000
21.955309	21.187923	12.727656	1.793988	-1.218964	2.977051	0.000000	-0.271050	0.000000	0.001848	-0.000126	0.000000	0.000000
22.504369	18.926563	14.367985	2.300039	-1.786116	2.804491	0.000000	-0.356870	0.000000	0.001762	-0.000185	0.000000	0.000000
22.950329	17.144969	15.840735	1.708868	-1.502312	2.662700	0.000000	-0.279668	0.000000	0.001690	-0.000140	0.000000	0.000000
23.391289	15.866841	17.015252	1.200516	-1.151035	2.555745	0.000000	-0.206110	0.000000	0.001638	-0.000097	0.000000	0.000000
23.832249	15.011269	17.855597	0.747017	-0.747385	2.480662	0.000000	-0.134899	0.000000	0.001604	-0.000055	0.000000	0.000000
24.273209	14.539157	18.323534	0.327650	-0.309729	2.436594	0.000000	-0.065224	0.000000	0.001589	-0.000014	0.000000	0.000000
24.715418	14.429042	18.397525	-0.041984	0.097511	2.423038	0.000000	-0.002144	0.000000	0.001592	0.000023	0.000000	0.000000
25.012741	14.460145	18.344391	-0.062627	0.081196	2.422394	0.000000	-0.002144	0.000000	0.001599	0.000023	0.000000	0.000000
25.346075	14.509611	18.296357	-0.085769	0.062905	2.421672	0.000000	-0.002144	0.000000	0.001606	0.000023	0.000000	0.000000
25.679408	14.574504	18.260517	-0.108911	0.044615	2.420950	0.000000	-0.002144	0.000000	0.001614	0.000023	0.000000	0.000000
26.013991	14.654858	18.237175	-0.013250	-0.121693	2.420200	0.000000	-0.021778	0.000000	0.001622	0.000010	0.000000	0.000000
26.311314	14.668770	18.314460	0.001875	-0.182456	2.413722	0.000000	-0.027606	0.000000	0.001625	0.000006	0.000000	0.000000
26.752274	14.847971	18.276748	-0.409784	0.267649	2.416650	0.000000	0.040949	0.000000	0.001637	0.000048	0.000000	0.000000
27.193234	15.397092	17.845945	-0.840167	0.705576	2.449864	0.000000	0.109971	0.000000	0.001667	0.000091	0.000000	0.000000
27.634194	16.341224	17.041652	-1.308938	1.111399	2.513744	0.000000	0.180243	0.000000	0.001717	0.000134	0.000000	0.000000
28.075154	17.723509	15.900463	-1.837516	1.466652	2.609015	0.000000	0.252567	0.000000	0.001786	0.000179	0.000000	0.000000
28.521114	19.631147	14.457106	-2.455037	1.756116	2.738368	0.000000	0.328216	0.000000	0.001877	0.000227	0.000000	0.000000
29.070174	22.055961	12.848921	-1.934881	1.190070	2.895806	0.000000	0.244784	0.000000	0.001984	0.000164	0.000000	0.000000
29.619234	23.830652	11.812419	-1.278039	0.708795	3.006208	0.000000	0.157013	0.000000	0.002057	0.000099	0.000000	0.000000
30.168294	24.829844	11.273769	-0.530912	0.278007	3.067616	0.000000	0.066458	0.000000	0.002092	0.000032	0.000000	0.000000
30.717354	24.982950	11.194604	0.253719	-0.132977	3.078940	0.000000	-0.025275	0.000000	0.002091	-0.000036	0.000000	0.000000
31.015927	24.873428	11.264900	0.177213	-0.131198	3.073762	0.000000	-0.017372	0.000000	0.002082	-0.000031	0.000000	0.000000
31.349260	24.759893	11.362399	0.163391	-0.161298	3.067981	0.000000	-0.017372	0.000000	0.002072	-0.000031	0.000000	0.000000
31.682593	24.655573	11.479964	0.149569	-0.191398	3.062201	0.000000	-0.017372	0.000000	0.002062	-0.000031	0.000000	0.000000
32.017177	24.560128	11.618150	0.135695	-0.221611	3.056398	0.000000	-0.017372	0.000000	0.002051	-0.000031	0.000000	0.000000
32.314499	24.483107	11.757911	0.060497	-0.218270	3.051243	0.000000	-0.009537	0.000000	0.002042	-0.000025	0.000000	0.000000
32.863559	23.997342	12.236847	0.818921	-0.659138	3.021138	0.000000	-0.100069	0.000000	0.002010	-0.000091	0.000000	0.000000
33.412619	22.705685	13.222709	1.519492	-1.146956	2.941773	0.000000	-0.188826	0.000000	0.001943	-0.000155	0.000000	0.000000
33.961679	20.699386	14.785720	2.112722	-1.716474	2.814556	0.000000	-0.274237	0.000000	0.001841	-0.000216	0.000000	0.000000
34.510739	18.120182	17.037212	2.556704	-2.408258	2.641740	0.000000	-0.354787	0.000000	0.001706	-0.000274	0.000000	0.000000
34.956699	16.115214	19.051075	1.955041	-2.088594	2.499978	0.000000	-0.281807	0.000000	0.001593	-0.000231	0.000000	0.000000
35.397659	14.620326	20.716904	1.447730	-1.674678	2.391191	0.000000	-0.212469	0.000000	0.001500	-0.000191	0.000000	0.000000
35.838619	13.542117	21.982558	1.006567	-1.184564	2.312402	0.000000	-0.145548	0.000000	0.001424	-0.000153	0.000000	0.000000
36.279579	12.831321	22.790451	0.611395	-0.640550	2.262714	0.000000	-0.080284	0.000000	0.001365	-0.000117	0.000000	0.000000
36.721789	12.454774	23.104131	0.274212	-0.123367	2.241536	0.000000	-0.021361	0.000000	0.001320	-0.000086	0.000000	0.000000
37.019112	12.299346	23.181375	0.248545	-0.136432	2.235211	0.000000	-0.021361	0.000000	0.001295	-0.000086	0.000000	0.000000
37.352445	12.143241	23.277212	0.219769	-0.151079	2.228119	0.000000	-0.021361	0.000000	0.001266	-0.000086	0.000000	0.000000
37.685779	12.006320	23.382813	0.190993	-0.165726	2.221027	0.000000	-0.021361	0.000000	0.001237	-0.000086	0.000000	0.000000
38.020362	11.888178	23.498630	0.162110	-0.180428	2.213909	0.000000	-0.021361	0.000000	0.001209	-0.000086	0.000000	0.000000
38.317684	11.799411	23.609806	0.165053	-0.250771	2.207584	0.000000	-0.026714	0.000000	0.001183	-0.000089	0.000000	0.000000
38.758644	11.804498	23.569444	-0.176657	0.341953	2.209774	0.000000	0.036517	0.000000	0.001150	-0.000059	0.000000	0.000000
39.199604	12.113361	23.011229	-0.526438	0.919118	2.239900	0.000000	0.100164	0.000000	0.001131	-0.000029	0.000000	0.000000
39.640564	12.740113	21.960559	-0.900272	1.454463	2.298305	0.000000	0.164952	0.000000	0.001124	-0.000000	0.000000	0.000000
40.081524	13.713390	20.465242	-1.315239	1.923628	2.385653	0.000000	0.231619	0.000000	0.001131	0.000029	0.000000	0.000000
40.527484	15.095207	18.570720	-1.794137	2.306578	2.504414	0.000000	0.301333	0.000000	0.001150	0.000058	0.000000	0.000000
41.076544	16.859344	16.441709	-1.399785	1.593802	2.649291	0.000000	0.225687	0.000000	0.001172	0.000021	0.000000	0.000000
41.625604	18.133225	15.028863	-0.906553	0.994552	2.751493	0.000000	0.146039	0.000000	0.001173	-0.000017	0.000000	0.000000
42.174664	18.826863	14.231546	-0.349285	0.466145	2.809205	0.000000	0.063800	0.000000	0.001153	-0.000055	0.000000	0.000000
42.723724	18.891259	13.992964	0.232656	-0.029059	2.821403	0.000000	-0.019572	0.000000	0.001112	-0.000092	0.000000	0.000000
43.022297	18.786407	13.995049	0.167420	-0.014160	2.817767	0.000000	-0.012269	0.000000	0.001086	-0.000089	0.000000	0.000000
43.502297	18.638292	14.025108	0.141153	-0.048464	2.811920	0.000000	-0.012269	0.000000	0.001043	-0.000089	0.000000	0.000000
43.982297	18.515393	14.088100	0.114886	-0.082769	2.806074	0.000000	-0.012269	0.000000	0.001001	-0.000089	0.000000	0.000000
44.462297	18.417710	14.184025	0.088620	-0.117074	2.800227	0.000000	-0.012269	0.000000	0.000958	-0.000089	0.000000	0.000000
44.942297	18.345243	14.312882	0.062353	-0.151379	2.794381	0.000000	-0.012269	0.000000	0.000915	-0.000089	0.000000	0.000000
45.423547	18.298128	14.474957	-0.054641	-0.114055	2.788536	0.000000	0.001547	0.000000	0.000872	-0.000085	0.000000	0.000000
45.720870	18.335466	14.548966	-0.118504	-0.097136	2.789021	0.000000	0.008782	0.000000	0.000847	-0.000082	0.000000	0.000000
46.269930	18.156817	14.937015	0.441897	-0.613780	2.771292	0.000000	-0.073450	0.000000	0.000795	-0.000109	0.000000	0.000000
46.818990	17.376344	15.912943	0.971082	-1.174143	2.708717	0.000000	-0.154381	0.000000	0.000728	-0.000134	0.000000	0.000000
47.368050	16.049182	17.546260	1.431670	-1.818139	2.602405	0.000000	-0.232576	0.000000	0.000649	-0.000156	0.000000	0.000000
47.917110	14.269080	19.953305	1.791127	-2.591638	2.454241	0.000000	-0.306648	0.000000	0.000557	-0.000175	0.000000	0.000000
48.363070	12.883454	22.093347	1.326861	-2.186893	2.332869	0.000000	-0.238272	0.000000	0.000482	-0.000162	0.000000	0.000000
48.804030	11.893322	23.806757	0.926989	-1.683933	2.242342	0.000000	-0.173009	0.000000	0.000413	-0.000150	0.000000	0.000000
49.244990	11.235912	25.040984	0.569471	-1.104355	2.180129	0.000000	-0.109714	0.000000	0.000349	-0.000141	0.000000	0.000000
49.685950	10.881188	25.739872	0.237971	-0.474529	2.145520	0.000000	-0.047667	0.000000	0.000289	-0.000132	0.000000	0.000000
50.128160	10.813081	25.871338	-0.056312	0.113578	2.138135	0.000000	0.008607	0.000000	0.000232	-0.000126	0.000000	0.000000
50.425482	10.854768	25.807260	-0.083896	0.101938	2.140732	0.000000	0.008607	0.000000	0.000195	-0.000126	0.000000	0.000000
50.758816	10.921007	25.743652	-0.114821	0.088887	2.143643	0.000000	0.008607	0.000000	0.000153	-0.000126	0.000000	0.000000
51.092149	11.007863	25.688744	-0.145745	0.075837	2.146554	0.000000	0.008607	0.000000	0.000111	-0.000126	0.000000	0.000000
51.426732	11.115551	25.642900	-0.086609	-0.145290	2.149454	0.000000	-0.008831	0.000000	0.000068	-0.000127	0.000000	0.000000
51.724055	11.175065	25.732816	-0.086162	-0.220263	2.146866	0.000000	-0.014094	0.000000	0.000031	-0.000127	0.000000	0.000000
52.165015	11.396848	25.640781	-0.418740	0.428183	2.154309	0.000000	0.047637	0.000000	-0.000025	-0.000127	0.000000	0.000000
52.605975	11.919231	24.983308	-0.770448	1.057147	2.189066	0.000000	0.109912	0.000000	-0.000081	-0.000128	0.000000	0.000000
53.046935	12.766081	23.790314	-1.157355	1.638011	2.251536	0.000000	0.173440	0.000000	-0.000138	-0.000131	0.000000	0.000000
53.487895	13.976086	22.116078	-1.597136	2.144346	2.342428	0.000000	0.238945	0.000000	-0.000197	-0.000135	0.000000	0.000000
53.933855	15.625249	20.011750	-2.114134	2.554446	2.464287	0.000000	0.307571	0.000000	-0.000258	-0.000141	0.000000	0.000000
54.482915	17.748344	17.643853	-1.729839	1.783666	2.613026	0.000000	0.233167	0.000000	-0.000333	-0.000132	0.000000	0.000000
55.031975	19.379439	16.048051	-1.223361	1.139931	2.719710	0.000000	0.154625	0.000000	-0.000403	-0.000120	0.000000	0.000000
55.581035	20.403325	15.110676	-0.630475	0.577391	2.782444	0.000000	0.073339	0.000000	-0.000464	-0.000106	0.000000	0.000000
56.130095	20.747687	14.764962	0.006942	0.055978	2.800116	0.000000	-0.009251	0.000000	-0.000518	-0.000090	0.000000	0.000000
56.428668	20.780359	14.714479	-0.061926	0.074339	2.799575	0.000000	-0.001903	0.000000	-0.000545	-0.000091	0.000000	0.000000
56.762001	20.827011	14.672513	-0.078029	0.051560	2.798971	0.000000	-0.001903	0.000000	-0.000576	-0.000091	0.000000	0.000000
57.095334	20.884397	14.645732	-0.094131	0.028782	2.798367	0.000000	-0.001903	0.000000	-0.000606	-0.000091	0.000000	0.000000
57.429918	20.952794	14.634123	-0.110293	0.005917	2.797761	0.000000	-0.001903	0.000000	-0.000636	-0.000091	0.000000	0.000000
57.727240	21.022650	14.636645	-0.179889	0.024035	2.797222	0.000000	0.005447	0.000000	-0.000664	-0.000093	0.000000	0.000000
58.276300	20.861322	14.891297	0.471930	-0.490575	2.777588	0.000000	-0.077017	0.000000	-0.000708	-0.000071	0.000000	0.000000
58.825360	19.998384	15.726804	1.090414	-1.040127	2.712974	0.000000	-0.158115	0.000000	-0.000741	-0.000047	0.000000	0.000000
59.374420	18.494788	17.202675	1.631878	-1.663763	2.604526	0.000000	-0.236409	0.000000	-0.000760	-0.000023	0.000000	0.000000
59.923480	16.456736	19.424030	2.058077	-2.405903	2.454166	0.000000	-0.310511	0.000000	-0.000766	0.000002	0.000000	0.000000
60.369440	14.861200	21.398411	1.532373	-2.002703	2.330998	0.000000	-0.242167	0.000000	-0.000769	-0.000018	0.000000	0.000000
60.810400	13.713219	22.953156	1.080888	-1.509739	2.238686	0.000000	-0.176976	0.000000	-0.000782	-0.000038	0.000000	0.000000
61.251360	12.940207	24.041085	0.678785	-0.948085	2.174658	0.000000	-0.113801	0.000000	-0.000803	-0.000058	0.000000	0.000000
61.692320	12.506847	24.612701	0.307694	-0.343294	2.138184	0.000000	-0.051921	0.000000	-0.000833	-0.000079	0.000000	0.000000
62.134530	12.393388	24.641453	-0.018799	0.216170	2.128855	0.000000	0.004105	0.000000	-0.000873	-0.000099	0.000000	0.000000
62.431853	12.411702	24.516664	-0.042798	0.203540	2.130105	0.000000	0.004105	0.000000	-0.000903	-0.000099	0.000000	0.000000
62.765186	12.449203	24.385690	-0.069703	0.189381	2.131507	0.000000	0.004105	0.000000	-0.000936	-0.000099	0.000000	0.000000
63.098520	12.504640	24.264156	-0.096609	0.175221	2.132908	0.000000	0.004105	0.000000	-0.000969	-0.000099	0.000000	0.000000
63.433103	12.578324	24.151659	-0.123615	0.161009	2.134315	0.000000	0.004105	0.000000	-0.001002	-0.000099	0.000000	0.000000
63.730426	12.658966	24.059671	-0.116269	0.088771	2.135565	0.000000	-0.001183	0.000000	-0.001032	-0.000097	0.000000	0.000000
64.171386	12.922474	23.716427	-0.483625	0.686681	2.148639	0.000000	0.060328	0.000000	-0.001080	-0.000124	0.000000	0.000000
64.612346	13.518430	22.857698	-0.873074	1.253349	2.188975	0.000000	0.122527	0.000000	-0.001141	-0.000153	0.000000	0.000000
65.053306	14.474060	21.522555	-1.302408	1.762991	2.257032	0.000000	0.186123	0.000000	-0.001215	-0.000183	0.000000	0.000000
65.494266	15.833017	19.771745	-1.791240	2.192421	2.353585	0.000000	0.251840	0.000000	-0.001303	-0.000215	0.000000	0.000000
65.940226	17.680574	17.660155	-2.366572	2.522824	2.481308	0.000000	0.320826	0.000000	-0.001407	-0.000251	0.000000	0.000000
66.489286	20.048224	15.297980	-1.920303	1.804877	2.637199	0.000000	0.245758	0.000000	-0.001531	-0.000203	0.000000	0.000000
67.038346	21.848005	13.649390	-1.338406	1.215482	2.750587	0.000000	0.166327	0.000000	-0.001629	-0.000152	0.000000	0.000000
67.587406	22.952806	12.596961	-0.661981	0.712661	2.819459	0.000000	0.083944	0.000000	-0.001697	-0.000098	0.000000	0.000000
68.136466	23.284603	12.065732	0.061198	0.260598	2.842594	0.000000	0.000070	0.000000	-0.001736	-0.000042	0.000000	0.000000
68.435038	23.288741	11.899036	-0.013344	0.265724	2.844878	0.000000	0.007605	0.000000	-0.001750	-0.000047	0.000000	0.000000
68.768372	23.302409	11.731884	-0.027660	0.235732	2.847429	0.000000	0.007605	0.000000	-0.001766	-0.000047	0.000000	0.000000
69.101705	23.325621	11.584727	-0.041976	0.205741	2.849979	0.000000	0.007605	0.000000	-0.001781	-0.000047	0.000000	0.000000
69.436288	23.358517	11.457124	-0.056345	0.175637	2.852540	0.000000	0.007605	0.000000	-0.001797	-0.000047	0.000000	0.000000
69.733611	23.395821	11.360635	-0.131166	0.179008	2.854815	0.000000	0.015176	0.000000	-0.001811	-0.000052	0.000000	0.000000
70.282671	23.138065	11.391576	0.597835	-0.235694	2.839966	0.000000	-0.069227	0.000000	-0.001823	0.000007	0.000000	0.000000
