#ParticleID	Turn	x[m]	xp	y[m]	yp	z[m]	dE[GeV]# s	beta_x	beta_y	alpha_x	alpha_y	D_x	D_y	D_px	D_py	orbit_x	orbit_px	orbit_y	orbit_py
0.300000	11.901986	25.163154	-0.018158	-0.024031	2.608221	0.000000	0.000501	0.000000	-0.000393	0.000345	0.000000	0.000000
0.601250	11.920553	25.181241	-0.043478	-0.036010	2.608268	0.000000	0.000501	0.000000	-0.000289	0.000345	0.000000	0.000000
0.898573	11.953837	25.206170	-0.039101	-0.109630	2.608314	0.000000	-0.005907	0.000000	-0.000186	0.000345	0.000000	0.000000
1.339533	12.141521	25.023183	-0.388023	0.523026	2.621801	0.000000	0.067798	0.000000	-0.000035	0.000342	0.000000	0.000000
1.780493	12.643555	24.290645	-0.754676	1.131885	2.667928	0.000000	0.142271	0.000000	0.000116	0.000343	0.000000	0.000000
2.221453	13.482878	23.041883	-1.155811	1.689247	2.747218	0.000000	0.218361	0.000000	0.000268	0.000348	0.000000	0.000000
2.662413	14.697842	21.333712	-1.609755	2.169749	2.860574	0.000000	0.296934	0.000000	0.000423	0.000357	0.000000	0.000000
3.108373	16.364941	19.218814	-2.141590	2.552677	3.011140	0.000000	0.379375	0.000000	0.000585	0.000370	0.000000	0.000000
3.657433	18.502321	16.843297	-1.727948	1.799334	3.194079	0.000000	0.286695	0.000000	0.000783	0.000348	0.000000	0.000000
4.206493	20.115351	15.220234	-1.192241	1.174154	3.324672	0.000000	0.188934	0.000000	0.000966	0.000320	0.000000	0.000000
4.755553	21.090079	14.234020	-0.572311	0.632608	3.400606	0.000000	0.087827	0.000000	0.001133	0.000286	0.000000	0.000000
5.304613	21.357643	13.814412	0.088052	0.136121	3.420536	0.000000	-0.014833	0.000000	0.001279	0.000247	0.000000	0.000000
5.603185	21.342205	13.718479	0.018854	0.149528	3.418672	0.000000	-0.005991	0.000000	0.001354	0.000250	0.000000	0.000000
5.936519	21.334844	13.627075	0.003230	0.124686	3.416592	0.000000	-0.005991	0.000000	0.001437	0.000250	0.000000	0.000000
6.269852	21.337899	13.552231	-0.012394	0.099845	3.414512	0.000000	-0.005991	0.000000	0.001520	0.000250	0.000000	0.000000
6.604435	21.351439	13.493761	-0.028077	0.074910	3.412423	0.000000	-0.005991	0.000000	0.001604	0.000250	0.000000	0.000000
6.901758	21.372280	13.455803	-0.097066	0.087462	3.410568	0.000000	0.002794	0.000000	0.001678	0.000254	0.000000	0.000000
7.450818	21.114408	13.620948	0.564072	-0.390009	3.383879	0.000000	-0.099435	0.000000	0.001802	0.000198	0.000000	0.000000
7.999878	20.148170	14.322516	1.185368	-0.895261	3.301492	0.000000	-0.199897	0.000000	0.001895	0.000138	0.000000	0.000000
8.548938	18.541818	15.610481	1.722931	-1.464285	3.164870	0.000000	-0.296811	0.000000	0.001953	0.000076	0.000000	0.000000
9.097998	16.408828	17.576589	2.138787	-2.137614	2.976437	0.000000	-0.388459	0.000000	0.001977	0.000012	0.000000	0.000000
9.543958	14.744497	19.328400	1.606431	-1.773866	2.821439	0.000000	-0.306966	0.000000	0.001994	0.000063	0.000000	0.000000
9.984918	13.532786	20.702655	1.151844	-1.330690	2.703239	0.000000	-0.229460	0.000000	0.002033	0.000115	0.000000	0.000000
10.425878	12.697368	21.657758	0.749886	-0.826966	2.618586	0.000000	-0.154568	0.000000	0.002096	0.000169	0.000000	0.000000
10.866838	12.200070	22.150249	0.382189	-0.285612	2.566516	0.000000	-0.081439	0.000000	0.002182	0.000224	0.000000	0.000000
11.309048	12.018022	22.157176	0.060679	0.215440	2.546415	0.000000	-0.015349	0.000000	0.002294	0.000276	0.000000	0.000000
11.606371	11.989322	22.033240	0.035848	0.201398	2.541769	0.000000	-0.015349	0.000000	0.002376	0.000276	0.000000	0.000000
12.086371	11.974150	21.850779	-0.004239	0.178729	2.534269	0.000000	-0.015349	0.000000	0.002508	0.000276	0.000000	0.000000
12.566371	11.997461	21.690081	-0.044326	0.156060	2.526770	0.000000	-0.015349	0.000000	0.002641	0.000276	0.000000	0.000000
13.046371	12.059256	21.551144	-0.084413	0.133391	2.519270	0.000000	-0.015349	0.000000	0.002773	0.000276	0.000000	0.000000
13.526371	12.159535	21.433969	-0.124500	0.110722	2.511770	0.000000	-0.015349	0.000000	0.002906	0.000276	0.000000	0.000000
14.007621	12.298708	21.338337	-0.164692	0.087994	2.504251	0.000000	-0.015349	0.000000	0.003038	0.000276	0.000000	0.000000
14.304943	12.404021	21.290193	-0.160009	0.023377	2.499605	0.000000	-0.021296	0.000000	0.003120	0.000268	0.000000	0.000000
14.745903	12.704099	21.036642	-0.522943	0.549405	2.505690	0.000000	0.049517	0.000000	0.003257	0.000350	0.000000	0.000000
15.186863	13.333577	20.328448	-0.909775	1.050435	2.543060	0.000000	0.120890	0.000000	0.003430	0.000437	0.000000	0.000000
15.627823	14.321222	19.197832	-1.338181	1.503667	2.612140	0.000000	0.193636	0.000000	0.003643	0.000528	0.000000	0.000000
16.068783	15.712174	17.696236	-1.827740	1.888478	2.713714	0.000000	0.268581	0.000000	0.003897	0.000625	0.000000	0.000000
16.514743	17.593624	15.870481	-2.405663	2.188172	2.850634	0.000000	0.347056	0.000000	0.004198	0.000730	0.000000	0.000000
17.063803	20.009372	13.832262	-1.967445	1.545704	3.017152	0.000000	0.259831	0.000000	0.004561	0.000588	0.000000	0.000000
17.612863	21.864206	12.435343	-1.390218	1.013344	3.134517	0.000000	0.168007	0.000000	0.004842	0.000436	0.000000	0.000000
18.161923	23.027059	11.580220	-0.714763	0.553171	3.200654	0.000000	0.073209	0.000000	0.005038	0.000276	0.000000	0.000000
18.710983	23.415758	11.205980	0.011197	0.132404	3.214390	0.000000	-0.022883	0.000000	0.005144	0.000111	0.000000	0.000000
19.009556	23.447807	11.118375	-0.060090	0.133057	3.209917	0.000000	-0.014851	0.000000	0.005181	0.000124	0.000000	0.000000
19.342889	23.492623	11.039841	-0.074358	0.102545	3.204926	0.000000	-0.014851	0.000000	0.005223	0.000124	0.000000	0.000000
19.676223	23.546951	10.981647	-0.088625	0.072034	3.199934	0.000000	-0.014851	0.000000	0.005264	0.000124	0.000000	0.000000
20.010806	23.611340	10.943556	-0.219930	0.095630	3.194943	0.000000	0.000978	0.000000	0.005305	0.000150	0.000000	0.000000
20.308129	23.746065	10.894833	-0.292354	0.095410	3.195191	0.000000	0.008947	0.000000	0.005350	0.000164	0.000000	0.000000
20.857189	23.657644	11.010938	0.452480	-0.308104	3.173854	0.000000	-0.086400	0.000000	0.005392	-0.000010	0.000000	0.000000
21.406249	22.763967	11.579564	1.165345	-0.733567	3.100598	0.000000	-0.180215	0.000000	0.005339	-0.000184	0.000000	0.000000
21.955309	21.128180	12.641219	1.795872	-1.211287	2.976721	0.000000	-0.270836	0.000000	0.005191	-0.000355	0.000000	0.000000
22.504369	18.865872	14.271527	2.299513	-1.775297	2.804419	0.000000	-0.356658	0.000000	0.004950	-0.000519	0.000000	0.000000
22.950329	17.084137	15.735699	1.709384	-1.493833	2.662845	0.000000	-0.279438	0.000000	0.004747	-0.000393	0.000000	0.000000
23.391289	15.804953	16.903987	1.202180	-1.145327	2.556080	0.000000	-0.205869	0.000000	0.004600	-0.000273	0.000000	0.000000
23.832249	14.947314	17.740653	0.749914	-0.744703	2.481162	0.000000	-0.134642	0.000000	0.004506	-0.000155	0.000000	0.000000
24.273209	14.472024	18.207625	0.331918	-0.310191	2.437237	0.000000	-0.064947	0.000000	0.004463	-0.000040	0.000000	0.000000
24.715418	14.357463	18.283407	-0.037295	0.095428	2.423804	0.000000	-0.001681	0.000000	0.004471	0.000065	0.000000	0.000000
25.012741	14.385807	18.231541	-0.058033	0.079018	2.423285	0.000000	-0.001681	0.000000	0.004490	0.000065	0.000000	0.000000
25.346075	14.432245	18.184995	-0.081282	0.060620	2.422703	0.000000	-0.001681	0.000000	0.004512	0.000065	0.000000	0.000000
25.679408	14.494183	18.150713	-0.104531	0.042223	2.422121	0.000000	-0.001681	0.000000	0.004534	0.000065	0.000000	0.000000
26.013991	14.571644	18.129005	-0.009652	-0.123315	2.421513	0.000000	-0.021326	0.000000	0.004555	0.000028	0.000000	0.000000
26.311314	14.583442	18.207296	0.004143	-0.182660	2.415163	0.000000	-0.026990	0.000000	0.004563	0.000017	0.000000	0.000000
26.752274	14.759762	18.171038	-0.405457	0.264567	2.418352	0.000000	0.041611	0.000000	0.004597	0.000135	0.000000	0.000000
27.193234	15.304137	17.744157	-0.833586	0.699756	2.451817	0.000000	0.110685	0.000000	0.004683	0.000255	0.000000	0.000000
27.634194	16.241449	16.946077	-1.299809	1.103103	2.515941	0.000000	0.181016	0.000000	0.004822	0.000377	0.000000	0.000000
28.075154	17.614537	15.813112	-1.825433	1.456253	2.611451	0.000000	0.253406	0.000000	0.005016	0.000504	0.000000	0.000000
28.521114	19.510090	14.379703	-2.439517	1.744144	2.741046	0.000000	0.329139	0.000000	0.005270	0.000637	0.000000	0.000000
29.070174	21.919900	12.782956	-1.922806	1.180945	2.898784	0.000000	0.245605	0.000000	0.005572	0.000462	0.000000	0.000000
29.619234	23.683789	11.755159	-1.270234	0.701874	3.009487	0.000000	0.157722	0.000000	0.005776	0.000278	0.000000	0.000000
30.168294	24.677112	11.223099	-0.527910	0.272803	3.071192	0.000000	0.067046	0.000000	0.005876	0.000089	0.000000	0.000000
30.717354	24.829674	11.148875	0.251713	-0.136833	3.082806	0.000000	-0.024819	0.000000	0.005873	-0.000101	0.000000	0.000000
31.015927	24.719863	11.222151	0.177622	-0.136242	3.077705	0.000000	-0.017167	0.000000	0.005847	-0.000086	0.000000	0.000000
31.349260	24.606085	11.323065	0.163712	-0.166497	3.072011	0.000000	-0.017167	0.000000	0.005818	-0.000086	0.000000	0.000000
31.682593	24.501580	11.444147	0.149802	-0.196751	3.066318	0.000000	-0.017167	0.000000	0.005790	-0.000086	0.000000	0.000000
32.017177	24.406009	11.585967	0.135840	-0.227119	3.060603	0.000000	-0.017167	0.000000	0.005761	-0.000086	0.000000	0.000000
32.314499	24.328945	11.729035	0.062967	-0.224967	3.055526	0.000000	-0.009573	0.000000	0.005735	-0.000072	0.000000	0.000000
32.863559	23.843195	12.215079	0.816304	-0.665417	3.025415	0.000000	-0.100253	0.000000	0.005645	-0.000256	0.000000	0.000000
33.412619	22.556994	13.207866	1.511962	-1.153270	2.946022	0.000000	-0.189159	0.000000	0.005455	-0.000436	0.000000	0.000000
33.961679	20.561234	14.778114	2.100787	-1.723279	2.818753	0.000000	-0.274716	0.000000	0.005167	-0.000608	0.000000	0.000000
34.510739	17.996943	17.037677	2.541177	-2.416049	2.645861	0.000000	-0.355410	0.000000	0.004789	-0.000769	0.000000	0.000000
34.956699	16.004052	19.058908	1.942974	-2.097069	2.504038	0.000000	-0.282310	0.000000	0.004473	-0.000649	0.000000	0.000000
35.397659	14.518332	20.732463	1.438627	-1.683505	2.395211	0.000000	-0.212862	0.000000	0.004211	-0.000537	0.000000	0.000000
35.838619	13.446902	22.005956	1.000023	-1.193336	2.316403	0.000000	-0.145834	0.000000	0.003998	-0.000432	0.000000	0.000000
36.279579	12.740793	22.821442	0.607118	-0.648865	2.266715	0.000000	-0.080463	0.000000	0.003830	-0.000331	0.000000	0.000000
36.721789	12.367062	23.142131	0.271107	-0.129591	2.245560	0.000000	-0.021316	0.000000	0.003705	-0.000242	0.000000	0.000000
37.019112	12.213523	23.223076	0.245298	-0.142655	2.239294	0.000000	-0.021316	0.000000	0.003633	-0.000242	0.000000	0.000000
37.352445	12.059636	23.323061	0.216364	-0.157300	2.232270	0.000000	-0.021316	0.000000	0.003552	-0.000242	0.000000	0.000000
37.685779	11.925038	23.432810	0.187429	-0.171946	2.225245	0.000000	-0.021316	0.000000	0.003472	-0.000242	0.000000	0.000000
38.020362	11.809334	23.552790	0.158386	-0.186647	2.218194	0.000000	-0.021316	0.000000	0.003391	-0.000242	0.000000	0.000000
38.317684	11.722820	23.667670	0.160416	-0.255997	2.211928	0.000000	-0.026569	0.000000	0.003318	-0.000250	0.000000	0.000000
38.758644	11.731227	23.631215	-0.179623	0.338350	2.214266	0.000000	0.036779	0.000000	0.003227	-0.000166	0.000000	0.000000
39.199604	12.042020	23.075383	-0.527869	0.917300	2.244570	0.000000	0.100548	0.000000	0.003172	-0.000084	0.000000	0.000000
39.640564	12.669398	22.025467	-0.900235	1.454510	2.303185	0.000000	0.165463	0.000000	0.003153	-0.000002	0.000000	0.000000
40.081524	13.642030	20.529241	-1.313735	1.925535	2.390779	0.000000	0.232262	0.000000	0.003170	0.000079	0.000000	0.000000
40.527484	15.021894	18.632138	-1.791136	2.310315	2.509830	0.000000	0.302123	0.000000	0.003224	0.000162	0.000000	0.000000
41.076544	16.784318	16.499957	-1.399555	1.595757	2.655058	0.000000	0.226291	0.000000	0.003284	0.000057	0.000000	0.000000
41.625604	18.059519	15.085827	-0.909102	0.994873	2.757539	0.000000	0.146446	0.000000	0.003286	-0.000049	0.000000	0.000000
42.174664	18.757407	14.289014	-0.354426	0.464857	2.815456	0.000000	0.064003	0.000000	0.003230	-0.000155	0.000000	0.000000
42.723724	18.828677	14.052758	0.225284	-0.032044	2.827779	0.000000	-0.019579	0.000000	0.003116	-0.000258	0.000000	0.000000
43.022297	18.727631	14.056861	0.161028	-0.017488	2.824155	0.000000	-0.012385	0.000000	0.003042	-0.000250	0.000000	0.000000
43.502297	18.585666	14.090046	0.134733	-0.051646	2.818331	0.000000	-0.012385	0.000000	0.002922	-0.000250	0.000000	0.000000
43.982297	18.468944	14.156021	0.108438	-0.085803	2.812506	0.000000	-0.012385	0.000000	0.002802	-0.000250	0.000000	0.000000
44.462297	18.377465	14.254788	0.082143	-0.119961	2.806681	0.000000	-0.012385	0.000000	0.002682	-0.000250	0.000000	0.000000
44.942297	18.311230	14.386346	0.055847	-0.154118	2.800856	0.000000	-0.012385	0.000000	0.002562	-0.000250	0.000000	0.000000
45.423547	18.270391	14.550985	-0.061038	-0.116270	2.795033	0.000000	0.001463	0.000000	0.002442	-0.000238	0.000000	0.000000
45.720870	18.311546	14.626280	-0.124260	-0.099576	2.795539	0.000000	0.008622	0.000000	0.002371	-0.000232	0.000000	0.000000
46.269930	18.139544	15.018331	0.435522	-0.618655	2.777754	0.000000	-0.073825	0.000000	0.002223	-0.000306	0.000000	0.000000
46.818990	17.366133	16.001118	0.964533	-1.181801	2.715030	0.000000	-0.154966	0.000000	0.002036	-0.000375	0.000000	0.000000
47.368050	16.045957	17.644643	1.425401	-1.829128	2.608476	0.000000	-0.233365	0.000000	0.001813	-0.000437	0.000000	0.000000
47.917110	14.272287	20.065967	1.785571	-2.606743	2.459981	0.000000	-0.307632	0.000000	0.001557	-0.000492	0.000000	0.000000
48.363070	12.891343	22.218430	1.321722	-2.199471	2.338334	0.000000	-0.239107	0.000000	0.001346	-0.000454	0.000000	0.000000
48.804030	11.905584	23.941639	0.922048	-1.693446	2.247589	0.000000	-0.173704	0.000000	0.001153	-0.000422	0.000000	0.000000
49.244990	11.252482	25.182752	0.564505	-1.110369	2.185209	0.000000	-0.110275	0.000000	0.000973	-0.000395	0.000000	0.000000
49.685950	10.902193	25.885300	0.232756	-0.476772	2.150488	0.000000	-0.048098	0.000000	0.000804	-0.000372	0.000000	0.000000
50.128160	10.838865	26.017034	-0.062054	0.115187	2.143040	0.000000	0.008312	0.000000	0.000644	-0.000355	0.000000	0.000000
50.425482	10.883952	25.951981	-0.089591	0.103607	2.145617	0.000000	0.008312	0.000000	0.000539	-0.000355	0.000000	0.000000
50.758816	10.953970	25.887237	-0.120463	0.090625	2.148506	0.000000	0.008312	0.000000	0.000421	-0.000355	0.000000	0.000000
51.092149	11.044570	25.831148	-0.151335	0.077643	2.151395	0.000000	0.008312	0.000000	0.000302	-0.000355	0.000000	0.000000
51.426732	11.155980	25.784075	-0.091818	-0.144561	2.154273	0.000000	-0.009164	0.000000	0.000184	-0.000356	0.000000	0.000000
51.724055	11.218570	25.873538	-0.091203	-0.219868	2.151654	0.000000	-0.014437	0.000000	0.000078	-0.000356	0.000000	0.000000
52.165015	11.445244	25.779512	-0.424907	0.432285	2.159071	0.000000	0.047417	0.000000	-0.000079	-0.000356	0.000000	0.000000
52.605975	11.973629	25.116851	-0.778022	1.064769	2.193857	0.000000	0.109815	0.000000	-0.000237	-0.000360	0.000000	0.000000
53.046935	12.827863	23.915708	-1.166678	1.648805	2.256411	0.000000	0.173468	0.000000	-0.000398	-0.000369	0.000000	0.000000
53.487895	14.046968	22.230738	-1.608634	2.157821	2.347446	0.000000	0.239100	0.000000	-0.000563	-0.000381	0.000000	0.000000
53.933855	15.707499	20.113426	-2.128341	2.569983	2.469511	0.000000	0.307857	0.000000	-0.000736	-0.000398	0.000000	0.000000
54.482915	17.845081	17.730716	-1.742011	1.795301	2.618491	0.000000	0.233282	0.000000	-0.000948	-0.000371	0.000000	0.000000
55.031975	19.487944	16.123904	-1.232647	1.148494	2.725308	0.000000	0.154562	0.000000	-0.001142	-0.000337	0.000000	0.000000
55.581035	20.520058	15.178538	-0.636225	0.583490	2.788066	0.000000	0.073096	0.000000	-0.001316	-0.000297	0.000000	0.000000
56.130095	20.868535	14.827279	0.005128	0.060046	2.805648	0.000000	-0.009671	0.000000	-0.001467	-0.000252	0.000000	0.000000
56.428668	20.902712	14.774046	-0.064409	0.078979	2.805053	0.000000	-0.002251	0.000000	-0.001544	-0.000256	0.000000	0.000000
56.762001	20.950989	14.728961	-0.080422	0.056276	2.804388	0.000000	-0.002251	0.000000	-0.001629	-0.000256	0.000000	0.000000
57.095334	21.009941	14.699011	-0.096435	0.033573	2.803723	0.000000	-0.002251	0.000000	-0.001714	-0.000256	0.000000	0.000000
57.429918	21.079850	14.684169	-0.112508	0.010786	2.803055	0.000000	-0.002251	0.000000	-0.001800	-0.000256	0.000000	0.000000
57.727240	21.151001	14.683775	-0.182919	0.029447	2.802462	0.000000	0.005186	0.000000	-0.001876	-0.000261	0.000000	0.000000
58.276300	20.990587	14.933184	0.473220	-0.486388	2.782718	0.000000	-0.077442	0.000000	-0.002002	-0.000198	0.000000	0.000000
58.825360	20.123871	15.764609	1.095931	-1.036865	2.717884	0.000000	-0.158700	0.000000	-0.002092	-0.000132	0.000000	0.000000
59.374420	18.612069	17.237266	1.641236	-1.661190	2.609107	0.000000	-0.237145	0.000000	-0.002146	-0.000063	0.000000	0.000000
59.923480	16.561957	19.456040	2.070621	-2.403830	2.458317	0.000000	-0.311385	0.000000	-0.002161	0.000007	0.000000	0.000000
60.369440	14.956584	21.427997	1.542003	-1.999416	2.334789	0.000000	-0.242945	0.000000	-0.002170	-0.000049	0.000000	0.000000
60.810400	13.801249	22.979320	1.088033	-1.505367	2.242177	0.000000	-0.177663	0.000000	-0.002205	-0.000106	0.000000	0.000000
61.251360	13.022910	24.062966	0.683769	-0.942829	2.177903	0.000000	-0.114403	0.000000	-0.002264	-0.000163	0.000000	0.000000
61.692320	12.586011	24.629632	0.310742	-0.337397	2.141235	0.000000	-0.052444	0.000000	-0.002349	-0.000223	0.000000	0.000000
62.134530	12.470636	24.652982	-0.016898	0.221576	2.131762	0.000000	0.003571	0.000000	-0.002461	-0.000279	0.000000	0.000000
62.431853	12.487776	24.524985	-0.040747	0.208924	2.132906	0.000000	0.003571	0.000000	-0.002544	-0.000279	0.000000	0.000000
62.765186	12.523853	24.390430	-0.067484	0.194739	2.134190	0.000000	0.003571	0.000000	-0.002637	-0.000279	0.000000	0.000000
63.098520	12.577755	24.265333	-0.094221	0.180554	2.135473	0.000000	0.003571	0.000000	-0.002729	-0.000279	0.000000	0.000000
63.433103	12.649784	24.149276	-0.121059	0.166316	2.136761	0.000000	0.003571	0.000000	-0.002823	-0.000279	0.000000	0.000000
63.730426	12.728858	24.054144	-0.112842	0.092974	2.137905	0.000000	-0.001814	0.000000	-0.002905	-0.000271	0.000000	0.000000
64.171386	12.989973	23.707309	-0.481694	0.690613	2.150799	0.000000	0.059751	0.000000	-0.003042	-0.000348	0.000000	0.000000
64.612346	13.584791	22.845323	-0.872547	1.256830	2.190997	0.000000	0.122001	0.000000	-0.003213	-0.000429	0.000000	0.000000
65.053306	14.540480	21.507406	-1.303255	1.765867	2.258960	0.000000	0.185645	0.000000	-0.003421	-0.000514	0.000000	0.000000
65.494266	15.900686	19.754432	-1.793492	2.194565	2.355463	0.000000	0.251408	0.000000	-0.003667	-0.000605	0.000000	0.000000
65.940226	17.750767	17.641364	-2.370268	2.524082	2.483181	0.000000	0.320430	0.000000	-0.003959	-0.000704	0.000000	0.000000
66.489286	20.120853	15.277775	-1.921405	1.806371	2.639051	0.000000	0.245309	0.000000	-0.004310	-0.000570	0.000000	0.000000
67.038346	21.920209	13.627439	-1.336861	1.217310	2.752343	0.000000	0.165827	0.000000	-0.004584	-0.000426	0.000000	0.000000
67.587406	23.021784	12.572810	-0.657915	0.714946	2.821045	0.000000	0.083397	0.000000	-0.004776	-0.000275	0.000000	0.000000
68.136466	23.347801	12.038772	0.067486	0.263501	2.843934	0.000000	-0.000516	0.000000	-0.004884	-0.000118	0.000000	0.000000
68.435038	23.349203	11.869933	-0.008770	0.269269	2.846126	0.000000	0.007215	0.000000	-0.004924	-0.000131	0.000000	0.000000
68.768372	23.359809	11.700460	-0.023047	0.239151	2.848575	0.000000	0.007215	0.000000	-0.004967	-0.000131	0.000000	0.000000
69.101705	23.379933	11.551066	-0.037325	0.209033	2.851024	0.000000	0.007215	0.000000	-0.005011	-0.000131	0.000000	0.000000
69.436288	23.409704	11.421303	-0.051655	0.178801	2.853482	0.000000	0.007215	0.000000	-0.005055	-0.000131	0.000000	0.000000
69.733611	23.444225	11.322958	-0.128224	0.182744	2.855667	0.000000	0.014991	0.000000	-0.005094	-0.000145	0.000000	0.000000
70.282671	23.182420	11.349193	0.602218	-0.230811	2.840734	0.000000	-0.069431	0.000000	-0.005128	0.000021	0.000000	0.000000
