#ParticleID	Turn	x[m]	xp	y[m]	yp	z[m]	dE[GeV]# s	beta_x	beta_y	alpha_x	alpha_y	D_x	D_y	D_px	D_py	orbit_x	orbit_px	orbit_y	orbit_py
0.300000	11.932246	25.121871	-0.012129	-0.026597	2.603627	0.000000	-0.002005	0.000000	-0.001273	0.001068	0.000000	0.000000
0.601250	11.947161	25.141511	-0.037380	-0.038598	2.602701	0.000000	-0.002005	0.000000	-0.000951	0.001068	0.000000	0.000000
0.898573	11.976798	25.167985	-0.032755	-0.112145	2.601788	0.000000	-0.008423	0.000000	-0.000633	0.001069	0.000000	0.000000
1.339533	12.159175	24.987651	-0.382040	0.519548	2.613820	0.000000	0.065094	0.000000	-0.000165	0.001059	0.000000	0.000000
1.780493	12.656105	24.258546	-0.748787	1.127606	2.658402	0.000000	0.139341	0.000000	0.000302	0.001061	0.000000	0.000000
2.221453	13.490304	23.013834	-1.149753	1.684362	2.736037	0.000000	0.215164	0.000000	0.000773	0.001075	0.000000	0.000000
2.662413	14.699895	21.310138	-1.603259	2.164483	2.847607	0.000000	0.293426	0.000000	0.001252	0.001101	0.000000	0.000000
3.108373	16.361076	19.199981	-2.134380	2.547301	2.996210	0.000000	0.375510	0.000000	0.001751	0.001140	0.000000	0.000000
3.657433	18.490399	16.829747	-1.720113	1.794947	3.176776	0.000000	0.283346	0.000000	0.002359	0.001073	0.000000	0.000000
4.206493	20.094978	15.211061	-1.184312	1.170447	3.305327	0.000000	0.186173	0.000000	0.002926	0.000987	0.000000	0.000000
4.755553	21.061430	14.228637	-0.564827	0.629317	3.379590	0.000000	0.085713	0.000000	0.003440	0.000884	0.000000	0.000000
5.304613	21.321452	13.812506	0.094579	0.133013	3.398256	0.000000	-0.016254	0.000000	0.003894	0.000765	0.000000	0.000000
5.603185	21.301324	13.718971	0.026678	0.145536	3.395734	0.000000	-0.007667	0.000000	0.004125	0.000775	0.000000	0.000000
5.936519	21.288758	13.630217	0.011019	0.120724	3.392920	0.000000	-0.007667	0.000000	0.004384	0.000775	0.000000	0.000000
6.269852	21.286632	13.558005	-0.004641	0.095912	3.390106	0.000000	-0.007667	0.000000	0.004642	0.000775	0.000000	0.000000
6.604435	21.294997	13.502156	-0.020359	0.071007	3.387281	0.000000	-0.007667	0.000000	0.004902	0.000775	0.000000	0.000000
6.901758	21.311273	13.466502	-0.087580	0.082681	3.384772	0.000000	0.000791	0.000000	0.005132	0.000789	0.000000	0.000000
7.450818	21.044306	13.637137	0.571314	-0.395268	3.356962	0.000000	-0.100595	0.000000	0.005518	0.000616	0.000000	0.000000
7.999878	20.071650	14.344952	1.189857	-0.901377	3.273985	0.000000	-0.200186	0.000000	0.005807	0.000432	0.000000	0.000000
8.548938	18.462016	15.640377	1.724342	-1.471703	3.137318	0.000000	-0.296219	0.000000	0.005992	0.000241	0.000000	0.000000
9.097998	16.329135	17.615702	2.137002	-2.146873	2.949387	0.000000	-0.386994	0.000000	0.006071	0.000046	0.000000	0.000000
9.543958	14.665693	19.375618	1.606025	-1.782457	2.794845	0.000000	-0.306172	0.000000	0.006127	0.000204	0.000000	0.000000
9.984918	13.453663	20.757129	1.152891	-1.338305	2.676757	0.000000	-0.229341	0.000000	0.006252	0.000364	0.000000	0.000000
10.425878	12.616660	21.718444	0.752441	-0.833250	2.591873	0.000000	-0.155127	0.000000	0.006448	0.000527	0.000000	0.000000
10.866838	12.116434	22.215812	0.386374	-0.290273	2.539226	0.000000	-0.082685	0.000000	0.006718	0.000697	0.000000	0.000000
11.309048	11.929983	22.226026	0.065121	0.214784	2.518191	0.000000	-0.016949	0.000000	0.007065	0.000858	0.000000	0.000000
11.606371	11.898700	22.102466	0.040093	0.200790	2.512897	0.000000	-0.016949	0.000000	0.007320	0.000858	0.000000	0.000000
12.086371	11.879606	21.920552	-0.000312	0.178197	2.504350	0.000000	-0.016949	0.000000	0.007732	0.000858	0.000000	0.000000
12.566371	11.899300	21.760327	-0.040718	0.155605	2.495802	0.000000	-0.016949	0.000000	0.008144	0.000858	0.000000	0.000000
13.046371	11.957784	21.621791	-0.081123	0.133012	2.487255	0.000000	-0.016949	0.000000	0.008556	0.000858	0.000000	0.000000
13.526371	12.055057	21.504944	-0.121529	0.110420	2.478708	0.000000	-0.016949	0.000000	0.008968	0.000858	0.000000	0.000000
14.007621	12.191524	21.409566	-0.162039	0.087768	2.470138	0.000000	-0.016949	0.000000	0.009381	0.000858	0.000000	0.000000
14.304943	12.295288	21.361594	-0.159735	0.026531	2.464840	0.000000	-0.022428	0.000000	0.009636	0.000836	0.000000	0.000000
14.745903	12.594181	21.104395	-0.520224	0.554438	2.469952	0.000000	0.047488	0.000000	0.010060	0.001089	0.000000	0.000000
15.186863	13.220344	20.390945	-0.904500	1.057114	2.505876	0.000000	0.117934	0.000000	0.010598	0.001356	0.000000	0.000000
15.627823	14.202414	19.253702	-1.330130	1.511681	2.573017	0.000000	0.189709	0.000000	0.011258	0.001637	0.000000	0.000000
16.068783	15.585308	17.744414	-1.816575	1.897450	2.672133	0.000000	0.263628	0.000000	0.012046	0.001938	0.000000	0.000000
16.514743	17.455947	15.909989	-2.391063	2.197885	2.806023	0.000000	0.341025	0.000000	0.012982	0.002263	0.000000	0.000000
17.063803	19.858645	13.861992	-1.957080	1.553412	2.968921	0.000000	0.255277	0.000000	0.014105	0.001824	0.000000	0.000000
17.612863	21.705347	12.457241	-1.384737	1.019623	3.083665	0.000000	0.165029	0.000000	0.014979	0.001352	0.000000	0.000000
18.161923	22.865461	11.595664	-0.714490	0.558484	3.148232	0.000000	0.071875	0.000000	0.015586	0.000857	0.000000	0.000000
18.710983	23.256938	11.215881	0.006277	0.137140	3.161482	0.000000	-0.022541	0.000000	0.015917	0.000347	0.000000	0.000000
19.009556	23.288102	11.127197	-0.058911	0.134993	3.156749	0.000000	-0.015429	0.000000	0.016032	0.000385	0.000000	0.000000
19.342889	23.332163	11.047370	-0.073274	0.104490	3.151477	0.000000	-0.015429	0.000000	0.016161	0.000385	0.000000	0.000000
19.676223	23.385800	10.987877	-0.087637	0.073987	3.146206	0.000000	-0.015429	0.000000	0.016289	0.000385	0.000000	0.000000
20.010806	23.449558	10.948475	-0.218236	0.097616	3.140934	0.000000	0.000133	0.000000	0.016418	0.000467	0.000000	0.000000
20.308129	23.583470	10.898492	-0.284208	0.094634	3.140848	0.000000	0.007151	0.000000	0.016557	0.000507	0.000000	0.000000
20.857189	23.489028	11.015566	0.455315	-0.309068	3.118913	0.000000	-0.086458	0.000000	0.016688	-0.000032	0.000000	0.000000
21.406249	22.595051	11.585480	1.162654	-0.734795	3.046199	0.000000	-0.178533	0.000000	0.016522	-0.000570	0.000000	0.000000
21.955309	20.964755	12.648841	1.787797	-1.212882	2.923994	0.000000	-0.267449	0.000000	0.016064	-0.001098	0.000000	0.000000
22.504369	18.713430	14.281412	2.286550	-1.777396	2.754461	0.000000	-0.351637	0.000000	0.015320	-0.001607	0.000000	0.000000
22.950329	16.940999	15.747589	1.699968	-1.495482	2.615230	0.000000	-0.275633	0.000000	0.014690	-0.001217	0.000000	0.000000
23.391289	15.668290	16.917358	1.196129	-1.146649	2.510161	0.000000	-0.203252	0.000000	0.014236	-0.000844	0.000000	0.000000
23.832249	14.814398	17.755132	0.746981	-0.745625	2.436322	0.000000	-0.133178	0.000000	0.013944	-0.000481	0.000000	0.000000
24.273209	14.340267	18.222786	0.331985	-0.310663	2.392874	0.000000	-0.064616	0.000000	0.013811	-0.000123	0.000000	0.000000
24.715418	14.224388	18.298683	-0.037766	0.099519	2.379326	0.000000	-0.001833	0.000000	0.013836	0.000202	0.000000	0.000000
25.012741	14.253069	18.244384	-0.058698	0.083109	2.378721	0.000000	-0.001833	0.000000	0.013896	0.000202	0.000000	0.000000
25.346075	14.300023	18.195110	-0.082165	0.064713	2.378043	0.000000	-0.001833	0.000000	0.013963	0.000202	0.000000	0.000000
25.679408	14.362622	18.158100	-0.105633	0.046316	2.377365	0.000000	-0.001833	0.000000	0.014030	0.000202	0.000000	0.000000
26.013991	14.440897	18.133653	-0.012034	-0.119259	2.376660	0.000000	-0.021114	0.000000	0.014098	0.000087	0.000000	0.000000
26.311314	14.454090	18.209621	-0.002089	-0.174346	2.370349	0.000000	-0.026122	0.000000	0.014124	0.000055	0.000000	0.000000
26.752274	14.634692	18.165993	-0.408848	0.272888	2.373601	0.000000	0.041341	0.000000	0.014228	0.000421	0.000000	0.000000
27.193234	15.181024	17.731851	-0.834303	0.707701	2.406526	0.000000	0.109271	0.000000	0.014495	0.000791	0.000000	0.000000
27.634194	16.118077	16.926951	-1.297906	1.110303	2.469496	0.000000	0.178438	0.000000	0.014927	0.001170	0.000000	0.000000
28.075154	17.488716	15.787921	-1.820857	1.462369	2.563227	0.000000	0.249625	0.000000	0.015529	0.001563	0.000000	0.000000
28.521114	19.379822	14.349202	-2.432342	1.749101	2.690382	0.000000	0.324126	0.000000	0.016318	0.001976	0.000000	0.000000
29.070174	21.784985	12.746737	-1.920154	1.185987	2.845235	0.000000	0.242250	0.000000	0.017256	0.001432	0.000000	0.000000
29.619234	23.549083	11.713005	-1.272204	0.707386	2.954177	0.000000	0.156098	0.000000	0.017887	0.000863	0.000000	0.000000
30.168294	24.547349	11.174356	-0.534303	0.279192	3.015282	0.000000	0.067190	0.000000	0.018200	0.000278	0.000000	0.000000
30.717354	24.709178	11.092412	0.241375	-0.129106	3.027469	0.000000	-0.022906	0.000000	0.018191	-0.000312	0.000000	0.000000
31.015927	24.600926	11.163168	0.174628	-0.131915	3.022680	0.000000	-0.016260	0.000000	0.018111	-0.000268	0.000000	0.000000
31.349260	24.489161	11.261238	0.160665	-0.162295	3.017349	0.000000	-0.016260	0.000000	0.018022	-0.000268	0.000000	0.000000
31.682593	24.386706	11.379561	0.146702	-0.192674	3.012018	0.000000	-0.016260	0.000000	0.017932	-0.000268	0.000000	0.000000
32.017177	24.293227	11.518694	0.132687	-0.223168	3.006668	0.000000	-0.016260	0.000000	0.017843	-0.000268	0.000000	0.000000
32.314499	24.218252	11.659349	0.066814	-0.224588	3.001927	0.000000	-0.009639	0.000000	0.017763	-0.000225	0.000000	0.000000
32.863559	23.729990	12.144014	0.816614	-0.663119	2.972423	0.000000	-0.098624	0.000000	0.017482	-0.000796	0.000000	0.000000
33.412619	22.444951	13.133325	1.508671	-1.148903	2.894753	0.000000	-0.185873	0.000000	0.016891	-0.001353	0.000000	0.000000
33.961679	20.454027	14.697766	2.094055	-1.716554	2.770287	0.000000	-0.269845	0.000000	0.016000	-0.001886	0.000000	0.000000
34.510739	17.898024	16.948791	2.531383	-2.406519	2.601221	0.000000	-0.349059	0.000000	0.014825	-0.002386	0.000000	0.000000
34.956699	15.912076	18.962741	1.935449	-2.089448	2.462597	0.000000	-0.277033	0.000000	0.013844	-0.002014	0.000000	0.000000
35.397659	14.431584	20.630867	1.433263	-1.678362	2.356387	0.000000	-0.208606	0.000000	0.013033	-0.001667	0.000000	0.000000
35.838619	13.363700	21.901158	0.996610	-1.190889	2.279666	0.000000	-0.142538	0.000000	0.012371	-0.001340	0.000000	0.000000
36.279579	12.659578	22.715812	0.605526	-0.649216	2.231566	0.000000	-0.078080	0.000000	0.011849	-0.001028	0.000000	0.000000
36.721789	12.286385	23.037995	0.268784	-0.128008	2.211525	0.000000	-0.019318	0.000000	0.011462	-0.000754	0.000000	0.000000
37.019112	12.134269	23.118014	0.242836	-0.141125	2.206005	0.000000	-0.019318	0.000000	0.011238	-0.000754	0.000000	0.000000
37.352445	11.982074	23.217000	0.213746	-0.155831	2.199817	0.000000	-0.019318	0.000000	0.010987	-0.000754	0.000000	0.000000
37.685779	11.849274	23.325789	0.184656	-0.170537	2.193629	0.000000	-0.019318	0.000000	0.010735	-0.000754	0.000000	0.000000
38.020362	11.735478	23.444846	0.155456	-0.185298	2.187418	0.000000	-0.019318	0.000000	0.010483	-0.000754	0.000000	0.000000
38.317684	11.650715	23.559006	0.155237	-0.250691	2.181895	0.000000	-0.024136	0.000000	0.010259	-0.000778	0.000000	0.000000
38.758644	11.662945	23.519131	-0.183287	0.340760	2.185327	0.000000	0.038463	0.000000	0.009974	-0.000517	0.000000	0.000000
39.199604	11.976354	22.962445	-0.530184	0.916700	2.216329	0.000000	0.101506	0.000000	0.009803	-0.000262	0.000000	0.000000
39.640564	12.605266	21.914285	-0.901312	1.450918	2.275254	0.000000	0.165707	0.000000	0.009743	-0.000010	0.000000	0.000000
40.081524	13.578431	20.422355	-1.313635	1.919102	2.362775	0.000000	0.231797	0.000000	0.009794	0.000242	0.000000	0.000000
40.527484	14.957961	18.531866	-1.789996	2.301473	2.481369	0.000000	0.300958	0.000000	0.009959	0.000498	0.000000	0.000000
41.076544	16.720731	16.407445	-1.400905	1.590009	2.626102	0.000000	0.226040	0.000000	0.010144	0.000173	0.000000	0.000000
41.625604	17.998858	14.997977	-0.912816	0.991830	2.728706	0.000000	0.147114	0.000000	0.010148	-0.000156	0.000000	0.000000
42.174664	18.702006	14.203044	-0.360225	0.464317	2.787359	0.000000	0.065576	0.000000	0.009973	-0.000482	0.000000	0.000000
42.723724	18.780486	13.966005	0.217812	-0.030111	2.801019	0.000000	-0.017133	0.000000	0.009620	-0.000800	0.000000	0.000000
43.022297	18.682135	13.970320	0.156430	-0.017853	2.798135	0.000000	-0.010420	0.000000	0.009389	-0.000775	0.000000	0.000000
43.502297	18.544596	14.003957	0.130109	-0.052223	2.793506	0.000000	-0.010420	0.000000	0.009017	-0.000775	0.000000	0.000000
43.982297	18.432326	14.070588	0.103787	-0.086592	2.788876	0.000000	-0.010420	0.000000	0.008644	-0.000775	0.000000	0.000000
44.462297	18.345325	14.170214	0.077465	-0.120962	2.784247	0.000000	-0.010420	0.000000	0.008272	-0.000775	0.000000	0.000000
44.942297	18.283592	14.302834	0.051143	-0.155331	2.779617	0.000000	-0.010420	0.000000	0.007900	-0.000775	0.000000	0.000000
45.423547	18.247293	14.468745	-0.065654	-0.118103	2.774993	0.000000	0.003329	0.000000	0.007527	-0.000738	0.000000	0.000000
45.720870	18.291228	14.545147	-0.126830	-0.103459	2.776204	0.000000	0.010130	0.000000	0.007307	-0.000720	0.000000	0.000000
46.269930	18.122186	14.940247	0.432416	-0.620310	2.759710	0.000000	-0.071723	0.000000	0.006848	-0.000949	0.000000	0.000000
46.818990	17.352141	15.923753	0.961091	-1.181349	2.698666	0.000000	-0.152318	0.000000	0.006268	-0.001162	0.000000	0.000000
47.368050	16.035528	17.565713	1.421841	-1.826542	2.594147	0.000000	-0.230231	0.000000	0.005577	-0.001353	0.000000	0.000000
47.917110	14.265407	19.983077	1.782112	-2.601849	2.447998	0.000000	-0.304081	0.000000	0.004786	-0.001521	0.000000	0.000000
48.363070	12.887149	22.132269	1.318609	-2.196864	2.328292	0.000000	-0.235830	0.000000	0.004134	-0.001406	0.000000	0.000000
48.804030	11.903827	23.854330	0.919201	-1.693313	2.239327	0.000000	-0.170659	0.000000	0.003536	-0.001307	0.000000	0.000000
49.244990	11.253016	25.096462	0.561805	-1.112715	2.178611	0.000000	-0.107419	0.000000	0.002979	-0.001223	0.000000	0.000000
49.685950	10.904964	25.802156	0.230089	-0.481489	2.145457	0.000000	-0.045389	0.000000	0.002456	-0.001153	0.000000	0.000000
50.128160	10.843919	25.939036	-0.065126	0.109571	2.139508	0.000000	0.010987	0.000000	0.001959	-0.001101	0.000000	0.000000
50.425482	10.890833	25.877329	-0.092661	0.097971	2.143102	0.000000	0.010987	0.000000	0.001632	-0.001101	0.000000	0.000000
50.758816	10.962897	25.816350	-0.123531	0.084966	2.147132	0.000000	0.010987	0.000000	0.001265	-0.001101	0.000000	0.000000
51.092149	11.055540	25.764041	-0.154400	0.071961	2.151161	0.000000	0.010987	0.000000	0.000898	-0.001101	0.000000	0.000000
51.426732	11.169001	25.720776	-0.094776	-0.149752	2.155183	0.000000	-0.006497	0.000000	0.000530	-0.001105	0.000000	0.000000
51.724055	11.233345	25.813340	-0.094140	-0.225160	2.153580	0.000000	-0.011768	0.000000	0.000201	-0.001105	0.000000	0.000000
52.165015	11.462676	25.724666	-0.428263	0.425485	2.162508	0.000000	0.050155	0.000000	-0.000286	-0.001107	0.000000	0.000000
52.605975	11.994145	25.068560	-0.781944	1.056767	2.198846	0.000000	0.112662	0.000000	-0.000776	-0.001120	0.000000	0.000000
53.046935	12.852023	23.874885	-1.171339	1.639963	2.263014	0.000000	0.176463	0.000000	-0.001276	-0.001147	0.000000	0.000000
53.487895	14.075488	22.197961	-1.614239	2.148541	2.355747	0.000000	0.242287	0.000000	-0.001789	-0.001186	0.000000	0.000000
53.933855	15.741349	20.089003	-2.135113	2.560658	2.479636	0.000000	0.311277	0.000000	-0.002330	-0.001240	0.000000	0.000000
54.482915	17.885753	17.715686	-1.748078	1.787527	2.630825	0.000000	0.236343	0.000000	-0.002988	-0.001153	0.000000	0.000000
55.031975	19.534432	16.116869	-1.237604	1.141713	2.739601	0.000000	0.157199	0.000000	-0.003593	-0.001047	0.000000	0.000000
55.581035	20.570980	15.178662	-0.639746	0.577217	2.804027	0.000000	0.075250	0.000000	-0.004134	-0.000922	0.000000	0.000000
56.130095	20.922222	14.834231	0.003273	0.053835	2.822952	0.000000	-0.008048	0.000000	-0.004602	-0.000780	0.000000	0.000000
56.428668	20.958415	14.784032	-0.067789	0.073928	2.823070	0.000000	-0.000391	0.000000	-0.004838	-0.000792	0.000000	0.000000
56.762001	21.008934	14.742303	-0.083766	0.051258	2.823204	0.000000	-0.000391	0.000000	-0.005102	-0.000792	0.000000	0.000000
57.095334	21.070104	14.715688	-0.099744	0.028588	2.823338	0.000000	-0.000391	0.000000	-0.005367	-0.000792	0.000000	0.000000
57.429918	21.142215	14.704171	-0.115782	0.005833	2.823472	0.000000	-0.000391	0.000000	-0.005632	-0.000792	0.000000	0.000000
57.727240	21.215323	14.706700	-0.188145	0.025730	2.823593	0.000000	0.007343	0.000000	-0.005867	-0.000808	0.000000	0.000000
58.276300	21.059320	14.960579	0.470185	-0.490887	2.805099	0.000000	-0.075979	0.000000	-0.006258	-0.000612	0.000000	0.000000
58.825360	20.194571	15.797463	1.095299	-1.042461	2.741055	0.000000	-0.157964	0.000000	-0.006537	-0.000404	0.000000	0.000000
59.374420	18.682149	17.276945	1.643059	-1.668270	2.632591	0.000000	-0.237154	0.000000	-0.006700	-0.000190	0.000000	0.000000
59.923480	16.628848	19.504382	2.074792	-2.412883	2.481628	0.000000	-0.312142	0.000000	-0.006745	0.000028	0.000000	0.000000
60.369440	15.020417	21.484081	1.544777	-2.007769	2.357910	0.000000	-0.243123	0.000000	-0.006772	-0.000147	0.000000	0.000000
60.810400	13.863294	23.042173	1.089436	-1.512539	2.265424	0.000000	-0.177251	0.000000	-0.006875	-0.000323	0.000000	0.000000
61.251360	13.084304	24.131432	0.683857	-0.948505	2.201585	0.000000	-0.113395	0.000000	-0.007057	-0.000503	0.000000	0.000000
61.692320	12.647870	24.702309	0.309516	-0.341325	2.165670	0.000000	-0.050824	0.000000	-0.007320	-0.000688	0.000000	0.000000
62.134530	12.534120	24.728257	-0.017859	0.216693	2.157282	0.000000	0.005509	0.000000	-0.007666	-0.000862	0.000000	0.000000
62.431853	12.551795	24.603144	-0.041588	0.204105	2.159176	0.000000	0.005509	0.000000	-0.007923	-0.000862	0.000000	0.000000
62.765186	12.588388	24.471778	-0.068191	0.189992	2.161300	0.000000	0.005509	0.000000	-0.008210	-0.000862	0.000000	0.000000
63.098520	12.642716	24.349821	-0.094793	0.175879	2.163423	0.000000	0.005509	0.000000	-0.008497	-0.000862	0.000000	0.000000
63.433103	12.715083	24.236868	-0.121496	0.161713	2.165555	0.000000	0.005509	0.000000	-0.008786	-0.000862	0.000000	0.000000
63.730426	12.794354	24.144507	-0.111233	0.084679	2.167447	0.000000	-0.000250	0.000000	-0.009042	-0.000839	0.000000	0.000000
64.171386	13.054545	23.803915	-0.481492	0.684871	2.181473	0.000000	0.062082	0.000000	-0.009464	-0.001077	0.000000	0.000000
64.612346	13.649604	22.945845	-0.873731	1.253907	2.223218	0.000000	0.125132	0.000000	-0.009994	-0.001328	0.000000	0.000000
65.053306	14.606689	21.609340	-1.305860	1.765902	2.293161	0.000000	0.189621	0.000000	-0.010637	-0.001594	0.000000	0.000000
65.494266	15.969483	19.855207	-1.797608	2.197569	2.392104	0.000000	0.256286	0.000000	-0.011402	-0.001878	0.000000	0.000000
65.940226	17.823584	17.738285	-2.375846	2.529800	2.522799	0.000000	0.326254	0.000000	-0.012307	-0.002185	0.000000	0.000000
66.489286	20.197821	15.370115	-1.924593	1.809574	2.682200	0.000000	0.249816	0.000000	-0.013394	-0.001769	0.000000	0.000000
67.038346	21.998707	13.717761	-1.337510	1.218200	2.798120	0.000000	0.168919	0.000000	-0.014244	-0.001321	0.000000	0.000000
67.587406	23.099185	12.663545	-0.656039	0.713567	2.868491	0.000000	0.085005	0.000000	-0.014841	-0.000850	0.000000	0.000000
68.136466	23.421626	12.132389	0.071724	0.259741	2.892060	0.000000	-0.000429	0.000000	-0.015175	-0.000364	0.000000	0.000000
68.435038	23.423450	11.964080	-0.009692	0.268615	2.894575	0.000000	0.008050	0.000000	-0.015296	-0.000406	0.000000	0.000000
68.768372	23.434655	11.794961	-0.023924	0.238743	2.897393	0.000000	0.008050	0.000000	-0.015431	-0.000406	0.000000	0.000000
69.101705	23.455349	11.645756	-0.038157	0.208872	2.900212	0.000000	0.008050	0.000000	-0.015567	-0.000406	0.000000	0.000000
69.436288	23.485662	11.516018	-0.052442	0.178888	2.903041	0.000000	0.008050	0.000000	-0.015703	-0.000406	0.000000	0.000000
69.733611	23.520793	11.417481	-0.134394	0.185794	2.905566	0.000000	0.016605	0.000000	-0.015823	-0.000450	0.000000	0.000000
70.282671	23.264426	11.441772	0.598527	-0.230306	2.891153	0.000000	-0.069413	0.000000	-0.015930	0.000064	0.000000	0.000000
