#ParticleID	Turn	x[m]	xp	y[m]	yp	z[m]	dE[GeV]# s	beta_x	beta_y	alpha_x	alpha_y	D_x	D_y	D_px	D_py	orbit_x	orbit_px	orbit_y	orbit_py
0.300000	11.931406	25.117793	-0.012011	-0.026684	2.603760	0.000000	-0.002038	0.000000	-0.001275	0.001069	0.000000	0.000000
0.601250	11.946250	25.137485	-0.037263	-0.038686	2.602824	0.000000	-0.002038	0.000000	-0.000953	0.001069	0.000000	0.000000
0.898573	11.975818	25.164012	-0.032641	-0.112226	2.601900	0.000000	-0.008457	0.000000	-0.000635	0.001071	0.000000	0.000000
1.339533	12.158084	24.983796	-0.381901	0.519363	2.613917	0.000000	0.065062	0.000000	-0.000165	0.001060	0.000000	0.000000
1.780493	12.654880	24.254897	-0.748617	1.127326	2.658486	0.000000	0.139312	0.000000	0.000302	0.001062	0.000000	0.000000
2.221453	13.488911	23.010468	-1.149543	1.684000	2.736108	0.000000	0.215137	0.000000	0.000773	0.001076	0.000000	0.000000
2.662413	14.698297	21.307122	-1.603000	2.164055	2.847666	0.000000	0.293401	0.000000	0.001253	0.001102	0.000000	0.000000
3.108373	16.359222	19.197369	-2.134061	2.546827	2.996257	0.000000	0.375486	0.000000	0.001752	0.001141	0.000000	0.000000
3.657433	18.488217	16.827592	-1.719839	1.794582	3.176809	0.000000	0.283321	0.000000	0.002362	0.001074	0.000000	0.000000
4.206493	20.092530	15.209260	-1.184104	1.170164	3.305345	0.000000	0.186147	0.000000	0.002929	0.000989	0.000000	0.000000
4.755553	21.058797	14.227110	-0.564699	0.629097	3.379594	0.000000	0.085686	0.000000	0.003444	0.000885	0.000000	0.000000
5.304613	21.318727	13.811194	0.094618	0.132840	3.398244	0.000000	-0.016280	0.000000	0.003898	0.000766	0.000000	0.000000
5.603185	21.298571	13.717764	0.026724	0.145357	3.395714	0.000000	-0.007694	0.000000	0.004130	0.000776	0.000000	0.000000
5.936519	21.285975	13.629130	0.011063	0.120545	3.392891	0.000000	-0.007694	0.000000	0.004389	0.000776	0.000000	0.000000
6.269852	21.283821	13.557038	-0.004599	0.095732	3.390068	0.000000	-0.007694	0.000000	0.004647	0.000776	0.000000	0.000000
6.604435	21.292158	13.501311	-0.020320	0.070826	3.387234	0.000000	-0.007694	0.000000	0.004907	0.000776	0.000000	0.000000
6.901758	21.308411	13.465764	-0.087532	0.082495	3.384717	0.000000	0.000764	0.000000	0.005138	0.000790	0.000000	0.000000
7.450818	21.041446	13.636593	0.571266	-0.395437	3.356892	0.000000	-0.100620	0.000000	0.005525	0.000617	0.000000	0.000000
7.999878	20.068894	14.344590	1.189715	-0.901542	3.273901	0.000000	-0.200209	0.000000	0.005813	0.000433	0.000000	0.000000
8.548938	18.459462	15.640200	1.724118	-1.471875	3.137221	0.000000	-0.296239	0.000000	0.005999	0.000242	0.000000	0.000000
9.097998	16.326865	17.615724	2.136711	-2.147065	2.949280	0.000000	-0.387010	0.000000	0.006078	0.000046	0.000000	0.000000
9.543958	14.663654	19.375819	1.605799	-1.782664	2.794731	0.000000	-0.306192	0.000000	0.006134	0.000204	0.000000	0.000000
9.984918	13.451798	20.757516	1.152720	-1.338518	2.676633	0.000000	-0.229364	0.000000	0.006259	0.000364	0.000000	0.000000
10.425878	12.614925	21.719018	0.752317	-0.833459	2.591739	0.000000	-0.155153	0.000000	0.006456	0.000528	0.000000	0.000000
10.866838	12.114790	22.216566	0.386291	-0.290469	2.539079	0.000000	-0.082715	0.000000	0.006726	0.000698	0.000000	0.000000
11.309048	11.928396	22.226943	0.065069	0.214613	2.518030	0.000000	-0.016981	0.000000	0.007074	0.000859	0.000000	0.000000
11.606371	11.897145	22.103485	0.040038	0.200620	2.512725	0.000000	-0.016981	0.000000	0.007329	0.000859	0.000000	0.000000
12.086371	11.878105	21.921732	-0.000372	0.178030	2.504162	0.000000	-0.016981	0.000000	0.007741	0.000859	0.000000	0.000000
12.566371	11.897860	21.761667	-0.040783	0.155440	2.495599	0.000000	-0.016981	0.000000	0.008154	0.000859	0.000000	0.000000
13.046371	11.956409	21.623287	-0.081193	0.132850	2.487035	0.000000	-0.016981	0.000000	0.008566	0.000859	0.000000	0.000000
13.526371	12.053751	21.506595	-0.121604	0.110260	2.478472	0.000000	-0.016981	0.000000	0.008979	0.000859	0.000000	0.000000
14.007621	12.190294	21.411369	-0.162120	0.087611	2.469886	0.000000	-0.016981	0.000000	0.009392	0.000859	0.000000	0.000000
14.304943	12.294106	21.363491	-0.159824	0.026378	2.464578	0.000000	-0.022459	0.000000	0.009647	0.000837	0.000000	0.000000
14.745903	12.593068	21.106403	-0.520290	0.554339	2.469674	0.000000	0.047450	0.000000	0.010072	0.001091	0.000000	0.000000
15.186863	13.219279	20.393014	-0.904545	1.057073	2.505579	0.000000	0.117888	0.000000	0.010611	0.001357	0.000000	0.000000
15.627823	14.201381	19.255780	-1.330156	1.511702	2.572697	0.000000	0.189655	0.000000	0.011272	0.001640	0.000000	0.000000
16.068783	15.584291	17.746447	-1.816583	1.897531	2.671787	0.000000	0.263566	0.000000	0.012060	0.001940	0.000000	0.000000
16.514743	17.454931	15.911924	-2.391054	2.198022	2.805646	0.000000	0.340954	0.000000	0.012998	0.002265	0.000000	0.000000
17.063803	19.857645	13.863807	-1.957115	1.553495	2.968507	0.000000	0.255219	0.000000	0.014123	0.001826	0.000000	0.000000
17.612863	21.704410	12.458993	-1.384812	1.019656	3.083222	0.000000	0.164985	0.000000	0.014997	0.001354	0.000000	0.000000
18.161923	22.864628	11.597404	-0.714601	0.558471	3.147767	0.000000	0.071845	0.000000	0.015606	0.000858	0.000000	0.000000
18.710983	23.256243	11.217661	0.006139	0.137080	3.161005	0.000000	-0.022556	0.000000	0.015937	0.000347	0.000000	0.000000
19.009556	23.287481	11.129013	-0.059037	0.134936	3.156266	0.000000	-0.015446	0.000000	0.016052	0.000386	0.000000	0.000000
19.342889	23.331628	11.049221	-0.073401	0.104439	3.150989	0.000000	-0.015446	0.000000	0.016181	0.000386	0.000000	0.000000
19.676223	23.385349	10.989761	-0.087765	0.073942	3.145711	0.000000	-0.015446	0.000000	0.016309	0.000386	0.000000	0.000000
20.010806	23.449193	10.950388	-0.218363	0.097585	3.140434	0.000000	0.000114	0.000000	0.016439	0.000467	0.000000	0.000000
20.308129	23.583181	10.900421	-0.284323	0.094607	3.140341	0.000000	0.007128	0.000000	0.016578	0.000508	0.000000	0.000000
20.857189	23.488870	11.017554	0.455193	-0.309149	3.118398	0.000000	-0.086464	0.000000	0.016708	-0.000032	0.000000	0.000000
21.406249	22.595026	11.587590	1.162534	-0.734937	3.045686	0.000000	-0.178523	0.000000	0.016543	-0.000571	0.000000	0.000000
21.955309	20.964856	12.651145	1.787688	-1.213095	2.923491	0.000000	-0.267422	0.000000	0.016083	-0.001099	0.000000	0.000000
22.504369	18.713640	14.283995	2.286459	-1.777694	2.753979	0.000000	-0.351594	0.000000	0.015339	-0.001609	0.000000	0.000000
22.950329	16.941288	15.750411	1.699880	-1.495716	2.614765	0.000000	-0.275603	0.000000	0.014709	-0.001219	0.000000	0.000000
23.391289	15.668656	16.920354	1.196041	-1.146808	2.509707	0.000000	-0.203233	0.000000	0.014254	-0.000845	0.000000	0.000000
23.832249	14.814842	17.758233	0.746889	-0.745702	2.435874	0.000000	-0.133171	0.000000	0.013962	-0.000481	0.000000	0.000000
24.273209	14.340796	18.225917	0.331885	-0.310655	2.392427	0.000000	-0.064620	0.000000	0.013828	-0.000123	0.000000	0.000000
24.715418	14.225011	18.301769	-0.037884	0.099613	2.378875	0.000000	-0.001847	0.000000	0.013853	0.000202	0.000000	0.000000
25.012741	14.253762	18.247412	-0.058815	0.083207	2.378265	0.000000	-0.001847	0.000000	0.013913	0.000202	0.000000	0.000000
25.346075	14.300794	18.198072	-0.082282	0.064813	2.377583	0.000000	-0.001847	0.000000	0.013980	0.000202	0.000000	0.000000
25.679408	14.363471	18.160995	-0.105748	0.046419	2.376900	0.000000	-0.001847	0.000000	0.014048	0.000202	0.000000	0.000000
26.013991	14.441823	18.136478	-0.012141	-0.119176	2.376190	0.000000	-0.021124	0.000000	0.014115	0.000087	0.000000	0.000000
26.311314	14.455080	18.212396	-0.002199	-0.174258	2.369876	0.000000	-0.026130	0.000000	0.014141	0.000055	0.000000	0.000000
26.752274	14.635790	18.168658	-0.408985	0.273049	2.373122	0.000000	0.041321	0.000000	0.014246	0.000421	0.000000	0.000000
27.193234	15.182257	17.734343	-0.834472	0.707929	2.406035	0.000000	0.109239	0.000000	0.014513	0.000792	0.000000	0.000000
27.634194	16.119478	16.929216	-1.298116	1.110588	2.468987	0.000000	0.178392	0.000000	0.014946	0.001172	0.000000	0.000000
28.075154	17.490323	15.789915	-1.821117	1.462697	2.562694	0.000000	0.249566	0.000000	0.015549	0.001565	0.000000	0.000000
28.521114	19.381690	14.350889	-2.432665	1.749457	2.689819	0.000000	0.324053	0.000000	0.016339	0.001979	0.000000	0.000000
29.070174	21.787187	12.748073	-1.920431	1.186272	2.844636	0.000000	0.242195	0.000000	0.017277	0.001434	0.000000	0.000000
29.619234	23.551555	11.714059	-1.272415	0.707618	2.953552	0.000000	0.156064	0.000000	0.017909	0.000864	0.000000	0.000000
30.168294	24.550010	11.175176	-0.534433	0.279389	3.014643	0.000000	0.067176	0.000000	0.018223	0.000278	0.000000	0.000000
30.717354	24.711933	11.093029	0.241335	-0.128931	3.026829	0.000000	-0.022899	0.000000	0.018214	-0.000312	0.000000	0.000000
31.015927	24.603698	11.163682	0.174597	-0.131742	3.022040	0.000000	-0.016257	0.000000	0.018134	-0.000268	0.000000	0.000000
31.349260	24.491954	11.261636	0.160636	-0.162119	3.016711	0.000000	-0.016257	0.000000	0.018044	-0.000268	0.000000	0.000000
31.682593	24.389517	11.379840	0.146675	-0.192496	3.011382	0.000000	-0.016257	0.000000	0.017955	-0.000268	0.000000	0.000000
32.017177	24.296055	11.518854	0.132662	-0.222986	3.006032	0.000000	-0.016257	0.000000	0.017865	-0.000268	0.000000	0.000000
32.314499	24.221096	11.659399	0.066797	-0.224411	3.001292	0.000000	-0.009638	0.000000	0.017785	-0.000225	0.000000	0.000000
32.863559	23.732800	12.143866	0.816692	-0.662933	2.971795	0.000000	-0.098604	0.000000	0.017504	-0.000797	0.000000	0.000000
33.412619	22.447625	13.132962	1.508837	-1.148695	2.894142	0.000000	-0.185832	0.000000	0.016912	-0.001355	0.000000	0.000000
33.961679	20.456473	14.697156	2.094298	-1.716309	2.769705	0.000000	-0.269785	0.000000	0.016020	-0.001889	0.000000	0.000000
34.510739	17.900166	16.947885	2.531686	-2.406220	2.600679	0.000000	-0.348980	0.000000	0.014844	-0.002389	0.000000	0.000000
34.956699	15.913975	18.961570	1.935687	-2.089151	2.462088	0.000000	-0.276968	0.000000	0.013862	-0.002016	0.000000	0.000000
35.397659	14.433298	20.629439	1.433447	-1.678081	2.355904	0.000000	-0.208554	0.000000	0.013050	-0.001669	0.000000	0.000000
35.838619	13.365271	21.899495	0.996748	-1.190636	2.279204	0.000000	-0.142498	0.000000	0.012387	-0.001341	0.000000	0.000000
36.279579	12.661044	22.713943	0.605625	-0.649003	2.231120	0.000000	-0.078052	0.000000	0.011864	-0.001029	0.000000	0.000000
36.721789	12.287780	23.035959	0.268847	-0.127832	2.211089	0.000000	-0.019299	0.000000	0.011476	-0.000755	0.000000	0.000000
37.019112	12.135625	23.115874	0.242902	-0.140950	2.205575	0.000000	-0.019299	0.000000	0.011252	-0.000755	0.000000	0.000000
37.352445	11.983387	23.214743	0.213814	-0.155657	2.199394	0.000000	-0.019299	0.000000	0.011001	-0.000755	0.000000	0.000000
37.685779	11.850540	23.323416	0.184726	-0.170363	2.193212	0.000000	-0.019299	0.000000	0.010749	-0.000755	0.000000	0.000000
38.020362	11.736697	23.442357	0.155529	-0.185125	2.187007	0.000000	-0.019299	0.000000	0.010497	-0.000755	0.000000	0.000000
38.317684	11.651891	23.556414	0.155310	-0.250505	2.181490	0.000000	-0.024116	0.000000	0.010272	-0.000778	0.000000	0.000000
38.758644	11.664067	23.516406	-0.183239	0.340874	2.184930	0.000000	0.038473	0.000000	0.009987	-0.000517	0.000000	0.000000
39.199604	11.977445	22.959652	-0.530160	0.916738	2.215933	0.000000	0.101505	0.000000	0.009815	-0.000262	0.000000	0.000000
39.640564	12.606347	21.911493	-0.901311	1.450878	2.274856	0.000000	0.165697	0.000000	0.009755	-0.000010	0.000000	0.000000
40.081524	13.579521	20.419632	-1.313657	1.918986	2.362370	0.000000	0.231776	0.000000	0.009807	0.000242	0.000000	0.000000
40.527484	14.959081	18.529278	-1.790042	2.301285	2.480952	0.000000	0.300926	0.000000	0.009972	0.000499	0.000000	0.000000
41.076544	16.721879	16.405020	-1.400908	1.589898	2.625671	0.000000	0.226022	0.000000	0.010157	0.000173	0.000000	0.000000
41.625604	17.999985	14.995635	-0.912775	0.991789	2.728269	0.000000	0.147111	0.000000	0.010161	-0.000156	0.000000	0.000000
42.174664	18.703066	14.200710	-0.360144	0.464343	2.786924	0.000000	0.065587	0.000000	0.009986	-0.000483	0.000000	0.000000
42.723724	18.781437	13.963605	0.217928	-0.030017	2.800593	0.000000	-0.017109	0.000000	0.009633	-0.000801	0.000000	0.000000
43.022297	18.683015	13.967872	0.156549	-0.017773	2.797717	0.000000	-0.010398	0.000000	0.009401	-0.000776	0.000000	0.000000
43.502297	18.545361	14.001435	0.130228	-0.052148	2.793099	0.000000	-0.010398	0.000000	0.009028	-0.000776	0.000000	0.000000
43.982297	18.432977	14.067997	0.103907	-0.086524	2.788480	0.000000	-0.010398	0.000000	0.008656	-0.000776	0.000000	0.000000
44.462297	18.345861	14.167560	0.077585	-0.120899	2.783862	0.000000	-0.010398	0.000000	0.008283	-0.000776	0.000000	0.000000
44.942297	18.284013	14.300124	0.051264	-0.155275	2.779244	0.000000	-0.010398	0.000000	0.007910	-0.000776	0.000000	0.000000
45.423547	18.247598	14.465983	-0.065535	-0.118066	2.774631	0.000000	0.003349	0.000000	0.007537	-0.000739	0.000000	0.000000
45.720870	18.291462	14.542363	-0.126707	-0.103436	2.775848	0.000000	0.010149	0.000000	0.007317	-0.000721	0.000000	0.000000
46.269930	18.122282	14.937393	0.432543	-0.620203	2.759368	0.000000	-0.071692	0.000000	0.006857	-0.000950	0.000000	0.000000
46.818990	17.352097	15.920731	0.961214	-1.181149	2.698344	0.000000	-0.152277	0.000000	0.006276	-0.001163	0.000000	0.000000
47.368050	16.035356	17.562416	1.421951	-1.826237	2.593852	0.000000	-0.230180	0.000000	0.005584	-0.001355	0.000000	0.000000
47.917110	14.265124	19.979376	1.782201	-2.601416	2.447734	0.000000	-0.304021	0.000000	0.004792	-0.001523	0.000000	0.000000
48.363070	12.886788	22.128219	1.318694	-2.196518	2.328054	0.000000	-0.235776	0.000000	0.004139	-0.001407	0.000000	0.000000
48.804030	11.903391	23.850020	0.919287	-1.693070	2.239112	0.000000	-0.170612	0.000000	0.003541	-0.001308	0.000000	0.000000
49.244990	11.252501	25.091987	0.561896	-1.112586	2.178417	0.000000	-0.107377	0.000000	0.002983	-0.001224	0.000000	0.000000
49.685950	10.904364	25.797619	0.230189	-0.481480	2.145281	0.000000	-0.045351	0.000000	0.002459	-0.001154	0.000000	0.000000
50.128160	10.843224	25.934545	-0.065015	0.109473	2.139349	0.000000	0.011021	0.000000	0.001962	-0.001102	0.000000	0.000000
50.425482	10.890072	25.872896	-0.092551	0.097871	2.142953	0.000000	0.011021	0.000000	0.001634	-0.001102	0.000000	0.000000
50.758816	10.962064	25.811985	-0.123422	0.084864	2.146994	0.000000	0.011021	0.000000	0.001267	-0.001102	0.000000	0.000000
51.092149	11.054636	25.759744	-0.154293	0.071857	2.151035	0.000000	0.011021	0.000000	0.000900	-0.001102	0.000000	0.000000
51.426732	11.168025	25.716549	-0.094678	-0.149824	2.155070	0.000000	-0.006462	0.000000	0.000531	-0.001106	0.000000	0.000000
51.724055	11.232311	25.809156	-0.094047	-0.225223	2.153478	0.000000	-0.011733	0.000000	0.000202	-0.001107	0.000000	0.000000
52.165015	11.461549	25.720588	-0.428144	0.425312	2.162420	0.000000	0.050188	0.000000	-0.000286	-0.001108	0.000000	0.000000
52.605975	11.992900	25.064680	-0.781793	1.056492	2.198773	0.000000	0.112692	0.000000	-0.000777	-0.001122	0.000000	0.000000
53.046935	12.850628	23.871287	-1.171150	1.639599	2.262955	0.000000	0.176492	0.000000	-0.001277	-0.001148	0.000000	0.000000
53.487895	14.073906	22.194716	-1.614003	2.148105	2.355701	0.000000	0.242314	0.000000	-0.001791	-0.001188	0.000000	0.000000
53.933855	15.739531	20.086173	-2.134819	2.560169	2.479602	0.000000	0.311303	0.000000	-0.002332	-0.001241	0.000000	0.000000
54.482915	17.883636	17.713327	-1.747831	1.787152	2.630807	0.000000	0.236371	0.000000	-0.002991	-0.001155	0.000000	0.000000
55.031975	19.532078	16.114870	-1.237422	1.141427	2.739599	0.000000	0.157227	0.000000	-0.003597	-0.001048	0.000000	0.000000
55.581035	20.568466	15.176939	-0.639642	0.576999	2.804041	0.000000	0.075278	0.000000	-0.004139	-0.000923	0.000000	0.000000
56.130095	20.919640	14.832718	0.003292	0.053669	2.822981	0.000000	-0.008021	0.000000	-0.004607	-0.000781	0.000000	0.000000
56.428668	20.955820	14.782620	-0.067767	0.073758	2.823108	0.000000	-0.000364	0.000000	-0.004844	-0.000793	0.000000	0.000000
56.762001	21.006324	14.741005	-0.083746	0.051086	2.823251	0.000000	-0.000364	0.000000	-0.005108	-0.000793	0.000000	0.000000
57.095334	21.067481	14.714504	-0.099726	0.028415	2.823395	0.000000	-0.000364	0.000000	-0.005373	-0.000793	0.000000	0.000000
57.429918	21.139581	14.703104	-0.115765	0.005658	2.823538	0.000000	-0.000364	0.000000	-0.005638	-0.000793	0.000000	0.000000
57.727240	21.212680	14.705737	-0.188126	0.025553	2.823667	0.000000	0.007371	0.000000	-0.005874	-0.000809	0.000000	0.000000
58.276300	21.056705	14.959797	0.470115	-0.491041	2.805189	0.000000	-0.075954	0.000000	-0.006265	-0.000613	0.000000	0.000000
58.825360	20.192079	15.796842	1.095146	-1.042602	2.741158	0.000000	-0.157942	0.000000	-0.006545	-0.000405	0.000000	0.000000
59.374420	18.679866	17.276477	1.642833	-1.668410	2.632705	0.000000	-0.237136	0.000000	-0.006708	-0.000190	0.000000	0.000000
59.923480	16.626846	19.504071	2.074509	-2.413031	2.481751	0.000000	-0.312127	0.000000	-0.006753	0.000028	0.000000	0.000000
60.369440	15.018640	21.483912	1.544555	-2.007940	2.358041	0.000000	-0.243105	0.000000	-0.006780	-0.000148	0.000000	0.000000
60.810400	13.861690	23.042162	1.089264	-1.512726	2.265563	0.000000	-0.177230	0.000000	-0.006884	-0.000324	0.000000	0.000000
61.251360	13.082833	24.131589	0.683727	-0.948698	2.201736	0.000000	-0.113370	0.000000	-0.007066	-0.000504	0.000000	0.000000
61.692320	12.646498	24.702636	0.309422	-0.341516	2.165833	0.000000	-0.050795	0.000000	-0.007329	-0.000689	0.000000	0.000000
62.134530	12.532817	24.728749	-0.017924	0.216506	2.157459	0.000000	0.005541	0.000000	-0.007676	-0.000863	0.000000	0.000000
62.431853	12.550531	24.603746	-0.041655	0.203919	2.159363	0.000000	0.005541	0.000000	-0.007932	-0.000863	0.000000	0.000000
62.765186	12.587170	24.472504	-0.068260	0.189808	2.161498	0.000000	0.005541	0.000000	-0.008220	-0.000863	0.000000	0.000000
63.098520	12.641545	24.350669	-0.094866	0.175696	2.163633	0.000000	0.005541	0.000000	-0.008508	-0.000863	0.000000	0.000000
63.433103	12.713961	24.237838	-0.121571	0.161532	2.165776	0.000000	0.005541	0.000000	-0.008796	-0.000863	0.000000	0.000000
63.730426	12.793278	24.145584	-0.111310	0.084490	2.167677	0.000000	-0.000218	0.000000	-0.009053	-0.000840	0.000000	0.000000
64.171386	13.053527	23.805145	-0.481546	0.684715	2.181720	0.000000	0.062120	0.000000	-0.009476	-0.001079	0.000000	0.000000
64.612346	13.648624	22.947195	-0.873765	1.253791	2.223483	0.000000	0.125176	0.000000	-0.010006	-0.001330	0.000000	0.000000
65.053306	14.605731	21.610773	-1.305875	1.765832	2.293448	0.000000	0.189672	0.000000	-0.010650	-0.001596	0.000000	0.000000
65.494266	15.968530	19.856681	-1.797605	2.197548	2.392417	0.000000	0.256345	0.000000	-0.011416	-0.001880	0.000000	0.000000
65.940226	17.822620	17.739755	-2.375825	2.529829	2.523140	0.000000	0.326322	0.000000	-0.012322	-0.002188	0.000000	0.000000
66.489286	20.196854	15.371572	-1.924612	1.809571	2.682577	0.000000	0.249871	0.000000	-0.013411	-0.001771	0.000000	0.000000
67.038346	21.997781	13.719239	-1.337567	1.218165	2.798525	0.000000	0.168962	0.000000	-0.014261	-0.001323	0.000000	0.000000
67.587406	23.098341	12.665081	-0.656130	0.713496	2.868917	0.000000	0.085035	0.000000	-0.014859	-0.000851	0.000000	0.000000
68.136466	23.420898	12.134025	0.071604	0.259630	2.892499	0.000000	-0.000413	0.000000	-0.015193	-0.000365	0.000000	0.000000
68.435038	23.422797	11.965775	-0.009819	0.268518	2.895019	0.000000	0.008068	0.000000	-0.015315	-0.000407	0.000000	0.000000
68.768372	23.434087	11.796718	-0.024052	0.238653	2.897844	0.000000	0.008068	0.000000	-0.015450	-0.000407	0.000000	0.000000
69.101705	23.454866	11.647572	-0.038284	0.208787	2.900669	0.000000	0.008068	0.000000	-0.015586	-0.000407	0.000000	0.000000
69.436288	23.485264	11.517889	-0.052570	0.178809	2.903505	0.000000	0.008068	0.000000	-0.015722	-0.000407	0.000000	0.000000
69.733611	23.520473	11.419397	-0.134531	0.185730	2.906035	0.000000	0.016626	0.000000	-0.015843	-0.000451	0.000000	0.000000
70.282671	23.264261	11.443788	0.598383	-0.230425	2.891629	0.000000	-0.069407	0.000000	-0.015949	0.000064	0.000000	0.000000
