#ParticleID	Turn	x[m]	xp	y[m]	yp	z[m]	dE[GeV]# s	beta_x	beta_y	alpha_x	alpha_y	D_x	D_y	D_px	D_py	orbit_x	orbit_px	orbit_y	orbit_py
0.300000	11.841873	24.960181	-0.014304	-0.027404	2.617352	0.000000	-0.000020	0.000000	-0.000039	0.000034	0.000000	0.000000
0.601250	11.858156	24.980331	-0.039748	-0.039482	2.617336	0.000000	-0.000020	0.000000	-0.000028	0.000034	0.000000	0.000000
0.898573	11.889259	25.007353	-0.035700	-0.112727	2.617319	0.000000	-0.006440	0.000000	-0.000018	0.000034	0.000000	0.000000
1.339533	12.073222	24.829404	-0.383059	0.514739	2.630754	0.000000	0.067496	0.000000	-0.000003	0.000034	0.000000	0.000000
1.780493	12.570059	24.106334	-0.747919	1.118786	2.676930	0.000000	0.142201	0.000000	0.000012	0.000034	0.000000	0.000000
2.221453	13.402468	22.871039	-1.146950	1.671928	2.756373	0.000000	0.218525	0.000000	0.000027	0.000034	0.000000	0.000000
2.662413	14.608481	21.179726	-1.598382	2.148999	2.869987	0.000000	0.297338	0.000000	0.000042	0.000035	0.000000	0.000000
3.108373	16.264036	19.084543	-2.127146	2.529424	3.020928	0.000000	0.380026	0.000000	0.000058	0.000037	0.000000	0.000000
3.657433	18.386921	16.731447	-1.716344	1.781550	3.204304	0.000000	0.287024	0.000000	0.000078	0.000034	0.000000	0.000000
4.206493	19.989048	15.125522	-1.184306	1.160573	3.335144	0.000000	0.188931	0.000000	0.000096	0.000032	0.000000	0.000000
4.755553	20.957249	14.152382	-0.568615	0.622260	3.411125	0.000000	0.087487	0.000000	0.000112	0.000028	0.000000	0.000000
5.304613	21.223134	13.742713	0.087242	0.128270	3.430901	0.000000	-0.015508	0.000000	0.000127	0.000024	0.000000	0.000000
5.603185	21.208321	13.651362	0.017766	0.141823	3.428937	0.000000	-0.006553	0.000000	0.000134	0.000025	0.000000	0.000000
5.936519	21.201717	13.565116	0.002044	0.116915	3.426745	0.000000	-0.006553	0.000000	0.000143	0.000025	0.000000	0.000000
6.269852	21.205595	13.495476	-0.013678	0.092006	3.424552	0.000000	-0.006553	0.000000	0.000151	0.000025	0.000000	0.000000
6.604435	21.220028	13.442274	-0.029459	0.067004	3.422351	0.000000	-0.006553	0.000000	0.000159	0.000025	0.000000	0.000000
6.901758	21.241715	13.409037	-0.098906	0.079777	3.420396	0.000000	0.002372	0.000000	0.000166	0.000025	0.000000	0.000000
7.450818	20.988191	13.581929	0.557925	-0.396523	3.393496	0.000000	-0.100168	0.000000	0.000179	0.000020	0.000000	0.000000
7.999878	20.030857	14.290204	1.175347	-0.901066	3.310705	0.000000	-0.200930	0.000000	0.000188	0.000014	0.000000	0.000000
8.548938	18.437332	15.584312	1.709748	-1.469792	3.173491	0.000000	-0.298128	0.000000	0.000194	0.000007	0.000000	0.000000
9.097998	16.320177	17.556430	2.123380	-2.143207	2.984288	0.000000	-0.390038	0.000000	0.000196	0.000001	0.000000	0.000000
9.543958	14.668235	19.313753	1.594021	-1.780671	2.828645	0.000000	-0.308360	0.000000	0.000198	0.000006	0.000000	0.000000
9.984918	13.466407	20.694374	1.141796	-1.338348	2.709906	0.000000	-0.230679	0.000000	0.000202	0.000011	0.000000	0.000000
10.425878	12.638983	21.656455	0.741737	-0.835132	2.624809	0.000000	-0.155625	0.000000	0.000208	0.000017	0.000000	0.000000
10.866838	12.148160	22.156224	0.375566	-0.293917	2.572383	0.000000	-0.082344	0.000000	0.000216	0.000022	0.000000	0.000000
11.309048	11.971375	22.170424	0.055743	0.206351	2.552011	0.000000	-0.016246	0.000000	0.000227	0.000027	0.000000	0.000000
11.606371	11.945635	22.051875	0.030830	0.192369	2.547172	0.000000	-0.016246	0.000000	0.000235	0.000027	0.000000	0.000000
12.086371	11.935344	21.878036	-0.009390	0.169797	2.539361	0.000000	-0.016246	0.000000	0.000249	0.000027	0.000000	0.000000
12.566371	11.963665	21.725866	-0.049610	0.147224	2.531549	0.000000	-0.016246	0.000000	0.000262	0.000027	0.000000	0.000000
13.046371	12.030596	21.595365	-0.089831	0.124652	2.523738	0.000000	-0.016246	0.000000	0.000275	0.000027	0.000000	0.000000
13.526371	12.136139	21.486534	-0.130051	0.102080	2.515927	0.000000	-0.016246	0.000000	0.000288	0.000027	0.000000	0.000000
14.007621	12.280720	21.399174	-0.170376	0.079448	2.508095	0.000000	-0.016246	0.000000	0.000301	0.000027	0.000000	0.000000
14.304943	12.389440	21.356087	-0.164996	0.013256	2.503256	0.000000	-0.022367	0.000000	0.000309	0.000027	0.000000	0.000000
14.745903	12.693759	21.110633	-0.527736	0.541258	2.509006	0.000000	0.048530	0.000000	0.000323	0.000035	0.000000	0.000000
15.186863	13.327372	20.408644	-0.914588	1.044633	2.546108	0.000000	0.119980	0.000000	0.000340	0.000043	0.000000	0.000000
15.627823	14.319228	19.282060	-1.343226	1.500477	2.614983	0.000000	0.192796	0.000000	0.000361	0.000052	0.000000	0.000000
16.068783	15.714644	17.782139	-1.833233	1.888051	2.716417	0.000000	0.267807	0.000000	0.000386	0.000062	0.000000	0.000000
16.514743	17.601024	15.955629	-2.411764	2.190475	2.853258	0.000000	0.346331	0.000000	0.000416	0.000072	0.000000	0.000000
17.063803	20.023436	13.916066	-1.973982	1.546074	3.019661	0.000000	0.259036	0.000000	0.000452	0.000058	0.000000	0.000000
17.612863	21.885227	12.519873	-1.396763	1.011797	3.136807	0.000000	0.167146	0.000000	0.000480	0.000043	0.000000	0.000000
18.161923	23.054885	11.667603	-0.720880	0.549589	3.202619	0.000000	0.072293	0.000000	0.000499	0.000027	0.000000	0.000000
18.710983	23.449787	11.298550	0.005923	0.126528	3.215929	0.000000	-0.023843	0.000000	0.000509	0.000011	0.000000	0.000000
19.009556	23.486493	11.213524	-0.067856	0.128853	3.211305	0.000000	-0.015476	0.000000	0.000513	0.000012	0.000000	0.000000
19.342889	23.536483	11.137696	-0.082114	0.098633	3.206142	0.000000	-0.015476	0.000000	0.000517	0.000012	0.000000	0.000000
19.676223	23.595979	11.082013	-0.096372	0.068414	3.200980	0.000000	-0.015476	0.000000	0.000521	0.000012	0.000000	0.000000
20.010806	23.665549	11.046245	-0.227936	0.092811	3.195817	0.000000	0.000358	0.000000	0.000525	0.000015	0.000000	0.000000
20.308129	23.805020	10.999127	-0.303073	0.094276	3.195919	0.000000	0.008671	0.000000	0.000530	0.000016	0.000000	0.000000
20.857189	23.727275	11.118054	0.443835	-0.312153	3.174467	0.000000	-0.086684	0.000000	0.000534	-0.000001	0.000000	0.000000
21.406249	22.841754	11.692809	1.159393	-0.740817	3.101012	0.000000	-0.180502	0.000000	0.000529	-0.000018	0.000000	0.000000
21.955309	21.211008	12.764334	1.793055	-1.222249	2.976860	0.000000	-0.271118	0.000000	0.000514	-0.000035	0.000000	0.000000
22.504369	18.950228	14.408949	2.300061	-1.790740	2.804210	0.000000	-0.356926	0.000000	0.000490	-0.000051	0.000000	0.000000
22.950329	17.168840	15.885374	1.708501	-1.505943	2.662343	0.000000	-0.279739	0.000000	0.000470	-0.000039	0.000000	0.000000
23.391289	15.891268	17.062565	1.199709	-1.153491	2.555320	0.000000	-0.206193	0.000000	0.000456	-0.000027	0.000000	0.000000
23.832249	15.036640	17.904501	0.745729	-0.748555	2.480174	0.000000	-0.134996	0.000000	0.000446	-0.000015	0.000000	0.000000
24.273209	14.565911	18.372873	0.325820	-0.309561	2.436050	0.000000	-0.065337	0.000000	0.000442	-0.000004	0.000000	0.000000
24.715418	14.457683	18.446125	-0.043984	0.098402	2.422443	0.000000	-0.002337	0.000000	0.000443	0.000006	0.000000	0.000000
25.012741	14.489964	18.392450	-0.064588	0.082127	2.421747	0.000000	-0.002337	0.000000	0.000445	0.000006	0.000000	0.000000
25.346075	14.540723	18.343780	-0.087689	0.063881	2.420966	0.000000	-0.002337	0.000000	0.000447	0.000006	0.000000	0.000000
25.679408	14.606883	18.307274	-0.110789	0.045636	2.420185	0.000000	-0.002337	0.000000	0.000449	0.000006	0.000000	0.000000
26.013991	14.688479	18.283235	-0.014814	-0.121001	2.419376	0.000000	-0.021964	0.000000	0.000451	0.000003	0.000000	0.000000
26.311314	14.703308	18.360093	0.000842	-0.182332	2.412845	0.000000	-0.027856	0.000000	0.000452	0.000002	0.000000	0.000000
26.752274	14.883777	18.321731	-0.411653	0.268998	2.415665	0.000000	0.040673	0.000000	0.000455	0.000013	0.000000	0.000000
27.193234	15.434926	17.889226	-0.842957	0.708089	2.448772	0.000000	0.109665	0.000000	0.000464	0.000025	0.000000	0.000000
27.634194	16.381937	17.082257	-1.312774	1.114962	2.512543	0.000000	0.179906	0.000000	0.000478	0.000037	0.000000	0.000000
28.075154	17.768077	15.937542	-1.842569	1.471104	2.607705	0.000000	0.252196	0.000000	0.000497	0.000050	0.000000	0.000000
28.521114	19.680773	14.489921	-2.461509	1.761235	2.736944	0.000000	0.327803	0.000000	0.000522	0.000063	0.000000	0.000000
29.070174	22.111867	12.876842	-1.939952	1.193976	2.894241	0.000000	0.244423	0.000000	0.000552	0.000046	0.000000	0.000000
29.619234	23.891122	11.836609	-1.281362	0.711763	3.004507	0.000000	0.156709	0.000000	0.000572	0.000028	0.000000	0.000000
30.168294	24.892855	11.295128	-0.532260	0.280247	3.065788	0.000000	0.066215	0.000000	0.000582	0.000009	0.000000	0.000000
30.717354	25.046305	11.213829	0.254439	-0.131306	3.076995	0.000000	-0.025453	0.000000	0.000582	-0.000010	0.000000	0.000000
31.015927	24.936941	11.282859	0.176969	-0.129051	3.071786	0.000000	-0.017453	0.000000	0.000579	-0.000009	0.000000	0.000000
31.349260	24.823557	11.378905	0.163183	-0.159087	3.065972	0.000000	-0.017453	0.000000	0.000576	-0.000009	0.000000	0.000000
31.682593	24.719363	11.494975	0.149398	-0.189122	3.060157	0.000000	-0.017453	0.000000	0.000574	-0.000009	0.000000	0.000000
32.017177	24.624021	11.631616	0.135560	-0.219270	3.054321	0.000000	-0.017453	0.000000	0.000571	-0.000009	0.000000	0.000000
32.314499	24.547067	11.769970	0.059433	-0.215456	3.049134	0.000000	-0.009524	0.000000	0.000568	-0.000007	0.000000	0.000000
32.863559	24.061338	12.245919	0.819968	-0.656498	3.019035	0.000000	-0.099983	0.000000	0.000559	-0.000025	0.000000	0.000000
33.412619	22.767454	13.228872	1.522583	-1.144302	2.939692	0.000000	-0.188669	0.000000	0.000540	-0.000043	0.000000	0.000000
33.961679	20.756814	14.788843	2.117647	-1.713614	2.812512	0.000000	-0.274009	0.000000	0.000512	-0.000060	0.000000	0.000000
34.510739	18.171444	17.036946	2.563127	-2.404984	2.639751	0.000000	-0.354490	0.000000	0.000475	-0.000076	0.000000	0.000000
34.956699	16.161475	19.047720	1.960027	-2.085033	2.498032	0.000000	-0.281567	0.000000	0.000443	-0.000064	0.000000	0.000000
35.397659	14.662801	20.710305	1.451484	-1.670972	2.389276	0.000000	-0.212281	0.000000	0.000417	-0.000053	0.000000	0.000000
35.838619	13.581799	21.972670	1.009256	-1.180882	2.310507	0.000000	-0.145411	0.000000	0.000396	-0.000043	0.000000	0.000000
36.279579	12.869081	22.777378	0.613140	-0.637063	2.260828	0.000000	-0.080197	0.000000	0.000380	-0.000033	0.000000	0.000000
36.721789	12.491395	23.088117	0.275457	-0.120727	2.239647	0.000000	-0.021369	0.000000	0.000367	-0.000024	0.000000	0.000000
37.019112	12.335209	23.163791	0.249849	-0.133792	2.233300	0.000000	-0.021369	0.000000	0.000360	-0.000024	0.000000	0.000000
37.352445	12.178213	23.257869	0.221139	-0.148440	2.226185	0.000000	-0.021369	0.000000	0.000352	-0.000024	0.000000	0.000000
37.685779	12.040358	23.361711	0.192429	-0.163088	2.219070	0.000000	-0.021369	0.000000	0.000344	-0.000024	0.000000	0.000000
38.020362	11.921232	23.475763	0.163612	-0.177791	2.211928	0.000000	-0.021369	0.000000	0.000336	-0.000024	0.000000	0.000000
38.317684	11.831555	23.585370	0.166927	-0.248522	2.205582	0.000000	-0.026761	0.000000	0.000329	-0.000025	0.000000	0.000000
38.758644	11.835312	23.543322	-0.175487	0.343516	2.207717	0.000000	0.036416	0.000000	0.000320	-0.000016	0.000000	0.000000
39.199604	12.143434	22.984064	-0.525918	0.919925	2.237772	0.000000	0.100007	0.000000	0.000315	-0.000008	0.000000	0.000000
39.640564	12.769998	21.933044	-0.900377	1.454477	2.296090	0.000000	0.164738	0.000000	0.000313	-0.000000	0.000000	0.000000
40.081524	13.743632	20.438081	-1.315973	1.922852	2.383334	0.000000	0.231345	0.000000	0.000315	0.000008	0.000000	0.000000
40.527484	15.126371	18.544622	-1.795519	2.305023	2.501971	0.000000	0.300994	0.000000	0.000320	0.000016	0.000000	0.000000
41.076544	16.891362	16.416923	-1.399999	1.592999	2.646698	0.000000	0.225432	0.000000	0.000326	0.000006	0.000000	0.000000
41.625604	18.164812	15.004592	-0.905589	0.994442	2.748783	0.000000	0.145871	0.000000	0.000326	-0.000005	0.000000	0.000000
42.174664	18.856771	14.207031	-0.347211	0.466718	2.806413	0.000000	0.063723	0.000000	0.000321	-0.000015	0.000000	0.000000
42.723724	18.918361	13.967432	0.235691	-0.027763	2.818567	0.000000	-0.019555	0.000000	0.000310	-0.000026	0.000000	0.000000
43.022297	18.811935	13.968654	0.170059	-0.012736	2.814929	0.000000	-0.012210	0.000000	0.000302	-0.000025	0.000000	0.000000
43.502297	18.661280	13.997377	0.143806	-0.047104	2.809080	0.000000	-0.012210	0.000000	0.000290	-0.000025	0.000000	0.000000
43.982297	18.535829	14.059094	0.117552	-0.081472	2.803231	0.000000	-0.012210	0.000000	0.000278	-0.000025	0.000000	0.000000
44.462297	18.435581	14.153805	0.091298	-0.115841	2.797382	0.000000	-0.012210	0.000000	0.000267	-0.000025	0.000000	0.000000
44.942297	18.360536	14.281508	0.065045	-0.150209	2.791534	0.000000	-0.012210	0.000000	0.000255	-0.000025	0.000000	0.000000
45.423547	18.310825	14.442488	-0.051999	-0.113110	2.785687	0.000000	0.001592	0.000000	0.000243	-0.000024	0.000000	0.000000
45.720870	18.346587	14.515947	-0.116122	-0.096112	2.786167	0.000000	0.008857	0.000000	0.000236	-0.000023	0.000000	0.000000
46.269930	18.165164	14.902309	0.444576	-0.611718	2.768469	0.000000	-0.073281	0.000000	0.000221	-0.000030	0.000000	0.000000
46.818990	17.381702	15.875330	0.973871	-1.170896	2.705966	0.000000	-0.154120	0.000000	0.000203	-0.000037	0.000000	0.000000
47.368050	16.051542	17.504317	1.434375	-1.813474	2.599767	0.000000	-0.232227	0.000000	0.000181	-0.000043	0.000000	0.000000
47.917110	14.268643	19.905298	1.793561	-2.585222	2.451755	0.000000	-0.306214	0.000000	0.000155	-0.000049	0.000000	0.000000
48.363070	12.880969	22.040067	1.329094	-2.181554	2.330510	0.000000	-0.237904	0.000000	0.000134	-0.000045	0.000000	0.000000
48.804030	11.888943	23.749322	0.929118	-1.679901	2.240085	0.000000	-0.172700	0.000000	0.000115	-0.000042	0.000000	0.000000
49.244990	11.229684	24.980635	0.571591	-1.101814	2.177950	0.000000	-0.109462	0.000000	0.000097	-0.000039	0.000000	0.000000
49.685950	10.873073	25.677981	0.240179	-0.473595	2.143398	0.000000	-0.047471	0.000000	0.000081	-0.000037	0.000000	0.000000
50.128160	10.802951	25.809352	-0.053900	0.112882	2.136047	0.000000	0.008745	0.000000	0.000065	-0.000035	0.000000	0.000000
50.425482	10.843209	25.745696	-0.081502	0.101215	2.138658	0.000000	0.008745	0.000000	0.000054	-0.000035	0.000000	0.000000
50.758816	10.907859	25.682579	-0.112447	0.088136	2.141585	0.000000	0.008745	0.000000	0.000043	-0.000035	0.000000	0.000000
51.092149	10.993139	25.628182	-0.143393	0.075056	2.144511	0.000000	0.008745	0.000000	0.000031	-0.000035	0.000000	0.000000
51.426732	11.099260	25.582868	-0.084410	-0.145614	2.147427	0.000000	-0.008676	0.000000	0.000019	-0.000035	0.000000	0.000000
51.724055	11.157475	25.672986	-0.084029	-0.220448	2.144858	0.000000	-0.013936	0.000000	0.000009	-0.000035	0.000000	0.000000
52.165015	11.377195	25.581812	-0.416150	0.426422	2.152320	0.000000	0.047744	0.000000	-0.000007	-0.000035	0.000000	0.000000
52.605975	11.897065	24.926561	-0.767283	1.053890	2.187074	0.000000	0.109967	0.000000	-0.000022	-0.000036	0.000000	0.000000
53.046935	12.740833	23.737044	-1.153471	1.633406	2.249516	0.000000	0.173444	0.000000	-0.000038	-0.000036	0.000000	0.000000
53.487895	13.947051	22.067386	-1.592358	2.138604	2.340358	0.000000	0.238896	0.000000	-0.000055	-0.000038	0.000000	0.000000
53.933855	15.591492	19.968588	-2.108237	2.547830	2.462140	0.000000	0.307468	0.000000	-0.000072	-0.000039	0.000000	0.000000
54.482915	17.708563	17.607003	-1.724771	1.778707	2.610790	0.000000	0.233134	0.000000	-0.000093	-0.000037	0.000000	0.000000
55.031975	19.334745	16.015895	-1.219476	1.136278	2.717428	0.000000	0.154665	0.000000	-0.000112	-0.000033	0.000000	0.000000
55.581035	20.355175	15.081935	-0.628045	0.574783	2.780162	0.000000	0.073451	0.000000	-0.000129	-0.000029	0.000000	0.000000
56.130095	20.697774	14.738597	0.007747	0.054229	2.797878	0.000000	-0.009065	0.000000	-0.000144	-0.000025	0.000000	0.000000
56.428668	20.729797	14.689288	-0.060854	0.072357	2.797364	0.000000	-0.001746	0.000000	-0.000152	-0.000025	0.000000	0.000000
56.762001	20.775746	14.648654	-0.076994	0.049546	2.796790	0.000000	-0.001746	0.000000	-0.000160	-0.000025	0.000000	0.000000
57.095334	20.832455	14.623226	-0.093133	0.026735	2.796217	0.000000	-0.001746	0.000000	-0.000168	-0.000025	0.000000	0.000000
57.429918	20.900197	14.612997	-0.109333	0.003839	2.795641	0.000000	-0.001746	0.000000	-0.000177	-0.000025	0.000000	0.000000
57.727240	20.969492	14.616764	-0.178603	0.021736	2.795129	0.000000	0.005568	0.000000	-0.000184	-0.000026	0.000000	0.000000
58.276300	20.807750	14.873647	0.471425	-0.492359	2.775549	0.000000	-0.076829	0.000000	-0.000197	-0.000020	0.000000	0.000000
58.825360	19.946346	15.710896	1.088154	-1.041523	2.711032	0.000000	-0.157864	0.000000	-0.000206	-0.000013	0.000000	0.000000
59.374420	18.446123	17.188145	1.628022	-1.664873	2.602723	0.000000	-0.236099	0.000000	-0.000211	-0.000006	0.000000	0.000000
59.923480	16.413050	19.410617	2.052895	-2.406807	2.452543	0.000000	-0.310147	0.000000	-0.000213	0.000001	0.000000	0.000000
60.369440	14.821576	21.386047	1.528398	-2.004120	2.329527	0.000000	-0.241840	0.000000	-0.000214	-0.000005	0.000000	0.000000
60.810400	13.676629	22.942261	1.077944	-1.511612	2.237342	0.000000	-0.176685	0.000000	-0.000217	-0.000011	0.000000	0.000000
61.251360	12.905809	24.032022	0.676738	-0.950328	2.173419	0.000000	-0.113542	0.000000	-0.000223	-0.000016	0.000000	0.000000
61.692320	12.473899	24.605746	0.306449	-0.345805	2.137032	0.000000	-0.051692	0.000000	-0.000232	-0.000022	0.000000	0.000000
62.134530	12.361217	24.636796	-0.019556	0.213851	2.127770	0.000000	0.004340	0.000000	-0.000243	-0.000028	0.000000	0.000000
62.431853	12.380000	24.513383	-0.043618	0.201231	2.129068	0.000000	0.004340	0.000000	-0.000251	-0.000028	0.000000	0.000000
62.765186	12.418071	24.383945	-0.070595	0.187083	2.130524	0.000000	0.004340	0.000000	-0.000260	-0.000028	0.000000	0.000000
63.098520	12.474126	24.263939	-0.097571	0.172934	2.131980	0.000000	0.004340	0.000000	-0.000269	-0.000028	0.000000	0.000000
63.433103	12.548477	24.152969	-0.124649	0.158732	2.133441	0.000000	0.004340	0.000000	-0.000279	-0.000028	0.000000	0.000000
63.730426	12.629753	24.062332	-0.117655	0.086935	2.134740	0.000000	-0.000909	0.000000	-0.000287	-0.000027	0.000000	0.000000
64.171386	12.894219	23.720654	-0.484384	0.684970	2.147897	0.000000	0.060582	0.000000	-0.000300	-0.000034	0.000000	0.000000
64.612346	13.490607	22.863340	-0.873243	1.251839	2.188300	0.000000	0.122764	0.000000	-0.000317	-0.000042	0.000000	0.000000
65.053306	14.446164	21.529397	-1.301998	1.761751	2.256407	0.000000	0.186345	0.000000	-0.000338	-0.000051	0.000000	0.000000
65.494266	15.804544	19.779519	-1.790235	2.191506	2.352995	0.000000	0.252049	0.000000	-0.000362	-0.000060	0.000000	0.000000
65.940226	17.650985	17.668552	-2.364949	2.522298	2.480737	0.000000	0.321024	0.000000	-0.000391	-0.000070	0.000000	0.000000
66.489286	20.017528	15.306976	-1.919768	1.804242	2.636656	0.000000	0.245971	0.000000	-0.000426	-0.000056	0.000000	0.000000
67.038346	21.817407	13.659135	-1.338988	1.214697	2.750099	0.000000	0.166554	0.000000	-0.000453	-0.000042	0.000000	0.000000
67.587406	22.923493	12.607657	-0.663631	0.711671	2.819053	0.000000	0.084182	0.000000	-0.000472	-0.000027	0.000000	0.000000
68.136466	23.257660	12.077649	0.058600	0.259335	2.842294	0.000000	0.000316	0.000000	-0.000483	-0.000012	0.000000	0.000000
68.435038	23.262935	11.911873	-0.015252	0.264206	2.844619	0.000000	0.007773	0.000000	-0.000487	-0.000013	0.000000	0.000000
68.768372	23.277880	11.745715	-0.029584	0.234269	2.847214	0.000000	0.007773	0.000000	-0.000491	-0.000013	0.000000	0.000000
69.101705	23.302380	11.599514	-0.043916	0.204333	2.849809	0.000000	0.007773	0.000000	-0.000495	-0.000013	0.000000	0.000000
69.436288	23.336581	11.472835	-0.058302	0.174284	2.852414	0.000000	0.007773	0.000000	-0.000500	-0.000013	0.000000	0.000000
69.733611	23.375051	11.377137	-0.132418	0.177431	2.854729	0.000000	0.015263	0.000000	-0.000504	-0.000014	0.000000	0.000000
70.282671	23.119022	11.410074	0.595962	-0.237773	2.839919	0.000000	-0.069142	0.000000	-0.000507	0.000002	0.000000	0.000000
