#ParticleID	Turn	x[m]	xp	y[m]	yp	z[m]	dE[GeV]# s	beta_x	beta_y	alpha_x	alpha_y	D_x	D_y	D_px	D_py	orbit_x	orbit_px	orbit_y	orbit_py
0.300000	11.956228	25.246165	-0.016021	-0.023868	2.599850	0.000000	-0.000875	0.000000	-0.001169	0.000994	0.000000	0.000000
0.601250	11.973473	25.264142	-0.041224	-0.035808	2.599287	0.000000	-0.000875	0.000000	-0.000869	0.000994	0.000000	0.000000
0.898573	12.005383	25.288939	-0.036498	-0.109583	2.598732	0.000000	-0.007282	0.000000	-0.000573	0.000996	0.000000	0.000000
1.339533	12.191367	25.104945	-0.386533	0.525254	2.611281	0.000000	0.066163	0.000000	-0.000137	0.000987	0.000000	0.000000
1.780493	12.692653	24.369512	-0.754235	1.136197	2.656352	0.000000	0.140351	0.000000	0.000298	0.000989	0.000000	0.000000
2.221453	13.532155	23.116091	-1.156404	1.695446	2.734453	0.000000	0.216127	0.000000	0.000737	0.001002	0.000000	0.000000
2.662413	14.748239	21.401704	-1.611417	2.177556	2.846469	0.000000	0.294354	0.000000	0.001184	0.001027	0.000000	0.000000
3.108373	16.417495	19.279217	-2.144431	2.561767	2.995512	0.000000	0.376414	0.000000	0.001650	0.001064	0.000000	0.000000
3.657433	18.557141	16.895000	-1.728795	1.806105	3.176618	0.000000	0.284264	0.000000	0.002217	0.001001	0.000000	0.000000
4.206493	20.170193	15.265507	-1.191015	1.179092	3.305709	0.000000	0.187088	0.000000	0.002745	0.000921	0.000000	0.000000
4.755553	21.142673	14.274684	-0.569078	0.636065	3.380503	0.000000	0.086608	0.000000	0.003225	0.000824	0.000000	0.000000
5.304613	21.405854	13.851962	0.093078	0.138344	3.399680	0.000000	-0.015396	0.000000	0.003647	0.000712	0.000000	0.000000
5.603185	21.386804	13.755124	0.024904	0.151076	3.397438	0.000000	-0.006787	0.000000	0.003863	0.000722	0.000000	0.000000
5.936519	21.375400	13.662669	0.009308	0.126289	3.394935	0.000000	-0.006787	0.000000	0.004104	0.000722	0.000000	0.000000
6.269852	21.374393	13.586738	-0.006288	0.101503	3.392432	0.000000	-0.006787	0.000000	0.004344	0.000722	0.000000	0.000000
6.604435	21.383838	13.527140	-0.021942	0.076623	3.389920	0.000000	-0.006787	0.000000	0.004586	0.000722	0.000000	0.000000
6.901758	21.401037	13.488141	-0.089489	0.088464	3.387688	0.000000	0.001703	0.000000	0.004800	0.000734	0.000000	0.000000
7.450818	21.134492	13.652719	0.572434	-0.389957	3.360378	0.000000	-0.099784	0.000000	0.005160	0.000573	0.000000	0.000000
7.999878	20.158962	14.354783	1.193928	-0.896159	3.277835	0.000000	-0.199492	0.000000	0.005427	0.000401	0.000000	0.000000
8.548938	18.543362	15.644351	1.731077	-1.466205	3.141527	0.000000	-0.295655	0.000000	0.005599	0.000223	0.000000	0.000000
9.097998	16.401839	17.613296	2.145926	-2.140703	2.953876	0.000000	-0.386569	0.000000	0.005671	0.000040	0.000000	0.000000
9.543958	14.731387	19.367482	1.612898	-1.775859	2.799556	0.000000	-0.305630	0.000000	0.005722	0.000188	0.000000	0.000000
9.984918	13.514081	20.743086	1.158034	-1.331578	2.681744	0.000000	-0.228675	0.000000	0.005837	0.000337	0.000000	0.000000
10.425878	12.673217	21.698518	0.756088	-0.826701	2.597197	0.000000	-0.154329	0.000000	0.006019	0.000490	0.000000	0.000000
10.866838	12.170368	22.190296	0.388690	-0.284201	2.544951	0.000000	-0.081746	0.000000	0.006270	0.000648	0.000000	0.000000
11.309048	11.982406	22.195458	0.066470	0.219941	2.524389	0.000000	-0.015899	0.000000	0.006593	0.000798	0.000000	0.000000
11.606371	11.950291	22.068847	0.041547	0.205897	2.519424	0.000000	-0.015899	0.000000	0.006830	0.000798	0.000000	0.000000
12.086371	11.929719	21.882068	0.001311	0.183225	2.511410	0.000000	-0.015899	0.000000	0.007213	0.000798	0.000000	0.000000
12.566371	11.947774	21.717055	-0.038925	0.160552	2.503395	0.000000	-0.015899	0.000000	0.007597	0.000798	0.000000	0.000000
13.046371	12.004455	21.573808	-0.079161	0.137880	2.495381	0.000000	-0.015899	0.000000	0.007980	0.000798	0.000000	0.000000
13.526371	12.099762	21.452325	-0.119396	0.115208	2.487366	0.000000	-0.015899	0.000000	0.008363	0.000798	0.000000	0.000000
14.007621	12.234095	21.352377	-0.159737	0.092477	2.479331	0.000000	-0.015899	0.000000	0.008747	0.000798	0.000000	0.000000
14.304943	12.336463	21.301612	-0.157040	0.030969	2.474363	0.000000	-0.021439	0.000000	0.008984	0.000777	0.000000	0.000000
14.745903	12.633348	21.041243	-0.518377	0.557165	2.479995	0.000000	0.048729	0.000000	0.009379	0.001014	0.000000	0.000000
15.186863	13.258203	20.326197	-0.903415	1.058006	2.516560	0.000000	0.119440	0.000000	0.009880	0.001262	0.000000	0.000000
15.627823	14.239605	19.189006	-1.329757	1.510700	2.584470	0.000000	0.191499	0.000000	0.010494	0.001525	0.000000	0.000000
16.068783	15.622436	17.681414	-1.816892	1.894641	2.684493	0.000000	0.265724	0.000000	0.011228	0.001805	0.000000	0.000000
16.514743	17.493592	15.850320	-2.392068	2.193342	2.819450	0.000000	0.343452	0.000000	0.012100	0.002107	0.000000	0.000000
17.063803	19.896484	13.806368	-1.956561	1.550595	2.983630	0.000000	0.257251	0.000000	0.013146	0.001698	0.000000	0.000000
17.612863	21.741734	12.403881	-1.382739	1.018328	3.099381	0.000000	0.166513	0.000000	0.013959	0.001259	0.000000	0.000000
18.161923	22.898861	11.542951	-0.711161	0.558618	3.164660	0.000000	0.072841	0.000000	0.014525	0.000798	0.000000	0.000000
18.710983	23.286035	11.162243	0.010699	0.138710	3.178316	0.000000	-0.022111	0.000000	0.014833	0.000322	0.000000	0.000000
19.009556	23.314971	11.072552	-0.055132	0.136587	3.173756	0.000000	-0.014880	0.000000	0.014940	0.000358	0.000000	0.000000
19.342889	23.356505	10.991716	-0.069472	0.105921	3.168677	0.000000	-0.014880	0.000000	0.015059	0.000358	0.000000	0.000000
19.676223	23.407600	10.931324	-0.083812	0.075255	3.163598	0.000000	-0.014880	0.000000	0.015179	0.000358	0.000000	0.000000
20.010806	23.468791	10.891130	-0.214484	0.098435	3.158519	0.000000	0.000770	0.000000	0.015298	0.000434	0.000000	0.000000
20.308129	23.600438	10.840716	-0.281096	0.095460	3.158630	0.000000	0.007911	0.000000	0.015427	0.000472	0.000000	0.000000
20.857189	23.502296	10.955991	0.458894	-0.306603	3.136964	0.000000	-0.086275	0.000000	0.015549	-0.000030	0.000000	0.000000
21.406249	22.604267	11.522214	1.166448	-0.730515	3.064182	0.000000	-0.178931	0.000000	0.015394	-0.000532	0.000000	0.000000
21.955309	20.969852	12.579726	1.791544	-1.206480	2.941573	0.000000	-0.268420	0.000000	0.014966	-0.001024	0.000000	0.000000
22.504369	18.714620	14.203872	2.289991	-1.768413	2.771308	0.000000	-0.353163	0.000000	0.014273	-0.001498	0.000000	0.000000
22.950329	16.939334	15.662837	1.703124	-1.488456	2.631454	0.000000	-0.276735	0.000000	0.013686	-0.001135	0.000000	0.000000
23.391289	15.663956	16.827361	1.199121	-1.141867	2.525962	0.000000	-0.203942	0.000000	0.013263	-0.000787	0.000000	0.000000
23.832249	14.807468	17.661980	0.749943	-0.743306	2.451890	0.000000	-0.133465	0.000000	0.012991	-0.000449	0.000000	0.000000
24.273209	14.330699	18.128712	0.335050	-0.310914	2.408395	0.000000	-0.064504	0.000000	0.012866	-0.000115	0.000000	0.000000
24.715418	14.212001	18.205985	-0.034150	0.096482	2.394987	0.000000	-0.001410	0.000000	0.012889	0.000187	0.000000	0.000000
25.012741	14.238536	18.153514	-0.055095	0.079999	2.394512	0.000000	-0.001410	0.000000	0.012944	0.000187	0.000000	0.000000
25.346075	14.283093	18.106341	-0.078577	0.061519	2.393979	0.000000	-0.001410	0.000000	0.013007	0.000187	0.000000	0.000000
25.679408	14.343305	18.071488	-0.102059	0.043040	2.393447	0.000000	-0.001410	0.000000	0.013069	0.000187	0.000000	0.000000
26.013991	14.419193	18.049259	-0.008651	-0.121933	2.392888	0.000000	-0.020823	0.000000	0.013131	0.000080	0.000000	0.000000
26.311314	14.430395	18.126829	0.001562	-0.177371	2.386667	0.000000	-0.025923	0.000000	0.013155	0.000050	0.000000	0.000000
26.752274	14.607492	18.086856	-0.404537	0.267658	2.390107	0.000000	0.041962	0.000000	0.013252	0.000391	0.000000	0.000000
27.193234	15.149643	17.658222	-0.829133	0.700506	2.423418	0.000000	0.110321	0.000000	0.013500	0.000736	0.000000	0.000000
27.634194	16.081644	16.860429	-1.291639	1.101471	2.486976	0.000000	0.179929	0.000000	0.013902	0.001089	0.000000	0.000000
28.075154	17.446124	15.729785	-1.813203	1.452302	2.581504	0.000000	0.251576	0.000000	0.014463	0.001455	0.000000	0.000000
28.521114	19.329540	14.300487	-2.422905	1.738234	2.709684	0.000000	0.326559	0.000000	0.015197	0.001839	0.000000	0.000000
29.070174	21.724848	12.708741	-1.911898	1.177268	2.865759	0.000000	0.244041	0.000000	0.016069	0.001333	0.000000	0.000000
29.619234	23.480742	11.683715	-1.265722	0.700191	2.975540	0.000000	0.157213	0.000000	0.016656	0.000802	0.000000	0.000000
30.168294	24.473049	11.152380	-0.530059	0.273007	3.037087	0.000000	0.067609	0.000000	0.016948	0.000258	0.000000	0.000000
30.717354	24.631590	11.076881	0.243078	-0.134722	3.049311	0.000000	-0.023191	0.000000	0.016939	-0.000291	0.000000	0.000000
31.015927	24.522706	11.150821	0.175718	-0.137306	3.044475	0.000000	-0.016406	0.000000	0.016864	-0.000250	0.000000	0.000000
31.349260	24.410231	11.252510	0.161705	-0.167763	3.039090	0.000000	-0.016406	0.000000	0.016781	-0.000250	0.000000	0.000000
31.682593	24.307099	11.374504	0.147693	-0.198219	3.033704	0.000000	-0.016406	0.000000	0.016697	-0.000250	0.000000	0.000000
32.017177	24.212974	11.517375	0.133627	-0.228790	3.028299	0.000000	-0.016406	0.000000	0.016613	-0.000250	0.000000	0.000000
32.314499	24.137423	11.661407	0.067184	-0.229931	3.023508	0.000000	-0.009648	0.000000	0.016539	-0.000210	0.000000	0.000000
32.863559	23.650267	12.152093	0.814283	-0.668818	2.993791	0.000000	-0.099327	0.000000	0.016277	-0.000742	0.000000	0.000000
33.412619	22.369253	13.148026	1.503808	-1.155363	2.915509	0.000000	-0.187255	0.000000	0.015727	-0.001260	0.000000	0.000000
33.961679	20.384979	14.720162	2.087012	-1.724234	2.790046	0.000000	-0.271880	0.000000	0.014897	-0.001757	0.000000	0.000000
34.510739	17.837770	16.980501	2.522667	-2.415962	2.619617	0.000000	-0.351710	0.000000	0.013803	-0.002222	0.000000	0.000000
34.956699	15.858820	19.002795	1.928621	-2.098745	2.479852	0.000000	-0.279225	0.000000	0.012890	-0.001875	0.000000	0.000000
35.397659	14.383700	20.678864	1.427969	-1.687060	2.372718	0.000000	-0.210367	0.000000	0.012135	-0.001553	0.000000	0.000000
35.838619	13.319934	21.956400	0.992605	-1.198593	2.295269	0.000000	-0.143888	0.000000	0.011517	-0.001248	0.000000	0.000000
36.279579	12.618869	22.777271	0.602623	-0.655577	2.246627	0.000000	-0.079036	0.000000	0.011032	-0.000957	0.000000	0.000000
36.721789	12.247813	23.104385	0.267005	-0.133345	2.226222	0.000000	-0.019967	0.000000	0.010671	-0.000702	0.000000	0.000000
37.019112	12.096772	23.187572	0.240998	-0.146442	2.220494	0.000000	-0.019967	0.000000	0.010462	-0.000702	0.000000	0.000000
37.352445	11.945825	23.290094	0.211842	-0.161126	2.214072	0.000000	-0.019967	0.000000	0.010228	-0.000702	0.000000	0.000000
37.685779	11.814316	23.402407	0.182686	-0.175810	2.207651	0.000000	-0.019967	0.000000	0.009994	-0.000702	0.000000	0.000000
38.020362	11.701860	23.524984	0.153421	-0.190549	2.201205	0.000000	-0.019967	0.000000	0.009759	-0.000702	0.000000	0.000000
38.317684	11.618330	23.642251	0.153272	-0.256498	2.195474	0.000000	-0.024853	0.000000	0.009550	-0.000725	0.000000	0.000000
38.758644	11.631977	23.606509	-0.184534	0.337233	2.198648	0.000000	0.038091	0.000000	0.009284	-0.000482	0.000000	0.000000
39.199604	11.946192	23.051869	-0.530770	0.915615	2.229549	0.000000	0.101475	0.000000	0.009124	-0.000244	0.000000	0.000000
39.640564	12.575336	22.003577	-0.901263	1.452325	2.288531	0.000000	0.166017	0.000000	0.009068	-0.000010	0.000000	0.000000
40.081524	13.548166	20.509340	-1.312948	1.922938	2.376268	0.000000	0.232451	0.000000	0.009115	0.000224	0.000000	0.000000
40.527484	14.926752	18.614432	-1.788620	2.307562	2.495242	0.000000	0.301964	0.000000	0.009269	0.000463	0.000000	0.000000
41.076544	16.688639	16.484733	-1.400725	1.593627	2.640414	0.000000	0.226591	0.000000	0.009440	0.000160	0.000000	0.000000
41.625604	17.967223	15.072539	-0.913848	0.993232	2.743193	0.000000	0.147200	0.000000	0.009444	-0.000146	0.000000	0.000000
42.174664	18.672142	14.277237	-0.362399	0.463603	2.801753	0.000000	0.065196	0.000000	0.009280	-0.000449	0.000000	0.000000
42.723724	18.753581	14.042164	0.214651	-0.032994	2.815054	0.000000	-0.017972	0.000000	0.008952	-0.000745	0.000000	0.000000
43.022297	18.657260	14.047930	0.153040	-0.020232	2.811928	0.000000	-0.011183	0.000000	0.008736	-0.000722	0.000000	0.000000
43.502297	18.522980	14.083760	0.126710	-0.054415	2.806907	0.000000	-0.011183	0.000000	0.008389	-0.000722	0.000000	0.000000
43.982297	18.413976	14.152406	0.100380	-0.088597	2.801886	0.000000	-0.011183	0.000000	0.008042	-0.000722	0.000000	0.000000
44.462297	18.330250	14.253868	0.074050	-0.122780	2.796865	0.000000	-0.011183	0.000000	0.007696	-0.000722	0.000000	0.000000
44.942297	18.271799	14.388144	0.047721	-0.156963	2.791844	0.000000	-0.011183	0.000000	0.007349	-0.000722	0.000000	0.000000
45.423547	18.238799	14.555534	-0.069043	-0.119118	2.786827	0.000000	0.002625	0.000000	0.007001	-0.000688	0.000000	0.000000
45.720870	18.284749	14.632507	-0.130429	-0.103961	2.787814	0.000000	0.009487	0.000000	0.006797	-0.000670	0.000000	0.000000
46.269930	18.119772	15.029592	0.428690	-0.623449	2.770835	0.000000	-0.072733	0.000000	0.006369	-0.000884	0.000000	0.000000
46.818990	17.353791	16.018080	0.957505	-1.187349	2.709102	0.000000	-0.153677	0.000000	0.005829	-0.001081	0.000000	0.000000
47.368050	16.040954	17.668377	1.418650	-1.835831	2.603702	0.000000	-0.231912	0.000000	0.005185	-0.001260	0.000000	0.000000
47.917110	14.274047	20.098024	1.779545	-2.615086	2.456496	0.000000	-0.306054	0.000000	0.004450	-0.001416	0.000000	0.000000
48.363070	12.898055	22.257840	1.316131	-2.207371	2.335914	0.000000	-0.237594	0.000000	0.003843	-0.001308	0.000000	0.000000
48.804030	11.916943	23.987779	0.916691	-1.700616	2.246173	0.000000	-0.172238	0.000000	0.003286	-0.001217	0.000000	0.000000
49.244990	11.268418	25.234807	0.559146	-1.116482	2.184761	0.000000	-0.108830	0.000000	0.002768	-0.001139	0.000000	0.000000
49.685950	10.922833	25.942192	0.227158	-0.481549	2.150984	0.000000	-0.046650	0.000000	0.002280	-0.001073	0.000000	0.000000
50.128160	10.864559	26.077474	-0.068376	0.112777	2.144475	0.000000	0.009842	0.000000	0.001818	-0.001025	0.000000	0.000000
50.425482	10.913393	26.013845	-0.095871	0.101230	2.147706	0.000000	0.009842	0.000000	0.001513	-0.001025	0.000000	0.000000
50.758816	10.987582	25.950673	-0.126695	0.088285	2.151328	0.000000	0.009842	0.000000	0.001171	-0.001025	0.000000	0.000000
51.092149	11.082320	25.896132	-0.157519	0.075340	2.154951	0.000000	0.009842	0.000000	0.000830	-0.001025	0.000000	0.000000
51.426732	11.197851	25.850588	-0.097615	-0.147366	2.158565	0.000000	-0.007669	0.000000	0.000487	-0.001029	0.000000	0.000000
51.724055	11.263867	25.941713	-0.096844	-0.223007	2.156591	0.000000	-0.012949	0.000000	0.000181	-0.001029	0.000000	0.000000
52.165015	11.495922	25.849649	-0.431735	0.430993	2.164981	0.000000	0.049045	0.000000	-0.000273	-0.001031	0.000000	0.000000
52.605975	12.030860	25.187293	-0.786342	1.065378	2.200810	0.000000	0.111609	0.000000	-0.000730	-0.001044	0.000000	0.000000
53.046935	12.893110	23.984793	-1.176867	1.651286	2.264491	0.000000	0.175455	0.000000	-0.001195	-0.001068	0.000000	0.000000
53.487895	14.122053	22.296870	-1.621148	2.162062	2.356753	0.000000	0.241310	0.000000	-0.001674	-0.001105	0.000000	0.000000
53.933855	15.794831	20.175090	-2.143738	2.575766	2.480176	0.000000	0.310321	0.000000	-0.002178	-0.001155	0.000000	0.000000
54.482915	17.948016	17.787193	-1.755304	1.799118	2.630794	0.000000	0.235379	0.000000	-0.002791	-0.001075	0.000000	0.000000
55.031975	19.603648	16.177187	-1.242919	1.150613	2.739003	0.000000	0.156244	0.000000	-0.003354	-0.000975	0.000000	0.000000
55.581035	20.644826	15.230385	-0.642773	0.584060	2.802875	0.000000	0.074323	0.000000	-0.003859	-0.000858	0.000000	0.000000
56.130095	20.998047	14.879339	0.002751	0.059108	2.821272	0.000000	-0.008931	0.000000	-0.004294	-0.000726	0.000000	0.000000
56.428668	21.034579	14.825969	-0.068327	0.079256	2.821104	0.000000	-0.001297	0.000000	-0.004515	-0.000738	0.000000	0.000000
56.762001	21.085438	14.780674	-0.084248	0.056631	2.820918	0.000000	-0.001297	0.000000	-0.004760	-0.000738	0.000000	0.000000
57.095334	21.146910	14.750461	-0.100169	0.034007	2.820731	0.000000	-0.001297	0.000000	-0.005006	-0.000738	0.000000	0.000000
57.429918	21.219287	14.735302	-0.116150	0.011298	2.820544	0.000000	-0.001297	0.000000	-0.005253	-0.000738	0.000000	0.000000
57.727240	21.292596	14.734571	-0.188496	0.031200	2.820379	0.000000	0.006405	0.000000	-0.005473	-0.000752	0.000000	0.000000
58.276300	21.135569	14.982839	0.472417	-0.486075	2.801374	0.000000	-0.076806	0.000000	-0.005836	-0.000569	0.000000	0.000000
58.825360	20.267021	15.814648	1.099957	-1.037964	2.736891	0.000000	-0.158664	0.000000	-0.006096	-0.000376	0.000000	0.000000
59.374420	18.748292	17.289228	1.649813	-1.663770	2.628068	0.000000	-0.237715	0.000000	-0.006248	-0.000176	0.000000	0.000000
59.923480	16.686626	19.511591	2.083163	-2.408060	2.476834	0.000000	-0.312552	0.000000	-0.006288	0.000027	0.000000	0.000000
60.369440	15.071543	21.486674	1.551376	-2.002272	2.352904	0.000000	-0.243658	0.000000	-0.006313	-0.000136	0.000000	0.000000
60.810400	13.909253	23.039731	1.094589	-1.506636	2.260144	0.000000	-0.177919	0.000000	-0.006409	-0.000300	0.000000	0.000000
61.251360	13.126267	24.123710	0.687800	-0.942463	2.195968	0.000000	-0.114202	0.000000	-0.006578	-0.000468	0.000000	0.000000
61.692320	12.686824	24.689302	0.312430	-0.335418	2.159647	0.000000	-0.051780	0.000000	-0.006822	-0.000640	0.000000	0.000000
62.134530	12.570908	24.710191	-0.015892	0.222508	2.150778	0.000000	0.004434	0.000000	-0.007145	-0.000802	0.000000	0.000000
62.431853	12.587392	24.581632	-0.039549	0.209880	2.152335	0.000000	0.004434	0.000000	-0.007383	-0.000802	0.000000	0.000000
62.765186	12.622599	24.446431	-0.066072	0.195723	2.154080	0.000000	0.004434	0.000000	-0.007651	-0.000802	0.000000	0.000000
63.098520	12.675488	24.320669	-0.092595	0.181565	2.155826	0.000000	0.004434	0.000000	-0.007918	-0.000802	0.000000	0.000000
63.433103	12.746358	24.203926	-0.119218	0.167354	2.157578	0.000000	0.004434	0.000000	-0.008187	-0.000802	0.000000	0.000000
63.730426	12.824257	24.108215	-0.108979	0.090727	2.159133	0.000000	-0.001272	0.000000	-0.008425	-0.000781	0.000000	0.000000
64.171386	13.082759	23.762758	-0.479871	0.689807	2.172632	0.000000	0.060839	0.000000	-0.008818	-0.001003	0.000000	0.000000
64.612346	13.676660	22.900903	-0.872671	1.257506	2.213743	0.000000	0.123654	0.000000	-0.009311	-0.001237	0.000000	0.000000
65.053306	14.633065	21.561863	-1.305314	1.768001	2.282937	0.000000	0.187890	0.000000	-0.009911	-0.001484	0.000000	0.000000
65.494266	15.995632	19.806560	-1.797554	2.198071	2.381008	0.000000	0.254282	0.000000	-0.010623	-0.001749	0.000000	0.000000
65.940226	17.849936	17.689917	-2.376309	2.528682	2.510683	0.000000	0.323954	0.000000	-0.011466	-0.002035	0.000000	0.000000
66.489286	20.224142	15.322352	-1.923950	1.809530	2.668863	0.000000	0.247925	0.000000	-0.012478	-0.001648	0.000000	0.000000
67.038346	22.023786	13.669439	-1.335799	1.219230	2.783811	0.000000	0.167473	0.000000	-0.013270	-0.001231	0.000000	0.000000
67.587406	23.121890	12.613458	-0.653374	0.715745	2.853479	0.000000	0.084032	0.000000	-0.013825	-0.000792	0.000000	0.000000
68.136466	23.440983	12.079205	0.075157	0.263224	2.876626	0.000000	-0.000912	0.000000	-0.014136	-0.000339	0.000000	0.000000
68.435038	23.440514	11.909101	-0.005814	0.271521	2.878958	0.000000	0.007461	0.000000	-0.014249	-0.000378	0.000000	0.000000
68.768372	23.449130	11.738105	-0.020035	0.241467	2.881571	0.000000	0.007461	0.000000	-0.014375	-0.000378	0.000000	0.000000
69.101705	23.467227	11.587145	-0.034256	0.211414	2.884184	0.000000	0.007461	0.000000	-0.014501	-0.000378	0.000000	0.000000
69.436288	23.494925	11.455767	-0.048530	0.181248	2.886806	0.000000	0.007461	0.000000	-0.014627	-0.000378	0.000000	0.000000
69.733611	23.527705	11.355886	-0.129979	0.187568	2.889146	0.000000	0.015905	0.000000	-0.014740	-0.000419	0.000000	0.000000
70.282671	23.266396	11.377281	0.603063	-0.226772	2.874487	0.000000	-0.069580	0.000000	-0.014838	0.000060	0.000000	0.000000
