#ParticleID	Turn	x[m]	xp	y[m]	yp	z[m]	dE[GeV]# s	beta_x	beta_y	alpha_x	alpha_y	D_x	D_y	D_px	D_py	orbit_x	orbit_px	orbit_y	orbit_py
0.300000	11.964010	25.326117	-0.019603	-0.021767	2.598711	0.000000	0.000292	0.000000	-0.000929	0.000805	0.000000	0.000000
0.601250	11.983409	25.342817	-0.044792	-0.033668	2.598557	0.000000	0.000292	0.000000	-0.000687	0.000805	0.000000	0.000000
0.898573	12.017436	25.366330	-0.040058	-0.107589	2.598405	0.000000	-0.006107	0.000000	-0.000447	0.000806	0.000000	0.000000
1.339533	12.206682	25.179683	-0.390461	0.529253	2.611552	0.000000	0.067338	0.000000	-0.000094	0.000799	0.000000	0.000000
1.780493	12.711631	24.439904	-0.758710	1.142018	2.657223	0.000000	0.141541	0.000000	0.000259	0.000801	0.000000	0.000000
2.221453	13.555362	23.180642	-1.161628	1.702824	2.735934	0.000000	0.217347	0.000000	0.000614	0.000812	0.000000	0.000000
2.662413	14.776431	21.459187	-1.617626	2.186154	2.848580	0.000000	0.295620	0.000000	0.000976	0.000833	0.000000	0.000000
3.108373	16.451726	19.328637	-2.151914	2.571188	2.998285	0.000000	0.377743	0.000000	0.001354	0.000863	0.000000	0.000000
3.657433	18.599200	16.935297	-1.735602	1.813421	3.180194	0.000000	0.285491	0.000000	0.001814	0.000812	0.000000	0.000000
4.206493	20.219068	15.298695	-1.196669	1.184822	3.310020	0.000000	0.188189	0.000000	0.002242	0.000746	0.000000	0.000000
4.755553	21.196878	14.302267	-0.573187	0.640617	3.385466	0.000000	0.087560	0.000000	0.002631	0.000667	0.000000	0.000000
5.304613	21.463534	13.875045	0.090802	0.142042	3.405197	0.000000	-0.014611	0.000000	0.002972	0.000576	0.000000	0.000000
5.603185	21.446114	13.775819	0.022200	0.155075	3.403250	0.000000	-0.005937	0.000000	0.003147	0.000584	0.000000	0.000000
5.936519	21.436497	13.680695	0.006649	0.130296	3.401076	0.000000	-0.005937	0.000000	0.003341	0.000584	0.000000	0.000000
6.269852	21.437248	13.602091	-0.008901	0.105517	3.398903	0.000000	-0.005937	0.000000	0.003536	0.000584	0.000000	0.000000
6.604435	21.448427	13.539804	-0.024510	0.080646	3.396721	0.000000	-0.005937	0.000000	0.003731	0.000584	0.000000	0.000000
6.901758	21.467136	13.498414	-0.092615	0.092762	3.394783	0.000000	0.002639	0.000000	0.003905	0.000594	0.000000	0.000000
7.450818	21.202752	13.658393	0.571579	-0.385835	3.367989	0.000000	-0.099083	0.000000	0.004195	0.000463	0.000000	0.000000
7.999878	20.226864	14.355882	1.195402	-0.891918	3.285813	0.000000	-0.199041	0.000000	0.004411	0.000323	0.000000	0.000000
8.548938	18.608410	15.640571	1.734778	-1.461541	3.149717	0.000000	-0.295463	0.000000	0.004549	0.000178	0.000000	0.000000
9.097998	16.461735	17.603980	2.151599	-2.135280	2.962116	0.000000	-0.386640	0.000000	0.004606	0.000030	0.000000	0.000000
9.543958	14.786936	19.353230	1.617062	-1.770328	2.807823	0.000000	-0.305494	0.000000	0.004646	0.000150	0.000000	0.000000
9.984918	13.566567	20.723971	1.160865	-1.326172	2.690141	0.000000	-0.228326	0.000000	0.004738	0.000271	0.000000	0.000000
10.425878	12.723746	21.674766	0.757713	-0.821668	2.605832	0.000000	-0.153763	0.000000	0.004885	0.000395	0.000000	0.000000
10.866838	12.219958	22.162347	0.389183	-0.279772	2.553932	0.000000	-0.080955	0.000000	0.005087	0.000523	0.000000	0.000000
11.309048	12.032029	22.163946	0.066324	0.223025	2.533831	0.000000	-0.014970	0.000000	0.005348	0.000645	0.000000	0.000000
11.606371	11.999970	22.035513	0.041504	0.208943	2.529188	0.000000	-0.014970	0.000000	0.005540	0.000645	0.000000	0.000000
12.086371	11.979359	21.845840	0.001435	0.186209	2.521693	0.000000	-0.014970	0.000000	0.005849	0.000645	0.000000	0.000000
12.566371	11.997215	21.677992	-0.038634	0.163475	2.514198	0.000000	-0.014970	0.000000	0.006159	0.000645	0.000000	0.000000
13.046371	12.053537	21.531969	-0.078703	0.140741	2.506703	0.000000	-0.014970	0.000000	0.006468	0.000645	0.000000	0.000000
13.526371	12.148325	21.407770	-0.118772	0.118007	2.499208	0.000000	-0.014970	0.000000	0.006778	0.000645	0.000000	0.000000
14.007621	12.281976	21.305158	-0.158946	0.095213	2.491694	0.000000	-0.014970	0.000000	0.007088	0.000645	0.000000	0.000000
14.304943	12.383853	21.252759	-0.155528	0.032857	2.487049	0.000000	-0.020641	0.000000	0.007280	0.000628	0.000000	0.000000
14.745903	12.679825	20.991328	-0.517887	0.557691	2.493178	0.000000	0.049857	0.000000	0.007599	0.000819	0.000000	0.000000
15.186863	13.304636	20.276448	-0.903922	1.057149	2.530408	0.000000	0.120914	0.000000	0.008004	0.001021	0.000000	0.000000
15.627823	14.286855	19.140643	-1.331277	1.508499	2.599158	0.000000	0.193337	0.000000	0.008501	0.001233	0.000000	0.000000
16.068783	15.671394	17.635594	-1.819488	1.891199	2.700209	0.000000	0.267950	0.000000	0.009094	0.001460	0.000000	0.000000
16.514743	17.545188	15.808183	-2.395811	2.188760	2.836402	0.000000	0.346092	0.000000	0.009800	0.001705	0.000000	0.000000
17.063803	19.951027	13.768544	-1.958504	1.547407	3.002064	0.000000	0.259325	0.000000	0.010646	0.001374	0.000000	0.000000
17.612863	21.797203	12.368957	-1.382767	1.016301	3.118934	0.000000	0.167979	0.000000	0.011304	0.001018	0.000000	0.000000
18.161923	22.953195	11.509720	-0.709288	0.557602	3.184945	0.000000	0.073669	0.000000	0.011761	0.000645	0.000000	0.000000
18.710983	23.337271	11.129626	0.014332	0.138632	3.198932	0.000000	-0.021938	0.000000	0.012010	0.000259	0.000000	0.000000
19.009556	23.365072	11.039580	-0.053129	0.137095	3.194525	0.000000	-0.014448	0.000000	0.012096	0.000289	0.000000	0.000000
19.342889	23.405260	10.958437	-0.067435	0.106334	3.189613	0.000000	-0.014448	0.000000	0.012193	0.000289	0.000000	0.000000
19.676223	23.454986	10.897802	-0.081742	0.075572	3.184701	0.000000	-0.014448	0.000000	0.012289	0.000289	0.000000	0.000000
20.010806	23.514781	10.857428	-0.212608	0.098489	3.179790	0.000000	0.001307	0.000000	0.012386	0.000351	0.000000	0.000000
20.308129	23.645245	10.807034	-0.280920	0.096083	3.180081	0.000000	0.008717	0.000000	0.012490	0.000381	0.000000	0.000000
20.857189	23.546115	10.921094	0.460483	-0.305009	3.158692	0.000000	-0.086161	0.000000	0.012588	-0.000025	0.000000	0.000000
21.406249	22.645667	11.484958	1.169342	-0.727834	3.085756	0.000000	-0.179510	0.000000	0.012463	-0.000431	0.000000	0.000000
21.955309	21.007558	12.538801	1.795551	-1.202518	2.962568	0.000000	-0.269681	0.000000	0.012117	-0.000829	0.000000	0.000000
22.504369	18.747597	14.157699	2.294848	-1.762880	2.791310	0.000000	-0.355080	0.000000	0.011555	-0.001213	0.000000	0.000000
22.950329	16.968593	15.612152	1.707050	-1.484133	2.650614	0.000000	-0.278157	0.000000	0.011080	-0.000919	0.000000	0.000000
23.391289	15.690206	16.773401	1.202235	-1.138890	2.544529	0.000000	-0.204882	0.000000	0.010737	-0.000638	0.000000	0.000000
23.832249	14.831333	17.606011	0.752377	-0.741814	2.470098	0.000000	-0.133936	0.000000	0.010516	-0.000364	0.000000	0.000000
24.273209	14.352702	18.072094	0.336913	-0.310978	2.426477	0.000000	-0.064511	0.000000	0.010416	-0.000094	0.000000	0.000000
24.715418	14.232555	18.150145	-0.031873	0.093899	2.413171	0.000000	-0.001139	0.000000	0.010434	0.000151	0.000000	0.000000
25.012741	14.257726	18.099222	-0.052785	0.077373	2.412787	0.000000	-0.001139	0.000000	0.010478	0.000151	0.000000	0.000000
25.346075	14.300730	18.053816	-0.076229	0.058846	2.412357	0.000000	-0.001139	0.000000	0.010529	0.000151	0.000000	0.000000
25.679408	14.359364	18.020761	-0.099673	0.040319	2.411927	0.000000	-0.001139	0.000000	0.010579	0.000151	0.000000	0.000000
26.013991	14.433643	18.000368	-0.006110	-0.124306	2.411472	0.000000	-0.020702	0.000000	0.010629	0.000064	0.000000	0.000000
26.311314	14.443354	18.079333	0.005044	-0.180816	2.405293	0.000000	-0.025990	0.000000	0.010648	0.000040	0.000000	0.000000
26.752274	14.617466	18.042967	-0.401258	0.262960	2.408827	0.000000	0.042372	0.000000	0.010726	0.000315	0.000000	0.000000
27.193234	15.156717	17.618968	-0.825903	0.694768	2.442469	0.000000	0.111213	0.000000	0.010927	0.000594	0.000000	0.000000
27.634194	16.085766	16.826629	-1.288305	1.094957	2.506601	0.000000	0.181315	0.000000	0.011252	0.000880	0.000000	0.000000
28.075154	17.447096	15.702006	-1.809604	1.445313	2.601952	0.000000	0.253473	0.000000	0.011705	0.001176	0.000000	0.000000
28.521114	19.326861	14.279171	-2.418793	1.731030	2.731222	0.000000	0.328989	0.000000	0.012298	0.001488	0.000000	0.000000
29.070174	21.717285	12.694704	-1.907542	1.171264	2.888591	0.000000	0.245760	0.000000	0.013004	0.001078	0.000000	0.000000
29.619234	23.468261	11.675860	-1.261452	0.694953	2.999216	0.000000	0.158187	0.000000	0.013478	0.000649	0.000000	0.000000
30.168294	24.455988	11.150057	-0.526193	0.268158	3.061139	0.000000	0.067818	0.000000	0.013714	0.000208	0.000000	0.000000
30.717354	24.610629	11.079834	0.246260	-0.139530	3.073265	0.000000	-0.023751	0.000000	0.013706	-0.000236	0.000000	0.000000
31.015927	24.501019	11.156112	0.177045	-0.141285	3.068338	0.000000	-0.016677	0.000000	0.013645	-0.000203	0.000000	0.000000
31.349260	24.387667	11.260461	0.163013	-0.171761	3.062846	0.000000	-0.016677	0.000000	0.013578	-0.000203	0.000000	0.000000
31.682593	24.283668	11.385126	0.148982	-0.202236	3.057355	0.000000	-0.016677	0.000000	0.013510	-0.000203	0.000000	0.000000
32.017177	24.188687	11.530691	0.134898	-0.232826	3.051843	0.000000	-0.016677	0.000000	0.013443	-0.000203	0.000000	0.000000
32.314499	24.112318	11.677160	0.066696	-0.233070	3.046953	0.000000	-0.009640	0.000000	0.013382	-0.000170	0.000000	0.000000
32.863559	23.626240	12.171583	0.812921	-0.672564	3.016988	0.000000	-0.100066	0.000000	0.013171	-0.000600	0.000000	0.000000
33.412619	22.347282	13.172038	1.501680	-1.159979	2.938001	0.000000	-0.188726	0.000000	0.012725	-0.001020	0.000000	0.000000
33.961679	20.365873	14.749799	2.084287	-1.730043	2.811389	0.000000	-0.274054	0.000000	0.012054	-0.001421	0.000000	0.000000
34.510739	17.822106	17.017264	2.519564	-2.423369	2.639389	0.000000	-0.354542	0.000000	0.011169	-0.001797	0.000000	0.000000
34.956699	15.845841	19.045857	1.926167	-2.105669	2.498311	0.000000	-0.281572	0.000000	0.010430	-0.001517	0.000000	0.000000
35.397659	14.372787	20.727618	1.425981	-1.693123	2.390109	0.000000	-0.212255	0.000000	0.009819	-0.001256	0.000000	0.000000
35.838619	13.310689	22.009979	0.990983	-1.203523	2.311812	0.000000	-0.145343	0.000000	0.009320	-0.001009	0.000000	0.000000
36.279579	12.610979	22.834591	0.601288	-0.659153	2.262532	0.000000	-0.080076	0.000000	0.008927	-0.000774	0.000000	0.000000
36.721789	12.241022	23.164224	0.266483	-0.136725	2.241689	0.000000	-0.020751	0.000000	0.008635	-0.000568	0.000000	0.000000
37.019112	12.090294	23.249414	0.240469	-0.149800	2.235688	0.000000	-0.020751	0.000000	0.008466	-0.000568	0.000000	0.000000
37.352445	11.939703	23.354167	0.211304	-0.164459	2.228961	0.000000	-0.020751	0.000000	0.008277	-0.000568	0.000000	0.000000
37.685779	11.808555	23.468693	0.182140	-0.179118	2.222233	0.000000	-0.020751	0.000000	0.008088	-0.000568	0.000000	0.000000
38.020362	11.696468	23.593476	0.152866	-0.193832	2.215481	0.000000	-0.020751	0.000000	0.007898	-0.000568	0.000000	0.000000
38.317684	11.613281	23.712667	0.153209	-0.260918	2.209478	0.000000	-0.025765	0.000000	0.007729	-0.000586	0.000000	0.000000
38.758644	11.626943	23.679993	-0.184466	0.334725	2.212278	0.000000	0.037533	0.000000	0.007514	-0.000390	0.000000	0.000000
39.199604	11.941043	23.126691	-0.530569	0.915133	2.242979	0.000000	0.101262	0.000000	0.007384	-0.000198	0.000000	0.000000
39.640564	12.569936	22.077944	-0.900919	1.453894	2.301932	0.000000	0.166148	0.000000	0.007339	-0.000008	0.000000	0.000000
40.081524	13.542366	20.581478	-1.312442	1.926490	2.389808	0.000000	0.232926	0.000000	0.007377	0.000182	0.000000	0.000000
40.527484	14.920338	18.682651	-1.787889	2.312905	2.509095	0.000000	0.302785	0.000000	0.007501	0.000375	0.000000	0.000000
41.076544	16.681482	16.548299	-1.400221	1.596906	2.654623	0.000000	0.226962	0.000000	0.007640	0.000129	0.000000	0.000000
41.625604	17.959625	15.133562	-0.913614	0.994676	2.757477	0.000000	0.147114	0.000000	0.007643	-0.000118	0.000000	0.000000
42.174664	18.664443	14.337653	-0.362455	0.463310	2.815834	0.000000	0.064655	0.000000	0.007511	-0.000364	0.000000	0.000000
42.723724	18.746136	14.103866	0.214306	-0.035046	2.828654	0.000000	-0.018958	0.000000	0.007245	-0.000603	0.000000	0.000000
43.022297	18.650463	14.110419	0.151981	-0.021522	2.825236	0.000000	-0.012025	0.000000	0.007070	-0.000584	0.000000	0.000000
43.502297	18.517200	14.147416	0.125650	-0.055555	2.819745	0.000000	-0.012025	0.000000	0.006790	-0.000584	0.000000	0.000000
43.982297	18.409215	14.217085	0.099318	-0.089588	2.814253	0.000000	-0.012025	0.000000	0.006509	-0.000584	0.000000	0.000000
44.462297	18.326509	14.319426	0.072987	-0.123622	2.808762	0.000000	-0.012025	0.000000	0.006229	-0.000584	0.000000	0.000000
44.942297	18.269080	14.454438	0.046656	-0.157655	2.803271	0.000000	-0.012025	0.000000	0.005948	-0.000584	0.000000	0.000000
45.423547	18.237104	14.622421	-0.070100	-0.119328	2.797782	0.000000	0.001837	0.000000	0.005667	-0.000556	0.000000	0.000000
45.720870	18.283676	14.699498	-0.132023	-0.103455	2.798495	0.000000	0.008807	0.000000	0.005502	-0.000542	0.000000	0.000000
46.269930	18.120511	15.097104	0.427085	-0.624923	2.780972	0.000000	-0.073747	0.000000	0.005156	-0.000715	0.000000	0.000000
46.818990	17.356310	16.088323	0.956006	-1.190906	2.718497	0.000000	-0.155004	0.000000	0.004719	-0.000875	0.000000	0.000000
47.368050	16.045087	17.743752	1.417370	-1.841723	2.612171	0.000000	-0.233526	0.000000	0.004198	-0.001019	0.000000	0.000000
47.917110	14.279505	20.181302	1.778584	-2.623730	2.463874	0.000000	-0.307922	0.000000	0.003602	-0.001146	0.000000	0.000000
48.363070	12.904424	22.347923	1.315183	-2.213974	2.342390	0.000000	-0.239286	0.000000	0.003111	-0.001059	0.000000	0.000000
48.804030	11.924214	24.082648	0.915693	-1.704866	2.251836	0.000000	-0.173774	0.000000	0.002661	-0.000984	0.000000	0.000000
49.244990	11.276646	25.332301	0.558052	-1.118185	2.189682	0.000000	-0.110231	0.000000	0.002241	-0.000921	0.000000	0.000000
49.685950	10.932120	26.040028	0.225915	-0.480628	2.155223	0.000000	-0.047933	0.000000	0.001847	-0.000868	0.000000	0.000000
50.128160	10.875060	26.173345	-0.069714	0.115767	2.148084	0.000000	0.008634	0.000000	0.001473	-0.000829	0.000000	0.000000
50.425482	10.924683	26.107928	-0.097187	0.104255	2.150898	0.000000	0.008634	0.000000	0.001227	-0.000829	0.000000	0.000000
50.758816	10.999741	26.042727	-0.127987	0.091348	2.154052	0.000000	0.008634	0.000000	0.000950	-0.000829	0.000000	0.000000
51.092149	11.095333	25.986130	-0.158787	0.078442	2.157206	0.000000	0.008634	0.000000	0.000674	-0.000829	0.000000	0.000000
51.426732	11.211704	25.938500	-0.098746	-0.144938	2.160351	0.000000	-0.008892	0.000000	0.000396	-0.000832	0.000000	0.000000
51.724055	11.278385	26.028166	-0.097904	-0.220690	2.157954	0.000000	-0.014177	0.000000	0.000149	-0.000833	0.000000	0.000000
52.165015	11.511556	25.933058	-0.433154	0.435554	2.165726	0.000000	0.047844	0.000000	-0.000218	-0.000834	0.000000	0.000000
52.605975	12.047957	25.265761	-0.788187	1.071978	2.200944	0.000000	0.110419	0.000000	-0.000588	-0.000844	0.000000	0.000000
53.046935	12.912085	24.056645	-1.179222	1.659625	2.264014	0.000000	0.174261	0.000000	-0.000964	-0.000864	0.000000	0.000000
53.487895	14.143409	22.360732	-1.624124	2.171760	2.355657	0.000000	0.240096	0.000000	-0.001351	-0.000894	0.000000	0.000000
53.933855	15.819221	20.229845	-2.147489	2.586392	2.478439	0.000000	0.309072	0.000000	-0.001759	-0.000934	0.000000	0.000000
54.482915	17.976252	17.831617	-1.758390	1.807393	2.628277	0.000000	0.234197	0.000000	-0.002255	-0.000869	0.000000	0.000000
55.031975	19.634873	16.213525	-1.245116	1.157129	2.735758	0.000000	0.155154	0.000000	-0.002710	-0.000789	0.000000	0.000000
55.581035	20.677964	15.260307	-0.643919	0.589281	2.798971	0.000000	0.073347	0.000000	-0.003118	-0.000694	0.000000	0.000000
56.130095	21.031878	14.904062	0.002741	0.063406	2.816788	0.000000	-0.009773	0.000000	-0.003471	-0.000588	0.000000	0.000000
56.428668	21.068245	14.848253	-0.068034	0.083345	2.816308	0.000000	-0.002201	0.000000	-0.003649	-0.000597	0.000000	0.000000
56.762001	21.118899	14.800224	-0.083929	0.060740	2.815774	0.000000	-0.002201	0.000000	-0.003848	-0.000597	0.000000	0.000000
57.095334	21.180150	14.767266	-0.099823	0.038135	2.815239	0.000000	-0.002201	0.000000	-0.004047	-0.000597	0.000000	0.000000
57.429918	21.252287	14.749339	-0.115778	0.015445	2.814702	0.000000	-0.002201	0.000000	-0.004247	-0.000597	0.000000	0.000000
57.727240	21.325361	14.746141	-0.187714	0.035095	2.814226	0.000000	0.005421	0.000000	-0.004424	-0.000609	0.000000	0.000000
58.276300	21.166909	14.990285	0.474288	-0.482407	2.794670	0.000000	-0.077584	0.000000	-0.004718	-0.000461	0.000000	0.000000
58.825360	20.295781	15.818085	1.102785	-1.034263	2.729771	0.000000	-0.159221	0.000000	-0.004928	-0.000304	0.000000	0.000000
59.374420	18.773501	17.288490	1.653397	-1.659776	2.620676	0.000000	-0.238040	0.000000	-0.005051	-0.000143	0.000000	0.000000
59.923480	16.707569	19.506218	2.087244	-2.403492	2.469319	0.000000	-0.312639	0.000000	-0.005084	0.000022	0.000000	0.000000
60.369440	15.089196	21.477108	1.554688	-1.997453	2.345303	0.000000	-0.243934	0.000000	-0.005104	-0.000111	0.000000	0.000000
60.810400	13.924239	23.025925	1.097319	-1.501816	2.252360	0.000000	-0.178391	0.000000	-0.005182	-0.000243	0.000000	0.000000
61.251360	13.139054	24.105752	0.690075	-0.937859	2.187899	0.000000	-0.114876	0.000000	-0.005319	-0.000378	0.000000	0.000000
61.692320	12.697776	24.667467	0.314354	-0.331237	2.151189	0.000000	-0.052665	0.000000	-0.005516	-0.000518	0.000000	0.000000
62.134530	12.580296	24.684927	-0.014593	0.226842	2.141819	0.000000	0.003416	0.000000	-0.005778	-0.000649	0.000000	0.000000
62.431853	12.596002	24.553802	-0.038232	0.214178	2.143028	0.000000	0.003416	0.000000	-0.005971	-0.000649	0.000000	0.000000
62.765186	12.630324	24.415750	-0.064734	0.199979	2.144383	0.000000	0.003416	0.000000	-0.006187	-0.000649	0.000000	0.000000
63.098520	12.682314	24.287163	-0.091236	0.185781	2.145738	0.000000	0.003416	0.000000	-0.006403	-0.000649	0.000000	0.000000
63.433103	12.752267	24.167613	-0.117838	0.171529	2.147098	0.000000	0.003416	0.000000	-0.006621	-0.000649	0.000000	0.000000
63.730426	12.829349	24.069413	-0.108026	0.095885	2.148305	0.000000	-0.002185	0.000000	-0.006814	-0.000632	0.000000	0.000000
64.171386	13.087095	23.719890	-0.479025	0.693818	2.161268	0.000000	0.059643	0.000000	-0.007132	-0.000812	0.000000	0.000000
64.612346	13.680333	22.855052	-0.871896	1.260186	2.201696	0.000000	0.122159	0.000000	-0.007531	-0.001001	0.000000	0.000000
65.053306	14.636147	21.514249	-1.304580	1.769226	2.270053	0.000000	0.186077	0.000000	-0.008016	-0.001201	0.000000	0.000000
65.494266	15.998171	19.758483	-1.796835	2.197782	2.367121	0.000000	0.252126	0.000000	-0.008592	-0.001415	0.000000	0.000000
65.940226	17.851921	17.642757	-2.375638	2.526916	2.495599	0.000000	0.321434	0.000000	-0.009274	-0.001647	0.000000	0.000000
66.489286	20.225455	15.276436	-1.923079	1.808879	2.652351	0.000000	0.245911	0.000000	-0.010093	-0.001333	0.000000	0.000000
67.038346	22.024204	13.623590	-1.334769	1.219654	2.766200	0.000000	0.166005	0.000000	-0.010733	-0.000996	0.000000	0.000000
67.587406	23.121224	12.566501	-0.652243	0.717280	2.835120	0.000000	0.083140	0.000000	-0.011183	-0.000641	0.000000	0.000000
68.136466	23.439104	12.029884	0.076318	0.265982	2.857883	0.000000	-0.001211	0.000000	-0.011434	-0.000274	0.000000	0.000000
68.435038	23.437214	11.858638	-0.003356	0.273322	2.860044	0.000000	0.006950	0.000000	-0.011526	-0.000306	0.000000	0.000000
68.768372	23.444192	11.686493	-0.017578	0.243113	2.862463	0.000000	0.006950	0.000000	-0.011627	-0.000306	0.000000	0.000000
69.101705	23.460652	11.534487	-0.031801	0.212905	2.864882	0.000000	0.006950	0.000000	-0.011729	-0.000306	0.000000	0.000000
69.436288	23.486708	11.402164	-0.046077	0.182583	2.867310	0.000000	0.006950	0.000000	-0.011832	-0.000306	0.000000	0.000000
69.733611	23.517978	11.301556	-0.126153	0.187970	2.869473	0.000000	0.015173	0.000000	-0.011922	-0.000338	0.000000	0.000000
70.282671	23.252651	11.321684	0.606516	-0.224851	2.854566	0.000000	-0.069678	0.000000	-0.012002	0.000049	0.000000	0.000000
