#ParticleID	Turn	x[m]	xp	y[m]	yp	z[m]	dE[GeV]# s	beta_x	beta_y	alpha_x	alpha_y	D_x	D_y	D_px	D_py	orbit_x	orbit_px	orbit_y	orbit_py
0.300000	11.874417	25.072431	-0.016498	-0.025536	2.612401	0.000000	0.000281	0.000000	-0.000228	0.000200	0.000000	0.000000
0.601250	11.892002	25.091438	-0.041875	-0.037559	2.612425	0.000000	0.000281	0.000000	-0.000168	0.000200	0.000000	0.000000
0.898573	11.924349	25.117300	-0.037648	-0.111011	2.612449	0.000000	-0.006132	0.000000	-0.000108	0.000201	0.000000	0.000000
1.339533	12.110423	24.936563	-0.385859	0.519325	2.625922	0.000000	0.067680	0.000000	-0.000020	0.000199	0.000000	0.000000
1.780493	12.610176	24.208254	-0.751700	1.126033	2.672081	0.000000	0.142259	0.000000	0.000067	0.000199	0.000000	0.000000
2.221453	13.446443	22.965509	-1.151886	1.681509	2.751451	0.000000	0.218457	0.000000	0.000156	0.000202	0.000000	0.000000
2.662413	14.657433	21.264870	-1.604700	2.160477	2.864936	0.000000	0.297142	0.000000	0.000246	0.000208	0.000000	0.000000
3.108373	16.319394	19.158782	-2.135157	2.542286	3.015686	0.000000	0.379697	0.000000	0.000340	0.000215	0.000000	0.000000
3.657433	18.450331	16.793285	-1.722806	1.791388	3.198839	0.000000	0.286867	0.000000	0.000455	0.000202	0.000000	0.000000
4.206493	20.058545	15.177879	-1.188758	1.168088	3.329557	0.000000	0.188952	0.000000	0.000562	0.000186	0.000000	0.000000
4.755553	21.030432	14.197504	-0.570737	0.627988	3.405523	0.000000	0.087688	0.000000	0.000659	0.000166	0.000000	0.000000
5.304613	21.297335	13.782332	0.087603	0.132619	3.425391	0.000000	-0.015129	0.000000	0.000744	0.000143	0.000000	0.000000
5.603185	21.282234	13.688438	0.018271	0.146099	3.423487	0.000000	-0.006235	0.000000	0.000787	0.000145	0.000000	0.000000
5.936519	21.275276	13.599330	0.002603	0.121227	3.421360	0.000000	-0.006235	0.000000	0.000835	0.000145	0.000000	0.000000
6.269852	21.278763	13.526802	-0.013065	0.096356	3.419233	0.000000	-0.006235	0.000000	0.000884	0.000145	0.000000	0.000000
6.604435	21.292767	13.470676	-0.028791	0.071392	3.417099	0.000000	-0.006235	0.000000	0.000933	0.000145	0.000000	0.000000
6.901758	21.314044	13.434819	-0.097999	0.084051	3.415202	0.000000	0.002615	0.000000	0.000976	0.000148	0.000000	0.000000
7.450818	21.058233	13.603399	0.561221	-0.392893	3.388424	0.000000	-0.099760	0.000000	0.001048	0.000115	0.000000	0.000000
7.999878	20.096081	14.307932	1.180799	-0.897823	3.305857	0.000000	-0.200364	0.000000	0.001102	0.000080	0.000000	0.000000
8.548938	18.495550	15.598602	1.716970	-1.466705	3.168966	0.000000	-0.297413	0.000000	0.001136	0.000044	0.000000	0.000000
9.097998	16.369700	17.567344	2.131858	-2.140061	2.980180	0.000000	-0.389185	0.000000	0.001150	0.000007	0.000000	0.000000
9.543958	14.710948	19.321572	1.600838	-1.776859	2.824886	0.000000	-0.307604	0.000000	0.001159	0.000037	0.000000	0.000000
9.984918	13.503697	20.698630	1.147301	-1.334070	2.706440	0.000000	-0.230014	0.000000	0.001182	0.000067	0.000000	0.000000
10.425878	12.671901	21.656817	0.746183	-0.830580	2.621587	0.000000	-0.155045	0.000000	0.001219	0.000098	0.000000	0.000000
10.866838	12.177555	22.152534	0.379158	-0.289298	2.569358	0.000000	-0.081842	0.000000	0.001269	0.000130	0.000000	0.000000
11.309048	11.997928	22.162694	0.058400	0.211375	2.549140	0.000000	-0.015745	0.000000	0.001334	0.000160	0.000000	0.000000
11.606371	11.970594	22.041168	0.033535	0.197360	2.544411	0.000000	-0.015745	0.000000	0.001381	0.000160	0.000000	0.000000
12.086371	11.957669	21.862563	-0.006609	0.174734	2.536776	0.000000	-0.015745	0.000000	0.001458	0.000160	0.000000	0.000000
12.566371	11.983283	21.705678	-0.046752	0.152109	2.529141	0.000000	-0.015745	0.000000	0.001535	0.000160	0.000000	0.000000
13.046371	12.047433	21.570514	-0.086895	0.129483	2.521506	0.000000	-0.015745	0.000000	0.001612	0.000160	0.000000	0.000000
13.526371	12.150122	21.457071	-0.127039	0.106857	2.513872	0.000000	-0.015745	0.000000	0.001689	0.000160	0.000000	0.000000
14.007621	12.291766	21.365138	-0.167287	0.084173	2.506217	0.000000	-0.015745	0.000000	0.001766	0.000160	0.000000	0.000000
14.304943	12.398634	21.319254	-0.162271	0.018825	2.501488	0.000000	-0.021774	0.000000	0.001814	0.000156	0.000000	0.000000
14.745903	12.700648	21.069352	-0.525145	0.545726	2.507427	0.000000	0.049083	0.000000	0.001893	0.000204	0.000000	0.000000
15.186863	13.332037	20.363969	-0.912015	1.047796	2.544684	0.000000	0.120497	0.000000	0.001994	0.000254	0.000000	0.000000
15.627823	14.321655	19.235199	-1.340558	1.502190	2.613683	0.000000	0.193281	0.000000	0.002118	0.000307	0.000000	0.000000
16.068783	15.714723	17.734400	-1.830355	1.888232	2.715209	0.000000	0.268263	0.000000	0.002265	0.000363	0.000000	0.000000
16.514743	17.598531	15.908362	-2.408595	2.189144	2.852112	0.000000	0.346767	0.000000	0.002441	0.000424	0.000000	0.000000
17.063803	20.017452	13.869601	-1.970525	1.545824	3.018600	0.000000	0.259501	0.000000	0.002651	0.000342	0.000000	0.000000
17.612863	21.875535	12.473053	-1.393245	1.012616	3.135883	0.000000	0.167637	0.000000	0.002815	0.000253	0.000000	0.000000
18.161923	23.041504	11.619243	-0.717536	0.551539	3.201882	0.000000	0.072803	0.000000	0.002929	0.000160	0.000000	0.000000
18.710983	23.432981	11.247355	0.008867	0.129750	3.215429	0.000000	-0.023320	0.000000	0.002991	0.000064	0.000000	0.000000
19.009556	23.467131	11.160904	-0.063587	0.131172	3.210889	0.000000	-0.015130	0.000000	0.003012	0.000072	0.000000	0.000000
19.342889	23.514277	11.083583	-0.077849	0.100792	3.205822	0.000000	-0.015130	0.000000	0.003036	0.000072	0.000000	0.000000
19.676223	23.570930	11.026515	-0.092111	0.070412	3.200754	0.000000	-0.015130	0.000000	0.003060	0.000072	0.000000	0.000000
20.010806	23.637650	10.989464	-0.223540	0.094367	3.195687	0.000000	0.000703	0.000000	0.003084	0.000087	0.000000	0.000000
20.308129	23.774510	10.941462	-0.297233	0.094922	3.195871	0.000000	0.008834	0.000000	0.003110	0.000095	0.000000	0.000000
20.857189	23.690920	11.058806	0.448598	-0.309893	3.174485	0.000000	-0.086529	0.000000	0.003135	-0.000006	0.000000	0.000000
21.406249	22.800870	11.630147	1.162738	-0.736784	3.101136	0.000000	-0.180356	0.000000	0.003104	-0.000107	0.000000	0.000000
21.955309	21.167243	12.696183	1.794735	-1.216158	2.977124	0.000000	-0.270986	0.000000	0.003018	-0.000206	0.000000	0.000000
22.504369	18.905456	14.332849	2.299939	-1.782163	2.804647	0.000000	-0.356812	0.000000	0.002878	-0.000302	0.000000	0.000000
22.950329	17.123745	15.802460	1.709124	-1.499211	2.662926	0.000000	-0.279599	0.000000	0.002760	-0.000228	0.000000	0.000000
23.391289	15.845184	16.974697	1.201167	-1.148944	2.556033	0.000000	-0.206033	0.000000	0.002675	-0.000158	0.000000	0.000000
23.832249	14.988829	17.813690	0.748097	-0.746396	2.481005	0.000000	-0.134812	0.000000	0.002620	-0.000090	0.000000	0.000000
24.273209	14.515547	18.281265	0.329210	-0.309886	2.436987	0.000000	-0.065125	0.000000	0.002595	-0.000023	0.000000	0.000000
24.715418	14.403815	18.355900	-0.040274	0.096744	2.423476	0.000000	-0.001976	0.000000	0.002600	0.000038	0.000000	0.000000
25.012741	14.433911	18.303232	-0.060949	0.080395	2.422877	0.000000	-0.001976	0.000000	0.002611	0.000038	0.000000	0.000000
25.346075	14.482271	18.255745	-0.084129	0.062066	2.422206	0.000000	-0.001976	0.000000	0.002624	0.000038	0.000000	0.000000
25.679408	14.546083	18.220478	-0.107308	0.043736	2.421535	0.000000	-0.001976	0.000000	0.002636	0.000038	0.000000	0.000000
26.013991	14.625378	18.197736	-0.011924	-0.122291	2.420836	0.000000	-0.021616	0.000000	0.002649	0.000016	0.000000	0.000000
26.311314	14.638511	18.275390	0.002735	-0.182555	2.414404	0.000000	-0.027387	0.000000	0.002654	0.000010	0.000000	0.000000
26.752274	14.816641	18.238230	-0.408192	0.266501	2.417426	0.000000	0.041189	0.000000	0.002673	0.000078	0.000000	0.000000
27.193234	15.364027	17.808878	-0.837771	0.703431	2.450732	0.000000	0.110233	0.000000	0.002723	0.000148	0.000000	0.000000
27.634194	16.305683	17.006870	-1.305632	1.108354	2.514704	0.000000	0.180531	0.000000	0.002804	0.000219	0.000000	0.000000
28.075154	17.684641	15.868697	-1.833153	1.462843	2.610067	0.000000	0.252883	0.000000	0.002917	0.000293	0.000000	0.000000
28.521114	19.587914	14.428984	-2.449441	1.751737	2.739516	0.000000	0.328567	0.000000	0.003065	0.000371	0.000000	0.000000
29.070174	22.007305	12.824985	-1.930509	1.186729	2.897073	0.000000	0.245092	0.000000	0.003241	0.000268	0.000000	0.000000
29.619234	23.778071	11.791673	-1.275191	0.706256	3.007589	0.000000	0.157275	0.000000	0.003359	0.000162	0.000000	0.000000
30.168294	24.775102	11.255444	-0.529784	0.276092	3.069106	0.000000	0.066669	0.000000	0.003417	0.000052	0.000000	0.000000
30.717354	24.927955	11.178101	0.253052	-0.134404	3.080532	0.000000	-0.025118	0.000000	0.003415	-0.000059	0.000000	0.000000
31.015927	24.818313	11.249486	0.177392	-0.133043	3.075381	0.000000	-0.017301	0.000000	0.003400	-0.000050	0.000000	0.000000
31.349260	24.704669	11.348233	0.163539	-0.163198	3.069631	0.000000	-0.017301	0.000000	0.003384	-0.000050	0.000000	0.000000
31.682593	24.600261	11.467084	0.149685	-0.193354	3.063880	0.000000	-0.017301	0.000000	0.003367	-0.000050	0.000000	0.000000
32.017177	24.504750	11.606597	0.135780	-0.223622	3.058109	0.000000	-0.017301	0.000000	0.003350	-0.000050	0.000000	0.000000
32.314499	24.427691	11.747566	0.061397	-0.220698	3.052980	0.000000	-0.009549	0.000000	0.003335	-0.000042	0.000000	0.000000
32.863559	23.941919	12.229081	0.817991	-0.661417	3.022871	0.000000	-0.100140	0.000000	0.003283	-0.000149	0.000000	0.000000
33.412619	22.652213	13.217457	1.516795	-1.149251	2.943490	0.000000	-0.188958	0.000000	0.003172	-0.000253	0.000000	0.000000
33.961679	20.649694	14.783098	2.108440	-1.718949	2.816244	0.000000	-0.274427	0.000000	0.003006	-0.000353	0.000000	0.000000
34.510739	18.075846	17.037525	2.551128	-2.411094	2.643388	0.000000	-0.355034	0.000000	0.002786	-0.000447	0.000000	0.000000
34.956699	16.075218	19.054066	1.950710	-2.091676	2.501593	0.000000	-0.282007	0.000000	0.002602	-0.000377	0.000000	0.000000
35.397659	14.583621	20.722701	1.444464	-1.677883	2.392783	0.000000	-0.212626	0.000000	0.002450	-0.000312	0.000000	0.000000
35.838619	13.507843	21.991198	1.004222	-1.187744	2.313979	0.000000	-0.145663	0.000000	0.002326	-0.000251	0.000000	0.000000
36.279579	12.798725	22.801842	0.609867	-0.643561	2.264287	0.000000	-0.080356	0.000000	0.002228	-0.000192	0.000000	0.000000
36.721789	12.423181	23.118058	0.273113	-0.125635	2.243113	0.000000	-0.021351	0.000000	0.002156	-0.000141	0.000000	0.000000
37.019112	12.268422	23.196651	0.247395	-0.138699	2.236807	0.000000	-0.021351	0.000000	0.002114	-0.000141	0.000000	0.000000
37.352445	12.113103	23.293998	0.218562	-0.153345	2.229736	0.000000	-0.021351	0.000000	0.002067	-0.000141	0.000000	0.000000
37.685779	11.977006	23.401111	0.189729	-0.167991	2.222666	0.000000	-0.021351	0.000000	0.002020	-0.000141	0.000000	0.000000
38.020362	11.859729	23.518444	0.160788	-0.182693	2.215569	0.000000	-0.021351	0.000000	0.001973	-0.000141	0.000000	0.000000
38.317684	11.771763	23.630968	0.163408	-0.252692	2.209263	0.000000	-0.026670	0.000000	0.001931	-0.000145	0.000000	0.000000
38.758644	11.778023	23.592043	-0.177698	0.340626	2.211503	0.000000	0.036606	0.000000	0.001878	-0.000096	0.000000	0.000000
39.199604	12.087556	23.034708	-0.526923	0.918444	2.241691	0.000000	0.100300	0.000000	0.001846	-0.000048	0.000000	0.000000
39.640564	12.714505	21.984322	-0.900223	1.454472	2.300171	0.000000	0.165136	0.000000	0.001835	-0.000001	0.000000	0.000000
40.081524	13.687515	20.488680	-1.314655	1.924319	2.387608	0.000000	0.231854	0.000000	0.001845	0.000047	0.000000	0.000000
40.527484	15.068586	18.593222	-1.793005	2.307939	2.506476	0.000000	0.301623	0.000000	0.001877	0.000095	0.000000	0.000000
41.076544	16.832051	16.463059	-1.399655	1.594511	2.651482	0.000000	0.225907	0.000000	0.001912	0.000033	0.000000	0.000000
41.625604	18.106359	15.049751	-0.907432	0.994663	2.753784	0.000000	0.146184	0.000000	0.001914	-0.000029	0.000000	0.000000
42.174664	18.801490	14.252626	-0.351107	0.465667	2.811568	0.000000	0.063868	0.000000	0.001881	-0.000090	0.000000	0.000000
42.723724	18.868337	14.014903	0.230018	-0.030159	2.823807	0.000000	-0.019583	0.000000	0.001815	-0.000150	0.000000	0.000000
43.022297	18.764850	14.017725	0.165127	-0.015375	2.820173	0.000000	-0.012317	0.000000	0.001772	-0.000145	0.000000	0.000000
43.502297	18.618942	14.048925	0.138850	-0.049626	2.814330	0.000000	-0.012317	0.000000	0.001702	-0.000145	0.000000	0.000000
43.982297	18.498259	14.113006	0.112572	-0.083876	2.808487	0.000000	-0.012317	0.000000	0.001632	-0.000145	0.000000	0.000000
44.462297	18.402803	14.209967	0.086295	-0.118126	2.802645	0.000000	-0.012317	0.000000	0.001563	-0.000145	0.000000	0.000000
44.942297	18.332573	14.339809	0.060018	-0.152377	2.796802	0.000000	-0.012317	0.000000	0.001493	-0.000145	0.000000	0.000000
45.423547	18.287711	14.502818	-0.056935	-0.114861	2.790961	0.000000	0.001511	0.000000	0.001423	-0.000138	0.000000	0.000000
45.720870	18.326418	14.577294	-0.120573	-0.098015	2.791452	0.000000	0.008719	0.000000	0.001382	-0.000135	0.000000	0.000000
46.269930	18.150166	14.966793	0.439591	-0.615550	2.773698	0.000000	-0.073592	0.000000	0.001296	-0.000178	0.000000	0.000000
46.818990	17.372257	15.945214	0.968699	-1.176931	2.711063	0.000000	-0.154602	0.000000	0.001187	-0.000218	0.000000	0.000000
47.368050	16.047645	17.582249	1.429376	-1.822143	2.604657	0.000000	-0.232872	0.000000	0.001057	-0.000255	0.000000	0.000000
47.917110	14.269906	19.994498	1.789080	-2.597145	2.456364	0.000000	-0.307016	0.000000	0.000909	-0.000286	0.000000	0.000000
48.363070	12.886003	22.139066	1.324974	-2.191475	2.334886	0.000000	-0.238586	0.000000	0.000786	-0.000264	0.000000	0.000000
48.804030	11.897474	23.856044	0.925182	-1.687394	2.244274	0.000000	-0.173271	0.000000	0.000674	-0.000246	0.000000	0.000000
49.244990	11.241637	25.092772	0.567662	-1.106537	2.181995	0.000000	-0.109926	0.000000	0.000569	-0.000230	0.000000	0.000000
49.685950	10.888526	25.792983	0.236079	-0.475333	2.147340	0.000000	-0.047832	0.000000	0.000471	-0.000216	0.000000	0.000000
50.128160	10.822151	25.924534	-0.058389	0.114176	2.139927	0.000000	0.008492	0.000000	0.000378	-0.000206	0.000000	0.000000
50.425482	10.865068	25.860094	-0.085956	0.102558	2.142513	0.000000	0.008492	0.000000	0.000316	-0.000206	0.000000	0.000000
50.758816	10.932674	25.796064	-0.116862	0.089533	2.145412	0.000000	0.008492	0.000000	0.000248	-0.000206	0.000000	0.000000
51.092149	11.020885	25.740717	-0.147769	0.076507	2.148311	0.000000	0.008492	0.000000	0.000179	-0.000206	0.000000	0.000000
51.426732	11.129920	25.694417	-0.088497	-0.145013	2.151200	0.000000	-0.008960	0.000000	0.000110	-0.000207	0.000000	0.000000
51.724055	11.190549	25.784161	-0.087990	-0.220105	2.148597	0.000000	-0.014227	0.000000	0.000049	-0.000207	0.000000	0.000000
52.165015	11.414103	25.691387	-0.420970	0.429693	2.156025	0.000000	0.047549	0.000000	-0.000043	-0.000207	0.000000	0.000000
52.605975	11.938655	25.032010	-0.773181	1.059940	2.190788	0.000000	0.109868	0.000000	-0.000134	-0.000209	0.000000	0.000000
53.046935	12.788167	23.836032	-1.160714	1.641960	2.253283	0.000000	0.173441	0.000000	-0.000228	-0.000214	0.000000	0.000000
53.487895	14.001450	22.157871	-1.601276	2.149272	2.344222	0.000000	0.238991	0.000000	-0.000324	-0.000221	0.000000	0.000000
53.933855	15.654705	20.048797	-2.119246	2.560123	2.466148	0.000000	0.307664	0.000000	-0.000424	-0.000231	0.000000	0.000000
54.482915	17.783017	17.675486	-1.734225	1.787919	2.614968	0.000000	0.233199	0.000000	-0.000547	-0.000215	0.000000	0.000000
55.031975	19.418356	16.075657	-1.226713	1.143065	2.721693	0.000000	0.154594	0.000000	-0.000660	-0.000196	0.000000	0.000000
55.581035	20.445219	15.135356	-0.632559	0.579627	2.784431	0.000000	0.073244	0.000000	-0.000761	-0.000173	0.000000	0.000000
56.130095	20.791080	14.787605	0.006271	0.057475	2.802065	0.000000	-0.009408	0.000000	-0.000849	-0.000146	0.000000	0.000000
56.428668	20.824302	14.736115	-0.062832	0.076039	2.801502	0.000000	-0.002035	0.000000	-0.000893	-0.000149	0.000000	0.000000
56.762001	20.871547	14.693006	-0.078902	0.053288	2.800874	0.000000	-0.002035	0.000000	-0.000943	-0.000149	0.000000	0.000000
57.095334	20.929505	14.665064	-0.094973	0.030537	2.800245	0.000000	-0.002035	0.000000	-0.000992	-0.000149	0.000000	0.000000
57.429918	20.998454	14.652270	-0.111103	0.007701	2.799614	0.000000	-0.002035	0.000000	-0.001042	-0.000149	0.000000	0.000000
57.727240	21.068784	14.653724	-0.180985	0.026011	2.799053	0.000000	0.005345	0.000000	-0.001086	-0.000152	0.000000	0.000000
58.276300	20.907792	14.906460	0.472387	-0.489042	2.779375	0.000000	-0.077176	0.000000	-0.001159	-0.000115	0.000000	0.000000
58.825360	20.043503	15.740470	1.092392	-1.038928	2.714678	0.000000	-0.158329	0.000000	-0.001212	-0.000077	0.000000	0.000000
59.374420	18.536962	17.215156	1.635238	-1.662811	2.606109	0.000000	-0.236676	0.000000	-0.001243	-0.000037	0.000000	0.000000
59.923480	16.494578	19.435552	2.062584	-2.405127	2.455594	0.000000	-0.310825	0.000000	-0.001253	0.000003	0.000000	0.000000
60.369440	14.895508	21.409032	1.535832	-2.001487	2.332297	0.000000	-0.242449	0.000000	-0.001258	-0.000029	0.000000	0.000000
60.810400	13.744886	22.962517	1.083454	-1.508131	2.239875	0.000000	-0.177227	0.000000	-0.001278	-0.000062	0.000000	0.000000
61.251360	12.969961	24.048874	0.680574	-0.946159	2.175756	0.000000	-0.114023	0.000000	-0.001313	-0.000095	0.000000	0.000000
61.692320	12.535332	24.618679	0.308786	-0.341140	2.139210	0.000000	-0.052116	0.000000	-0.001362	-0.000130	0.000000	0.000000
62.134530	12.421188	24.645460	-0.018124	0.218154	2.129824	0.000000	0.003905	0.000000	-0.001428	-0.000162	0.000000	0.000000
62.431853	12.439085	24.519493	-0.042069	0.205516	2.131034	0.000000	0.003905	0.000000	-0.001476	-0.000162	0.000000	0.000000
62.765186	12.476079	24.387206	-0.068914	0.191347	2.132389	0.000000	0.003905	0.000000	-0.001530	-0.000162	0.000000	0.000000
63.098520	12.530970	24.264364	-0.095758	0.177178	2.133745	0.000000	0.003905	0.000000	-0.001584	-0.000162	0.000000	0.000000
63.433103	12.604064	24.150561	-0.122704	0.162956	2.135106	0.000000	0.003905	0.000000	-0.001638	-0.000162	0.000000	0.000000
63.730426	12.684147	24.057420	-0.115049	0.090331	2.136315	0.000000	-0.001417	0.000000	-0.001686	-0.000158	0.000000	0.000000
64.171386	12.946807	23.712844	-0.482945	0.688136	2.149320	0.000000	0.060111	0.000000	-0.001766	-0.000202	0.000000	0.000000
64.612346	13.542368	22.852912	-0.872901	1.254632	2.189601	0.000000	0.122326	0.000000	-0.001865	-0.000249	0.000000	0.000000
65.053306	14.498035	21.516748	-1.302732	1.764045	2.257617	0.000000	0.185936	0.000000	-0.001986	-0.000299	0.000000	0.000000
65.494266	15.857462	19.765148	-1.792073	2.193199	2.354144	0.000000	0.251668	0.000000	-0.002129	-0.000352	0.000000	0.000000
65.940226	17.705949	17.653026	-2.367930	2.523271	2.481855	0.000000	0.320664	0.000000	-0.002299	-0.000409	0.000000	0.000000
66.489286	20.074507	15.290343	-1.920725	1.805417	2.637726	0.000000	0.245580	0.000000	-0.002503	-0.000332	0.000000	0.000000
67.038346	21.874162	13.641117	-1.337870	1.216150	2.751070	0.000000	0.166136	0.000000	-0.002662	-0.000248	0.000000	0.000000
67.587406	22.977823	12.587880	-0.660532	0.713502	2.819875	0.000000	0.083741	0.000000	-0.002774	-0.000160	0.000000	0.000000
68.136466	23.307551	12.055614	0.063454	0.261672	2.842919	0.000000	-0.000142	0.000000	-0.002837	-0.000069	0.000000	0.000000
68.435038	23.310702	11.888134	-0.011691	0.267020	2.845169	0.000000	0.007461	0.000000	-0.002860	-0.000076	0.000000	0.000000
68.768372	23.323263	11.720133	-0.025993	0.236982	2.847681	0.000000	0.007461	0.000000	-0.002885	-0.000076	0.000000	0.000000
69.101705	23.345359	11.572158	-0.040294	0.206943	2.850194	0.000000	0.007461	0.000000	-0.002911	-0.000076	0.000000	0.000000
69.436288	23.377126	11.443767	-0.054649	0.176792	2.852716	0.000000	0.007461	0.000000	-0.002936	-0.000076	0.000000	0.000000
69.733611	23.413421	11.346601	-0.130086	0.180361	2.854957	0.000000	0.015104	0.000000	-0.002959	-0.000084	0.000000	0.000000
70.282671	23.154181	11.375832	0.599440	-0.233914	2.840076	0.000000	-0.069301	0.000000	-0.002979	0.000012	0.000000	0.000000
