#ParticleID	Turn	x[m]	xp	y[m]	yp	z[m]	dE[GeV]# s	beta_x	beta_y	alpha_x	alpha_y	D_x	D_y	D_px	D_py	orbit_x	orbit_px	orbit_y	orbit_py
0.300000	11.965025	25.306879	-0.018358	-0.022398	2.598515	0.000000	-0.000149	0.000000	-0.001050	0.000903	0.000000	0.000000
0.601250	11.983673	25.323962	-0.043544	-0.034307	2.598198	0.000000	-0.000149	0.000000	-0.000778	0.000903	0.000000	0.000000
0.898573	12.016957	25.347857	-0.038791	-0.108194	2.597885	0.000000	-0.006551	0.000000	-0.000510	0.000904	0.000000	0.000000
1.339533	12.205085	25.161957	-0.389150	0.528172	2.610792	0.000000	0.066877	0.000000	-0.000113	0.000896	0.000000	0.000000
1.780493	12.708852	24.423323	-0.757295	1.140510	2.656213	0.000000	0.141057	0.000000	0.000282	0.000898	0.000000	0.000000
2.221453	13.551283	23.165554	-1.160047	1.700959	2.734664	0.000000	0.216834	0.000000	0.000681	0.000911	0.000000	0.000000
2.662413	14.770878	21.445869	-1.615807	2.184016	2.847034	0.000000	0.295071	0.000000	0.001087	0.000933	0.000000	0.000000
3.108373	16.444437	19.317307	-2.149775	2.568878	2.996441	0.000000	0.377150	0.000000	0.001510	0.000967	0.000000	0.000000
3.657433	18.589628	16.926209	-1.733546	1.811610	3.177990	0.000000	0.284964	0.000000	0.002026	0.000910	0.000000	0.000000
4.206493	20.207385	15.291376	-1.194839	1.183381	3.307497	0.000000	0.187737	0.000000	0.002506	0.000836	0.000000	0.000000
4.755553	21.183401	14.296371	-0.571709	0.639443	3.382673	0.000000	0.087193	0.000000	0.002942	0.000748	0.000000	0.000000
5.304613	21.448703	13.870328	0.091824	0.141053	3.402189	0.000000	-0.014885	0.000000	0.003325	0.000647	0.000000	0.000000
5.603185	21.430550	13.771774	0.023417	0.153952	3.400128	0.000000	-0.006245	0.000000	0.003521	0.000655	0.000000	0.000000
5.936519	21.420126	13.677399	0.007855	0.129174	3.397828	0.000000	-0.006245	0.000000	0.003739	0.000655	0.000000	0.000000
6.269852	21.420078	13.599542	-0.007708	0.104396	3.395528	0.000000	-0.006245	0.000000	0.003958	0.000655	0.000000	0.000000
6.604435	21.430462	13.538005	-0.023329	0.079525	3.393219	0.000000	-0.006245	0.000000	0.004177	0.000655	0.000000	0.000000
6.901758	21.448474	13.497279	-0.091173	0.091513	3.391168	0.000000	0.002287	0.000000	0.004372	0.000666	0.000000	0.000000
7.450818	21.182878	13.658626	0.572367	-0.387088	3.364179	0.000000	-0.099317	0.000000	0.004698	0.000519	0.000000	0.000000
7.999878	20.206519	14.357540	1.195481	-0.893267	3.281882	0.000000	-0.199151	0.000000	0.004940	0.000363	0.000000	0.000000
8.548938	18.588370	15.643816	1.734142	-1.463081	3.145742	0.000000	-0.295446	0.000000	0.005095	0.000201	0.000000	0.000000
9.097998	16.442756	17.609087	2.150290	-2.137124	2.958177	0.000000	-0.386497	0.000000	0.005160	0.000034	0.000000	0.000000
9.543958	14.768918	19.359989	1.616178	-1.772137	2.803919	0.000000	-0.305449	0.000000	0.005205	0.000169	0.000000	0.000000
9.984918	13.549148	20.732295	1.160376	-1.327875	2.686223	0.000000	-0.228381	0.000000	0.005310	0.000304	0.000000	0.000000
10.425878	12.706591	21.684524	0.757598	-0.823185	2.601849	0.000000	-0.153918	0.000000	0.005474	0.000444	0.000000	0.000000
10.866838	12.202746	22.173340	0.389438	-0.281034	2.549834	0.000000	-0.081213	0.000000	0.005701	0.000588	0.000000	0.000000
11.309048	12.014436	22.175916	0.066734	0.222364	2.529564	0.000000	-0.015286	0.000000	0.005994	0.000724	0.000000	0.000000
11.606371	11.982144	22.047871	0.041876	0.208294	2.524804	0.000000	-0.015286	0.000000	0.006210	0.000724	0.000000	0.000000
12.086371	11.961205	21.858812	0.001746	0.185578	2.517119	0.000000	-0.015286	0.000000	0.006557	0.000724	0.000000	0.000000
12.566371	11.978791	21.691560	-0.038384	0.162863	2.509434	0.000000	-0.015286	0.000000	0.006905	0.000724	0.000000	0.000000
13.046371	12.034902	21.546115	-0.078513	0.140148	2.501749	0.000000	-0.015286	0.000000	0.007252	0.000724	0.000000	0.000000
13.526371	12.129537	21.422477	-0.118643	0.117432	2.494065	0.000000	-0.015286	0.000000	0.007600	0.000724	0.000000	0.000000
14.007621	12.263094	21.320409	-0.158878	0.094658	2.486360	0.000000	-0.015286	0.000000	0.007948	0.000724	0.000000	0.000000
14.304943	12.364937	21.268346	-0.155805	0.032753	2.481597	0.000000	-0.020891	0.000000	0.008164	0.000705	0.000000	0.000000
14.745903	12.660986	21.006815	-0.517747	0.558013	2.487547	0.000000	0.049465	0.000000	0.008522	0.000920	0.000000	0.000000
15.186863	13.285515	20.291459	-0.903360	1.057880	2.524524	0.000000	0.120375	0.000000	0.008977	0.001145	0.000000	0.000000
15.627823	14.267084	19.154824	-1.330270	1.509605	2.592946	0.000000	0.192644	0.000000	0.009534	0.001384	0.000000	0.000000
16.068783	15.650576	17.648628	-1.817995	1.892630	2.693587	0.000000	0.267094	0.000000	0.010200	0.001638	0.000000	0.000000
16.514743	17.522899	15.819763	-2.393788	2.190476	2.829281	0.000000	0.345062	0.000000	0.010991	0.001913	0.000000	0.000000
17.063803	19.927006	13.778454	-1.957209	1.548682	2.994346	0.000000	0.258532	0.000000	0.011941	0.001542	0.000000	0.000000
17.612863	21.772282	12.377639	-1.382280	1.017227	3.110774	0.000000	0.167439	0.000000	0.012680	0.001143	0.000000	0.000000
18.161923	22.928257	11.517527	-0.709635	0.558249	3.176509	0.000000	0.073394	0.000000	0.013193	0.000724	0.000000	0.000000
18.710983	23.313190	11.136844	0.013180	0.139047	3.190391	0.000000	-0.021942	0.000000	0.013472	0.000292	0.000000	0.000000
19.009556	23.341148	11.046778	-0.053442	0.137159	3.185933	0.000000	-0.014580	0.000000	0.013569	0.000325	0.000000	0.000000
19.342889	23.381550	10.965586	-0.067764	0.106417	3.180964	0.000000	-0.014580	0.000000	0.013677	0.000325	0.000000	0.000000
19.676223	23.431500	10.904889	-0.082085	0.075674	3.175996	0.000000	-0.014580	0.000000	0.013785	0.000325	0.000000	0.000000
20.010806	23.491529	10.864441	-0.212851	0.098646	3.171029	0.000000	0.001131	0.000000	0.013894	0.000394	0.000000	0.000000
20.308129	23.622170	10.813935	-0.280281	0.095895	3.171257	0.000000	0.008407	0.000000	0.014011	0.000428	0.000000	0.000000
20.857189	23.522751	10.928315	0.460378	-0.305403	3.149763	0.000000	-0.086187	0.000000	0.014121	-0.000028	0.000000	0.000000
21.406249	22.622798	11.492750	1.168498	-0.728462	3.076904	0.000000	-0.179253	0.000000	0.013981	-0.000483	0.000000	0.000000
21.955309	20.985938	12.547454	1.794022	-1.203428	2.953972	0.000000	-0.269145	0.000000	0.013592	-0.000930	0.000000	0.000000
22.504369	18.727904	14.167571	2.292731	-1.764140	2.783144	0.000000	-0.354277	0.000000	0.012962	-0.001360	0.000000	0.000000
22.950329	16.950468	15.623078	1.705428	-1.485117	2.642813	0.000000	-0.277554	0.000000	0.012429	-0.001031	0.000000	0.000000
23.391289	15.673264	16.785092	1.201065	-1.139584	2.536988	0.000000	-0.204475	0.000000	0.012045	-0.000715	0.000000	0.000000
23.832249	14.815213	17.618188	0.751612	-0.742183	2.462719	0.000000	-0.133718	0.000000	0.011797	-0.000408	0.000000	0.000000
24.273209	14.337079	18.084455	0.336519	-0.311004	2.419164	0.000000	-0.064481	0.000000	0.011684	-0.000105	0.000000	0.000000
24.715418	14.217134	18.162362	-0.032390	0.094750	2.405828	0.000000	-0.001204	0.000000	0.011704	0.000169	0.000000	0.000000
25.012741	14.242619	18.110930	-0.053325	0.078233	2.405420	0.000000	-0.001204	0.000000	0.011755	0.000169	0.000000	0.000000
25.346075	14.285993	18.064947	-0.076796	0.059715	2.404962	0.000000	-0.001204	0.000000	0.011811	0.000169	0.000000	0.000000
25.679408	14.345014	18.031309	-0.100266	0.041198	2.404504	0.000000	-0.001204	0.000000	0.011867	0.000169	0.000000	0.000000
26.013991	14.419698	18.010325	-0.006843	-0.123498	2.404021	0.000000	-0.020707	0.000000	0.011924	0.000072	0.000000	0.000000
26.311314	14.429838	18.088822	0.003802	-0.179439	2.397838	0.000000	-0.025902	0.000000	0.011945	0.000045	0.000000	0.000000
26.752274	14.604926	18.051127	-0.402220	0.264582	2.401359	0.000000	0.042270	0.000000	0.012033	0.000354	0.000000	0.000000
27.193234	15.144940	17.625607	-0.826630	0.696563	2.434890	0.000000	0.110919	0.000000	0.012258	0.000667	0.000000	0.000000
27.634194	16.074576	16.831625	-1.288834	1.096841	2.498813	0.000000	0.180826	0.000000	0.012623	0.000988	0.000000	0.000000
28.075154	17.436349	15.705311	-1.809963	1.447198	2.593852	0.000000	0.252782	0.000000	0.013131	0.001320	0.000000	0.000000
28.521114	19.316497	14.280759	-2.419039	1.732859	2.722703	0.000000	0.328088	0.000000	0.013798	0.001669	0.000000	0.000000
29.070174	21.707536	12.694384	-1.908218	1.172867	2.879574	0.000000	0.245139	0.000000	0.014589	0.001209	0.000000	0.000000
29.619234	23.459543	11.673828	-1.262499	0.696445	2.989885	0.000000	0.157859	0.000000	0.015122	0.000728	0.000000	0.000000
30.168294	24.448629	11.146384	-0.527528	0.269649	3.051684	0.000000	0.067790	0.000000	0.015386	0.000234	0.000000	0.000000
30.717354	24.604853	11.074473	0.244734	-0.137934	3.063878	0.000000	-0.023478	0.000000	0.015378	-0.000265	0.000000	0.000000
31.015927	24.495532	11.150081	0.176503	-0.140139	3.058995	0.000000	-0.016547	0.000000	0.015310	-0.000227	0.000000	0.000000
31.349260	24.382541	11.253668	0.162471	-0.170621	3.053556	0.000000	-0.016547	0.000000	0.015234	-0.000227	0.000000	0.000000
31.682593	24.278904	11.377576	0.148439	-0.201103	3.048116	0.000000	-0.016547	0.000000	0.015158	-0.000227	0.000000	0.000000
32.017177	24.184286	11.522385	0.134355	-0.231700	3.042656	0.000000	-0.016547	0.000000	0.015082	-0.000227	0.000000	0.000000
32.314499	24.108274	11.668171	0.067087	-0.232423	3.037814	0.000000	-0.009647	0.000000	0.015015	-0.000191	0.000000	0.000000
32.863559	23.621798	12.161745	0.813199	-0.671636	3.007949	0.000000	-0.099783	0.000000	0.014777	-0.000673	0.000000	0.000000
33.412619	22.342544	13.161020	1.501818	-1.158705	2.929246	0.000000	-0.188159	0.000000	0.014277	-0.001144	0.000000	0.000000
33.961679	20.360976	14.737188	2.084266	-1.728335	2.803096	0.000000	-0.273215	0.000000	0.013524	-0.001595	0.000000	0.000000
34.510739	17.817212	17.002534	2.519372	-2.421111	2.631728	0.000000	-0.353448	0.000000	0.012531	-0.002017	0.000000	0.000000
34.956699	15.840984	19.029279	1.926031	-2.103667	2.491178	0.000000	-0.280665	0.000000	0.011702	-0.001703	0.000000	0.000000
35.397659	14.367955	20.709465	1.425928	-1.691500	2.383407	0.000000	-0.211524	0.000000	0.011016	-0.001410	0.000000	0.000000
35.838619	13.305823	21.990610	0.991016	-1.202350	2.305452	0.000000	-0.144779	0.000000	0.010456	-0.001133	0.000000	0.000000
36.279579	12.606017	22.814418	0.601410	-0.658482	2.256432	0.000000	-0.079670	0.000000	0.010015	-0.000869	0.000000	0.000000
36.721789	12.235899	23.143683	0.266378	-0.135927	2.235769	0.000000	-0.020428	0.000000	0.009687	-0.000638	0.000000	0.000000
37.019112	12.085236	23.228401	0.240354	-0.149011	2.229885	0.000000	-0.020428	0.000000	0.009498	-0.000638	0.000000	0.000000
37.352445	11.934724	23.332632	0.211179	-0.163680	2.223288	0.000000	-0.020428	0.000000	0.009285	-0.000638	0.000000	0.000000
37.685779	11.803663	23.446642	0.182004	-0.178349	2.216691	0.000000	-0.020428	0.000000	0.009073	-0.000638	0.000000	0.000000
38.020362	11.691671	23.570913	0.152719	-0.193073	2.210070	0.000000	-0.020428	0.000000	0.008859	-0.000638	0.000000	0.000000
38.317684	11.608569	23.689666	0.152779	-0.259599	2.204183	0.000000	-0.025381	0.000000	0.008670	-0.000658	0.000000	0.000000
38.758644	11.622559	23.656098	-0.184803	0.335423	2.207149	0.000000	0.037784	0.000000	0.008429	-0.000438	0.000000	0.000000
39.199604	11.936920	23.102459	-0.530828	0.915180	2.237948	0.000000	0.101385	0.000000	0.008283	-0.000222	0.000000	0.000000
39.640564	12.566017	22.053947	-0.901112	1.453285	2.296932	0.000000	0.166142	0.000000	0.008232	-0.000009	0.000000	0.000000
40.081524	13.538607	20.558279	-1.312580	1.925252	2.384775	0.000000	0.232792	0.000000	0.008275	0.000204	0.000000	0.000000
40.527484	14.916721	18.660777	-1.787998	2.311111	2.503961	0.000000	0.302524	0.000000	0.008414	0.000420	0.000000	0.000000
41.076544	16.678100	16.527991	-1.400480	1.595780	2.649377	0.000000	0.226867	0.000000	0.008570	0.000145	0.000000	0.000000
41.625604	17.956617	15.114144	-0.914001	0.994139	2.752227	0.000000	0.147187	0.000000	0.008573	-0.000133	0.000000	0.000000
42.174664	18.661918	14.318509	-0.362940	0.463326	2.810686	0.000000	0.064894	0.000000	0.008424	-0.000408	0.000000	0.000000
42.723724	18.744166	14.084398	0.213758	-0.034475	2.823713	0.000000	-0.018558	0.000000	0.008126	-0.000676	0.000000	0.000000
43.022297	18.648584	14.090813	0.151813	-0.021295	2.820415	0.000000	-0.011693	0.000000	0.007930	-0.000656	0.000000	0.000000
43.502297	18.515483	14.127615	0.125481	-0.055376	2.815117	0.000000	-0.011693	0.000000	0.007615	-0.000656	0.000000	0.000000
43.982297	18.407661	14.197134	0.099148	-0.089456	2.809819	0.000000	-0.011693	0.000000	0.007300	-0.000656	0.000000	0.000000
44.462297	18.325118	14.299370	0.072816	-0.123536	2.804521	0.000000	-0.011693	0.000000	0.006986	-0.000656	0.000000	0.000000
44.942297	18.267855	14.434323	0.046483	-0.157616	2.799223	0.000000	-0.011693	0.000000	0.006671	-0.000656	0.000000	0.000000
45.423547	18.236046	14.602291	-0.070269	-0.119436	2.793928	0.000000	0.002149	0.000000	0.006355	-0.000624	0.000000	0.000000
45.720870	18.282723	14.679438	-0.131915	-0.103878	2.794754	0.000000	0.009068	0.000000	0.006170	-0.000609	0.000000	0.000000
46.269930	18.119429	15.077193	0.427168	-0.624767	2.777447	0.000000	-0.073370	0.000000	0.005782	-0.000802	0.000000	0.000000
46.818990	17.355121	16.067928	0.956055	-1.190161	2.715259	0.000000	-0.154519	0.000000	0.005291	-0.000982	0.000000	0.000000
47.368050	16.043825	17.722205	1.417379	-1.840335	2.609288	0.000000	-0.232943	0.000000	0.004707	-0.001144	0.000000	0.000000
47.917110	14.278213	20.157853	1.778548	-2.621603	2.461404	0.000000	-0.307254	0.000000	0.004039	-0.001285	0.000000	0.000000
48.363070	12.903126	22.322847	1.315161	-2.212442	2.340261	0.000000	-0.238676	0.000000	0.003488	-0.001188	0.000000	0.000000
48.804030	11.922901	24.056524	0.915694	-1.704007	2.250017	0.000000	-0.173214	0.000000	0.002983	-0.001104	0.000000	0.000000
49.244990	11.275301	25.305737	0.558077	-1.118039	2.188149	0.000000	-0.109714	0.000000	0.002512	-0.001034	0.000000	0.000000
49.685950	10.930725	26.013655	0.225966	-0.481200	2.153957	0.000000	-0.047452	0.000000	0.002070	-0.000974	0.000000	0.000000
50.128160	10.873592	26.147788	-0.069682	0.114708	2.147068	0.000000	0.009097	0.000000	0.001650	-0.000931	0.000000	0.000000
50.425482	10.923198	26.083002	-0.097158	0.103188	2.150050	0.000000	0.009097	0.000000	0.001373	-0.000931	0.000000	0.000000
50.758816	10.998238	26.018516	-0.127962	0.090272	2.153392	0.000000	0.009097	0.000000	0.001063	-0.000931	0.000000	0.000000
51.092149	11.093814	25.962640	-0.158766	0.077356	2.156735	0.000000	0.009097	0.000000	0.000753	-0.000931	0.000000	0.000000
51.426732	11.210173	25.915739	-0.098742	-0.145849	2.160068	0.000000	-0.008427	0.000000	0.000441	-0.000934	0.000000	0.000000
51.724055	11.276853	26.005951	-0.097912	-0.221588	2.157840	0.000000	-0.013710	0.000000	0.000164	-0.000935	0.000000	0.000000
52.165015	11.510001	25.911891	-0.433127	0.434084	2.165861	0.000000	0.048311	0.000000	-0.000248	-0.000936	0.000000	0.000000
52.605975	12.046346	25.246121	-0.788123	1.070002	2.201330	0.000000	0.110893	0.000000	-0.000663	-0.000947	0.000000	0.000000
53.046935	12.910383	24.038940	-1.179118	1.657233	2.264656	0.000000	0.174748	0.000000	-0.001085	-0.000970	0.000000	0.000000
53.487895	14.141576	22.345284	-1.623974	2.169060	2.356564	0.000000	0.240603	0.000000	-0.001520	-0.001004	0.000000	0.000000
53.933855	15.817205	20.216903	-2.147279	2.583503	2.479625	0.000000	0.309605	0.000000	-0.001977	-0.001049	0.000000	0.000000
54.482915	17.974007	17.821511	-1.758251	1.805102	2.629802	0.000000	0.234687	0.000000	-0.002534	-0.000976	0.000000	0.000000
55.031975	19.632482	16.205690	-1.245060	1.155270	2.737592	0.000000	0.155590	0.000000	-0.003046	-0.000885	0.000000	0.000000
55.581035	20.675526	15.254341	-0.643953	0.587723	2.801074	0.000000	0.073720	0.000000	-0.003503	-0.000779	0.000000	0.000000
56.130095	21.029499	14.899695	0.002616	0.062038	2.819118	0.000000	-0.009470	0.000000	-0.003899	-0.000659	0.000000	0.000000
56.428668	21.066052	14.844620	-0.068347	0.082117	2.818760	0.000000	-0.001866	0.000000	-0.004099	-0.000670	0.000000	0.000000
56.762001	21.116916	14.797411	-0.084244	0.059511	2.818362	0.000000	-0.001866	0.000000	-0.004322	-0.000670	0.000000	0.000000
57.095334	21.178378	14.765272	-0.100142	0.036905	2.817963	0.000000	-0.001866	0.000000	-0.004545	-0.000670	0.000000	0.000000
57.429918	21.250728	14.748169	-0.116098	0.014214	2.817563	0.000000	-0.001866	0.000000	-0.004769	-0.000670	0.000000	0.000000
57.727240	21.323997	14.745702	-0.188281	0.034018	2.817208	0.000000	0.005797	0.000000	-0.004969	-0.000683	0.000000	0.000000
58.276300	21.166173	14.991029	0.473679	-0.483502	2.797866	0.000000	-0.077307	0.000000	-0.005298	-0.000517	0.000000	0.000000
58.825360	20.295708	15.820070	1.102178	-1.035454	2.733115	0.000000	-0.159049	0.000000	-0.005534	-0.000341	0.000000	0.000000
59.374420	18.774079	17.291859	1.652835	-1.661145	2.624101	0.000000	-0.237975	0.000000	-0.005672	-0.000160	0.000000	0.000000
59.923480	16.708737	19.511212	2.086769	-2.405136	2.472754	0.000000	-0.312684	0.000000	-0.005709	0.000025	0.000000	0.000000
60.369440	15.090771	21.483565	1.554255	-1.999090	2.348740	0.000000	-0.243894	0.000000	-0.005731	-0.000124	0.000000	0.000000
60.810400	13.926198	23.033775	1.096892	-1.503357	2.255843	0.000000	-0.178262	0.000000	-0.005818	-0.000273	0.000000	0.000000
61.251360	13.141395	24.114883	0.689634	-0.939235	2.191476	0.000000	-0.114657	0.000000	-0.005972	-0.000424	0.000000	0.000000
61.692320	12.700515	24.677710	0.313878	-0.332387	2.154906	0.000000	-0.052354	0.000000	-0.006193	-0.000581	0.000000	0.000000
62.134530	12.583472	24.696063	-0.014916	0.225578	2.145726	0.000000	0.003780	0.000000	-0.006486	-0.000728	0.000000	0.000000
62.431853	12.599368	24.565686	-0.038550	0.212926	2.147067	0.000000	0.003780	0.000000	-0.006703	-0.000728	0.000000	0.000000
62.765186	12.633900	24.428463	-0.065045	0.198741	2.148570	0.000000	0.003780	0.000000	-0.006945	-0.000728	0.000000	0.000000
63.098520	12.686095	24.300697	-0.091541	0.184557	2.150073	0.000000	0.003780	0.000000	-0.007188	-0.000728	0.000000	0.000000
63.433103	12.756250	24.181961	-0.118136	0.170320	2.151581	0.000000	0.003780	0.000000	-0.007432	-0.000728	0.000000	0.000000
63.730426	12.833503	24.084484	-0.108069	0.094173	2.152920	0.000000	-0.001873	0.000000	-0.007648	-0.000709	0.000000	0.000000
64.171386	13.091309	23.736289	-0.479157	0.692542	2.166084	0.000000	0.060075	0.000000	-0.008005	-0.000911	0.000000	0.000000
64.612346	13.684678	22.872372	-0.872122	1.259405	2.206777	0.000000	0.122718	0.000000	-0.008453	-0.001123	0.000000	0.000000
65.053306	14.640698	21.532043	-1.304907	1.768976	2.275465	0.000000	0.186769	0.000000	-0.008997	-0.001348	0.000000	0.000000
65.494266	16.003009	19.776282	-1.797274	2.198077	2.372937	0.000000	0.252962	0.000000	-0.009644	-0.001588	0.000000	0.000000
65.940226	17.857159	17.660063	-2.376176	2.527728	2.501901	0.000000	0.322421	0.000000	-0.010409	-0.001848	0.000000	0.000000
66.489286	20.231112	15.293127	-1.923470	1.809265	2.659231	0.000000	0.246687	0.000000	-0.011328	-0.001496	0.000000	0.000000
67.038346	22.030123	13.640108	-1.334996	1.219638	2.773518	0.000000	0.166555	0.000000	-0.012046	-0.001117	0.000000	0.000000
67.587406	23.127242	12.583278	-0.652298	0.716858	2.842727	0.000000	0.083451	0.000000	-0.012551	-0.000719	0.000000	0.000000
68.136466	23.445061	12.047371	0.076434	0.265123	2.865623	0.000000	-0.001144	0.000000	-0.012833	-0.000308	0.000000	0.000000
68.435038	23.443488	11.876397	-0.003925	0.272910	2.867844	0.000000	0.007121	0.000000	-0.012935	-0.000343	0.000000	0.000000
68.768372	23.450845	11.704510	-0.018144	0.242752	2.870332	0.000000	0.007121	0.000000	-0.013050	-0.000343	0.000000	0.000000
69.101705	23.467680	11.552727	-0.032363	0.212595	2.872821	0.000000	0.007121	0.000000	-0.013164	-0.000343	0.000000	0.000000
69.436288	23.494111	11.420594	-0.046635	0.182325	2.875318	0.000000	0.007121	0.000000	-0.013279	-0.000343	0.000000	0.000000
69.733611	23.525737	11.320113	-0.127430	0.188142	2.877545	0.000000	0.015452	0.000000	-0.013381	-0.000380	0.000000	0.000000
70.282671	23.261675	11.340331	0.605502	-0.225189	2.862730	0.000000	-0.069658	0.000000	-0.013470	0.000055	0.000000	0.000000
