#ParticleID	Turn	x[m]	xp	y[m]	yp	z[m]	dE[GeV]# s	beta_x	beta_y	alpha_x	alpha_y	D_x	D_y	D_px	D_py	orbit_x	orbit_px	orbit_y	orbit_py
0.300000	11.923525	25.080079	-0.010935	-0.027480	2.605018	0.000000	-0.002342	0.000000	-0.001291	0.001079	0.000000	0.000000
0.601250	11.937726	25.100257	-0.036203	-0.039501	2.603987	0.000000	-0.002342	0.000000	-0.000966	0.001079	0.000000	0.000000
0.898573	11.966669	25.127274	-0.031618	-0.112971	2.602970	0.000000	-0.008764	0.000000	-0.000645	0.001080	0.000000	0.000000
1.339533	12.147933	24.948141	-0.380642	0.517662	2.614854	0.000000	0.064782	0.000000	-0.000171	0.001070	0.000000	0.000000
1.780493	12.643494	24.221137	-0.747064	1.124747	2.659299	0.000000	0.139054	0.000000	0.000300	0.001072	0.000000	0.000000
2.221453	13.476004	22.979329	-1.147627	1.680660	2.736809	0.000000	0.214898	0.000000	0.000775	0.001085	0.000000	0.000000
2.662413	14.683510	21.279210	-1.600633	2.160106	2.848261	0.000000	0.293179	0.000000	0.001259	0.001112	0.000000	0.000000
3.108373	16.342082	19.173186	-2.131130	2.542448	2.996752	0.000000	0.375278	0.000000	0.001764	0.001151	0.000000	0.000000
3.657433	18.468080	16.807641	-1.717338	1.791208	3.177181	0.000000	0.283099	0.000000	0.002378	0.001084	0.000000	0.000000
4.206493	20.069967	15.192573	-1.182209	1.167555	3.305587	0.000000	0.185915	0.000000	0.002950	0.000997	0.000000	0.000000
4.755553	21.034551	14.212955	-0.563543	0.627068	3.379702	0.000000	0.085449	0.000000	0.003470	0.000893	0.000000	0.000000
5.304613	21.293660	13.799017	0.094953	0.131245	3.398218	0.000000	-0.016519	0.000000	0.003928	0.000774	0.000000	0.000000
5.603185	21.273262	13.706567	0.027120	0.143713	3.395614	0.000000	-0.007935	0.000000	0.004162	0.000784	0.000000	0.000000
5.936519	21.260409	13.619032	0.011439	0.118892	3.392708	0.000000	-0.007935	0.000000	0.004424	0.000784	0.000000	0.000000
6.269852	21.258010	13.548045	-0.004241	0.094070	3.389801	0.000000	-0.007935	0.000000	0.004685	0.000784	0.000000	0.000000
6.604435	21.266114	13.493432	-0.019981	0.069156	3.386884	0.000000	-0.007935	0.000000	0.004947	0.000784	0.000000	0.000000
6.901758	21.282171	13.458881	-0.087124	0.080789	3.384293	0.000000	0.000518	0.000000	0.005180	0.000797	0.000000	0.000000
7.450818	21.015244	13.631489	0.570791	-0.396990	3.356334	0.000000	-0.100850	0.000000	0.005570	0.000623	0.000000	0.000000
7.999878	20.043686	14.341159	1.188392	-0.903052	3.273220	0.000000	-0.200419	0.000000	0.005862	0.000438	0.000000	0.000000
8.548938	18.436134	15.638453	1.722039	-1.473449	3.136429	0.000000	-0.296425	0.000000	0.006049	0.000245	0.000000	0.000000
9.097998	16.306169	17.615793	2.134023	-2.148817	2.948392	0.000000	-0.387169	0.000000	0.006130	0.000047	0.000000	0.000000
9.543958	14.645079	19.377523	1.603711	-1.784560	2.793765	0.000000	-0.306374	0.000000	0.006186	0.000207	0.000000	0.000000
9.984918	13.434838	20.760925	1.151132	-1.340471	2.675580	0.000000	-0.229573	0.000000	0.006313	0.000368	0.000000	0.000000
10.425878	12.599172	21.724142	0.751157	-0.835380	2.590585	0.000000	-0.155390	0.000000	0.006511	0.000533	0.000000	0.000000
10.866838	12.099892	22.223338	0.385506	-0.292271	2.537811	0.000000	-0.082983	0.000000	0.006784	0.000705	0.000000	0.000000
11.309048	11.914040	22.235225	0.064573	0.213024	2.516633	0.000000	-0.017277	0.000000	0.007135	0.000867	0.000000	0.000000
11.606371	11.883093	22.112707	0.039514	0.199046	2.511239	0.000000	-0.017277	0.000000	0.007393	0.000867	0.000000	0.000000
12.086371	11.864579	21.932456	-0.000943	0.176479	2.502529	0.000000	-0.017277	0.000000	0.007810	0.000867	0.000000	0.000000
12.566371	11.884903	21.773868	-0.041400	0.153912	2.493820	0.000000	-0.017277	0.000000	0.008226	0.000867	0.000000	0.000000
13.046371	11.944066	21.636945	-0.081856	0.131345	2.485111	0.000000	-0.017277	0.000000	0.008642	0.000867	0.000000	0.000000
13.526371	12.042067	21.521686	-0.122313	0.108778	2.476402	0.000000	-0.017277	0.000000	0.009058	0.000867	0.000000	0.000000
14.007621	12.179314	21.427876	-0.162875	0.086152	2.467670	0.000000	-0.017277	0.000000	0.009476	0.000867	0.000000	0.000000
14.304943	12.283584	21.380862	-0.160657	0.024942	2.462272	0.000000	-0.022745	0.000000	0.009734	0.000845	0.000000	0.000000
14.745903	12.583186	21.124825	-0.520910	0.553401	2.467225	0.000000	0.047104	0.000000	0.010162	0.001101	0.000000	0.000000
15.186863	13.209864	20.412026	-0.904982	1.056676	2.502958	0.000000	0.117477	0.000000	0.010707	0.001370	0.000000	0.000000
15.627823	14.192281	19.274895	-1.330429	1.511863	2.569874	0.000000	0.189174	0.000000	0.011373	0.001655	0.000000	0.000000
16.068783	15.575371	17.765173	-1.816706	1.898243	2.668728	0.000000	0.263009	0.000000	0.012169	0.001958	0.000000	0.000000
16.514743	17.446065	15.929771	-2.391034	2.199259	2.802312	0.000000	0.340314	0.000000	0.013115	0.002286	0.000000	0.000000
17.063803	19.848979	13.880573	-1.957480	1.554231	2.964843	0.000000	0.254692	0.000000	0.014251	0.001843	0.000000	0.000000
17.612863	21.696354	12.475196	-1.385536	1.019944	3.079295	0.000000	0.164581	0.000000	0.015133	0.001367	0.000000	0.000000
18.161923	22.857546	11.613524	-0.715631	0.558332	3.143648	0.000000	0.071571	0.000000	0.015747	0.000866	0.000000	0.000000
18.710983	23.250430	11.234171	0.004876	0.136504	3.156769	0.000000	-0.022695	0.000000	0.016082	0.000351	0.000000	0.000000
19.009556	23.282366	11.145856	-0.060212	0.134403	3.151981	0.000000	-0.015605	0.000000	0.016198	0.000390	0.000000	0.000000
19.342889	23.327296	11.066403	-0.074581	0.103956	3.146649	0.000000	-0.015605	0.000000	0.016328	0.000390	0.000000	0.000000
19.676223	23.381806	11.007248	-0.088950	0.073509	3.141318	0.000000	-0.015605	0.000000	0.016458	0.000390	0.000000	0.000000
20.010806	23.446444	10.968147	-0.219539	0.097291	3.135986	0.000000	-0.000068	0.000000	0.016588	0.000472	0.000000	0.000000
20.308129	23.581138	10.918340	-0.285418	0.094361	3.135838	0.000000	0.006925	0.000000	0.016729	0.000512	0.000000	0.000000
20.857189	23.488060	11.036019	0.454059	-0.309903	3.113823	0.000000	-0.086520	0.000000	0.016861	-0.000032	0.000000	0.000000
21.406249	22.595445	11.607186	1.161439	-0.736252	3.041121	0.000000	-0.178431	0.000000	0.016694	-0.000576	0.000000	0.000000
21.955309	20.966414	12.672537	1.786710	-1.215065	2.919021	0.000000	-0.267185	0.000000	0.016230	-0.001109	0.000000	0.000000
22.504369	18.716167	14.307977	2.285665	-1.780461	2.749684	0.000000	-0.351215	0.000000	0.015479	-0.001623	0.000000	0.000000
22.950329	16.944501	15.776609	1.699105	-1.497882	2.610620	0.000000	-0.275332	0.000000	0.014843	-0.001230	0.000000	0.000000
23.391289	15.672552	16.948165	1.195252	-1.148281	2.505662	0.000000	-0.203068	0.000000	0.014384	-0.000853	0.000000	0.000000
23.832249	14.819451	17.787013	0.746049	-0.746415	2.431882	0.000000	-0.133109	0.000000	0.014090	-0.000486	0.000000	0.000000
24.273209	14.346180	18.254979	0.330957	-0.310575	2.388440	0.000000	-0.064661	0.000000	0.013955	-0.000124	0.000000	0.000000
24.715418	14.231273	18.330407	-0.038974	0.100479	2.374846	0.000000	-0.001975	0.000000	0.013980	0.000204	0.000000	0.000000
25.012741	14.260670	18.275529	-0.059898	0.084095	2.374199	0.000000	-0.001975	0.000000	0.014041	0.000204	0.000000	0.000000
25.346075	14.308422	18.225589	-0.083357	0.065726	2.373472	0.000000	-0.001975	0.000000	0.014109	0.000204	0.000000	0.000000
25.679408	14.371813	18.187894	-0.106815	0.047358	2.372746	0.000000	-0.001975	0.000000	0.014177	0.000204	0.000000	0.000000
26.013991	14.450875	18.162741	-0.013126	-0.118424	2.371993	0.000000	-0.021218	0.000000	0.014245	0.000089	0.000000	0.000000
26.311314	14.464712	18.238206	-0.003198	-0.173474	2.365651	0.000000	-0.026207	0.000000	0.014272	0.000056	0.000000	0.000000
26.752274	14.646412	18.193469	-0.410239	0.274521	2.368837	0.000000	0.041134	0.000000	0.014378	0.000425	0.000000	0.000000
27.193234	15.194120	17.757575	-0.836038	0.710022	2.401640	0.000000	0.108940	0.000000	0.014647	0.000800	0.000000	0.000000
27.634194	16.132889	16.950361	-1.300065	1.113206	2.464432	0.000000	0.177979	0.000000	0.015084	0.001183	0.000000	0.000000
28.075154	17.505661	15.808559	-1.823539	1.465721	2.557925	0.000000	0.249033	0.000000	0.015693	0.001580	0.000000	0.000000
28.521114	19.399459	14.366696	-2.435681	1.752754	2.684777	0.000000	0.323392	0.000000	0.016490	0.001997	0.000000	0.000000
29.070174	21.808054	12.760644	-1.923002	1.188895	2.839269	0.000000	0.241703	0.000000	0.017438	0.001448	0.000000	0.000000
29.619234	23.574926	11.724028	-1.274359	0.709756	2.947958	0.000000	0.155749	0.000000	0.018075	0.000872	0.000000	0.000000
30.168294	24.575110	11.182991	-0.535611	0.281193	3.008923	0.000000	0.067044	0.000000	0.018393	0.000281	0.000000	0.000000
30.717354	24.737866	11.098985	0.241007	-0.127331	3.021087	0.000000	-0.022846	0.000000	0.018383	-0.000315	0.000000	0.000000
31.015927	24.629792	11.168697	0.174327	-0.130150	3.016308	0.000000	-0.016228	0.000000	0.018302	-0.000271	0.000000	0.000000
31.349260	24.518223	11.265580	0.160382	-0.160501	3.010988	0.000000	-0.016228	0.000000	0.018212	-0.000271	0.000000	0.000000
31.682593	24.415950	11.382698	0.146437	-0.190852	3.005669	0.000000	-0.016228	0.000000	0.018122	-0.000271	0.000000	0.000000
32.017177	24.322643	11.520602	0.132439	-0.221316	3.000330	0.000000	-0.016228	0.000000	0.018031	-0.000271	0.000000	0.000000
32.314499	24.247816	11.660146	0.066627	-0.222762	2.995600	0.000000	-0.009634	0.000000	0.017951	-0.000227	0.000000	0.000000
32.863559	23.759213	12.142774	0.817411	-0.661213	2.966158	0.000000	-0.098416	0.000000	0.017667	-0.000805	0.000000	0.000000
33.412619	22.472774	13.129888	1.510395	-1.146780	2.888662	0.000000	-0.185465	0.000000	0.017070	-0.001367	0.000000	0.000000
33.961679	20.479489	14.691816	2.096583	-1.714065	2.764482	0.000000	-0.269245	0.000000	0.016170	-0.001906	0.000000	0.000000
34.510739	17.920334	16.939832	2.534535	-2.403486	2.595808	0.000000	-0.348277	0.000000	0.014982	-0.002411	0.000000	0.000000
34.956699	15.931874	18.951078	1.937917	-2.086425	2.457511	0.000000	-0.276387	0.000000	0.013992	-0.002035	0.000000	0.000000
35.397659	14.449454	20.616597	1.435168	-1.675491	2.351565	0.000000	-0.208088	0.000000	0.013172	-0.001685	0.000000	0.000000
35.838619	13.380099	21.884474	0.998041	-1.188301	2.275053	0.000000	-0.142141	0.000000	0.012503	-0.001354	0.000000	0.000000
36.279579	12.674895	22.697015	0.606548	-0.647028	2.227107	0.000000	-0.077800	0.000000	0.011976	-0.001038	0.000000	0.000000
36.721789	12.300961	23.017476	0.269439	-0.126204	2.207169	0.000000	-0.019135	0.000000	0.011584	-0.000761	0.000000	0.000000
37.019112	12.148448	23.096424	0.243514	-0.139327	2.201706	0.000000	-0.019135	0.000000	0.011358	-0.000761	0.000000	0.000000
37.352445	11.995794	23.194213	0.214449	-0.154040	2.195582	0.000000	-0.019135	0.000000	0.011104	-0.000761	0.000000	0.000000
37.685779	11.862516	23.301810	0.185383	-0.168752	2.189457	0.000000	-0.019135	0.000000	0.010850	-0.000761	0.000000	0.000000
38.020362	11.748225	23.419675	0.156209	-0.183520	2.183310	0.000000	-0.019135	0.000000	0.010596	-0.000761	0.000000	0.000000
38.317684	11.663008	23.532780	0.156007	-0.248799	2.177843	0.000000	-0.023938	0.000000	0.010369	-0.000785	0.000000	0.000000
38.758644	11.674678	23.491549	-0.182787	0.341931	2.181343	0.000000	0.038557	0.000000	0.010081	-0.000522	0.000000	0.000000
39.199604	11.987758	22.934167	-0.529932	0.917097	2.212364	0.000000	0.101497	0.000000	0.009908	-0.000264	0.000000	0.000000
39.640564	12.616554	21.886005	-0.901297	1.450523	2.271264	0.000000	0.165597	0.000000	0.009848	-0.000009	0.000000	0.000000
40.081524	13.589812	20.394765	-1.313857	1.917933	2.358713	0.000000	0.231583	0.000000	0.009900	0.000245	0.000000	0.000000
40.527484	14.969654	18.505644	-1.790468	2.299580	2.477187	0.000000	0.300637	0.000000	0.010067	0.000504	0.000000	0.000000
41.076544	16.732702	16.382860	-1.400927	1.588897	2.621779	0.000000	0.225857	0.000000	0.010254	0.000175	0.000000	0.000000
41.625604	18.010606	14.974220	-0.912386	0.991420	2.724321	0.000000	0.147072	0.000000	0.010258	-0.000157	0.000000	0.000000
42.174664	18.713046	14.179364	-0.359373	0.464582	2.782991	0.000000	0.065676	0.000000	0.010081	-0.000487	0.000000	0.000000
42.723724	18.790383	13.941659	0.219026	-0.029155	2.796747	0.000000	-0.016894	0.000000	0.009725	-0.000808	0.000000	0.000000
43.022297	18.691292	13.945469	0.157668	-0.017025	2.793933	0.000000	-0.010198	0.000000	0.009491	-0.000784	0.000000	0.000000
43.502297	18.552564	13.978339	0.131349	-0.051455	2.789414	0.000000	-0.010198	0.000000	0.009115	-0.000784	0.000000	0.000000
43.982297	18.439103	14.044262	0.105030	-0.085884	2.784895	0.000000	-0.010198	0.000000	0.008739	-0.000784	0.000000	0.000000
44.462297	18.350907	14.143238	0.078711	-0.120314	2.780376	0.000000	-0.010198	0.000000	0.008363	-0.000784	0.000000	0.000000
44.942297	18.287977	14.275266	0.052392	-0.154744	2.775857	0.000000	-0.010198	0.000000	0.007987	-0.000784	0.000000	0.000000
45.423547	18.250475	14.440640	-0.064418	-0.117716	2.771343	0.000000	0.003533	0.000000	0.007610	-0.000746	0.000000	0.000000
45.720870	18.293674	14.516823	-0.125561	-0.103207	2.772617	0.000000	0.010320	0.000000	0.007388	-0.000727	0.000000	0.000000
46.269930	18.123200	14.911180	0.433733	-0.619199	2.756263	0.000000	-0.071419	0.000000	0.006924	-0.000959	0.000000	0.000000
46.818990	17.351721	15.892961	0.962363	-1.179300	2.695422	0.000000	-0.151906	0.000000	0.006338	-0.001174	0.000000	0.000000
47.368050	16.033773	17.532094	1.422977	-1.823409	2.591165	0.000000	-0.229718	0.000000	0.005639	-0.001368	0.000000	0.000000
47.917110	14.262511	19.945326	1.783032	-2.597409	2.445331	0.000000	-0.303477	0.000000	0.004840	-0.001538	0.000000	0.000000
48.363070	12.883447	22.090941	1.319494	-2.193314	2.325886	0.000000	-0.235291	0.000000	0.004181	-0.001421	0.000000	0.000000
48.804030	11.899340	23.810326	0.920095	-1.690813	2.237152	0.000000	-0.170180	0.000000	0.003577	-0.001321	0.000000	0.000000
49.244990	11.247720	25.050759	0.562749	-1.111377	2.176641	0.000000	-0.106993	0.000000	0.003014	-0.001236	0.000000	0.000000
49.685950	10.898795	25.755811	0.231125	-0.481376	2.143669	0.000000	-0.045011	0.000000	0.002485	-0.001165	0.000000	0.000000
50.128160	10.836774	25.893137	-0.063973	0.108584	2.137883	0.000000	0.011326	0.000000	0.001983	-0.001112	0.000000	0.000000
50.425482	10.883006	25.832022	-0.091522	0.096966	2.141581	0.000000	0.011326	0.000000	0.001652	-0.001112	0.000000	0.000000
50.758816	10.954316	25.771720	-0.122408	0.083940	2.145727	0.000000	0.011326	0.000000	0.001282	-0.001112	0.000000	0.000000
51.092149	11.046217	25.720102	-0.153293	0.070915	2.149874	0.000000	0.011326	0.000000	0.000911	-0.001112	0.000000	0.000000
51.426732	11.158941	25.677543	-0.093766	-0.150468	2.154013	0.000000	-0.006148	0.000000	0.000539	-0.001117	0.000000	0.000000
51.724055	11.222690	25.770539	-0.093177	-0.225793	2.152517	0.000000	-0.011416	0.000000	0.000207	-0.001117	0.000000	0.000000
52.165015	11.451056	25.682922	-0.427031	0.423732	2.161599	0.000000	0.050481	0.000000	-0.000285	-0.001118	0.000000	0.000000
52.605975	11.981299	25.028829	-0.780387	1.053973	2.198081	0.000000	0.112966	0.000000	-0.000781	-0.001132	0.000000	0.000000
53.046935	12.837634	23.838031	-1.169387	1.636256	2.262384	0.000000	0.176750	0.000000	-0.001286	-0.001158	0.000000	0.000000
53.487895	14.059169	22.164717	-1.611801	2.144090	2.355245	0.000000	0.242559	0.000000	-0.001805	-0.001198	0.000000	0.000000
53.933855	15.722594	20.059989	-2.132074	2.555663	2.479258	0.000000	0.311537	0.000000	-0.002351	-0.001252	0.000000	0.000000
54.482915	17.863908	17.691484	-1.745527	1.783707	2.630599	0.000000	0.236614	0.000000	-0.003015	-0.001165	0.000000	0.000000
55.031975	19.510135	16.096345	-1.235722	1.138795	2.739531	0.000000	0.157475	0.000000	-0.003626	-0.001058	0.000000	0.000000
55.581035	20.545043	15.160946	-0.638666	0.574994	2.804113	0.000000	0.075525	0.000000	-0.004173	-0.000931	0.000000	0.000000
56.130095	20.895575	14.818649	0.003474	0.052147	2.823193	0.000000	-0.007778	0.000000	-0.004646	-0.000788	0.000000	0.000000
56.428668	20.931622	14.769478	-0.067553	0.072199	2.823396	0.000000	-0.000118	0.000000	-0.004885	-0.000801	0.000000	0.000000
56.762001	20.981990	14.728908	-0.083550	0.049512	2.823623	0.000000	-0.000118	0.000000	-0.005152	-0.000801	0.000000	0.000000
57.095334	21.043022	14.703462	-0.099548	0.026825	2.823851	0.000000	-0.000118	0.000000	-0.005419	-0.000801	0.000000	0.000000
57.429918	21.115009	14.693131	-0.115605	0.004054	2.824079	0.000000	-0.000118	0.000000	-0.005687	-0.000801	0.000000	0.000000
57.727240	21.188018	14.696722	-0.187937	0.023925	2.824284	0.000000	0.007621	0.000000	-0.005925	-0.000817	0.000000	0.000000
58.276300	21.032288	14.952440	0.469479	-0.492453	2.805940	0.000000	-0.075726	0.000000	-0.006319	-0.000618	0.000000	0.000000
58.825360	20.168796	15.790963	1.093729	-1.043898	2.742030	0.000000	-0.157740	0.000000	-0.006602	-0.000409	0.000000	0.000000
59.374420	18.658523	17.271999	1.640737	-1.669682	2.633682	0.000000	-0.236963	0.000000	-0.006767	-0.000192	0.000000	0.000000
59.923480	16.608114	19.501016	2.071881	-2.414370	2.482815	0.000000	-0.311988	0.000000	-0.006813	0.000028	0.000000	0.000000
60.369440	15.001993	21.482155	1.542490	-2.009500	2.359174	0.000000	-0.242937	0.000000	-0.006840	-0.000150	0.000000	0.000000
60.810400	13.846653	23.041849	1.087663	-1.514432	2.266778	0.000000	-0.177032	0.000000	-0.006945	-0.000327	0.000000	0.000000
61.251360	13.069031	24.132815	0.682517	-0.950473	2.203046	0.000000	-0.113139	0.000000	-0.007129	-0.000509	0.000000	0.000000
61.692320	12.633610	24.705428	0.308547	-0.343279	2.167255	0.000000	-0.050529	0.000000	-0.007394	-0.000696	0.000000	0.000000
62.134530	12.520570	24.733063	-0.018516	0.214790	2.159010	0.000000	0.005838	0.000000	-0.007744	-0.000871	0.000000	0.000000
62.431853	12.538643	24.609079	-0.042271	0.202214	2.161005	0.000000	0.005838	0.000000	-0.008003	-0.000871	0.000000	0.000000
62.765186	12.575700	24.478969	-0.068903	0.188115	2.163241	0.000000	0.005838	0.000000	-0.008294	-0.000871	0.000000	0.000000
63.098520	12.630513	24.358259	-0.095535	0.174016	2.165478	0.000000	0.005838	0.000000	-0.008584	-0.000871	0.000000	0.000000
63.433103	12.703386	24.246548	-0.122266	0.159864	2.167722	0.000000	0.005838	0.000000	-0.008876	-0.000871	0.000000	0.000000
63.730426	12.783122	24.155284	-0.112034	0.082761	2.169714	0.000000	0.000069	0.000000	-0.009135	-0.000848	0.000000	0.000000
64.171386	13.043911	23.816243	-0.482055	0.683286	2.183899	0.000000	0.062461	0.000000	-0.009561	-0.001089	0.000000	0.000000
64.612346	13.639369	22.959398	-0.874082	1.252728	2.225830	0.000000	0.125576	0.000000	-0.010097	-0.001342	0.000000	0.000000
65.053306	14.596672	21.623736	-1.306015	1.765182	2.295990	0.000000	0.190135	0.000000	-0.010747	-0.001611	0.000000	0.000000
65.494266	15.959514	19.870024	-1.797573	2.197343	2.395184	0.000000	0.256876	0.000000	-0.011520	-0.001898	0.000000	0.000000
65.940226	17.813494	17.753078	-2.375616	2.530077	2.526169	0.000000	0.326927	0.000000	-0.012434	-0.002208	0.000000	0.000000
66.489286	20.187695	15.384786	-1.924777	1.809529	2.685919	0.000000	0.250374	0.000000	-0.013533	-0.001788	0.000000	0.000000
67.038346	21.988998	13.732662	-1.338097	1.217830	2.802120	0.000000	0.169352	0.000000	-0.014391	-0.001335	0.000000	0.000000
67.587406	23.090318	12.679045	-0.656987	0.712844	2.872699	0.000000	0.085306	0.000000	-0.014994	-0.000859	0.000000	0.000000
68.136466	23.413966	12.148899	0.070480	0.258614	2.896398	0.000000	-0.000266	0.000000	-0.015332	-0.000368	0.000000	0.000000
68.435038	23.416561	11.981198	-0.010992	0.267626	2.898970	0.000000	0.008234	0.000000	-0.015454	-0.000411	0.000000	0.000000
68.768372	23.428634	11.812719	-0.025228	0.237812	2.901851	0.000000	0.008234	0.000000	-0.015591	-0.000411	0.000000	0.000000
69.101705	23.450199	11.664115	-0.039465	0.207998	2.904733	0.000000	0.008234	0.000000	-0.015728	-0.000411	0.000000	0.000000
69.436288	23.481389	11.534942	-0.053755	0.178072	2.907626	0.000000	0.008234	0.000000	-0.015866	-0.000411	0.000000	0.000000
69.733611	23.517306	11.436873	-0.135778	0.185124	2.910207	0.000000	0.016813	0.000000	-0.015988	-0.000455	0.000000	0.000000
70.282671	23.262511	11.462200	0.597065	-0.231534	2.895868	0.000000	-0.069356	0.000000	-0.016095	0.000064	0.000000	0.000000
