#ParticleID	Turn	x[m]	xp	y[m]	yp	z[m]	dE[GeV]# s	beta_x	beta_y	alpha_x	alpha_y	D_x	D_y	D_px	D_py	orbit_x	orbit_px	orbit_y	orbit_py
0.300000	11.843871	24.967210	-0.014444	-0.027288	2.617047	0.000000	-0.000001	0.000000	-0.000050	0.000044	0.000000	0.000000
0.601250	11.860238	24.987289	-0.039885	-0.039362	2.617033	0.000000	-0.000001	0.000000	-0.000037	0.000044	0.000000	0.000000
0.898573	11.891420	25.014239	-0.035826	-0.112620	2.617020	0.000000	-0.006420	0.000000	-0.000024	0.000044	0.000000	0.000000
1.339533	12.075518	24.836116	-0.383237	0.515026	2.630457	0.000000	0.067508	0.000000	-0.000004	0.000044	0.000000	0.000000
1.780493	12.572540	24.112717	-0.748158	1.119239	2.676632	0.000000	0.142205	0.000000	0.000015	0.000044	0.000000	0.000000
2.221453	13.405192	22.876957	-1.147260	1.672528	2.756071	0.000000	0.218522	0.000000	0.000035	0.000045	0.000000	0.000000
2.662413	14.611518	21.185060	-1.598778	2.149718	2.869677	0.000000	0.297326	0.000000	0.000055	0.000046	0.000000	0.000000
3.108373	16.267474	19.089193	-2.127648	2.530229	3.020607	0.000000	0.380006	0.000000	0.000076	0.000048	0.000000	0.000000
3.657433	18.390864	16.735321	-1.716750	1.782166	3.203970	0.000000	0.287015	0.000000	0.000101	0.000045	0.000000	0.000000
4.206493	19.993374	15.128802	-1.184588	1.161043	3.334802	0.000000	0.188933	0.000000	0.000125	0.000041	0.000000	0.000000
4.755553	20.961810	14.155210	-0.568751	0.622619	3.410782	0.000000	0.087500	0.000000	0.000146	0.000037	0.000000	0.000000
5.304613	21.227763	13.745196	0.087260	0.128543	3.430564	0.000000	-0.015484	0.000000	0.000165	0.000032	0.000000	0.000000
5.603185	21.212934	13.653686	0.017793	0.142091	3.428604	0.000000	-0.006533	0.000000	0.000175	0.000032	0.000000	0.000000
5.936519	21.206312	13.567261	0.002075	0.117185	3.426416	0.000000	-0.006533	0.000000	0.000185	0.000032	0.000000	0.000000
6.269852	21.210168	13.497440	-0.013644	0.092279	3.424227	0.000000	-0.006533	0.000000	0.000196	0.000032	0.000000	0.000000
6.604435	21.224577	13.444054	-0.029422	0.067279	3.422031	0.000000	-0.006533	0.000000	0.000207	0.000032	0.000000	0.000000
6.901758	21.246241	13.410653	-0.098854	0.080045	3.420079	0.000000	0.002387	0.000000	0.000216	0.000033	0.000000	0.000000
7.450818	20.992580	13.583274	0.558127	-0.396295	3.393187	0.000000	-0.100142	0.000000	0.000232	0.000025	0.000000	0.000000
7.999878	20.034949	14.291314	1.175684	-0.900863	3.310410	0.000000	-0.200895	0.000000	0.000244	0.000018	0.000000	0.000000
8.548938	18.440990	15.585206	1.710197	-1.469597	3.173216	0.000000	-0.298084	0.000000	0.000252	0.000010	0.000000	0.000000
9.097998	16.323294	17.557111	2.123908	-2.143009	2.984038	0.000000	-0.389985	0.000000	0.000255	0.000001	0.000000	0.000000
9.543958	14.670929	19.314240	1.594445	-1.780431	2.828417	0.000000	-0.308313	0.000000	0.000257	0.000008	0.000000	0.000000
9.984918	13.468764	20.694636	1.142138	-1.338079	2.709696	0.000000	-0.230638	0.000000	0.000262	0.000015	0.000000	0.000000
10.425878	12.641068	21.656473	0.742012	-0.834846	2.624614	0.000000	-0.155589	0.000000	0.000270	0.000022	0.000000	0.000000
10.866838	12.150028	22.155987	0.375787	-0.293627	2.572200	0.000000	-0.082313	0.000000	0.000281	0.000029	0.000000	0.000000
11.309048	11.973069	22.169933	0.055906	0.206666	2.551838	0.000000	-0.016215	0.000000	0.000296	0.000036	0.000000	0.000000
11.606371	11.947231	22.051198	0.030996	0.192682	2.547006	0.000000	-0.016215	0.000000	0.000306	0.000036	0.000000	0.000000
12.086371	11.936779	21.877060	-0.009220	0.170106	2.539206	0.000000	-0.016215	0.000000	0.000323	0.000036	0.000000	0.000000
12.566371	11.964933	21.724595	-0.049435	0.147530	2.531405	0.000000	-0.016215	0.000000	0.000340	0.000036	0.000000	0.000000
13.046371	12.031693	21.593802	-0.089650	0.124955	2.523605	0.000000	-0.016215	0.000000	0.000357	0.000036	0.000000	0.000000
13.526371	12.137061	21.484681	-0.129865	0.102379	2.515805	0.000000	-0.016215	0.000000	0.000374	0.000036	0.000000	0.000000
14.007621	12.281460	21.397034	-0.170185	0.079745	2.507984	0.000000	-0.016215	0.000000	0.000392	0.000036	0.000000	0.000000
14.304943	12.390066	21.353773	-0.164827	0.013605	2.503152	0.000000	-0.022330	0.000000	0.000402	0.000035	0.000000	0.000000
14.745903	12.694243	21.108041	-0.527577	0.541537	2.508914	0.000000	0.048565	0.000000	0.000420	0.000045	0.000000	0.000000
15.186863	13.327720	20.405840	-0.914432	1.044830	2.546026	0.000000	0.120013	0.000000	0.000442	0.000056	0.000000	0.000000
15.627823	14.319441	19.279119	-1.343065	1.500584	2.614909	0.000000	0.192827	0.000000	0.000469	0.000068	0.000000	0.000000
16.068783	15.714716	17.779144	-1.833061	1.888061	2.716348	0.000000	0.267836	0.000000	0.000502	0.000080	0.000000	0.000000
16.514743	17.600943	15.952664	-2.411576	2.190391	2.853194	0.000000	0.346359	0.000000	0.000541	0.000094	0.000000	0.000000
17.063803	20.023146	13.913153	-1.973773	1.546057	3.019602	0.000000	0.259065	0.000000	0.000588	0.000076	0.000000	0.000000
17.612863	21.884713	12.516939	-1.396548	1.011848	3.136757	0.000000	0.167177	0.000000	0.000624	0.000056	0.000000	0.000000
18.161923	23.054144	11.664573	-0.720673	0.549711	3.202581	0.000000	0.072324	0.000000	0.000649	0.000035	0.000000	0.000000
18.710983	23.448832	11.295342	0.006108	0.126730	3.215906	0.000000	-0.023810	0.000000	0.000663	0.000014	0.000000	0.000000
19.009556	23.485380	11.210227	-0.067590	0.128999	3.211287	0.000000	-0.015455	0.000000	0.000667	0.000016	0.000000	0.000000
19.342889	23.535192	11.134304	-0.081848	0.098769	3.206131	0.000000	-0.015455	0.000000	0.000673	0.000016	0.000000	0.000000
19.676223	23.594510	11.078534	-0.096106	0.068540	3.200974	0.000000	-0.015455	0.000000	0.000678	0.000016	0.000000	0.000000
20.010806	23.663903	11.042685	-0.227662	0.092909	3.195817	0.000000	0.000379	0.000000	0.000683	0.000019	0.000000	0.000000
20.308129	23.803210	10.995512	-0.302711	0.094318	3.195924	0.000000	0.008681	0.000000	0.000689	0.000021	0.000000	0.000000
20.857189	23.725101	11.114338	0.444134	-0.312010	3.174476	0.000000	-0.086674	0.000000	0.000695	-0.000001	0.000000	0.000000
21.406249	22.839294	11.688878	1.159606	-0.740563	3.101028	0.000000	-0.180493	0.000000	0.000688	-0.000024	0.000000	0.000000
21.955309	21.208362	12.760056	1.793167	-1.221865	2.976884	0.000000	-0.271110	0.000000	0.000669	-0.000046	0.000000	0.000000
22.504369	18.947511	14.404171	2.300063	-1.790200	2.804245	0.000000	-0.356919	0.000000	0.000638	-0.000067	0.000000	0.000000
22.950329	17.166095	15.880166	1.708547	-1.505518	2.662386	0.000000	-0.279731	0.000000	0.000612	-0.000051	0.000000	0.000000
23.391289	15.888456	17.057044	1.199805	-1.153203	2.555371	0.000000	-0.206184	0.000000	0.000593	-0.000035	0.000000	0.000000
23.832249	15.033716	17.898794	0.745881	-0.748418	2.480232	0.000000	-0.134985	0.000000	0.000581	-0.000020	0.000000	0.000000
24.273209	14.562825	18.367114	0.326034	-0.309580	2.436115	0.000000	-0.065324	0.000000	0.000575	-0.000005	0.000000	0.000000
24.715418	14.454377	18.440452	-0.043750	0.098298	2.422514	0.000000	-0.002314	0.000000	0.000576	0.000008	0.000000	0.000000
25.012741	14.486520	18.386840	-0.064359	0.082019	2.421824	0.000000	-0.002314	0.000000	0.000579	0.000008	0.000000	0.000000
25.346075	14.537128	18.338244	-0.087464	0.063768	2.421049	0.000000	-0.002314	0.000000	0.000581	0.000008	0.000000	0.000000
25.679408	14.603139	18.301816	-0.110570	0.045517	2.420275	0.000000	-0.002314	0.000000	0.000584	0.000008	0.000000	0.000000
26.013991	14.684591	18.277857	-0.014631	-0.121081	2.419474	0.000000	-0.021943	0.000000	0.000587	0.000004	0.000000	0.000000
26.311314	14.699312	18.354765	0.000964	-0.182346	2.412949	0.000000	-0.027827	0.000000	0.000588	0.000002	0.000000	0.000000
26.752274	14.879632	18.316478	-0.411435	0.268841	2.415781	0.000000	0.040705	0.000000	0.000592	0.000017	0.000000	0.000000
27.193234	15.430545	17.884172	-0.842631	0.707796	2.448901	0.000000	0.109701	0.000000	0.000603	0.000033	0.000000	0.000000
27.634194	16.377220	17.077516	-1.312327	1.114546	2.512685	0.000000	0.179946	0.000000	0.000621	0.000049	0.000000	0.000000
28.075154	17.762911	15.933212	-1.841981	1.470584	2.607859	0.000000	0.252239	0.000000	0.000646	0.000065	0.000000	0.000000
28.521114	19.675019	14.486089	-2.460757	1.760637	2.737111	0.000000	0.327851	0.000000	0.000679	0.000082	0.000000	0.000000
29.070174	22.105382	12.873581	-1.939362	1.193520	2.894424	0.000000	0.244465	0.000000	0.000718	0.000059	0.000000	0.000000
29.619234	23.884105	11.833784	-1.280974	0.711416	3.004707	0.000000	0.156744	0.000000	0.000744	0.000036	0.000000	0.000000
30.168294	24.885541	11.292633	-0.532102	0.279986	3.066002	0.000000	0.066243	0.000000	0.000757	0.000011	0.000000	0.000000
30.717354	25.038949	11.211583	0.254358	-0.131501	3.077223	0.000000	-0.025432	0.000000	0.000757	-0.000013	0.000000	0.000000
31.015927	24.929566	11.280761	0.176999	-0.129301	3.072018	0.000000	-0.017443	0.000000	0.000754	-0.000011	0.000000	0.000000
31.349260	24.816163	11.376976	0.163209	-0.159344	3.066207	0.000000	-0.017443	0.000000	0.000750	-0.000011	0.000000	0.000000
31.682593	24.711953	11.493220	0.149420	-0.189387	3.060396	0.000000	-0.017443	0.000000	0.000746	-0.000011	0.000000	0.000000
32.017177	24.616598	11.630041	0.135578	-0.219543	3.054564	0.000000	-0.017443	0.000000	0.000742	-0.000011	0.000000	0.000000
32.314499	24.539634	11.768558	0.059558	-0.215783	3.049381	0.000000	-0.009525	0.000000	0.000739	-0.000009	0.000000	0.000000
32.863559	24.053899	12.244855	0.819848	-0.656805	3.019281	0.000000	-0.099993	0.000000	0.000728	-0.000033	0.000000	0.000000
33.412619	22.760272	13.228146	1.522226	-1.144611	2.939935	0.000000	-0.188687	0.000000	0.000703	-0.000056	0.000000	0.000000
33.961679	20.750135	14.788470	2.117076	-1.713946	2.812751	0.000000	-0.274036	0.000000	0.000666	-0.000078	0.000000	0.000000
34.510739	18.165481	17.036966	2.562381	-2.405363	2.639983	0.000000	-0.354525	0.000000	0.000617	-0.000099	0.000000	0.000000
34.956699	16.156093	19.048098	1.959448	-2.085446	2.498259	0.000000	-0.281595	0.000000	0.000577	-0.000084	0.000000	0.000000
35.397659	14.657857	20.711059	1.451048	-1.671402	2.389500	0.000000	-0.212303	0.000000	0.000543	-0.000069	0.000000	0.000000
35.838619	13.577179	21.973806	1.008945	-1.181310	2.310728	0.000000	-0.145427	0.000000	0.000516	-0.000056	0.000000	0.000000
36.279579	12.864684	22.778884	0.612938	-0.637469	2.261048	0.000000	-0.080207	0.000000	0.000494	-0.000043	0.000000	0.000000
36.721789	12.487128	23.089966	0.275314	-0.121034	2.239867	0.000000	-0.021368	0.000000	0.000478	-0.000031	0.000000	0.000000
37.019112	12.331030	23.165823	0.249699	-0.134100	2.233523	0.000000	-0.021368	0.000000	0.000469	-0.000031	0.000000	0.000000
37.352445	12.174137	23.260105	0.220981	-0.148748	2.226411	0.000000	-0.021368	0.000000	0.000458	-0.000031	0.000000	0.000000
37.685779	12.036389	23.364153	0.192264	-0.163395	2.219299	0.000000	-0.021368	0.000000	0.000448	-0.000031	0.000000	0.000000
38.020362	11.917377	23.478411	0.163438	-0.178098	2.212160	0.000000	-0.021368	0.000000	0.000438	-0.000031	0.000000	0.000000
38.317684	11.827805	23.588201	0.166711	-0.248785	2.205816	0.000000	-0.026756	0.000000	0.000428	-0.000032	0.000000	0.000000
38.758644	11.831715	23.546349	-0.175621	0.343333	2.207957	0.000000	0.036427	0.000000	0.000417	-0.000021	0.000000	0.000000
39.199604	12.139921	22.987214	-0.525976	0.919830	2.238021	0.000000	0.100026	0.000000	0.000409	-0.000011	0.000000	0.000000
39.640564	12.766505	21.936235	-0.900362	1.454474	2.296349	0.000000	0.164763	0.000000	0.000407	-0.000000	0.000000	0.000000
40.081524	13.740094	20.441233	-1.315884	1.922940	2.383605	0.000000	0.231377	0.000000	0.000409	0.000010	0.000000	0.000000
40.527484	15.122723	18.547652	-1.795355	2.305202	2.502256	0.000000	0.301033	0.000000	0.000416	0.000021	0.000000	0.000000
41.076544	16.887610	16.419802	-1.399971	1.593091	2.647001	0.000000	0.225461	0.000000	0.000424	0.000007	0.000000	0.000000
41.625604	18.161107	15.007413	-0.905698	0.994454	2.749099	0.000000	0.145891	0.000000	0.000425	-0.000006	0.000000	0.000000
42.174664	18.853259	14.209882	-0.347451	0.466650	2.806739	0.000000	0.063732	0.000000	0.000417	-0.000020	0.000000	0.000000
42.723724	18.915174	13.970402	0.235339	-0.027915	2.818898	0.000000	-0.019557	0.000000	0.000403	-0.000033	0.000000	0.000000
43.022297	18.808931	13.971725	0.169753	-0.012902	2.815260	0.000000	-0.012217	0.000000	0.000393	-0.000032	0.000000	0.000000
43.502297	18.658571	14.000605	0.143498	-0.047263	2.809411	0.000000	-0.012217	0.000000	0.000378	-0.000032	0.000000	0.000000
43.982297	18.533415	14.062470	0.117242	-0.081624	2.803563	0.000000	-0.012217	0.000000	0.000362	-0.000032	0.000000	0.000000
44.462297	18.433465	14.157323	0.090987	-0.115985	2.797714	0.000000	-0.012217	0.000000	0.000347	-0.000032	0.000000	0.000000
44.942297	18.358720	14.285162	0.064732	-0.150346	2.791866	0.000000	-0.012217	0.000000	0.000331	-0.000032	0.000000	0.000000
45.423547	18.309310	14.446270	-0.052306	-0.113220	2.786019	0.000000	0.001587	0.000000	0.000316	-0.000031	0.000000	0.000000
45.720870	18.345255	14.519793	-0.116399	-0.096232	2.786500	0.000000	0.008849	0.000000	0.000307	-0.000030	0.000000	0.000000
46.269930	18.164155	14.906352	0.444264	-0.611959	2.768798	0.000000	-0.073301	0.000000	0.000288	-0.000039	0.000000	0.000000
46.818990	17.381042	15.879712	0.973545	-1.171274	2.706287	0.000000	-0.154151	0.000000	0.000264	-0.000048	0.000000	0.000000
47.368050	16.051233	17.509204	1.434057	-1.814018	2.600074	0.000000	-0.232267	0.000000	0.000235	-0.000056	0.000000	0.000000
47.917110	14.268663	19.910892	1.793274	-2.585970	2.452044	0.000000	-0.306265	0.000000	0.000202	-0.000064	0.000000	0.000000
48.363070	12.881231	22.046276	1.328831	-2.182177	2.330785	0.000000	-0.237947	0.000000	0.000175	-0.000059	0.000000	0.000000
48.804030	11.889427	23.756015	0.928868	-1.680371	2.240348	0.000000	-0.172736	0.000000	0.000150	-0.000054	0.000000	0.000000
49.244990	11.230385	24.987668	0.571343	-1.102110	2.178204	0.000000	-0.109492	0.000000	0.000127	-0.000051	0.000000	0.000000
49.685950	10.873995	25.685194	0.239922	-0.473704	2.143646	0.000000	-0.047494	0.000000	0.000105	-0.000048	0.000000	0.000000
50.128160	10.804107	25.816576	-0.054181	0.112963	2.136291	0.000000	0.008729	0.000000	0.000084	-0.000046	0.000000	0.000000
50.425482	10.844532	25.752871	-0.081781	0.101299	2.138899	0.000000	0.008729	0.000000	0.000071	-0.000046	0.000000	0.000000
50.758816	10.909367	25.689697	-0.112724	0.088223	2.141824	0.000000	0.008729	0.000000	0.000055	-0.000046	0.000000	0.000000
51.092149	10.994831	25.635241	-0.143667	0.075146	2.144749	0.000000	0.008729	0.000000	0.000040	-0.000046	0.000000	0.000000
51.426732	11.101135	25.589866	-0.084667	-0.145576	2.147663	0.000000	-0.008694	0.000000	0.000025	-0.000046	0.000000	0.000000
51.724055	11.159502	25.679960	-0.084278	-0.220426	2.145092	0.000000	-0.013954	0.000000	0.000011	-0.000046	0.000000	0.000000
52.165015	11.379463	25.588686	-0.416452	0.426627	2.152551	0.000000	0.047731	0.000000	-0.000009	-0.000046	0.000000	0.000000
52.605975	11.899625	24.933176	-0.767652	1.054269	2.187306	0.000000	0.109961	0.000000	-0.000029	-0.000046	0.000000	0.000000
53.046935	12.743752	23.743254	-1.153923	1.633943	2.249751	0.000000	0.173443	0.000000	-0.000050	-0.000047	0.000000	0.000000
53.487895	13.950410	22.073063	-1.592913	2.139273	2.340599	0.000000	0.238902	0.000000	-0.000071	-0.000049	0.000000	0.000000
53.933855	15.595399	19.973620	-2.108922	2.548601	2.462390	0.000000	0.307480	0.000000	-0.000093	-0.000051	0.000000	0.000000
54.482915	17.713170	17.611299	-1.725360	1.779285	2.611050	0.000000	0.233138	0.000000	-0.000120	-0.000048	0.000000	0.000000
55.031975	19.339924	16.019644	-1.219929	1.136704	2.717694	0.000000	0.154660	0.000000	-0.000145	-0.000043	0.000000	0.000000
55.581035	20.360756	15.085286	-0.628329	0.575087	2.780427	0.000000	0.073438	0.000000	-0.000168	-0.000038	0.000000	0.000000
56.130095	20.703563	14.741671	0.007651	0.054433	2.798138	0.000000	-0.009087	0.000000	-0.000187	-0.000032	0.000000	0.000000
56.428668	20.735662	14.692226	-0.060980	0.072588	2.797621	0.000000	-0.001765	0.000000	-0.000197	-0.000033	0.000000	0.000000
56.762001	20.781694	14.651436	-0.077116	0.049781	2.797044	0.000000	-0.001765	0.000000	-0.000208	-0.000033	0.000000	0.000000
57.095334	20.838483	14.625851	-0.093251	0.026974	2.796467	0.000000	-0.001765	0.000000	-0.000219	-0.000033	0.000000	0.000000
57.429918	20.906302	14.615461	-0.109446	0.004081	2.795887	0.000000	-0.001765	0.000000	-0.000230	-0.000033	0.000000	0.000000
57.727240	20.975663	14.619083	-0.178754	0.022004	2.795373	0.000000	0.005554	0.000000	-0.000240	-0.000034	0.000000	0.000000
58.276300	20.813971	14.875706	0.471482	-0.492151	2.775786	0.000000	-0.076851	0.000000	-0.000256	-0.000026	0.000000	0.000000
58.825360	19.952390	15.712753	1.088415	-1.041361	2.711258	0.000000	-0.157894	0.000000	-0.000268	-0.000017	0.000000	0.000000
59.374420	18.451778	17.189842	1.628468	-1.664744	2.602933	0.000000	-0.236136	0.000000	-0.000275	-0.000008	0.000000	0.000000
59.923480	16.418127	19.412184	2.053496	-2.406702	2.452732	0.000000	-0.310189	0.000000	-0.000277	0.000001	0.000000	0.000000
60.369440	14.826182	21.387492	1.528859	-2.003955	2.329698	0.000000	-0.241879	0.000000	-0.000278	-0.000007	0.000000	0.000000
60.810400	13.680884	22.943535	1.078285	-1.511394	2.237498	0.000000	-0.176719	0.000000	-0.000283	-0.000014	0.000000	0.000000
61.251360	12.909810	24.033083	0.676974	-0.950067	2.173563	0.000000	-0.113572	0.000000	-0.000290	-0.000021	0.000000	0.000000
61.692320	12.477733	24.606562	0.306593	-0.345513	2.137165	0.000000	-0.051718	0.000000	-0.000301	-0.000029	0.000000	0.000000
62.134530	12.364961	24.637344	-0.019470	0.214122	2.127896	0.000000	0.004313	0.000000	-0.000316	-0.000036	0.000000	0.000000
62.431853	12.383691	24.513770	-0.043524	0.201501	2.129189	0.000000	0.004313	0.000000	-0.000326	-0.000036	0.000000	0.000000
62.765186	12.421697	24.384153	-0.070493	0.187351	2.130638	0.000000	0.004313	0.000000	-0.000338	-0.000036	0.000000	0.000000
63.098520	12.477681	24.263969	-0.097461	0.173201	2.132088	0.000000	0.004313	0.000000	-0.000350	-0.000036	0.000000	0.000000
63.433103	12.551955	24.152821	-0.124530	0.158998	2.133543	0.000000	0.004313	0.000000	-0.000362	-0.000036	0.000000	0.000000
63.730426	12.633159	24.062026	-0.117495	0.087149	2.134836	0.000000	-0.000941	0.000000	-0.000373	-0.000035	0.000000	0.000000
64.171386	12.897514	23.720165	-0.484298	0.685170	2.147983	0.000000	0.060553	0.000000	-0.000391	-0.000045	0.000000	0.000000
64.612346	13.493854	22.862685	-0.873226	1.252016	2.188378	0.000000	0.122737	0.000000	-0.000413	-0.000055	0.000000	0.000000
65.053306	14.449421	21.528602	-1.302048	1.761897	2.256479	0.000000	0.186319	0.000000	-0.000440	-0.000066	0.000000	0.000000
65.494266	15.807870	19.778614	-1.790355	2.191613	2.353063	0.000000	0.252024	0.000000	-0.000471	-0.000078	0.000000	0.000000
65.940226	17.654443	17.667575	-2.365141	2.522360	2.480803	0.000000	0.321001	0.000000	-0.000509	-0.000091	0.000000	0.000000
66.489286	20.021118	15.305928	-1.919833	1.804316	2.636719	0.000000	0.245946	0.000000	-0.000554	-0.000073	0.000000	0.000000
67.038346	21.820989	13.657999	-1.338923	1.214789	2.750155	0.000000	0.166527	0.000000	-0.000589	-0.000055	0.000000	0.000000
67.587406	22.926928	12.606410	-0.663441	0.711787	2.819099	0.000000	0.084154	0.000000	-0.000614	-0.000035	0.000000	0.000000
68.136466	23.260821	12.076259	0.058901	0.259483	2.842329	0.000000	0.000287	0.000000	-0.000628	-0.000015	0.000000	0.000000
68.435038	23.265964	11.910375	-0.015030	0.264383	2.844648	0.000000	0.007753	0.000000	-0.000633	-0.000017	0.000000	0.000000
68.768372	23.280761	11.744101	-0.029361	0.234440	2.847238	0.000000	0.007753	0.000000	-0.000639	-0.000017	0.000000	0.000000
69.101705	23.305111	11.597788	-0.043691	0.204497	2.849828	0.000000	0.007753	0.000000	-0.000644	-0.000017	0.000000	0.000000
69.436288	23.339161	11.471001	-0.058075	0.174442	2.852428	0.000000	0.007753	0.000000	-0.000650	-0.000017	0.000000	0.000000
69.733611	23.377495	11.375211	-0.132273	0.177615	2.854738	0.000000	0.015253	0.000000	-0.000655	-0.000019	0.000000	0.000000
70.282671	23.121265	11.407915	0.596180	-0.237531	2.839924	0.000000	-0.069152	0.000000	-0.000660	0.000003	0.000000	0.000000
