#ParticleID	Turn	x[m]	xp	y[m]	yp	z[m]	dE[GeV]# s	beta_x	beta_y	alpha_x	alpha_y	D_x	D_y	D_px	D_py	orbit_x	orbit_px	orbit_y	orbit_py
0.300000	11.963050	25.326360	-0.019742	-0.021719	2.598866	0.000000	0.000350	0.000000	-0.000907	0.000786	0.000000	0.000000
0.601250	11.982534	25.343030	-0.044933	-0.033619	2.598734	0.000000	0.000350	0.000000	-0.000670	0.000786	0.000000	0.000000
0.898573	12.016645	25.366514	-0.040207	-0.107541	2.598605	0.000000	-0.006049	0.000000	-0.000436	0.000787	0.000000	0.000000
1.339533	12.206012	25.179823	-0.390595	0.529305	2.611786	0.000000	0.067401	0.000000	-0.000091	0.000781	0.000000	0.000000
1.780493	12.711073	24.439996	-0.758835	1.142072	2.657495	0.000000	0.141611	0.000000	0.000254	0.000783	0.000000	0.000000
2.221453	13.554909	23.180687	-1.161751	1.702877	2.736247	0.000000	0.217425	0.000000	0.000601	0.000794	0.000000	0.000000
2.662413	14.776084	21.459188	-1.617752	2.186204	2.848936	0.000000	0.295707	0.000000	0.000955	0.000814	0.000000	0.000000
3.108373	16.451490	19.328597	-2.152048	2.571231	2.998690	0.000000	0.377839	0.000000	0.001324	0.000843	0.000000	0.000000
3.657433	18.599119	16.935212	-1.735760	1.813460	3.180658	0.000000	0.285574	0.000000	0.001774	0.000793	0.000000	0.000000
4.206493	20.219163	15.298569	-1.196842	1.184860	3.310535	0.000000	0.188255	0.000000	0.002192	0.000729	0.000000	0.000000
4.755553	21.197160	14.302098	-0.573362	0.640657	3.386020	0.000000	0.087610	0.000000	0.002572	0.000652	0.000000	0.000000
5.304613	21.464001	13.874830	0.090635	0.142087	3.405781	0.000000	-0.014580	0.000000	0.002906	0.000563	0.000000	0.000000
5.603185	21.446699	13.775564	0.022000	0.155142	3.403849	0.000000	-0.005899	0.000000	0.003076	0.000570	0.000000	0.000000
5.936519	21.437216	13.680396	0.006450	0.130362	3.401693	0.000000	-0.005899	0.000000	0.003266	0.000570	0.000000	0.000000
6.269852	21.438099	13.601747	-0.009099	0.105582	3.399536	0.000000	-0.005899	0.000000	0.003456	0.000570	0.000000	0.000000
6.604435	21.449410	13.539417	-0.024708	0.080710	3.397371	0.000000	-0.005899	0.000000	0.003647	0.000570	0.000000	0.000000
6.901758	21.468235	13.497990	-0.092857	0.092848	3.395449	0.000000	0.002686	0.000000	0.003817	0.000580	0.000000	0.000000
7.450818	21.204092	13.657866	0.571379	-0.385733	3.368680	0.000000	-0.099059	0.000000	0.004101	0.000452	0.000000	0.000000
7.999878	20.228392	14.355231	1.195258	-0.891794	3.286516	0.000000	-0.199039	0.000000	0.004312	0.000316	0.000000	0.000000
8.548938	18.610061	15.639764	1.734701	-1.461384	3.150418	0.000000	-0.295483	0.000000	0.004446	0.000174	0.000000	0.000000
9.097998	16.463434	17.602976	2.151594	-2.135080	2.962802	0.000000	-0.386683	0.000000	0.004502	0.000029	0.000000	0.000000
9.543958	14.788652	19.352053	1.617032	-1.770148	2.808494	0.000000	-0.305519	0.000000	0.004541	0.000146	0.000000	0.000000
9.984918	13.568323	20.722644	1.160806	-1.326019	2.690808	0.000000	-0.228335	0.000000	0.004631	0.000264	0.000000	0.000000
10.425878	12.725567	21.673317	0.757623	-0.821548	2.606502	0.000000	-0.153754	0.000000	0.004774	0.000386	0.000000	0.000000
10.866838	12.221873	22.160808	0.389057	-0.279691	2.554614	0.000000	-0.080929	0.000000	0.004972	0.000511	0.000000	0.000000
11.309048	12.034071	22.162356	0.066196	0.223007	2.534534	0.000000	-0.014936	0.000000	0.005227	0.000630	0.000000	0.000000
11.606371	12.002086	22.033933	0.041381	0.208924	2.529906	0.000000	-0.014936	0.000000	0.005414	0.000630	0.000000	0.000000
12.086371	11.981589	21.844279	0.001320	0.186188	2.522434	0.000000	-0.014936	0.000000	0.005716	0.000630	0.000000	0.000000
12.566371	11.999552	21.676452	-0.038742	0.163453	2.514963	0.000000	-0.014936	0.000000	0.006019	0.000630	0.000000	0.000000
13.046371	12.055974	21.530450	-0.078803	0.140717	2.507491	0.000000	-0.014936	0.000000	0.006321	0.000630	0.000000	0.000000
13.526371	12.150855	21.406274	-0.118865	0.117982	2.500020	0.000000	-0.014936	0.000000	0.006624	0.000630	0.000000	0.000000
14.007621	12.284592	21.303686	-0.159031	0.095187	2.492529	0.000000	-0.014936	0.000000	0.006927	0.000630	0.000000	0.000000
14.304943	12.386519	21.251302	-0.155553	0.032744	2.487899	0.000000	-0.020618	0.000000	0.007114	0.000613	0.000000	0.000000
14.745903	12.682536	20.989988	-0.517973	0.557541	2.494050	0.000000	0.049901	0.000000	0.007426	0.000801	0.000000	0.000000
15.186863	13.307446	20.275256	-0.904072	1.056968	2.531313	0.000000	0.120981	0.000000	0.007822	0.000997	0.000000	0.000000
15.627823	14.289820	19.139624	-1.331497	1.508296	2.600109	0.000000	0.193428	0.000000	0.008307	0.001205	0.000000	0.000000
16.068783	15.674578	17.634765	-1.819788	1.890984	2.701217	0.000000	0.268066	0.000000	0.008887	0.001427	0.000000	0.000000
16.514743	17.548662	15.807557	-2.396200	2.188537	2.837482	0.000000	0.346233	0.000000	0.009576	0.001666	0.000000	0.000000
17.063803	19.954854	13.768146	-1.958789	1.547225	3.003231	0.000000	0.259431	0.000000	0.010404	0.001343	0.000000	0.000000
17.612863	21.801260	12.368748	-1.382929	1.016145	3.120162	0.000000	0.168046	0.000000	0.011046	0.000995	0.000000	0.000000
18.161923	22.957347	11.509676	-0.709317	0.557463	3.186209	0.000000	0.073697	0.000000	0.011493	0.000630	0.000000	0.000000
18.710983	23.341378	11.129732	0.014436	0.138497	3.200206	0.000000	-0.021950	0.000000	0.011736	0.000253	0.000000	0.000000
19.009556	23.369215	11.039721	-0.053181	0.137034	3.195805	0.000000	-0.014437	0.000000	0.011820	0.000283	0.000000	0.000000
19.342889	23.409437	10.958619	-0.067485	0.106273	3.190898	0.000000	-0.014437	0.000000	0.011915	0.000283	0.000000	0.000000
19.676223	23.459195	10.898024	-0.081789	0.075512	3.185992	0.000000	-0.014437	0.000000	0.012009	0.000283	0.000000	0.000000
20.010806	23.519021	10.857690	-0.212674	0.098432	3.181087	0.000000	0.001324	0.000000	0.012103	0.000343	0.000000	0.000000
20.308129	23.649519	10.807331	-0.281151	0.096098	3.181386	0.000000	0.008759	0.000000	0.012205	0.000373	0.000000	0.000000
20.857189	23.550566	10.921378	0.460392	-0.305000	3.160010	0.000000	-0.086161	0.000000	0.012301	-0.000024	0.000000	0.000000
21.406249	22.650143	11.485234	1.169398	-0.727831	3.087061	0.000000	-0.179552	0.000000	0.012179	-0.000421	0.000000	0.000000
21.955309	21.011904	12.539071	1.795752	-1.202519	2.963831	0.000000	-0.269763	0.000000	0.011840	-0.000810	0.000000	0.000000
22.504369	18.751665	14.157968	2.295181	-1.762886	2.792505	0.000000	-0.355202	0.000000	0.011291	-0.001185	0.000000	0.000000
22.950329	16.972424	15.612417	1.707289	-1.484137	2.651753	0.000000	-0.278249	0.000000	0.010827	-0.000898	0.000000	0.000000
23.391289	15.693875	16.773662	1.202384	-1.138888	2.545625	0.000000	-0.204947	0.000000	0.010492	-0.000623	0.000000	0.000000
23.832249	14.834912	17.606265	0.752443	-0.741806	2.471168	0.000000	-0.133973	0.000000	0.010277	-0.000355	0.000000	0.000000
24.273209	14.356261	18.072336	0.336898	-0.310963	2.427534	0.000000	-0.064521	0.000000	0.010178	-0.000092	0.000000	0.000000
24.715418	14.236161	18.150375	-0.031878	0.093813	2.414230	0.000000	-0.001138	0.000000	0.010196	0.000147	0.000000	0.000000
25.012741	14.261333	18.099503	-0.052785	0.077288	2.413848	0.000000	-0.001138	0.000000	0.010239	0.000147	0.000000	0.000000
25.346075	14.304336	18.054153	-0.076223	0.058761	2.413419	0.000000	-0.001138	0.000000	0.010288	0.000147	0.000000	0.000000
25.679408	14.362964	18.021155	-0.099661	0.040234	2.412991	0.000000	-0.001138	0.000000	0.010337	0.000147	0.000000	0.000000
26.013991	14.437233	18.000818	-0.006063	-0.124393	2.412536	0.000000	-0.020710	0.000000	0.010387	0.000063	0.000000	0.000000
26.311314	14.446916	18.079833	0.005189	-0.181012	2.406356	0.000000	-0.026015	0.000000	0.010405	0.000039	0.000000	0.000000
26.752274	14.620934	18.043634	-0.401191	0.262778	2.409887	0.000000	0.042374	0.000000	0.010482	0.000308	0.000000	0.000000
27.193234	15.160156	17.619787	-0.825912	0.694610	2.443540	0.000000	0.111242	0.000000	0.010677	0.000581	0.000000	0.000000
27.634194	16.089238	16.827578	-1.288390	1.094829	2.507698	0.000000	0.181372	0.000000	0.010995	0.000860	0.000000	0.000000
28.075154	17.450667	15.703057	-1.809767	1.445221	2.603090	0.000000	0.253559	0.000000	0.011437	0.001149	0.000000	0.000000
28.521114	19.330592	14.280296	-2.419035	1.730974	2.732416	0.000000	0.329103	0.000000	0.012018	0.001454	0.000000	0.000000
29.070174	21.721194	12.695906	-1.907657	1.171192	2.889853	0.000000	0.245835	0.000000	0.012707	0.001053	0.000000	0.000000
29.619234	23.472209	11.677159	-1.261435	0.694857	3.000518	0.000000	0.158222	0.000000	0.013171	0.000634	0.000000	0.000000
30.168294	24.459837	11.151478	-0.526046	0.268033	3.062454	0.000000	0.067811	0.000000	0.013401	0.000203	0.000000	0.000000
30.717354	24.614249	11.081413	0.246525	-0.139694	3.074564	0.000000	-0.023799	0.000000	0.013393	-0.000231	0.000000	0.000000
31.015927	24.504600	11.157735	0.177123	-0.141362	3.069629	0.000000	-0.016700	0.000000	0.013334	-0.000198	0.000000	0.000000
31.349260	24.391194	11.262133	0.163093	-0.171833	3.064128	0.000000	-0.016700	0.000000	0.013268	-0.000198	0.000000	0.000000
31.682593	24.287142	11.386846	0.149063	-0.202305	3.058628	0.000000	-0.016700	0.000000	0.013202	-0.000198	0.000000	0.000000
32.017177	24.192106	11.532455	0.134981	-0.232891	3.053107	0.000000	-0.016700	0.000000	0.013136	-0.000198	0.000000	0.000000
32.314499	24.115681	11.678965	0.066600	-0.233043	3.048208	0.000000	-0.009638	0.000000	0.013077	-0.000166	0.000000	0.000000
32.863559	23.629655	12.173382	0.812934	-0.672585	3.018229	0.000000	-0.100103	0.000000	0.012870	-0.000586	0.000000	0.000000
33.412619	22.350636	13.173882	1.501801	-1.160048	2.939201	0.000000	-0.188802	0.000000	0.012435	-0.000996	0.000000	0.000000
33.961679	20.369056	14.751742	2.084509	-1.730165	2.812523	0.000000	-0.274167	0.000000	0.011779	-0.001389	0.000000	0.000000
34.510739	17.825016	17.019365	2.519874	-2.423552	2.640432	0.000000	-0.354690	0.000000	0.010914	-0.001756	0.000000	0.000000
34.956699	15.848526	19.048090	1.926407	-2.105804	2.499278	0.000000	-0.281695	0.000000	0.010192	-0.001483	0.000000	0.000000
35.397659	14.375301	20.729938	1.426156	-1.693198	2.391014	0.000000	-0.212354	0.000000	0.009595	-0.001227	0.000000	0.000000
35.838619	13.313082	22.012333	0.991100	-1.203534	2.312667	0.000000	-0.145420	0.000000	0.009108	-0.000986	0.000000	0.000000
36.279579	12.613298	22.836923	0.601351	-0.659100	2.263350	0.000000	-0.080131	0.000000	0.008724	-0.000756	0.000000	0.000000
36.721789	12.243310	23.166484	0.266559	-0.136730	2.242480	0.000000	-0.020798	0.000000	0.008438	-0.000555	0.000000	0.000000
37.019112	12.092536	23.251677	0.240549	-0.149804	2.236461	0.000000	-0.020798	0.000000	0.008273	-0.000555	0.000000	0.000000
37.352445	11.941890	23.356432	0.211389	-0.164462	2.229714	0.000000	-0.020798	0.000000	0.008088	-0.000555	0.000000	0.000000
37.685779	11.810684	23.470959	0.182228	-0.179119	2.222966	0.000000	-0.020798	0.000000	0.007903	-0.000555	0.000000	0.000000
38.020362	11.698536	23.595743	0.152959	-0.193832	2.216193	0.000000	-0.020798	0.000000	0.007718	-0.000555	0.000000	0.000000
38.317684	11.615294	23.714931	0.153360	-0.261018	2.210172	0.000000	-0.025824	0.000000	0.007553	-0.000573	0.000000	0.000000
38.758644	11.628843	23.682319	-0.184358	0.334685	2.212946	0.000000	0.037491	0.000000	0.007343	-0.000381	0.000000	0.000000
39.199604	11.942864	23.129027	-0.530498	0.915155	2.243629	0.000000	0.101238	0.000000	0.007216	-0.000193	0.000000	0.000000
39.640564	12.571709	22.080236	-0.900882	1.453977	2.302573	0.000000	0.166139	0.000000	0.007172	-0.000008	0.000000	0.000000
40.081524	13.544118	20.583674	-1.312437	1.926630	2.390450	0.000000	0.232934	0.000000	0.007209	0.000178	0.000000	0.000000
40.527484	14.922092	18.684707	-1.787912	2.313093	2.509746	0.000000	0.302809	0.000000	0.007331	0.000366	0.000000	0.000000
41.076544	16.683217	16.550190	-1.400174	1.597030	2.655284	0.000000	0.226965	0.000000	0.007466	0.000127	0.000000	0.000000
41.625604	17.961269	15.135351	-0.913502	0.994744	2.758134	0.000000	0.147096	0.000000	0.007469	-0.000115	0.000000	0.000000
42.174664	18.665933	14.339397	-0.362287	0.463328	2.816472	0.000000	0.064616	0.000000	0.007340	-0.000355	0.000000	0.000000
42.723724	18.747417	14.105618	0.214520	-0.035079	2.829260	0.000000	-0.019016	0.000000	0.007080	-0.000589	0.000000	0.000000
43.022297	18.651661	14.112157	0.152121	-0.021498	2.825824	0.000000	-0.012071	0.000000	0.006910	-0.000571	0.000000	0.000000
43.502297	18.518263	14.149128	0.125791	-0.055527	2.820304	0.000000	-0.012071	0.000000	0.006635	-0.000571	0.000000	0.000000
43.982297	18.410142	14.218768	0.099460	-0.089556	2.814785	0.000000	-0.012071	0.000000	0.006361	-0.000571	0.000000	0.000000
44.462297	18.327299	14.321075	0.073130	-0.123585	2.809265	0.000000	-0.012071	0.000000	0.006087	-0.000571	0.000000	0.000000
44.942297	18.269733	14.456050	0.046799	-0.157613	2.803745	0.000000	-0.012071	0.000000	0.005813	-0.000571	0.000000	0.000000
45.423547	18.237619	14.623991	-0.069959	-0.119275	2.798228	0.000000	0.001793	0.000000	0.005538	-0.000544	0.000000	0.000000
45.720870	18.284106	14.701036	-0.131933	-0.103352	2.798924	0.000000	0.008772	0.000000	0.005377	-0.000530	0.000000	0.000000
46.269930	18.120840	15.098551	0.427185	-0.624860	2.781370	0.000000	-0.073795	0.000000	0.005039	-0.000699	0.000000	0.000000
46.818990	17.356534	16.089719	0.956109	-1.190880	2.718855	0.000000	-0.155064	0.000000	0.004612	-0.000855	0.000000	0.000000
47.368050	16.045206	17.745135	1.417470	-1.841730	2.612483	0.000000	-0.233597	0.000000	0.004103	-0.000996	0.000000	0.000000
47.917110	14.279527	20.182709	1.778674	-2.623772	2.464132	0.000000	-0.308001	0.000000	0.003521	-0.001120	0.000000	0.000000
48.363070	12.904375	22.349346	1.315267	-2.213975	2.342602	0.000000	-0.239360	0.000000	0.003041	-0.001035	0.000000	0.000000
48.804030	11.924097	24.084051	0.915774	-1.704823	2.252007	0.000000	-0.173843	0.000000	0.002601	-0.000962	0.000000	0.000000
49.244990	11.276463	25.333646	0.558131	-1.118101	2.189814	0.000000	-0.110296	0.000000	0.002191	-0.000900	0.000000	0.000000
49.685950	10.931869	26.041281	0.225997	-0.480506	2.155319	0.000000	-0.047995	0.000000	0.001806	-0.000849	0.000000	0.000000
50.128160	10.874736	26.174476	-0.069618	0.115891	2.148145	0.000000	0.008572	0.000000	0.001440	-0.000810	0.000000	0.000000
50.425482	10.924303	26.108984	-0.097091	0.104379	2.150934	0.000000	0.008572	0.000000	0.001199	-0.000810	0.000000	0.000000
50.758816	10.999298	26.043700	-0.127892	0.091473	2.154061	0.000000	0.008572	0.000000	0.000929	-0.000810	0.000000	0.000000
51.092149	11.094826	25.987021	-0.158693	0.078567	2.157189	0.000000	0.008572	0.000000	0.000659	-0.000810	0.000000	0.000000
51.426732	11.211135	25.939307	-0.098657	-0.144820	2.160306	0.000000	-0.008954	0.000000	0.000388	-0.000813	0.000000	0.000000
51.724055	11.277762	26.028903	-0.097817	-0.220567	2.157886	0.000000	-0.014238	0.000000	0.000146	-0.000814	0.000000	0.000000
52.165015	11.510853	25.933678	-0.433050	0.435695	2.165621	0.000000	0.047780	0.000000	-0.000213	-0.000815	0.000000	0.000000
52.605975	12.047156	25.266252	-0.788062	1.072129	2.200803	0.000000	0.110352	0.000000	-0.000574	-0.000825	0.000000	0.000000
53.046935	12.911165	24.056999	-1.179070	1.659781	2.263834	0.000000	0.174190	0.000000	-0.000941	-0.000844	0.000000	0.000000
53.487895	14.142345	22.360948	-1.623938	2.171913	2.355436	0.000000	0.240020	0.000000	-0.001320	-0.000873	0.000000	0.000000
53.933855	15.817978	20.229928	-2.147262	2.586536	2.478173	0.000000	0.308990	0.000000	-0.001718	-0.000913	0.000000	0.000000
54.482915	17.974781	17.831550	-1.758192	1.807520	2.627957	0.000000	0.234124	0.000000	-0.002202	-0.000849	0.000000	0.000000
55.031975	19.633214	16.213323	-1.244960	1.157247	2.735392	0.000000	0.155092	0.000000	-0.002647	-0.000771	0.000000	0.000000
55.581035	20.676167	15.259975	-0.643816	0.589399	2.798565	0.000000	0.073297	0.000000	-0.003046	-0.000679	0.000000	0.000000
56.130095	21.030004	14.903597	0.002785	0.063532	2.816350	0.000000	-0.009809	0.000000	-0.003390	-0.000574	0.000000	0.000000
56.428668	21.066322	14.847729	-0.067949	0.083441	2.815854	0.000000	-0.002243	0.000000	-0.003564	-0.000583	0.000000	0.000000
56.762001	21.116920	14.799638	-0.083845	0.060835	2.815300	0.000000	-0.002243	0.000000	-0.003759	-0.000583	0.000000	0.000000
57.095334	21.178115	14.766617	-0.099741	0.038228	2.814747	0.000000	-0.002243	0.000000	-0.003953	-0.000583	0.000000	0.000000
57.429918	21.250197	14.748628	-0.115697	0.015537	2.814192	0.000000	-0.002243	0.000000	-0.004148	-0.000583	0.000000	0.000000
57.727240	21.323224	14.745376	-0.187582	0.035155	2.813699	0.000000	0.005371	0.000000	-0.004322	-0.000595	0.000000	0.000000
58.276300	21.164670	14.989442	0.474347	-0.482323	2.794113	0.000000	-0.077617	0.000000	-0.004609	-0.000450	0.000000	0.000000
58.825360	20.293519	15.817135	1.102768	-1.034149	2.729196	0.000000	-0.159236	0.000000	-0.004815	-0.000297	0.000000	0.000000
59.374420	18.771298	17.287398	1.653305	-1.659624	2.620096	0.000000	-0.238036	0.000000	-0.004935	-0.000139	0.000000	0.000000
59.923480	16.705503	19.504937	2.087082	-2.403293	2.468744	0.000000	-0.312616	0.000000	-0.004967	0.000021	0.000000	0.000000
60.369440	15.087253	21.475660	1.554573	-1.997275	2.344735	0.000000	-0.243926	0.000000	-0.004987	-0.000108	0.000000	0.000000
60.810400	13.922376	23.024337	1.097248	-1.501671	2.251790	0.000000	-0.178397	0.000000	-0.005063	-0.000238	0.000000	0.000000
61.251360	13.137235	24.104055	0.690045	-0.937753	2.187321	0.000000	-0.114897	0.000000	-0.005197	-0.000370	0.000000	0.000000
61.692320	12.695967	24.665696	0.314364	-0.331175	2.150593	0.000000	-0.052701	0.000000	-0.005390	-0.000506	0.000000	0.000000
62.134530	12.578462	24.683123	-0.014585	0.226931	2.141198	0.000000	0.003373	0.000000	-0.005645	-0.000634	0.000000	0.000000
62.431853	12.594164	24.551945	-0.038227	0.214265	2.142390	0.000000	0.003373	0.000000	-0.005833	-0.000634	0.000000	0.000000
62.765186	12.628484	24.413836	-0.064733	0.200065	2.143725	0.000000	0.003373	0.000000	-0.006045	-0.000634	0.000000	0.000000
63.098520	12.680475	24.285192	-0.091239	0.185865	2.145061	0.000000	0.003373	0.000000	-0.006256	-0.000634	0.000000	0.000000
63.433103	12.750431	24.165587	-0.117845	0.171612	2.146402	0.000000	0.003373	0.000000	-0.006469	-0.000634	0.000000	0.000000
63.730426	12.827519	24.067336	-0.108086	0.096060	2.147592	0.000000	-0.002219	0.000000	-0.006657	-0.000618	0.000000	0.000000
64.171386	13.085304	23.717683	-0.479046	0.693935	2.160529	0.000000	0.059590	0.000000	-0.006968	-0.000793	0.000000	0.000000
64.612346	13.678549	22.852767	-0.871879	1.260240	2.200920	0.000000	0.122087	0.000000	-0.007358	-0.000978	0.000000	0.000000
65.053306	14.634337	21.511942	-1.304525	1.769213	2.269231	0.000000	0.185985	0.000000	-0.007832	-0.001174	0.000000	0.000000
65.494266	15.996305	19.756212	-1.796740	2.197703	2.366241	0.000000	0.252012	0.000000	-0.008395	-0.001383	0.000000	0.000000
65.940226	17.849961	17.640582	-2.375505	2.526778	2.494648	0.000000	0.321298	0.000000	-0.009061	-0.001609	0.000000	0.000000
66.489286	20.223403	15.274373	-1.923012	1.808798	2.651316	0.000000	0.245806	0.000000	-0.009862	-0.001302	0.000000	0.000000
67.038346	22.022131	13.621580	-1.334772	1.219626	2.765103	0.000000	0.165934	0.000000	-0.010487	-0.000973	0.000000	0.000000
67.587406	23.119202	12.564491	-0.652313	0.717302	2.833985	0.000000	0.083104	0.000000	-0.010927	-0.000626	0.000000	0.000000
68.136466	23.437198	12.027820	0.076186	0.266057	2.856733	0.000000	-0.001210	0.000000	-0.011172	-0.000268	0.000000	0.000000
68.435038	23.435312	11.856571	-0.003356	0.273321	2.858887	0.000000	0.006933	0.000000	-0.011262	-0.000299	0.000000	0.000000
68.768372	23.442291	11.684429	-0.017580	0.243107	2.861297	0.000000	0.006933	0.000000	-0.011361	-0.000299	0.000000	0.000000
69.101705	23.458753	11.532429	-0.031804	0.212893	2.863707	0.000000	0.006933	0.000000	-0.011461	-0.000299	0.000000	0.000000
69.436288	23.484812	11.400115	-0.046081	0.182565	2.866127	0.000000	0.006933	0.000000	-0.011560	-0.000299	0.000000	0.000000
69.733611	23.516079	11.299522	-0.126021	0.187880	2.868283	0.000000	0.015136	0.000000	-0.011649	-0.000330	0.000000	0.000000
70.282671	23.250641	11.319718	0.606587	-0.224887	2.853364	0.000000	-0.069678	0.000000	-0.011727	0.000048	0.000000	0.000000
