#ParticleID	Turn	x[m]	xp	y[m]	yp	z[m]	dE[GeV]# s	beta_x	beta_y	alpha_x	alpha_y	D_x	D_y	D_px	D_py	orbit_x	orbit_px	orbit_y	orbit_py
0.300000	11.931224	25.252863	-0.019581	-0.022589	2.603778	0.000000	0.000643	0.000000	-0.000586	0.000513	0.000000	0.000000
0.601250	11.950630	25.270069	-0.044839	-0.034525	2.603817	0.000000	0.000643	0.000000	-0.000431	0.000513	0.000000	0.000000
0.898573	11.984706	25.294101	-0.040301	-0.108311	2.603856	0.000000	-0.005759	0.000000	-0.000279	0.000514	0.000000	0.000000
1.339533	12.173794	25.108931	-0.389961	0.526640	2.617312	0.000000	0.067830	0.000000	-0.000053	0.000509	0.000000	0.000000
1.780493	12.677920	24.372250	-0.757441	1.137631	2.663356	0.000000	0.142186	0.000000	0.000171	0.000511	0.000000	0.000000
2.221453	13.520121	23.117572	-1.159531	1.696863	2.742512	0.000000	0.218157	0.000000	0.000398	0.000518	0.000000	0.000000
2.662413	14.738882	21.401979	-1.614602	2.178889	2.855678	0.000000	0.296606	0.000000	0.000629	0.000531	0.000000	0.000000
3.108373	16.410936	19.278388	-2.147803	2.562935	3.005995	0.000000	0.378919	0.000000	0.000870	0.000551	0.000000	0.000000
3.657433	18.554503	16.892984	-1.732827	1.807169	3.188637	0.000000	0.286408	0.000000	0.001164	0.000518	0.000000	0.000000
4.206493	20.172053	15.262375	-1.195437	1.180126	3.319037	0.000000	0.188825	0.000000	0.001437	0.000476	0.000000	0.000000
4.755553	21.149309	14.270419	-0.573592	0.637142	3.394884	0.000000	0.087901	0.000000	0.001685	0.000425	0.000000	0.000000
5.304613	21.417225	13.846466	0.088781	0.139540	3.414837	0.000000	-0.014576	0.000000	0.001903	0.000367	0.000000	0.000000
5.603185	21.401255	13.748563	0.019761	0.152842	3.412995	0.000000	-0.005796	0.000000	0.002014	0.000372	0.000000	0.000000
5.936519	21.393275	13.654939	0.004180	0.128030	3.410939	0.000000	-0.005796	0.000000	0.002138	0.000372	0.000000	0.000000
6.269852	21.395682	13.577856	-0.011402	0.103219	3.408883	0.000000	-0.005796	0.000000	0.002262	0.000372	0.000000	0.000000
6.604435	21.408545	13.517118	-0.027042	0.078315	3.406819	0.000000	-0.005796	0.000000	0.002386	0.000372	0.000000	0.000000
6.901758	21.428761	13.477126	-0.095749	0.090728	3.404986	0.000000	0.002913	0.000000	0.002497	0.000378	0.000000	0.000000
7.450818	21.168448	13.639005	0.567239	-0.387286	3.378352	0.000000	-0.099139	0.000000	0.002682	0.000295	0.000000	0.000000
7.999878	20.197827	14.337800	1.190161	-0.892889	3.296132	0.000000	-0.199427	0.000000	0.002819	0.000205	0.000000	0.000000
8.548938	18.585463	15.623293	1.729011	-1.462097	3.159785	0.000000	-0.296174	0.000000	0.002907	0.000113	0.000000	0.000000
9.097998	16.445262	17.587056	2.145720	-2.135456	2.971731	0.000000	-0.387666	0.000000	0.002943	0.000018	0.000000	0.000000
9.543958	14.775328	19.336704	1.612067	-1.771142	2.817051	0.000000	-0.306285	0.000000	0.002968	0.000095	0.000000	0.000000
9.984918	13.559098	20.708382	1.156476	-1.327550	2.699107	0.000000	-0.228887	0.000000	0.003026	0.000172	0.000000	0.000000
10.425878	12.719956	21.660596	0.753727	-0.823549	2.614654	0.000000	-0.154098	0.000000	0.003119	0.000251	0.000000	0.000000
10.866838	12.219561	22.150016	0.385416	-0.282073	2.562728	0.000000	-0.081066	0.000000	0.003248	0.000333	0.000000	0.000000
11.309048	12.034895	22.153812	0.063162	0.219489	2.542718	0.000000	-0.014994	0.000000	0.003414	0.000411	0.000000	0.000000
11.606371	12.004711	22.027477	0.038358	0.205421	2.538138	0.000000	-0.014994	0.000000	0.003536	0.000411	0.000000	0.000000
12.086371	11.987108	21.841174	-0.001685	0.182711	2.530744	0.000000	-0.014994	0.000000	0.003733	0.000411	0.000000	0.000000
12.566371	12.007946	21.676672	-0.041728	0.160000	2.523350	0.000000	-0.014994	0.000000	0.003931	0.000411	0.000000	0.000000
13.046371	12.067225	21.533973	-0.081771	0.137290	2.515955	0.000000	-0.014994	0.000000	0.004128	0.000411	0.000000	0.000000
13.526371	12.164946	21.413076	-0.121814	0.114579	2.508561	0.000000	-0.014994	0.000000	0.004325	0.000411	0.000000	0.000000
14.007621	12.301513	21.313751	-0.161962	0.091810	2.501147	0.000000	-0.014994	0.000000	0.004522	0.000411	0.000000	0.000000
14.304943	12.405190	21.263353	-0.157697	0.028036	2.496566	0.000000	-0.020844	0.000000	0.004645	0.000400	0.000000	0.000000
14.745903	12.703251	21.006033	-0.520594	0.553249	2.502770	0.000000	0.049895	0.000000	0.004848	0.000522	0.000000	0.000000
15.186863	13.330649	20.294858	-0.907285	1.053288	2.540211	0.000000	0.121197	0.000000	0.005106	0.000650	0.000000	0.000000
15.627823	14.316063	19.162184	-1.335442	1.505398	2.609312	0.000000	0.193872	0.000000	0.005422	0.000786	0.000000	0.000000
16.068783	15.704536	17.659548	-1.824633	1.889005	2.710858	0.000000	0.268748	0.000000	0.005800	0.000931	0.000000	0.000000
16.514743	17.583155	15.833799	-2.402094	2.187504	2.847702	0.000000	0.347157	0.000000	0.006250	0.001087	0.000000	0.000000
17.063803	19.995143	13.795817	-1.963895	1.545824	3.014135	0.000000	0.260023	0.000000	0.006790	0.000876	0.000000	0.000000
17.612863	21.846338	12.398283	-1.386918	1.014267	3.131503	0.000000	0.168289	0.000000	0.007209	0.000649	0.000000	0.000000
18.161923	23.005907	11.541646	-0.711932	0.554967	3.197730	0.000000	0.073581	0.000000	0.007500	0.000411	0.000000	0.000000
18.710983	23.391892	11.164886	0.013367	0.135202	3.211644	0.000000	-0.022427	0.000000	0.007658	0.000165	0.000000	0.000000
19.009556	23.421796	11.076102	-0.056539	0.134989	3.207232	0.000000	-0.014585	0.000000	0.007713	0.000184	0.000000	0.000000
19.342889	23.464247	10.996323	-0.070816	0.104346	3.202309	0.000000	-0.014585	0.000000	0.007775	0.000184	0.000000	0.000000
19.676223	23.516217	10.936973	-0.085093	0.073703	3.197386	0.000000	-0.014585	0.000000	0.007836	0.000184	0.000000	0.000000
20.010806	23.578245	10.897810	-0.216244	0.096939	3.192464	0.000000	0.001233	0.000000	0.007898	0.000223	0.000000	0.000000
20.308129	23.710802	10.848333	-0.287172	0.095852	3.192767	0.000000	0.009006	0.000000	0.007964	0.000244	0.000000	0.000000
20.857189	23.617343	10.963255	0.456439	-0.306370	3.171462	0.000000	-0.086271	0.000000	0.008027	-0.000016	0.000000	0.000000
21.406249	22.720072	11.529237	1.167798	-0.730418	3.098318	0.000000	-0.180018	0.000000	0.007947	-0.000274	0.000000	0.000000
21.955309	21.082403	12.586600	1.796635	-1.206504	2.974632	0.000000	-0.270575	0.000000	0.007726	-0.000528	0.000000	0.000000
22.504369	18.820077	14.210667	2.298514	-1.768542	2.802596	0.000000	-0.356341	0.000000	0.007369	-0.000773	0.000000	0.000000
22.950329	17.038731	15.669509	1.709222	-1.488552	2.661245	0.000000	-0.279153	0.000000	0.007066	-0.000586	0.000000	0.000000
23.391289	15.759223	16.833933	1.202909	-1.141794	2.554664	0.000000	-0.205619	0.000000	0.006847	-0.000406	0.000000	0.000000
23.832249	14.900487	17.668342	0.751574	-0.743076	2.479891	0.000000	-0.134422	0.000000	0.006707	-0.000232	0.000000	0.000000
24.273209	14.423271	18.134765	0.334589	-0.310543	2.436076	0.000000	-0.064754	0.000000	0.006643	-0.000059	0.000000	0.000000
24.715418	14.305865	18.211720	-0.034356	0.094222	2.422720	0.000000	-0.001385	0.000000	0.006654	0.000096	0.000000	0.000000
25.012741	14.332482	18.160589	-0.055164	0.077751	2.422280	0.000000	-0.001385	0.000000	0.006683	0.000096	0.000000	0.000000
25.346075	14.377034	18.114910	-0.078492	0.059285	2.421786	0.000000	-0.001385	0.000000	0.006715	0.000096	0.000000	0.000000
25.679408	14.437137	18.081542	-0.101820	0.040819	2.421293	0.000000	-0.001385	0.000000	0.006747	0.000096	0.000000	0.000000
26.013991	14.512812	18.060794	-0.007498	-0.124234	2.420773	0.000000	-0.021023	0.000000	0.006779	0.000041	0.000000	0.000000
26.311314	14.523342	18.139664	0.005302	-0.182520	2.414508	0.000000	-0.026558	0.000000	0.006791	0.000025	0.000000	0.000000
26.752274	14.698025	18.104086	-0.402860	0.262889	2.417869	0.000000	0.042033	0.000000	0.006841	0.000201	0.000000	0.000000
27.193234	15.239471	17.679448	-0.829436	0.696335	2.451480	0.000000	0.111100	0.000000	0.006969	0.000379	0.000000	0.000000
27.634194	16.172434	16.885074	-1.293921	1.098093	2.515722	0.000000	0.181429	0.000000	0.007176	0.000561	0.000000	0.000000
28.075154	17.539561	15.757109	-1.817545	1.449880	2.611326	0.000000	0.253818	0.000000	0.007465	0.000750	0.000000	0.000000
28.521114	19.427232	14.329806	-2.429323	1.736740	2.740994	0.000000	0.329561	0.000000	0.007843	0.000948	0.000000	0.000000
29.070174	21.827285	12.740099	-1.915008	1.175342	2.898827	0.000000	0.246020	0.000000	0.008293	0.000687	0.000000	0.000000
29.619234	23.584312	11.717612	-1.265364	0.697677	3.009664	0.000000	0.158126	0.000000	0.008595	0.000413	0.000000	0.000000
30.168294	24.574129	11.189506	-0.526298	0.269718	3.071542	0.000000	0.067433	0.000000	0.008745	0.000132	0.000000	0.000000
30.717354	24.726775	11.118161	0.249959	-0.139026	3.083365	0.000000	-0.024454	0.000000	0.008740	-0.000151	0.000000	0.000000
31.015927	24.616881	11.193262	0.177684	-0.139321	3.078324	0.000000	-0.017002	0.000000	0.008702	-0.000129	0.000000	0.000000
31.349260	24.503082	11.296262	0.163715	-0.169679	3.072699	0.000000	-0.017002	0.000000	0.008659	-0.000129	0.000000	0.000000
31.682593	24.398594	11.419501	0.149747	-0.200037	3.067075	0.000000	-0.017002	0.000000	0.008616	-0.000129	0.000000	0.000000
32.017177	24.303080	11.563554	0.135726	-0.230508	3.061430	0.000000	-0.017002	0.000000	0.008573	-0.000129	0.000000	0.000000
32.314499	24.226127	11.708651	0.064597	-0.229250	3.056416	0.000000	-0.009600	0.000000	0.008534	-0.000107	0.000000	0.000000
32.863559	23.740396	12.199218	0.814548	-0.669385	3.026321	0.000000	-0.100317	0.000000	0.008400	-0.000382	0.000000	0.000000
33.412619	22.457831	13.196359	1.506933	-1.157208	2.946969	0.000000	-0.189261	0.000000	0.008116	-0.000649	0.000000	0.000000
33.961679	20.469084	14.771104	2.092825	-1.727474	2.819763	0.000000	-0.274857	0.000000	0.007689	-0.000906	0.000000	0.000000
34.510739	17.914718	17.035632	2.530822	-2.420806	2.646955	0.000000	-0.355592	0.000000	0.007125	-0.001146	0.000000	0.000000
34.956699	15.929855	19.061418	1.934919	-2.102313	2.505202	0.000000	-0.282451	0.000000	0.006654	-0.000967	0.000000	0.000000
35.397659	14.450245	20.739796	1.432545	-1.689041	2.396440	0.000000	-0.212970	0.000000	0.006265	-0.000800	0.000000	0.000000
35.838619	13.383338	22.018243	0.995646	-1.198907	2.317690	0.000000	-0.145906	0.000000	0.005947	-0.000643	0.000000	0.000000
36.279579	12.680363	22.838587	0.604252	-0.654217	2.268058	0.000000	-0.080497	0.000000	0.005697	-0.000493	0.000000	0.000000
36.721789	12.308523	23.163816	0.268955	-0.133500	2.246955	0.000000	-0.021219	0.000000	0.005511	-0.000361	0.000000	0.000000
37.019112	12.156292	23.247085	0.243052	-0.146564	2.240753	0.000000	-0.021219	0.000000	0.005404	-0.000361	0.000000	0.000000
37.352445	12.003937	23.349677	0.214012	-0.161211	2.233801	0.000000	-0.021219	0.000000	0.005283	-0.000361	0.000000	0.000000
37.685779	11.870943	23.462033	0.184971	-0.175857	2.226848	0.000000	-0.021219	0.000000	0.005163	-0.000361	0.000000	0.000000
38.020362	11.756919	23.584630	0.155822	-0.190559	2.219869	0.000000	-0.021219	0.000000	0.005042	-0.000361	0.000000	0.000000
38.317684	11.671954	23.701846	0.157190	-0.259126	2.213667	0.000000	-0.026392	0.000000	0.004934	-0.000373	0.000000	0.000000
38.758644	11.682696	23.667735	-0.181746	0.336183	2.216137	0.000000	0.037006	0.000000	0.004797	-0.000248	0.000000	0.000000
39.199604	11.994909	23.113340	-0.528985	0.916193	2.246579	0.000000	0.100827	0.000000	0.004715	-0.000125	0.000000	0.000000
39.640564	12.622858	22.063891	-0.900395	1.454510	2.305340	0.000000	0.165798	0.000000	0.004687	-0.000004	0.000000	0.000000
40.081524	13.595240	20.567142	-1.312951	1.926640	2.393090	0.000000	0.232658	0.000000	0.004712	0.000117	0.000000	0.000000
40.527484	14.974027	18.668514	-1.789400	2.312516	2.512310	0.000000	0.302588	0.000000	0.004792	0.000240	0.000000	0.000000
41.076544	16.735597	16.534459	-1.399649	1.596901	2.657745	0.000000	0.226669	0.000000	0.004881	0.000084	0.000000	0.000000
41.625604	18.011935	15.119579	-0.911012	0.995045	2.760411	0.000000	0.146730	0.000000	0.004883	-0.000074	0.000000	0.000000
42.174664	18.712861	14.323082	-0.358014	0.464074	2.818484	0.000000	0.064187	0.000000	0.004799	-0.000231	0.000000	0.000000
42.723724	18.788854	14.088227	0.220273	-0.033837	2.830934	0.000000	-0.019499	0.000000	0.004630	-0.000384	0.000000	0.000000
43.022297	18.690357	14.093605	0.156743	-0.019588	2.827344	0.000000	-0.012393	0.000000	0.004519	-0.000372	0.000000	0.000000
43.502297	18.552514	14.128763	0.130430	-0.053659	2.821574	0.000000	-0.012393	0.000000	0.004340	-0.000372	0.000000	0.000000
43.982297	18.439931	14.196630	0.104118	-0.087730	2.815804	0.000000	-0.012393	0.000000	0.004162	-0.000372	0.000000	0.000000
44.462297	18.352608	14.297205	0.077805	-0.121801	2.810034	0.000000	-0.012393	0.000000	0.003983	-0.000372	0.000000	0.000000
44.942297	18.290545	14.430488	0.051492	-0.155872	2.804264	0.000000	-0.012393	0.000000	0.003804	-0.000372	0.000000	0.000000
45.423547	18.253906	14.596773	-0.065329	-0.117710	2.798497	0.000000	0.001473	0.000000	0.003625	-0.000354	0.000000	0.000000
45.720870	18.297623	14.672904	-0.128072	-0.101238	2.799041	0.000000	0.008569	0.000000	0.003520	-0.000345	0.000000	0.000000
46.269930	18.129982	15.067583	0.431365	-0.621797	2.781264	0.000000	-0.073994	0.000000	0.003300	-0.000456	0.000000	0.000000
46.818990	17.361134	16.054744	0.960321	-1.186647	2.718501	0.000000	-0.155252	0.000000	0.003021	-0.000558	0.000000	0.000000
47.368050	16.045410	17.704699	1.421426	-1.836024	2.611863	0.000000	-0.233764	0.000000	0.002689	-0.000651	0.000000	0.000000
47.917110	14.275774	20.134969	1.782106	-2.616183	2.463236	0.000000	-0.308141	0.000000	0.002309	-0.000732	0.000000	0.000000
48.363070	12.897754	22.295219	1.318487	-2.207376	2.341479	0.000000	-0.239530	0.000000	0.001995	-0.000676	0.000000	0.000000
48.804030	11.914754	24.024613	0.918908	-1.699481	2.250656	0.000000	-0.174046	0.000000	0.001708	-0.000628	0.000000	0.000000
49.244990	11.264396	25.270128	0.561319	-1.114259	2.188228	0.000000	-0.110538	0.000000	0.001440	-0.000587	0.000000	0.000000
49.685950	10.916961	25.975096	0.229381	-0.478339	2.153487	0.000000	-0.048283	0.000000	0.001189	-0.000554	0.000000	0.000000
50.128160	10.856733	26.107156	-0.065805	0.116044	2.146051	0.000000	0.008214	0.000000	0.000950	-0.000528	0.000000	0.000000
50.425482	10.904042	26.041583	-0.093310	0.104502	2.148650	0.000000	0.008214	0.000000	0.000793	-0.000528	0.000000	0.000000
50.758816	10.976527	25.976229	-0.124146	0.091562	2.151564	0.000000	0.008214	0.000000	0.000617	-0.000528	0.000000	0.000000
51.092149	11.069569	25.919501	-0.154982	0.078622	2.154478	0.000000	0.008214	0.000000	0.000441	-0.000528	0.000000	0.000000
51.426732	11.183407	25.871760	-0.095206	-0.144251	2.157381	0.000000	-0.009288	0.000000	0.000264	-0.000530	0.000000	0.000000
51.724055	11.247997	25.961026	-0.094478	-0.219778	2.154777	0.000000	-0.014567	0.000000	0.000107	-0.000531	0.000000	0.000000
52.165015	11.477856	25.865900	-0.428941	0.434681	2.162229	0.000000	0.047368	0.000000	-0.000127	-0.000531	0.000000	0.000000
52.605975	12.010172	25.200146	-0.782997	1.069361	2.197086	0.000000	0.109848	0.000000	-0.000362	-0.000537	0.000000	0.000000
53.046935	12.869260	23.994061	-1.172822	1.655384	2.259749	0.000000	0.173585	0.000000	-0.000602	-0.000550	0.000000	0.000000
53.487895	14.094363	22.302525	-1.616223	2.166088	2.350934	0.000000	0.239305	0.000000	-0.000848	-0.000568	0.000000	0.000000
53.933855	15.762398	20.177229	-2.137729	2.579558	2.473192	0.000000	0.308154	0.000000	-0.001107	-0.000594	0.000000	0.000000
54.482915	17.909533	17.785406	-1.750034	1.802447	2.622401	0.000000	0.233457	0.000000	-0.001422	-0.000553	0.000000	0.000000
55.031975	19.560129	16.171855	-1.238742	1.153718	2.729371	0.000000	0.154610	0.000000	-0.001712	-0.000502	0.000000	0.000000
55.581035	20.597619	15.221640	-0.639968	0.587164	2.792201	0.000000	0.073013	0.000000	-0.001972	-0.000442	0.000000	0.000000
56.130095	20.948741	14.867076	0.003996	0.062432	2.809772	0.000000	-0.009887	0.000000	-0.002196	-0.000375	0.000000	0.000000
56.428668	20.983901	14.812188	-0.066032	0.081775	2.809165	0.000000	-0.002411	0.000000	-0.002310	-0.000381	0.000000	0.000000
56.762001	21.033240	14.765223	-0.081986	0.059120	2.808489	0.000000	-0.002411	0.000000	-0.002437	-0.000381	0.000000	0.000000
57.095334	21.093216	14.733361	-0.097940	0.036466	2.807812	0.000000	-0.002411	0.000000	-0.002564	-0.000381	0.000000	0.000000
57.429918	21.164113	14.716567	-0.113955	0.013726	2.807133	0.000000	-0.002411	0.000000	-0.002691	-0.000381	0.000000	0.000000
57.727240	21.236111	14.714410	-0.184965	0.032781	2.806529	0.000000	0.005093	0.000000	-0.002804	-0.000388	0.000000	0.000000
58.276300	21.076342	14.960614	0.474035	-0.483856	2.786758	0.000000	-0.077664	0.000000	-0.002992	-0.000294	0.000000	0.000000
58.825360	20.207163	15.789602	1.099550	-1.034953	2.721810	0.000000	-0.159048	0.000000	-0.003126	-0.000195	0.000000	0.000000
59.374420	18.689965	17.260413	1.647404	-1.659760	2.612835	0.000000	-0.237615	0.000000	-0.003205	-0.000092	0.000000	0.000000
59.923480	16.631898	19.477800	2.078908	-2.402777	2.461763	0.000000	-0.311969	0.000000	-0.003227	0.000012	0.000000	0.000000
60.369440	15.020028	21.448446	1.548361	-1.997573	2.337998	0.000000	-0.243448	0.000000	-0.003241	-0.000072	0.000000	0.000000
60.810400	13.859842	22.997794	1.092742	-1.502802	2.245200	0.000000	-0.178087	0.000000	-0.003291	-0.000156	0.000000	0.000000
61.251360	13.077998	24.078885	0.687041	-0.939660	2.180783	0.000000	-0.114753	0.000000	-0.003379	-0.000242	0.000000	0.000000
61.692320	12.638782	24.642534	0.312727	-0.333770	2.144017	0.000000	-0.052723	0.000000	-0.003505	-0.000331	0.000000	0.000000
62.134530	12.522172	24.662530	-0.015635	0.224840	2.134489	0.000000	0.003295	0.000000	-0.003672	-0.000414	0.000000	0.000000
62.431853	12.538530	24.532595	-0.039384	0.212175	2.135592	0.000000	0.003295	0.000000	-0.003795	-0.000414	0.000000	0.000000
62.765186	12.573661	24.395879	-0.066010	0.197975	2.136829	0.000000	0.003295	0.000000	-0.003933	-0.000414	0.000000	0.000000
63.098520	12.626543	24.268628	-0.092636	0.183776	2.138065	0.000000	0.003295	0.000000	-0.004071	-0.000414	0.000000	0.000000
63.433103	12.697474	24.150419	-0.119362	0.169524	2.139306	0.000000	0.003295	0.000000	-0.004210	-0.000414	0.000000	0.000000
63.730426	12.775507	24.053392	-0.110514	0.095344	2.140409	0.000000	-0.002166	0.000000	-0.004333	-0.000403	0.000000	0.000000
64.171386	13.034984	23.704507	-0.480363	0.692889	2.153225	0.000000	0.059461	0.000000	-0.004536	-0.000518	0.000000	0.000000
64.612346	13.628999	22.840612	-0.872150	1.258909	2.193388	0.000000	0.121770	0.000000	-0.004790	-0.000638	0.000000	0.000000
65.053306	14.584676	21.501014	-1.303769	1.767657	2.261359	0.000000	0.185473	0.000000	-0.005100	-0.000765	0.000000	0.000000
65.494266	15.945657	19.746663	-1.794934	2.195986	2.357914	0.000000	0.251296	0.000000	-0.005467	-0.000902	0.000000	0.000000
65.940226	17.797357	17.632558	-2.372653	2.525032	2.485731	0.000000	0.320374	0.000000	-0.005901	-0.001049	0.000000	0.000000
66.489286	20.168965	15.267960	-1.922068	1.807393	2.641710	0.000000	0.245174	0.000000	-0.006423	-0.000849	0.000000	0.000000
67.038346	21.967948	13.616482	-1.335773	1.218472	2.755031	0.000000	0.165611	0.000000	-0.006831	-0.000635	0.000000	0.000000
67.587406	23.067306	12.560500	-0.655166	0.716326	2.823680	0.000000	0.083101	0.000000	-0.007118	-0.000409	0.000000	0.000000
68.136466	23.389434	12.024804	0.071694	0.265193	2.846435	0.000000	-0.000889	0.000000	-0.007279	-0.000176	0.000000	0.000000
68.435038	23.389073	11.854637	-0.005840	0.271478	2.848579	0.000000	0.006993	0.000000	-0.007337	-0.000195	0.000000	0.000000
68.768372	23.397718	11.683715	-0.020092	0.241287	2.850975	0.000000	0.006993	0.000000	-0.007402	-0.000195	0.000000	0.000000
69.101705	23.415863	11.532920	-0.034344	0.211096	2.853371	0.000000	0.006993	0.000000	-0.007467	-0.000195	0.000000	0.000000
69.436288	23.443632	11.401801	-0.048650	0.180793	2.855776	0.000000	0.006993	0.000000	-0.007532	-0.000195	0.000000	0.000000
69.733611	23.476381	11.302281	-0.126524	0.185200	2.857915	0.000000	0.014926	0.000000	-0.007590	-0.000216	0.000000	0.000000
70.282671	23.212168	11.325484	0.604876	-0.227715	2.842944	0.000000	-0.069562	0.000000	-0.007641	0.000031	0.000000	0.000000
