#ParticleID	Turn	x[m]	xp	y[m]	yp	z[m]	dE[GeV]# s	beta_x	beta_y	alpha_x	alpha_y	D_x	D_y	D_px	D_py	orbit_x	orbit_px	orbit_y	orbit_py
0.300000	11.965378	25.322009	-0.019187	-0.021950	2.598483	0.000000	0.000134	0.000000	-0.000980	0.000846	0.000000	0.000000
0.601250	11.984526	25.338820	-0.044373	-0.033853	2.598269	0.000000	0.000134	0.000000	-0.000725	0.000846	0.000000	0.000000
0.898573	12.018303	25.362443	-0.039626	-0.107767	2.598057	0.000000	-0.006266	0.000000	-0.000473	0.000848	0.000000	0.000000
1.339533	12.207179	25.175998	-0.390038	0.528976	2.611114	0.000000	0.067169	0.000000	-0.000102	0.000840	0.000000	0.000000
1.780493	12.711758	24.436502	-0.758276	1.141654	2.656691	0.000000	0.141359	0.000000	0.000269	0.000842	0.000000	0.000000
2.221453	13.555101	23.177593	-1.161165	1.702390	2.735301	0.000000	0.217150	0.000000	0.000643	0.000854	0.000000	0.000000
2.662413	14.775749	21.456543	-1.617112	2.185671	2.847838	0.000000	0.295406	0.000000	0.001024	0.000876	0.000000	0.000000
3.108373	16.450565	19.326436	-2.151327	2.570678	2.997424	0.000000	0.377508	0.000000	0.001421	0.000907	0.000000	0.000000
3.657433	18.597397	16.933593	-1.735000	1.813014	3.179191	0.000000	0.285286	0.000000	0.001905	0.000853	0.000000	0.000000
4.206493	20.216631	15.297392	-1.196095	1.184489	3.308893	0.000000	0.188018	0.000000	0.002355	0.000784	0.000000	0.000000
4.755553	21.193858	14.301297	-0.572679	0.640335	3.384235	0.000000	0.087427	0.000000	0.002764	0.000701	0.000000	0.000000
5.304613	21.460021	13.874364	0.091208	0.141792	3.403888	0.000000	-0.014703	0.000000	0.003123	0.000606	0.000000	0.000000
5.603185	21.442310	13.775321	0.022683	0.154772	3.401900	0.000000	-0.006044	0.000000	0.003307	0.000614	0.000000	0.000000
5.936519	21.432372	13.680399	0.007130	0.129994	3.399680	0.000000	-0.006044	0.000000	0.003512	0.000614	0.000000	0.000000
6.269852	21.432803	13.601995	-0.008424	0.105217	3.397461	0.000000	-0.006044	0.000000	0.003716	0.000614	0.000000	0.000000
6.604435	21.443664	13.539909	-0.024036	0.080346	3.395233	0.000000	-0.006044	0.000000	0.003922	0.000614	0.000000	0.000000
6.901758	21.462092	13.498696	-0.092034	0.092410	3.393254	0.000000	0.002513	0.000000	0.004104	0.000625	0.000000	0.000000
7.450818	21.197175	13.659070	0.571979	-0.386206	3.366390	0.000000	-0.099159	0.000000	0.004410	0.000487	0.000000	0.000000
7.999878	20.220965	14.356991	1.195592	-0.892336	3.284176	0.000000	-0.199065	0.000000	0.004637	0.000340	0.000000	0.000000
8.548938	18.602422	15.642182	1.734746	-1.462035	3.148073	0.000000	-0.295434	0.000000	0.004782	0.000188	0.000000	0.000000
9.097998	16.455900	17.606198	2.151345	-2.135887	2.960498	0.000000	-0.386560	0.000000	0.004843	0.000032	0.000000	0.000000
9.543958	14.781270	19.355984	1.616922	-1.770903	2.806229	0.000000	-0.305454	0.000000	0.004885	0.000158	0.000000	0.000000
9.984918	13.560972	20.727215	1.160839	-1.326694	2.688552	0.000000	-0.228327	0.000000	0.004982	0.000285	0.000000	0.000000
10.425878	12.718124	21.678442	0.757799	-0.822113	2.604225	0.000000	-0.153804	0.000000	0.005137	0.000415	0.000000	0.000000
10.866838	12.214211	22.166376	0.389386	-0.280120	2.552288	0.000000	-0.081037	0.000000	0.005349	0.000551	0.000000	0.000000
11.309048	12.026053	22.168232	0.066560	0.222916	2.532128	0.000000	-0.015074	0.000000	0.005624	0.000679	0.000000	0.000000
11.606371	11.993857	22.039862	0.041727	0.208837	2.527445	0.000000	-0.015074	0.000000	0.005826	0.000679	0.000000	0.000000
12.086371	11.973042	21.850288	0.001637	0.186109	2.519883	0.000000	-0.015074	0.000000	0.006151	0.000679	0.000000	0.000000
12.566371	11.990714	21.682533	-0.038453	0.163380	2.512322	0.000000	-0.015074	0.000000	0.006477	0.000679	0.000000	0.000000
13.046371	12.046872	21.536598	-0.078543	0.140651	2.504761	0.000000	-0.015074	0.000000	0.006803	0.000679	0.000000	0.000000
13.526371	12.141517	21.412482	-0.118634	0.117923	2.497199	0.000000	-0.015074	0.000000	0.007129	0.000679	0.000000	0.000000
14.007621	12.275046	21.309948	-0.158828	0.095135	2.489618	0.000000	-0.015074	0.000000	0.007455	0.000679	0.000000	0.000000
14.304943	12.376855	21.257599	-0.155552	0.032974	2.484932	0.000000	-0.020718	0.000000	0.007657	0.000661	0.000000	0.000000
14.745903	12.672787	20.996006	-0.517755	0.557937	2.490999	0.000000	0.049725	0.000000	0.007992	0.000862	0.000000	0.000000
15.186863	13.297422	20.280851	-0.903628	1.057512	2.528138	0.000000	0.120726	0.000000	0.008419	0.001074	0.000000	0.000000
15.627823	14.279322	19.144673	-1.330809	1.508963	2.596768	0.000000	0.193090	0.000000	0.008941	0.001298	0.000000	0.000000
16.068783	15.663387	17.639168	-1.818826	1.891743	2.697667	0.000000	0.267640	0.000000	0.009566	0.001536	0.000000	0.000000
16.514743	17.536537	15.811222	-2.394936	2.189368	2.833674	0.000000	0.345716	0.000000	0.010308	0.001794	0.000000	0.000000
17.063803	19.941603	13.770977	-1.957901	1.547880	2.999113	0.000000	0.259039	0.000000	0.011198	0.001446	0.000000	0.000000
17.612863	21.787319	12.370918	-1.382473	1.016672	3.115820	0.000000	0.167790	0.000000	0.011891	0.001071	0.000000	0.000000
18.161923	22.943192	11.511309	-0.709320	0.557899	3.181732	0.000000	0.073580	0.000000	0.012372	0.000678	0.000000	0.000000
18.710983	23.327495	11.130915	0.013977	0.138877	3.195687	0.000000	-0.021924	0.000000	0.012633	0.000273	0.000000	0.000000
19.009556	23.355283	11.040824	-0.053127	0.137182	3.191263	0.000000	-0.014487	0.000000	0.012724	0.000304	0.000000	0.000000
19.342889	23.395472	10.959622	-0.067440	0.106423	3.186332	0.000000	-0.014487	0.000000	0.012826	0.000304	0.000000	0.000000
19.676223	23.445203	10.898926	-0.081752	0.075664	3.181402	0.000000	-0.014487	0.000000	0.012927	0.000304	0.000000	0.000000
20.010806	23.505007	10.858490	-0.212576	0.098589	3.176472	0.000000	0.001251	0.000000	0.013029	0.000369	0.000000	0.000000
20.308129	23.635464	10.808031	-0.280512	0.096027	3.176743	0.000000	0.008605	0.000000	0.013139	0.000401	0.000000	0.000000
20.857189	23.536062	10.922171	0.460573	-0.305098	3.155316	0.000000	-0.086166	0.000000	0.013242	-0.000026	0.000000	0.000000
21.406249	22.635682	11.486160	1.169107	-0.727963	3.082412	0.000000	-0.179408	0.000000	0.013110	-0.000453	0.000000	0.000000
21.955309	20.997980	12.540179	1.795004	-1.202696	2.959325	0.000000	-0.269474	0.000000	0.012746	-0.000872	0.000000	0.000000
22.504369	18.738739	14.159322	2.294023	-1.763123	2.788234	0.000000	-0.354773	0.000000	0.012155	-0.001276	0.000000	0.000000
22.950329	16.960335	15.613989	1.706438	-1.484323	2.647681	0.000000	-0.277924	0.000000	0.011655	-0.000967	0.000000	0.000000
23.391289	15.682380	16.775393	1.201821	-1.139031	2.541698	0.000000	-0.204723	0.000000	0.011294	-0.000671	0.000000	0.000000
23.832249	14.823779	17.608110	0.752145	-0.741899	2.467332	0.000000	-0.133848	0.000000	0.011062	-0.000383	0.000000	0.000000
24.273209	14.345272	18.074244	0.336852	-0.311001	2.423739	0.000000	-0.064493	0.000000	0.010956	-0.000099	0.000000	0.000000
24.715418	14.225108	18.152283	-0.031970	0.094171	2.410425	0.000000	-0.001153	0.000000	0.010975	0.000158	0.000000	0.000000
25.012741	14.250339	18.101197	-0.052892	0.077647	2.410035	0.000000	-0.001153	0.000000	0.011022	0.000158	0.000000	0.000000
25.346075	14.293420	18.055608	-0.076349	0.059121	2.409598	0.000000	-0.001153	0.000000	0.011075	0.000158	0.000000	0.000000
25.679408	14.352138	18.022370	-0.099806	0.040595	2.409161	0.000000	-0.001153	0.000000	0.011128	0.000158	0.000000	0.000000
26.013991	14.426509	18.001792	-0.006313	-0.124040	2.408698	0.000000	-0.020694	0.000000	0.011181	0.000068	0.000000	0.000000
26.311314	14.436338	18.080604	0.004620	-0.180305	2.402520	0.000000	-0.025943	0.000000	0.011201	0.000042	0.000000	0.000000
26.752274	14.610760	18.043772	-0.401530	0.263501	2.406055	0.000000	0.042348	0.000000	0.011283	0.000332	0.000000	0.000000
27.193234	15.150198	17.619288	-0.826037	0.695316	2.439662	0.000000	0.111119	0.000000	0.011494	0.000625	0.000000	0.000000
27.634194	16.079321	16.826466	-1.288307	1.095486	2.503721	0.000000	0.181149	0.000000	0.011836	0.000926	0.000000	0.000000
28.075154	17.440619	15.701386	-1.809477	1.445797	2.598960	0.000000	0.253232	0.000000	0.012313	0.001237	0.000000	0.000000
28.521114	19.320267	14.278119	-2.418548	1.731459	2.728078	0.000000	0.328671	0.000000	0.012937	0.001565	0.000000	0.000000
29.070174	21.710597	12.693181	-1.907536	1.171670	2.885267	0.000000	0.245545	0.000000	0.013679	0.001134	0.000000	0.000000
29.619234	23.461729	11.673882	-1.261681	0.695364	2.995780	0.000000	0.158080	0.000000	0.014179	0.000682	0.000000	0.000000
30.168294	24.449846	11.147605	-0.526637	0.268605	3.057664	0.000000	0.067821	0.000000	0.014427	0.000219	0.000000	0.000000
30.717354	24.605080	11.076856	0.245633	-0.139015	3.069822	0.000000	-0.023637	0.000000	0.014418	-0.000249	0.000000	0.000000
31.015927	24.495576	11.152949	0.176842	-0.140966	3.064913	0.000000	-0.016623	0.000000	0.014355	-0.000213	0.000000	0.000000
31.349260	24.382359	11.257086	0.162809	-0.171447	3.059443	0.000000	-0.016623	0.000000	0.014284	-0.000213	0.000000	0.000000
31.682593	24.278498	11.381545	0.148775	-0.201929	3.053973	0.000000	-0.016623	0.000000	0.014212	-0.000213	0.000000	0.000000
32.017177	24.183656	11.526906	0.134689	-0.232524	3.048482	0.000000	-0.016623	0.000000	0.014141	-0.000213	0.000000	0.000000
32.314499	24.107425	11.673191	0.066890	-0.232976	3.043612	0.000000	-0.009644	0.000000	0.014078	-0.000179	0.000000	0.000000
32.863559	23.621206	12.167453	0.812961	-0.672356	3.013685	0.000000	-0.099964	0.000000	0.013855	-0.000631	0.000000	0.000000
33.412619	22.342264	13.167621	1.501561	-1.159644	2.934804	0.000000	-0.188520	0.000000	0.013386	-0.001073	0.000000	0.000000
33.961679	20.361032	14.744948	2.084012	-1.729557	2.808365	0.000000	-0.273749	0.000000	0.012680	-0.001495	0.000000	0.000000
34.510739	17.817598	17.011803	2.519148	-2.422701	2.636600	0.000000	-0.354145	0.000000	0.011749	-0.001891	0.000000	0.000000
34.956699	15.841613	19.039872	1.925848	-2.105111	2.495720	0.000000	-0.281242	0.000000	0.010972	-0.001596	0.000000	0.000000
35.397659	14.368773	20.721217	1.425758	-1.692713	2.387678	0.000000	-0.211989	0.000000	0.010329	-0.001322	0.000000	0.000000
35.838619	13.306814	22.003298	0.990848	-1.203279	2.309510	0.000000	-0.145137	0.000000	0.009804	-0.001062	0.000000	0.000000
36.279579	12.607175	22.827777	0.601235	-0.659085	2.260327	0.000000	-0.079928	0.000000	0.009391	-0.000815	0.000000	0.000000
36.721789	12.237224	23.157426	0.266369	-0.136560	2.239552	0.000000	-0.020628	0.000000	0.009084	-0.000598	0.000000	0.000000
37.019112	12.086566	23.242519	0.240349	-0.149639	2.233597	0.000000	-0.020628	0.000000	0.008906	-0.000598	0.000000	0.000000
37.352445	11.936057	23.347166	0.211177	-0.164302	2.226920	0.000000	-0.020628	0.000000	0.008707	-0.000598	0.000000	0.000000
37.685779	11.804997	23.461588	0.182005	-0.178964	2.220243	0.000000	-0.020628	0.000000	0.008507	-0.000598	0.000000	0.000000
38.020362	11.693002	23.586270	0.152723	-0.193682	2.213541	0.000000	-0.020628	0.000000	0.008307	-0.000598	0.000000	0.000000
38.317684	11.609900	23.705376	0.152940	-0.260535	2.207583	0.000000	-0.025617	0.000000	0.008130	-0.000617	0.000000	0.000000
38.758644	11.623763	23.672450	-0.184665	0.334913	2.210449	0.000000	0.037633	0.000000	0.007903	-0.000410	0.000000	0.000000
39.199604	11.938011	23.119069	-0.530707	0.915117	2.241191	0.000000	0.101317	0.000000	0.007767	-0.000208	0.000000	0.000000
39.640564	12.567004	22.070420	-0.901003	1.453674	2.300160	0.000000	0.166157	0.000000	0.007719	-0.000009	0.000000	0.000000
40.081524	13.539492	20.574226	-1.312476	1.926076	2.388029	0.000000	0.232890	0.000000	0.007760	0.000191	0.000000	0.000000
40.527484	14.917490	18.675831	-1.787883	2.312323	2.507284	0.000000	0.302704	0.000000	0.007890	0.000394	0.000000	0.000000
41.076544	16.678704	16.541988	-1.400329	1.596534	2.652778	0.000000	0.226939	0.000000	0.008036	0.000136	0.000000	0.000000
41.625604	17.957031	15.127550	-0.913827	0.994487	2.755637	0.000000	0.147151	0.000000	0.008039	-0.000124	0.000000	0.000000
42.174664	18.662135	14.331748	-0.362757	0.463293	2.814036	0.000000	0.064749	0.000000	0.007900	-0.000383	0.000000	0.000000
42.723724	18.744191	14.097886	0.213937	-0.034893	2.826937	0.000000	-0.018808	0.000000	0.007620	-0.000634	0.000000	0.000000
43.022297	18.648636	14.104429	0.151776	-0.021506	2.823564	0.000000	-0.011903	0.000000	0.007436	-0.000615	0.000000	0.000000
43.502297	18.515571	14.141418	0.125444	-0.055554	2.818146	0.000000	-0.011903	0.000000	0.007141	-0.000615	0.000000	0.000000
43.982297	18.407784	14.211092	0.099112	-0.089601	2.812728	0.000000	-0.011903	0.000000	0.006846	-0.000615	0.000000	0.000000
44.462297	18.325276	14.313453	0.072780	-0.123649	2.807310	0.000000	-0.011903	0.000000	0.006551	-0.000615	0.000000	0.000000
44.942297	18.268046	14.448499	0.046448	-0.157697	2.801891	0.000000	-0.011903	0.000000	0.006256	-0.000615	0.000000	0.000000
45.423547	18.236272	14.616529	-0.070306	-0.119414	2.796476	0.000000	0.001952	0.000000	0.005960	-0.000585	0.000000	0.000000
45.720870	18.282968	14.693657	-0.132110	-0.103664	2.797232	0.000000	0.008902	0.000000	0.005786	-0.000571	0.000000	0.000000
46.269930	18.119899	15.091404	0.426980	-0.624968	2.779789	0.000000	-0.073613	0.000000	0.005422	-0.000752	0.000000	0.000000
46.818990	17.355805	16.082588	0.955891	-1.190791	2.717418	0.000000	-0.154835	0.000000	0.004962	-0.000920	0.000000	0.000000
47.368050	16.044695	17.737804	1.417251	-1.841438	2.611220	0.000000	-0.233324	0.000000	0.004414	-0.001072	0.000000	0.000000
47.917110	14.279224	20.174947	1.778466	-2.623258	2.463072	0.000000	-0.307692	0.000000	0.003788	-0.001205	0.000000	0.000000
48.363070	12.904229	22.341225	1.315076	-2.213670	2.341709	0.000000	-0.239075	0.000000	0.003271	-0.001114	0.000000	0.000000
48.804030	11.924098	24.075767	0.915596	-1.704748	2.251267	0.000000	-0.173579	0.000000	0.002798	-0.001035	0.000000	0.000000
49.244990	11.276604	25.325402	0.557961	-1.118258	2.189217	0.000000	-0.110049	0.000000	0.002357	-0.000969	0.000000	0.000000
49.685950	10.932150	26.033278	0.225826	-0.480889	2.154856	0.000000	-0.047762	0.000000	0.001942	-0.000914	0.000000	0.000000
50.128160	10.875164	26.166905	-0.069824	0.115407	2.147810	0.000000	0.008801	0.000000	0.001548	-0.000872	0.000000	0.000000
50.425482	10.924853	26.101702	-0.097297	0.103893	2.150686	0.000000	0.008801	0.000000	0.001289	-0.000872	0.000000	0.000000
50.758816	10.999984	26.036743	-0.128097	0.090984	2.153910	0.000000	0.008801	0.000000	0.000998	-0.000872	0.000000	0.000000
51.092149	11.095649	25.980389	-0.158897	0.078076	2.157135	0.000000	0.008801	0.000000	0.000707	-0.000872	0.000000	0.000000
51.426732	11.212095	25.933004	-0.098853	-0.145262	2.160350	0.000000	-0.008725	0.000000	0.000415	-0.000876	0.000000	0.000000
51.724055	11.278839	26.022865	-0.098012	-0.221017	2.158016	0.000000	-0.014009	0.000000	0.000155	-0.000876	0.000000	0.000000
52.165015	11.512105	25.928105	-0.433275	0.435093	2.165880	0.000000	0.048015	0.000000	-0.000231	-0.000877	0.000000	0.000000
52.605975	12.048613	25.261267	-0.788326	1.071402	2.201194	0.000000	0.110595	0.000000	-0.000620	-0.000888	0.000000	0.000000
53.046935	12.912867	24.052700	-1.179386	1.658962	2.264362	0.000000	0.174444	0.000000	-0.001016	-0.000909	0.000000	0.000000
53.487895	14.144341	22.357401	-1.624320	2.171038	2.356107	0.000000	0.240290	0.000000	-0.001424	-0.000941	0.000000	0.000000
53.933855	15.820334	20.227174	-2.147723	2.585644	2.478998	0.000000	0.309278	0.000000	-0.001852	-0.000983	0.000000	0.000000
54.482915	17.977597	17.829690	-1.758604	1.806785	2.628969	0.000000	0.234383	0.000000	-0.002374	-0.000915	0.000000	0.000000
55.031975	19.636418	16.212211	-1.245295	1.156617	2.736569	0.000000	0.155317	0.000000	-0.002854	-0.000830	0.000000	0.000000
55.581035	20.679666	15.259521	-0.644052	0.588829	2.799884	0.000000	0.073482	0.000000	-0.003283	-0.000731	0.000000	0.000000
56.130095	21.033684	14.903755	0.002662	0.062982	2.817784	0.000000	-0.009669	0.000000	-0.003653	-0.000618	0.000000	0.000000
56.428668	21.070150	14.848161	-0.068199	0.082987	2.817349	0.000000	-0.002083	0.000000	-0.003841	-0.000628	0.000000	0.000000
56.762001	21.120914	14.800371	-0.084092	0.060383	2.816864	0.000000	-0.002083	0.000000	-0.004050	-0.000628	0.000000	0.000000
57.095334	21.182273	14.767651	-0.099986	0.037778	2.816379	0.000000	-0.002083	0.000000	-0.004260	-0.000628	0.000000	0.000000
57.429918	21.254518	14.749962	-0.115940	0.015090	2.815892	0.000000	-0.002083	0.000000	-0.004470	-0.000628	0.000000	0.000000
57.727240	21.327690	14.746974	-0.187987	0.034810	2.815460	0.000000	0.005557	0.000000	-0.004656	-0.000640	0.000000	0.000000
58.276300	21.169487	14.991447	0.474094	-0.482725	2.795982	0.000000	-0.077489	0.000000	-0.004966	-0.000484	0.000000	0.000000
58.825360	20.298517	15.819620	1.102685	-1.034636	2.731134	0.000000	-0.159169	0.000000	-0.005187	-0.000320	0.000000	0.000000
59.374420	18.776294	17.290471	1.653398	-1.660229	2.622062	0.000000	-0.238031	0.000000	-0.005316	-0.000150	0.000000	0.000000
59.923480	16.710312	19.508747	2.087347	-2.404058	2.470699	0.000000	-0.312675	0.000000	-0.005351	0.000023	0.000000	0.000000
60.369440	15.091871	21.480129	1.554742	-1.997991	2.346676	0.000000	-0.243936	0.000000	-0.005371	-0.000116	0.000000	0.000000
60.810400	13.926892	23.029391	1.097321	-1.502296	2.253744	0.000000	-0.178357	0.000000	-0.005453	-0.000256	0.000000	0.000000
61.251360	13.141730	24.109603	0.690023	-0.938259	2.189313	0.000000	-0.114807	0.000000	-0.005597	-0.000398	0.000000	0.000000
61.692320	12.700519	24.671626	0.314247	-0.331540	2.152651	0.000000	-0.052560	0.000000	-0.005805	-0.000545	0.000000	0.000000
62.134530	12.583157	24.689304	-0.014667	0.226484	2.143350	0.000000	0.003541	0.000000	-0.006080	-0.000683	0.000000	0.000000
62.431853	12.598905	24.558391	-0.038300	0.213824	2.144606	0.000000	0.003541	0.000000	-0.006283	-0.000683	0.000000	0.000000
62.765186	12.633271	24.420573	-0.064796	0.199630	2.146014	0.000000	0.003541	0.000000	-0.006510	-0.000683	0.000000	0.000000
63.098520	12.685300	24.292218	-0.091293	0.185436	2.147422	0.000000	0.003541	0.000000	-0.006738	-0.000683	0.000000	0.000000
63.433103	12.755289	24.172897	-0.117888	0.171189	2.148835	0.000000	0.003541	0.000000	-0.006966	-0.000683	0.000000	0.000000
63.730426	12.832398	24.074900	-0.107962	0.095332	2.150090	0.000000	-0.002082	0.000000	-0.007169	-0.000665	0.000000	0.000000
64.171386	13.090108	23.725800	-0.479026	0.693421	2.163124	0.000000	0.059793	0.000000	-0.007504	-0.000854	0.000000	0.000000
64.612346	13.683364	22.861240	-0.871961	1.259964	2.203648	0.000000	0.122357	0.000000	-0.007924	-0.001053	0.000000	0.000000
65.053306	14.639248	21.520559	-1.304711	1.769190	2.272128	0.000000	0.186326	0.000000	-0.008434	-0.001263	0.000000	0.000000
65.494266	16.001398	19.764753	-1.797037	2.197933	2.369347	0.000000	0.252430	0.000000	-0.009040	-0.001489	0.000000	0.000000
65.940226	17.855342	17.648814	-2.375906	2.527242	2.498007	0.000000	0.321796	0.000000	-0.009758	-0.001732	0.000000	0.000000
66.489286	20.229072	15.282238	-1.923237	1.809052	2.654975	0.000000	0.246193	0.000000	-0.010619	-0.001402	0.000000	0.000000
67.038346	22.027897	13.629293	-1.334811	1.219684	2.768987	0.000000	0.166201	0.000000	-0.011293	-0.001047	0.000000	0.000000
67.587406	23.124875	12.572257	-0.652169	0.717168	2.838012	0.000000	0.083244	0.000000	-0.011766	-0.000674	0.000000	0.000000
68.136466	23.442601	12.035849	0.076501	0.265720	2.860820	0.000000	-0.001199	0.000000	-0.012031	-0.000288	0.000000	0.000000
68.435038	23.440769	11.864661	-0.003468	0.273242	2.863001	0.000000	0.007006	0.000000	-0.012127	-0.000321	0.000000	0.000000
68.768372	23.447821	11.692564	-0.017688	0.243050	2.865444	0.000000	0.007006	0.000000	-0.012234	-0.000321	0.000000	0.000000
69.101705	23.464353	11.540595	-0.031908	0.212857	2.867886	0.000000	0.007006	0.000000	-0.012341	-0.000321	0.000000	0.000000
69.436288	23.490481	11.408297	-0.046182	0.182552	2.870338	0.000000	0.007006	0.000000	-0.012448	-0.000321	0.000000	0.000000
69.733611	23.521823	11.307698	-0.126566	0.188113	2.872523	0.000000	0.015274	0.000000	-0.012544	-0.000356	0.000000	0.000000
70.282671	23.256884	11.327761	0.606228	-0.224875	2.857649	0.000000	-0.069675	0.000000	-0.012627	0.000052	0.000000	0.000000
