#ParticleID	Turn	x[m]	xp	y[m]	yp	z[m]	dE[GeV]# s	beta_x	beta_y	alpha_x	alpha_y	D_x	D_y	D_px	D_py	orbit_x	orbit_px	orbit_y	orbit_py
0.300000	11.965543	25.315739	-0.018803	-0.022149	2.598446	0.000000	-0.000000	0.000000	-0.001016	0.000875	0.000000	0.000000
0.601250	11.984459	25.332670	-0.043988	-0.034055	2.598182	0.000000	-0.000000	0.000000	-0.000752	0.000875	0.000000	0.000000
0.898573	12.018007	25.356415	-0.039237	-0.107958	2.597922	0.000000	-0.006401	0.000000	-0.000492	0.000877	0.000000	0.000000
1.339533	12.206538	25.170207	-0.389631	0.528630	2.610907	0.000000	0.067029	0.000000	-0.000107	0.000869	0.000000	0.000000
1.780493	12.710749	24.431079	-0.757834	1.141168	2.656408	0.000000	0.141213	0.000000	0.000276	0.000871	0.000000	0.000000
2.221453	13.553685	23.172652	-1.160668	1.701787	2.734940	0.000000	0.216996	0.000000	0.000662	0.000883	0.000000	0.000000
2.662413	14.773868	21.452175	-1.616538	2.184978	2.847394	0.000000	0.295241	0.000000	0.001056	0.000905	0.000000	0.000000
3.108373	16.448134	19.322714	-2.150649	2.569928	2.996892	0.000000	0.377331	0.000000	0.001467	0.000938	0.000000	0.000000
3.657433	18.594244	16.930599	-1.734354	1.812427	3.178550	0.000000	0.285128	0.000000	0.001968	0.000882	0.000000	0.000000
4.206493	20.212816	15.294972	-1.195526	1.184023	3.308157	0.000000	0.187882	0.000000	0.002433	0.000811	0.000000	0.000000
4.755553	21.189488	14.299336	-0.572226	0.639957	3.383418	0.000000	0.087316	0.000000	0.002856	0.000725	0.000000	0.000000
5.304613	21.455239	13.872783	0.091514	0.141475	3.403005	0.000000	-0.014787	0.000000	0.003227	0.000627	0.000000	0.000000
5.603185	21.437309	13.773953	0.023048	0.154414	3.400982	0.000000	-0.006138	0.000000	0.003417	0.000635	0.000000	0.000000
5.936519	21.427129	13.679269	0.007490	0.129637	3.398724	0.000000	-0.006138	0.000000	0.003629	0.000635	0.000000	0.000000
6.269852	21.427321	13.601103	-0.008067	0.104860	3.396467	0.000000	-0.006138	0.000000	0.003841	0.000635	0.000000	0.000000
6.604435	21.437945	13.539256	-0.023683	0.079990	3.394200	0.000000	-0.006138	0.000000	0.004053	0.000635	0.000000	0.000000
6.901758	21.456165	13.498254	-0.091604	0.092015	3.392187	0.000000	0.002406	0.000000	0.004242	0.000646	0.000000	0.000000
7.450818	21.190893	13.659059	0.572202	-0.386600	3.365263	0.000000	-0.099232	0.000000	0.004558	0.000503	0.000000	0.000000
7.999878	20.214561	14.357427	1.195593	-0.892757	3.283012	0.000000	-0.199101	0.000000	0.004793	0.000352	0.000000	0.000000
8.548938	18.596140	15.643112	1.734524	-1.462514	3.146894	0.000000	-0.295433	0.000000	0.004943	0.000194	0.000000	0.000000
9.097998	16.449974	17.607706	2.150915	-2.136458	2.959328	0.000000	-0.386520	0.000000	0.005006	0.000033	0.000000	0.000000
9.543958	14.775663	19.358004	1.616627	-1.771466	2.805069	0.000000	-0.305443	0.000000	0.005050	0.000163	0.000000	0.000000
9.984918	13.555568	20.729724	1.160668	-1.327227	2.687385	0.000000	-0.228346	0.000000	0.005151	0.000295	0.000000	0.000000
10.425878	12.712818	21.681400	0.757746	-0.822591	2.603038	0.000000	-0.153853	0.000000	0.005310	0.000430	0.000000	0.000000
10.866838	12.208903	22.169724	0.389447	-0.280520	2.551065	0.000000	-0.081117	0.000000	0.005530	0.000570	0.000000	0.000000
11.309048	12.020642	22.171891	0.066672	0.222696	2.530854	0.000000	-0.015172	0.000000	0.005814	0.000702	0.000000	0.000000
11.606371	11.988382	22.043650	0.041828	0.208621	2.526134	0.000000	-0.015172	0.000000	0.006023	0.000702	0.000000	0.000000
12.086371	11.967480	21.854281	0.001719	0.185898	2.518515	0.000000	-0.015172	0.000000	0.006360	0.000702	0.000000	0.000000
12.566371	11.985082	21.686726	-0.038390	0.163175	2.510895	0.000000	-0.015172	0.000000	0.006697	0.000702	0.000000	0.000000
13.046371	12.041189	21.540984	-0.078499	0.140453	2.503276	0.000000	-0.015172	0.000000	0.007034	0.000702	0.000000	0.000000
13.526371	12.135800	21.417057	-0.118608	0.117730	2.495657	0.000000	-0.015172	0.000000	0.007371	0.000702	0.000000	0.000000
14.007621	12.269312	21.314705	-0.158821	0.094948	2.488017	0.000000	-0.015172	0.000000	0.007709	0.000702	0.000000	0.000000
14.304943	12.371119	21.262469	-0.155648	0.032920	2.483295	0.000000	-0.020796	0.000000	0.007917	0.000683	0.000000	0.000000
14.745903	12.667084	21.000863	-0.517724	0.558016	2.489308	0.000000	0.049605	0.000000	0.008264	0.000892	0.000000	0.000000
15.186863	13.291644	20.285579	-0.903470	1.057721	2.526370	0.000000	0.120561	0.000000	0.008706	0.001111	0.000000	0.000000
15.627823	14.273358	19.149158	-1.330518	1.509291	2.594900	0.000000	0.192879	0.000000	0.009246	0.001342	0.000000	0.000000
16.068783	15.657118	17.643309	-1.818389	1.892175	2.695675	0.000000	0.267380	0.000000	0.009891	0.001589	0.000000	0.000000
16.514743	17.529836	15.814921	-2.394341	2.189894	2.831530	0.000000	0.345403	0.000000	0.010659	0.001855	0.000000	0.000000
17.063803	19.934396	13.774167	-1.957526	1.548267	2.996789	0.000000	0.258798	0.000000	0.011580	0.001495	0.000000	0.000000
17.612863	21.779857	12.373737	-1.382341	1.016949	3.113362	0.000000	0.167625	0.000000	0.012296	0.001108	0.000000	0.000000
18.161923	22.935741	11.513870	-0.709439	0.558087	3.179190	0.000000	0.073495	0.000000	0.012794	0.000702	0.000000	0.000000
18.710983	23.320316	11.133309	0.013617	0.138989	3.193112	0.000000	-0.021927	0.000000	0.013064	0.000283	0.000000	0.000000
19.009556	23.348162	11.043217	-0.053239	0.137192	3.188672	0.000000	-0.014529	0.000000	0.013158	0.000315	0.000000	0.000000
19.342889	23.388427	10.962006	-0.067556	0.106440	3.183724	0.000000	-0.014529	0.000000	0.013263	0.000315	0.000000	0.000000
19.676223	23.438237	10.901297	-0.081874	0.075687	3.178776	0.000000	-0.014529	0.000000	0.013368	0.000315	0.000000	0.000000
20.010806	23.498124	10.860843	-0.212667	0.098631	3.173830	0.000000	0.001196	0.000000	0.013474	0.000382	0.000000	0.000000
20.308129	23.628645	10.810353	-0.280343	0.095968	3.174080	0.000000	0.008511	0.000000	0.013587	0.000415	0.000000	0.000000
20.857189	23.529180	10.924595	0.460522	-0.305225	3.152622	0.000000	-0.086175	0.000000	0.013694	-0.000027	0.000000	0.000000
21.406249	22.628967	11.488769	1.168839	-0.728168	3.079741	0.000000	-0.179331	0.000000	0.013557	-0.000469	0.000000	0.000000
21.955309	20.991651	12.543070	1.794537	-1.202995	2.956731	0.000000	-0.269313	0.000000	0.013181	-0.000902	0.000000	0.000000
22.504369	18.732995	14.162612	2.293387	-1.763537	2.785769	0.000000	-0.354531	0.000000	0.012570	-0.001319	0.000000	0.000000
22.950329	16.955063	15.617623	1.705948	-1.484646	2.645325	0.000000	-0.277743	0.000000	0.012053	-0.001000	0.000000	0.000000
23.391289	15.677468	16.779278	1.201463	-1.139257	2.539420	0.000000	-0.204601	0.000000	0.011680	-0.000694	0.000000	0.000000
23.832249	14.819122	17.612153	0.751905	-0.742018	2.465102	0.000000	-0.133783	0.000000	0.011440	-0.000396	0.000000	0.000000
24.273209	14.340773	18.078344	0.336720	-0.311007	2.421528	0.000000	-0.064485	0.000000	0.011330	-0.000102	0.000000	0.000000
24.715418	14.220685	18.156333	-0.032140	0.094436	2.408205	0.000000	-0.001174	0.000000	0.011350	0.000164	0.000000	0.000000
25.012741	14.246020	18.105089	-0.053070	0.077914	2.407807	0.000000	-0.001174	0.000000	0.011399	0.000164	0.000000	0.000000
25.346075	14.289221	18.059320	-0.076534	0.059392	2.407361	0.000000	-0.001174	0.000000	0.011453	0.000164	0.000000	0.000000
25.679408	14.348065	18.025900	-0.099998	0.040869	2.406915	0.000000	-0.001174	0.000000	0.011508	0.000164	0.000000	0.000000
26.013991	14.422568	18.005138	-0.006545	-0.123790	2.406443	0.000000	-0.020697	0.000000	0.011563	0.000070	0.000000	0.000000
26.311314	14.432533	18.083805	0.004238	-0.179888	2.400264	0.000000	-0.025919	0.000000	0.011584	0.000043	0.000000	0.000000
26.752274	14.607258	18.046566	-0.401834	0.264002	2.403794	0.000000	0.042315	0.000000	0.011669	0.000343	0.000000	0.000000
27.193234	15.146941	17.621609	-0.826277	0.695877	2.437367	0.000000	0.111028	0.000000	0.011887	0.000647	0.000000	0.000000
27.634194	16.076263	16.828271	-1.288496	1.096081	2.501362	0.000000	0.180998	0.000000	0.012240	0.000958	0.000000	0.000000
28.075154	17.437724	15.702653	-1.809624	1.446399	2.596506	0.000000	0.253021	0.000000	0.012733	0.001280	0.000000	0.000000
28.521114	19.317525	14.278836	-2.418671	1.732050	2.725496	0.000000	0.328396	0.000000	0.013379	0.001619	0.000000	0.000000
29.070174	21.708088	12.693286	-1.907778	1.172183	2.882534	0.000000	0.245355	0.000000	0.014147	0.001173	0.000000	0.000000
29.619234	23.459566	11.673441	-1.262021	0.695837	2.992951	0.000000	0.157979	0.000000	0.014663	0.000706	0.000000	0.000000
30.168294	24.448111	11.146647	-0.527049	0.269072	3.054796	0.000000	0.067811	0.000000	0.014920	0.000226	0.000000	0.000000
30.717354	24.603824	11.075372	0.245180	-0.138520	3.066974	0.000000	-0.023557	0.000000	0.014911	-0.000257	0.000000	0.000000
31.015927	24.494408	11.151252	0.176678	-0.140603	3.062078	0.000000	-0.016584	0.000000	0.014845	-0.000221	0.000000	0.000000
31.349260	24.381301	11.255148	0.162644	-0.171086	3.056624	0.000000	-0.016584	0.000000	0.014772	-0.000221	0.000000	0.000000
31.682593	24.277549	11.379367	0.148611	-0.201569	3.051169	0.000000	-0.016584	0.000000	0.014698	-0.000221	0.000000	0.000000
32.017177	24.182816	11.524487	0.134525	-0.232166	3.045694	0.000000	-0.016584	0.000000	0.014625	-0.000221	0.000000	0.000000
32.314499	24.106693	11.670555	0.067001	-0.232758	3.040838	0.000000	-0.009646	0.000000	0.014559	-0.000185	0.000000	0.000000
32.863559	23.620353	12.164537	0.813054	-0.672054	3.010941	0.000000	-0.099878	0.000000	0.014329	-0.000653	0.000000	0.000000
33.412619	22.341303	13.164325	1.501627	-1.159237	2.932146	0.000000	-0.188348	0.000000	0.013844	-0.001109	0.000000	0.000000
33.961679	20.359989	14.741145	2.084044	-1.729017	2.805846	0.000000	-0.273494	0.000000	0.013114	-0.001546	0.000000	0.000000
34.510739	17.816508	17.007331	2.519140	-2.421991	2.634273	0.000000	-0.353812	0.000000	0.012151	-0.001956	0.000000	0.000000
34.956699	15.840496	19.034815	1.925845	-2.104476	2.493552	0.000000	-0.280966	0.000000	0.011347	-0.001651	0.000000	0.000000
35.397659	14.367633	20.715658	1.425771	-1.692192	2.385641	0.000000	-0.211767	0.000000	0.010682	-0.001367	0.000000	0.000000
35.838619	13.305643	21.997345	0.990879	-1.202895	2.307576	0.000000	-0.144966	0.000000	0.010139	-0.001098	0.000000	0.000000
36.279579	12.605959	22.821556	0.601286	-0.658855	2.258472	0.000000	-0.079805	0.000000	0.009711	-0.000843	0.000000	0.000000
36.721789	12.235950	23.151071	0.266348	-0.136299	2.237751	0.000000	-0.020531	0.000000	0.009394	-0.000618	0.000000	0.000000
37.019112	12.085305	23.236010	0.240325	-0.149381	2.231830	0.000000	-0.020531	0.000000	0.009210	-0.000618	0.000000	0.000000
37.352445	11.934813	23.340486	0.211150	-0.164046	2.225193	0.000000	-0.020531	0.000000	0.009004	-0.000618	0.000000	0.000000
37.685779	11.803771	23.454738	0.181976	-0.178712	2.218555	0.000000	-0.020531	0.000000	0.008798	-0.000618	0.000000	0.000000
38.020362	11.691797	23.579252	0.152691	-0.193433	2.211893	0.000000	-0.020531	0.000000	0.008591	-0.000618	0.000000	0.000000
38.317684	11.608713	23.698214	0.152826	-0.260120	2.205970	0.000000	-0.025502	0.000000	0.008407	-0.000638	0.000000	0.000000
38.758644	11.622664	23.665006	-0.184757	0.335134	2.208885	0.000000	0.037708	0.000000	0.008173	-0.000424	0.000000	0.000000
39.199604	11.936984	23.111516	-0.530780	0.915135	2.239656	0.000000	0.101352	0.000000	0.008032	-0.000215	0.000000	0.000000
39.640564	12.566036	22.062938	-0.901060	1.453488	2.298634	0.000000	0.166153	0.000000	0.007983	-0.000009	0.000000	0.000000
40.081524	13.538573	20.566990	-1.312521	1.925693	2.386492	0.000000	0.232847	0.000000	0.008024	0.000197	0.000000	0.000000
40.527484	14.916618	18.669006	-1.787923	2.311766	2.505716	0.000000	0.302623	0.000000	0.008159	0.000407	0.000000	0.000000
41.076544	16.677906	16.535650	-1.400406	1.596185	2.651175	0.000000	0.226909	0.000000	0.008310	0.000141	0.000000	0.000000
41.625604	17.956341	15.121486	-0.913935	0.994322	2.754031	0.000000	0.147171	0.000000	0.008313	-0.000129	0.000000	0.000000
42.174664	18.661575	14.325767	-0.362887	0.463301	2.812461	0.000000	0.064821	0.000000	0.008169	-0.000396	0.000000	0.000000
42.723724	18.743777	14.091801	0.213795	-0.034712	2.825424	0.000000	-0.018687	0.000000	0.007880	-0.000656	0.000000	0.000000
43.022297	18.648238	14.098296	0.151746	-0.021428	2.822088	0.000000	-0.011802	0.000000	0.007690	-0.000636	0.000000	0.000000
43.502297	18.515201	14.135217	0.125414	-0.055490	2.816728	0.000000	-0.011802	0.000000	0.007385	-0.000636	0.000000	0.000000
43.982297	18.407443	14.204837	0.099081	-0.089553	2.811368	0.000000	-0.011802	0.000000	0.007079	-0.000636	0.000000	0.000000
44.462297	18.324965	14.307158	0.072749	-0.123615	2.806008	0.000000	-0.011802	0.000000	0.006774	-0.000636	0.000000	0.000000
44.942297	18.267766	14.442178	0.046416	-0.157677	2.800648	0.000000	-0.011802	0.000000	0.006469	-0.000636	0.000000	0.000000
45.423547	18.236021	14.610196	-0.070336	-0.119440	2.795291	0.000000	0.002047	0.000000	0.006163	-0.000605	0.000000	0.000000
45.720870	18.282737	14.687342	-0.132059	-0.103785	2.796081	0.000000	0.008981	0.000000	0.005983	-0.000590	0.000000	0.000000
46.269930	18.119608	15.085122	0.427025	-0.624906	2.778703	0.000000	-0.073498	0.000000	0.005607	-0.000778	0.000000	0.000000
46.818990	17.355460	16.076138	0.955925	-1.190541	2.716420	0.000000	-0.154686	0.000000	0.005131	-0.000952	0.000000	0.000000
47.368050	16.044307	17.730974	1.417272	-1.840984	2.610330	0.000000	-0.233146	0.000000	0.004564	-0.001109	0.000000	0.000000
47.917110	14.278809	20.167498	1.778471	-2.622567	2.462307	0.000000	-0.307488	0.000000	0.003917	-0.001246	0.000000	0.000000
48.363070	12.903798	22.333245	1.315085	-2.213167	2.341048	0.000000	-0.238888	0.000000	0.003383	-0.001152	0.000000	0.000000
48.804030	11.923650	24.067440	0.915611	-1.704459	2.250701	0.000000	-0.173408	0.000000	0.002893	-0.001071	0.000000	0.000000
49.244990	11.276134	25.316920	0.557983	-1.118196	2.188738	0.000000	-0.109891	0.000000	0.002436	-0.001002	0.000000	0.000000
49.685950	10.931651	26.024843	0.225857	-0.481056	2.154458	0.000000	-0.047615	0.000000	0.002007	-0.000945	0.000000	0.000000
50.128160	10.874628	26.158716	-0.069796	0.115081	2.147487	0.000000	0.008942	0.000000	0.001600	-0.000902	0.000000	0.000000
50.425482	10.924301	26.093708	-0.097270	0.103564	2.150414	0.000000	0.008942	0.000000	0.001332	-0.000902	0.000000	0.000000
50.758816	10.999415	26.028969	-0.128072	0.090653	2.153695	0.000000	0.008942	0.000000	0.001031	-0.000902	0.000000	0.000000
51.092149	11.095064	25.972838	-0.158874	0.077741	2.156977	0.000000	0.008942	0.000000	0.000730	-0.000902	0.000000	0.000000
51.426732	11.211494	25.925678	-0.098836	-0.145541	2.160249	0.000000	-0.008583	0.000000	0.000429	-0.000906	0.000000	0.000000
51.724055	11.278228	26.015705	-0.097999	-0.221290	2.157966	0.000000	-0.013867	0.000000	0.000159	-0.000906	0.000000	0.000000
52.165015	11.511472	25.921270	-0.433247	0.434635	2.165906	0.000000	0.048156	0.000000	-0.000240	-0.000907	0.000000	0.000000
52.605975	12.047945	25.254910	-0.788283	1.070780	2.201295	0.000000	0.110738	0.000000	-0.000642	-0.000919	0.000000	0.000000
53.046935	12.912148	24.046955	-1.179325	1.658204	2.264540	0.000000	0.174591	0.000000	-0.001052	-0.000940	0.000000	0.000000
53.487895	14.143553	22.352372	-1.624238	2.170179	2.356365	0.000000	0.240442	0.000000	-0.001473	-0.000973	0.000000	0.000000
53.933855	15.819454	20.222944	-2.147614	2.584721	2.479340	0.000000	0.309438	0.000000	-0.001917	-0.001017	0.000000	0.000000
54.482915	17.976601	17.826364	-1.758523	1.806056	2.629412	0.000000	0.234531	0.000000	-0.002456	-0.000946	0.000000	0.000000
55.031975	19.635341	16.209607	-1.245248	1.156028	2.737105	0.000000	0.155449	0.000000	-0.002952	-0.000858	0.000000	0.000000
55.581035	20.678549	15.257508	-0.644044	0.588339	2.800501	0.000000	0.073595	0.000000	-0.003396	-0.000756	0.000000	0.000000
56.130095	21.032573	14.902243	0.002630	0.062555	2.818470	0.000000	-0.009576	0.000000	-0.003780	-0.000639	0.000000	0.000000
56.428668	21.069090	14.846880	-0.068286	0.082600	2.818072	0.000000	-0.001981	0.000000	-0.003974	-0.000649	0.000000	0.000000
56.762001	21.119913	14.799348	-0.084181	0.059995	2.817628	0.000000	-0.001981	0.000000	-0.004190	-0.000649	0.000000	0.000000
57.095334	21.181332	14.766886	-0.100076	0.037391	2.817184	0.000000	-0.001981	0.000000	-0.004406	-0.000649	0.000000	0.000000
57.429918	21.253637	14.749457	-0.116030	0.014701	2.816739	0.000000	-0.001981	0.000000	-0.004624	-0.000649	0.000000	0.000000
57.727240	21.326864	14.746700	-0.188149	0.034467	2.816344	0.000000	0.005671	0.000000	-0.004817	-0.000662	0.000000	0.000000
58.276300	21.168848	14.991547	0.473906	-0.483070	2.796931	0.000000	-0.077404	0.000000	-0.005137	-0.000501	0.000000	0.000000
58.825360	20.298091	15.820110	1.102483	-1.035007	2.732128	0.000000	-0.159115	0.000000	-0.005365	-0.000331	0.000000	0.000000
59.374420	18.776092	17.291391	1.653197	-1.660653	2.623082	0.000000	-0.238010	0.000000	-0.005499	-0.000155	0.000000	0.000000
59.923480	16.710328	19.510168	2.087162	-2.404564	2.471724	0.000000	-0.312685	0.000000	-0.005535	0.000024	0.000000	0.000000
60.369440	15.092042	21.482002	1.554580	-1.998498	2.347702	0.000000	-0.243921	0.000000	-0.005556	-0.000120	0.000000	0.000000
60.810400	13.927204	23.031697	1.097168	-1.502777	2.254785	0.000000	-0.178316	0.000000	-0.005641	-0.000264	0.000000	0.000000
61.251360	13.142174	24.112311	0.689874	-0.938692	2.190383	0.000000	-0.114739	0.000000	-0.005790	-0.000412	0.000000	0.000000
61.692320	12.701096	24.674687	0.314093	-0.331907	2.153764	0.000000	-0.052464	0.000000	-0.006005	-0.000564	0.000000	0.000000
62.134530	12.583871	24.692652	-0.014771	0.226085	2.144521	0.000000	0.003653	0.000000	-0.006289	-0.000706	0.000000	0.000000
62.431853	12.599681	24.561975	-0.038403	0.213428	2.145817	0.000000	0.003653	0.000000	-0.006499	-0.000706	0.000000	0.000000
62.765186	12.634115	24.424419	-0.064898	0.199239	2.147270	0.000000	0.003653	0.000000	-0.006734	-0.000706	0.000000	0.000000
63.098520	12.686212	24.296323	-0.091393	0.185050	2.148723	0.000000	0.003653	0.000000	-0.006969	-0.000706	0.000000	0.000000
63.433103	12.756267	24.177259	-0.117987	0.170807	2.150181	0.000000	0.003653	0.000000	-0.007206	-0.000706	0.000000	0.000000
63.730426	12.833434	24.079492	-0.107986	0.094801	2.151476	0.000000	-0.001985	0.000000	-0.007416	-0.000687	0.000000	0.000000
64.171386	13.091170	23.730803	-0.479073	0.693024	2.164572	0.000000	0.059925	0.000000	-0.007761	-0.000883	0.000000	0.000000
64.612346	13.684470	22.866532	-0.872032	1.259718	2.205177	0.000000	0.122528	0.000000	-0.008196	-0.001089	0.000000	0.000000
65.053306	14.640417	21.526001	-1.304808	1.769107	2.273756	0.000000	0.186537	0.000000	-0.008723	-0.001307	0.000000	0.000000
65.494266	16.002650	19.770202	-1.797164	2.198018	2.371097	0.000000	0.252684	0.000000	-0.009350	-0.001540	0.000000	0.000000
65.940226	17.856708	17.654118	-2.376058	2.527486	2.499904	0.000000	0.322095	0.000000	-0.010092	-0.001792	0.000000	0.000000
66.489286	20.230558	15.287358	-1.923353	1.809165	2.657048	0.000000	0.246429	0.000000	-0.010984	-0.001450	0.000000	0.000000
67.038346	22.029465	13.634365	-1.334885	1.219675	2.771192	0.000000	0.166368	0.000000	-0.011680	-0.001083	0.000000	0.000000
67.587406	23.126484	12.577413	-0.652199	0.717035	2.840305	0.000000	0.083340	0.000000	-0.012169	-0.000697	0.000000	0.000000
68.136466	23.444210	12.041228	0.076516	0.265452	2.863153	0.000000	-0.001177	0.000000	-0.012443	-0.000298	0.000000	0.000000
68.435038	23.442483	11.870128	-0.003654	0.273107	2.865353	0.000000	0.007059	0.000000	-0.012542	-0.000332	0.000000	0.000000
68.768372	23.449659	11.698115	-0.017874	0.242930	2.867817	0.000000	0.007059	0.000000	-0.012653	-0.000332	0.000000	0.000000
69.101705	23.466315	11.546221	-0.032093	0.212754	2.870281	0.000000	0.007059	0.000000	-0.012764	-0.000332	0.000000	0.000000
69.436288	23.492566	11.413987	-0.046366	0.182465	2.872754	0.000000	0.007059	0.000000	-0.012875	-0.000332	0.000000	0.000000
69.733611	23.524025	11.313432	-0.126962	0.188154	2.874959	0.000000	0.015359	0.000000	-0.012974	-0.000368	0.000000	0.000000
70.282671	23.259480	11.333536	0.605908	-0.224992	2.860113	0.000000	-0.069668	0.000000	-0.013060	0.000054	0.000000	0.000000
