#ParticleID	Turn	x[m]	xp	y[m]	yp	z[m]	dE[GeV]# s	beta_x	beta_y	alpha_x	alpha_y	D_x	D_y	D_px	D_py	orbit_x	orbit_px	orbit_y	orbit_py
0.300000	11.927112	25.097079	-0.011414	-0.027123	2.604445	0.000000	-0.002207	0.000000	-0.001284	0.001075	0.000000	0.000000
0.601250	11.941599	25.117039	-0.036675	-0.039135	2.603457	0.000000	-0.002207	0.000000	-0.000961	0.001075	0.000000	0.000000
0.898573	11.970821	25.143836	-0.032073	-0.112637	2.602481	0.000000	-0.008628	0.000000	-0.000641	0.001077	0.000000	0.000000
1.339533	12.152531	24.964216	-0.381204	0.518427	2.614423	0.000000	0.064906	0.000000	-0.000169	0.001066	0.000000	0.000000
1.780493	12.648644	24.236359	-0.747759	1.125908	2.658922	0.000000	0.139168	0.000000	0.000301	0.001068	0.000000	0.000000
2.221453	13.481835	22.993371	-1.148485	1.682164	2.736482	0.000000	0.215003	0.000000	0.000775	0.001082	0.000000	0.000000
2.662413	14.690184	21.291798	-1.601694	2.161885	2.847979	0.000000	0.293276	0.000000	0.001257	0.001108	0.000000	0.000000
3.108373	16.349811	19.184094	-2.132444	2.544421	2.996514	0.000000	0.375369	0.000000	0.001760	0.001147	0.000000	0.000000
3.657433	18.477153	16.816642	-1.718458	1.792728	3.176996	0.000000	0.283196	0.000000	0.002372	0.001080	0.000000	0.000000
4.206493	20.080125	15.200104	-1.183056	1.168731	3.305459	0.000000	0.186017	0.000000	0.002942	0.000994	0.000000	0.000000
4.755553	21.045460	14.219345	-0.564057	0.627981	3.379633	0.000000	0.085554	0.000000	0.003460	0.000890	0.000000	0.000000
5.304613	21.304931	13.804517	0.094809	0.131963	3.398208	0.000000	-0.016412	0.000000	0.003917	0.000771	0.000000	0.000000
5.603185	21.284638	13.711627	0.026950	0.144453	3.395637	0.000000	-0.007828	0.000000	0.004150	0.000781	0.000000	0.000000
5.936519	21.271895	13.623597	0.011277	0.119635	3.392768	0.000000	-0.007828	0.000000	0.004411	0.000781	0.000000	0.000000
6.269852	21.269601	13.552113	-0.004395	0.094817	3.389898	0.000000	-0.007828	0.000000	0.004671	0.000781	0.000000	0.000000
6.604435	21.277805	13.496999	-0.020126	0.069907	3.387018	0.000000	-0.007828	0.000000	0.004932	0.000781	0.000000	0.000000
6.901758	21.293946	13.462001	-0.087299	0.081555	3.384460	0.000000	0.000627	0.000000	0.005164	0.000794	0.000000	0.000000
7.450818	21.026992	13.633810	0.571012	-0.396293	3.356560	0.000000	-0.100747	0.000000	0.005553	0.000620	0.000000	0.000000
7.999878	20.054980	14.342729	1.188993	-0.902375	3.273501	0.000000	-0.200324	0.000000	0.005844	0.000436	0.000000	0.000000
8.548938	18.446577	15.639269	1.722978	-1.472745	3.136761	0.000000	-0.296341	0.000000	0.006030	0.000243	0.000000	0.000000
9.097998	16.315425	17.615797	2.135234	-2.148034	2.948767	0.000000	-0.387096	0.000000	0.006110	0.000047	0.000000	0.000000
9.543958	14.653378	19.376796	1.604652	-1.783711	2.794176	0.000000	-0.306291	0.000000	0.006166	0.000206	0.000000	0.000000
9.984918	13.442409	20.759434	1.151850	-1.339596	2.676030	0.000000	-0.229478	0.000000	0.006292	0.000367	0.000000	0.000000
10.425878	12.606197	21.721881	0.751683	-0.834518	2.591081	0.000000	-0.155283	0.000000	0.006490	0.000531	0.000000	0.000000
10.866838	12.106528	22.220337	0.385864	-0.291461	2.538358	0.000000	-0.082863	0.000000	0.006762	0.000702	0.000000	0.000000
11.309048	11.920427	22.231545	0.064802	0.213742	2.517237	0.000000	-0.017145	0.000000	0.007112	0.000864	0.000000	0.000000
11.606371	11.889340	22.108602	0.039755	0.199757	2.511882	0.000000	-0.017145	0.000000	0.007369	0.000864	0.000000	0.000000
12.086371	11.870585	21.927673	-0.000681	0.177179	2.503238	0.000000	-0.017145	0.000000	0.007784	0.000864	0.000000	0.000000
12.566371	11.890648	21.768418	-0.041118	0.154602	2.494594	0.000000	-0.017145	0.000000	0.008198	0.000864	0.000000	0.000000
13.046371	11.949530	21.630837	-0.081554	0.132025	2.485949	0.000000	-0.017145	0.000000	0.008613	0.000864	0.000000	0.000000
13.526371	12.047232	21.514930	-0.121990	0.109447	2.477305	0.000000	-0.017145	0.000000	0.009028	0.000864	0.000000	0.000000
14.007621	12.184158	21.420481	-0.162531	0.086811	2.468638	0.000000	-0.017145	0.000000	0.009444	0.000864	0.000000	0.000000
14.304943	12.288219	21.373076	-0.160281	0.025594	2.463280	0.000000	-0.022617	0.000000	0.009701	0.000841	0.000000	0.000000
14.745903	12.587531	21.116560	-0.520627	0.553829	2.468297	0.000000	0.047258	0.000000	0.010128	0.001097	0.000000	0.000000
15.186863	13.213995	20.403490	-0.904779	1.056862	2.504107	0.000000	0.117660	0.000000	0.010670	0.001365	0.000000	0.000000
15.627823	14.196264	19.266306	-1.330297	1.511797	2.571111	0.000000	0.189388	0.000000	0.011334	0.001649	0.000000	0.000000
16.068783	15.579263	17.756752	-1.816638	1.897929	2.670070	0.000000	0.263255	0.000000	0.012128	0.001951	0.000000	0.000000
16.514743	17.449921	15.921740	-2.391027	2.198709	2.803775	0.000000	0.340597	0.000000	0.013070	0.002278	0.000000	0.000000
17.063803	19.852731	13.873021	-1.957303	1.553905	2.966452	0.000000	0.254926	0.000000	0.014202	0.001836	0.000000	0.000000
17.612863	21.699821	12.467891	-1.385203	1.019820	3.081020	0.000000	0.164760	0.000000	0.015081	0.001362	0.000000	0.000000
18.161923	22.860570	11.606251	-0.715166	0.558400	3.145458	0.000000	0.071693	0.000000	0.015693	0.000863	0.000000	0.000000
18.710983	23.252884	11.226716	0.005441	0.136769	3.158631	0.000000	-0.022632	0.000000	0.016026	0.000349	0.000000	0.000000
19.009556	23.284504	11.138249	-0.059681	0.134646	3.153866	0.000000	-0.015534	0.000000	0.016142	0.000388	0.000000	0.000000
19.342889	23.329080	11.058642	-0.074047	0.104176	3.148558	0.000000	-0.015534	0.000000	0.016272	0.000388	0.000000	0.000000
19.676223	23.383234	10.999348	-0.088414	0.073707	3.143251	0.000000	-0.015534	0.000000	0.016401	0.000388	0.000000	0.000000
20.010806	23.447513	10.960123	-0.219007	0.097426	3.137943	0.000000	0.000013	0.000000	0.016531	0.000470	0.000000	0.000000
20.308129	23.581888	10.910242	-0.284916	0.094472	3.137820	0.000000	0.007015	0.000000	0.016671	0.000511	0.000000	0.000000
20.857189	23.488248	11.027674	0.454573	-0.309563	3.115837	0.000000	-0.086495	0.000000	0.016802	-0.000032	0.000000	0.000000
21.406249	22.595079	11.598331	1.161929	-0.735658	3.043131	0.000000	-0.178471	0.000000	0.016636	-0.000574	0.000000	0.000000
21.955309	20.965541	12.662872	1.787142	-1.214176	2.920990	0.000000	-0.267289	0.000000	0.016174	-0.001105	0.000000	0.000000
22.504369	18.714870	14.297142	2.286009	-1.779211	2.751576	0.000000	-0.351381	0.000000	0.015425	-0.001617	0.000000	0.000000
22.950329	16.942905	15.764774	1.699444	-1.496904	2.612447	0.000000	-0.275451	0.000000	0.014792	-0.001225	0.000000	0.000000
23.391289	15.670655	16.935602	1.195601	-1.147616	2.507446	0.000000	-0.203140	0.000000	0.014334	-0.000850	0.000000	0.000000
23.832249	14.817237	17.774012	0.746424	-0.746093	2.433642	0.000000	-0.133135	0.000000	0.014041	-0.000484	0.000000	0.000000
24.273209	14.343618	18.241851	0.331375	-0.310611	2.390198	0.000000	-0.064642	0.000000	0.013907	-0.000124	0.000000	0.000000
24.715418	14.228314	18.317470	-0.038483	0.100092	2.376623	0.000000	-0.001917	0.000000	0.013931	0.000203	0.000000	0.000000
25.012741	14.257420	18.262826	-0.059411	0.083697	2.375993	0.000000	-0.001917	0.000000	0.013992	0.000203	0.000000	0.000000
25.346075	14.304848	18.213154	-0.082873	0.065318	2.375286	0.000000	-0.001917	0.000000	0.014060	0.000203	0.000000	0.000000
25.679408	14.367918	18.175736	-0.106335	0.046938	2.374579	0.000000	-0.001917	0.000000	0.014127	0.000203	0.000000	0.000000
26.013991	14.446660	18.150867	-0.012685	-0.118760	2.373846	0.000000	-0.021175	0.000000	0.014195	0.000088	0.000000	0.000000
26.311314	14.460237	18.226535	-0.002754	-0.173820	2.367517	0.000000	-0.026172	0.000000	0.014221	0.000056	0.000000	0.000000
26.752274	14.641495	18.182242	-0.409677	0.273864	2.370730	0.000000	0.041218	0.000000	0.014327	0.000424	0.000000	0.000000
27.193234	15.188645	17.747055	-0.835332	0.709084	2.403582	0.000000	0.109074	0.000000	0.014596	0.000797	0.000000	0.000000
27.634194	16.126716	16.940778	-1.299184	1.112029	2.466445	0.000000	0.178163	0.000000	0.015031	0.001179	0.000000	0.000000
28.075154	17.498616	15.800101	-1.822442	1.464359	2.560033	0.000000	0.249270	0.000000	0.015638	0.001574	0.000000	0.000000
28.521114	19.391313	14.359515	-2.434313	1.751268	2.687006	0.000000	0.323686	0.000000	0.016432	0.001990	0.000000	0.000000
29.070174	21.798505	12.754922	-1.921840	1.187714	2.841642	0.000000	0.241922	0.000000	0.017376	0.001442	0.000000	0.000000
29.619234	23.564248	11.719476	-1.273484	0.708794	2.950432	0.000000	0.155889	0.000000	0.018012	0.000869	0.000000	0.000000
30.168294	24.563657	11.179406	-0.535086	0.280384	3.011453	0.000000	0.067104	0.000000	0.018327	0.000280	0.000000	0.000000
30.717354	24.726046	11.096233	0.241144	-0.128046	3.023627	0.000000	-0.022868	0.000000	0.018318	-0.000314	0.000000	0.000000
31.015927	24.617902	11.166368	0.174445	-0.130865	3.018844	0.000000	-0.016240	0.000000	0.018238	-0.000270	0.000000	0.000000
31.349260	24.506256	11.263732	0.160493	-0.161228	3.013521	0.000000	-0.016240	0.000000	0.018148	-0.000270	0.000000	0.000000
31.682593	24.403912	11.381338	0.146541	-0.191591	3.008197	0.000000	-0.016240	0.000000	0.018058	-0.000270	0.000000	0.000000
32.017177	24.310537	11.519741	0.132536	-0.222067	3.002854	0.000000	-0.016240	0.000000	0.017967	-0.000270	0.000000	0.000000
32.314499	24.235653	11.659735	0.066707	-0.223507	2.998120	0.000000	-0.009636	0.000000	0.017887	-0.000227	0.000000	0.000000
32.863559	23.747187	12.143193	0.817086	-0.661987	2.968653	0.000000	-0.098499	0.000000	0.017604	-0.000802	0.000000	0.000000
33.412619	22.461321	13.131199	1.509688	-1.147641	2.891088	0.000000	-0.185628	0.000000	0.017009	-0.001363	0.000000	0.000000
33.961679	20.469003	14.694144	2.095545	-1.715072	2.766794	0.000000	-0.269484	0.000000	0.016112	-0.001899	0.000000	0.000000
34.510739	17.911142	16.943378	2.533240	-2.404712	2.597965	0.000000	-0.348589	0.000000	0.014929	-0.002402	0.000000	0.000000
34.956699	15.923713	18.955718	1.936903	-2.087648	2.459539	0.000000	-0.276644	0.000000	0.013942	-0.002028	0.000000	0.000000
35.397659	14.442084	20.622293	1.434386	-1.676656	2.353488	0.000000	-0.208294	0.000000	0.013125	-0.001679	0.000000	0.000000
35.838619	13.373332	21.891151	0.997454	-1.189353	2.276892	0.000000	-0.142299	0.000000	0.012458	-0.001349	0.000000	0.000000
36.279579	12.668571	22.704553	0.606129	-0.647921	2.228886	0.000000	-0.077911	0.000000	0.011933	-0.001035	0.000000	0.000000
36.721789	12.294940	23.025717	0.269170	-0.126939	2.208907	0.000000	-0.019207	0.000000	0.011543	-0.000759	0.000000	0.000000
37.019112	12.142591	23.105102	0.243235	-0.140059	2.203422	0.000000	-0.019207	0.000000	0.011317	-0.000759	0.000000	0.000000
37.352445	11.990126	23.203378	0.214159	-0.154769	2.197272	0.000000	-0.019207	0.000000	0.011064	-0.000759	0.000000	0.000000
37.685779	11.857045	23.311461	0.185083	-0.169479	2.191123	0.000000	-0.019207	0.000000	0.010811	-0.000759	0.000000	0.000000
38.020362	11.742958	23.429811	0.155899	-0.184244	2.184950	0.000000	-0.019207	0.000000	0.010557	-0.000759	0.000000	0.000000
38.317684	11.657928	23.543345	0.155687	-0.249565	2.179462	0.000000	-0.024016	0.000000	0.010332	-0.000783	0.000000	0.000000
38.758644	11.669831	23.502664	-0.182995	0.341455	2.182935	0.000000	0.038521	0.000000	0.010045	-0.000520	0.000000	0.000000
39.199604	11.983047	22.945566	-0.530038	0.916933	2.213949	0.000000	0.101502	0.000000	0.009872	-0.000263	0.000000	0.000000
39.640564	12.611893	21.897407	-0.901305	1.450679	2.272859	0.000000	0.165642	0.000000	0.009812	-0.000010	0.000000	0.000000
40.081524	13.585115	20.405892	-1.313767	1.918401	2.360338	0.000000	0.231670	0.000000	0.009864	0.000244	0.000000	0.000000
40.527484	14.964830	18.516221	-1.790276	2.300341	2.478860	0.000000	0.300766	0.000000	0.010030	0.000502	0.000000	0.000000
41.076544	16.727766	16.392779	-1.400921	1.589343	2.623509	0.000000	0.225931	0.000000	0.010216	0.000174	0.000000	0.000000
41.625604	18.005765	14.983808	-0.912566	0.991583	2.726076	0.000000	0.147090	0.000000	0.010221	-0.000157	0.000000	0.000000
42.174664	18.708500	14.188923	-0.359727	0.464473	2.784740	0.000000	0.065637	0.000000	0.010044	-0.000485	0.000000	0.000000
42.723724	18.786310	13.951489	0.218524	-0.029543	2.798459	0.000000	-0.016989	0.000000	0.009689	-0.000805	0.000000	0.000000
43.022297	18.687523	13.955506	0.157159	-0.017364	2.795617	0.000000	-0.010286	0.000000	0.009456	-0.000781	0.000000	0.000000
43.502297	18.549285	13.988690	0.130839	-0.051769	2.791054	0.000000	-0.010286	0.000000	0.009081	-0.000781	0.000000	0.000000
43.982297	18.436313	14.054903	0.104519	-0.086174	2.786491	0.000000	-0.010286	0.000000	0.008707	-0.000781	0.000000	0.000000
44.462297	18.348608	14.154145	0.078199	-0.120580	2.781929	0.000000	-0.010286	0.000000	0.008332	-0.000781	0.000000	0.000000
44.942297	18.286171	14.286416	0.051879	-0.154985	2.777366	0.000000	-0.010286	0.000000	0.007957	-0.000781	0.000000	0.000000
45.423547	18.249163	14.452011	-0.064926	-0.117876	2.772808	0.000000	0.003452	0.000000	0.007581	-0.000743	0.000000	0.000000
45.720870	18.292665	14.528284	-0.126080	-0.103315	2.774058	0.000000	0.010244	0.000000	0.007360	-0.000725	0.000000	0.000000
46.269930	18.122778	14.922948	0.433193	-0.619654	2.757648	0.000000	-0.071540	0.000000	0.006898	-0.000956	0.000000	0.000000
46.818990	17.351885	15.905433	0.961842	-1.180135	2.696726	0.000000	-0.152071	0.000000	0.006314	-0.001170	0.000000	0.000000
47.368050	16.034484	17.545718	1.422512	-1.824684	2.592364	0.000000	-0.229924	0.000000	0.005618	-0.001363	0.000000	0.000000
47.917110	14.263689	19.960631	1.782655	-2.599215	2.446404	0.000000	-0.303719	0.000000	0.004821	-0.001532	0.000000	0.000000
48.363070	12.884956	22.107701	1.319131	-2.194759	2.326856	0.000000	-0.235507	0.000000	0.004165	-0.001416	0.000000	0.000000
48.804030	11.901171	23.828176	0.919729	-1.691833	2.238029	0.000000	-0.170372	0.000000	0.003563	-0.001316	0.000000	0.000000
49.244990	11.249881	25.069304	0.562362	-1.111926	2.177436	0.000000	-0.107163	0.000000	0.003002	-0.001231	0.000000	0.000000
49.685950	10.901314	25.774621	0.230701	-0.481427	2.144392	0.000000	-0.045162	0.000000	0.002475	-0.001161	0.000000	0.000000
50.128160	10.839692	25.911770	-0.064446	0.108980	2.138541	0.000000	0.011191	0.000000	0.001975	-0.001108	0.000000	0.000000
50.425482	10.886204	25.850418	-0.091989	0.097369	2.142198	0.000000	0.011191	0.000000	0.001645	-0.001108	0.000000	0.000000
50.758816	10.957823	25.789844	-0.122868	0.084352	2.146298	0.000000	0.011191	0.000000	0.001276	-0.001108	0.000000	0.000000
51.092149	11.050028	25.737948	-0.153747	0.071335	2.150398	0.000000	0.011191	0.000000	0.000906	-0.001108	0.000000	0.000000
51.426732	11.163054	25.695106	-0.094179	-0.150182	2.154491	0.000000	-0.006287	0.000000	0.000536	-0.001113	0.000000	0.000000
51.724055	11.227047	25.787929	-0.093571	-0.225541	2.152953	0.000000	-0.011557	0.000000	0.000205	-0.001113	0.000000	0.000000
52.165015	11.455808	25.699887	-0.427536	0.424440	2.161973	0.000000	0.050352	0.000000	-0.000286	-0.001114	0.000000	0.000000
52.605975	11.986553	25.044980	-0.781025	1.055104	2.198398	0.000000	0.112845	0.000000	-0.000780	-0.001128	0.000000	0.000000
53.046935	12.843519	23.853017	-1.170187	1.637758	2.262648	0.000000	0.176636	0.000000	-0.001282	-0.001154	0.000000	0.000000
53.487895	14.065845	22.178240	-1.612799	2.145895	2.355458	0.000000	0.242451	0.000000	-0.001800	-0.001194	0.000000	0.000000
53.933855	15.730266	20.071796	-2.133318	2.557690	2.479423	0.000000	0.311435	0.000000	-0.002344	-0.001248	0.000000	0.000000
54.482915	17.872845	17.701338	-1.746571	1.785256	2.630704	0.000000	0.236507	0.000000	-0.003006	-0.001161	0.000000	0.000000
55.031975	19.520076	16.104708	-1.236493	1.139977	2.739575	0.000000	0.157365	0.000000	-0.003615	-0.001054	0.000000	0.000000
55.581035	20.555656	15.168171	-0.639109	0.575894	2.804095	0.000000	0.075416	0.000000	-0.004160	-0.000928	0.000000	0.000000
56.130095	20.906478	14.825012	0.003391	0.052829	2.823113	0.000000	-0.007887	0.000000	-0.004631	-0.000786	0.000000	0.000000
56.428668	20.942587	14.775425	-0.067652	0.072899	2.823282	0.000000	-0.000227	0.000000	-0.004870	-0.000798	0.000000	0.000000
56.762001	20.993018	14.734386	-0.083641	0.050219	2.823473	0.000000	-0.000227	0.000000	-0.005136	-0.000798	0.000000	0.000000
57.095334	21.054109	14.708467	-0.099631	0.027539	2.823663	0.000000	-0.000227	0.000000	-0.005401	-0.000798	0.000000	0.000000
57.429918	21.126148	14.697655	-0.115680	0.004774	2.823854	0.000000	-0.000227	0.000000	-0.005668	-0.000798	0.000000	0.000000
57.727240	21.199199	14.700816	-0.188027	0.024657	2.824025	0.000000	0.007510	0.000000	-0.005906	-0.000814	0.000000	0.000000
58.276300	21.043362	14.955789	0.469764	-0.491819	2.805622	0.000000	-0.075827	0.000000	-0.006299	-0.000616	0.000000	0.000000
58.825360	20.179360	15.793649	1.094368	-1.043318	2.741658	0.000000	-0.157830	0.000000	-0.006580	-0.000407	0.000000	0.000000
59.374420	18.668211	17.274058	1.641685	-1.669114	2.633263	0.000000	-0.237041	0.000000	-0.006745	-0.000192	0.000000	0.000000
59.923480	16.616621	19.502440	2.073070	-2.413773	2.482356	0.000000	-0.312051	0.000000	-0.006790	0.000028	0.000000	0.000000
60.369440	15.009556	21.483000	1.543424	-2.008803	2.358684	0.000000	-0.243013	0.000000	-0.006817	-0.000149	0.000000	0.000000
60.810400	13.853488	23.042048	1.088387	-1.513667	2.266251	0.000000	-0.177121	0.000000	-0.006921	-0.000326	0.000000	0.000000
61.251360	13.075309	24.132323	0.683063	-0.949676	2.202476	0.000000	-0.113242	0.000000	-0.007105	-0.000507	0.000000	0.000000
61.692320	12.639475	24.704232	0.308941	-0.342486	2.166636	0.000000	-0.050648	0.000000	-0.007369	-0.000693	0.000000	0.000000
62.134530	12.526147	24.731182	-0.018249	0.215561	2.158334	0.000000	0.005706	0.000000	-0.007718	-0.000868	0.000000	0.000000
62.431853	12.544059	24.606740	-0.041993	0.202980	2.160288	0.000000	0.005706	0.000000	-0.007976	-0.000868	0.000000	0.000000
62.765186	12.580927	24.476122	-0.068613	0.188876	2.162480	0.000000	0.005706	0.000000	-0.008266	-0.000868	0.000000	0.000000
63.098520	12.635543	24.354906	-0.095233	0.174771	2.164671	0.000000	0.005706	0.000000	-0.008555	-0.000868	0.000000	0.000000
63.433103	12.708209	24.242692	-0.121953	0.160614	2.166870	0.000000	0.005706	0.000000	-0.008845	-0.000868	0.000000	0.000000
63.730426	12.787756	24.150983	-0.111705	0.083535	2.168822	0.000000	-0.000059	0.000000	-0.009103	-0.000845	0.000000	0.000000
64.171386	13.048300	23.811316	-0.481825	0.683927	2.182944	0.000000	0.062309	0.000000	-0.009528	-0.001085	0.000000	0.000000
64.612346	13.643595	22.953975	-0.873939	1.253205	2.224800	0.000000	0.125398	0.000000	-0.010062	-0.001337	0.000000	0.000000
65.053306	14.600810	21.617971	-1.305953	1.765476	2.294874	0.000000	0.189930	0.000000	-0.010710	-0.001605	0.000000	0.000000
65.494266	15.963634	19.864086	-1.797590	2.197438	2.393969	0.000000	0.256641	0.000000	-0.011480	-0.001891	0.000000	0.000000
65.940226	17.817666	17.747146	-2.375714	2.529970	2.524839	0.000000	0.326659	0.000000	-0.012391	-0.002200	0.000000	0.000000
66.489286	20.191884	15.378898	-1.924704	1.809551	2.684451	0.000000	0.250151	0.000000	-0.013486	-0.001781	0.000000	0.000000
67.038346	21.993017	13.726678	-1.337857	1.217982	2.800540	0.000000	0.169179	0.000000	-0.014341	-0.001331	0.000000	0.000000
67.587406	23.093992	12.672817	-0.656598	0.713138	2.871036	0.000000	0.085185	0.000000	-0.014943	-0.000856	0.000000	0.000000
68.136466	23.417144	12.142262	0.070991	0.259070	2.894683	0.000000	-0.000333	0.000000	-0.015279	-0.000367	0.000000	0.000000
68.435038	23.419425	11.974314	-0.010464	0.268029	2.897231	0.000000	0.008160	0.000000	-0.015401	-0.000409	0.000000	0.000000
68.768372	23.431146	11.805574	-0.024698	0.238192	2.900088	0.000000	0.008160	0.000000	-0.015537	-0.000409	0.000000	0.000000
69.101705	23.452356	11.656725	-0.038933	0.208355	2.902944	0.000000	0.008160	0.000000	-0.015674	-0.000409	0.000000	0.000000
69.436288	23.483189	11.527321	-0.053221	0.178405	2.905811	0.000000	0.008160	0.000000	-0.015811	-0.000409	0.000000	0.000000
69.733611	23.518787	11.429061	-0.135221	0.185401	2.908370	0.000000	0.016730	0.000000	-0.015932	-0.000454	0.000000	0.000000
70.282671	23.263358	11.453963	0.597656	-0.231032	2.894001	0.000000	-0.069379	0.000000	-0.016039	0.000064	0.000000	0.000000
