#ParticleID	Turn	x[m]	xp	y[m]	yp	z[m]	dE[GeV]# s	beta_x	beta_y	alpha_x	alpha_y	D_x	D_y	D_px	D_py	orbit_x	orbit_px	orbit_y	orbit_py
0.300000	11.891664	25.129726	-0.017564	-0.024584	2.609786	0.000000	0.000425	0.000000	-0.000330	0.000290	0.000000	0.000000
0.601250	11.909880	25.148151	-0.042904	-0.036579	2.609826	0.000000	0.000425	0.000000	-0.000243	0.000290	0.000000	0.000000
0.898573	11.942829	25.173422	-0.038584	-0.110137	2.609867	0.000000	-0.005985	0.000000	-0.000157	0.000290	0.000000	0.000000
1.339533	12.129935	24.991262	-0.387241	0.521664	2.623351	0.000000	0.067760	0.000000	-0.000029	0.000288	0.000000	0.000000
1.780493	12.631140	24.260281	-0.753593	1.129731	2.669493	0.000000	0.142273	0.000000	0.000097	0.000288	0.000000	0.000000
2.221453	13.469348	23.013735	-1.154376	1.686397	2.748817	0.000000	0.218404	0.000000	0.000225	0.000293	0.000000	0.000000
2.662413	14.682857	21.308337	-1.607903	2.166334	2.862225	0.000000	0.297019	0.000000	0.000356	0.000300	0.000000	0.000000
3.108373	16.348071	19.196684	-2.139229	2.548849	3.012864	0.000000	0.379504	0.000000	0.000492	0.000311	0.000000	0.000000
3.657433	18.483090	16.824858	-1.726068	1.796407	3.195887	0.000000	0.286766	0.000000	0.000658	0.000292	0.000000	0.000000
4.206493	20.094363	15.204615	-1.190976	1.171920	3.326531	0.000000	0.188947	0.000000	0.000812	0.000269	0.000000	0.000000
4.755553	21.068066	14.220551	-0.571752	0.630908	3.402481	0.000000	0.087780	0.000000	0.000952	0.000240	0.000000	0.000000
5.304613	21.335410	13.802574	0.087865	0.134833	3.422391	0.000000	-0.014939	0.000000	0.001075	0.000207	0.000000	0.000000
5.603185	21.320111	13.707390	0.018614	0.148269	3.420513	0.000000	-0.006078	0.000000	0.001138	0.000210	0.000000	0.000000
5.936519	21.312916	13.616828	0.002974	0.123417	3.418417	0.000000	-0.006078	0.000000	0.001208	0.000210	0.000000	0.000000
6.269852	21.316147	13.542835	-0.012667	0.098564	3.416321	0.000000	-0.006078	0.000000	0.001278	0.000210	0.000000	0.000000
6.604435	21.329875	13.485225	-0.028365	0.073619	3.414217	0.000000	-0.006078	0.000000	0.001348	0.000210	0.000000	0.000000
6.901758	21.350892	13.448038	-0.097440	0.086213	3.412348	0.000000	0.002732	0.000000	0.001411	0.000214	0.000000	0.000000
7.450818	21.093810	13.614441	0.562995	-0.391063	3.385628	0.000000	-0.099553	0.000000	0.001515	0.000166	0.000000	0.000000
7.999878	20.129104	14.317090	1.183663	-0.896194	3.303175	0.000000	-0.200070	0.000000	0.001593	0.000116	0.000000	0.000000
8.548938	18.524918	15.606038	1.720720	-1.465164	3.166453	0.000000	-0.297036	0.000000	0.001642	0.000064	0.000000	0.000000
9.097998	16.394571	17.573100	2.136226	-2.138498	2.977888	0.000000	-0.388732	0.000000	0.001662	0.000010	0.000000	0.000000
9.543958	14.732304	19.325786	1.604361	-1.774953	2.822779	0.000000	-0.307205	0.000000	0.001676	0.000053	0.000000	0.000000
9.984918	13.522246	20.701061	1.150159	-1.331922	2.704487	0.000000	-0.229666	0.000000	0.001709	0.000097	0.000000	0.000000
10.425878	12.688174	21.657289	0.748507	-0.828287	2.619761	0.000000	-0.154744	0.000000	0.001762	0.000142	0.000000	0.000000
10.866838	12.191978	22.150961	0.381054	-0.286962	2.567633	0.000000	-0.081586	0.000000	0.001835	0.000188	0.000000	0.000000
11.309048	12.010839	22.159074	0.059821	0.213940	2.547490	0.000000	-0.015493	0.000000	0.001928	0.000232	0.000000	0.000000
11.606371	11.982653	22.036027	0.034978	0.199908	2.542815	0.000000	-0.015493	0.000000	0.001997	0.000232	0.000000	0.000000
12.086371	11.968326	21.854988	-0.005129	0.177255	2.535267	0.000000	-0.015493	0.000000	0.002109	0.000232	0.000000	0.000000
12.566371	11.992501	21.695697	-0.045236	0.154602	2.527719	0.000000	-0.015493	0.000000	0.002220	0.000232	0.000000	0.000000
13.046371	12.055178	21.558152	-0.085343	0.131949	2.520171	0.000000	-0.015493	0.000000	0.002331	0.000232	0.000000	0.000000
13.526371	12.156359	21.442354	-0.125450	0.109296	2.512623	0.000000	-0.015493	0.000000	0.002442	0.000232	0.000000	0.000000
14.007621	12.296455	21.348086	-0.165661	0.086584	2.505056	0.000000	-0.015493	0.000000	0.002554	0.000232	0.000000	0.000000
14.304943	12.402349	21.300775	-0.160850	0.021689	2.500380	0.000000	-0.021471	0.000000	0.002623	0.000225	0.000000	0.000000
14.745903	12.703149	21.048580	-0.523768	0.548036	2.506413	0.000000	0.049360	0.000000	0.002738	0.000295	0.000000	0.000000
15.186863	13.333347	20.341435	-0.910622	1.049446	2.543745	0.000000	0.120751	0.000000	0.002883	0.000367	0.000000	0.000000
15.627823	14.321741	19.211514	-1.339087	1.503105	2.612799	0.000000	0.193512	0.000000	0.003062	0.000444	0.000000	0.000000
16.068783	15.713503	17.710228	-1.828744	1.888369	2.714360	0.000000	0.268474	0.000000	0.003275	0.000525	0.000000	0.000000
16.514743	17.595861	15.884386	-2.406795	2.188511	2.851281	0.000000	0.346962	0.000000	0.003529	0.000614	0.000000	0.000000
17.063803	20.012827	13.845988	-1.968620	1.545733	3.017795	0.000000	0.259718	0.000000	0.003834	0.000494	0.000000	0.000000
17.612863	21.868892	12.449221	-1.391358	1.013063	3.135135	0.000000	0.167876	0.000000	0.004070	0.000366	0.000000	0.000000
18.161923	23.032910	11.594596	-0.715792	0.552558	3.201224	0.000000	0.073061	0.000000	0.004235	0.000232	0.000000	0.000000
18.710983	23.422631	11.221234	0.010348	0.131415	3.214891	0.000000	-0.023046	0.000000	0.004324	0.000093	0.000000	0.000000
19.009556	23.455460	11.134056	-0.061386	0.132359	3.210394	0.000000	-0.014954	0.000000	0.004355	0.000104	0.000000	0.000000
19.342889	23.501139	11.055971	-0.075651	0.101896	3.205375	0.000000	-0.014954	0.000000	0.004390	0.000104	0.000000	0.000000
19.676223	23.556327	10.998195	-0.089915	0.071433	3.200355	0.000000	-0.014954	0.000000	0.004425	0.000104	0.000000	0.000000
20.010806	23.621579	10.960489	-0.221268	0.095161	3.195337	0.000000	0.000878	0.000000	0.004460	0.000126	0.000000	0.000000
20.308129	23.757095	10.912034	-0.294177	0.095235	3.195562	0.000000	0.008909	0.000000	0.004497	0.000138	0.000000	0.000000
20.857189	23.670472	11.028591	0.451042	-0.308759	3.174208	0.000000	-0.086448	0.000000	0.004533	-0.000009	0.000000	0.000000
21.406249	22.778130	11.598213	1.164396	-0.734748	3.100916	0.000000	-0.180271	0.000000	0.004488	-0.000155	0.000000	0.000000
21.955309	21.143117	12.661476	1.795483	-1.213077	2.976985	0.000000	-0.270899	0.000000	0.004363	-0.000298	0.000000	0.000000
22.504369	18.880961	14.294120	2.299716	-1.777821	2.804612	0.000000	-0.356726	0.000000	0.004161	-0.000436	0.000000	0.000000
22.950329	17.099202	15.760290	1.709322	-1.495809	2.662979	0.000000	-0.279506	0.000000	0.003991	-0.000330	0.000000	0.000000
23.391289	15.820224	16.930027	1.201829	-1.146654	2.556163	0.000000	-0.205936	0.000000	0.003867	-0.000229	0.000000	0.000000
23.832249	14.963043	17.767545	0.749257	-0.745321	2.481201	0.000000	-0.134708	0.000000	0.003788	-0.000130	0.000000	0.000000
24.273209	14.488488	18.234735	0.330922	-0.310073	2.437241	0.000000	-0.065014	0.000000	0.003752	-0.000033	0.000000	0.000000
24.715418	14.374971	18.310090	-0.038391	0.095908	2.423779	0.000000	-0.001790	0.000000	0.003759	0.000054	0.000000	0.000000
25.012741	14.403959	18.257932	-0.059105	0.079520	2.423231	0.000000	-0.001790	0.000000	0.003775	0.000054	0.000000	0.000000
25.346075	14.451103	18.211043	-0.082328	0.061148	2.422616	0.000000	-0.001790	0.000000	0.003793	0.000054	0.000000	0.000000
25.679408	14.513729	18.176402	-0.105550	0.042775	2.422001	0.000000	-0.001790	0.000000	0.003811	0.000054	0.000000	0.000000
26.013991	14.591863	18.154316	-0.010481	-0.122943	2.421359	0.000000	-0.021434	0.000000	0.003829	0.000023	0.000000	0.000000
26.311314	14.604148	18.232374	0.003642	-0.182637	2.414979	0.000000	-0.027139	0.000000	0.003836	0.000014	0.000000	0.000000
26.752274	14.781123	18.195798	-0.406456	0.265264	2.418106	0.000000	0.041455	0.000000	0.003864	0.000113	0.000000	0.000000
27.193234	15.326604	17.768020	-0.835128	0.701095	2.451513	0.000000	0.110520	0.000000	0.003937	0.000214	0.000000	0.000000
27.634194	16.265519	16.968506	-1.301963	1.105024	2.515583	0.000000	0.180842	0.000000	0.004054	0.000317	0.000000	0.000000
28.075154	17.640781	15.833634	-1.828295	1.458670	2.611043	0.000000	0.253220	0.000000	0.004217	0.000424	0.000000	0.000000
28.521114	19.539195	14.397913	-2.443201	1.746932	2.740588	0.000000	0.328937	0.000000	0.004431	0.000536	0.000000	0.000000
29.070174	21.952555	12.798505	-1.925656	1.183067	2.898265	0.000000	0.245422	0.000000	0.004685	0.000388	0.000000	0.000000
29.619234	23.718981	11.768688	-1.272057	0.703479	3.008903	0.000000	0.157560	0.000000	0.004855	0.000234	0.000000	0.000000
30.168294	24.713657	11.235104	-0.528582	0.274004	3.070539	0.000000	0.066906	0.000000	0.004940	0.000075	0.000000	0.000000
30.717354	24.866298	11.159745	0.252239	-0.135952	3.082082	0.000000	-0.024934	0.000000	0.004937	-0.000085	0.000000	0.000000
31.015927	24.756542	11.232327	0.177551	-0.135069	3.076962	0.000000	-0.017218	0.000000	0.004916	-0.000073	0.000000	0.000000
31.349260	24.642804	11.332445	0.163662	-0.165286	3.071247	0.000000	-0.017218	0.000000	0.004892	-0.000073	0.000000	0.000000
31.682593	24.538325	11.452709	0.149774	-0.195504	3.065531	0.000000	-0.017218	0.000000	0.004867	-0.000073	0.000000	0.000000
32.017177	24.442766	11.593682	0.135833	-0.225835	3.059795	0.000000	-0.017218	0.000000	0.004843	-0.000073	0.000000	0.000000
32.314499	24.365694	11.735979	0.062386	-0.223389	3.054698	0.000000	-0.009564	0.000000	0.004821	-0.000060	0.000000	0.000000
32.863559	23.879933	12.220350	0.816935	-0.663941	3.024587	0.000000	-0.100215	0.000000	0.004746	-0.000215	0.000000	0.000000
33.412619	22.592425	13.211510	1.513763	-1.151789	2.945194	0.000000	-0.189091	0.000000	0.004586	-0.000366	0.000000	0.000000
33.961679	20.594149	14.780061	2.103637	-1.721686	2.817928	0.000000	-0.274619	0.000000	0.004345	-0.000511	0.000000	0.000000
34.510739	18.026301	17.037734	2.544882	-2.414228	2.645041	0.000000	-0.355284	0.000000	0.004026	-0.000647	0.000000	0.000000
34.956699	16.030532	19.057239	1.945855	-2.095084	2.503222	0.000000	-0.282209	0.000000	0.003760	-0.000546	0.000000	0.000000
35.397659	14.542623	20.728981	1.440801	-1.681432	2.394396	0.000000	-0.212784	0.000000	0.003541	-0.000452	0.000000	0.000000
35.838619	13.469574	22.000629	1.001588	-1.191270	2.315584	0.000000	-0.145778	0.000000	0.003361	-0.000363	0.000000	0.000000
36.279579	12.762344	22.814325	0.608144	-0.646903	2.265892	0.000000	-0.080428	0.000000	0.003220	-0.000278	0.000000	0.000000
36.721789	12.387935	23.133358	0.271860	-0.128134	2.244727	0.000000	-0.021333	0.000000	0.003116	-0.000204	0.000000	0.000000
37.019112	12.233939	23.213437	0.246085	-0.141198	2.238445	0.000000	-0.021333	0.000000	0.003055	-0.000204	0.000000	0.000000
37.352445	12.079514	23.312451	0.217188	-0.155844	2.231402	0.000000	-0.021333	0.000000	0.002987	-0.000204	0.000000	0.000000
37.685779	11.944354	23.421228	0.188292	-0.170489	2.224359	0.000000	-0.021333	0.000000	0.002919	-0.000204	0.000000	0.000000
38.020362	11.828060	23.540233	0.159287	-0.185190	2.217289	0.000000	-0.021333	0.000000	0.002851	-0.000204	0.000000	0.000000
38.317684	11.741001	23.654245	0.161539	-0.254790	2.211007	0.000000	-0.026611	0.000000	0.002791	-0.000210	0.000000	0.000000
38.758644	11.748601	23.616888	-0.178896	0.339181	2.213306	0.000000	0.036712	0.000000	0.002714	-0.000139	0.000000	0.000000
39.199604	12.058914	23.060508	-0.527505	0.917717	2.243566	0.000000	0.100454	0.000000	0.002667	-0.000070	0.000000	0.000000
39.640564	12.686120	22.010421	-0.900216	1.454495	2.302130	0.000000	0.165342	0.000000	0.002652	-0.000002	0.000000	0.000000
40.081524	13.658879	20.514410	-1.314060	1.925089	2.389667	0.000000	0.232112	0.000000	0.002666	0.000067	0.000000	0.000000
40.527484	15.039174	18.617912	-1.791810	2.309444	2.508650	0.000000	0.301941	0.000000	0.002711	0.000137	0.000000	0.000000
41.076544	16.801962	16.486471	-1.399572	1.595300	2.653797	0.000000	0.226150	0.000000	0.002762	0.000048	0.000000	0.000000
41.625604	18.076811	15.072644	-0.908464	0.994795	2.756212	0.000000	0.146348	0.000000	0.002764	-0.000041	0.000000	0.000000
42.174664	18.773656	14.275719	-0.353180	0.465152	2.814078	0.000000	0.063950	0.000000	0.002717	-0.000130	0.000000	0.000000
42.723724	18.843271	14.038927	0.227052	-0.031356	2.826368	0.000000	-0.019585	0.000000	0.002621	-0.000217	0.000000	0.000000
43.022297	18.741316	14.042559	0.162555	-0.016711	2.822738	0.000000	-0.012364	0.000000	0.002559	-0.000210	0.000000	0.000000
43.502297	18.597881	14.075013	0.136267	-0.050902	2.816905	0.000000	-0.012364	0.000000	0.002458	-0.000210	0.000000	0.000000
43.982297	18.479684	14.140291	0.109978	-0.085093	2.811071	0.000000	-0.012364	0.000000	0.002357	-0.000210	0.000000	0.000000
44.462297	18.386723	14.238392	0.083689	-0.119285	2.805237	0.000000	-0.012364	0.000000	0.002256	-0.000210	0.000000	0.000000
44.942297	18.319000	14.369317	0.057401	-0.153476	2.799403	0.000000	-0.012364	0.000000	0.002156	-0.000210	0.000000	0.000000
45.423547	18.276662	14.533355	-0.059509	-0.115749	2.793571	0.000000	0.001477	0.000000	0.002055	-0.000200	0.000000	0.000000
45.720870	18.316905	14.608348	-0.122889	-0.098995	2.794070	0.000000	0.008655	0.000000	0.001995	-0.000195	0.000000	0.000000
46.269930	18.143326	14.999453	0.437029	-0.617508	2.776294	0.000000	-0.073743	0.000000	0.001871	-0.000257	0.000000	0.000000
46.818990	17.368252	15.980629	0.966071	-1.180006	2.713599	0.000000	-0.154837	0.000000	0.001714	-0.000315	0.000000	0.000000
47.368050	16.046441	17.621763	1.426864	-1.826556	2.607095	0.000000	-0.233189	0.000000	0.001526	-0.000368	0.000000	0.000000
47.917110	14.271278	20.039747	1.786857	-2.603211	2.458670	0.000000	-0.307411	0.000000	0.001311	-0.000414	0.000000	0.000000
48.363070	12.889249	22.189303	1.322916	-2.196526	2.337081	0.000000	-0.238921	0.000000	0.001134	-0.000382	0.000000	0.000000
48.804030	11.902472	23.910216	0.923202	-1.691214	2.246381	0.000000	-0.173550	0.000000	0.000971	-0.000355	0.000000	0.000000
49.244990	11.248363	25.149710	0.565670	-1.108952	2.184036	0.000000	-0.110152	0.000000	0.000820	-0.000332	0.000000	0.000000
49.685950	10.897031	25.851391	0.233985	-0.476233	2.149336	0.000000	-0.048005	0.000000	0.000678	-0.000313	0.000000	0.000000
50.128160	10.832575	25.983049	-0.060696	0.114823	2.141898	0.000000	0.008373	0.000000	0.000543	-0.000298	0.000000	0.000000
50.425482	10.876858	25.918217	-0.088244	0.103229	2.144476	0.000000	0.008373	0.000000	0.000455	-0.000298	0.000000	0.000000
50.758816	10.945983	25.853730	-0.119129	0.090231	2.147366	0.000000	0.008373	0.000000	0.000355	-0.000298	0.000000	0.000000
51.092149	11.035697	25.797909	-0.150014	0.077233	2.150257	0.000000	0.008373	0.000000	0.000256	-0.000298	0.000000	0.000000
51.426732	11.146228	25.751114	-0.090589	-0.144719	2.153136	0.000000	-0.009094	0.000000	0.000156	-0.000299	0.000000	0.000000
51.724055	11.208092	25.840676	-0.090014	-0.219946	2.150521	0.000000	-0.014365	0.000000	0.000067	-0.000300	0.000000	0.000000
52.165015	11.433610	25.747103	-0.423448	0.431341	2.157939	0.000000	0.047460	0.000000	-0.000065	-0.000300	0.000000	0.000000
52.605975	11.960574	25.085642	-0.776225	1.063001	2.192713	0.000000	0.109829	0.000000	-0.000197	-0.000303	0.000000	0.000000
53.046935	12.813055	23.886392	-1.164463	1.646295	2.255242	0.000000	0.173452	0.000000	-0.000332	-0.000310	0.000000	0.000000
53.487895	14.029997	22.203919	-1.605899	2.154684	2.346238	0.000000	0.239053	0.000000	-0.000471	-0.000320	0.000000	0.000000
53.933855	15.687824	20.089631	-2.124960	2.566363	2.468248	0.000000	0.307779	0.000000	-0.000617	-0.000334	0.000000	0.000000
54.482915	17.821963	17.710371	-1.739119	1.792592	2.617164	0.000000	0.233245	0.000000	-0.000794	-0.000311	0.000000	0.000000
55.031975	19.462032	16.106121	-1.230445	1.146503	2.723944	0.000000	0.154569	0.000000	-0.000958	-0.000283	0.000000	0.000000
55.581035	20.492200	15.162610	-0.634868	0.582076	2.786690	0.000000	0.073147	0.000000	-0.001104	-0.000250	0.000000	0.000000
56.130095	20.839712	14.812633	0.005546	0.059109	2.804289	0.000000	-0.009577	0.000000	-0.001231	-0.000212	0.000000	0.000000
56.428668	20.873536	14.760038	-0.063826	0.077903	2.803704	0.000000	-0.002175	0.000000	-0.001295	-0.000215	0.000000	0.000000
56.762001	20.921432	14.715676	-0.079860	0.055182	2.803051	0.000000	-0.002175	0.000000	-0.001367	-0.000215	0.000000	0.000000
57.095334	20.980017	14.686461	-0.095895	0.032462	2.802398	0.000000	-0.002175	0.000000	-0.001438	-0.000215	0.000000	0.000000
57.429918	21.049571	14.672370	-0.111989	0.009656	2.801742	0.000000	-0.002175	0.000000	-0.001510	-0.000215	0.000000	0.000000
57.727240	21.120419	14.672652	-0.182200	0.028185	2.801159	0.000000	0.005240	0.000000	-0.001574	-0.000219	0.000000	0.000000
58.276300	20.959790	14.923282	0.472910	-0.487361	2.781437	0.000000	-0.077347	0.000000	-0.001680	-0.000166	0.000000	0.000000
58.825360	20.093976	15.755653	1.094615	-1.037617	2.716652	0.000000	-0.158564	0.000000	-0.001756	-0.000111	0.000000	0.000000
59.374420	18.584131	17.229047	1.639005	-1.661777	2.607951	0.000000	-0.236972	0.000000	-0.001801	-0.000053	0.000000	0.000000
59.923480	16.536892	19.448407	2.067632	-2.404294	2.457263	0.000000	-0.311177	0.000000	-0.001815	0.000006	0.000000	0.000000
60.369440	14.933863	21.420913	1.539708	-2.000166	2.333821	0.000000	-0.242761	0.000000	-0.001823	-0.000042	0.000000	0.000000
60.810400	13.780280	22.973023	1.086330	-1.506375	2.241279	0.000000	-0.177503	0.000000	-0.001851	-0.000089	0.000000	0.000000
61.251360	13.003211	24.057660	0.682581	-0.944048	2.177062	0.000000	-0.114264	0.000000	-0.001901	-0.000137	0.000000	0.000000
61.692320	12.567155	24.625477	0.310015	-0.338771	2.140437	0.000000	-0.052326	0.000000	-0.001973	-0.000187	0.000000	0.000000
62.134530	12.452238	24.650088	-0.017356	0.220324	2.130994	0.000000	0.003691	0.000000	-0.002067	-0.000234	0.000000	0.000000
62.431853	12.469660	24.522834	-0.041241	0.207677	2.132161	0.000000	0.003691	0.000000	-0.002137	-0.000234	0.000000	0.000000
62.765186	12.506080	24.389109	-0.068018	0.193498	2.133469	0.000000	0.003691	0.000000	-0.002215	-0.000234	0.000000	0.000000
63.098520	12.560351	24.264837	-0.094795	0.179319	2.134777	0.000000	0.003691	0.000000	-0.002293	-0.000234	0.000000	0.000000
63.433103	12.632777	24.149605	-0.121672	0.165087	2.136090	0.000000	0.003691	0.000000	-0.002371	-0.000234	0.000000	0.000000
63.730426	12.712228	24.055201	-0.113668	0.092017	2.137257	0.000000	-0.001671	0.000000	-0.002441	-0.000228	0.000000	0.000000
64.171386	12.973921	23.709185	-0.482164	0.689713	2.150189	0.000000	0.059879	0.000000	-0.002556	-0.000293	0.000000	0.000000
64.612346	13.569021	22.847946	-0.872684	1.256028	2.190415	0.000000	0.122114	0.000000	-0.002699	-0.000360	0.000000	0.000000
65.053306	14.524707	21.510670	-1.303067	1.765199	2.258393	0.000000	0.185744	0.000000	-0.002874	-0.000432	0.000000	0.000000
65.494266	15.884630	19.758202	-1.792971	2.194059	2.354900	0.000000	0.251494	0.000000	-0.003081	-0.000509	0.000000	0.000000
65.940226	17.734124	17.645487	-2.369407	2.523776	2.482609	0.000000	0.320505	0.000000	-0.003326	-0.000592	0.000000	0.000000
66.489286	20.103652	15.282237	-1.921160	1.806016	2.638472	0.000000	0.245400	0.000000	-0.003621	-0.000479	0.000000	0.000000
67.038346	21.903128	13.632311	-1.337243	1.216883	2.751778	0.000000	0.165935	0.000000	-0.003851	-0.000358	0.000000	0.000000
67.587406	23.005486	12.578191	-0.658893	0.714419	2.820514	0.000000	0.083521	0.000000	-0.004013	-0.000231	0.000000	0.000000
68.136466	23.332888	12.044799	0.065984	0.262836	2.843459	0.000000	-0.000378	0.000000	-0.004104	-0.000099	0.000000	0.000000
68.435038	23.334938	11.876459	-0.009851	0.268443	2.845672	0.000000	0.007304	0.000000	-0.004137	-0.000110	0.000000	0.000000
68.768372	23.346267	11.707527	-0.024137	0.238354	2.848144	0.000000	0.007304	0.000000	-0.004174	-0.000110	0.000000	0.000000
69.101705	23.367120	11.558654	-0.038423	0.208264	2.850616	0.000000	0.007304	0.000000	-0.004211	-0.000110	0.000000	0.000000
69.436288	23.397629	11.429396	-0.052763	0.178062	2.853096	0.000000	0.007304	0.000000	-0.004248	-0.000110	0.000000	0.000000
69.733611	23.432806	11.331486	-0.128902	0.181861	2.855302	0.000000	0.015029	0.000000	-0.004281	-0.000122	0.000000	0.000000
70.282671	23.171938	11.358827	0.601201	-0.231954	2.840387	0.000000	-0.069383	0.000000	-0.004309	0.000017	0.000000	0.000000
