#ParticleID	Turn	x[m]	xp	y[m]	yp	z[m]	dE[GeV]# s	beta_x	beta_y	alpha_x	alpha_y	D_x	D_y	D_px	D_py	orbit_x	orbit_px	orbit_y	orbit_py
0.300000	11.837222	24.943759	-0.013975	-0.027676	2.618062	0.000000	-0.000065	0.000000	-0.000011	0.000010	0.000000	0.000000
0.601250	11.853310	24.964075	-0.039429	-0.039762	2.618040	0.000000	-0.000065	0.000000	-0.000008	0.000010	0.000000	0.000000
0.898573	11.884226	24.991266	-0.035406	-0.112976	2.618017	0.000000	-0.006485	0.000000	-0.000005	0.000010	0.000000	0.000000
1.339533	12.067874	24.813724	-0.382643	0.514070	2.631446	0.000000	0.067469	0.000000	-0.000001	0.000010	0.000000	0.000000
1.780493	12.564278	24.091418	-0.747361	1.117726	2.677623	0.000000	0.142191	0.000000	0.000004	0.000010	0.000000	0.000000
2.221453	13.396120	22.857213	-1.146224	1.670527	2.757076	0.000000	0.218533	0.000000	0.000008	0.000010	0.000000	0.000000
2.662413	14.601403	21.167264	-1.597455	2.147321	2.870709	0.000000	0.297364	0.000000	0.000013	0.000011	0.000000	0.000000
3.108373	16.256019	19.073675	-2.125973	2.527542	3.021676	0.000000	0.380071	0.000000	0.000018	0.000011	0.000000	0.000000
3.657433	18.377724	16.722393	-1.715394	1.780111	3.205084	0.000000	0.287045	0.000000	0.000023	0.000010	0.000000	0.000000
4.206493	19.978954	15.117855	-1.183648	1.159474	3.335940	0.000000	0.188926	0.000000	0.000029	0.000009	0.000000	0.000000
4.755553	20.946606	14.145774	-0.568294	0.621423	3.411923	0.000000	0.087457	0.000000	0.000034	0.000008	0.000000	0.000000
5.304613	21.212331	13.736910	0.087201	0.127634	3.431685	0.000000	-0.015563	0.000000	0.000038	0.000007	0.000000	0.000000
5.603185	21.197551	13.645931	0.017705	0.141197	3.429712	0.000000	-0.006599	0.000000	0.000040	0.000007	0.000000	0.000000
5.936519	21.190991	13.560104	0.001975	0.116283	3.427510	0.000000	-0.006599	0.000000	0.000043	0.000007	0.000000	0.000000
6.269852	21.194917	13.490887	-0.013755	0.091369	3.425308	0.000000	-0.006599	0.000000	0.000045	0.000007	0.000000	0.000000
6.604435	21.209404	13.438113	-0.029544	0.066361	3.423097	0.000000	-0.006599	0.000000	0.000048	0.000007	0.000000	0.000000
6.901758	21.231144	13.405259	-0.099024	0.079151	3.421133	0.000000	0.002336	0.000000	0.000050	0.000007	0.000000	0.000000
7.450818	20.977940	13.578784	0.557457	-0.397055	3.394216	0.000000	-0.100227	0.000000	0.000054	0.000006	0.000000	0.000000
7.999878	20.021295	14.287609	1.174563	-0.901543	3.311392	0.000000	-0.201011	0.000000	0.000056	0.000004	0.000000	0.000000
8.548938	18.428782	15.582222	1.708703	-1.470245	3.174132	0.000000	-0.298230	0.000000	0.000058	0.000002	0.000000	0.000000
9.097998	16.312888	17.554836	2.122148	-2.143670	2.984868	0.000000	-0.390160	0.000000	0.000059	0.000000	0.000000	0.000000
9.543958	14.661935	19.312614	1.593032	-1.781231	2.829176	0.000000	-0.308469	0.000000	0.000059	0.000002	0.000000	0.000000
9.984918	13.460893	20.693758	1.140999	-1.338977	2.710395	0.000000	-0.230775	0.000000	0.000060	0.000003	0.000000	0.000000
10.425878	12.634101	21.656412	0.741095	-0.835800	2.625262	0.000000	-0.155709	0.000000	0.000062	0.000005	0.000000	0.000000
10.866838	12.143786	22.156775	0.375051	-0.294595	2.572808	0.000000	-0.082417	0.000000	0.000065	0.000007	0.000000	0.000000
11.309048	11.967408	22.171568	0.055365	0.205615	2.552413	0.000000	-0.016319	0.000000	0.000068	0.000008	0.000000	0.000000
11.606371	11.941895	22.053455	0.030444	0.191638	2.547559	0.000000	-0.016319	0.000000	0.000070	0.000008	0.000000	0.000000
12.086371	11.931979	21.880314	-0.009787	0.169073	2.539722	0.000000	-0.016319	0.000000	0.000074	0.000008	0.000000	0.000000
12.566371	11.960687	21.728834	-0.050019	0.146509	2.531884	0.000000	-0.016319	0.000000	0.000078	0.000008	0.000000	0.000000
13.046371	12.028017	21.599017	-0.090251	0.123944	2.524047	0.000000	-0.016319	0.000000	0.000082	0.000008	0.000000	0.000000
13.526371	12.133969	21.490862	-0.130483	0.101380	2.516210	0.000000	-0.016319	0.000000	0.000086	0.000008	0.000000	0.000000
14.007621	12.278971	21.404171	-0.170820	0.078756	2.508353	0.000000	-0.016319	0.000000	0.000090	0.000008	0.000000	0.000000
14.304943	12.387958	21.361495	-0.165388	0.012442	2.503498	0.000000	-0.022453	0.000000	0.000092	0.000008	0.000000	0.000000
14.745903	12.692607	21.116691	-0.528106	0.540606	2.509220	0.000000	0.048450	0.000000	0.000096	0.000010	0.000000	0.000000
15.186863	13.326535	20.415197	-0.914951	1.044172	2.546299	0.000000	0.119904	0.000000	0.000101	0.000013	0.000000	0.000000
15.627823	14.318705	19.288931	-1.343599	1.500228	2.615156	0.000000	0.192724	0.000000	0.000108	0.000016	0.000000	0.000000
16.068783	15.714447	17.789137	-1.833632	1.888026	2.716575	0.000000	0.267739	0.000000	0.000115	0.000018	0.000000	0.000000
16.514743	17.601182	15.962555	-2.412199	2.190672	2.853406	0.000000	0.346266	0.000000	0.000124	0.000022	0.000000	0.000000
17.063803	20.024076	13.922873	-1.974464	1.546112	3.019796	0.000000	0.258967	0.000000	0.000135	0.000017	0.000000	0.000000
17.612863	21.886389	12.526731	-1.397262	1.011678	3.136922	0.000000	0.167074	0.000000	0.000143	0.000013	0.000000	0.000000
18.161923	23.056573	11.674685	-0.721362	0.549304	3.202706	0.000000	0.072218	0.000000	0.000149	0.000008	0.000000	0.000000
18.710983	23.451974	11.306047	0.005491	0.126057	3.215982	0.000000	-0.023918	0.000000	0.000152	0.000003	0.000000	0.000000
19.009556	23.489052	11.221231	-0.068478	0.128512	3.211346	0.000000	-0.015526	0.000000	0.000153	0.000004	0.000000	0.000000
19.342889	23.539456	11.145622	-0.082735	0.098316	3.206169	0.000000	-0.015526	0.000000	0.000154	0.000004	0.000000	0.000000
19.676223	23.599366	11.090144	-0.096993	0.068119	3.200992	0.000000	-0.015526	0.000000	0.000155	0.000004	0.000000	0.000000
20.010806	23.669352	11.054564	-0.228575	0.092581	3.195816	0.000000	0.000308	0.000000	0.000157	0.000004	0.000000	0.000000
20.308129	23.809203	11.007577	-0.303920	0.094178	3.195906	0.000000	0.008647	0.000000	0.000158	0.000005	0.000000	0.000000
20.857189	23.732309	11.126739	0.443137	-0.312488	3.174444	0.000000	-0.086706	0.000000	0.000159	-0.000000	0.000000	0.000000
21.406249	22.847457	11.702000	1.158893	-0.741413	3.100975	0.000000	-0.180522	0.000000	0.000157	-0.000005	0.000000	0.000000
21.955309	21.217149	12.774334	1.792790	-1.223147	2.976802	0.000000	-0.271136	0.000000	0.000153	-0.000010	0.000000	0.000000
22.504369	18.956542	14.420121	2.300052	-1.792003	2.804129	0.000000	-0.356940	0.000000	0.000146	-0.000015	0.000000	0.000000
22.950329	17.175220	15.897551	1.708390	-1.506935	2.662241	0.000000	-0.279757	0.000000	0.000140	-0.000012	0.000000	0.000000
23.391289	15.897807	17.075473	1.199480	-1.154163	2.555199	0.000000	-0.206216	0.000000	0.000136	-0.000008	0.000000	0.000000
23.832249	15.043443	17.917845	0.745372	-0.748877	2.480037	0.000000	-0.135022	0.000000	0.000133	-0.000005	0.000000	0.000000
24.273209	14.573094	18.386339	0.325319	-0.309518	2.435899	0.000000	-0.065367	0.000000	0.000132	-0.000001	0.000000	0.000000
24.715418	14.465382	18.459392	-0.044530	0.098643	2.422278	0.000000	-0.002389	0.000000	0.000132	0.000002	0.000000	0.000000
25.012741	14.497985	18.405570	-0.065125	0.082379	2.421567	0.000000	-0.002389	0.000000	0.000132	0.000002	0.000000	0.000000
25.346075	14.549098	18.356728	-0.088214	0.064146	2.420770	0.000000	-0.002389	0.000000	0.000133	0.000002	0.000000	0.000000
25.679408	14.615604	18.320042	-0.111303	0.045913	2.419973	0.000000	-0.002389	0.000000	0.000134	0.000002	0.000000	0.000000
26.013991	14.697540	18.295813	-0.015243	-0.120814	2.419149	0.000000	-0.022014	0.000000	0.000134	0.000001	0.000000	0.000000
26.311314	14.712621	18.372556	0.000557	-0.182299	2.412603	0.000000	-0.027923	0.000000	0.000135	0.000000	0.000000	0.000000
26.752274	14.893438	18.334017	-0.412165	0.269365	2.415394	0.000000	0.040599	0.000000	0.000136	0.000004	0.000000	0.000000
27.193234	15.445141	17.901048	-0.843717	0.708774	2.448472	0.000000	0.109583	0.000000	0.000138	0.000007	0.000000	0.000000
27.634194	16.392935	17.093350	-1.313817	1.115934	2.512214	0.000000	0.179815	0.000000	0.000142	0.000011	0.000000	0.000000
28.075154	17.780124	15.947671	-1.843942	1.472319	2.607346	0.000000	0.252095	0.000000	0.000148	0.000015	0.000000	0.000000
28.521114	19.694193	14.498886	-2.463267	1.762632	2.736553	0.000000	0.327690	0.000000	0.000155	0.000019	0.000000	0.000000
29.070174	22.126994	12.884471	-1.941331	1.195042	2.893812	0.000000	0.244325	0.000000	0.000164	0.000014	0.000000	0.000000
29.619234	23.907492	11.843220	-1.282269	0.712573	3.004042	0.000000	0.156626	0.000000	0.000170	0.000008	0.000000	0.000000
30.168294	24.909920	11.300966	-0.532632	0.280858	3.065288	0.000000	0.066149	0.000000	0.000173	0.000003	0.000000	0.000000
30.717354	25.063471	11.219086	0.254627	-0.130851	3.076463	0.000000	-0.025501	0.000000	0.000173	-0.000003	0.000000	0.000000
31.015927	24.954154	11.287772	0.176896	-0.128467	3.071247	0.000000	-0.017474	0.000000	0.000172	-0.000003	0.000000	0.000000
31.349260	24.840815	11.383423	0.163121	-0.158485	3.065423	0.000000	-0.017474	0.000000	0.000172	-0.000003	0.000000	0.000000
31.682593	24.736659	11.499086	0.149345	-0.188503	3.059599	0.000000	-0.017474	0.000000	0.000171	-0.000003	0.000000	0.000000
32.017177	24.641349	11.635307	0.135517	-0.218634	3.053753	0.000000	-0.017474	0.000000	0.000170	-0.000003	0.000000	0.000000
32.314499	24.564418	11.773277	0.059138	-0.214691	3.048558	0.000000	-0.009520	0.000000	0.000169	-0.000002	0.000000	0.000000
32.863559	24.078704	12.248416	0.820247	-0.655782	3.018461	0.000000	-0.099960	0.000000	0.000166	-0.000008	0.000000	0.000000
33.412619	22.784223	13.230581	1.523417	-1.143584	2.939124	0.000000	-0.188626	0.000000	0.000161	-0.000013	0.000000	0.000000
33.961679	20.772410	14.789729	2.118979	-1.712840	2.811954	0.000000	-0.273947	0.000000	0.000152	-0.000018	0.000000	0.000000
34.510739	18.185372	17.036916	2.564866	-2.404099	2.639208	0.000000	-0.354409	0.000000	0.000141	-0.000023	0.000000	0.000000
34.956699	16.174048	19.046856	1.961376	-2.084069	2.497501	0.000000	-0.281502	0.000000	0.000132	-0.000019	0.000000	0.000000
35.397659	14.674349	20.708562	1.452499	-1.669968	2.388753	0.000000	-0.212229	0.000000	0.000124	-0.000016	0.000000	0.000000
35.838619	13.592593	21.970035	1.009982	-1.179884	2.309990	0.000000	-0.145374	0.000000	0.000118	-0.000013	0.000000	0.000000
36.279579	12.879357	22.773879	0.613609	-0.636116	2.260313	0.000000	-0.080173	0.000000	0.000113	-0.000010	0.000000	0.000000
36.721789	12.501365	23.083819	0.275789	-0.120007	2.239131	0.000000	-0.021372	0.000000	0.000109	-0.000007	0.000000	0.000000
37.019112	12.344977	23.159065	0.250197	-0.133073	2.232779	0.000000	-0.021372	0.000000	0.000107	-0.000007	0.000000	0.000000
37.352445	12.187743	23.252663	0.221506	-0.147721	2.225658	0.000000	-0.021372	0.000000	0.000105	-0.000007	0.000000	0.000000
37.685779	12.049637	23.356027	0.192814	-0.162369	2.218536	0.000000	-0.021372	0.000000	0.000102	-0.000007	0.000000	0.000000
38.020362	11.930248	23.469598	0.164014	-0.177072	2.211388	0.000000	-0.021372	0.000000	0.000100	-0.000007	0.000000	0.000000
38.317684	11.840327	23.578778	0.167431	-0.247909	2.205036	0.000000	-0.026774	0.000000	0.000098	-0.000007	0.000000	0.000000
38.758644	11.843728	23.536268	-0.175175	0.343945	2.207156	0.000000	0.036388	0.000000	0.000095	-0.000005	0.000000	0.000000
39.199604	12.151654	22.976723	-0.525784	0.920149	2.237192	0.000000	0.099965	0.000000	0.000094	-0.000002	0.000000	0.000000
39.640564	12.778175	21.925603	-0.900415	1.454487	2.295487	0.000000	0.164680	0.000000	0.000093	-0.000000	0.000000	0.000000
40.081524	13.751914	20.430732	-1.316184	1.922647	2.382702	0.000000	0.231271	0.000000	0.000094	0.000002	0.000000	0.000000
40.527484	15.134915	18.537555	-1.795909	2.304607	2.501305	0.000000	0.300901	0.000000	0.000095	0.000005	0.000000	0.000000
41.076544	16.900152	16.410206	-1.400070	1.592787	2.645992	0.000000	0.225362	0.000000	0.000097	0.000002	0.000000	0.000000
41.625604	18.173498	14.998010	-0.905336	0.994417	2.748044	0.000000	0.145826	0.000000	0.000097	-0.000001	0.000000	0.000000
42.174664	18.865010	14.200379	-0.346654	0.466877	2.805653	0.000000	0.063703	0.000000	0.000095	-0.000005	0.000000	0.000000
42.723724	18.925842	13.960499	0.236514	-0.027407	2.817795	0.000000	-0.019550	0.000000	0.000092	-0.000008	0.000000	0.000000
43.022297	18.818990	13.961485	0.170774	-0.012346	2.814156	0.000000	-0.012194	0.000000	0.000090	-0.000007	0.000000	0.000000
43.502297	18.667647	13.989843	0.144524	-0.046732	2.808307	0.000000	-0.012194	0.000000	0.000086	-0.000007	0.000000	0.000000
43.982297	18.541504	14.051210	0.118274	-0.081117	2.802457	0.000000	-0.012194	0.000000	0.000083	-0.000007	0.000000	0.000000
44.462297	18.440561	14.145588	0.092024	-0.115503	2.796608	0.000000	-0.012194	0.000000	0.000079	-0.000007	0.000000	0.000000
44.942297	18.364818	14.272976	0.065774	-0.149888	2.790758	0.000000	-0.012194	0.000000	0.000076	-0.000007	0.000000	0.000000
45.423547	18.314403	14.433656	-0.051284	-0.112850	2.784911	0.000000	0.001604	0.000000	0.000072	-0.000007	0.000000	0.000000
45.720870	18.349738	14.506964	-0.115478	-0.095831	2.785390	0.000000	0.008878	0.000000	0.000070	-0.000007	0.000000	0.000000
46.269930	18.167562	14.892865	0.445306	-0.611155	2.767700	0.000000	-0.073235	0.000000	0.000066	-0.000009	0.000000	0.000000
46.818990	17.383283	15.865093	0.974635	-1.170010	2.705217	0.000000	-0.154050	0.000000	0.000060	-0.000011	0.000000	0.000000
47.368050	16.052300	17.492900	1.435120	-1.812202	2.599048	0.000000	-0.232132	0.000000	0.000054	-0.000013	0.000000	0.000000
47.917110	14.268628	19.892228	1.794235	-2.583474	2.451078	0.000000	-0.306096	0.000000	0.000046	-0.000015	0.000000	0.000000
48.363070	12.880388	22.025561	1.329711	-2.180099	2.329868	0.000000	-0.237803	0.000000	0.000040	-0.000013	0.000000	0.000000
48.804030	11.887839	23.733683	0.929704	-1.678802	2.239470	0.000000	-0.172616	0.000000	0.000034	-0.000012	0.000000	0.000000
49.244990	11.228072	24.964201	0.572173	-1.101121	2.177357	0.000000	-0.109394	0.000000	0.000029	-0.000012	0.000000	0.000000
49.685950	10.870945	25.661127	0.240783	-0.473339	2.142821	0.000000	-0.047418	0.000000	0.000024	-0.000011	0.000000	0.000000
50.128160	10.800273	25.792470	-0.053242	0.112694	2.135479	0.000000	0.008782	0.000000	0.000019	-0.000010	0.000000	0.000000
50.425482	10.840141	25.728928	-0.080849	0.101020	2.138094	0.000000	0.008782	0.000000	0.000016	-0.000010	0.000000	0.000000
50.758816	10.904358	25.665944	-0.111800	0.087932	2.141024	0.000000	0.008782	0.000000	0.000012	-0.000010	0.000000	0.000000
51.092149	10.989208	25.611685	-0.142751	0.074844	2.143955	0.000000	0.008782	0.000000	0.000009	-0.000010	0.000000	0.000000
51.426732	11.094902	25.566516	-0.083809	-0.145701	2.146875	0.000000	-0.008635	0.000000	0.000006	-0.000010	0.000000	0.000000
51.724055	11.152762	25.656687	-0.083446	-0.220497	2.144311	0.000000	-0.013893	0.000000	0.000002	-0.000011	0.000000	0.000000
52.165015	11.371920	25.565747	-0.415444	0.425943	2.151779	0.000000	0.047773	0.000000	-0.000002	-0.000010	0.000000	0.000000
52.605975	11.891105	24.911100	-0.766423	1.053004	2.186532	0.000000	0.109982	0.000000	-0.000007	-0.000011	0.000000	0.000000
53.046935	12.734037	23.722530	-1.152417	1.632153	2.248967	0.000000	0.173445	0.000000	-0.000012	-0.000011	0.000000	0.000000
53.487895	13.939227	22.054118	-1.591061	2.137041	2.339795	0.000000	0.238883	0.000000	-0.000016	-0.000011	0.000000	0.000000
53.933855	15.582388	19.956827	-2.106639	2.546028	2.461556	0.000000	0.307440	0.000000	-0.000022	-0.000012	0.000000	0.000000
54.482915	17.697825	17.596960	-1.723395	1.777357	2.610182	0.000000	0.233125	0.000000	-0.000028	-0.000011	0.000000	0.000000
55.031975	19.322672	16.007131	-1.218420	1.135283	2.716807	0.000000	0.154676	0.000000	-0.000034	-0.000010	0.000000	0.000000
55.581035	20.342160	15.074100	-0.627382	0.574073	2.779541	0.000000	0.073482	0.000000	-0.000039	-0.000009	0.000000	0.000000
56.130095	20.684275	14.731409	0.007971	0.053753	2.797269	0.000000	-0.009015	0.000000	-0.000043	-0.000007	0.000000	0.000000
56.428668	20.716118	14.682420	-0.060558	0.071818	2.796763	0.000000	-0.001704	0.000000	-0.000045	-0.000008	0.000000	0.000000
56.762001	20.761873	14.642148	-0.076707	0.048999	2.796197	0.000000	-0.001704	0.000000	-0.000048	-0.000008	0.000000	0.000000
57.095334	20.818394	14.617089	-0.092857	0.026179	2.795632	0.000000	-0.001704	0.000000	-0.000050	-0.000008	0.000000	0.000000
57.429918	20.885955	14.607235	-0.109067	0.003273	2.795064	0.000000	-0.001704	0.000000	-0.000053	-0.000008	0.000000	0.000000
57.727240	20.955094	14.611340	-0.178249	0.021111	2.794560	0.000000	0.005601	0.000000	-0.000055	-0.000008	0.000000	0.000000
58.276300	20.793234	14.868830	0.471294	-0.492844	2.774994	0.000000	-0.076778	0.000000	-0.000059	-0.000006	0.000000	0.000000
58.825360	19.932239	15.706552	1.087547	-1.041902	2.710504	0.000000	-0.157796	0.000000	-0.000062	-0.000004	0.000000	0.000000
59.374420	18.432926	17.184175	1.626981	-1.665173	2.602234	0.000000	-0.236015	0.000000	-0.000063	-0.000002	0.000000	0.000000
59.923480	16.401197	19.406948	2.051494	-2.407051	2.452102	0.000000	-0.310048	0.000000	-0.000064	0.000000	0.000000	0.000000
60.369440	14.810820	21.382663	1.527324	-2.004504	2.329127	0.000000	-0.241752	0.000000	-0.000064	-0.000001	0.000000	0.000000
60.810400	13.666692	22.939276	1.077150	-1.512121	2.236976	0.000000	-0.176606	0.000000	-0.000065	-0.000003	0.000000	0.000000
61.251360	12.896463	24.029534	0.676186	-0.950939	2.173083	0.000000	-0.113471	0.000000	-0.000067	-0.000005	0.000000	0.000000
61.692320	12.464944	24.603833	0.306116	-0.346489	2.136718	0.000000	-0.051629	0.000000	-0.000069	-0.000007	0.000000	0.000000
62.134530	12.352468	24.635508	-0.019757	0.213219	2.127475	0.000000	0.004404	0.000000	-0.000072	-0.000008	0.000000	0.000000
62.431853	12.371376	24.512470	-0.043836	0.200602	2.128787	0.000000	0.004404	0.000000	-0.000075	-0.000008	0.000000	0.000000
62.765186	12.409598	24.383451	-0.070832	0.186456	2.130257	0.000000	0.004404	0.000000	-0.000078	-0.000008	0.000000	0.000000
63.098520	12.465818	24.263862	-0.097828	0.172310	2.131728	0.000000	0.004404	0.000000	-0.000080	-0.000008	0.000000	0.000000
63.433103	12.540347	24.153309	-0.124925	0.158111	2.133204	0.000000	0.004404	0.000000	-0.000083	-0.000008	0.000000	0.000000
63.730426	12.621792	24.063040	-0.118026	0.086434	2.134516	0.000000	-0.000835	0.000000	-0.000086	-0.000008	0.000000	0.000000
64.171386	12.886514	23.721790	-0.484585	0.684502	2.147696	0.000000	0.060652	0.000000	-0.000090	-0.000010	0.000000	0.000000
64.612346	13.483014	22.864864	-0.873283	1.251426	2.188116	0.000000	0.122829	0.000000	-0.000095	-0.000013	0.000000	0.000000
65.053306	14.438544	21.531250	-1.301878	1.761411	2.256237	0.000000	0.186405	0.000000	-0.000101	-0.000015	0.000000	0.000000
65.494266	15.796760	19.781627	-1.789952	2.191254	2.352835	0.000000	0.252105	0.000000	-0.000108	-0.000018	0.000000	0.000000
65.940226	17.642888	17.670833	-2.364497	2.522152	2.480583	0.000000	0.321078	0.000000	-0.000117	-0.000021	0.000000	0.000000
66.489286	20.009119	15.309422	-1.919613	1.804067	2.636510	0.000000	0.246029	0.000000	-0.000127	-0.000017	0.000000	0.000000
67.038346	21.809015	13.661787	-1.339138	1.214481	2.749967	0.000000	0.166615	0.000000	-0.000135	-0.000013	0.000000	0.000000
67.587406	22.915442	12.610571	-0.664074	0.711399	2.818943	0.000000	0.084246	0.000000	-0.000141	-0.000008	0.000000	0.000000
68.136466	23.250250	12.080897	0.057896	0.258989	2.842214	0.000000	0.000383	0.000000	-0.000144	-0.000003	0.000000	0.000000
68.435038	23.255831	11.915373	-0.015768	0.263791	2.844549	0.000000	0.007818	0.000000	-0.000145	-0.000004	0.000000	0.000000
68.768372	23.271122	11.749486	-0.030105	0.233869	2.847157	0.000000	0.007818	0.000000	-0.000146	-0.000004	0.000000	0.000000
69.101705	23.295970	11.603547	-0.044441	0.203948	2.849764	0.000000	0.007818	0.000000	-0.000148	-0.000004	0.000000	0.000000
69.436288	23.330524	11.477121	-0.058832	0.173914	2.852381	0.000000	0.007818	0.000000	-0.000149	-0.000004	0.000000	0.000000
69.733611	23.369310	11.381639	-0.132757	0.176999	2.854707	0.000000	0.015286	0.000000	-0.000150	-0.000004	0.000000	0.000000
70.282671	23.113750	11.415122	0.595452	-0.238342	2.839907	0.000000	-0.069119	0.000000	-0.000151	0.000001	0.000000	0.000000
