#ParticleID	Turn	x[m]	xp	y[m]	yp	z[m]	dE[GeV]# s	beta_x	beta_y	alpha_x	alpha_y	D_x	D_y	D_px	D_py	orbit_x	orbit_px	orbit_y	orbit_py
0.300000	11.955463	25.241837	-0.015874	-0.023967	2.599969	0.000000	-0.000919	0.000000	-0.001174	0.000998	0.000000	0.000000
0.601250	11.972620	25.259875	-0.041078	-0.035908	2.599391	0.000000	-0.000919	0.000000	-0.000873	0.000998	0.000000	0.000000
0.898573	12.004443	25.284732	-0.036355	-0.109676	2.598821	0.000000	-0.007326	0.000000	-0.000576	0.001000	0.000000	0.000000
1.339533	12.190291	25.100869	-0.386365	0.525052	2.611350	0.000000	0.066120	0.000000	-0.000138	0.000991	0.000000	0.000000
1.780493	12.691416	24.365659	-0.754034	1.135894	2.656401	0.000000	0.140310	0.000000	0.000299	0.000993	0.000000	0.000000
2.221453	13.530724	23.112544	-1.156161	1.695058	2.734482	0.000000	0.216087	0.000000	0.000739	0.001006	0.000000	0.000000
2.662413	14.746572	21.398531	-1.611121	2.177099	2.846480	0.000000	0.294315	0.000000	0.001188	0.001031	0.000000	0.000000
3.108373	16.415536	19.276474	-2.144068	2.561262	2.995504	0.000000	0.376375	0.000000	0.001655	0.001068	0.000000	0.000000
3.657433	18.554808	16.892745	-1.728478	1.805716	3.176585	0.000000	0.284226	0.000000	0.002225	0.001005	0.000000	0.000000
4.206493	20.167549	15.263631	-1.190766	1.178789	3.305654	0.000000	0.187051	0.000000	0.002756	0.000924	0.000000	0.000000
4.755553	21.139803	14.273102	-0.568915	0.635828	3.380426	0.000000	0.086572	0.000000	0.003237	0.000827	0.000000	0.000000
5.304613	21.402858	13.850612	0.093144	0.138155	3.399583	0.000000	-0.015428	0.000000	0.003661	0.000715	0.000000	0.000000
5.603185	21.383761	13.753892	0.024982	0.150878	3.397330	0.000000	-0.006821	0.000000	0.003878	0.000725	0.000000	0.000000
5.936519	21.372306	13.661569	0.009384	0.126091	3.394815	0.000000	-0.006821	0.000000	0.004119	0.000725	0.000000	0.000000
6.269852	21.371249	13.585770	-0.006214	0.101304	3.392300	0.000000	-0.006821	0.000000	0.004361	0.000725	0.000000	0.000000
6.604435	21.380646	13.526306	-0.021871	0.076424	3.389775	0.000000	-0.006821	0.000000	0.004603	0.000725	0.000000	0.000000
6.901758	21.397802	13.487425	-0.089403	0.088257	3.387533	0.000000	0.001668	0.000000	0.004819	0.000737	0.000000	0.000000
7.450818	21.131224	13.652221	0.572411	-0.390149	3.360203	0.000000	-0.099814	0.000000	0.005180	0.000575	0.000000	0.000000
7.999878	20.155780	14.354494	1.193796	-0.896350	3.277644	0.000000	-0.199516	0.000000	0.005448	0.000403	0.000000	0.000000
8.548938	18.540379	15.644278	1.730847	-1.466408	3.141324	0.000000	-0.295672	0.000000	0.005621	0.000224	0.000000	0.000000
9.097998	16.399156	17.613458	2.145614	-2.140932	2.953665	0.000000	-0.386580	0.000000	0.005693	0.000040	0.000000	0.000000
9.543958	14.728947	19.367857	1.612659	-1.776101	2.799338	0.000000	-0.305647	0.000000	0.005744	0.000189	0.000000	0.000000
9.984918	13.511824	20.743677	1.157858	-1.331823	2.681516	0.000000	-0.228698	0.000000	0.005860	0.000338	0.000000	0.000000
10.425878	12.671090	21.699322	0.755967	-0.826937	2.596958	0.000000	-0.154357	0.000000	0.006043	0.000492	0.000000	0.000000
10.866838	12.168325	22.191300	0.388619	-0.284418	2.544697	0.000000	-0.081780	0.000000	0.006295	0.000651	0.000000	0.000000
11.309048	11.980406	22.196641	0.066433	0.219764	2.524117	0.000000	-0.015938	0.000000	0.006619	0.000801	0.000000	0.000000
11.606371	11.948314	22.070135	0.041506	0.205722	2.519140	0.000000	-0.015938	0.000000	0.006857	0.000801	0.000000	0.000000
12.086371	11.927785	21.883523	0.001263	0.183052	2.511105	0.000000	-0.015938	0.000000	0.007242	0.000801	0.000000	0.000000
12.566371	11.945888	21.718674	-0.038979	0.160383	2.503070	0.000000	-0.015938	0.000000	0.007627	0.000801	0.000000	0.000000
13.046371	12.002624	21.575587	-0.079221	0.137714	2.495035	0.000000	-0.015938	0.000000	0.008011	0.000801	0.000000	0.000000
13.526371	12.097993	21.454263	-0.119464	0.115045	2.487000	0.000000	-0.015938	0.000000	0.008396	0.000801	0.000000	0.000000
14.007621	12.232394	21.354471	-0.159811	0.092316	2.478944	0.000000	-0.015938	0.000000	0.008782	0.000801	0.000000	0.000000
14.304943	12.334806	21.303801	-0.157132	0.030825	2.473964	0.000000	-0.021475	0.000000	0.009020	0.000780	0.000000	0.000000
14.745903	12.631758	21.043533	-0.518435	0.557083	2.479576	0.000000	0.048682	0.000000	0.009416	0.001018	0.000000	0.000000
15.186863	13.256650	20.328530	-0.903441	1.057990	2.516116	0.000000	0.119383	0.000000	0.009920	0.001267	0.000000	0.000000
15.627823	14.238063	19.191323	-1.329752	1.510750	2.583995	0.000000	0.191430	0.000000	0.010536	0.001531	0.000000	0.000000
16.068783	15.620878	17.683657	-1.816856	1.894755	2.683983	0.000000	0.265642	0.000000	0.011272	0.001812	0.000000	0.000000
16.514743	17.491992	15.852431	-2.392001	2.193517	2.818896	0.000000	0.343356	0.000000	0.012148	0.002116	0.000000	0.000000
17.063803	19.894848	13.808321	-1.956556	1.550708	2.983025	0.000000	0.257174	0.000000	0.013199	0.001705	0.000000	0.000000
17.612863	21.740130	12.405742	-1.382795	1.018385	3.098737	0.000000	0.166456	0.000000	0.014015	0.001264	0.000000	0.000000
18.161923	22.897353	11.544775	-0.711275	0.558624	3.163988	0.000000	0.072805	0.000000	0.014583	0.000801	0.000000	0.000000
18.710983	23.284681	11.164088	0.010536	0.138667	3.177629	0.000000	-0.022125	0.000000	0.014892	0.000323	0.000000	0.000000
19.009556	23.313692	11.074428	-0.055260	0.136537	3.173063	0.000000	-0.014899	0.000000	0.014999	0.000360	0.000000	0.000000
19.342889	23.355312	10.993624	-0.069601	0.105877	3.167976	0.000000	-0.014899	0.000000	0.015119	0.000360	0.000000	0.000000
19.676223	23.406493	10.933259	-0.083943	0.075216	3.162890	0.000000	-0.014899	0.000000	0.015239	0.000360	0.000000	0.000000
20.010806	23.467772	10.893089	-0.214610	0.098412	3.157804	0.000000	0.000746	0.000000	0.015360	0.000436	0.000000	0.000000
20.308129	23.599495	10.842687	-0.281187	0.095430	3.157907	0.000000	0.007882	0.000000	0.015489	0.000473	0.000000	0.000000
20.857189	23.501468	10.958025	0.458775	-0.306689	3.136231	0.000000	-0.086281	0.000000	0.015611	-0.000030	0.000000	0.000000
21.406249	22.603581	11.524375	1.166310	-0.730662	3.063452	0.000000	-0.178914	0.000000	0.015456	-0.000534	0.000000	0.000000
21.955309	20.969321	12.582089	1.791396	-1.206700	2.940860	0.000000	-0.268380	0.000000	0.015026	-0.001028	0.000000	0.000000
22.504369	18.714249	14.206526	2.289843	-1.768722	2.770626	0.000000	-0.353100	0.000000	0.014330	-0.001504	0.000000	0.000000
22.950329	16.939083	15.665739	1.702993	-1.488697	2.630799	0.000000	-0.276689	0.000000	0.013741	-0.001139	0.000000	0.000000
23.391289	15.663812	16.830443	1.199004	-1.142032	2.525325	0.000000	-0.203913	0.000000	0.013316	-0.000790	0.000000	0.000000
23.832249	14.807422	17.665171	0.749833	-0.743386	2.451263	0.000000	-0.133452	0.000000	0.013043	-0.000451	0.000000	0.000000
24.273209	14.330747	18.131935	0.334944	-0.310906	2.407771	0.000000	-0.064507	0.000000	0.012918	-0.000116	0.000000	0.000000
24.715418	14.212145	18.209162	-0.034277	0.096594	2.394357	0.000000	-0.001425	0.000000	0.012940	0.000188	0.000000	0.000000
25.012741	14.238754	18.156622	-0.055222	0.080113	2.393878	0.000000	-0.001425	0.000000	0.012996	0.000188	0.000000	0.000000
25.346075	14.283396	18.109372	-0.078703	0.061637	2.393340	0.000000	-0.001425	0.000000	0.013059	0.000188	0.000000	0.000000
25.679408	14.343692	18.074440	-0.102185	0.043160	2.392803	0.000000	-0.001425	0.000000	0.013121	0.000188	0.000000	0.000000
26.013991	14.419664	18.052130	-0.008773	-0.121833	2.392239	0.000000	-0.020833	0.000000	0.013184	0.000081	0.000000	0.000000
26.311314	14.430938	18.129640	0.001423	-0.177250	2.386015	0.000000	-0.025928	0.000000	0.013208	0.000050	0.000000	0.000000
26.752274	14.608166	18.089527	-0.404693	0.267854	2.389449	0.000000	0.041940	0.000000	0.013306	0.000392	0.000000	0.000000
27.193234	15.150465	17.660690	-0.829313	0.700767	2.422745	0.000000	0.110282	0.000000	0.013555	0.000739	0.000000	0.000000
27.634194	16.082640	16.862642	-1.291851	1.101786	2.486281	0.000000	0.179873	0.000000	0.013958	0.001093	0.000000	0.000000
28.075154	17.447327	15.731699	-1.813457	1.452657	2.580777	0.000000	0.251501	0.000000	0.014521	0.001460	0.000000	0.000000
28.521114	19.331000	14.302070	-2.423215	1.738613	2.708918	0.000000	0.326465	0.000000	0.015258	0.001847	0.000000	0.000000
29.070174	21.726637	12.709949	-1.912177	1.177575	2.864945	0.000000	0.243972	0.000000	0.016134	0.001338	0.000000	0.000000
29.619234	23.482816	11.684614	-1.265950	0.700447	2.974693	0.000000	0.157172	0.000000	0.016723	0.000806	0.000000	0.000000
30.168294	24.475338	11.153017	-0.530219	0.273231	3.036224	0.000000	0.067595	0.000000	0.017016	0.000259	0.000000	0.000000
30.717354	24.634012	11.077282	0.242997	-0.134515	3.048448	0.000000	-0.023177	0.000000	0.017007	-0.000292	0.000000	0.000000
31.015927	24.525154	11.151108	0.175673	-0.137113	3.043614	0.000000	-0.016399	0.000000	0.016932	-0.000251	0.000000	0.000000
31.349260	24.412709	11.252668	0.161662	-0.167567	3.038231	0.000000	-0.016399	0.000000	0.016848	-0.000251	0.000000	0.000000
31.682593	24.309604	11.374531	0.147651	-0.198022	3.032849	0.000000	-0.016399	0.000000	0.016764	-0.000251	0.000000	0.000000
32.017177	24.215506	11.517269	0.133588	-0.228590	3.027446	0.000000	-0.016399	0.000000	0.016680	-0.000251	0.000000	0.000000
32.314499	24.139980	11.661181	0.067178	-0.229748	3.022657	0.000000	-0.009648	0.000000	0.016606	-0.000211	0.000000	0.000000
32.863559	23.652782	12.151658	0.814363	-0.668619	2.992949	0.000000	-0.099299	0.000000	0.016343	-0.000745	0.000000	0.000000
33.412619	22.371633	13.147358	1.503968	-1.155133	2.914692	0.000000	-0.187201	0.000000	0.015790	-0.001266	0.000000	0.000000
33.961679	20.387141	14.719218	2.087240	-1.723957	2.789269	0.000000	-0.271800	0.000000	0.014957	-0.001764	0.000000	0.000000
34.510739	17.839647	16.979221	2.522947	-2.415619	2.618894	0.000000	-0.351606	0.000000	0.013858	-0.002231	0.000000	0.000000
34.956699	15.860470	19.001213	1.928841	-2.098410	2.479175	0.000000	-0.279139	0.000000	0.012942	-0.001883	0.000000	0.000000
35.397659	14.385177	20.676999	1.428140	-1.686752	2.372078	0.000000	-0.210298	0.000000	0.012183	-0.001559	0.000000	0.000000
35.838619	13.321276	21.954281	0.992735	-1.198325	2.294658	0.000000	-0.143835	0.000000	0.011564	-0.001253	0.000000	0.000000
36.279579	12.620110	22.774938	0.602720	-0.655361	2.246038	0.000000	-0.078999	0.000000	0.011076	-0.000961	0.000000	0.000000
36.721789	12.248983	23.101886	0.267060	-0.133160	2.225647	0.000000	-0.019941	0.000000	0.010714	-0.000705	0.000000	0.000000
37.019112	12.097908	23.184964	0.241056	-0.146258	2.219928	0.000000	-0.019941	0.000000	0.010504	-0.000705	0.000000	0.000000
37.352445	11.946922	23.287364	0.211902	-0.160943	2.213516	0.000000	-0.019941	0.000000	0.010269	-0.000705	0.000000	0.000000
37.685779	11.815372	23.399554	0.182748	-0.175627	2.207105	0.000000	-0.019941	0.000000	0.010034	-0.000705	0.000000	0.000000
38.020362	11.702874	23.522010	0.153485	-0.190367	2.200669	0.000000	-0.019941	0.000000	0.009798	-0.000705	0.000000	0.000000
38.317684	11.619306	23.639169	0.153329	-0.256289	2.194947	0.000000	-0.024823	0.000000	0.009588	-0.000727	0.000000	0.000000
38.758644	11.632912	23.603280	-0.184499	0.337358	2.198131	0.000000	0.038108	0.000000	0.009322	-0.000484	0.000000	0.000000
39.199604	11.947106	23.048569	-0.530755	0.915649	2.229037	0.000000	0.101478	0.000000	0.009161	-0.000245	0.000000	0.000000
39.640564	12.576245	22.000286	-0.901267	1.452268	2.288019	0.000000	0.166007	0.000000	0.009105	-0.000010	0.000000	0.000000
40.081524	13.549089	20.506139	-1.312972	1.922792	2.375748	0.000000	0.232428	0.000000	0.009152	0.000225	0.000000	0.000000
40.527484	14.927708	18.611396	-1.788667	2.307334	2.494708	0.000000	0.301927	0.000000	0.009306	0.000465	0.000000	0.000000
41.076544	16.689627	16.481895	-1.400736	1.593490	2.639864	0.000000	0.226571	0.000000	0.009478	0.000161	0.000000	0.000000
41.625604	17.968203	15.069805	-0.913821	0.993177	2.742637	0.000000	0.147199	0.000000	0.009482	-0.000147	0.000000	0.000000
42.174664	18.673072	14.274520	-0.362336	0.463626	2.801202	0.000000	0.065212	0.000000	0.009317	-0.000451	0.000000	0.000000
42.723724	18.754425	14.039379	0.214745	-0.032892	2.814518	0.000000	-0.017939	0.000000	0.008988	-0.000748	0.000000	0.000000
43.022297	18.658039	14.045096	0.153147	-0.020152	2.811401	0.000000	-0.011152	0.000000	0.008771	-0.000725	0.000000	0.000000
43.502297	18.523656	14.080853	0.126818	-0.054341	2.806396	0.000000	-0.011152	0.000000	0.008423	-0.000725	0.000000	0.000000
43.982297	18.414549	14.149432	0.100488	-0.088531	2.801391	0.000000	-0.011152	0.000000	0.008075	-0.000725	0.000000	0.000000
44.462297	18.330718	14.250833	0.074159	-0.122721	2.796386	0.000000	-0.011152	0.000000	0.007727	-0.000725	0.000000	0.000000
44.942297	18.272164	14.385055	0.047829	-0.156910	2.791381	0.000000	-0.011152	0.000000	0.007379	-0.000725	0.000000	0.000000
45.423547	18.239058	14.552398	-0.068936	-0.119087	2.786380	0.000000	0.002653	0.000000	0.007030	-0.000690	0.000000	0.000000
45.720870	18.284945	14.629353	-0.130311	-0.103952	2.787376	0.000000	0.009512	0.000000	0.006824	-0.000673	0.000000	0.000000
46.269930	18.119833	15.026377	0.428813	-0.623346	2.770417	0.000000	-0.072694	0.000000	0.006395	-0.000887	0.000000	0.000000
46.818990	17.353718	16.014697	0.957622	-1.187144	2.708710	0.000000	-0.153625	0.000000	0.005853	-0.001086	0.000000	0.000000
47.368050	16.040757	17.664706	1.418754	-1.835508	2.603345	0.000000	-0.231848	0.000000	0.005206	-0.001265	0.000000	0.000000
47.917110	14.273745	20.093925	1.779628	-2.614624	2.456180	0.000000	-0.305979	0.000000	0.004468	-0.001422	0.000000	0.000000
48.363070	12.897679	22.253372	1.316212	-2.207007	2.335632	0.000000	-0.237527	0.000000	0.003858	-0.001314	0.000000	0.000000
48.804030	11.916495	23.983039	0.916772	-1.700367	2.245921	0.000000	-0.172178	0.000000	0.003300	-0.001221	0.000000	0.000000
49.244990	11.267895	25.229902	0.559233	-1.116358	2.184537	0.000000	-0.108776	0.000000	0.002779	-0.001143	0.000000	0.000000
49.685950	10.922229	25.937236	0.227255	-0.481556	2.150784	0.000000	-0.046601	0.000000	0.002290	-0.001078	0.000000	0.000000
50.128160	10.863863	26.072584	-0.068270	0.112655	2.144297	0.000000	0.009887	0.000000	0.001825	-0.001029	0.000000	0.000000
50.425482	10.912635	26.009027	-0.095766	0.101107	2.147543	0.000000	0.009887	0.000000	0.001519	-0.001029	0.000000	0.000000
50.758816	10.986754	25.945938	-0.126591	0.088160	2.151182	0.000000	0.009887	0.000000	0.001176	-0.001029	0.000000	0.000000
51.092149	11.081423	25.891481	-0.157417	0.075213	2.154820	0.000000	0.009887	0.000000	0.000833	-0.001029	0.000000	0.000000
51.426732	11.196887	25.846023	-0.097522	-0.147458	2.158451	0.000000	-0.007624	0.000000	0.000489	-0.001033	0.000000	0.000000
51.724055	11.262849	25.937203	-0.096756	-0.223091	2.156491	0.000000	-0.012903	0.000000	0.000182	-0.001034	0.000000	0.000000
52.165015	11.494814	25.845266	-0.431621	0.430790	2.164903	0.000000	0.049089	0.000000	-0.000274	-0.001035	0.000000	0.000000
52.605975	12.029638	25.183138	-0.786198	1.065067	2.200753	0.000000	0.111651	0.000000	-0.000733	-0.001048	0.000000	0.000000
53.046935	12.891744	23.980954	-1.176685	1.650881	2.264454	0.000000	0.175495	0.000000	-0.001200	-0.001073	0.000000	0.000000
53.487895	14.120506	22.293423	-1.620920	2.161581	2.356735	0.000000	0.241350	0.000000	-0.001681	-0.001110	0.000000	0.000000
53.933855	15.793056	20.172099	-2.143453	2.575231	2.480178	0.000000	0.310361	0.000000	-0.002186	-0.001160	0.000000	0.000000
54.482915	17.945951	17.784720	-1.755066	1.798706	2.630820	0.000000	0.235418	0.000000	-0.002802	-0.001079	0.000000	0.000000
55.031975	19.601354	16.175112	-1.242745	1.150295	2.739053	0.000000	0.156282	0.000000	-0.003368	-0.000979	0.000000	0.000000
55.581035	20.642380	15.228618	-0.642674	0.583813	2.802948	0.000000	0.074359	0.000000	-0.003874	-0.000862	0.000000	0.000000
56.130095	20.995537	14.877813	0.002766	0.058915	2.821365	0.000000	-0.008897	0.000000	-0.004311	-0.000729	0.000000	0.000000
56.428668	21.032062	14.824557	-0.068315	0.079064	2.821208	0.000000	-0.001262	0.000000	-0.004532	-0.000741	0.000000	0.000000
56.762001	21.082912	14.779390	-0.084237	0.056438	2.821035	0.000000	-0.001262	0.000000	-0.004779	-0.000741	0.000000	0.000000
57.095334	21.144378	14.749307	-0.100160	0.033812	2.820861	0.000000	-0.001262	0.000000	-0.005026	-0.000741	0.000000	0.000000
57.429918	21.216750	14.734280	-0.116143	0.011101	2.820687	0.000000	-0.001262	0.000000	-0.005274	-0.000741	0.000000	0.000000
57.727240	21.290055	14.733665	-0.188494	0.031006	2.820533	0.000000	0.006442	0.000000	-0.005494	-0.000755	0.000000	0.000000
58.276300	21.133072	14.982134	0.472334	-0.486248	2.801548	0.000000	-0.076775	0.000000	-0.005859	-0.000572	0.000000	0.000000
58.825360	20.264658	15.814127	1.099795	-1.038128	2.737081	0.000000	-0.158639	0.000000	-0.006120	-0.000377	0.000000	0.000000
59.374420	18.746145	17.288888	1.649584	-1.663938	2.628271	0.000000	-0.237696	0.000000	-0.006273	-0.000177	0.000000	0.000000
59.923480	16.684761	19.511442	2.082882	-2.408243	2.477046	0.000000	-0.312540	0.000000	-0.006314	0.000027	0.000000	0.000000
60.369440	15.069901	21.486697	1.551154	-2.002476	2.353123	0.000000	-0.243640	0.000000	-0.006338	-0.000137	0.000000	0.000000
60.810400	13.907785	23.039939	1.094415	-1.506852	2.260373	0.000000	-0.177895	0.000000	-0.006435	-0.000302	0.000000	0.000000
61.251360	13.124936	24.124109	0.687665	-0.942680	2.196209	0.000000	-0.114172	0.000000	-0.006604	-0.000470	0.000000	0.000000
61.692320	12.685598	24.689891	0.312328	-0.335628	2.159904	0.000000	-0.051744	0.000000	-0.006849	-0.000643	0.000000	0.000000
62.134530	12.569759	24.710957	-0.015961	0.222300	2.151053	0.000000	0.004475	0.000000	-0.007173	-0.000806	0.000000	0.000000
62.431853	12.586285	24.582521	-0.039621	0.209673	2.152623	0.000000	0.004475	0.000000	-0.007413	-0.000806	0.000000	0.000000
62.765186	12.621541	24.447458	-0.066146	0.195517	2.154384	0.000000	0.004475	0.000000	-0.007681	-0.000806	0.000000	0.000000
63.098520	12.674480	24.321831	-0.092672	0.181362	2.156144	0.000000	0.004475	0.000000	-0.007950	-0.000806	0.000000	0.000000
63.433103	12.745401	24.205224	-0.119296	0.167153	2.157911	0.000000	0.004475	0.000000	-0.008219	-0.000806	0.000000	0.000000
63.730426	12.823348	24.109633	-0.109053	0.090504	2.159479	0.000000	-0.001234	0.000000	-0.008459	-0.000784	0.000000	0.000000
64.171386	13.081905	23.764355	-0.479926	0.689627	2.172998	0.000000	0.060886	0.000000	-0.008853	-0.001007	0.000000	0.000000
64.612346	13.675845	22.902636	-0.872708	1.257377	2.214134	0.000000	0.123711	0.000000	-0.009349	-0.001242	0.000000	0.000000
65.053306	14.632276	21.563686	-1.305336	1.767929	2.283358	0.000000	0.187958	0.000000	-0.009950	-0.001490	0.000000	0.000000
65.494266	15.994854	19.808421	-1.797562	2.198060	2.381464	0.000000	0.254360	0.000000	-0.010665	-0.001756	0.000000	0.000000
65.940226	17.849158	17.691761	-2.376302	2.528732	2.511180	0.000000	0.324045	0.000000	-0.011512	-0.002044	0.000000	0.000000
66.489286	20.223370	15.324166	-1.923976	1.809538	2.669409	0.000000	0.247999	0.000000	-0.012528	-0.001654	0.000000	0.000000
67.038346	22.023058	13.671268	-1.335858	1.219196	2.784396	0.000000	0.167529	0.000000	-0.013323	-0.001235	0.000000	0.000000
67.587406	23.121240	12.615348	-0.653461	0.715668	2.854092	0.000000	0.084068	0.000000	-0.013881	-0.000795	0.000000	0.000000
68.136466	23.440441	12.081206	0.075047	0.263098	2.877254	0.000000	-0.000896	0.000000	-0.014193	-0.000340	0.000000	0.000000
68.435038	23.440052	11.911165	-0.005949	0.271420	2.879593	0.000000	0.007483	0.000000	-0.014306	-0.000379	0.000000	0.000000
68.768372	23.448758	11.740233	-0.020170	0.241374	2.882214	0.000000	0.007483	0.000000	-0.014433	-0.000379	0.000000	0.000000
69.101705	23.466946	11.589333	-0.034392	0.211327	2.884834	0.000000	0.007483	0.000000	-0.014559	-0.000379	0.000000	0.000000
69.436288	23.494735	11.458011	-0.048666	0.181168	2.887465	0.000000	0.007483	0.000000	-0.014686	-0.000379	0.000000	0.000000
69.733611	23.527597	11.358175	-0.130144	0.187514	2.889812	0.000000	0.015932	0.000000	-0.014799	-0.000420	0.000000	0.000000
70.282671	23.266470	11.379664	0.602899	-0.226891	2.875162	0.000000	-0.069574	0.000000	-0.014898	0.000061	0.000000	0.000000
