#ParticleID	Turn	x[m]	xp	y[m]	yp	z[m]	dE[GeV]# s	beta_x	beta_y	alpha_x	alpha_y	D_x	D_y	D_px	D_py	orbit_x	orbit_px	orbit_y	orbit_py
0.300000	11.896582	25.145747	-0.017851	-0.024318	2.609040	0.000000	0.000462	0.000000	-0.000360	0.000316	0.000000	0.000000
0.601250	11.914968	25.164010	-0.043182	-0.036306	2.609084	0.000000	0.000462	0.000000	-0.000265	0.000316	0.000000	0.000000
0.898573	11.948079	25.189117	-0.038835	-0.109894	2.609128	0.000000	-0.005947	0.000000	-0.000171	0.000316	0.000000	0.000000
1.339533	12.135465	25.006560	-0.387619	0.522317	2.622614	0.000000	0.067779	0.000000	-0.000032	0.000313	0.000000	0.000000
1.780493	12.637069	24.274833	-0.754114	1.130764	2.668750	0.000000	0.142273	0.000000	0.000106	0.000314	0.000000	0.000000
2.221453	13.475814	23.027224	-1.155066	1.687763	2.748058	0.000000	0.218385	0.000000	0.000246	0.000319	0.000000	0.000000
2.662413	14.690021	21.320497	-1.608792	2.167971	2.861442	0.000000	0.296980	0.000000	0.000388	0.000327	0.000000	0.000000
3.108373	16.356140	19.207288	-2.140362	2.550684	3.012047	0.000000	0.379444	0.000000	0.000536	0.000339	0.000000	0.000000
3.657433	18.492293	16.833694	-1.726971	1.797810	3.195031	0.000000	0.286733	0.000000	0.000717	0.000319	0.000000	0.000000
4.206493	20.104411	15.212099	-1.191586	1.172991	3.325651	0.000000	0.188942	0.000000	0.000885	0.000293	0.000000	0.000000
4.755553	21.078608	14.227004	-0.572024	0.631723	3.401594	0.000000	0.087804	0.000000	0.001038	0.000262	0.000000	0.000000
5.304613	21.346062	13.808245	0.087951	0.135451	3.421514	0.000000	-0.014888	0.000000	0.001172	0.000226	0.000000	0.000000
5.603185	21.330699	13.712701	0.018724	0.148873	3.419643	0.000000	-0.006036	0.000000	0.001240	0.000229	0.000000	0.000000
5.936519	21.323427	13.621735	0.003092	0.124026	3.417555	0.000000	-0.006036	0.000000	0.001316	0.000229	0.000000	0.000000
6.269852	21.326577	13.547333	-0.012541	0.099179	3.415467	0.000000	-0.006036	0.000000	0.001393	0.000229	0.000000	0.000000
6.604435	21.340219	13.489311	-0.028232	0.074239	3.413371	0.000000	-0.006036	0.000000	0.001469	0.000229	0.000000	0.000000
6.901758	21.361154	13.451754	-0.097266	0.086813	3.411508	0.000000	0.002762	0.000000	0.001537	0.000233	0.000000	0.000000
7.450818	21.103699	13.617552	0.563506	-0.390556	3.384804	0.000000	-0.099496	0.000000	0.001651	0.000181	0.000000	0.000000
7.999878	20.138263	14.319681	1.184476	-0.895745	3.302383	0.000000	-0.199987	0.000000	0.001736	0.000126	0.000000	0.000000
8.548938	18.533042	15.608155	1.721777	-1.464740	3.165708	0.000000	-0.296929	0.000000	0.001789	0.000069	0.000000	0.000000
9.097998	16.401432	17.574757	2.137452	-2.138071	2.977206	0.000000	-0.388602	0.000000	0.001811	0.000011	0.000000	0.000000
9.543958	14.738177	19.327021	1.605351	-1.774429	2.822150	0.000000	-0.307091	0.000000	0.001827	0.000058	0.000000	0.000000
9.984918	13.527329	20.701804	1.150964	-1.331329	2.703902	0.000000	-0.229568	0.000000	0.001863	0.000106	0.000000	0.000000
10.425878	12.692613	21.657491	0.749165	-0.827651	2.619211	0.000000	-0.154660	0.000000	0.001920	0.000154	0.000000	0.000000
10.866838	12.195892	22.150595	0.381595	-0.286314	2.567110	0.000000	-0.081516	0.000000	0.001999	0.000205	0.000000	0.000000
11.309048	12.014321	22.158139	0.060229	0.214658	2.546988	0.000000	-0.015423	0.000000	0.002101	0.000253	0.000000	0.000000
11.606371	11.985890	22.034667	0.035392	0.200622	2.542327	0.000000	-0.015423	0.000000	0.002176	0.000253	0.000000	0.000000
12.086371	11.971161	21.852947	-0.004705	0.177961	2.534803	0.000000	-0.015423	0.000000	0.002298	0.000253	0.000000	0.000000
12.566371	11.994925	21.692981	-0.044803	0.155301	2.527278	0.000000	-0.015423	0.000000	0.002419	0.000253	0.000000	0.000000
13.046371	12.057182	21.554769	-0.084900	0.132640	2.519754	0.000000	-0.015423	0.000000	0.002540	0.000253	0.000000	0.000000
13.526371	12.157932	21.438312	-0.124997	0.109979	2.512229	0.000000	-0.015423	0.000000	0.002662	0.000253	0.000000	0.000000
14.007621	12.297589	21.343391	-0.165199	0.087260	2.504685	0.000000	-0.015423	0.000000	0.002783	0.000253	0.000000	0.000000
14.304943	12.403206	21.295681	-0.160448	0.022496	2.500024	0.000000	-0.021387	0.000000	0.002858	0.000246	0.000000	0.000000
14.745903	12.703662	21.042838	-0.523375	0.548690	2.506082	0.000000	0.049436	0.000000	0.002983	0.000321	0.000000	0.000000
15.186863	13.333517	20.335192	-0.910220	1.049917	2.543433	0.000000	0.120818	0.000000	0.003142	0.000400	0.000000	0.000000
15.627823	14.321556	19.204941	-1.338659	1.503371	2.612500	0.000000	0.193573	0.000000	0.003337	0.000484	0.000000	0.000000
16.068783	15.712935	17.703510	-1.828270	1.888417	2.714068	0.000000	0.268527	0.000000	0.003569	0.000573	0.000000	0.000000
16.514743	17.594865	15.877713	-2.406262	2.188345	2.850990	0.000000	0.347009	0.000000	0.003846	0.000669	0.000000	0.000000
17.063803	20.011256	13.839404	-1.968064	1.545716	3.017507	0.000000	0.259774	0.000000	0.004178	0.000539	0.000000	0.000000
17.612863	21.866737	12.442568	-1.390816	1.013195	3.134861	0.000000	0.167940	0.000000	0.004436	0.000399	0.000000	0.000000
18.161923	23.030199	11.587706	-0.715300	0.552850	3.200973	0.000000	0.073132	0.000000	0.004615	0.000253	0.000000	0.000000
18.710983	23.419431	11.213926	0.010757	0.131887	3.214673	0.000000	-0.022968	0.000000	0.004712	0.000101	0.000000	0.000000
19.009556	23.451887	11.126544	-0.060766	0.132692	3.210188	0.000000	-0.014904	0.000000	0.004746	0.000113	0.000000	0.000000
19.342889	23.497153	11.048244	-0.075032	0.102206	3.205182	0.000000	-0.014904	0.000000	0.004784	0.000113	0.000000	0.000000
19.676223	23.551930	10.990268	-0.089298	0.071721	3.200176	0.000000	-0.014904	0.000000	0.004822	0.000113	0.000000	0.000000
20.010806	23.616769	10.952378	-0.220628	0.095385	3.195171	0.000000	0.000926	0.000000	0.004860	0.000138	0.000000	0.000000
20.308129	23.751907	10.903795	-0.293308	0.095320	3.195406	0.000000	0.008928	0.000000	0.004901	0.000150	0.000000	0.000000
20.857189	23.664426	11.020134	0.451730	-0.308444	3.174061	0.000000	-0.086425	0.000000	0.004939	-0.000009	0.000000	0.000000
21.406249	22.771444	11.589279	1.164852	-0.734181	3.100786	0.000000	-0.180245	0.000000	0.004890	-0.000169	0.000000	0.000000
21.955309	21.136057	12.651770	1.795675	-1.212219	2.976880	0.000000	-0.270870	0.000000	0.004755	-0.000325	0.000000	0.000000
22.504369	18.873821	14.283294	2.299627	-1.776610	2.804540	0.000000	-0.356696	0.000000	0.004535	-0.000475	0.000000	0.000000
22.950329	17.092068	15.748505	1.709357	-1.494861	2.662934	0.000000	-0.279475	0.000000	0.004348	-0.000360	0.000000	0.000000
23.391289	15.812986	16.917547	1.202001	-1.146017	2.556142	0.000000	-0.205905	0.000000	0.004214	-0.000250	0.000000	0.000000
23.832249	14.955584	17.754656	0.749574	-0.745024	2.481201	0.000000	-0.134677	0.000000	0.004128	-0.000142	0.000000	0.000000
24.273209	14.480676	18.221740	0.331399	-0.310129	2.437257	0.000000	-0.064982	0.000000	0.004088	-0.000036	0.000000	0.000000
24.715418	14.366659	18.297300	-0.037866	0.095677	2.423809	0.000000	-0.001738	0.000000	0.004096	0.000059	0.000000	0.000000
25.012741	14.395338	18.245282	-0.058591	0.079278	2.423275	0.000000	-0.001738	0.000000	0.004113	0.000059	0.000000	0.000000
25.346075	14.442144	18.198558	-0.081826	0.060894	2.422676	0.000000	-0.001738	0.000000	0.004133	0.000059	0.000000	0.000000
25.679408	14.504440	18.164090	-0.105061	0.042510	2.422077	0.000000	-0.001738	0.000000	0.004153	0.000059	0.000000	0.000000
26.013991	14.582251	18.142186	-0.010083	-0.123122	2.421451	0.000000	-0.021382	0.000000	0.004173	0.000025	0.000000	0.000000
26.311314	14.594302	18.220356	0.003885	-0.182651	2.415085	0.000000	-0.027068	0.000000	0.004180	0.000015	0.000000	0.000000
26.752274	14.770961	18.183935	-0.405976	0.264927	2.418241	0.000000	0.041530	0.000000	0.004211	0.000124	0.000000	0.000000
27.193234	15.315911	17.756589	-0.834389	0.700451	2.451677	0.000000	0.110599	0.000000	0.004290	0.000233	0.000000	0.000000
27.634194	16.254059	16.957765	-1.300933	1.104101	2.515773	0.000000	0.180926	0.000000	0.004417	0.000345	0.000000	0.000000
28.075154	17.628281	15.823809	-1.826927	1.457510	2.611257	0.000000	0.253311	0.000000	0.004595	0.000462	0.000000	0.000000
28.521114	19.525327	14.389198	-2.441441	1.745594	2.740827	0.000000	0.329036	0.000000	0.004828	0.000584	0.000000	0.000000
29.070174	21.936991	12.791067	-1.924292	1.182048	2.898535	0.000000	0.245511	0.000000	0.005105	0.000423	0.000000	0.000000
29.619234	23.702202	11.762220	-1.271183	0.702708	3.009204	0.000000	0.157638	0.000000	0.005291	0.000254	0.000000	0.000000
30.168294	24.696227	11.229369	-0.528257	0.273426	3.070874	0.000000	0.066973	0.000000	0.005383	0.000082	0.000000	0.000000
30.717354	24.848825	11.154556	0.251993	-0.136377	3.082451	0.000000	-0.024880	0.000000	0.005380	-0.000093	0.000000	0.000000
31.015927	24.739041	11.227472	0.177587	-0.135632	3.077339	0.000000	-0.017194	0.000000	0.005356	-0.000079	0.000000	0.000000
31.349260	24.625283	11.327972	0.163689	-0.165867	3.071634	0.000000	-0.017194	0.000000	0.005330	-0.000079	0.000000	0.000000
31.682593	24.520790	11.448628	0.149790	-0.196103	3.065929	0.000000	-0.017194	0.000000	0.005304	-0.000079	0.000000	0.000000
32.017177	24.425223	11.590008	0.135839	-0.226451	3.060203	0.000000	-0.017194	0.000000	0.005277	-0.000079	0.000000	0.000000
32.314499	24.348153	11.732675	0.062663	-0.224144	3.055116	0.000000	-0.009568	0.000000	0.005254	-0.000066	0.000000	0.000000
32.863559	23.862397	12.217847	0.816634	-0.664648	3.025004	0.000000	-0.100234	0.000000	0.005171	-0.000235	0.000000	0.000000
33.412619	22.575514	13.209787	1.512903	-1.152499	2.945611	0.000000	-0.189125	0.000000	0.004997	-0.000399	0.000000	0.000000
33.961679	20.578438	14.779152	2.102277	-1.722450	2.818342	0.000000	-0.274668	0.000000	0.004734	-0.000557	0.000000	0.000000
34.510739	18.012288	17.037731	2.543114	-2.415102	2.645451	0.000000	-0.355347	0.000000	0.004387	-0.000705	0.000000	0.000000
34.956699	16.017893	19.058064	1.944480	-2.096036	2.503629	0.000000	-0.282259	0.000000	0.004097	-0.000595	0.000000	0.000000
35.397659	14.531029	20.730675	1.439763	-1.682426	2.394801	0.000000	-0.212823	0.000000	0.003858	-0.000492	0.000000	0.000000
35.838619	13.458752	22.003207	1.000841	-1.192259	2.315991	0.000000	-0.145806	0.000000	0.003662	-0.000395	0.000000	0.000000
36.279579	12.752058	22.817759	0.607655	-0.647842	2.266300	0.000000	-0.080446	0.000000	0.003509	-0.000303	0.000000	0.000000
36.721789	12.377972	23.137585	0.271501	-0.128833	2.245139	0.000000	-0.021326	0.000000	0.003395	-0.000222	0.000000	0.000000
37.019112	12.224193	23.218079	0.245710	-0.141896	2.238865	0.000000	-0.021326	0.000000	0.003329	-0.000222	0.000000	0.000000
37.352445	12.070025	23.317558	0.216796	-0.156542	2.231830	0.000000	-0.021326	0.000000	0.003255	-0.000222	0.000000	0.000000
37.685779	11.935132	23.426801	0.187881	-0.171188	2.224796	0.000000	-0.021326	0.000000	0.003181	-0.000222	0.000000	0.000000
38.020362	11.819119	23.546273	0.158858	-0.185888	2.217735	0.000000	-0.021326	0.000000	0.003106	-0.000222	0.000000	0.000000
38.317684	11.732320	23.660701	0.161005	-0.255371	2.211460	0.000000	-0.026592	0.000000	0.003040	-0.000229	0.000000	0.000000
38.758644	11.740303	23.623778	-0.179241	0.338781	2.213777	0.000000	0.036743	0.000000	0.002956	-0.000152	0.000000	0.000000
39.199604	12.050844	23.067661	-0.527677	0.917517	2.244057	0.000000	0.100499	0.000000	0.002906	-0.000076	0.000000	0.000000
39.640564	12.678130	22.017657	-0.900222	1.454502	2.302646	0.000000	0.165399	0.000000	0.002889	-0.000002	0.000000	0.000000
40.081524	13.650826	20.521543	-1.313902	1.925303	2.390210	0.000000	0.232184	0.000000	0.002904	0.000073	0.000000	0.000000
40.527484	15.030913	18.624754	-1.791485	2.309863	2.509226	0.000000	0.302028	0.000000	0.002954	0.000149	0.000000	0.000000
41.076544	16.793523	16.492957	-1.399561	1.595520	2.654412	0.000000	0.226218	0.000000	0.003009	0.000052	0.000000	0.000000
41.625604	18.068537	15.078984	-0.908766	0.994832	2.756859	0.000000	0.146395	0.000000	0.003011	-0.000045	0.000000	0.000000
42.174664	18.765878	14.282113	-0.353773	0.465010	2.814749	0.000000	0.063974	0.000000	0.002960	-0.000142	0.000000	0.000000
42.723724	18.836281	14.045580	0.226210	-0.031687	2.827054	0.000000	-0.019583	0.000000	0.002856	-0.000236	0.000000	0.000000
43.022297	18.734760	14.049437	0.161827	-0.017083	2.823427	0.000000	-0.012375	0.000000	0.002787	-0.000229	0.000000	0.000000
43.502297	18.592026	14.082241	0.135535	-0.051258	2.817597	0.000000	-0.012375	0.000000	0.002678	-0.000229	0.000000	0.000000
43.982297	18.474533	14.147853	0.109243	-0.085434	2.811767	0.000000	-0.012375	0.000000	0.002568	-0.000229	0.000000	0.000000
44.462297	18.382279	14.246274	0.082951	-0.119609	2.805937	0.000000	-0.012375	0.000000	0.002458	-0.000229	0.000000	0.000000
44.942297	18.315266	14.377502	0.056660	-0.153784	2.800107	0.000000	-0.012375	0.000000	0.002348	-0.000229	0.000000	0.000000
45.423547	18.273644	14.541828	-0.060238	-0.115998	2.794279	0.000000	0.001470	0.000000	0.002238	-0.000218	0.000000	0.000000
45.720870	18.314322	14.616965	-0.123544	-0.099272	2.794781	0.000000	0.008638	0.000000	0.002173	-0.000212	0.000000	0.000000
46.269930	18.141496	15.008522	0.436309	-0.618057	2.777000	0.000000	-0.073783	0.000000	0.002038	-0.000280	0.000000	0.000000
46.818990	17.367217	15.990470	0.965335	-1.180866	2.714290	0.000000	-0.154900	0.000000	0.001866	-0.000344	0.000000	0.000000
47.368050	16.046190	17.632749	1.426163	-1.827789	2.607762	0.000000	-0.233275	0.000000	0.001662	-0.000401	0.000000	0.000000
47.917110	14.271742	20.052335	1.786240	-2.604904	2.459302	0.000000	-0.307518	0.000000	0.001427	-0.000451	0.000000	0.000000
48.363070	12.890234	22.203285	1.322344	-2.197938	2.337685	0.000000	-0.239011	0.000000	0.001234	-0.000416	0.000000	0.000000
48.804030	11.903945	23.925298	0.922649	-1.692283	2.246962	0.000000	-0.173625	0.000000	0.001057	-0.000387	0.000000	0.000000
49.244990	11.250318	25.165567	0.565112	-1.109630	2.184600	0.000000	-0.110212	0.000000	0.000893	-0.000362	0.000000	0.000000
49.685950	10.899485	25.867662	0.233397	-0.476490	2.149889	0.000000	-0.048050	0.000000	0.000738	-0.000341	0.000000	0.000000
50.128160	10.835568	25.999355	-0.061345	0.114999	2.142446	0.000000	0.008343	0.000000	0.000591	-0.000325	0.000000	0.000000
50.425482	10.880236	25.934416	-0.088888	0.103412	2.145023	0.000000	0.008343	0.000000	0.000495	-0.000325	0.000000	0.000000
50.758816	10.949787	25.869805	-0.119767	0.090422	2.147912	0.000000	0.008343	0.000000	0.000386	-0.000325	0.000000	0.000000
51.092149	11.039925	25.813854	-0.150645	0.077431	2.150802	0.000000	0.008343	0.000000	0.000278	-0.000325	0.000000	0.000000
51.426732	11.150876	25.766925	-0.091177	-0.144642	2.153680	0.000000	-0.009129	0.000000	0.000169	-0.000326	0.000000	0.000000
51.724055	11.213087	25.856438	-0.090583	-0.219907	2.151063	0.000000	-0.014400	0.000000	0.000072	-0.000326	0.000000	0.000000
52.165015	11.439158	25.762647	-0.424145	0.431796	2.158479	0.000000	0.047439	0.000000	-0.000071	-0.000326	0.000000	0.000000
52.605975	11.966801	25.100609	-0.777083	1.063851	2.193259	0.000000	0.109821	0.000000	-0.000216	-0.000330	0.000000	0.000000
53.046935	12.820119	23.900449	-1.165521	1.647500	2.255799	0.000000	0.173458	0.000000	-0.000363	-0.000338	0.000000	0.000000
53.487895	14.038095	22.216778	-1.607205	2.156190	2.346813	0.000000	0.239074	0.000000	-0.000514	-0.000349	0.000000	0.000000
53.933855	15.697213	20.101038	-2.126575	2.568100	2.468848	0.000000	0.307815	0.000000	-0.000673	-0.000364	0.000000	0.000000
54.482915	17.832997	17.720122	-1.740501	1.793893	2.617794	0.000000	0.233261	0.000000	-0.000867	-0.000339	0.000000	0.000000
55.031975	19.474401	16.114642	-1.231497	1.147459	2.724591	0.000000	0.154565	0.000000	-0.001045	-0.000308	0.000000	0.000000
55.581035	20.505499	15.170240	-0.635517	0.582755	2.787343	0.000000	0.073122	0.000000	-0.001204	-0.000272	0.000000	0.000000
56.130095	20.853472	14.819646	0.005346	0.059560	2.804933	0.000000	-0.009623	0.000000	-0.001343	-0.000231	0.000000	0.000000
56.428668	20.887466	14.766745	-0.064105	0.078420	2.804343	0.000000	-0.002212	0.000000	-0.001413	-0.000234	0.000000	0.000000
56.762001	20.935544	14.722036	-0.080129	0.055708	2.803683	0.000000	-0.002212	0.000000	-0.001491	-0.000234	0.000000	0.000000
57.095334	20.994304	14.692468	-0.096153	0.032996	2.803024	0.000000	-0.002212	0.000000	-0.001569	-0.000234	0.000000	0.000000
57.429918	21.064028	14.678015	-0.112237	0.010199	2.802362	0.000000	-0.002212	0.000000	-0.001647	-0.000234	0.000000	0.000000
57.727240	21.135021	14.677973	-0.182543	0.028790	2.801775	0.000000	0.005213	0.000000	-0.001717	-0.000239	0.000000	0.000000
58.276300	20.974494	14.928017	0.473059	-0.486893	2.782041	0.000000	-0.077393	0.000000	-0.001832	-0.000181	0.000000	0.000000
58.825360	20.108249	15.759933	1.095244	-1.037255	2.717232	0.000000	-0.158629	0.000000	-0.001915	-0.000121	0.000000	0.000000
59.374420	18.597469	17.232972	1.640071	-1.661493	2.608495	0.000000	-0.237054	0.000000	-0.001964	-0.000058	0.000000	0.000000
59.923480	16.548858	19.452049	2.069059	-2.404069	2.457758	0.000000	-0.311276	0.000000	-0.001978	0.000006	0.000000	0.000000
60.369440	14.944710	21.424289	1.540804	-1.999804	2.334275	0.000000	-0.242849	0.000000	-0.001987	-0.000045	0.000000	0.000000
60.810400	13.790290	22.976020	1.087144	-1.505890	2.241700	0.000000	-0.177579	0.000000	-0.002018	-0.000097	0.000000	0.000000
61.251360	13.012614	24.060181	0.683148	-0.943463	2.177455	0.000000	-0.114331	0.000000	-0.002073	-0.000150	0.000000	0.000000
61.692320	12.576155	24.627445	0.310363	-0.338112	2.140810	0.000000	-0.052383	0.000000	-0.002151	-0.000204	0.000000	0.000000
62.134530	12.461020	24.651451	-0.017138	0.220926	2.131351	0.000000	0.003633	0.000000	-0.002253	-0.000255	0.000000	0.000000
62.431853	12.478307	24.523840	-0.041005	0.208276	2.132507	0.000000	0.003633	0.000000	-0.002329	-0.000255	0.000000	0.000000
62.765186	12.514563	24.389717	-0.067763	0.194094	2.133803	0.000000	0.003633	0.000000	-0.002414	-0.000255	0.000000	0.000000
63.098520	12.568658	24.265048	-0.094521	0.179912	2.135099	0.000000	0.003633	0.000000	-0.002499	-0.000255	0.000000	0.000000
63.433103	12.640894	24.149419	-0.121379	0.165677	2.136400	0.000000	0.003633	0.000000	-0.002585	-0.000255	0.000000	0.000000
63.730426	12.720165	24.054666	-0.113274	0.092479	2.137556	0.000000	-0.001740	0.000000	-0.002661	-0.000249	0.000000	0.000000
64.171386	12.981583	23.708255	-0.481940	0.690147	2.150469	0.000000	0.059817	0.000000	-0.002786	-0.000319	0.000000	0.000000
64.612346	13.576549	22.846656	-0.872619	1.256414	2.190681	0.000000	0.122059	0.000000	-0.002942	-0.000393	0.000000	0.000000
65.053306	14.532237	21.509072	-1.303157	1.765520	2.258651	0.000000	0.185695	0.000000	-0.003132	-0.000471	0.000000	0.000000
65.494266	15.892296	19.756361	-1.793221	2.194301	2.355155	0.000000	0.251451	0.000000	-0.003358	-0.000555	0.000000	0.000000
65.940226	17.742071	17.643477	-2.369819	2.523921	2.482867	0.000000	0.320467	0.000000	-0.003626	-0.000645	0.000000	0.000000
66.489286	20.111867	15.280067	-1.921278	1.806185	2.638733	0.000000	0.245354	0.000000	-0.003947	-0.000522	0.000000	0.000000
67.038346	21.911287	13.629944	-1.337062	1.217088	2.752031	0.000000	0.165882	0.000000	-0.004198	-0.000391	0.000000	0.000000
67.587406	23.013272	12.575579	-0.658427	0.714672	2.820750	0.000000	0.083461	0.000000	-0.004374	-0.000252	0.000000	0.000000
68.136466	23.340013	12.041877	0.066701	0.263156	2.843668	0.000000	-0.000444	0.000000	-0.004473	-0.000108	0.000000	0.000000
68.435038	23.341753	11.873297	-0.009334	0.268839	2.845871	0.000000	0.007261	0.000000	-0.004509	-0.000120	0.000000	0.000000
68.768372	23.352736	11.704105	-0.023616	0.238736	2.848331	0.000000	0.007261	0.000000	-0.004549	-0.000120	0.000000	0.000000
69.101705	23.373241	11.554983	-0.037897	0.208633	2.850792	0.000000	0.007261	0.000000	-0.004589	-0.000120	0.000000	0.000000
69.436288	23.403397	11.425482	-0.052233	0.178417	2.853262	0.000000	0.007261	0.000000	-0.004630	-0.000120	0.000000	0.000000
69.733611	23.438259	11.327364	-0.128575	0.182283	2.855457	0.000000	0.015010	0.000000	-0.004665	-0.000133	0.000000	0.000000
70.282671	23.176941	11.354176	0.601689	-0.231406	2.840533	0.000000	-0.069406	0.000000	-0.004697	0.000019	0.000000	0.000000
