#ParticleID	Turn	x[m]	xp	y[m]	yp	z[m]	dE[GeV]# s	beta_x	beta_y	alpha_x	alpha_y	D_x	D_y	D_px	D_py	orbit_x	orbit_px	orbit_y	orbit_py
0.300000	11.955585	25.315837	-0.020096	-0.021721	2.600038	0.000000	0.000551	0.000000	-0.000798	0.000695	0.000000	0.000000
0.601250	11.975287	25.332510	-0.045304	-0.033626	2.599995	0.000000	0.000551	0.000000	-0.000588	0.000695	0.000000	0.000000
0.898573	12.009623	25.355999	-0.040625	-0.107528	2.599952	0.000000	-0.005848	0.000000	-0.000382	0.000696	0.000000	0.000000
1.339533	12.199278	25.169420	-0.390864	0.529040	2.613269	0.000000	0.067639	0.000000	-0.000077	0.000690	0.000000	0.000000
1.780493	12.704500	24.429945	-0.758966	1.141541	2.659129	0.000000	0.141889	0.000000	0.000228	0.000692	0.000000	0.000000
2.221453	13.548376	23.171214	-1.161748	1.702105	2.738052	0.000000	0.217747	0.000000	0.000535	0.000702	0.000000	0.000000
2.662413	14.769471	21.450492	-1.617615	2.185225	2.850933	0.000000	0.296078	0.000000	0.000848	0.000720	0.000000	0.000000
3.108373	16.444669	19.320856	-2.151766	2.570085	3.000905	0.000000	0.378264	0.000000	0.001174	0.000746	0.000000	0.000000
3.657433	18.592102	16.928567	-1.735746	1.812610	3.183136	0.000000	0.285923	0.000000	0.001572	0.000701	0.000000	0.000000
4.206493	20.212248	15.292729	-1.197100	1.184244	3.313227	0.000000	0.188522	0.000000	0.001942	0.000644	0.000000	0.000000
4.755553	21.190642	14.296831	-0.573877	0.640231	3.388877	0.000000	0.087788	0.000000	0.002278	0.000576	0.000000	0.000000
5.304613	21.458148	13.869943	0.089898	0.141821	3.408747	0.000000	-0.014495	0.000000	0.002573	0.000497	0.000000	0.000000
5.603185	21.441374	13.770775	0.021117	0.154973	3.406870	0.000000	-0.005782	0.000000	0.002723	0.000504	0.000000	0.000000
5.936519	21.432480	13.675722	0.005564	0.130186	3.404775	0.000000	-0.005782	0.000000	0.002891	0.000504	0.000000	0.000000
6.269852	21.433955	13.597194	-0.009989	0.105398	3.402679	0.000000	-0.005782	0.000000	0.003059	0.000504	0.000000	0.000000
6.604435	21.445863	13.534990	-0.025601	0.080518	3.400576	0.000000	-0.005782	0.000000	0.003228	0.000504	0.000000	0.000000
6.901758	21.465218	13.493679	-0.093956	0.092758	3.398708	0.000000	0.002844	0.000000	0.003378	0.000513	0.000000	0.000000
7.450818	21.202312	13.653583	0.570205	-0.385695	3.372029	0.000000	-0.099006	0.000000	0.003629	0.000399	0.000000	0.000000
7.999878	20.227898	14.350829	1.194091	-0.891624	3.289889	0.000000	-0.199093	0.000000	0.003815	0.000279	0.000000	0.000000
8.548938	18.610809	15.635090	1.733625	-1.461070	3.153748	0.000000	-0.295645	0.000000	0.003934	0.000153	0.000000	0.000000
9.097998	16.465291	17.597853	2.150687	-2.134598	2.966022	0.000000	-0.386949	0.000000	0.003983	0.000025	0.000000	0.000000
9.543958	14.791295	19.346550	1.616196	-1.769814	2.811619	0.000000	-0.305706	0.000000	0.004017	0.000129	0.000000	0.000000
9.984918	13.571697	20.716903	1.159989	-1.325838	2.693879	0.000000	-0.228443	0.000000	0.004096	0.000233	0.000000	0.000000
10.425878	12.729668	21.667480	0.756786	-0.821529	2.609559	0.000000	-0.153785	0.000000	0.004223	0.000340	0.000000	0.000000
10.866838	12.226732	22.155023	0.388161	-0.279835	2.557698	0.000000	-0.080881	0.000000	0.004397	0.000452	0.000000	0.000000
11.309048	12.039751	22.156773	0.065387	0.222423	2.537685	0.000000	-0.014852	0.000000	0.004622	0.000557	0.000000	0.000000
11.606371	12.008243	22.028697	0.040587	0.208340	2.533103	0.000000	-0.014852	0.000000	0.004788	0.000557	0.000000	0.000000
12.086371	11.988498	21.839604	0.000548	0.185605	2.525707	0.000000	-0.014852	0.000000	0.005055	0.000557	0.000000	0.000000
12.566371	12.007190	21.672336	-0.039490	0.162869	2.518310	0.000000	-0.014852	0.000000	0.005322	0.000557	0.000000	0.000000
13.046371	12.064319	21.526895	-0.079529	0.140134	2.510914	0.000000	-0.014852	0.000000	0.005590	0.000557	0.000000	0.000000
13.526371	12.159885	21.403280	-0.119567	0.117398	2.503518	0.000000	-0.014852	0.000000	0.005857	0.000557	0.000000	0.000000
14.007621	12.294287	21.301254	-0.159710	0.094603	2.496102	0.000000	-0.014852	0.000000	0.006125	0.000557	0.000000	0.000000
14.304943	12.396617	21.249210	-0.155949	0.031723	2.491519	0.000000	-0.020593	0.000000	0.006290	0.000542	0.000000	0.000000
14.745903	12.693070	20.988820	-0.518606	0.556483	2.497737	0.000000	0.050019	0.000000	0.006565	0.000707	0.000000	0.000000
15.186863	13.318627	20.275029	-0.904970	1.055921	2.535116	0.000000	0.121194	0.000000	0.006915	0.000881	0.000000	0.000000
15.627823	14.301889	19.140313	-1.332699	1.507308	2.604081	0.000000	0.193740	0.000000	0.007344	0.001065	0.000000	0.000000
16.068783	15.687810	17.636302	-1.821344	1.890103	2.705414	0.000000	0.268481	0.000000	0.007857	0.001261	0.000000	0.000000
16.514743	17.563373	15.809868	-2.398158	2.187779	2.841961	0.000000	0.346756	0.000000	0.008466	0.001473	0.000000	0.000000
17.063803	19.971411	13.771288	-1.960342	1.546521	3.008046	0.000000	0.259806	0.000000	0.009197	0.001187	0.000000	0.000000
17.612863	21.819176	12.372684	-1.383978	1.015442	3.125210	0.000000	0.168266	0.000000	0.009765	0.000879	0.000000	0.000000
18.161923	22.976053	11.514424	-0.709797	0.556707	3.191382	0.000000	0.073754	0.000000	0.010160	0.000556	0.000000	0.000000
18.710983	23.360256	11.135372	0.014555	0.137634	3.205392	0.000000	-0.022057	0.000000	0.010374	0.000224	0.000000	0.000000
19.009556	23.388506	11.045640	-0.053833	0.136559	3.201005	0.000000	-0.014430	0.000000	0.010449	0.000250	0.000000	0.000000
19.342889	23.429160	10.964848	-0.068127	0.105818	3.196112	0.000000	-0.014430	0.000000	0.010532	0.000250	0.000000	0.000000
19.676223	23.479342	10.904549	-0.082420	0.075078	3.191218	0.000000	-0.014430	0.000000	0.010615	0.000250	0.000000	0.000000
20.010806	23.539587	10.864499	-0.213395	0.098051	3.186327	0.000000	0.001357	0.000000	0.010699	0.000303	0.000000	0.000000
20.308129	23.670489	10.814371	-0.282694	0.096102	3.186646	0.000000	0.008909	0.000000	0.010789	0.000330	0.000000	0.000000
20.857189	23.572850	10.928513	0.459547	-0.305184	3.165318	0.000000	-0.086178	0.000000	0.010874	-0.000021	0.000000	0.000000
21.406249	22.672970	11.492667	1.169311	-0.728214	3.092301	0.000000	-0.179735	0.000000	0.010766	-0.000372	0.000000	0.000000
21.955309	21.034459	12.547025	1.796435	-1.203127	2.968891	0.000000	-0.270110	0.000000	0.010466	-0.000716	0.000000	0.000000
22.504369	18.773141	14.166699	2.296596	-1.763760	2.797273	0.000000	-0.355704	0.000000	0.009981	-0.001047	0.000000	0.000000
22.950329	16.992933	15.621802	1.708236	-1.484818	2.656275	0.000000	-0.278637	0.000000	0.009571	-0.000794	0.000000	0.000000
23.391289	15.713793	16.783520	1.202873	-1.139321	2.549965	0.000000	-0.205223	0.000000	0.009275	-0.000551	0.000000	0.000000
23.832249	14.854619	17.616375	0.752494	-0.741974	2.475387	0.000000	-0.134140	0.000000	0.009084	-0.000314	0.000000	0.000000
24.273209	14.376129	18.082466	0.336511	-0.310859	2.431693	0.000000	-0.064583	0.000000	0.008997	-0.000081	0.000000	0.000000
24.715418	14.256562	18.160306	-0.032267	0.093644	2.418386	0.000000	-0.001174	0.000000	0.009013	0.000130	0.000000	0.000000
25.012741	14.281957	18.109531	-0.053144	0.077129	2.417998	0.000000	-0.001174	0.000000	0.009052	0.000130	0.000000	0.000000
25.346075	14.325188	18.064284	-0.076549	0.058613	2.417563	0.000000	-0.001174	0.000000	0.009095	0.000130	0.000000	0.000000
25.679408	14.384023	18.031381	-0.099955	0.040097	2.417129	0.000000	-0.001174	0.000000	0.009138	0.000130	0.000000	0.000000
26.013991	14.458476	18.011133	-0.006151	-0.124604	2.416668	0.000000	-0.020779	0.000000	0.009182	0.000056	0.000000	0.000000
26.311314	14.468213	18.090257	0.005604	-0.181771	2.410470	0.000000	-0.026164	0.000000	0.009198	0.000034	0.000000	0.000000
26.752274	14.642073	18.054604	-0.401262	0.262305	2.413966	0.000000	0.042328	0.000000	0.009266	0.000272	0.000000	0.000000
27.193234	15.181552	17.631048	-0.826470	0.694444	2.447644	0.000000	0.111300	0.000000	0.009439	0.000513	0.000000	0.000000
27.634194	16.111316	16.838860	-1.289458	1.094979	2.511885	0.000000	0.181534	0.000000	0.009719	0.000760	0.000000	0.000000
28.075154	17.473877	15.714090	-1.811390	1.445682	2.607420	0.000000	0.253829	0.000000	0.010110	0.001016	0.000000	0.000000
28.521114	19.355411	14.290844	-2.421254	1.731698	2.736951	0.000000	0.329481	0.000000	0.010623	0.001285	0.000000	0.000000
29.070174	21.747930	12.705855	-1.909086	1.171625	2.894628	0.000000	0.246066	0.000000	0.011232	0.000931	0.000000	0.000000
29.619234	23.499964	11.686799	-1.261983	0.695028	3.005428	0.000000	0.158300	0.000000	0.011642	0.000560	0.000000	0.000000
30.168294	24.487654	11.161081	-0.525683	0.267951	3.067388	0.000000	0.067735	0.000000	0.011845	0.000179	0.000000	0.000000
30.717354	24.641174	11.091248	0.247771	-0.140035	3.079413	0.000000	-0.024030	0.000000	0.011839	-0.000204	0.000000	0.000000
31.015927	24.531377	11.167503	0.177424	-0.141257	3.074441	0.000000	-0.016807	0.000000	0.011786	-0.000175	0.000000	0.000000
31.349260	24.417766	11.271822	0.163408	-0.171701	3.068897	0.000000	-0.016807	0.000000	0.011728	-0.000175	0.000000	0.000000
31.682593	24.313499	11.396437	0.149392	-0.202145	3.063353	0.000000	-0.016807	0.000000	0.011670	-0.000175	0.000000	0.000000
32.017177	24.218238	11.541930	0.135324	-0.232703	3.057788	0.000000	-0.016807	0.000000	0.011611	-0.000175	0.000000	0.000000
32.314499	24.141580	11.688334	0.066041	-0.232392	3.052848	0.000000	-0.009627	0.000000	0.011559	-0.000146	0.000000	0.000000
32.863559	23.655734	12.182148	0.813217	-0.672152	3.022813	0.000000	-0.100238	0.000000	0.011376	-0.000518	0.000000	0.000000
33.412619	22.376005	13.182256	1.502911	-1.159801	2.943626	0.000000	-0.189078	0.000000	0.010992	-0.000880	0.000000	0.000000
33.961679	20.392867	14.759904	2.086378	-1.730082	2.816687	0.000000	-0.274578	0.000000	0.010412	-0.001227	0.000000	0.000000
34.510739	17.846515	17.027479	2.522381	-2.423624	2.644242	0.000000	-0.355227	0.000000	0.009648	-0.001552	0.000000	0.000000
34.956699	15.868142	19.056107	1.928353	-2.105632	2.502793	0.000000	-0.282142	0.000000	0.009010	-0.001310	0.000000	0.000000
35.397659	14.393480	20.737658	1.427603	-1.692762	2.394285	0.000000	-0.212716	0.000000	0.008483	-0.001085	0.000000	0.000000
35.838619	13.330220	22.019540	0.992110	-1.202856	2.315743	0.000000	-0.145701	0.000000	0.008052	-0.000872	0.000000	0.000000
36.279579	12.629749	22.843425	0.601967	-0.658212	2.266275	0.000000	-0.080337	0.000000	0.007713	-0.000668	0.000000	0.000000
36.721789	12.259392	23.172129	0.267133	-0.136254	2.245298	0.000000	-0.020991	0.000000	0.007461	-0.000490	0.000000	0.000000
37.019112	12.108268	23.257038	0.241150	-0.149323	2.239203	0.000000	-0.020991	0.000000	0.007315	-0.000490	0.000000	0.000000
37.352445	11.957211	23.361470	0.212019	-0.163975	2.232369	0.000000	-0.020991	0.000000	0.007151	-0.000490	0.000000	0.000000
37.685779	11.825575	23.475671	0.182889	-0.178627	2.225535	0.000000	-0.020991	0.000000	0.006988	-0.000490	0.000000	0.000000
38.020362	11.712975	23.600123	0.153649	-0.193334	2.218676	0.000000	-0.020991	0.000000	0.006824	-0.000490	0.000000	0.000000
38.317684	11.629318	23.719005	0.154354	-0.261002	2.212579	0.000000	-0.026069	0.000000	0.006678	-0.000506	0.000000	0.000000
38.758644	11.642133	23.686335	-0.183663	0.334801	2.215234	0.000000	0.037305	0.000000	0.006492	-0.000336	0.000000	0.000000
39.199604	11.955663	23.132904	-0.530070	0.915367	2.245833	0.000000	0.101108	0.000000	0.006381	-0.000170	0.000000	0.000000
39.640564	12.584234	22.083898	-0.900700	1.454277	2.304727	0.000000	0.166065	0.000000	0.006342	-0.000006	0.000000	0.000000
40.081524	13.556574	20.587056	-1.312492	1.927005	2.392585	0.000000	0.232913	0.000000	0.006375	0.000157	0.000000	0.000000
40.527484	14.934670	18.687765	-1.788189	2.313507	2.511895	0.000000	0.302840	0.000000	0.006483	0.000324	0.000000	0.000000
41.076544	16.695800	16.552878	-1.399960	1.597341	2.657445	0.000000	0.226928	0.000000	0.006603	0.000112	0.000000	0.000000
41.625604	17.973338	15.137763	-0.912814	0.994971	2.760255	0.000000	0.146992	0.000000	0.006605	-0.000102	0.000000	0.000000
42.174664	18.677007	14.341608	-0.361176	0.463485	2.818502	0.000000	0.064447	0.000000	0.006491	-0.000314	0.000000	0.000000
42.723724	18.757090	14.107693	0.215975	-0.034980	2.831151	0.000000	-0.019247	0.000000	0.006262	-0.000521	0.000000	0.000000
43.022297	18.660692	14.114016	0.153206	-0.021143	2.827644	0.000000	-0.012244	0.000000	0.006111	-0.000505	0.000000	0.000000
43.502297	18.526251	14.150645	0.126880	-0.055167	2.822009	0.000000	-0.012244	0.000000	0.005869	-0.000505	0.000000	0.000000
43.982297	18.417082	14.219937	0.100554	-0.089191	2.816374	0.000000	-0.012244	0.000000	0.005627	-0.000505	0.000000	0.000000
44.462297	18.333187	14.321892	0.074228	-0.123215	2.810739	0.000000	-0.012244	0.000000	0.005384	-0.000505	0.000000	0.000000
44.942297	18.274565	14.456510	0.047901	-0.157239	2.805104	0.000000	-0.012244	0.000000	0.005142	-0.000505	0.000000	0.000000
45.423547	18.241389	14.624088	-0.068872	-0.118895	2.799471	0.000000	0.001626	0.000000	0.004899	-0.000480	0.000000	0.000000
45.720870	18.287224	14.700909	-0.131102	-0.102752	2.800098	0.000000	0.008647	0.000000	0.004757	-0.000468	0.000000	0.000000
46.269930	18.123022	15.097747	0.428088	-0.624226	2.782429	0.000000	-0.073955	0.000000	0.004458	-0.000617	0.000000	0.000000
46.818990	17.357743	16.088171	0.957024	-1.190166	2.719770	0.000000	-0.155255	0.000000	0.004081	-0.000756	0.000000	0.000000
47.368050	16.045472	17.742724	1.418335	-1.840884	2.613230	0.000000	-0.233813	0.000000	0.003631	-0.000881	0.000000	0.000000
47.917110	14.278938	20.179254	1.779431	-2.622733	2.464690	0.000000	-0.308237	0.000000	0.003116	-0.000990	0.000000	0.000000
48.363070	12.903164	22.344966	1.315977	-2.212974	2.343005	0.000000	-0.239585	0.000000	0.002692	-0.000915	0.000000	0.000000
48.804030	11.922295	24.078810	0.916461	-1.703896	2.252264	0.000000	-0.174060	0.000000	0.002303	-0.000850	0.000000	0.000000
49.244990	11.274072	25.327632	0.558826	-1.117291	2.189931	0.000000	-0.110508	0.000000	0.001940	-0.000796	0.000000	0.000000
49.685950	10.928866	26.034615	0.226730	-0.479849	2.155299	0.000000	-0.048207	0.000000	0.001600	-0.000750	0.000000	0.000000
50.128160	10.871069	26.167307	-0.068781	0.116248	2.147989	0.000000	0.008350	0.000000	0.001277	-0.000716	0.000000	0.000000
50.425482	10.920140	26.101605	-0.096260	0.104732	2.150685	0.000000	0.008350	0.000000	0.001064	-0.000716	0.000000	0.000000
50.758816	10.994583	26.036087	-0.127068	0.091821	2.153707	0.000000	0.008350	0.000000	0.000825	-0.000716	0.000000	0.000000
51.092149	11.089564	25.979176	-0.157875	0.078911	2.156728	0.000000	0.008350	0.000000	0.000587	-0.000716	0.000000	0.000000
51.426732	11.205328	25.931234	-0.097894	-0.144415	2.159740	0.000000	-0.009171	0.000000	0.000347	-0.000719	0.000000	0.000000
51.724055	11.271505	26.020590	-0.097076	-0.220117	2.157227	0.000000	-0.014455	0.000000	0.000133	-0.000719	0.000000	0.000000
52.165015	11.503886	25.925066	-0.432146	0.435919	2.164822	0.000000	0.047545	0.000000	-0.000184	-0.000720	0.000000	0.000000
52.605975	12.039319	25.257546	-0.786953	1.072118	2.199854	0.000000	0.110095	0.000000	-0.000503	-0.000729	0.000000	0.000000
53.046935	12.902260	24.048406	-1.177709	1.659534	2.262725	0.000000	0.173906	0.000000	-0.000827	-0.000746	0.000000	0.000000
53.487895	14.132124	22.352670	-1.622262	2.171442	2.354153	0.000000	0.239705	0.000000	-0.001162	-0.000771	0.000000	0.000000
53.933855	15.806117	20.222157	-2.145197	2.585867	2.476697	0.000000	0.308640	0.000000	-0.001513	-0.000806	0.000000	0.000000
54.482915	17.960833	17.824371	-1.756416	1.807092	2.626249	0.000000	0.233825	0.000000	-0.001941	-0.000750	0.000000	0.000000
55.031975	19.617565	16.206489	-1.243594	1.157030	2.733485	0.000000	0.154851	0.000000	-0.002334	-0.000681	0.000000	0.000000
55.581035	20.659319	15.253267	-0.642953	0.589378	2.796498	0.000000	0.073119	0.000000	-0.002686	-0.000600	0.000000	0.000000
56.130095	21.012541	14.896803	0.003085	0.063706	2.814166	0.000000	-0.009919	0.000000	-0.002991	-0.000508	0.000000	0.000000
56.428668	21.048548	14.840930	-0.067433	0.083445	2.813608	0.000000	-0.002383	0.000000	-0.003145	-0.000516	0.000000	0.000000
56.762001	21.098806	14.792839	-0.083341	0.060828	2.812985	0.000000	-0.002383	0.000000	-0.003317	-0.000516	0.000000	0.000000
57.095334	21.159670	14.759826	-0.099250	0.038211	2.812362	0.000000	-0.002383	0.000000	-0.003488	-0.000516	0.000000	0.000000
57.429918	21.231427	14.741851	-0.115218	0.015510	2.811737	0.000000	-0.002383	0.000000	-0.003661	-0.000516	0.000000	0.000000
57.727240	21.304169	14.738620	-0.186831	0.034954	2.811183	0.000000	0.005194	0.000000	-0.003814	-0.000526	0.000000	0.000000
58.276300	21.145159	14.982802	0.474457	-0.482331	2.791490	0.000000	-0.077712	0.000000	-0.004068	-0.000398	0.000000	0.000000
58.825360	20.274253	15.810406	1.102229	-1.033966	2.726520	0.000000	-0.159247	0.000000	-0.004250	-0.000263	0.000000	0.000000
59.374420	18.752961	17.280371	1.652153	-1.659238	2.617423	0.000000	-0.237962	0.000000	-0.004356	-0.000124	0.000000	0.000000
59.923480	16.688718	19.497382	2.085397	-2.402679	2.466131	0.000000	-0.312458	0.000000	-0.004385	0.000018	0.000000	0.000000
60.369440	15.071772	21.467643	1.553314	-1.996844	2.342176	0.000000	-0.243832	0.000000	-0.004403	-0.000096	0.000000	0.000000
60.810400	13.907829	23.016046	1.096368	-1.501454	2.249249	0.000000	-0.178367	0.000000	-0.004470	-0.000211	0.000000	0.000000
61.251360	13.123312	24.095680	0.689504	-0.937758	2.184763	0.000000	-0.114932	0.000000	-0.004589	-0.000327	0.000000	0.000000
61.692320	12.682384	24.657429	0.314139	-0.331402	2.147984	0.000000	-0.052802	0.000000	-0.004759	-0.000448	0.000000	0.000000
62.134530	12.564950	24.675156	-0.014726	0.226853	2.138501	0.000000	0.003244	0.000000	-0.004985	-0.000561	0.000000	0.000000
62.431853	12.580744	24.544026	-0.038394	0.214183	2.139632	0.000000	0.003244	0.000000	-0.005152	-0.000561	0.000000	0.000000
62.765186	12.615185	24.405972	-0.064929	0.199979	2.140900	0.000000	0.003244	0.000000	-0.005339	-0.000561	0.000000	0.000000
63.098520	12.667316	24.277387	-0.091464	0.185775	2.142168	0.000000	0.003244	0.000000	-0.005526	-0.000561	0.000000	0.000000
63.433103	12.737432	24.157843	-0.118098	0.171518	2.143441	0.000000	0.003244	0.000000	-0.005713	-0.000561	0.000000	0.000000
63.730426	12.814682	24.059642	-0.108621	0.096427	2.144571	0.000000	-0.002303	0.000000	-0.005880	-0.000546	0.000000	0.000000
64.171386	13.072833	23.709752	-0.479307	0.694096	2.157419	0.000000	0.059429	0.000000	-0.006155	-0.000701	0.000000	0.000000
64.612346	13.666217	22.844779	-0.871880	1.260186	2.197679	0.000000	0.121845	0.000000	-0.006500	-0.000864	0.000000	0.000000
65.053306	14.621926	21.504079	-1.304267	1.768947	2.265811	0.000000	0.185658	0.000000	-0.006918	-0.001037	0.000000	0.000000
65.494266	15.983596	19.748651	-1.796216	2.197234	2.362596	0.000000	0.251596	0.000000	-0.007416	-0.001222	0.000000	0.000000
65.940226	17.836706	17.633508	-2.374720	2.526145	2.490722	0.000000	0.320789	0.000000	-0.008005	-0.001422	0.000000	0.000000
66.489286	20.209627	15.267842	-1.922696	1.808370	2.647058	0.000000	0.245427	0.000000	-0.008712	-0.001151	0.000000	0.000000
67.038346	22.008346	13.615392	-1.334937	1.219376	2.760607	0.000000	0.165693	0.000000	-0.009265	-0.000860	0.000000	0.000000
67.587406	23.105907	12.558468	-0.652940	0.717216	2.829348	0.000000	0.083008	0.000000	-0.009654	-0.000553	0.000000	0.000000
68.136466	23.424850	12.021794	0.075146	0.266130	2.852057	0.000000	-0.001158	0.000000	-0.009871	-0.000237	0.000000	0.000000
68.435038	23.423209	11.850702	-0.003738	0.273038	2.854190	0.000000	0.006894	0.000000	-0.009950	-0.000264	0.000000	0.000000
68.768372	23.430444	11.678751	-0.017969	0.242813	2.856576	0.000000	0.006894	0.000000	-0.010038	-0.000264	0.000000	0.000000
69.101705	23.447167	11.526951	-0.032200	0.212589	2.858962	0.000000	0.006894	0.000000	-0.010126	-0.000264	0.000000	0.000000
69.436288	23.473493	11.394844	-0.046484	0.182251	2.861357	0.000000	0.006894	0.000000	-0.010214	-0.000264	0.000000	0.000000
69.733611	23.504982	11.294450	-0.125742	0.187231	2.863490	0.000000	0.015003	0.000000	-0.010293	-0.000292	0.000000	0.000000
70.282671	23.239428	11.315288	0.606520	-0.225413	2.848531	0.000000	-0.069658	0.000000	-0.010361	0.000043	0.000000	0.000000
