#ParticleID	Turn	x[m]	xp	y[m]	yp	z[m]	dE[GeV]# s	beta_x	beta_y	alpha_x	alpha_y	D_x	D_y	D_px	D_py	orbit_x	orbit_px	orbit_y	orbit_py
0.300000	11.952411	25.308994	-0.020108	-0.021793	2.600529	0.000000	0.000589	0.000000	-0.000764	0.000666	0.000000	0.000000
0.601250	11.972123	25.325712	-0.045323	-0.033702	2.600506	0.000000	0.000589	0.000000	-0.000563	0.000666	0.000000	0.000000
0.898573	12.006472	25.349247	-0.040663	-0.107591	2.600484	0.000000	-0.005810	0.000000	-0.000365	0.000667	0.000000	0.000000
1.339533	12.196125	25.162802	-0.390831	0.528801	2.613833	0.000000	0.067691	0.000000	-0.000072	0.000661	0.000000	0.000000
1.780493	12.701281	24.423613	-0.758860	1.141135	2.659731	0.000000	0.141956	0.000000	0.000219	0.000663	0.000000	0.000000
2.221453	13.545025	23.165307	-1.161564	1.701551	2.738700	0.000000	0.217830	0.000000	0.000513	0.000672	0.000000	0.000000
2.662413	14.765915	21.445130	-1.617344	2.184549	2.851634	0.000000	0.296178	0.000000	0.000813	0.000690	0.000000	0.000000
3.108373	16.440820	19.316142	-2.151394	2.569316	3.001667	0.000000	0.378383	0.000000	0.001126	0.000715	0.000000	0.000000
3.657433	18.587902	16.924593	-1.735502	1.812028	3.183973	0.000000	0.286017	0.000000	0.001508	0.000672	0.000000	0.000000
4.206493	20.207850	15.289313	-1.197002	1.183808	3.314123	0.000000	0.188588	0.000000	0.001862	0.000617	0.000000	0.000000
4.755553	21.186210	14.293830	-0.573933	0.639909	3.389814	0.000000	0.087824	0.000000	0.002184	0.000552	0.000000	0.000000
5.304613	21.453853	13.867243	0.089692	0.141591	3.409708	0.000000	-0.014489	0.000000	0.002466	0.000477	0.000000	0.000000
5.603185	21.437228	13.768196	0.020868	0.154770	3.407842	0.000000	-0.005765	0.000000	0.002610	0.000483	0.000000	0.000000
5.936519	21.428501	13.673279	0.005312	0.129980	3.405759	0.000000	-0.005765	0.000000	0.002771	0.000483	0.000000	0.000000
6.269852	21.430145	13.594889	-0.010244	0.105189	3.403676	0.000000	-0.005765	0.000000	0.002932	0.000483	0.000000	0.000000
6.604435	21.442224	13.532826	-0.025858	0.080306	3.401585	0.000000	-0.005765	0.000000	0.003094	0.000483	0.000000	0.000000
6.901758	21.461732	13.491642	-0.094274	0.092576	3.399728	0.000000	0.002874	0.000000	0.003238	0.000491	0.000000	0.000000
7.450818	21.199232	13.651715	0.569778	-0.385821	3.373067	0.000000	-0.099009	0.000000	0.003478	0.000382	0.000000	0.000000
7.999878	20.225330	14.349071	1.193585	-0.891703	3.290924	0.000000	-0.199130	0.000000	0.003656	0.000267	0.000000	0.000000
8.548938	18.608825	15.633392	1.733077	-1.461107	3.154759	0.000000	-0.295714	0.000000	0.003770	0.000147	0.000000	0.000000
9.097998	16.463918	17.596168	2.150135	-2.134595	2.966988	0.000000	-0.387049	0.000000	0.003817	0.000024	0.000000	0.000000
9.543958	14.790379	19.344886	1.615725	-1.769873	2.812548	0.000000	-0.305783	0.000000	0.003850	0.000123	0.000000	0.000000
9.984918	13.571174	20.715312	1.159571	-1.325952	2.694783	0.000000	-0.228497	0.000000	0.003926	0.000223	0.000000	0.000000
10.425878	12.729496	21.666010	0.756403	-0.821693	2.610449	0.000000	-0.153815	0.000000	0.004047	0.000326	0.000000	0.000000
10.866838	12.226887	22.153716	0.387796	-0.280043	2.558587	0.000000	-0.080890	0.000000	0.004214	0.000433	0.000000	0.000000
11.309048	12.040225	22.155668	0.065078	0.222090	2.538584	0.000000	-0.014852	0.000000	0.004430	0.000533	0.000000	0.000000
11.606371	12.008900	22.027789	0.040279	0.208009	2.534010	0.000000	-0.014852	0.000000	0.004588	0.000533	0.000000	0.000000
12.086371	11.989449	21.839013	0.000244	0.185275	2.526625	0.000000	-0.014852	0.000000	0.004844	0.000533	0.000000	0.000000
12.566371	12.008432	21.672061	-0.039791	0.162542	2.519240	0.000000	-0.014852	0.000000	0.005100	0.000533	0.000000	0.000000
13.046371	12.065848	21.526933	-0.079826	0.139808	2.511856	0.000000	-0.014852	0.000000	0.005356	0.000533	0.000000	0.000000
13.526371	12.161698	21.403629	-0.119862	0.117075	2.504471	0.000000	-0.014852	0.000000	0.005612	0.000533	0.000000	0.000000
14.007621	12.296382	21.301913	-0.160001	0.094282	2.497067	0.000000	-0.014852	0.000000	0.005869	0.000533	0.000000	0.000000
14.304943	12.398886	21.250058	-0.156155	0.031261	2.492491	0.000000	-0.020610	0.000000	0.006028	0.000519	0.000000	0.000000
14.745903	12.695540	20.990064	-0.518869	0.556053	2.498717	0.000000	0.050027	0.000000	0.006291	0.000678	0.000000	0.000000
15.186863	13.321350	20.276634	-0.905301	1.055542	2.536120	0.000000	0.121227	0.000000	0.006627	0.000844	0.000000	0.000000
15.627823	14.304927	19.142228	-1.333112	1.506998	2.605122	0.000000	0.193798	0.000000	0.007038	0.001020	0.000000	0.000000
16.068783	15.691239	17.638462	-1.821857	1.889876	2.706506	0.000000	0.268566	0.000000	0.007528	0.001208	0.000000	0.000000
16.514743	17.567284	15.812203	-2.398786	2.187640	2.843121	0.000000	0.346869	0.000000	0.008112	0.001411	0.000000	0.000000
17.063803	19.975935	13.773801	-1.960877	1.546355	3.009286	0.000000	0.259881	0.000000	0.008813	0.001137	0.000000	0.000000
17.612863	21.824195	12.375407	-1.384384	1.015236	3.126503	0.000000	0.168301	0.000000	0.009357	0.000843	0.000000	0.000000
18.161923	22.981417	11.517407	-0.710049	0.556446	3.192698	0.000000	0.073749	0.000000	0.009735	0.000533	0.000000	0.000000
18.710983	23.365795	11.138681	0.014475	0.137300	3.206703	0.000000	-0.022104	0.000000	0.009941	0.000214	0.000000	0.000000
19.009556	23.394246	11.049070	-0.054158	0.136356	3.202315	0.000000	-0.014441	0.000000	0.010012	0.000239	0.000000	0.000000
19.342889	23.435114	10.968410	-0.068448	0.105627	3.197421	0.000000	-0.014441	0.000000	0.010092	0.000239	0.000000	0.000000
19.676223	23.485510	10.908235	-0.082738	0.074897	3.192528	0.000000	-0.014441	0.000000	0.010172	0.000239	0.000000	0.000000
20.010806	23.545966	10.868302	-0.213742	0.097901	3.187636	0.000000	0.001352	0.000000	0.010252	0.000290	0.000000	0.000000
20.308129	23.677067	10.818263	-0.283302	0.096082	3.187956	0.000000	0.008940	0.000000	0.010338	0.000316	0.000000	0.000000
20.857189	23.579976	10.932485	0.459160	-0.305310	3.166637	0.000000	-0.086188	0.000000	0.010419	-0.000021	0.000000	0.000000
21.406249	22.680395	11.496836	1.169174	-0.728455	3.093600	0.000000	-0.179787	0.000000	0.010316	-0.000356	0.000000	0.000000
21.955309	21.041910	12.551522	1.796559	-1.203500	2.970139	0.000000	-0.270202	0.000000	0.010029	-0.000686	0.000000	0.000000
22.504369	18.780341	14.171680	2.296975	-1.764290	2.798442	0.000000	-0.355834	0.000000	0.009564	-0.001004	0.000000	0.000000
22.950329	16.999888	15.627192	1.708464	-1.485231	2.657377	0.000000	-0.278739	0.000000	0.009171	-0.000761	0.000000	0.000000
23.391289	15.720626	16.789207	1.202953	-1.139592	2.551017	0.000000	-0.205298	0.000000	0.008887	-0.000528	0.000000	0.000000
23.832249	14.861454	17.622229	0.752427	-0.742091	2.476405	0.000000	-0.134189	0.000000	0.008705	-0.000301	0.000000	0.000000
24.273209	14.383093	18.088350	0.336293	-0.310817	2.432691	0.000000	-0.064607	0.000000	0.008621	-0.000078	0.000000	0.000000
24.715418	14.263787	18.166086	-0.032499	0.093667	2.419379	0.000000	-0.001197	0.000000	0.008636	0.000125	0.000000	0.000000
25.012741	14.289316	18.115297	-0.053366	0.077156	2.418986	0.000000	-0.001197	0.000000	0.008674	0.000125	0.000000	0.000000
25.346075	14.332692	18.070029	-0.076760	0.058646	2.418546	0.000000	-0.001197	0.000000	0.008715	0.000125	0.000000	0.000000
25.679408	14.391663	18.037102	-0.100154	0.040136	2.418105	0.000000	-0.001197	0.000000	0.008757	0.000125	0.000000	0.000000
26.013991	14.466245	18.016826	-0.006276	-0.124605	2.417639	0.000000	-0.020810	0.000000	0.008798	0.000053	0.000000	0.000000
26.311314	14.476055	18.095946	0.005644	-0.181949	2.411433	0.000000	-0.026220	0.000000	0.008814	0.000033	0.000000	0.000000
26.752274	14.649958	18.060383	-0.401404	0.262281	2.414912	0.000000	0.042297	0.000000	0.008879	0.000261	0.000000	0.000000
27.193234	15.189640	17.636781	-0.826801	0.694576	2.448588	0.000000	0.111292	0.000000	0.009044	0.000492	0.000000	0.000000
27.634194	16.119773	16.844415	-1.289991	1.095260	2.512842	0.000000	0.181550	0.000000	0.009313	0.000728	0.000000	0.000000
28.075154	17.482886	15.719342	-1.812149	1.446100	2.608404	0.000000	0.253869	0.000000	0.009688	0.000973	0.000000	0.000000
28.521114	19.365175	14.295686	-2.422263	1.732226	2.737977	0.000000	0.329545	0.000000	0.010179	0.001231	0.000000	0.000000
29.070174	21.758611	12.710214	-1.909795	1.172000	2.895704	0.000000	0.246098	0.000000	0.010763	0.000892	0.000000	0.000000
29.619234	23.511215	11.690827	-1.262347	0.695274	3.006528	0.000000	0.158298	0.000000	0.011156	0.000537	0.000000	0.000000
30.168294	24.499090	11.164905	-0.525678	0.268085	3.068485	0.000000	0.067698	0.000000	0.011350	0.000172	0.000000	0.000000
30.717354	24.652400	11.094982	0.248145	-0.140003	3.080480	0.000000	-0.024100	0.000000	0.011344	-0.000196	0.000000	0.000000
31.015927	24.542571	11.171130	0.177493	-0.141080	3.075496	0.000000	-0.016840	0.000000	0.011294	-0.000168	0.000000	0.000000
31.349260	24.428913	11.275328	0.163483	-0.171513	3.069939	0.000000	-0.016840	0.000000	0.011238	-0.000168	0.000000	0.000000
31.682593	24.324594	11.399814	0.149473	-0.201945	3.064381	0.000000	-0.016840	0.000000	0.011182	-0.000168	0.000000	0.000000
32.017177	24.229276	11.545169	0.135411	-0.232492	3.058803	0.000000	-0.016840	0.000000	0.011126	-0.000168	0.000000	0.000000
32.314499	24.152557	11.691448	0.065837	-0.232032	3.053851	0.000000	-0.009623	0.000000	0.011076	-0.000140	0.000000	0.000000
32.863559	23.666747	12.184901	0.813372	-0.671856	3.023802	0.000000	-0.100265	0.000000	0.010901	-0.000496	0.000000	0.000000
33.412619	22.386672	13.184702	1.503416	-1.159547	2.944577	0.000000	-0.189136	0.000000	0.010533	-0.000843	0.000000	0.000000
33.961679	20.402829	14.762076	2.087200	-1.729852	2.817576	0.000000	-0.274664	0.000000	0.009978	-0.001176	0.000000	0.000000
34.510739	17.855457	17.029389	2.523466	-2.423400	2.645047	0.000000	-0.355339	0.000000	0.009245	-0.001487	0.000000	0.000000
34.956699	15.876257	19.057766	1.929196	-2.105330	2.503528	0.000000	-0.282236	0.000000	0.008634	-0.001255	0.000000	0.000000
35.397659	14.400964	20.739007	1.428235	-1.692386	2.394962	0.000000	-0.212792	0.000000	0.008129	-0.001039	0.000000	0.000000
35.838619	13.337242	22.020525	0.992559	-1.202424	2.316373	0.000000	-0.145761	0.000000	0.007716	-0.000835	0.000000	0.000000
36.279579	12.636457	22.844008	0.602252	-0.657744	2.266869	0.000000	-0.080382	0.000000	0.007391	-0.000640	0.000000	0.000000
36.721789	12.265919	23.172293	0.267373	-0.135952	2.245865	0.000000	-0.021040	0.000000	0.007149	-0.000470	0.000000	0.000000
37.019112	12.114649	23.257022	0.241401	-0.149020	2.239749	0.000000	-0.021040	0.000000	0.007010	-0.000470	0.000000	0.000000
37.352445	11.963421	23.361252	0.212282	-0.163671	2.232892	0.000000	-0.021040	0.000000	0.006853	-0.000470	0.000000	0.000000
37.685779	11.831605	23.475250	0.183164	-0.178322	2.226036	0.000000	-0.021040	0.000000	0.006697	-0.000470	0.000000	0.000000
38.020362	11.718817	23.599497	0.153936	-0.193028	2.219153	0.000000	-0.021040	0.000000	0.006539	-0.000470	0.000000	0.000000
38.317684	11.634988	23.718194	0.154742	-0.260844	2.213036	0.000000	-0.026133	0.000000	0.006400	-0.000485	0.000000	0.000000
38.758644	11.647518	23.685396	-0.183396	0.334934	2.215658	0.000000	0.037252	0.000000	0.006222	-0.000322	0.000000	0.000000
39.199604	11.960861	23.131864	-0.529913	0.915468	2.246231	0.000000	0.101065	0.000000	0.006115	-0.000163	0.000000	0.000000
39.640564	12.589337	22.082789	-0.900645	1.454341	2.305106	0.000000	0.166031	0.000000	0.006078	-0.000006	0.000000	0.000000
40.081524	13.561669	20.585912	-1.312536	1.927032	2.392953	0.000000	0.232888	0.000000	0.006110	0.000151	0.000000	0.000000
40.527484	14.939837	18.686627	-1.788329	2.313487	2.512257	0.000000	0.302824	0.000000	0.006213	0.000311	0.000000	0.000000
41.076544	16.701002	16.551754	-1.399898	1.597351	2.657799	0.000000	0.226901	0.000000	0.006328	0.000108	0.000000	0.000000
41.625604	17.978358	15.136617	-0.912557	0.995012	2.760591	0.000000	0.146954	0.000000	0.006331	-0.000097	0.000000	0.000000
42.174664	18.681645	14.340404	-0.360743	0.463558	2.818810	0.000000	0.064399	0.000000	0.006221	-0.000301	0.000000	0.000000
42.723724	18.761174	14.106390	0.216554	-0.034871	2.831421	0.000000	-0.019303	0.000000	0.006001	-0.000499	0.000000	0.000000
43.022297	18.664504	14.112602	0.153666	-0.020960	2.827896	0.000000	-0.012283	0.000000	0.005857	-0.000483	0.000000	0.000000
43.502297	18.529620	14.149056	0.127342	-0.054987	2.822232	0.000000	-0.012283	0.000000	0.005625	-0.000483	0.000000	0.000000
43.982297	18.420008	14.218177	0.101017	-0.089014	2.816569	0.000000	-0.012283	0.000000	0.005393	-0.000483	0.000000	0.000000
44.462297	18.335667	14.319964	0.074693	-0.123042	2.810905	0.000000	-0.012283	0.000000	0.005161	-0.000483	0.000000	0.000000
44.942297	18.276598	14.454417	0.048368	-0.157069	2.805241	0.000000	-0.012283	0.000000	0.004929	-0.000483	0.000000	0.000000
45.423547	18.242971	14.621833	-0.068411	-0.118739	2.799580	0.000000	0.001588	0.000000	0.004696	-0.000460	0.000000	0.000000
45.720870	18.288531	14.698562	-0.130723	-0.102535	2.800189	0.000000	0.008621	0.000000	0.004559	-0.000449	0.000000	0.000000
46.269930	18.123901	15.095118	0.428498	-0.623928	2.782493	0.000000	-0.073982	0.000000	0.004273	-0.000592	0.000000	0.000000
46.818990	17.358178	16.085158	0.957436	-1.189764	2.719804	0.000000	-0.155283	0.000000	0.003912	-0.000724	0.000000	0.000000
47.368050	16.045478	17.739197	1.418721	-1.840351	2.613230	0.000000	-0.233841	0.000000	0.003480	-0.000844	0.000000	0.000000
47.917110	14.278559	20.175047	1.779766	-2.622031	2.464655	0.000000	-0.308265	0.000000	0.002987	-0.000949	0.000000	0.000000
48.363070	12.902506	22.340165	1.316291	-2.212357	2.342940	0.000000	-0.239615	0.000000	0.002581	-0.000877	0.000000	0.000000
48.804030	11.921373	24.073508	0.916767	-1.703388	2.252169	0.000000	-0.174092	0.000000	0.002208	-0.000815	0.000000	0.000000
49.244990	11.272884	25.321937	0.559138	-1.116915	2.189807	0.000000	-0.110543	0.000000	0.001861	-0.000762	0.000000	0.000000
49.685950	10.927400	26.028653	0.227061	-0.479623	2.155146	0.000000	-0.048245	0.000000	0.001535	-0.000719	0.000000	0.000000
50.128160	10.869301	26.161216	-0.068407	0.116285	2.147805	0.000000	0.008305	0.000000	0.001225	-0.000686	0.000000	0.000000
50.425482	10.918150	26.095492	-0.095889	0.104767	2.150478	0.000000	0.008305	0.000000	0.001021	-0.000686	0.000000	0.000000
50.758816	10.992346	26.029953	-0.126700	0.091853	2.153475	0.000000	0.008305	0.000000	0.000792	-0.000686	0.000000	0.000000
51.092149	11.087084	25.973022	-0.157511	0.078939	2.156472	0.000000	0.008305	0.000000	0.000564	-0.000686	0.000000	0.000000
51.426732	11.202605	25.925061	-0.097555	-0.144340	2.159458	0.000000	-0.009214	0.000000	0.000334	-0.000689	0.000000	0.000000
51.724055	11.268582	26.014373	-0.096748	-0.220020	2.156923	0.000000	-0.014497	0.000000	0.000129	-0.000689	0.000000	0.000000
52.165015	11.500646	25.918837	-0.431742	0.435850	2.164485	0.000000	0.047495	0.000000	-0.000174	-0.000690	0.000000	0.000000
52.605975	12.035688	25.251449	-0.786456	1.071887	2.199480	0.000000	0.110035	0.000000	-0.000480	-0.000698	0.000000	0.000000
53.046935	12.898146	24.042581	-1.177095	1.659152	2.262309	0.000000	0.173836	0.000000	-0.000791	-0.000714	0.000000	0.000000
53.487895	14.127414	22.347241	-1.621505	2.170926	2.353690	0.000000	0.239624	0.000000	-0.001111	-0.000739	0.000000	0.000000
53.933855	15.800661	20.217239	-2.144261	2.585240	2.476181	0.000000	0.308546	0.000000	-0.001448	-0.000772	0.000000	0.000000
54.482915	17.954428	17.820038	-1.755614	1.806641	2.625669	0.000000	0.233749	0.000000	-0.001858	-0.000719	0.000000	0.000000
55.031975	19.610391	16.202569	-1.242983	1.156721	2.732853	0.000000	0.154794	0.000000	-0.002235	-0.000652	0.000000	0.000000
55.581035	20.651609	15.249616	-0.642575	0.589191	2.795827	0.000000	0.073083	0.000000	-0.002572	-0.000574	0.000000	0.000000
56.130095	21.004564	14.893297	0.003205	0.063626	2.813468	0.000000	-0.009933	0.000000	-0.002864	-0.000486	0.000000	0.000000
56.428668	21.040454	14.837504	-0.067239	0.083307	2.812897	0.000000	-0.002407	0.000000	-0.003011	-0.000494	0.000000	0.000000
56.762001	21.090585	14.789507	-0.083153	0.060685	2.812259	0.000000	-0.002407	0.000000	-0.003176	-0.000494	0.000000	0.000000
57.095334	21.151325	14.756591	-0.099067	0.038064	2.811621	0.000000	-0.002407	0.000000	-0.003341	-0.000494	0.000000	0.000000
57.429918	21.222962	14.738717	-0.115041	0.015357	2.810981	0.000000	-0.002407	0.000000	-0.003506	-0.000494	0.000000	0.000000
57.727240	21.295600	14.735578	-0.186563	0.034743	2.810413	0.000000	0.005158	0.000000	-0.003653	-0.000504	0.000000	0.000000
58.276300	21.136458	14.979946	0.474437	-0.482459	2.790698	0.000000	-0.077723	0.000000	-0.003896	-0.000381	0.000000	0.000000
58.825360	20.265735	15.807651	1.101922	-1.034020	2.725722	0.000000	-0.159232	0.000000	-0.004070	-0.000252	0.000000	0.000000
59.374420	18.744927	17.277640	1.651581	-1.659223	2.616635	0.000000	-0.237921	0.000000	-0.004172	-0.000119	0.000000	0.000000
59.923480	16.681435	19.494602	2.084599	-2.402593	2.465371	0.000000	-0.312393	0.000000	-0.004200	0.000017	0.000000	0.000000
60.369440	15.065111	21.464824	1.552709	-1.996839	2.341440	0.000000	-0.243786	0.000000	-0.004217	-0.000092	0.000000	0.000000
60.810400	13.901624	23.013264	1.095931	-1.501533	2.248526	0.000000	-0.178340	0.000000	-0.004282	-0.000202	0.000000	0.000000
61.251360	13.117425	24.093006	0.689216	-0.937917	2.184043	0.000000	-0.114922	0.000000	-0.004395	-0.000314	0.000000	0.000000
61.692320	12.676693	24.654929	0.313986	-0.331634	2.147257	0.000000	-0.052810	0.000000	-0.004559	-0.000429	0.000000	0.000000
62.134530	12.559339	24.672891	-0.014825	0.226674	2.137757	0.000000	0.003228	0.000000	-0.004775	-0.000537	0.000000	0.000000
62.431853	12.575194	24.541867	-0.038503	0.214004	2.138877	0.000000	0.003228	0.000000	-0.004935	-0.000537	0.000000	0.000000
62.765186	12.609712	24.403933	-0.065050	0.199800	2.140132	0.000000	0.003228	0.000000	-0.005114	-0.000537	0.000000	0.000000
63.098520	12.661927	24.275468	-0.091596	0.185595	2.141387	0.000000	0.003228	0.000000	-0.005293	-0.000537	0.000000	0.000000
63.433103	12.732136	24.156044	-0.118243	0.171338	2.142647	0.000000	0.003228	0.000000	-0.005473	-0.000537	0.000000	0.000000
63.730426	12.809477	24.057948	-0.108861	0.096393	2.143766	0.000000	-0.002304	0.000000	-0.005633	-0.000523	0.000000	0.000000
64.171386	13.067794	23.708105	-0.479436	0.694020	2.156598	0.000000	0.059407	0.000000	-0.005896	-0.000672	0.000000	0.000000
64.612346	13.661253	22.843212	-0.871904	1.260072	2.196829	0.000000	0.121802	0.000000	-0.006227	-0.000828	0.000000	0.000000
65.053306	14.616949	21.502623	-1.304188	1.768799	2.264921	0.000000	0.185593	0.000000	-0.006628	-0.000994	0.000000	0.000000
65.494266	15.978519	19.747330	-1.796032	2.197059	2.361653	0.000000	0.251508	0.000000	-0.007105	-0.001171	0.000000	0.000000
65.940226	17.831430	17.632348	-2.374432	2.525955	2.489710	0.000000	0.320677	0.000000	-0.007669	-0.001362	0.000000	0.000000
66.489286	20.204166	15.266854	-1.922598	1.808224	2.645966	0.000000	0.245348	0.000000	-0.008347	-0.001103	0.000000	0.000000
67.038346	22.002908	13.614537	-1.335033	1.219263	2.759460	0.000000	0.165650	0.000000	-0.008876	-0.000824	0.000000	0.000000
67.587406	23.100695	12.557716	-0.653222	0.717129	2.828172	0.000000	0.083001	0.000000	-0.009249	-0.000530	0.000000	0.000000
68.136466	23.420047	12.021123	0.074700	0.266063	2.850878	0.000000	-0.001128	0.000000	-0.009457	-0.000227	0.000000	0.000000
68.435038	23.418550	11.850132	-0.003971	0.272865	2.853009	0.000000	0.006896	0.000000	-0.009532	-0.000253	0.000000	0.000000
68.768372	23.425942	11.678296	-0.018205	0.242642	2.855392	0.000000	0.006896	0.000000	-0.009617	-0.000253	0.000000	0.000000
69.101705	23.442824	11.526609	-0.032439	0.212418	2.857775	0.000000	0.006896	0.000000	-0.009701	-0.000253	0.000000	0.000000
69.436288	23.469311	11.394616	-0.046726	0.182082	2.860167	0.000000	0.006896	0.000000	-0.009786	-0.000253	0.000000	0.000000
69.733611	23.500938	11.294325	-0.125765	0.186964	2.862297	0.000000	0.014976	0.000000	-0.009861	-0.000280	0.000000	0.000000
70.282671	23.235478	11.315457	0.606374	-0.225684	2.847332	0.000000	-0.069647	0.000000	-0.009927	0.000041	0.000000	0.000000
