#ParticleID	Turn	x[m]	xp	y[m]	yp	z[m]	dE[GeV]# s	beta_x	beta_y	alpha_x	alpha_y	D_x	D_y	D_px	D_py	orbit_x	orbit_px	orbit_y	orbit_py
0.300000	11.964678	25.325228	-0.019464	-0.021823	2.598602	0.000000	0.000237	0.000000	-0.000948	0.000820	0.000000	0.000000
0.601250	11.983993	25.341961	-0.044652	-0.033724	2.598427	0.000000	0.000237	0.000000	-0.000701	0.000820	0.000000	0.000000
0.898573	12.017936	25.365507	-0.039913	-0.107644	2.598253	0.000000	-0.006162	0.000000	-0.000457	0.000822	0.000000	0.000000
1.339533	12.207060	25.178919	-0.390323	0.529178	2.611369	0.000000	0.067278	0.000000	-0.000097	0.000814	0.000000	0.000000
1.780493	12.711891	24.439213	-0.758573	1.141925	2.657006	0.000000	0.141476	0.000000	0.000263	0.000817	0.000000	0.000000
2.221453	13.555502	23.180039	-1.161487	1.702719	2.735681	0.000000	0.217276	0.000000	0.000625	0.000828	0.000000	0.000000
2.662413	14.776446	21.458681	-1.617474	2.186041	2.848287	0.000000	0.295543	0.000000	0.000994	0.000849	0.000000	0.000000
3.108373	16.451602	19.328233	-2.151745	2.571072	2.997948	0.000000	0.377657	0.000000	0.001379	0.000880	0.000000	0.000000
3.657433	18.598887	16.935006	-1.735419	1.813326	3.179806	0.000000	0.285417	0.000000	0.001849	0.000827	0.000000	0.000000
4.206493	20.218558	15.298499	-1.196486	1.184742	3.309587	0.000000	0.188128	0.000000	0.002285	0.000760	0.000000	0.000000
4.755553	21.196177	14.302152	-0.573015	0.640546	3.384995	0.000000	0.087514	0.000000	0.002681	0.000680	0.000000	0.000000
5.304613	21.462661	13.875005	0.090950	0.141975	3.404699	0.000000	-0.014642	0.000000	0.003030	0.000587	0.000000	0.000000
5.603185	21.445134	13.775832	0.022377	0.154989	3.402738	0.000000	-0.005973	0.000000	0.003207	0.000595	0.000000	0.000000
5.936519	21.435400	13.680765	0.006825	0.130210	3.400548	0.000000	-0.005973	0.000000	0.003406	0.000595	0.000000	0.000000
6.269852	21.436033	13.602218	-0.008726	0.105432	3.398358	0.000000	-0.005973	0.000000	0.003604	0.000595	0.000000	0.000000
6.604435	21.447095	13.539987	-0.024336	0.080561	3.396161	0.000000	-0.005973	0.000000	0.003803	0.000595	0.000000	0.000000
6.901758	21.465701	13.498647	-0.092401	0.092658	3.394208	0.000000	0.002596	0.000000	0.003980	0.000605	0.000000	0.000000
7.450818	21.201113	13.658746	0.571740	-0.385949	3.367390	0.000000	-0.099108	0.000000	0.004276	0.000472	0.000000	0.000000
7.999878	20.225084	14.356370	1.195499	-0.892051	3.285202	0.000000	-0.199047	0.000000	0.004497	0.000330	0.000000	0.000000
8.548938	18.606562	15.641221	1.734805	-1.461702	3.149105	0.000000	-0.295449	0.000000	0.004637	0.000182	0.000000	0.000000
9.097998	16.459896	17.604829	2.151552	-2.135481	2.961516	0.000000	-0.386607	0.000000	0.004695	0.000030	0.000000	0.000000
9.543958	14.785121	19.354255	1.617048	-1.770514	2.807233	0.000000	-0.305475	0.000000	0.004736	0.000153	0.000000	0.000000
9.984918	13.564750	20.725153	1.160884	-1.326337	2.689555	0.000000	-0.228323	0.000000	0.004831	0.000276	0.000000	0.000000
10.425878	12.721896	21.676083	0.757767	-0.821804	2.605240	0.000000	-0.153774	0.000000	0.004980	0.000402	0.000000	0.000000
10.866838	12.218045	22.163769	0.389275	-0.279873	2.553329	0.000000	-0.080981	0.000000	0.005186	0.000534	0.000000	0.000000
11.309048	12.030018	22.165440	0.066423	0.223011	2.533207	0.000000	-0.015004	0.000000	0.005452	0.000658	0.000000	0.000000
11.606371	11.997901	22.037013	0.041599	0.208930	2.528551	0.000000	-0.015004	0.000000	0.005648	0.000658	0.000000	0.000000
12.086371	11.977203	21.847352	0.001522	0.186198	2.521033	0.000000	-0.015004	0.000000	0.005963	0.000658	0.000000	0.000000
12.566371	11.994978	21.679513	-0.038554	0.163466	2.513515	0.000000	-0.015004	0.000000	0.006279	0.000658	0.000000	0.000000
13.046371	12.051227	21.533497	-0.078630	0.140733	2.505997	0.000000	-0.015004	0.000000	0.006595	0.000658	0.000000	0.000000
13.526371	12.145948	21.409305	-0.118706	0.118001	2.498480	0.000000	-0.015004	0.000000	0.006910	0.000658	0.000000	0.000000
14.007621	12.279540	21.306697	-0.158887	0.095210	2.490942	0.000000	-0.015004	0.000000	0.007227	0.000658	0.000000	0.000000
14.304943	12.381382	21.254302	-0.155522	0.032927	2.486284	0.000000	-0.020665	0.000000	0.007422	0.000640	0.000000	0.000000
14.745903	12.677327	20.992791	-0.517826	0.557802	2.492392	0.000000	0.049813	0.000000	0.007747	0.000836	0.000000	0.000000
15.186863	13.302063	20.277795	-0.903802	1.057295	2.529590	0.000000	0.120850	0.000000	0.008161	0.001041	0.000000	0.000000
15.627823	14.284155	19.141846	-1.331094	1.508673	2.598298	0.000000	0.193252	0.000000	0.008667	0.001258	0.000000	0.000000
16.068783	15.668510	17.636629	-1.819234	1.891394	2.699295	0.000000	0.267842	0.000000	0.009272	0.001489	0.000000	0.000000
16.514743	17.542059	15.809029	-2.395479	2.188970	2.835422	0.000000	0.345960	0.000000	0.009991	0.001739	0.000000	0.000000
17.063803	19.947600	13.769177	-1.958268	1.547575	3.001005	0.000000	0.259225	0.000000	0.010855	0.001401	0.000000	0.000000
17.612863	21.793590	12.369420	-1.382642	1.016437	3.117817	0.000000	0.167914	0.000000	0.011526	0.001038	0.000000	0.000000
18.161923	22.949519	11.510043	-0.709281	0.557718	3.183794	0.000000	0.073640	0.000000	0.011992	0.000657	0.000000	0.000000
18.710983	23.333659	11.129827	0.014220	0.138735	3.197771	0.000000	-0.021930	0.000000	0.012245	0.000265	0.000000	0.000000
19.009556	23.361442	11.039758	-0.053107	0.137138	3.193359	0.000000	-0.014460	0.000000	0.012333	0.000295	0.000000	0.000000
19.342889	23.401616	10.958586	-0.067415	0.106376	3.188440	0.000000	-0.014460	0.000000	0.012432	0.000295	0.000000	0.000000
19.676223	23.451329	10.897923	-0.081724	0.075614	3.183522	0.000000	-0.014460	0.000000	0.012530	0.000295	0.000000	0.000000
20.010806	23.511113	10.857520	-0.212574	0.098532	3.178605	0.000000	0.001289	0.000000	0.012629	0.000357	0.000000	0.000000
20.308129	23.641561	10.807098	-0.280744	0.096066	3.178889	0.000000	0.008678	0.000000	0.012735	0.000389	0.000000	0.000000
20.857189	23.542304	10.921179	0.460539	-0.305030	3.157487	0.000000	-0.086162	0.000000	0.012835	-0.000025	0.000000	0.000000
21.406249	22.641859	11.485071	1.169273	-0.727860	3.084564	0.000000	-0.179473	0.000000	0.012707	-0.000439	0.000000	0.000000
21.955309	21.003883	12.538950	1.795362	-1.202551	2.961412	0.000000	-0.269606	0.000000	0.012354	-0.000845	0.000000	0.000000
22.504369	18.744178	14.157896	2.294549	-1.762924	2.790214	0.000000	-0.354970	0.000000	0.011782	-0.001236	0.000000	0.000000
22.950329	16.965389	15.612391	1.706832	-1.484167	2.649571	0.000000	-0.278073	0.000000	0.011297	-0.000937	0.000000	0.000000
23.391289	15.687154	16.773671	1.202092	-1.138918	2.543522	0.000000	-0.204825	0.000000	0.010947	-0.000650	0.000000	0.000000
23.832249	14.828371	17.606305	0.752304	-0.741834	2.469115	0.000000	-0.133903	0.000000	0.010723	-0.000371	0.000000	0.000000
24.273209	14.349772	18.072403	0.336907	-0.310988	2.425505	0.000000	-0.064504	0.000000	0.010620	-0.000096	0.000000	0.000000
24.715418	14.229603	18.150457	-0.031890	0.093988	2.412196	0.000000	-0.001142	0.000000	0.010638	0.000154	0.000000	0.000000
25.012741	14.254784	18.099481	-0.052805	0.077462	2.411811	0.000000	-0.001142	0.000000	0.010684	0.000154	0.000000	0.000000
25.346075	14.297804	18.054016	-0.076255	0.058935	2.411379	0.000000	-0.001142	0.000000	0.010735	0.000154	0.000000	0.000000
25.679408	14.356457	18.020902	-0.099704	0.040407	2.410947	0.000000	-0.001142	0.000000	0.010786	0.000154	0.000000	0.000000
26.013991	14.430758	18.000449	-0.006169	-0.124218	2.410489	0.000000	-0.020697	0.000000	0.010837	0.000066	0.000000	0.000000
26.311314	14.440503	18.079364	0.004901	-0.180635	2.404312	0.000000	-0.025971	0.000000	0.010857	0.000040	0.000000	0.000000
26.752274	14.614715	18.042838	-0.401338	0.263140	2.407847	0.000000	0.042366	0.000000	0.010937	0.000321	0.000000	0.000000
27.193234	15.154015	17.618682	-0.825925	0.694940	2.441477	0.000000	0.111182	0.000000	0.011141	0.000606	0.000000	0.000000
27.634194	16.083063	16.826196	-1.288270	1.095113	2.505585	0.000000	0.181259	0.000000	0.011472	0.000898	0.000000	0.000000
28.075154	17.444345	15.701443	-1.809511	1.445444	2.600897	0.000000	0.253391	0.000000	0.011934	0.001199	0.000000	0.000000
28.521114	19.324021	14.278493	-2.418644	1.731135	2.730113	0.000000	0.328880	0.000000	0.012540	0.001517	0.000000	0.000000
29.070174	21.714352	12.693903	-1.907492	1.171373	2.887420	0.000000	0.245687	0.000000	0.013259	0.001099	0.000000	0.000000
29.619234	23.465341	11.674932	-1.261504	0.695072	2.998006	0.000000	0.158152	0.000000	0.013743	0.000661	0.000000	0.000000
30.168294	24.453185	11.148986	-0.526341	0.268296	3.059917	0.000000	0.067822	0.000000	0.013983	0.000212	0.000000	0.000000
30.717354	24.608036	11.078595	0.246027	-0.139362	3.072055	0.000000	-0.023708	0.000000	0.013975	-0.000241	0.000000	0.000000
31.015927	24.498464	11.154820	0.176973	-0.141192	3.067135	0.000000	-0.016657	0.000000	0.013913	-0.000207	0.000000	0.000000
31.349260	24.385160	11.259107	0.162940	-0.171670	3.061651	0.000000	-0.016657	0.000000	0.013844	-0.000207	0.000000	0.000000
31.682593	24.281210	11.383713	0.148908	-0.202148	3.056168	0.000000	-0.016657	0.000000	0.013775	-0.000207	0.000000	0.000000
32.017177	24.186279	11.529219	0.134823	-0.232741	3.050664	0.000000	-0.016657	0.000000	0.013706	-0.000207	0.000000	0.000000
32.314499	24.109960	11.675636	0.066773	-0.233063	3.045781	0.000000	-0.009641	0.000000	0.013645	-0.000173	0.000000	0.000000
32.863559	23.623834	12.170030	0.812924	-0.672515	3.015830	0.000000	-0.100030	0.000000	0.013429	-0.000612	0.000000	0.000000
33.412619	22.344904	13.170412	1.501606	-1.159885	2.936881	0.000000	-0.188654	0.000000	0.012975	-0.001040	0.000000	0.000000
33.961679	20.363602	14.748048	2.084140	-1.729898	2.810329	0.000000	-0.273947	0.000000	0.012290	-0.001449	0.000000	0.000000
34.510739	17.820014	17.015329	2.519353	-2.423163	2.638413	0.000000	-0.354403	0.000000	0.011388	-0.001833	0.000000	0.000000
34.956699	15.843897	19.043766	1.926004	-2.105505	2.497405	0.000000	-0.281456	0.000000	0.010635	-0.001547	0.000000	0.000000
35.397659	14.370957	20.725410	1.425864	-1.693013	2.389260	0.000000	-0.212162	0.000000	0.010012	-0.001281	0.000000	0.000000
35.838619	13.308936	22.007704	0.990908	-1.203472	2.311009	0.000000	-0.145271	0.000000	0.009503	-0.001029	0.000000	0.000000
36.279579	12.609270	22.832299	0.601251	-0.659162	2.261763	0.000000	-0.080024	0.000000	0.009102	-0.000789	0.000000	0.000000
36.721789	12.239328	23.161966	0.266429	-0.136691	2.240945	0.000000	-0.020707	0.000000	0.008805	-0.000579	0.000000	0.000000
37.019112	12.088633	23.247137	0.240412	-0.149768	2.234960	0.000000	-0.020707	0.000000	0.008632	-0.000579	0.000000	0.000000
37.352445	11.938081	23.351869	0.211244	-0.164428	2.228251	0.000000	-0.020707	0.000000	0.008439	-0.000579	0.000000	0.000000
37.685779	11.806974	23.466374	0.182076	-0.179088	2.221542	0.000000	-0.020707	0.000000	0.008246	-0.000579	0.000000	0.000000
38.020362	11.694930	23.591137	0.152799	-0.193803	2.214807	0.000000	-0.020707	0.000000	0.008052	-0.000579	0.000000	0.000000
38.317684	11.611783	23.710313	0.153094	-0.260802	2.208821	0.000000	-0.025712	0.000000	0.007880	-0.000598	0.000000	0.000000
38.758644	11.625531	23.677565	-0.184550	0.334778	2.211645	0.000000	0.037569	0.000000	0.007661	-0.000398	0.000000	0.000000
39.199604	11.939693	23.124244	-0.530626	0.915121	2.242361	0.000000	0.101283	0.000000	0.007529	-0.000202	0.000000	0.000000
39.640564	12.568626	22.075534	-0.900951	1.453817	2.301321	0.000000	0.166153	0.000000	0.007483	-0.000008	0.000000	0.000000
40.081524	13.541076	20.579160	-1.312451	1.926351	2.389195	0.000000	0.232915	0.000000	0.007522	0.000185	0.000000	0.000000
40.527484	14.919052	18.680475	-1.787878	2.312714	2.508472	0.000000	0.302759	0.000000	0.007648	0.000382	0.000000	0.000000
41.076544	16.680218	16.546291	-1.400261	1.596782	2.653989	0.000000	0.226956	0.000000	0.007789	0.000132	0.000000	0.000000
41.625604	17.958434	15.131654	-0.913702	0.994611	2.756846	0.000000	0.147129	0.000000	0.007793	-0.000121	0.000000	0.000000
42.174664	18.663373	14.335784	-0.362585	0.463299	2.815219	0.000000	0.064689	0.000000	0.007657	-0.000371	0.000000	0.000000
42.723724	18.745224	14.101979	0.214145	-0.035003	2.828068	0.000000	-0.018904	0.000000	0.007386	-0.000615	0.000000	0.000000
43.022297	18.649608	14.108536	0.151882	-0.021529	2.824667	0.000000	-0.011982	0.000000	0.007208	-0.000596	0.000000	0.000000
43.502297	18.516440	14.145543	0.125550	-0.055567	2.819201	0.000000	-0.011982	0.000000	0.006922	-0.000596	0.000000	0.000000
43.982297	18.408551	14.215225	0.099219	-0.089605	2.813736	0.000000	-0.011982	0.000000	0.006636	-0.000596	0.000000	0.000000
44.462297	18.325940	14.317584	0.072887	-0.123643	2.808271	0.000000	-0.011982	0.000000	0.006350	-0.000596	0.000000	0.000000
44.942297	18.268607	14.452619	0.046556	-0.157680	2.802806	0.000000	-0.011982	0.000000	0.006064	-0.000596	0.000000	0.000000
45.423547	18.236728	14.620629	-0.070199	-0.119367	2.797343	0.000000	0.001878	0.000000	0.005778	-0.000567	0.000000	0.000000
45.720870	18.283360	14.697728	-0.132077	-0.103539	2.798072	0.000000	0.008840	0.000000	0.005609	-0.000553	0.000000	0.000000
46.269930	18.120255	15.095401	0.427023	-0.624958	2.780577	0.000000	-0.073701	0.000000	0.005256	-0.000729	0.000000	0.000000
46.818990	17.356119	16.086634	0.955940	-1.190896	2.718138	0.000000	-0.154946	0.000000	0.004811	-0.000892	0.000000	0.000000
47.368050	16.044962	17.742028	1.417305	-1.841665	2.611857	0.000000	-0.233457	0.000000	0.004280	-0.001039	0.000000	0.000000
47.917110	14.279442	20.179490	1.778523	-2.623622	2.463611	0.000000	-0.307844	0.000000	0.003673	-0.001168	0.000000	0.000000
48.363070	12.904408	22.346038	1.315127	-2.213916	2.342169	0.000000	-0.239214	0.000000	0.003172	-0.001079	0.000000	0.000000
48.804030	11.924242	24.080737	0.915641	-1.704862	2.251654	0.000000	-0.173707	0.000000	0.002713	-0.001004	0.000000	0.000000
49.244990	11.276716	25.330411	0.558001	-1.118235	2.189536	0.000000	-0.110168	0.000000	0.002285	-0.000939	0.000000	0.000000
49.685950	10.932232	26.038205	0.225863	-0.480730	2.155112	0.000000	-0.047874	0.000000	0.001883	-0.000886	0.000000	0.000000
50.128160	10.875216	26.171633	-0.069775	0.115645	2.148006	0.000000	0.008692	0.000000	0.001501	-0.000846	0.000000	0.000000
50.425482	10.924876	26.106288	-0.097248	0.104133	2.150842	0.000000	0.008692	0.000000	0.001250	-0.000846	0.000000	0.000000
50.758816	10.999975	26.041169	-0.128048	0.091226	2.154021	0.000000	0.008692	0.000000	0.000968	-0.000846	0.000000	0.000000
51.092149	11.095607	25.984654	-0.158848	0.078319	2.157200	0.000000	0.008692	0.000000	0.000686	-0.000846	0.000000	0.000000
51.426732	11.212019	25.937106	-0.098804	-0.145051	2.160369	0.000000	-0.008834	0.000000	0.000403	-0.000849	0.000000	0.000000
51.724055	11.278734	26.026839	-0.097962	-0.220805	2.157995	0.000000	-0.014119	0.000000	0.000151	-0.000849	0.000000	0.000000
52.165015	11.511958	25.931847	-0.433221	0.435406	2.165800	0.000000	0.047904	0.000000	-0.000223	-0.000850	0.000000	0.000000
52.605975	12.048421	25.264693	-0.788266	1.071803	2.201052	0.000000	0.110481	0.000000	-0.000600	-0.000861	0.000000	0.000000
53.046935	12.912623	24.055740	-1.179318	1.659432	2.264157	0.000000	0.174326	0.000000	-0.000984	-0.000881	0.000000	0.000000
53.487895	14.144037	22.360002	-1.624240	2.171557	2.355837	0.000000	0.240166	0.000000	-0.001379	-0.000912	0.000000	0.000000
53.933855	15.819959	20.229299	-2.147629	2.586187	2.478659	0.000000	0.309146	0.000000	-0.001794	-0.000953	0.000000	0.000000
54.482915	17.977131	17.831276	-1.758515	1.807223	2.628545	0.000000	0.234264	0.000000	-0.002300	-0.000886	0.000000	0.000000
55.031975	19.635869	16.213358	-1.245216	1.156981	2.736069	0.000000	0.155212	0.000000	-0.002764	-0.000804	0.000000	0.000000
55.581035	20.679048	15.260297	-0.643988	0.589144	2.799318	0.000000	0.073394	0.000000	-0.003180	-0.000708	0.000000	0.000000
56.130095	21.033014	14.904200	0.002707	0.063271	2.817164	0.000000	-0.009737	0.000000	-0.003540	-0.000599	0.000000	0.000000
56.428668	21.069422	14.848456	-0.068101	0.083236	2.816700	0.000000	-0.002160	0.000000	-0.003721	-0.000609	0.000000	0.000000
56.762001	21.120120	14.800500	-0.083995	0.060632	2.816183	0.000000	-0.002160	0.000000	-0.003924	-0.000609	0.000000	0.000000
57.095334	21.181415	14.767614	-0.099889	0.038027	2.815665	0.000000	-0.002160	0.000000	-0.004127	-0.000609	0.000000	0.000000
57.429918	21.253596	14.749759	-0.115843	0.015338	2.815146	0.000000	-0.002160	0.000000	-0.004331	-0.000609	0.000000	0.000000
57.727240	21.326709	14.746624	-0.187822	0.035015	2.814686	0.000000	0.005468	0.000000	-0.004512	-0.000621	0.000000	0.000000
58.276300	21.168348	14.990864	0.474225	-0.482503	2.795157	0.000000	-0.077552	0.000000	-0.004811	-0.000470	0.000000	0.000000
58.825360	20.297259	15.818780	1.102773	-1.034383	2.730275	0.000000	-0.159205	0.000000	-0.005026	-0.000310	0.000000	0.000000
59.374420	18.774965	17.289331	1.653436	-1.659927	2.621187	0.000000	-0.238040	0.000000	-0.005151	-0.000145	0.000000	0.000000
59.923480	16.708966	19.507243	2.087332	-2.403685	2.469826	0.000000	-0.312655	0.000000	-0.005185	0.000022	0.000000	0.000000
60.369440	15.090528	21.478299	1.554747	-1.997631	2.345807	0.000000	-0.243938	0.000000	-0.005205	-0.000113	0.000000	0.000000
60.810400	13.925533	23.027261	1.097349	-1.501969	2.252866	0.000000	-0.178381	0.000000	-0.005284	-0.000248	0.000000	0.000000
61.251360	13.140334	24.107208	0.690077	-0.937980	2.188415	0.000000	-0.114854	0.000000	-0.005424	-0.000386	0.000000	0.000000
61.692320	12.699066	24.669012	0.314329	-0.331321	2.151721	0.000000	-0.052630	0.000000	-0.005625	-0.000528	0.000000	0.000000
62.134530	12.581619	24.686529	-0.014610	0.226736	2.142375	0.000000	0.003459	0.000000	-0.005892	-0.000662	0.000000	0.000000
62.431853	12.597335	24.555466	-0.038247	0.214073	2.143600	0.000000	0.003459	0.000000	-0.006088	-0.000662	0.000000	0.000000
62.765186	12.631666	24.417483	-0.064746	0.199876	2.144973	0.000000	0.003459	0.000000	-0.006309	-0.000662	0.000000	0.000000
63.098520	12.683663	24.288965	-0.091246	0.185679	2.146347	0.000000	0.003459	0.000000	-0.006530	-0.000662	0.000000	0.000000
63.433103	12.753621	24.169482	-0.117844	0.171429	2.147726	0.000000	0.003459	0.000000	-0.006751	-0.000662	0.000000	0.000000
63.730426	12.830706	24.071342	-0.107988	0.095704	2.148949	0.000000	-0.002151	0.000000	-0.006948	-0.000644	0.000000	0.000000
64.171386	13.088429	23.721955	-0.479017	0.693692	2.161937	0.000000	0.059694	0.000000	-0.007272	-0.000828	0.000000	0.000000
64.612346	13.681667	22.857204	-0.871916	1.260121	2.202398	0.000000	0.122227	0.000000	-0.007679	-0.001020	0.000000	0.000000
65.053306	14.637505	21.516433	-1.304628	1.769224	2.270799	0.000000	0.186164	0.000000	-0.008174	-0.001225	0.000000	0.000000
65.494266	15.999577	19.760645	-1.796914	2.197844	2.367920	0.000000	0.252233	0.000000	-0.008761	-0.001443	0.000000	0.000000
65.940226	17.853404	17.644837	-2.375745	2.527037	2.496463	0.000000	0.321562	0.000000	-0.009457	-0.001679	0.000000	0.000000
66.489286	20.227015	15.278420	-1.923137	1.808946	2.653292	0.000000	0.246009	0.000000	-0.010292	-0.001359	0.000000	0.000000
67.038346	22.025787	13.625532	-1.334776	1.219672	2.767199	0.000000	0.166073	0.000000	-0.010944	-0.001015	0.000000	0.000000
67.587406	23.122777	12.568453	-0.652199	0.717249	2.836155	0.000000	0.083175	0.000000	-0.011403	-0.000653	0.000000	0.000000
68.136466	23.440579	12.031900	0.076408	0.265901	2.858933	0.000000	-0.001209	0.000000	-0.011659	-0.000280	0.000000	0.000000
68.435038	23.438698	11.860666	-0.003377	0.273308	2.861101	0.000000	0.006969	0.000000	-0.011752	-0.000312	0.000000	0.000000
68.768372	23.445690	11.688529	-0.017599	0.243104	2.863528	0.000000	0.006969	0.000000	-0.011856	-0.000312	0.000000	0.000000
69.101705	23.462163	11.536527	-0.031820	0.212901	2.865955	0.000000	0.006969	0.000000	-0.011960	-0.000312	0.000000	0.000000
69.436288	23.488232	11.404205	-0.046095	0.182584	2.868390	0.000000	0.006969	0.000000	-0.012064	-0.000312	0.000000	0.000000
69.733611	23.519516	11.303593	-0.126288	0.188035	2.870561	0.000000	0.015208	0.000000	-0.012157	-0.000345	0.000000	0.000000
70.282671	23.254312	11.323679	0.606431	-0.224840	2.855666	0.000000	-0.069678	0.000000	-0.012238	0.000050	0.000000	0.000000
