#ParticleID	Turn	x[m]	xp	y[m]	yp	z[m]	dE[GeV]# s	beta_x	beta_y	alpha_x	alpha_y	D_x	D_y	D_px	D_py	orbit_x	orbit_px	orbit_y	orbit_py
0.300000	11.847210	24.978914	-0.014677	-0.027093	2.616538	0.000000	0.000031	0.000000	-0.000070	0.000061	0.000000	0.000000
0.601250	11.863715	24.998874	-0.040111	-0.039162	2.616529	0.000000	0.000031	0.000000	-0.000051	0.000061	0.000000	0.000000
0.898573	11.895030	25.025703	-0.036033	-0.112442	2.616519	0.000000	-0.006388	0.000000	-0.000033	0.000062	0.000000	0.000000
1.339533	12.079351	24.847290	-0.383533	0.515504	2.629961	0.000000	0.067528	0.000000	-0.000006	0.000061	0.000000	0.000000
1.780493	12.576679	24.123346	-0.748555	1.119995	2.676135	0.000000	0.142212	0.000000	0.000021	0.000061	0.000000	0.000000
2.221453	13.409736	22.886809	-1.147777	1.673527	2.755566	0.000000	0.218516	0.000000	0.000048	0.000062	0.000000	0.000000
2.662413	14.616582	21.193940	-1.599438	2.150914	2.869160	0.000000	0.297307	0.000000	0.000076	0.000064	0.000000	0.000000
3.108373	16.273207	19.096936	-2.128484	2.531570	3.020070	0.000000	0.379974	0.000000	0.000105	0.000066	0.000000	0.000000
3.657433	18.397438	16.741771	-1.717426	1.783192	3.203411	0.000000	0.286999	0.000000	0.000140	0.000062	0.000000	0.000000
4.206493	20.000586	15.134264	-1.185056	1.161827	3.334231	0.000000	0.188936	0.000000	0.000173	0.000057	0.000000	0.000000
4.755553	20.969411	14.159917	-0.568978	0.623216	3.410210	0.000000	0.087521	0.000000	0.000202	0.000051	0.000000	0.000000
5.304613	21.235477	13.749330	0.087292	0.128996	3.430002	0.000000	-0.015444	0.000000	0.000228	0.000044	0.000000	0.000000
5.603185	21.220622	13.657554	0.017839	0.142537	3.428048	0.000000	-0.006500	0.000000	0.000242	0.000045	0.000000	0.000000
5.936519	21.213967	13.570830	0.002126	0.117635	3.425867	0.000000	-0.006500	0.000000	0.000257	0.000045	0.000000	0.000000
6.269852	21.217787	13.500707	-0.013587	0.092733	3.423685	0.000000	-0.006500	0.000000	0.000272	0.000045	0.000000	0.000000
6.604435	21.232156	13.447017	-0.029359	0.067737	3.421496	0.000000	-0.006500	0.000000	0.000286	0.000045	0.000000	0.000000
6.901758	21.253781	13.413342	-0.098767	0.080492	3.419550	0.000000	0.002413	0.000000	0.000300	0.000045	0.000000	0.000000
7.450818	20.999890	13.585513	0.558463	-0.395915	3.392671	0.000000	-0.100100	0.000000	0.000322	0.000035	0.000000	0.000000
7.999878	20.041764	14.293161	1.176246	-0.900523	3.309917	0.000000	-0.200836	0.000000	0.000338	0.000025	0.000000	0.000000
8.548938	18.447081	15.586693	1.710944	-1.469274	3.172756	0.000000	-0.298010	0.000000	0.000349	0.000013	0.000000	0.000000
9.097998	16.328484	17.558245	2.124788	-2.142679	2.983621	0.000000	-0.389898	0.000000	0.000353	0.000002	0.000000	0.000000
9.543958	14.675411	19.315049	1.595152	-1.780032	2.828036	0.000000	-0.308236	0.000000	0.000356	0.000011	0.000000	0.000000
9.984918	13.472684	20.695072	1.142708	-1.337632	2.709346	0.000000	-0.230569	0.000000	0.000363	0.000021	0.000000	0.000000
10.425878	12.644537	21.656501	0.742472	-0.834369	2.624289	0.000000	-0.155529	0.000000	0.000374	0.000030	0.000000	0.000000
10.866838	12.153134	22.155592	0.376157	-0.293144	2.571895	0.000000	-0.082261	0.000000	0.000390	0.000040	0.000000	0.000000
11.309048	11.975883	22.169116	0.056178	0.207190	2.551549	0.000000	-0.016163	0.000000	0.000410	0.000049	0.000000	0.000000
11.606371	11.949882	22.050070	0.031273	0.193202	2.546729	0.000000	-0.016163	0.000000	0.000424	0.000049	0.000000	0.000000
12.086371	11.939159	21.875435	-0.008934	0.170621	2.538947	0.000000	-0.016163	0.000000	0.000448	0.000049	0.000000	0.000000
12.566371	11.967036	21.722477	-0.049141	0.148040	2.531165	0.000000	-0.016163	0.000000	0.000471	0.000049	0.000000	0.000000
13.046371	12.033511	21.591198	-0.089348	0.125459	2.523383	0.000000	-0.016163	0.000000	0.000495	0.000049	0.000000	0.000000
13.526371	12.138585	21.481597	-0.129555	0.102878	2.515601	0.000000	-0.016163	0.000000	0.000519	0.000049	0.000000	0.000000
14.007621	12.282682	21.393472	-0.169867	0.080238	2.507799	0.000000	-0.016163	0.000000	0.000542	0.000049	0.000000	0.000000
14.304943	12.391097	21.349918	-0.164546	0.014185	2.502979	0.000000	-0.022269	0.000000	0.000557	0.000048	0.000000	0.000000
14.745903	12.695037	21.103723	-0.527312	0.542002	2.508760	0.000000	0.048622	0.000000	0.000581	0.000063	0.000000	0.000000
15.186863	13.328287	20.401170	-0.914170	1.045159	2.545888	0.000000	0.120067	0.000000	0.000612	0.000078	0.000000	0.000000
15.627823	14.319781	19.274222	-1.342796	1.500761	2.614785	0.000000	0.192878	0.000000	0.000650	0.000094	0.000000	0.000000
16.068783	15.714820	17.774157	-1.832773	1.888078	2.716234	0.000000	0.267884	0.000000	0.000695	0.000112	0.000000	0.000000
16.514743	17.600790	15.947729	-2.411260	2.190250	2.853086	0.000000	0.346406	0.000000	0.000749	0.000130	0.000000	0.000000
17.063803	20.022644	13.908302	-1.973425	1.546030	3.019505	0.000000	0.259114	0.000000	0.000814	0.000105	0.000000	0.000000
17.612863	21.883834	12.512052	-1.396189	1.011932	3.136675	0.000000	0.167229	0.000000	0.000864	0.000078	0.000000	0.000000
18.161923	23.052886	11.659527	-0.720328	0.549914	3.202518	0.000000	0.072378	0.000000	0.000899	0.000049	0.000000	0.000000
18.710983	23.447219	11.290001	0.006416	0.127065	3.215868	0.000000	-0.023756	0.000000	0.000918	0.000020	0.000000	0.000000
19.009556	23.483501	11.204737	-0.067146	0.129241	3.211258	0.000000	-0.015419	0.000000	0.000925	0.000022	0.000000	0.000000
19.342889	23.533018	11.128658	-0.081405	0.098995	3.206111	0.000000	-0.015419	0.000000	0.000932	0.000022	0.000000	0.000000
19.676223	23.592041	11.072743	-0.095663	0.068749	3.200964	0.000000	-0.015419	0.000000	0.000939	0.000022	0.000000	0.000000
20.010806	23.661137	11.036760	-0.227205	0.093072	3.195817	0.000000	0.000415	0.000000	0.000947	0.000027	0.000000	0.000000
20.308129	23.800173	10.989494	-0.302106	0.094387	3.195933	0.000000	0.008699	0.000000	0.000955	0.000029	0.000000	0.000000
20.857189	23.721456	11.108153	0.444631	-0.311773	3.174492	0.000000	-0.086658	0.000000	0.000962	-0.000002	0.000000	0.000000
21.406249	22.835175	11.682334	1.159960	-0.740140	3.101055	0.000000	-0.180478	0.000000	0.000953	-0.000033	0.000000	0.000000
21.955309	21.203934	12.752937	1.793352	-1.221227	2.976924	0.000000	-0.271097	0.000000	0.000926	-0.000063	0.000000	0.000000
22.504369	18.942965	14.396219	2.300064	-1.789301	2.804302	0.000000	-0.356909	0.000000	0.000884	-0.000093	0.000000	0.000000
22.950329	17.161507	15.871500	1.708622	-1.504813	2.662458	0.000000	-0.279717	0.000000	0.000847	-0.000070	0.000000	0.000000
23.391289	15.883756	17.047858	1.199964	-1.152726	2.555456	0.000000	-0.206168	0.000000	0.000821	-0.000049	0.000000	0.000000
23.832249	15.028831	17.889298	0.746132	-0.748190	2.480330	0.000000	-0.134966	0.000000	0.000804	-0.000028	0.000000	0.000000
24.273209	14.557671	18.357533	0.326390	-0.309611	2.436223	0.000000	-0.065302	0.000000	0.000797	-0.000007	0.000000	0.000000
24.715418	14.448856	18.431014	-0.043362	0.098126	2.422632	0.000000	-0.002277	0.000000	0.000798	0.000012	0.000000	0.000000
25.012741	14.480770	18.377506	-0.063978	0.081839	2.421952	0.000000	-0.002277	0.000000	0.000802	0.000012	0.000000	0.000000
25.346075	14.531127	18.329034	-0.087091	0.063579	2.421189	0.000000	-0.002277	0.000000	0.000806	0.000012	0.000000	0.000000
25.679408	14.596892	18.292734	-0.110205	0.045319	2.420426	0.000000	-0.002277	0.000000	0.000809	0.000012	0.000000	0.000000
26.013991	14.678102	18.268911	-0.014326	-0.121215	2.419636	0.000000	-0.021907	0.000000	0.000813	0.000005	0.000000	0.000000
26.311314	14.692645	18.345901	0.001166	-0.182370	2.413121	0.000000	-0.027779	0.000000	0.000815	0.000003	0.000000	0.000000
26.752274	14.872718	18.307741	-0.411071	0.268579	2.415974	0.000000	0.040759	0.000000	0.000821	0.000024	0.000000	0.000000
27.193234	15.423236	17.875765	-0.842090	0.707308	2.449115	0.000000	0.109760	0.000000	0.000836	0.000045	0.000000	0.000000
27.634194	16.369354	17.069628	-1.311583	1.113854	2.512920	0.000000	0.180011	0.000000	0.000861	0.000067	0.000000	0.000000
28.075154	17.754298	15.926010	-1.841002	1.469720	2.608115	0.000000	0.252311	0.000000	0.000896	0.000090	0.000000	0.000000
28.521114	19.665425	14.479715	-2.459503	1.759643	2.737389	0.000000	0.327931	0.000000	0.000941	0.000114	0.000000	0.000000
29.070174	22.094572	12.868158	-1.938379	1.192762	2.894730	0.000000	0.244535	0.000000	0.000995	0.000082	0.000000	0.000000
29.619234	23.872409	11.829085	-1.280329	0.710840	3.005039	0.000000	0.156803	0.000000	0.001031	0.000050	0.000000	0.000000
30.168294	24.873351	11.288484	-0.531838	0.279551	3.066359	0.000000	0.066290	0.000000	0.001049	0.000016	0.000000	0.000000
30.717354	25.026689	11.207849	0.254221	-0.131826	3.077602	0.000000	-0.025398	0.000000	0.001049	-0.000018	0.000000	0.000000
31.015927	24.917275	11.277271	0.177049	-0.129718	3.072403	0.000000	-0.017428	0.000000	0.001044	-0.000015	0.000000	0.000000
31.349260	24.803841	11.373768	0.163252	-0.159773	3.066599	0.000000	-0.017428	0.000000	0.001039	-0.000015	0.000000	0.000000
31.682593	24.699605	11.490302	0.149455	-0.189828	3.060795	0.000000	-0.017428	0.000000	0.001034	-0.000015	0.000000	0.000000
32.017177	24.604229	11.627423	0.135606	-0.219996	3.054969	0.000000	-0.017428	0.000000	0.001029	-0.000015	0.000000	0.000000
32.314499	24.527251	11.766213	0.059766	-0.216329	3.049792	0.000000	-0.009528	0.000000	0.001024	-0.000013	0.000000	0.000000
32.863559	24.041507	12.243089	0.819647	-0.657316	3.019691	0.000000	-0.100010	0.000000	0.001008	-0.000046	0.000000	0.000000
33.412619	22.748310	13.226943	1.521629	-1.145124	2.940341	0.000000	-0.188718	0.000000	0.000974	-0.000078	0.000000	0.000000
33.961679	20.739011	14.787855	2.116124	-1.714499	2.813149	0.000000	-0.274080	0.000000	0.000923	-0.000108	0.000000	0.000000
34.510739	18.155550	17.037006	2.561139	-2.405996	2.640371	0.000000	-0.354583	0.000000	0.000855	-0.000137	0.000000	0.000000
34.956699	16.147129	19.048736	1.958484	-2.086135	2.498638	0.000000	-0.281642	0.000000	0.000799	-0.000116	0.000000	0.000000
35.397659	14.649626	20.712325	1.450322	-1.672120	2.389873	0.000000	-0.212339	0.000000	0.000752	-0.000096	0.000000	0.000000
35.838619	13.569488	21.975709	1.008425	-1.182023	2.311097	0.000000	-0.145454	0.000000	0.000714	-0.000077	0.000000	0.000000
36.279579	12.857363	22.781404	0.612602	-0.638144	2.261416	0.000000	-0.080224	0.000000	0.000684	-0.000059	0.000000	0.000000
36.721789	12.480027	23.093055	0.275074	-0.121547	2.240235	0.000000	-0.021367	0.000000	0.000662	-0.000043	0.000000	0.000000
37.019112	12.324075	23.169217	0.249448	-0.134612	2.233895	0.000000	-0.021367	0.000000	0.000649	-0.000043	0.000000	0.000000
37.352445	12.167353	23.263841	0.220717	-0.149260	2.226787	0.000000	-0.021367	0.000000	0.000635	-0.000043	0.000000	0.000000
37.685779	12.029785	23.368230	0.191987	-0.163907	2.219680	0.000000	-0.021367	0.000000	0.000621	-0.000043	0.000000	0.000000
38.020362	11.910962	23.482830	0.163149	-0.178610	2.212545	0.000000	-0.021367	0.000000	0.000606	-0.000043	0.000000	0.000000
38.317684	11.821566	23.592924	0.166350	-0.249222	2.206205	0.000000	-0.026747	0.000000	0.000593	-0.000045	0.000000	0.000000
38.758644	11.825732	23.551401	-0.175846	0.343029	2.208357	0.000000	0.036447	0.000000	0.000577	-0.000030	0.000000	0.000000
39.199604	12.134080	22.992469	-0.526075	0.919672	2.238435	0.000000	0.100056	0.000000	0.000567	-0.000015	0.000000	0.000000
39.640564	12.760698	21.941560	-0.900339	1.454469	2.296779	0.000000	0.164804	0.000000	0.000564	-0.000000	0.000000	0.000000
40.081524	13.734215	20.446490	-1.315738	1.923089	2.384056	0.000000	0.231430	0.000000	0.000567	0.000014	0.000000	0.000000
40.527484	15.116662	18.552704	-1.795082	2.305502	2.502731	0.000000	0.301099	0.000000	0.000577	0.000029	0.000000	0.000000
41.076544	16.881379	16.424602	-1.399925	1.593245	2.647505	0.000000	0.225511	0.000000	0.000588	0.000010	0.000000	0.000000
41.625604	18.154955	15.012115	-0.905882	0.994474	2.749625	0.000000	0.145923	0.000000	0.000588	-0.000009	0.000000	0.000000
42.174664	18.847429	14.214632	-0.347850	0.466538	2.807281	0.000000	0.063747	0.000000	0.000578	-0.000028	0.000000	0.000000
42.723724	18.909887	13.975351	0.234752	-0.028167	2.819449	0.000000	-0.019560	0.000000	0.000558	-0.000046	0.000000	0.000000
43.022297	18.803948	13.976842	0.169242	-0.013179	2.815811	0.000000	-0.012228	0.000000	0.000545	-0.000045	0.000000	0.000000
43.502297	18.654079	14.005981	0.142984	-0.047528	2.809963	0.000000	-0.012228	0.000000	0.000523	-0.000045	0.000000	0.000000
43.982297	18.529418	14.068095	0.116727	-0.081876	2.804115	0.000000	-0.012228	0.000000	0.000502	-0.000045	0.000000	0.000000
44.462297	18.429964	14.163183	0.090469	-0.116225	2.798267	0.000000	-0.012228	0.000000	0.000481	-0.000045	0.000000	0.000000
44.942297	18.355717	14.291246	0.064211	-0.150573	2.792418	0.000000	-0.012228	0.000000	0.000459	-0.000045	0.000000	0.000000
45.423547	18.306810	14.452567	-0.052817	-0.113404	2.786572	0.000000	0.001578	0.000000	0.000438	-0.000042	0.000000	0.000000
45.720870	18.343060	14.526198	-0.116859	-0.096431	2.787054	0.000000	0.008834	0.000000	0.000425	-0.000041	0.000000	0.000000
46.269930	18.162497	14.913085	0.443744	-0.612359	2.769346	0.000000	-0.073334	0.000000	0.000399	-0.000055	0.000000	0.000000
46.818990	17.379965	15.887009	0.973002	-1.171905	2.706821	0.000000	-0.154201	0.000000	0.000365	-0.000067	0.000000	0.000000
47.368050	16.050740	17.517341	1.433530	-1.814923	2.600586	0.000000	-0.232335	0.000000	0.000325	-0.000078	0.000000	0.000000
47.917110	14.268715	19.920206	1.792798	-2.587215	2.452527	0.000000	-0.306349	0.000000	0.000280	-0.000088	0.000000	0.000000
48.363070	12.881683	22.056613	1.328395	-2.183213	2.331243	0.000000	-0.238018	0.000000	0.000242	-0.000081	0.000000	0.000000
48.804030	11.890249	23.767159	0.928453	-1.681154	2.240786	0.000000	-0.172796	0.000000	0.000208	-0.000075	0.000000	0.000000
49.244990	11.231567	24.999377	0.570930	-1.102603	2.178626	0.000000	-0.109540	0.000000	0.000175	-0.000070	0.000000	0.000000
49.685950	10.875543	25.697202	0.239493	-0.473886	2.144057	0.000000	-0.047532	0.000000	0.000145	-0.000066	0.000000	0.000000
50.128160	10.806047	25.828603	-0.054649	0.113098	2.136696	0.000000	0.008702	0.000000	0.000117	-0.000063	0.000000	0.000000
50.425482	10.846749	25.764816	-0.082246	0.101439	2.139302	0.000000	0.008702	0.000000	0.000098	-0.000063	0.000000	0.000000
50.758816	10.911893	25.701547	-0.113185	0.088368	2.142223	0.000000	0.008702	0.000000	0.000077	-0.000063	0.000000	0.000000
51.092149	10.997662	25.646992	-0.144124	0.075298	2.145145	0.000000	0.008702	0.000000	0.000056	-0.000063	0.000000	0.000000
51.426732	11.104270	25.601514	-0.085094	-0.145514	2.148056	0.000000	-0.008724	0.000000	0.000035	-0.000064	0.000000	0.000000
51.724055	11.162889	25.691569	-0.084692	-0.220391	2.145481	0.000000	-0.013985	0.000000	0.000016	-0.000064	0.000000	0.000000
52.165015	11.383250	25.600129	-0.416954	0.426969	2.152937	0.000000	0.047711	0.000000	-0.000012	-0.000064	0.000000	0.000000
52.605975	11.903900	24.944188	-0.768265	1.054901	2.187692	0.000000	0.109950	0.000000	-0.000040	-0.000064	0.000000	0.000000
53.046935	12.748624	23.753591	-1.154675	1.634836	2.250143	0.000000	0.173443	0.000000	-0.000069	-0.000066	0.000000	0.000000
53.487895	13.956015	22.082512	-1.593838	2.140388	2.341000	0.000000	0.238911	0.000000	-0.000098	-0.000068	0.000000	0.000000
53.933855	15.601919	19.981996	-2.110064	2.549885	2.462806	0.000000	0.307500	0.000000	-0.000129	-0.000071	0.000000	0.000000
54.482915	17.720856	17.618450	-1.726342	1.780247	2.611484	0.000000	0.233145	0.000000	-0.000167	-0.000066	0.000000	0.000000
55.031975	19.348562	16.025885	-1.220682	1.137413	2.718135	0.000000	0.154652	0.000000	-0.000201	-0.000060	0.000000	0.000000
55.581035	20.370065	15.090864	-0.628801	0.575593	2.780869	0.000000	0.073416	0.000000	-0.000232	-0.000053	0.000000	0.000000
56.130095	20.713214	14.746788	0.007494	0.054772	2.798571	0.000000	-0.009123	0.000000	-0.000259	-0.000045	0.000000	0.000000
56.428668	20.745440	14.697115	-0.061190	0.072972	2.798049	0.000000	-0.001795	0.000000	-0.000273	-0.000046	0.000000	0.000000
56.762001	20.791609	14.656067	-0.077318	0.050171	2.797466	0.000000	-0.001795	0.000000	-0.000288	-0.000046	0.000000	0.000000
57.095334	20.848530	14.630219	-0.093446	0.027371	2.796883	0.000000	-0.001795	0.000000	-0.000303	-0.000046	0.000000	0.000000
57.429918	20.916477	14.619561	-0.109634	0.004484	2.796298	0.000000	-0.001795	0.000000	-0.000319	-0.000046	0.000000	0.000000
57.727240	20.985948	14.622942	-0.179005	0.022450	2.795778	0.000000	0.005530	0.000000	-0.000332	-0.000047	0.000000	0.000000
58.276300	20.824338	14.879133	0.471578	-0.491805	2.776181	0.000000	-0.076888	0.000000	-0.000355	-0.000035	0.000000	0.000000
58.825360	19.962462	15.715841	1.088851	-1.041090	2.711634	0.000000	-0.157942	0.000000	-0.000371	-0.000024	0.000000	0.000000
59.374420	18.461198	17.192663	1.629213	-1.664529	2.603282	0.000000	-0.236196	0.000000	-0.000381	-0.000011	0.000000	0.000000
59.923480	16.426586	19.414789	2.054497	-2.406527	2.453046	0.000000	-0.310260	0.000000	-0.000384	0.000001	0.000000	0.000000
60.369440	14.833856	21.389894	1.529627	-2.003680	2.329983	0.000000	-0.241942	0.000000	-0.000385	-0.000009	0.000000	0.000000
60.810400	13.687971	22.945653	1.078854	-1.511031	2.237758	0.000000	-0.176776	0.000000	-0.000392	-0.000019	0.000000	0.000000
61.251360	12.916474	24.034845	0.677370	-0.949632	2.173803	0.000000	-0.113622	0.000000	-0.000402	-0.000029	0.000000	0.000000
61.692320	12.484117	24.607915	0.306832	-0.345026	2.137388	0.000000	-0.051763	0.000000	-0.000417	-0.000040	0.000000	0.000000
62.134530	12.371196	24.638251	-0.019325	0.214572	2.128105	0.000000	0.004267	0.000000	-0.000437	-0.000050	0.000000	0.000000
62.431853	12.389836	24.514410	-0.043367	0.201949	2.129389	0.000000	0.004267	0.000000	-0.000452	-0.000050	0.000000	0.000000
62.765186	12.427732	24.384495	-0.070321	0.187797	2.130828	0.000000	0.004267	0.000000	-0.000469	-0.000050	0.000000	0.000000
63.098520	12.483598	24.264014	-0.097276	0.173645	2.132267	0.000000	0.004267	0.000000	-0.000485	-0.000050	0.000000	0.000000
63.433103	12.557744	24.152569	-0.124331	0.159440	2.133711	0.000000	0.004267	0.000000	-0.000502	-0.000050	0.000000	0.000000
63.730426	12.638825	24.061512	-0.117228	0.087506	2.134995	0.000000	-0.000994	0.000000	-0.000517	-0.000049	0.000000	0.000000
64.171386	12.902997	23.719347	-0.484152	0.685503	2.148126	0.000000	0.060503	0.000000	-0.000541	-0.000062	0.000000	0.000000
64.612346	13.499254	22.861592	-0.873195	1.252309	2.188508	0.000000	0.122691	0.000000	-0.000572	-0.000077	0.000000	0.000000
65.053306	14.454837	21.527275	-1.302129	1.762138	2.256599	0.000000	0.186276	0.000000	-0.000609	-0.000092	0.000000	0.000000
65.494266	15.813401	19.777106	-1.790552	2.191792	2.353176	0.000000	0.251984	0.000000	-0.000653	-0.000108	0.000000	0.000000
65.940226	17.660193	17.665945	-2.365459	2.522463	2.480912	0.000000	0.320963	0.000000	-0.000705	-0.000126	0.000000	0.000000
66.489286	20.027086	15.304181	-1.919940	1.804440	2.636823	0.000000	0.245905	0.000000	-0.000767	-0.000102	0.000000	0.000000
67.038346	21.826941	13.656106	-1.338812	1.214942	2.750248	0.000000	0.166483	0.000000	-0.000816	-0.000076	0.000000	0.000000
67.587406	22.932633	12.604332	-0.663123	0.711979	2.819177	0.000000	0.084108	0.000000	-0.000851	-0.000049	0.000000	0.000000
68.136466	23.266068	12.073943	0.059404	0.259728	2.842385	0.000000	0.000240	0.000000	-0.000870	-0.000021	0.000000	0.000000
68.435038	23.270991	11.907881	-0.014661	0.264678	2.844697	0.000000	0.007720	0.000000	-0.000877	-0.000023	0.000000	0.000000
68.768372	23.285541	11.741413	-0.028989	0.234725	2.847278	0.000000	0.007720	0.000000	-0.000885	-0.000023	0.000000	0.000000
69.101705	23.309642	11.594915	-0.043316	0.204771	2.849860	0.000000	0.007720	0.000000	-0.000893	-0.000023	0.000000	0.000000
69.436288	23.343439	11.467948	-0.057696	0.174705	2.852451	0.000000	0.007720	0.000000	-0.000901	-0.000023	0.000000	0.000000
69.733611	23.381548	11.372004	-0.132031	0.177922	2.854753	0.000000	0.015236	0.000000	-0.000908	-0.000026	0.000000	0.000000
70.282671	23.124983	11.404320	0.596544	-0.237127	2.839931	0.000000	-0.069169	0.000000	-0.000914	0.000004	0.000000	0.000000
