#ParticleID	Turn	x[m]	xp	y[m]	yp	z[m]	dE[GeV]# s	beta_x	beta_y	alpha_x	alpha_y	D_x	D_y	D_px	D_py	orbit_x	orbit_px	orbit_y	orbit_py
0.300000	11.949514	25.302199	-0.020088	-0.021876	2.600977	0.000000	0.000614	0.000000	-0.000735	0.000641	0.000000	0.000000
0.601250	11.969215	25.318967	-0.045308	-0.033787	2.600968	0.000000	0.000614	0.000000	-0.000542	0.000641	0.000000	0.000000
0.898573	12.003558	25.342554	-0.040666	-0.107665	2.600960	0.000000	-0.005786	0.000000	-0.000351	0.000642	0.000000	0.000000
1.339533	12.193180	25.156252	-0.390767	0.528552	2.614333	0.000000	0.067728	0.000000	-0.000069	0.000637	0.000000	0.000000
1.780493	12.698245	24.417356	-0.758726	1.140723	2.660261	0.000000	0.142006	0.000000	0.000212	0.000639	0.000000	0.000000
2.221453	13.541834	23.159479	-1.161354	1.700993	2.739264	0.000000	0.217894	0.000000	0.000495	0.000648	0.000000	0.000000
2.662413	14.762497	21.439849	-1.617049	2.183871	2.852241	0.000000	0.296258	0.000000	0.000784	0.000664	0.000000	0.000000
3.108373	16.437088	19.311510	-2.150997	2.568548	3.002324	0.000000	0.378479	0.000000	0.001086	0.000689	0.000000	0.000000
3.657433	18.583789	16.920699	-1.735225	1.811445	3.184689	0.000000	0.286090	0.000000	0.001453	0.000647	0.000000	0.000000
4.206493	20.203499	15.285978	-1.196866	1.183369	3.314885	0.000000	0.188638	0.000000	0.001795	0.000595	0.000000	0.000000
4.755553	21.181784	14.290914	-0.573947	0.639583	3.390608	0.000000	0.087849	0.000000	0.002104	0.000532	0.000000	0.000000
5.304613	21.449519	13.864635	0.089528	0.141354	3.410517	0.000000	-0.014490	0.000000	0.002377	0.000459	0.000000	0.000000
5.603185	21.433011	13.765715	0.020670	0.154555	3.408659	0.000000	-0.005758	0.000000	0.002516	0.000465	0.000000	0.000000
5.936519	21.424417	13.670943	0.005111	0.129761	3.406585	0.000000	-0.005758	0.000000	0.002671	0.000465	0.000000	0.000000
6.269852	21.426196	13.592700	-0.010448	0.104968	3.404510	0.000000	-0.005758	0.000000	0.002826	0.000465	0.000000	0.000000
6.604435	21.438413	13.530785	-0.026065	0.080082	3.402428	0.000000	-0.005758	0.000000	0.002982	0.000465	0.000000	0.000000
6.901758	21.458045	13.489736	-0.094530	0.092376	3.400579	0.000000	0.002893	0.000000	0.003120	0.000473	0.000000	0.000000
7.450818	21.195888	13.649998	0.569404	-0.385969	3.373929	0.000000	-0.099017	0.000000	0.003351	0.000368	0.000000	0.000000
7.999878	20.222446	14.347492	1.193121	-0.891810	3.291780	0.000000	-0.199166	0.000000	0.003523	0.000257	0.000000	0.000000
8.548938	18.606486	15.631909	1.732555	-1.461180	3.155592	0.000000	-0.295777	0.000000	0.003633	0.000141	0.000000	0.000000
9.097998	16.462169	17.594745	2.149594	-2.134639	2.967782	0.000000	-0.387138	0.000000	0.003678	0.000023	0.000000	0.000000
9.543958	14.789078	19.343523	1.615268	-1.769973	2.813308	0.000000	-0.305853	0.000000	0.003709	0.000119	0.000000	0.000000
9.984918	13.570248	20.714057	1.159175	-1.326100	2.695518	0.000000	-0.228548	0.000000	0.003783	0.000215	0.000000	0.000000
10.425878	12.728902	21.664902	0.756047	-0.821883	2.611171	0.000000	-0.153848	0.000000	0.003899	0.000314	0.000000	0.000000
10.866838	12.226593	22.152790	0.387465	-0.280266	2.559305	0.000000	-0.080904	0.000000	0.004060	0.000417	0.000000	0.000000
11.309048	12.040215	22.154952	0.064804	0.221767	2.539308	0.000000	-0.014859	0.000000	0.004268	0.000514	0.000000	0.000000
11.606371	12.009053	22.027265	0.040006	0.207686	2.534737	0.000000	-0.014859	0.000000	0.004421	0.000514	0.000000	0.000000
12.086371	11.989864	21.838797	-0.000028	0.184955	2.527358	0.000000	-0.014859	0.000000	0.004668	0.000514	0.000000	0.000000
12.566371	12.009107	21.672151	-0.040062	0.162224	2.519979	0.000000	-0.014859	0.000000	0.004914	0.000514	0.000000	0.000000
13.046371	12.066783	21.527327	-0.080096	0.139493	2.512601	0.000000	-0.014859	0.000000	0.005161	0.000514	0.000000	0.000000
13.526371	12.162891	21.404324	-0.120130	0.116762	2.505222	0.000000	-0.014859	0.000000	0.005407	0.000514	0.000000	0.000000
14.007621	12.297832	21.302909	-0.160268	0.093972	2.497824	0.000000	-0.014859	0.000000	0.005655	0.000514	0.000000	0.000000
14.304943	12.400495	21.251236	-0.156352	0.030832	2.493252	0.000000	-0.020632	0.000000	0.005808	0.000500	0.000000	0.000000
14.745903	12.697336	20.991605	-0.519108	0.555664	2.499482	0.000000	0.050024	0.000000	0.006062	0.000653	0.000000	0.000000
15.186863	13.323372	20.278496	-0.905591	1.055211	2.536899	0.000000	0.121243	0.000000	0.006385	0.000813	0.000000	0.000000
15.627823	14.307223	19.144355	-1.333467	1.506740	2.605927	0.000000	0.193835	0.000000	0.006780	0.000983	0.000000	0.000000
16.068783	15.693868	17.640785	-1.822291	1.889704	2.707349	0.000000	0.268624	0.000000	0.007253	0.001164	0.000000	0.000000
16.514743	17.570320	15.814652	-2.399314	2.187555	2.844014	0.000000	0.346948	0.000000	0.007816	0.001359	0.000000	0.000000
17.063803	19.979491	13.776371	-1.961336	1.546234	3.010239	0.000000	0.259931	0.000000	0.008491	0.001095	0.000000	0.000000
17.612863	21.828183	12.378140	-1.384746	1.015070	3.127493	0.000000	0.168320	0.000000	0.009015	0.000812	0.000000	0.000000
18.161923	22.985723	11.520357	-0.710289	0.556223	3.193703	0.000000	0.073737	0.000000	0.009379	0.000514	0.000000	0.000000
18.710983	23.370283	11.141918	0.014372	0.137003	3.207699	0.000000	-0.022147	0.000000	0.009577	0.000206	0.000000	0.000000
19.009556	23.398923	11.052419	-0.054465	0.136170	3.203310	0.000000	-0.014456	0.000000	0.009646	0.000230	0.000000	0.000000
19.342889	23.439995	10.971878	-0.068753	0.105452	3.198415	0.000000	-0.014456	0.000000	0.009723	0.000230	0.000000	0.000000
19.676223	23.490593	10.911817	-0.083041	0.074733	3.193519	0.000000	-0.014456	0.000000	0.009800	0.000230	0.000000	0.000000
20.010806	23.551251	10.871990	-0.214068	0.097766	3.188625	0.000000	0.001343	0.000000	0.009877	0.000279	0.000000	0.000000
20.308129	23.682540	10.822031	-0.283846	0.096059	3.188946	0.000000	0.008961	0.000000	0.009960	0.000304	0.000000	0.000000
20.857189	23.585948	10.936333	0.458800	-0.305436	3.167633	0.000000	-0.086198	0.000000	0.010038	-0.000020	0.000000	0.000000
21.406249	22.686655	11.500880	1.169025	-0.728693	3.094578	0.000000	-0.179828	0.000000	0.009938	-0.000343	0.000000	0.000000
21.955309	21.048227	12.555892	1.796633	-1.203867	2.971077	0.000000	-0.270273	0.000000	0.009662	-0.000661	0.000000	0.000000
22.504369	18.786476	14.176526	2.297269	-1.764811	2.799317	0.000000	-0.355933	0.000000	0.009215	-0.000967	0.000000	0.000000
22.950329	17.005839	15.632443	1.708633	-1.485638	2.658200	0.000000	-0.278818	0.000000	0.008836	-0.000733	0.000000	0.000000
23.391289	15.726494	16.794751	1.202996	-1.139860	2.551800	0.000000	-0.205357	0.000000	0.008563	-0.000508	0.000000	0.000000
23.832249	14.867347	17.627939	0.752345	-0.742208	2.477160	0.000000	-0.134229	0.000000	0.008387	-0.000290	0.000000	0.000000
24.273209	14.389118	18.094094	0.336081	-0.310778	2.433430	0.000000	-0.064628	0.000000	0.008306	-0.000075	0.000000	0.000000
24.715418	14.270058	18.171730	-0.032727	0.093708	2.420113	0.000000	-0.001220	0.000000	0.008321	0.000120	0.000000	0.000000
25.012741	14.295720	18.120914	-0.053585	0.077203	2.419715	0.000000	-0.001220	0.000000	0.008357	0.000120	0.000000	0.000000
25.346075	14.339238	18.075614	-0.076969	0.058698	2.419268	0.000000	-0.001220	0.000000	0.008397	0.000120	0.000000	0.000000
25.679408	14.398345	18.042650	-0.100352	0.040194	2.418822	0.000000	-0.001220	0.000000	0.008437	0.000120	0.000000	0.000000
26.013991	14.473057	18.022333	-0.006409	-0.124586	2.418349	0.000000	-0.020839	0.000000	0.008477	0.000051	0.000000	0.000000
26.311314	14.482946	18.101437	0.005648	-0.182078	2.412135	0.000000	-0.026269	0.000000	0.008492	0.000031	0.000000	0.000000
26.752274	14.656914	18.065923	-0.401561	0.262300	2.415599	0.000000	0.042265	0.000000	0.008554	0.000251	0.000000	0.000000
27.193234	15.196802	17.642241	-0.827125	0.694742	2.449270	0.000000	0.111277	0.000000	0.008714	0.000474	0.000000	0.000000
27.634194	16.127291	16.849670	-1.290497	1.095567	2.513531	0.000000	0.181553	0.000000	0.008973	0.000702	0.000000	0.000000
28.075154	17.490925	15.724275	-1.812858	1.446534	2.609111	0.000000	0.253888	0.000000	0.009334	0.000938	0.000000	0.000000
28.521114	19.373920	14.300197	-2.423200	1.732761	2.738713	0.000000	0.329582	0.000000	0.009807	0.001186	0.000000	0.000000
29.070174	21.768219	12.714230	-1.910467	1.172386	2.896473	0.000000	0.246111	0.000000	0.010369	0.000859	0.000000	0.000000
29.619234	23.521375	11.694494	-1.262709	0.695538	3.007311	0.000000	0.158287	0.000000	0.010748	0.000517	0.000000	0.000000
30.168294	24.509455	11.168343	-0.525707	0.268246	3.069262	0.000000	0.067663	0.000000	0.010936	0.000166	0.000000	0.000000
30.717354	24.662612	11.098294	0.248450	-0.139934	3.081231	0.000000	-0.024159	0.000000	0.010929	-0.000189	0.000000	0.000000
31.015927	24.552762	11.174328	0.177542	-0.140888	3.076238	0.000000	-0.016867	0.000000	0.010881	-0.000161	0.000000	0.000000
31.349260	24.439069	11.278394	0.163538	-0.171310	3.070669	0.000000	-0.016867	0.000000	0.010827	-0.000161	0.000000	0.000000
31.682593	24.334712	11.402742	0.149533	-0.201733	3.065101	0.000000	-0.016867	0.000000	0.010773	-0.000161	0.000000	0.000000
32.017177	24.239352	11.547952	0.135477	-0.232269	3.059512	0.000000	-0.016867	0.000000	0.010719	-0.000161	0.000000	0.000000
32.314499	24.162586	11.694098	0.065657	-0.231683	3.054550	0.000000	-0.009620	0.000000	0.010671	-0.000135	0.000000	0.000000
32.863559	23.676799	12.187196	0.813521	-0.671559	3.024491	0.000000	-0.100283	0.000000	0.010503	-0.000478	0.000000	0.000000
33.412619	22.396400	13.186684	1.503885	-1.159282	2.945237	0.000000	-0.189174	0.000000	0.010148	-0.000813	0.000000	0.000000
33.961679	20.411903	14.763765	2.087957	-1.729598	2.818191	0.000000	-0.274723	0.000000	0.009613	-0.001133	0.000000	0.000000
34.510739	17.863591	17.030785	2.524462	-2.423137	2.645600	0.000000	-0.355415	0.000000	0.008908	-0.001433	0.000000	0.000000
34.956699	15.883628	19.058883	1.929970	-2.105000	2.504029	0.000000	-0.282300	0.000000	0.008319	-0.001209	0.000000	0.000000
35.397659	14.407754	20.739800	1.428817	-1.691998	2.395420	0.000000	-0.212844	0.000000	0.007832	-0.001001	0.000000	0.000000
35.838619	13.343605	22.020951	0.992973	-1.201997	2.316796	0.000000	-0.145802	0.000000	0.007434	-0.000804	0.000000	0.000000
36.279579	12.642528	22.844043	0.602517	-0.657296	2.267265	0.000000	-0.080413	0.000000	0.007121	-0.000617	0.000000	0.000000
36.721789	12.271820	23.171931	0.267591	-0.135654	2.246241	0.000000	-0.021076	0.000000	0.006888	-0.000452	0.000000	0.000000
37.019112	12.120418	23.256483	0.241628	-0.148721	2.240109	0.000000	-0.021076	0.000000	0.006754	-0.000452	0.000000	0.000000
37.352445	11.969035	23.360513	0.212521	-0.163371	2.233234	0.000000	-0.021076	0.000000	0.006603	-0.000452	0.000000	0.000000
37.685779	11.837056	23.474311	0.183414	-0.178021	2.226360	0.000000	-0.021076	0.000000	0.006452	-0.000452	0.000000	0.000000
38.020362	11.724097	23.598356	0.154197	-0.192726	2.219459	0.000000	-0.021076	0.000000	0.006301	-0.000452	0.000000	0.000000
38.317684	11.640111	23.716872	0.155089	-0.260664	2.213326	0.000000	-0.026183	0.000000	0.006166	-0.000467	0.000000	0.000000
38.758644	11.652387	23.683932	-0.183159	0.335073	2.215921	0.000000	0.037209	0.000000	0.005995	-0.000310	0.000000	0.000000
39.199604	11.965566	23.130298	-0.529775	0.915562	2.246473	0.000000	0.101028	0.000000	0.005892	-0.000157	0.000000	0.000000
39.640564	12.593961	22.081165	-0.900600	1.454386	2.305331	0.000000	0.166000	0.000000	0.005856	-0.000006	0.000000	0.000000
40.081524	13.566289	20.584276	-1.312582	1.927025	2.393166	0.000000	0.232863	0.000000	0.005887	0.000146	0.000000	0.000000
40.527484	14.944530	18.685031	-1.788463	2.313423	2.512463	0.000000	0.302802	0.000000	0.005986	0.000300	0.000000	0.000000
41.076544	16.705734	16.550209	-1.399850	1.597333	2.657995	0.000000	0.226873	0.000000	0.006097	0.000104	0.000000	0.000000
41.625604	17.982935	15.135074	-0.912331	0.995035	2.760770	0.000000	0.146922	0.000000	0.006100	-0.000094	0.000000	0.000000
42.174664	18.685884	14.338813	-0.360356	0.463625	2.818966	0.000000	0.064362	0.000000	0.005995	-0.000290	0.000000	0.000000
42.723724	18.764915	14.104700	0.217075	-0.034755	2.831547	0.000000	-0.019345	0.000000	0.005783	-0.000480	0.000000	0.000000
43.022297	18.667996	14.110805	0.154086	-0.020785	2.828009	0.000000	-0.012311	0.000000	0.005644	-0.000466	0.000000	0.000000
43.502297	18.532708	14.147094	0.127763	-0.054817	2.822324	0.000000	-0.012311	0.000000	0.005420	-0.000466	0.000000	0.000000
43.982297	18.422690	14.216053	0.101440	-0.088848	2.816638	0.000000	-0.012311	0.000000	0.005197	-0.000466	0.000000	0.000000
44.462297	18.337943	14.317682	0.075117	-0.122879	2.810952	0.000000	-0.012311	0.000000	0.004973	-0.000466	0.000000	0.000000
44.942297	18.278465	14.451981	0.048794	-0.156910	2.805267	0.000000	-0.012311	0.000000	0.004750	-0.000466	0.000000	0.000000
45.423547	18.244427	14.619246	-0.067990	-0.118597	2.799584	0.000000	0.001560	0.000000	0.004526	-0.000443	0.000000	0.000000
45.720870	18.289736	14.695893	-0.130371	-0.102345	2.800180	0.000000	0.008604	0.000000	0.004394	-0.000432	0.000000	0.000000
46.269930	18.124707	15.092192	0.428878	-0.623648	2.782465	0.000000	-0.073999	0.000000	0.004118	-0.000570	0.000000	0.000000
46.818990	17.358571	16.081864	0.957818	-1.189375	2.719755	0.000000	-0.155298	0.000000	0.003770	-0.000698	0.000000	0.000000
47.368050	16.045472	17.735401	1.419079	-1.839825	2.613158	0.000000	-0.233854	0.000000	0.003354	-0.000813	0.000000	0.000000
47.917110	14.278195	20.170576	1.780076	-2.621329	2.464560	0.000000	-0.308274	0.000000	0.002879	-0.000914	0.000000	0.000000
48.363070	12.901883	22.335104	1.316582	-2.211748	2.342826	0.000000	-0.239627	0.000000	0.002488	-0.000845	0.000000	0.000000
48.804030	11.920503	24.067958	0.917051	-1.702898	2.252037	0.000000	-0.174107	0.000000	0.002129	-0.000785	0.000000	0.000000
49.244990	11.271767	25.316013	0.559427	-1.116565	2.189655	0.000000	-0.110562	0.000000	0.001794	-0.000735	0.000000	0.000000
49.685950	10.926025	26.022488	0.227369	-0.479429	2.154972	0.000000	-0.048269	0.000000	0.001480	-0.000692	0.000000	0.000000
50.128160	10.867644	26.154952	-0.068060	0.116293	2.147609	0.000000	0.008275	0.000000	0.001181	-0.000661	0.000000	0.000000
50.425482	10.916288	26.089225	-0.095545	0.104772	2.150265	0.000000	0.008275	0.000000	0.000985	-0.000661	0.000000	0.000000
50.758816	10.990256	26.023682	-0.126360	0.091855	2.153244	0.000000	0.008275	0.000000	0.000765	-0.000661	0.000000	0.000000
51.092149	11.084767	25.966751	-0.157174	0.078938	2.156222	0.000000	0.008275	0.000000	0.000544	-0.000661	0.000000	0.000000
51.426732	11.200064	25.918792	-0.097241	-0.144293	2.159190	0.000000	-0.009242	0.000000	0.000323	-0.000664	0.000000	0.000000
51.724055	11.265856	26.008077	-0.096444	-0.219953	2.156640	0.000000	-0.014525	0.000000	0.000126	-0.000664	0.000000	0.000000
52.165015	11.497626	25.912556	-0.431368	0.435750	2.164178	0.000000	0.047460	0.000000	-0.000167	-0.000664	0.000000	0.000000
52.605975	12.032305	25.245328	-0.785995	1.071624	2.199144	0.000000	0.109992	0.000000	-0.000461	-0.000672	0.000000	0.000000
53.046935	12.894315	24.036758	-1.176526	1.658739	2.261941	0.000000	0.173783	0.000000	-0.000761	-0.000688	0.000000	0.000000
53.487895	14.123029	22.341842	-1.620802	2.170381	2.353285	0.000000	0.239562	0.000000	-0.001069	-0.000712	0.000000	0.000000
53.933855	15.795583	20.212374	-2.143392	2.584590	2.475734	0.000000	0.308473	0.000000	-0.001394	-0.000744	0.000000	0.000000
54.482915	17.948470	17.815785	-1.754871	1.806167	2.625172	0.000000	0.233691	0.000000	-0.001788	-0.000692	0.000000	0.000000
55.031975	19.603719	16.198754	-1.242417	1.156390	2.732315	0.000000	0.154753	0.000000	-0.002151	-0.000628	0.000000	0.000000
55.581035	20.644440	15.246096	-0.642226	0.588979	2.795259	0.000000	0.073059	0.000000	-0.002476	-0.000553	0.000000	0.000000
56.130095	20.997149	14.889951	0.003313	0.063519	2.812882	0.000000	-0.009939	0.000000	-0.002757	-0.000469	0.000000	0.000000
56.428668	21.032935	14.834251	-0.067067	0.083148	2.812301	0.000000	-0.002421	0.000000	-0.002899	-0.000476	0.000000	0.000000
56.762001	21.082953	14.786361	-0.082986	0.060523	2.811653	0.000000	-0.002421	0.000000	-0.003058	-0.000476	0.000000	0.000000
57.095334	21.143584	14.753554	-0.098906	0.037897	2.811005	0.000000	-0.002421	0.000000	-0.003217	-0.000476	0.000000	0.000000
57.429918	21.215115	14.735794	-0.114885	0.015186	2.810354	0.000000	-0.002421	0.000000	-0.003376	-0.000476	0.000000	0.000000
57.727240	21.287660	14.732758	-0.186328	0.034521	2.809777	0.000000	0.005135	0.000000	-0.003517	-0.000485	0.000000	0.000000
58.276300	21.128412	14.977327	0.474404	-0.482605	2.790045	0.000000	-0.077726	0.000000	-0.003752	-0.000367	0.000000	0.000000
58.825360	20.257873	15.805157	1.101625	-1.034100	2.725067	0.000000	-0.159214	0.000000	-0.003920	-0.000243	0.000000	0.000000
59.374420	18.737527	17.275204	1.651040	-1.659243	2.615993	0.000000	-0.237883	0.000000	-0.004018	-0.000115	0.000000	0.000000
59.923480	16.674742	19.492161	2.083852	-2.402555	2.464754	0.000000	-0.312334	0.000000	-0.004045	0.000016	0.000000	0.000000
60.369440	15.059002	21.462384	1.552140	-1.996875	2.340845	0.000000	-0.243742	0.000000	-0.004061	-0.000089	0.000000	0.000000
60.810400	13.895944	23.010893	1.095518	-1.501644	2.247945	0.000000	-0.178311	0.000000	-0.004124	-0.000195	0.000000	0.000000
61.251360	13.112048	24.090766	0.688940	-0.938098	2.183468	0.000000	-0.114908	0.000000	-0.004233	-0.000302	0.000000	0.000000
61.692320	12.671505	24.652878	0.313834	-0.331876	2.146679	0.000000	-0.052811	0.000000	-0.004391	-0.000413	0.000000	0.000000
62.134530	12.554235	24.671078	-0.014923	0.226477	2.137167	0.000000	0.003223	0.000000	-0.004599	-0.000518	0.000000	0.000000
62.431853	12.570152	24.540172	-0.038611	0.213807	2.138280	0.000000	0.003223	0.000000	-0.004753	-0.000518	0.000000	0.000000
62.765186	12.604745	24.402369	-0.065168	0.199603	2.139527	0.000000	0.003223	0.000000	-0.004926	-0.000518	0.000000	0.000000
63.098520	12.657043	24.274035	-0.091726	0.185399	2.140774	0.000000	0.003223	0.000000	-0.005098	-0.000518	0.000000	0.000000
63.433103	12.727342	24.154742	-0.118383	0.171142	2.142025	0.000000	0.003223	0.000000	-0.005272	-0.000518	0.000000	0.000000
63.730426	12.804770	24.056761	-0.109083	0.096319	2.143137	0.000000	-0.002298	0.000000	-0.005426	-0.000504	0.000000	0.000000
64.171386	13.063242	23.706995	-0.479557	0.693918	2.155959	0.000000	0.059397	0.000000	-0.005679	-0.000647	0.000000	0.000000
64.612346	13.656773	22.842200	-0.871930	1.259947	2.196171	0.000000	0.121776	0.000000	-0.005998	-0.000798	0.000000	0.000000
65.053306	14.612461	21.501725	-1.304122	1.768656	2.264234	0.000000	0.185550	0.000000	-0.006384	-0.000957	0.000000	0.000000
65.494266	15.973943	19.746557	-1.795871	2.196905	2.360926	0.000000	0.251447	0.000000	-0.006843	-0.001128	0.000000	0.000000
65.940226	17.826680	17.631711	-2.374177	2.525801	2.488932	0.000000	0.320598	0.000000	-0.007387	-0.001312	0.000000	0.000000
66.489286	20.199252	15.266360	-1.922516	1.808098	2.645128	0.000000	0.245295	0.000000	-0.008040	-0.001063	0.000000	0.000000
67.038346	21.998021	13.614162	-1.335126	1.219158	2.758582	0.000000	0.165623	0.000000	-0.008550	-0.000794	0.000000	0.000000
67.587406	23.096017	12.557443	-0.653482	0.717038	2.827274	0.000000	0.083002	0.000000	-0.008909	-0.000511	0.000000	0.000000
68.136466	23.415745	12.020942	0.074291	0.265980	2.849983	0.000000	-0.001099	0.000000	-0.009110	-0.000219	0.000000	0.000000
68.435038	23.414389	11.850050	-0.004200	0.272696	2.852113	0.000000	0.006903	0.000000	-0.009182	-0.000244	0.000000	0.000000
68.768372	23.421935	11.678327	-0.018437	0.242474	2.854495	0.000000	0.006903	0.000000	-0.009264	-0.000244	0.000000	0.000000
69.101705	23.438971	11.526751	-0.032673	0.212253	2.856877	0.000000	0.006903	0.000000	-0.009345	-0.000244	0.000000	0.000000
69.436288	23.465616	11.394868	-0.046963	0.181919	2.859268	0.000000	0.006903	0.000000	-0.009427	-0.000244	0.000000	0.000000
69.733611	23.497381	11.294675	-0.125818	0.186721	2.861397	0.000000	0.014959	0.000000	-0.009499	-0.000270	0.000000	0.000000
70.282671	23.232038	11.316081	0.606213	-0.225943	2.846427	0.000000	-0.069636	0.000000	-0.009562	0.000039	0.000000	0.000000
