#ParticleID	Turn	x[m]	xp	y[m]	yp	z[m]	dE[GeV]# s	beta_x	beta_y	alpha_x	alpha_y	D_x	D_y	D_px	D_py	orbit_x	orbit_px	orbit_y	orbit_py
0.300000	11.965342	25.322358	-0.019212	-0.021938	2.598490	0.000000	0.000143	0.000000	-0.000977	0.000844	0.000000	0.000000
0.601250	11.984504	25.339161	-0.044398	-0.033841	2.598279	0.000000	0.000143	0.000000	-0.000723	0.000844	0.000000	0.000000
0.898573	12.018296	25.362777	-0.039652	-0.107756	2.598070	0.000000	-0.006256	0.000000	-0.000472	0.000846	0.000000	0.000000
1.339533	12.207194	25.176318	-0.390064	0.528996	2.611133	0.000000	0.067178	0.000000	-0.000101	0.000838	0.000000	0.000000
1.780493	12.711797	24.436801	-0.758304	1.141682	2.656714	0.000000	0.141369	0.000000	0.000269	0.000840	0.000000	0.000000
2.221453	13.555165	23.177864	-1.161195	1.702425	2.735330	0.000000	0.217161	0.000000	0.000641	0.000852	0.000000	0.000000
2.662413	14.775842	21.456782	-1.617147	2.185710	2.847873	0.000000	0.295418	0.000000	0.001021	0.000873	0.000000	0.000000
3.108373	16.450691	19.326639	-2.151368	2.570720	2.997465	0.000000	0.377520	0.000000	0.001418	0.000905	0.000000	0.000000
3.657433	18.597566	16.933755	-1.735040	1.813047	3.179239	0.000000	0.285297	0.000000	0.001901	0.000851	0.000000	0.000000
4.206493	20.216841	15.297521	-1.196131	1.184516	3.308948	0.000000	0.188028	0.000000	0.002350	0.000782	0.000000	0.000000
4.755553	21.194104	14.301399	-0.572709	0.640357	3.384296	0.000000	0.087435	0.000000	0.002757	0.000700	0.000000	0.000000
5.304613	21.460295	13.874445	0.091186	0.141810	3.403953	0.000000	-0.014698	0.000000	0.003116	0.000605	0.000000	0.000000
5.603185	21.442599	13.775388	0.022658	0.154793	3.401967	0.000000	-0.006038	0.000000	0.003299	0.000613	0.000000	0.000000
5.936519	21.432678	13.680452	0.007104	0.130016	3.399750	0.000000	-0.006038	0.000000	0.003503	0.000613	0.000000	0.000000
6.269852	21.433127	13.602034	-0.008449	0.105238	3.397534	0.000000	-0.006038	0.000000	0.003707	0.000613	0.000000	0.000000
6.604435	21.444004	13.539934	-0.024061	0.080368	3.395309	0.000000	-0.006038	0.000000	0.003912	0.000613	0.000000	0.000000
6.901758	21.462447	13.498708	-0.092065	0.092434	3.393332	0.000000	0.002521	0.000000	0.004094	0.000623	0.000000	0.000000
7.450818	21.197556	13.659056	0.571961	-0.386181	3.366472	0.000000	-0.099155	0.000000	0.004399	0.000486	0.000000	0.000000
7.999878	20.221358	14.356949	1.195588	-0.892309	3.284260	0.000000	-0.199063	0.000000	0.004626	0.000339	0.000000	0.000000
8.548938	18.602813	15.642109	1.734756	-1.462004	3.148158	0.000000	-0.295435	0.000000	0.004771	0.000187	0.000000	0.000000
9.097998	16.456272	17.606088	2.151368	-2.135850	2.960582	0.000000	-0.386563	0.000000	0.004831	0.000031	0.000000	0.000000
9.543958	14.781625	19.355841	1.616938	-1.770867	2.806312	0.000000	-0.305455	0.000000	0.004873	0.000157	0.000000	0.000000
9.984918	13.561317	20.727041	1.160846	-1.326661	2.688635	0.000000	-0.228326	0.000000	0.004970	0.000284	0.000000	0.000000
10.425878	12.718466	21.678240	0.757799	-0.822084	2.604309	0.000000	-0.153801	0.000000	0.005124	0.000414	0.000000	0.000000
10.866838	12.214556	22.166151	0.389379	-0.280095	2.552375	0.000000	-0.081032	0.000000	0.005336	0.000549	0.000000	0.000000
11.309048	12.026407	22.167987	0.066550	0.222927	2.532218	0.000000	-0.015068	0.000000	0.005610	0.000677	0.000000	0.000000
11.606371	11.994216	22.039611	0.041718	0.208848	2.527537	0.000000	-0.015068	0.000000	0.005811	0.000677	0.000000	0.000000
12.086371	11.973410	21.850026	0.001629	0.186119	2.519979	0.000000	-0.015068	0.000000	0.006136	0.000677	0.000000	0.000000
12.566371	11.991088	21.682261	-0.038460	0.163391	2.512422	0.000000	-0.015068	0.000000	0.006461	0.000677	0.000000	0.000000
13.046371	12.047253	21.536316	-0.078549	0.140662	2.504864	0.000000	-0.015068	0.000000	0.006786	0.000677	0.000000	0.000000
13.526371	12.141902	21.412191	-0.118638	0.117933	2.497307	0.000000	-0.015068	0.000000	0.007111	0.000677	0.000000	0.000000
14.007621	12.275434	21.309647	-0.158831	0.095145	2.489730	0.000000	-0.015068	0.000000	0.007437	0.000677	0.000000	0.000000
14.304943	12.377244	21.257292	-0.155548	0.032973	2.485046	0.000000	-0.020713	0.000000	0.007638	0.000659	0.000000	0.000000
14.745903	12.673176	20.995703	-0.517759	0.557929	2.491117	0.000000	0.049733	0.000000	0.007973	0.000860	0.000000	0.000000
15.186863	13.297818	20.280560	-0.903641	1.057496	2.528261	0.000000	0.120737	0.000000	0.008398	0.001071	0.000000	0.000000
15.627823	14.279733	19.144400	-1.330831	1.508939	2.596898	0.000000	0.193104	0.000000	0.008919	0.001294	0.000000	0.000000
16.068783	15.663821	17.638919	-1.818859	1.891713	2.697805	0.000000	0.267658	0.000000	0.009542	0.001532	0.000000	0.000000
16.514743	17.537003	15.811003	-2.394980	2.189333	2.833822	0.000000	0.345737	0.000000	0.010282	0.001790	0.000000	0.000000
17.063803	19.942107	13.770792	-1.957930	1.547853	2.999274	0.000000	0.259055	0.000000	0.011171	0.001442	0.000000	0.000000
17.612863	21.787843	12.370759	-1.382485	1.016652	3.115989	0.000000	0.167800	0.000000	0.011861	0.001069	0.000000	0.000000
18.161923	22.943719	11.511169	-0.709315	0.557885	3.181907	0.000000	0.073586	0.000000	0.012341	0.000677	0.000000	0.000000
18.710983	23.328006	11.130788	0.013999	0.138867	3.195864	0.000000	-0.021924	0.000000	0.012602	0.000272	0.000000	0.000000
19.009556	23.355791	11.040698	-0.053123	0.137180	3.191441	0.000000	-0.014485	0.000000	0.012693	0.000304	0.000000	0.000000
19.342889	23.395977	10.959498	-0.067435	0.106420	3.186512	0.000000	-0.014485	0.000000	0.012794	0.000304	0.000000	0.000000
19.676223	23.445705	10.898804	-0.081747	0.075661	3.181582	0.000000	-0.014485	0.000000	0.012895	0.000304	0.000000	0.000000
20.010806	23.505505	10.858370	-0.212573	0.098585	3.176654	0.000000	0.001254	0.000000	0.012997	0.000368	0.000000	0.000000
20.308129	23.635960	10.807913	-0.280528	0.096031	3.176926	0.000000	0.008611	0.000000	0.013106	0.000400	0.000000	0.000000
20.857189	23.536567	10.922047	0.460573	-0.305091	3.155501	0.000000	-0.086165	0.000000	0.013209	-0.000026	0.000000	0.000000
21.406249	22.636178	11.486026	1.169123	-0.727951	3.082596	0.000000	-0.179414	0.000000	0.013077	-0.000452	0.000000	0.000000
21.955309	20.998451	12.540030	1.795035	-1.202680	2.959504	0.000000	-0.269485	0.000000	0.012714	-0.000870	0.000000	0.000000
22.504369	18.739170	14.159151	2.294068	-1.763100	2.788404	0.000000	-0.354790	0.000000	0.012125	-0.001272	0.000000	0.000000
22.950329	16.960733	15.613798	1.706472	-1.484305	2.647843	0.000000	-0.277937	0.000000	0.011626	-0.000964	0.000000	0.000000
23.391289	15.682754	16.775189	1.201845	-1.139018	2.541854	0.000000	-0.204732	0.000000	0.011266	-0.000669	0.000000	0.000000
23.832249	14.824137	17.607897	0.752160	-0.741892	2.467485	0.000000	-0.133853	0.000000	0.011035	-0.000382	0.000000	0.000000
24.273209	14.345620	18.074028	0.336859	-0.311000	2.423890	0.000000	-0.064494	0.000000	0.010929	-0.000099	0.000000	0.000000
24.715418	14.225454	18.152068	-0.031960	0.094155	2.410576	0.000000	-0.001151	0.000000	0.010948	0.000158	0.000000	0.000000
25.012741	14.250680	18.100993	-0.052882	0.077630	2.410187	0.000000	-0.001151	0.000000	0.010995	0.000158	0.000000	0.000000
25.346075	14.293753	18.055415	-0.076339	0.059104	2.409750	0.000000	-0.001151	0.000000	0.011048	0.000158	0.000000	0.000000
25.679408	14.352464	18.022188	-0.099795	0.040577	2.409314	0.000000	-0.001151	0.000000	0.011100	0.000158	0.000000	0.000000
26.013991	14.426828	18.001622	-0.006299	-0.124056	2.408851	0.000000	-0.020694	0.000000	0.011153	0.000068	0.000000	0.000000
26.311314	14.436649	18.080444	0.004645	-0.180334	2.402674	0.000000	-0.025945	0.000000	0.011173	0.000042	0.000000	0.000000
26.752274	14.611051	18.043639	-0.401512	0.263469	2.406209	0.000000	0.042350	0.000000	0.011255	0.000331	0.000000	0.000000
27.193234	15.150475	17.619184	-0.826024	0.695281	2.439818	0.000000	0.111125	0.000000	0.011466	0.000624	0.000000	0.000000
27.634194	16.079589	16.826395	-1.288300	1.095449	2.503881	0.000000	0.181158	0.000000	0.011806	0.000924	0.000000	0.000000
28.075154	17.440881	15.701347	-1.809474	1.445761	2.599127	0.000000	0.253246	0.000000	0.012282	0.001234	0.000000	0.000000
28.521114	19.320525	14.278112	-2.418548	1.731426	2.728253	0.000000	0.328689	0.000000	0.012905	0.001561	0.000000	0.000000
29.070174	21.710847	12.693210	-1.907526	1.171640	2.885452	0.000000	0.245557	0.000000	0.013645	0.001131	0.000000	0.000000
29.619234	23.461962	11.673943	-1.261662	0.695335	2.995972	0.000000	0.158087	0.000000	0.014143	0.000681	0.000000	0.000000
30.168294	24.450053	11.147698	-0.526611	0.268576	3.057858	0.000000	0.067822	0.000000	0.014391	0.000218	0.000000	0.000000
30.717354	24.605253	11.076982	0.245666	-0.139047	3.070015	0.000000	-0.023643	0.000000	0.014382	-0.000248	0.000000	0.000000
31.015927	24.495744	11.153088	0.176853	-0.140988	3.065105	0.000000	-0.016626	0.000000	0.014319	-0.000213	0.000000	0.000000
31.349260	24.382519	11.257240	0.162820	-0.171469	3.059634	0.000000	-0.016626	0.000000	0.014248	-0.000213	0.000000	0.000000
31.682593	24.278651	11.381713	0.148786	-0.201950	3.054163	0.000000	-0.016626	0.000000	0.014177	-0.000213	0.000000	0.000000
32.017177	24.183801	11.527088	0.134700	-0.232546	3.048671	0.000000	-0.016626	0.000000	0.014106	-0.000213	0.000000	0.000000
32.314499	24.107563	11.673387	0.066881	-0.232987	3.043800	0.000000	-0.009643	0.000000	0.014043	-0.000178	0.000000	0.000000
32.863559	23.621352	12.167664	0.812957	-0.672373	3.013870	0.000000	-0.099970	0.000000	0.013820	-0.000630	0.000000	0.000000
33.412619	22.342413	13.167853	1.501561	-1.159668	2.934984	0.000000	-0.188532	0.000000	0.013353	-0.001070	0.000000	0.000000
33.961679	20.361182	14.745211	2.084017	-1.729590	2.808535	0.000000	-0.273766	0.000000	0.012649	-0.001491	0.000000	0.000000
34.510739	17.817742	17.012107	2.519158	-2.422745	2.636757	0.000000	-0.354167	0.000000	0.011720	-0.001886	0.000000	0.000000
34.956699	15.841752	19.040211	1.925855	-2.105149	2.495866	0.000000	-0.281261	0.000000	0.010945	-0.001592	0.000000	0.000000
35.397659	14.368908	20.721586	1.425762	-1.692744	2.387816	0.000000	-0.212004	0.000000	0.010304	-0.001318	0.000000	0.000000
35.838619	13.306947	22.003689	0.990849	-1.203300	2.309640	0.000000	-0.145149	0.000000	0.009780	-0.001059	0.000000	0.000000
36.279579	12.607308	22.828182	0.601234	-0.659096	2.260452	0.000000	-0.079936	0.000000	0.009367	-0.000813	0.000000	0.000000
36.721789	12.237360	23.157837	0.266372	-0.136575	2.239673	0.000000	-0.020635	0.000000	0.009061	-0.000596	0.000000	0.000000
37.019112	12.086699	23.242939	0.240352	-0.149653	2.233715	0.000000	-0.020635	0.000000	0.008884	-0.000596	0.000000	0.000000
37.352445	11.936188	23.347595	0.211180	-0.164316	2.227036	0.000000	-0.020635	0.000000	0.008685	-0.000596	0.000000	0.000000
37.685779	11.805125	23.462026	0.182009	-0.178978	2.220356	0.000000	-0.020635	0.000000	0.008486	-0.000596	0.000000	0.000000
38.020362	11.693128	23.586717	0.152728	-0.193696	2.213651	0.000000	-0.020635	0.000000	0.008287	-0.000596	0.000000	0.000000
38.317684	11.610023	23.705831	0.152951	-0.260561	2.207691	0.000000	-0.025625	0.000000	0.008109	-0.000615	0.000000	0.000000
38.758644	11.623879	23.672922	-0.184657	0.334899	2.210554	0.000000	0.037628	0.000000	0.007884	-0.000409	0.000000	0.000000
39.199604	11.938120	23.119547	-0.530701	0.915116	2.241293	0.000000	0.101314	0.000000	0.007748	-0.000208	0.000000	0.000000
39.640564	12.567108	22.070893	-0.900998	1.453687	2.300262	0.000000	0.166157	0.000000	0.007700	-0.000009	0.000000	0.000000
40.081524	13.539593	20.574683	-1.312473	1.926101	2.388131	0.000000	0.232892	0.000000	0.007740	0.000191	0.000000	0.000000
40.527484	14.917589	18.676262	-1.787881	2.312359	2.507389	0.000000	0.302710	0.000000	0.007870	0.000393	0.000000	0.000000
41.076544	16.678798	16.542388	-1.400323	1.596556	2.652884	0.000000	0.226941	0.000000	0.008016	0.000136	0.000000	0.000000
41.625604	17.957117	15.127932	-0.913818	0.994498	2.755743	0.000000	0.147149	0.000000	0.008019	-0.000124	0.000000	0.000000
42.174664	18.662208	14.332124	-0.362745	0.463293	2.814140	0.000000	0.064744	0.000000	0.007880	-0.000382	0.000000	0.000000
42.723724	18.744251	14.098268	0.213951	-0.034904	2.827037	0.000000	-0.018816	0.000000	0.007601	-0.000633	0.000000	0.000000
43.022297	18.648693	14.104813	0.151782	-0.021510	2.823662	0.000000	-0.011910	0.000000	0.007418	-0.000613	0.000000	0.000000
43.502297	18.515622	14.141805	0.125450	-0.055557	2.818240	0.000000	-0.011910	0.000000	0.007124	-0.000613	0.000000	0.000000
43.982297	18.407829	14.211482	0.099118	-0.089603	2.812817	0.000000	-0.011910	0.000000	0.006829	-0.000613	0.000000	0.000000
44.462297	18.325315	14.313843	0.072786	-0.123650	2.807395	0.000000	-0.011910	0.000000	0.006535	-0.000613	0.000000	0.000000
44.942297	18.268081	14.448890	0.046454	-0.157697	2.801973	0.000000	-0.011910	0.000000	0.006240	-0.000613	0.000000	0.000000
45.423547	18.236300	14.616919	-0.070300	-0.119411	2.796554	0.000000	0.001946	0.000000	0.005945	-0.000584	0.000000	0.000000
45.720870	18.282993	14.694046	-0.132110	-0.103655	2.797307	0.000000	0.008896	0.000000	0.005772	-0.000569	0.000000	0.000000
46.269930	18.119924	15.091788	0.426981	-0.624970	2.779860	0.000000	-0.073621	0.000000	0.005409	-0.000750	0.000000	0.000000
46.818990	17.355830	16.082980	0.955892	-1.190803	2.717483	0.000000	-0.154845	0.000000	0.004950	-0.000918	0.000000	0.000000
47.368050	16.044719	17.738216	1.417252	-1.841463	2.611278	0.000000	-0.233336	0.000000	0.004403	-0.001070	0.000000	0.000000
47.917110	14.279247	20.175394	1.778469	-2.623296	2.463121	0.000000	-0.307706	0.000000	0.003779	-0.001202	0.000000	0.000000
48.363070	12.904251	22.341701	1.315078	-2.213697	2.341751	0.000000	-0.239087	0.000000	0.003263	-0.001111	0.000000	0.000000
48.804030	11.924119	24.076262	0.915598	-1.704762	2.251303	0.000000	-0.173590	0.000000	0.002791	-0.001033	0.000000	0.000000
49.244990	11.276625	25.325903	0.557962	-1.118259	2.189247	0.000000	-0.110059	0.000000	0.002351	-0.000967	0.000000	0.000000
49.685950	10.932170	26.033774	0.225826	-0.480877	2.154881	0.000000	-0.047772	0.000000	0.001937	-0.000911	0.000000	0.000000
50.128160	10.875184	26.167384	-0.069823	0.115428	2.147829	0.000000	0.008792	0.000000	0.001544	-0.000870	0.000000	0.000000
50.425482	10.924872	26.102169	-0.097295	0.103914	2.150702	0.000000	0.008792	0.000000	0.001286	-0.000870	0.000000	0.000000
50.758816	11.000002	26.037195	-0.128096	0.091006	2.153922	0.000000	0.008792	0.000000	0.000996	-0.000870	0.000000	0.000000
51.092149	11.095666	25.980827	-0.158896	0.078098	2.157143	0.000000	0.008792	0.000000	0.000705	-0.000870	0.000000	0.000000
51.426732	11.212111	25.933428	-0.098852	-0.145243	2.160354	0.000000	-0.008734	0.000000	0.000414	-0.000874	0.000000	0.000000
51.724055	11.278854	26.023277	-0.098010	-0.220998	2.158017	0.000000	-0.014019	0.000000	0.000155	-0.000874	0.000000	0.000000
52.165015	11.512119	25.928496	-0.433273	0.435122	2.165876	0.000000	0.048005	0.000000	-0.000231	-0.000875	0.000000	0.000000
52.605975	12.048626	25.261628	-0.788325	1.071441	2.201184	0.000000	0.110585	0.000000	-0.000619	-0.000886	0.000000	0.000000
53.046935	12.912880	24.053024	-1.179385	1.659007	2.264347	0.000000	0.174434	0.000000	-0.001013	-0.000907	0.000000	0.000000
53.487895	14.144353	22.357682	-1.624319	2.171090	2.356087	0.000000	0.240279	0.000000	-0.001420	-0.000938	0.000000	0.000000
53.933855	15.820346	20.227408	-2.147722	2.585698	2.478972	0.000000	0.309267	0.000000	-0.001847	-0.000981	0.000000	0.000000
54.482915	17.977608	17.829869	-1.758602	1.806829	2.628936	0.000000	0.234373	0.000000	-0.002368	-0.000912	0.000000	0.000000
55.031975	19.636429	16.212347	-1.245293	1.156653	2.736529	0.000000	0.155308	0.000000	-0.002846	-0.000828	0.000000	0.000000
55.581035	20.679674	15.259622	-0.644049	0.588859	2.799838	0.000000	0.073474	0.000000	-0.003274	-0.000729	0.000000	0.000000
56.130095	21.033690	14.903825	0.002665	0.063008	2.817733	0.000000	-0.009675	0.000000	-0.003644	-0.000617	0.000000	0.000000
56.428668	21.070152	14.848216	-0.068191	0.083010	2.817296	0.000000	-0.002090	0.000000	-0.003831	-0.000626	0.000000	0.000000
56.762001	21.120911	14.800410	-0.084085	0.060406	2.816808	0.000000	-0.002090	0.000000	-0.004040	-0.000626	0.000000	0.000000
57.095334	21.182265	14.767674	-0.099979	0.037802	2.816321	0.000000	-0.002090	0.000000	-0.004249	-0.000626	0.000000	0.000000
57.429918	21.254506	14.749970	-0.115932	0.015113	2.815831	0.000000	-0.002090	0.000000	-0.004458	-0.000626	0.000000	0.000000
57.727240	21.327673	14.746968	-0.187974	0.034830	2.815397	0.000000	0.005549	0.000000	-0.004645	-0.000639	0.000000	0.000000
58.276300	21.169456	14.991417	0.474106	-0.482704	2.795914	0.000000	-0.077495	0.000000	-0.004953	-0.000483	0.000000	0.000000
58.825360	20.298474	15.819567	1.102696	-1.034612	2.731063	0.000000	-0.159173	0.000000	-0.005174	-0.000319	0.000000	0.000000
59.374420	18.776241	17.290390	1.653406	-1.660202	2.621990	0.000000	-0.238032	0.000000	-0.005303	-0.000150	0.000000	0.000000
59.923480	16.710251	19.508634	2.087352	-2.404025	2.470627	0.000000	-0.312673	0.000000	-0.005337	0.000023	0.000000	0.000000
60.369440	15.091805	21.479986	1.554747	-1.997958	2.346604	0.000000	-0.243937	0.000000	-0.005358	-0.000116	0.000000	0.000000
60.810400	13.926821	23.029221	1.097327	-1.502265	2.253671	0.000000	-0.178360	0.000000	-0.005440	-0.000255	0.000000	0.000000
61.251360	13.141653	24.109408	0.690031	-0.938232	2.189238	0.000000	-0.114811	0.000000	-0.005583	-0.000397	0.000000	0.000000
61.692320	12.700435	24.671410	0.314256	-0.331518	2.152573	0.000000	-0.052566	0.000000	-0.005790	-0.000544	0.000000	0.000000
62.134530	12.583064	24.689071	-0.014661	0.226508	2.143268	0.000000	0.003534	0.000000	-0.006064	-0.000681	0.000000	0.000000
62.431853	12.598809	24.558143	-0.038295	0.213848	2.144521	0.000000	0.003534	0.000000	-0.006267	-0.000681	0.000000	0.000000
62.765186	12.633171	24.420309	-0.064791	0.199654	2.145926	0.000000	0.003534	0.000000	-0.006494	-0.000681	0.000000	0.000000
63.098520	12.685197	24.291938	-0.091287	0.185460	2.147331	0.000000	0.003534	0.000000	-0.006721	-0.000681	0.000000	0.000000
63.433103	12.755182	24.172602	-0.117883	0.171213	2.148742	0.000000	0.003534	0.000000	-0.006949	-0.000681	0.000000	0.000000
63.730426	12.832288	24.074591	-0.107962	0.095366	2.149993	0.000000	-0.002088	0.000000	-0.007152	-0.000663	0.000000	0.000000
64.171386	13.089998	23.725465	-0.479024	0.693446	2.163024	0.000000	0.059784	0.000000	-0.007485	-0.000852	0.000000	0.000000
64.612346	13.683252	22.860887	-0.871957	1.259979	2.203543	0.000000	0.122346	0.000000	-0.007904	-0.001050	0.000000	0.000000
65.053306	14.639132	21.520197	-1.304704	1.769194	2.272015	0.000000	0.186312	0.000000	-0.008413	-0.001260	0.000000	0.000000
65.494266	16.001275	19.764391	-1.797027	2.197927	2.369226	0.000000	0.252413	0.000000	-0.009017	-0.001485	0.000000	0.000000
65.940226	17.855211	17.648463	-2.375894	2.527225	2.497876	0.000000	0.321776	0.000000	-0.009733	-0.001728	0.000000	0.000000
66.489286	20.228931	15.281900	-1.923229	1.809043	2.654832	0.000000	0.246177	0.000000	-0.010593	-0.001399	0.000000	0.000000
67.038346	22.027751	13.628959	-1.334807	1.219684	2.768835	0.000000	0.166189	0.000000	-0.011265	-0.001045	0.000000	0.000000
67.587406	23.124728	12.571919	-0.652169	0.717176	2.837854	0.000000	0.083238	0.000000	-0.011737	-0.000672	0.000000	0.000000
68.136466	23.442458	12.035497	0.076496	0.265737	2.860659	0.000000	-0.001200	0.000000	-0.012000	-0.000288	0.000000	0.000000
68.435038	23.440620	11.864303	-0.003457	0.273249	2.862840	0.000000	0.007003	0.000000	-0.012096	-0.000321	0.000000	0.000000
68.768372	23.447666	11.692202	-0.017678	0.243056	2.865281	0.000000	0.007003	0.000000	-0.012203	-0.000321	0.000000	0.000000
69.101705	23.464191	11.540229	-0.031898	0.212863	2.867722	0.000000	0.007003	0.000000	-0.012310	-0.000321	0.000000	0.000000
69.436288	23.490312	11.407928	-0.046172	0.182556	2.870172	0.000000	0.007003	0.000000	-0.012417	-0.000321	0.000000	0.000000
69.733611	23.521648	11.307327	-0.126541	0.188108	2.872356	0.000000	0.015268	0.000000	-0.012513	-0.000355	0.000000	0.000000
70.282671	23.256684	11.327389	0.606248	-0.224869	2.857480	0.000000	-0.069676	0.000000	-0.012596	0.000052	0.000000	0.000000
