#ParticleID	Turn	x[m]	xp	y[m]	yp	z[m]	dE[GeV]# s	beta_x	beta_y	alpha_x	alpha_y	D_x	D_y	D_px	D_py	orbit_x	orbit_px	orbit_y	orbit_py
0.300000	11.953900	25.233004	-0.015575	-0.024168	2.600212	0.000000	-0.001008	0.000000	-0.001185	0.001006	0.000000	0.000000
0.601250	11.970877	25.251164	-0.040782	-0.036114	2.599605	0.000000	-0.001008	0.000000	-0.000882	0.001006	0.000000	0.000000
0.898573	12.002525	25.276144	-0.036065	-0.109865	2.599006	0.000000	-0.007416	0.000000	-0.000582	0.001008	0.000000	0.000000
1.339533	12.188096	25.092547	-0.386023	0.524640	2.611493	0.000000	0.066035	0.000000	-0.000140	0.000999	0.000000	0.000000
1.780493	12.688893	24.357793	-0.753625	1.135278	2.656503	0.000000	0.140227	0.000000	0.000300	0.001001	0.000000	0.000000
2.221453	13.527806	23.105301	-1.155667	1.694265	2.734545	0.000000	0.216007	0.000000	0.000744	0.001014	0.000000	0.000000
2.662413	14.743174	21.392052	-1.610519	2.176166	2.846504	0.000000	0.294235	0.000000	0.001196	0.001039	0.000000	0.000000
3.108373	16.411544	19.270875	-2.143330	2.560231	2.995489	0.000000	0.376296	0.000000	0.001667	0.001076	0.000000	0.000000
3.657433	18.550054	16.888142	-1.727834	1.804920	3.176524	0.000000	0.284148	0.000000	0.002241	0.001013	0.000000	0.000000
4.206493	20.162163	15.259799	-1.190261	1.178171	3.305546	0.000000	0.186975	0.000000	0.002776	0.000932	0.000000	0.000000
4.755553	21.133957	14.269870	-0.568584	0.635344	3.380275	0.000000	0.086501	0.000000	0.003261	0.000834	0.000000	0.000000
5.304613	21.396758	13.847854	0.093277	0.137771	3.399391	0.000000	-0.015494	0.000000	0.003689	0.000721	0.000000	0.000000
5.603185	21.377565	13.751374	0.025139	0.150476	3.397115	0.000000	-0.006889	0.000000	0.003907	0.000731	0.000000	0.000000
5.936519	21.366006	13.659319	0.009537	0.125687	3.394576	0.000000	-0.006889	0.000000	0.004150	0.000731	0.000000	0.000000
6.269852	21.364849	13.583790	-0.006066	0.100899	3.392036	0.000000	-0.006889	0.000000	0.004394	0.000731	0.000000	0.000000
6.604435	21.374148	13.524597	-0.021727	0.076017	3.389486	0.000000	-0.006889	0.000000	0.004638	0.000731	0.000000	0.000000
6.901758	21.391221	13.485959	-0.089229	0.087835	3.387222	0.000000	0.001596	0.000000	0.004856	0.000743	0.000000	0.000000
7.450818	21.124575	13.651199	0.572362	-0.390540	3.359853	0.000000	-0.099875	0.000000	0.005219	0.000580	0.000000	0.000000
7.999878	20.149307	14.353897	1.193528	-0.896738	3.277262	0.000000	-0.199566	0.000000	0.005490	0.000406	0.000000	0.000000
8.548938	18.534313	15.644118	1.730378	-1.466820	3.140916	0.000000	-0.295709	0.000000	0.005664	0.000226	0.000000	0.000000
9.097998	16.393700	17.613780	2.144977	-2.141399	2.953240	0.000000	-0.386603	0.000000	0.005737	0.000041	0.000000	0.000000
9.543958	14.723989	19.368610	1.612173	-1.776595	2.798899	0.000000	-0.305681	0.000000	0.005789	0.000190	0.000000	0.000000
9.984918	13.507236	20.744870	1.157500	-1.332322	2.681059	0.000000	-0.228743	0.000000	0.005906	0.000341	0.000000	0.000000
10.425878	12.666768	21.700949	0.755721	-0.827418	2.596476	0.000000	-0.154415	0.000000	0.006090	0.000496	0.000000	0.000000
10.866838	12.164176	22.193336	0.388473	-0.284859	2.544185	0.000000	-0.081851	0.000000	0.006344	0.000656	0.000000	0.000000
11.309048	11.976345	22.199042	0.066356	0.219402	2.523568	0.000000	-0.016018	0.000000	0.006671	0.000808	0.000000	0.000000
11.606371	11.944300	22.072749	0.041421	0.205364	2.518565	0.000000	-0.016018	0.000000	0.006911	0.000808	0.000000	0.000000
12.086371	11.923859	21.886478	0.001166	0.182701	2.510489	0.000000	-0.016018	0.000000	0.007299	0.000808	0.000000	0.000000
12.566371	11.942062	21.721964	-0.039090	0.160037	2.502413	0.000000	-0.016018	0.000000	0.007687	0.000808	0.000000	0.000000
13.046371	11.998911	21.579206	-0.079345	0.137374	2.494336	0.000000	-0.016018	0.000000	0.008075	0.000808	0.000000	0.000000
13.526371	12.094406	21.458206	-0.119601	0.114710	2.486260	0.000000	-0.016018	0.000000	0.008462	0.000808	0.000000	0.000000
14.007621	12.228945	21.358732	-0.159961	0.091988	2.478163	0.000000	-0.016018	0.000000	0.008851	0.000808	0.000000	0.000000
14.304943	12.331449	21.308258	-0.157320	0.030529	2.473157	0.000000	-0.021548	0.000000	0.009091	0.000787	0.000000	0.000000
14.745903	12.628536	21.048195	-0.518552	0.556913	2.478729	0.000000	0.048587	0.000000	0.009491	0.001026	0.000000	0.000000
15.186863	13.253506	20.333282	-0.903494	1.057955	2.515218	0.000000	0.119265	0.000000	0.009998	0.001277	0.000000	0.000000
15.627823	14.234941	19.196045	-1.329743	1.510850	2.583036	0.000000	0.191289	0.000000	0.010620	0.001543	0.000000	0.000000
16.068783	15.617725	17.688230	-1.816785	1.894986	2.682950	0.000000	0.265475	0.000000	0.011362	0.001827	0.000000	0.000000
16.514743	17.488756	15.856737	-2.391867	2.193872	2.817777	0.000000	0.343162	0.000000	0.012244	0.002133	0.000000	0.000000
17.063803	19.891541	13.812307	-1.956547	1.550935	2.981802	0.000000	0.257018	0.000000	0.013304	0.001719	0.000000	0.000000
17.612863	21.736889	12.409538	-1.382911	1.018501	3.097432	0.000000	0.166340	0.000000	0.014127	0.001274	0.000000	0.000000
18.161923	22.894309	11.548500	-0.711507	0.558637	3.162628	0.000000	0.072732	0.000000	0.014699	0.000807	0.000000	0.000000
18.710983	23.281950	11.167854	0.010205	0.138577	3.176238	0.000000	-0.022154	0.000000	0.015011	0.000326	0.000000	0.000000
19.009556	23.311114	11.078260	-0.055521	0.136434	3.171659	0.000000	-0.014940	0.000000	0.015119	0.000363	0.000000	0.000000
19.342889	23.352910	10.997520	-0.069865	0.105785	3.166558	0.000000	-0.014940	0.000000	0.015240	0.000363	0.000000	0.000000
19.676223	23.404267	10.937213	-0.084208	0.075136	3.161457	0.000000	-0.014940	0.000000	0.015361	0.000363	0.000000	0.000000
20.010806	23.465724	10.897092	-0.214868	0.098363	3.156356	0.000000	0.000698	0.000000	0.015482	0.000439	0.000000	0.000000
20.308129	23.597604	10.846714	-0.281374	0.095370	3.156445	0.000000	0.007821	0.000000	0.015613	0.000477	0.000000	0.000000
20.857189	23.499815	10.962181	0.458533	-0.306863	3.134747	0.000000	-0.086294	0.000000	0.015735	-0.000031	0.000000	0.000000
21.406249	22.602214	11.528791	1.166029	-0.730964	3.061975	0.000000	-0.178879	0.000000	0.015579	-0.000538	0.000000	0.000000
21.955309	20.968269	12.586918	1.791095	-1.207150	2.939419	0.000000	-0.268298	0.000000	0.015146	-0.001036	0.000000	0.000000
22.504369	18.713522	14.211947	2.289544	-1.769353	2.769247	0.000000	-0.352973	0.000000	0.014445	-0.001515	0.000000	0.000000
22.950329	16.938598	15.671669	1.702729	-1.489191	2.629473	0.000000	-0.276596	0.000000	0.013851	-0.001148	0.000000	0.000000
23.391289	15.663544	16.836742	1.198766	-1.142368	2.524035	0.000000	-0.203854	0.000000	0.013422	-0.000797	0.000000	0.000000
23.832249	14.807354	17.671693	0.749611	-0.743550	2.449994	0.000000	-0.133426	0.000000	0.013147	-0.000454	0.000000	0.000000
24.273209	14.330872	18.138522	0.334726	-0.310890	2.406507	0.000000	-0.064514	0.000000	0.013021	-0.000117	0.000000	0.000000
24.715418	14.212464	18.215653	-0.034534	0.096822	2.393083	0.000000	-0.001455	0.000000	0.013044	0.000189	0.000000	0.000000
25.012741	14.239227	18.162976	-0.055479	0.080347	2.392594	0.000000	-0.001455	0.000000	0.013100	0.000189	0.000000	0.000000
25.346075	14.284040	18.115569	-0.078961	0.061876	2.392046	0.000000	-0.001455	0.000000	0.013163	0.000189	0.000000	0.000000
25.679408	14.344508	18.080475	-0.102442	0.043405	2.391498	0.000000	-0.001455	0.000000	0.013226	0.000189	0.000000	0.000000
26.013991	14.420652	18.057999	-0.009022	-0.121630	2.390924	0.000000	-0.020852	0.000000	0.013289	0.000081	0.000000	0.000000
26.311314	14.432073	18.135388	0.001140	-0.177006	2.384694	0.000000	-0.025938	0.000000	0.013314	0.000051	0.000000	0.000000
26.752274	14.609565	18.094991	-0.405011	0.268251	2.388114	0.000000	0.041896	0.000000	0.013412	0.000395	0.000000	0.000000
27.193234	15.152167	17.665741	-0.829680	0.701300	2.421381	0.000000	0.110203	0.000000	0.013663	0.000745	0.000000	0.000000
27.634194	16.084696	16.867171	-1.292285	1.102429	2.484872	0.000000	0.179758	0.000000	0.014070	0.001102	0.000000	0.000000
28.075154	17.449807	15.735622	-1.813977	1.453381	2.579306	0.000000	0.251349	0.000000	0.014637	0.001472	0.000000	0.000000
28.521114	19.334004	14.305317	-2.423850	1.739387	2.707365	0.000000	0.326275	0.000000	0.015380	0.001862	0.000000	0.000000
29.070174	21.730316	12.712428	-1.912748	1.178201	2.863294	0.000000	0.243834	0.000000	0.016263	0.001349	0.000000	0.000000
29.619234	23.487073	11.686465	-1.266415	0.700969	2.972978	0.000000	0.157087	0.000000	0.016857	0.000812	0.000000	0.000000
30.168294	24.480036	11.154333	-0.530545	0.273687	3.034475	0.000000	0.067567	0.000000	0.017153	0.000261	0.000000	0.000000
30.717354	24.638980	11.078118	0.242834	-0.134092	3.046699	0.000000	-0.023149	0.000000	0.017143	-0.000295	0.000000	0.000000
31.015927	24.530173	11.151712	0.175582	-0.136720	3.041869	0.000000	-0.016385	0.000000	0.017068	-0.000253	0.000000	0.000000
31.349260	24.417787	11.253008	0.161575	-0.167169	3.036492	0.000000	-0.016385	0.000000	0.016983	-0.000253	0.000000	0.000000
31.682593	24.314740	11.374604	0.147567	-0.197619	3.031115	0.000000	-0.016385	0.000000	0.016899	-0.000253	0.000000	0.000000
32.017177	24.220697	11.517071	0.133507	-0.228183	3.025717	0.000000	-0.016385	0.000000	0.016814	-0.000253	0.000000	0.000000
32.314499	24.145221	11.660738	0.067165	-0.229375	3.020933	0.000000	-0.009648	0.000000	0.016739	-0.000213	0.000000	0.000000
32.863559	23.657937	12.150790	0.814526	-0.668212	2.991242	0.000000	-0.099244	0.000000	0.016474	-0.000751	0.000000	0.000000
33.412619	22.376512	13.146013	1.504295	-1.154664	2.913035	0.000000	-0.187091	0.000000	0.015917	-0.001276	0.000000	0.000000
33.961679	20.391574	14.717312	2.087706	-1.723393	2.787693	0.000000	-0.271639	0.000000	0.015077	-0.001778	0.000000	0.000000
34.510739	17.843496	16.976629	2.523519	-2.414919	2.617428	0.000000	-0.351395	0.000000	0.013970	-0.002249	0.000000	0.000000
34.956699	15.863856	18.998008	1.929290	-2.097730	2.477802	0.000000	-0.278965	0.000000	0.013046	-0.001898	0.000000	0.000000
35.397659	14.388206	20.673217	1.428490	-1.686123	2.370780	0.000000	-0.210157	0.000000	0.012281	-0.001572	0.000000	0.000000
35.838619	13.324032	21.949980	0.993002	-1.197777	2.293419	0.000000	-0.143728	0.000000	0.011657	-0.001263	0.000000	0.000000
36.279579	12.622660	22.770201	0.602916	-0.654919	2.244843	0.000000	-0.078922	0.000000	0.011165	-0.000969	0.000000	0.000000
36.721789	12.251386	23.096812	0.267175	-0.132782	2.224483	0.000000	-0.019887	0.000000	0.010800	-0.000711	0.000000	0.000000
37.019112	12.100242	23.179665	0.241174	-0.145882	2.218782	0.000000	-0.019887	0.000000	0.010588	-0.000711	0.000000	0.000000
37.352445	11.949176	23.281815	0.212024	-0.160568	2.212389	0.000000	-0.019887	0.000000	0.010352	-0.000711	0.000000	0.000000
37.685779	11.817543	23.393756	0.182874	-0.175255	2.205997	0.000000	-0.019887	0.000000	0.010115	-0.000711	0.000000	0.000000
38.020362	11.704959	23.515963	0.153615	-0.189996	2.199581	0.000000	-0.019887	0.000000	0.009877	-0.000711	0.000000	0.000000
38.317684	11.621312	23.632903	0.153445	-0.255863	2.193876	0.000000	-0.024764	0.000000	0.009666	-0.000733	0.000000	0.000000
38.758644	11.634835	23.596713	-0.184427	0.337612	2.197084	0.000000	0.038140	0.000000	0.009397	-0.000488	0.000000	0.000000
39.199604	11.948983	23.041857	-0.530725	0.915721	2.228000	0.000000	0.101484	0.000000	0.009235	-0.000247	0.000000	0.000000
39.640564	12.578114	21.993592	-0.901277	1.452153	2.286978	0.000000	0.165987	0.000000	0.009178	-0.000010	0.000000	0.000000
40.081524	13.550986	20.499625	-1.313023	1.922496	2.374692	0.000000	0.232380	0.000000	0.009226	0.000227	0.000000	0.000000
40.527484	14.929673	18.605220	-1.788762	2.306871	2.493623	0.000000	0.301852	0.000000	0.009381	0.000469	0.000000	0.000000
41.076544	16.691659	16.476121	-1.400756	1.593213	2.638747	0.000000	0.226532	0.000000	0.009554	0.000162	0.000000	0.000000
41.625604	17.970217	15.064241	-0.913765	0.993066	2.741508	0.000000	0.147196	0.000000	0.009558	-0.000148	0.000000	0.000000
42.174664	18.674984	14.268991	-0.362207	0.463672	2.800082	0.000000	0.065245	0.000000	0.009393	-0.000455	0.000000	0.000000
42.723724	18.756158	14.033710	0.214938	-0.032684	2.813429	0.000000	-0.017870	0.000000	0.009060	-0.000754	0.000000	0.000000
43.022297	18.659640	14.039328	0.153368	-0.019988	2.810332	0.000000	-0.011091	0.000000	0.008842	-0.000731	0.000000	0.000000
43.502297	18.525045	14.074934	0.127039	-0.054192	2.805359	0.000000	-0.011091	0.000000	0.008491	-0.000731	0.000000	0.000000
43.982297	18.415726	14.143376	0.100709	-0.088395	2.800386	0.000000	-0.011091	0.000000	0.008140	-0.000731	0.000000	0.000000
44.462297	18.331682	14.244653	0.074380	-0.122598	2.795414	0.000000	-0.011091	0.000000	0.007789	-0.000731	0.000000	0.000000
44.942297	18.272915	14.378764	0.048051	-0.156802	2.790441	0.000000	-0.011091	0.000000	0.007438	-0.000731	0.000000	0.000000
45.423547	18.239595	14.546009	-0.068715	-0.119024	2.785472	0.000000	0.002710	0.000000	0.007086	-0.000696	0.000000	0.000000
45.720870	18.285352	14.622929	-0.130068	-0.103933	2.786487	0.000000	0.009563	0.000000	0.006879	-0.000679	0.000000	0.000000
46.269930	18.119965	15.019828	0.429063	-0.623134	2.769566	0.000000	-0.072615	0.000000	0.006447	-0.000894	0.000000	0.000000
46.818990	17.353576	16.007803	0.957863	-1.186723	2.707915	0.000000	-0.153519	0.000000	0.005900	-0.001095	0.000000	0.000000
47.368050	16.040360	17.657224	1.418967	-1.834850	2.602619	0.000000	-0.231718	0.000000	0.005248	-0.001275	0.000000	0.000000
47.917110	14.273133	20.085571	1.779799	-2.613681	2.455537	0.000000	-0.305827	0.000000	0.004504	-0.001433	0.000000	0.000000
48.363070	12.896915	22.244263	1.316376	-2.206263	2.335059	0.000000	-0.237390	0.000000	0.003889	-0.001324	0.000000	0.000000
48.804030	11.915583	23.973376	0.916940	-1.699857	2.245409	0.000000	-0.172055	0.000000	0.003327	-0.001231	0.000000	0.000000
49.244990	11.266829	25.219902	0.559411	-1.116105	2.184080	0.000000	-0.108666	0.000000	0.002801	-0.001152	0.000000	0.000000
49.685950	10.920997	25.927131	0.227452	-0.481571	2.150377	0.000000	-0.046502	0.000000	0.002308	-0.001086	0.000000	0.000000
50.128160	10.862444	26.062610	-0.068052	0.112409	2.143935	0.000000	0.009978	0.000000	0.001840	-0.001037	0.000000	0.000000
50.425482	10.911087	25.999202	-0.095551	0.100857	2.147211	0.000000	0.009978	0.000000	0.001532	-0.001037	0.000000	0.000000
50.758816	10.985064	25.936281	-0.126380	0.087906	2.150882	0.000000	0.009978	0.000000	0.001186	-0.001037	0.000000	0.000000
51.092149	11.079594	25.881994	-0.157208	0.074954	2.154554	0.000000	0.009978	0.000000	0.000840	-0.001037	0.000000	0.000000
51.426732	11.194919	25.836711	-0.097333	-0.147646	2.158218	0.000000	-0.007531	0.000000	0.000493	-0.001041	0.000000	0.000000
51.724055	11.260769	25.928004	-0.096576	-0.223263	2.156288	0.000000	-0.012810	0.000000	0.000183	-0.001042	0.000000	0.000000
52.165015	11.492552	25.836325	-0.431389	0.430379	2.164744	0.000000	0.049177	0.000000	-0.000276	-0.001043	0.000000	0.000000
52.605975	12.027142	25.174659	-0.785903	1.064434	2.200635	0.000000	0.111736	0.000000	-0.000738	-0.001056	0.000000	0.000000
53.046935	12.888954	23.973121	-1.176313	1.650056	2.264377	0.000000	0.175578	0.000000	-0.001209	-0.001081	0.000000	0.000000
53.487895	14.117346	22.286390	-1.620454	2.160600	2.356698	0.000000	0.241431	0.000000	-0.001694	-0.001119	0.000000	0.000000
53.933855	15.789429	20.165993	-2.142871	2.574139	2.480180	0.000000	0.310441	0.000000	-0.002203	-0.001169	0.000000	0.000000
54.482915	17.941731	17.779669	-1.754580	1.797866	2.630871	0.000000	0.235498	0.000000	-0.002824	-0.001088	0.000000	0.000000
55.031975	19.596666	16.170874	-1.242388	1.149647	2.739151	0.000000	0.156360	0.000000	-0.003394	-0.000987	0.000000	0.000000
55.581035	20.637381	15.225008	-0.642473	0.583311	2.803091	0.000000	0.074432	0.000000	-0.003904	-0.000869	0.000000	0.000000
56.130095	20.990408	14.874691	0.002798	0.058523	2.821551	0.000000	-0.008829	0.000000	-0.004345	-0.000735	0.000000	0.000000
56.428668	21.026915	14.821669	-0.068288	0.078672	2.821417	0.000000	-0.001191	0.000000	-0.004568	-0.000747	0.000000	0.000000
56.762001	21.077749	14.776764	-0.084215	0.056043	2.821269	0.000000	-0.001191	0.000000	-0.004817	-0.000747	0.000000	0.000000
57.095334	21.139201	14.746945	-0.100141	0.033414	2.821121	0.000000	-0.001191	0.000000	-0.005066	-0.000747	0.000000	0.000000
57.429918	21.211561	14.732185	-0.116128	0.010701	2.820973	0.000000	-0.001191	0.000000	-0.005316	-0.000747	0.000000	0.000000
57.727240	21.284859	14.731809	-0.188487	0.030610	2.820842	0.000000	0.006516	0.000000	-0.005538	-0.000762	0.000000	0.000000
58.276300	21.127963	14.980687	0.472167	-0.486601	2.801898	0.000000	-0.076711	0.000000	-0.005906	-0.000576	0.000000	0.000000
58.825360	20.259823	15.813054	1.099466	-1.038464	2.737465	0.000000	-0.158587	0.000000	-0.006169	-0.000381	0.000000	0.000000
59.374420	18.741751	17.288184	1.649116	-1.664279	2.628681	0.000000	-0.237656	0.000000	-0.006322	-0.000178	0.000000	0.000000
59.923480	16.680943	19.511124	2.082309	-2.408614	2.477474	0.000000	-0.312514	0.000000	-0.006364	0.000027	0.000000	0.000000
60.369440	15.066539	21.486731	1.550700	-2.002891	2.353565	0.000000	-0.243603	0.000000	-0.006388	-0.000138	0.000000	0.000000
60.810400	13.904780	23.040350	1.094058	-1.507291	2.260835	0.000000	-0.177846	0.000000	-0.006486	-0.000304	0.000000	0.000000
61.251360	13.122209	24.124910	0.687389	-0.943123	2.196697	0.000000	-0.114111	0.000000	-0.006657	-0.000473	0.000000	0.000000
61.692320	12.683083	24.691076	0.312119	-0.336054	2.160422	0.000000	-0.051671	0.000000	-0.006904	-0.000648	0.000000	0.000000
62.134530	12.567402	24.712505	-0.016101	0.221876	2.151610	0.000000	0.004558	0.000000	-0.007231	-0.000812	0.000000	0.000000
62.431853	12.584013	24.584321	-0.039766	0.209252	2.153207	0.000000	0.004558	0.000000	-0.007472	-0.000812	0.000000	0.000000
62.765186	12.619367	24.449537	-0.066296	0.195100	2.154997	0.000000	0.004558	0.000000	-0.007743	-0.000812	0.000000	0.000000
63.098520	12.672408	24.324188	-0.092827	0.180947	2.156787	0.000000	0.004558	0.000000	-0.008013	-0.000812	0.000000	0.000000
63.433103	12.743435	24.207857	-0.119457	0.166741	2.158583	0.000000	0.004558	0.000000	-0.008285	-0.000812	0.000000	0.000000
63.730426	12.821478	24.112510	-0.109204	0.090050	2.160178	0.000000	-0.001156	0.000000	-0.008527	-0.000790	0.000000	0.000000
64.171386	13.080150	23.767596	-0.480037	0.689261	2.173739	0.000000	0.060983	0.000000	-0.008924	-0.001015	0.000000	0.000000
64.612346	13.674170	22.906156	-0.872785	1.257115	2.214925	0.000000	0.123827	0.000000	-0.009423	-0.001252	0.000000	0.000000
65.053306	14.630651	21.567388	-1.305381	1.767782	2.284210	0.000000	0.188095	0.000000	-0.010030	-0.001502	0.000000	0.000000
65.494266	15.993253	19.812201	-1.797577	2.198036	2.382387	0.000000	0.254520	0.000000	-0.010751	-0.001770	0.000000	0.000000
65.940226	17.847553	17.695506	-2.376285	2.528831	2.512186	0.000000	0.324229	0.000000	-0.011604	-0.002060	0.000000	0.000000
66.489286	20.221778	15.327852	-1.924030	1.809553	2.670514	0.000000	0.248149	0.000000	-0.012629	-0.001667	0.000000	0.000000
67.038346	22.021555	13.674985	-1.335977	1.219128	2.785579	0.000000	0.167642	0.000000	-0.013429	-0.001245	0.000000	0.000000
67.587406	23.119897	12.619190	-0.653639	0.715511	2.855331	0.000000	0.084143	0.000000	-0.013992	-0.000801	0.000000	0.000000
68.136466	23.439319	12.085275	0.074823	0.262841	2.878525	0.000000	-0.000861	0.000000	-0.014306	-0.000343	0.000000	0.000000
68.435038	23.439092	11.915360	-0.006225	0.271216	2.880878	0.000000	0.007527	0.000000	-0.014421	-0.000382	0.000000	0.000000
68.768372	23.447983	11.744561	-0.020447	0.241183	2.883515	0.000000	0.007527	0.000000	-0.014548	-0.000382	0.000000	0.000000
69.101705	23.466354	11.593783	-0.034669	0.211150	2.886152	0.000000	0.007527	0.000000	-0.014676	-0.000382	0.000000	0.000000
69.436288	23.494330	11.462575	-0.048944	0.181004	2.888798	0.000000	0.007527	0.000000	-0.014804	-0.000382	0.000000	0.000000
69.733611	23.527360	11.362832	-0.130478	0.187403	2.891159	0.000000	0.015988	0.000000	-0.014917	-0.000424	0.000000	0.000000
70.282671	23.266602	11.384514	0.602564	-0.227134	2.876529	0.000000	-0.069563	0.000000	-0.015017	0.000061	0.000000	0.000000
