#ParticleID	Turn	x[m]	xp	y[m]	yp	z[m]	dE[GeV]# s	beta_x	beta_y	alpha_x	alpha_y	D_x	D_y	D_px	D_py	orbit_x	orbit_px	orbit_y	orbit_py
0.300000	11.960195	25.323806	-0.019962	-0.021675	2.599317	0.000000	0.000456	0.000000	-0.000858	0.000745	0.000000	0.000000
0.601250	11.979813	25.340450	-0.045160	-0.033576	2.599230	0.000000	0.000456	0.000000	-0.000633	0.000745	0.000000	0.000000
0.898573	12.014062	25.363909	-0.040453	-0.107493	2.599144	0.000000	-0.005943	0.000000	-0.000411	0.000746	0.000000	0.000000
1.339533	12.203616	25.177207	-0.390789	0.529283	2.612393	0.000000	0.067522	0.000000	-0.000084	0.000740	0.000000	0.000000
1.780493	12.708820	24.437430	-0.758985	1.141981	2.658176	0.000000	0.141748	0.000000	0.000242	0.000742	0.000000	0.000000
2.221453	13.552764	23.178230	-1.161863	1.702722	2.737010	0.000000	0.217581	0.000000	0.000572	0.000752	0.000000	0.000000
2.662413	14.774014	21.456895	-1.617831	2.185991	2.849790	0.000000	0.295884	0.000000	0.000907	0.000772	0.000000	0.000000
3.108373	16.449466	19.326518	-2.152095	2.570968	2.999646	0.000000	0.378039	0.000000	0.001257	0.000800	0.000000	0.000000
3.657433	18.597184	16.933382	-1.735901	1.813272	3.181738	0.000000	0.285741	0.000000	0.001684	0.000752	0.000000	0.000000
4.206493	20.217417	15.296913	-1.197069	1.184733	3.311717	0.000000	0.188387	0.000000	0.002081	0.000691	0.000000	0.000000
4.755553	21.195690	14.300555	-0.573659	0.640582	3.387282	0.000000	0.087702	0.000000	0.002440	0.000618	0.000000	0.000000
5.304613	21.462875	13.873345	0.090288	0.142058	3.407099	0.000000	-0.014529	0.000000	0.002757	0.000534	0.000000	0.000000
5.603185	21.445822	13.774068	0.021585	0.155159	3.405196	0.000000	-0.005834	0.000000	0.002918	0.000541	0.000000	0.000000
5.936519	21.436616	13.678890	0.006034	0.130376	3.403071	0.000000	-0.005834	0.000000	0.003099	0.000541	0.000000	0.000000
6.269852	21.437776	13.600233	-0.009516	0.105593	3.400946	0.000000	-0.005834	0.000000	0.003279	0.000541	0.000000	0.000000
6.604435	21.449367	13.537896	-0.025125	0.080718	3.398813	0.000000	-0.005834	0.000000	0.003460	0.000541	0.000000	0.000000
6.901758	21.468439	13.496465	-0.093369	0.092903	3.396918	0.000000	0.002770	0.000000	0.003620	0.000550	0.000000	0.000000
7.450818	21.204843	13.656255	0.570885	-0.385630	3.370197	0.000000	-0.099023	0.000000	0.003889	0.000428	0.000000	0.000000
7.999878	20.229656	14.353475	1.194818	-0.891635	3.288051	0.000000	-0.199052	0.000000	0.004089	0.000299	0.000000	0.000000
8.548938	18.611766	15.637794	1.734345	-1.461158	3.151939	0.000000	-0.295545	0.000000	0.004217	0.000164	0.000000	0.000000
9.097998	16.465476	17.600706	2.151349	-2.134770	2.964279	0.000000	-0.386792	0.000000	0.004269	0.000027	0.000000	0.000000
9.543958	14.790918	19.349525	1.616784	-1.769896	2.809934	0.000000	-0.305592	0.000000	0.004306	0.000138	0.000000	0.000000
9.984918	13.570819	20.719917	1.160537	-1.325831	2.692228	0.000000	-0.228372	0.000000	0.004392	0.000250	0.000000	0.000000
10.425878	12.728315	21.670452	0.757319	-0.821433	2.607922	0.000000	-0.153755	0.000000	0.004527	0.000365	0.000000	0.000000
10.866838	12.224908	22.157876	0.388705	-0.279655	2.556052	0.000000	-0.080893	0.000000	0.004714	0.000484	0.000000	0.000000
11.309048	12.037439	22.159430	0.065866	0.222836	2.536009	0.000000	-0.014882	0.000000	0.004956	0.000597	0.000000	0.000000
11.606371	12.005648	22.031108	0.041059	0.208753	2.531406	0.000000	-0.014882	0.000000	0.005134	0.000597	0.000000	0.000000
12.086371	11.985455	21.841620	0.001010	0.186016	2.523976	0.000000	-0.014882	0.000000	0.005420	0.000597	0.000000	0.000000
12.566371	12.003709	21.673958	-0.039039	0.163279	2.516546	0.000000	-0.014882	0.000000	0.005707	0.000597	0.000000	0.000000
13.046371	12.060409	21.528124	-0.079087	0.140542	2.509116	0.000000	-0.014882	0.000000	0.005994	0.000597	0.000000	0.000000
13.526371	12.155556	21.404117	-0.119136	0.117805	2.501686	0.000000	-0.014882	0.000000	0.006280	0.000597	0.000000	0.000000
14.007621	12.289548	21.301700	-0.159289	0.095009	2.494236	0.000000	-0.014882	0.000000	0.006568	0.000597	0.000000	0.000000
14.304943	12.391627	21.249419	-0.155681	0.032372	2.489632	0.000000	-0.020591	0.000000	0.006745	0.000581	0.000000	0.000000
14.745903	12.687802	20.988456	-0.518219	0.557125	2.495820	0.000000	0.049973	0.000000	0.007040	0.000759	0.000000	0.000000
15.186863	13.312973	20.274107	-0.904447	1.056527	2.533144	0.000000	0.121098	0.000000	0.007416	0.000945	0.000000	0.000000
15.627823	14.295725	19.138875	-1.332017	1.507850	2.602026	0.000000	0.193593	0.000000	0.007876	0.001142	0.000000	0.000000
16.068783	15.680991	17.634413	-1.820474	1.890555	2.703247	0.000000	0.268281	0.000000	0.008425	0.001353	0.000000	0.000000
16.514743	17.555731	15.807596	-2.397074	2.188133	2.839652	0.000000	0.346501	0.000000	0.009079	0.001580	0.000000	0.000000
17.063803	19.962735	13.768613	-1.959460	1.546873	3.005568	0.000000	0.259626	0.000000	0.009863	0.001273	0.000000	0.000000
17.612863	21.809712	12.369597	-1.383355	1.015818	3.122617	0.000000	0.168166	0.000000	0.010472	0.000943	0.000000	0.000000
18.161923	22.966095	11.510890	-0.709472	0.557135	3.188730	0.000000	0.073738	0.000000	0.010896	0.000597	0.000000	0.000000
18.710983	23.350130	11.131319	0.014562	0.138147	3.202740	0.000000	-0.021990	0.000000	0.011126	0.000240	0.000000	0.000000
19.009556	23.378109	11.041414	-0.053402	0.136853	3.198347	0.000000	-0.014425	0.000000	0.011206	0.000268	0.000000	0.000000
19.342889	23.418477	10.960430	-0.067701	0.106098	3.193450	0.000000	-0.014425	0.000000	0.011295	0.000268	0.000000	0.000000
19.676223	23.468377	10.899950	-0.082000	0.075343	3.188552	0.000000	-0.014425	0.000000	0.011384	0.000268	0.000000	0.000000
20.010806	23.528342	10.859726	-0.212925	0.098279	3.183656	0.000000	0.001349	0.000000	0.011474	0.000325	0.000000	0.000000
20.308129	23.658977	10.809462	-0.281771	0.096113	3.183967	0.000000	0.008836	0.000000	0.011571	0.000353	0.000000	0.000000
20.857189	23.560534	10.923521	0.460086	-0.305041	3.162616	0.000000	-0.086165	0.000000	0.011662	-0.000023	0.000000	0.000000
21.406249	22.660277	11.487448	1.169427	-0.727929	3.089636	0.000000	-0.179638	0.000000	0.011545	-0.000399	0.000000	0.000000
21.955309	21.021847	12.541418	1.796116	-1.202681	2.966321	0.000000	-0.269930	0.000000	0.011225	-0.000768	0.000000	0.000000
22.504369	18.761067	14.160518	2.295860	-1.763122	2.794856	0.000000	-0.355446	0.000000	0.010704	-0.001123	0.000000	0.000000
22.950329	16.981353	15.615135	1.707758	-1.484321	2.653987	0.000000	-0.278436	0.000000	0.010264	-0.000851	0.000000	0.000000
23.391289	15.702499	16.776502	1.202650	-1.139000	2.547773	0.000000	-0.205078	0.000000	0.009947	-0.000591	0.000000	0.000000
23.832249	14.843398	17.609164	0.752517	-0.741842	2.473259	0.000000	-0.134050	0.000000	0.009742	-0.000337	0.000000	0.000000
24.273209	14.364772	18.075230	0.336783	-0.310923	2.429598	0.000000	-0.064546	0.000000	0.009649	-0.000087	0.000000	0.000000
24.715418	14.244855	18.153205	-0.031986	0.093690	2.416295	0.000000	-0.001147	0.000000	0.009666	0.000139	0.000000	0.000000
25.012741	14.270087	18.102405	-0.052879	0.077168	2.415912	0.000000	-0.001147	0.000000	0.009707	0.000139	0.000000	0.000000
25.346075	14.313148	18.057134	-0.076304	0.058644	2.415484	0.000000	-0.001147	0.000000	0.009754	0.000139	0.000000	0.000000
25.679408	14.371826	18.024213	-0.099728	0.040121	2.415055	0.000000	-0.001147	0.000000	0.009800	0.000139	0.000000	0.000000
26.013991	14.446134	18.003951	-0.006043	-0.124529	2.414600	0.000000	-0.020736	0.000000	0.009847	0.000060	0.000000	0.000000
26.311314	14.455806	18.083039	0.005433	-0.181392	2.408414	0.000000	-0.026077	0.000000	0.009864	0.000037	0.000000	0.000000
26.752274	14.629695	18.047138	-0.401149	0.262487	2.411932	0.000000	0.042364	0.000000	0.009937	0.000292	0.000000	0.000000
27.193234	15.168959	17.623506	-0.826068	0.694421	2.445602	0.000000	0.111284	0.000000	0.010122	0.000550	0.000000	0.000000
27.634194	16.098253	16.831422	-1.288749	1.094752	2.509806	0.000000	0.181467	0.000000	0.010423	0.000815	0.000000	0.000000
28.075154	17.460071	15.706928	-1.810345	1.445259	2.605273	0.000000	0.253708	0.000000	0.010843	0.001089	0.000000	0.000000
28.521114	19.340567	14.284109	-2.419844	1.731114	2.734705	0.000000	0.329307	0.000000	0.011393	0.001378	0.000000	0.000000
29.070174	21.731839	12.699630	-1.908140	1.171240	2.892266	0.000000	0.245965	0.000000	0.012046	0.000998	0.000000	0.000000
29.619234	23.483160	11.680890	-1.261564	0.694815	3.003004	0.000000	0.158274	0.000000	0.012486	0.000601	0.000000	0.000000
30.168294	24.470714	11.155311	-0.525816	0.267897	3.064957	0.000000	0.067785	0.000000	0.012704	0.000192	0.000000	0.000000
30.717354	24.624681	11.085452	0.247098	-0.139934	3.077031	0.000000	-0.023904	0.000000	0.012696	-0.000219	0.000000	0.000000
31.015927	24.514955	11.161797	0.177274	-0.141404	3.072079	0.000000	-0.016749	0.000000	0.012640	-0.000188	0.000000	0.000000
31.349260	24.401447	11.266219	0.163250	-0.171865	3.066559	0.000000	-0.016749	0.000000	0.012578	-0.000188	0.000000	0.000000
31.682593	24.297289	11.390949	0.149225	-0.202325	3.061038	0.000000	-0.016749	0.000000	0.012515	-0.000188	0.000000	0.000000
32.017177	24.202142	11.536569	0.135148	-0.232901	3.055497	0.000000	-0.016749	0.000000	0.012452	-0.000188	0.000000	0.000000
32.314499	24.125605	11.683088	0.066365	-0.232847	3.050580	0.000000	-0.009633	0.000000	0.012396	-0.000157	0.000000	0.000000
32.863559	23.639673	12.177340	0.813020	-0.672489	3.020573	0.000000	-0.100173	0.000000	0.012201	-0.000556	0.000000	0.000000
33.412619	22.360409	13.177778	1.502205	-1.160046	2.941466	0.000000	-0.188945	0.000000	0.011788	-0.000944	0.000000	0.000000
33.961679	20.378260	14.755671	2.085207	-1.730255	2.814658	0.000000	-0.274379	0.000000	0.011166	-0.001316	0.000000	0.000000
34.510739	17.833358	17.023426	2.520821	-2.423739	2.642390	0.000000	-0.354967	0.000000	0.010347	-0.001665	0.000000	0.000000
34.956699	15.856165	19.052246	1.927141	-2.105882	2.501090	0.000000	-0.281925	0.000000	0.009663	-0.001405	0.000000	0.000000
35.397659	14.382403	20.734095	1.426699	-1.693150	2.392704	0.000000	-0.212540	0.000000	0.009097	-0.001163	0.000000	0.000000
35.838619	13.319799	22.016385	0.991474	-1.203365	2.314261	0.000000	-0.145564	0.000000	0.008634	-0.000935	0.000000	0.000000
36.279579	12.619765	22.840770	0.601572	-0.658817	2.264869	0.000000	-0.080237	0.000000	0.008271	-0.000717	0.000000	0.000000
36.721789	12.249651	23.170038	0.266781	-0.136609	2.243947	0.000000	-0.020893	0.000000	0.008000	-0.000526	0.000000	0.000000
37.019112	12.098741	23.255158	0.240781	-0.149681	2.237891	0.000000	-0.020893	0.000000	0.007844	-0.000526	0.000000	0.000000
37.352445	11.947936	23.359831	0.211633	-0.164336	2.231102	0.000000	-0.020893	0.000000	0.007668	-0.000526	0.000000	0.000000
37.685779	11.816564	23.474273	0.182484	-0.178991	2.224313	0.000000	-0.020893	0.000000	0.007493	-0.000526	0.000000	0.000000
38.020362	11.704240	23.598969	0.153227	-0.193701	2.217499	0.000000	-0.020893	0.000000	0.007317	-0.000526	0.000000	0.000000
38.317684	11.620837	23.718075	0.153761	-0.261105	2.211442	0.000000	-0.025942	0.000000	0.007161	-0.000543	0.000000	0.000000
38.758644	11.634089	23.685505	-0.184074	0.334678	2.214159	0.000000	0.037404	0.000000	0.006962	-0.000361	0.000000	0.000000
39.199604	11.947908	23.132185	-0.530319	0.915230	2.244804	0.000000	0.101181	0.000000	0.006842	-0.000183	0.000000	0.000000
39.640564	12.576635	22.083297	-0.900799	1.454131	2.303727	0.000000	0.166112	0.000000	0.006800	-0.000007	0.000000	0.000000
40.081524	13.549006	20.586575	-1.312446	1.926857	2.391600	0.000000	0.232935	0.000000	0.006835	0.000169	0.000000	0.000000
40.527484	14.927014	18.687393	-1.788005	2.313374	2.510908	0.000000	0.302839	0.000000	0.006950	0.000347	0.000000	0.000000
41.076544	16.688122	16.552628	-1.400074	1.597226	2.656458	0.000000	0.226958	0.000000	0.007079	0.000120	0.000000	0.000000
41.625604	17.965954	15.137624	-0.913217	0.994867	2.759294	0.000000	0.147052	0.000000	0.007082	-0.000109	0.000000	0.000000
42.174664	18.670212	14.341575	-0.361838	0.463385	2.817591	0.000000	0.064536	0.000000	0.006959	-0.000337	0.000000	0.000000
42.723724	18.751135	14.107769	0.215100	-0.035083	2.830312	0.000000	-0.019130	0.000000	0.006713	-0.000558	0.000000	0.000000
43.022297	18.655134	14.114237	0.152537	-0.021382	2.826842	0.000000	-0.012159	0.000000	0.006552	-0.000541	0.000000	0.000000
43.502297	18.521336	14.151095	0.126208	-0.055406	2.821265	0.000000	-0.012159	0.000000	0.006292	-0.000541	0.000000	0.000000
43.982297	18.412813	14.220616	0.099879	-0.089430	2.815689	0.000000	-0.012159	0.000000	0.006032	-0.000541	0.000000	0.000000
44.462297	18.329567	14.322800	0.073551	-0.123453	2.810113	0.000000	-0.012159	0.000000	0.005772	-0.000541	0.000000	0.000000
44.942297	18.271596	14.457646	0.047222	-0.157477	2.804536	0.000000	-0.012159	0.000000	0.005512	-0.000541	0.000000	0.000000
45.423547	18.239075	14.625453	-0.069542	-0.119126	2.798962	0.000000	0.001709	0.000000	0.005252	-0.000515	0.000000	0.000000
45.720870	18.285312	14.702410	-0.131631	-0.103099	2.799625	0.000000	0.008707	0.000000	0.005099	-0.000502	0.000000	0.000000
46.269930	18.121707	15.099663	0.427515	-0.624636	2.782013	0.000000	-0.073881	0.000000	0.004779	-0.000662	0.000000	0.000000
46.818990	17.357048	16.090589	0.956445	-1.190667	2.719424	0.000000	-0.155169	0.000000	0.004374	-0.000811	0.000000	0.000000
47.368050	16.045376	17.745766	1.417790	-1.841514	2.612964	0.000000	-0.233718	0.000000	0.003891	-0.000944	0.000000	0.000000
47.917110	14.279383	20.183086	1.778956	-2.623537	2.464514	0.000000	-0.308136	0.000000	0.003340	-0.001062	0.000000	0.000000
48.363070	12.904001	22.349494	1.315531	-2.213711	2.342902	0.000000	-0.239487	0.000000	0.002884	-0.000981	0.000000	0.000000
48.804030	11.923507	24.083954	0.916028	-1.704539	2.252231	0.000000	-0.173963	0.000000	0.002468	-0.000912	0.000000	0.000000
49.244990	11.275656	25.333292	0.558387	-1.117810	2.189966	0.000000	-0.110411	0.000000	0.002079	-0.000853	0.000000	0.000000
49.685950	10.930839	26.040671	0.226266	-0.480221	2.155401	0.000000	-0.048108	0.000000	0.001714	-0.000804	0.000000	0.000000
50.128160	10.873465	26.173621	-0.069310	0.116099	2.148159	0.000000	0.008456	0.000000	0.001367	-0.000768	0.000000	0.000000
50.425482	10.922849	26.108007	-0.096785	0.104586	2.150901	0.000000	0.008456	0.000000	0.001139	-0.000768	0.000000	0.000000
50.758816	10.997640	26.042585	-0.127588	0.091679	2.153976	0.000000	0.008456	0.000000	0.000883	-0.000768	0.000000	0.000000
51.092149	11.092966	25.985768	-0.158391	0.078772	2.157051	0.000000	0.008456	0.000000	0.000627	-0.000768	0.000000	0.000000
51.426732	11.209073	25.937918	-0.098374	-0.144605	2.160115	0.000000	-0.009068	0.000000	0.000370	-0.000771	0.000000	0.000000
51.724055	11.275534	26.027386	-0.097541	-0.220336	2.157649	0.000000	-0.014352	0.000000	0.000140	-0.000771	0.000000	0.000000
52.165015	11.508362	25.931976	-0.432716	0.435882	2.165315	0.000000	0.047660	0.000000	-0.000200	-0.000772	0.000000	0.000000
52.605975	12.044346	25.264406	-0.787654	1.072265	2.200423	0.000000	0.110223	0.000000	-0.000542	-0.000782	0.000000	0.000000
53.046935	12.907965	24.055059	-1.178571	1.659859	2.263376	0.000000	0.174050	0.000000	-0.000890	-0.000800	0.000000	0.000000
53.487895	14.138664	22.358965	-1.623326	2.171929	2.354895	0.000000	0.239867	0.000000	-0.001249	-0.000828	0.000000	0.000000
53.933855	15.813700	20.227956	-2.146509	2.586492	2.477540	0.000000	0.308822	0.000000	-0.001626	-0.000865	0.000000	0.000000
54.482915	17.969744	17.829597	-1.757542	1.807523	2.627214	0.000000	0.233978	0.000000	-0.002085	-0.000805	0.000000	0.000000
55.031975	19.627554	16.211337	-1.244457	1.157298	2.734553	0.000000	0.154972	0.000000	-0.002507	-0.000730	0.000000	0.000000
55.581035	20.670066	15.257903	-0.643493	0.589501	2.797647	0.000000	0.073204	0.000000	-0.002885	-0.000643	0.000000	0.000000
56.130095	21.023671	14.901380	0.002904	0.063693	2.815373	0.000000	-0.009872	0.000000	-0.003211	-0.000544	0.000000	0.000000
56.428668	21.059860	14.845459	-0.067736	0.083529	2.814845	0.000000	-0.002319	0.000000	-0.003376	-0.000553	0.000000	0.000000
56.762001	21.110317	14.797309	-0.083636	0.060919	2.814256	0.000000	-0.002319	0.000000	-0.003561	-0.000553	0.000000	0.000000
57.095334	21.171375	14.764233	-0.099537	0.038309	2.813668	0.000000	-0.002319	0.000000	-0.003745	-0.000553	0.000000	0.000000
57.429918	21.243322	14.746191	-0.115497	0.015614	2.813077	0.000000	-0.002319	0.000000	-0.003930	-0.000553	0.000000	0.000000
57.727240	21.316229	14.742895	-0.187264	0.035156	2.812552	0.000000	0.005279	0.000000	-0.004094	-0.000564	0.000000	0.000000
58.276300	21.157462	14.986921	0.474430	-0.482249	2.792912	0.000000	-0.077672	0.000000	-0.004367	-0.000427	0.000000	0.000000
58.825360	20.286356	15.814493	1.102610	-1.033997	2.727965	0.000000	-0.159252	0.000000	-0.004561	-0.000282	0.000000	0.000000
59.374420	18.764436	17.284547	1.652916	-1.659384	2.618860	0.000000	-0.238013	0.000000	-0.004675	-0.000132	0.000000	0.000000
59.923480	16.699178	19.501775	2.086488	-2.402948	2.467530	0.000000	-0.312554	0.000000	-0.004706	0.000020	0.000000	0.000000
60.369440	15.081384	21.472222	1.554135	-1.996999	2.343541	0.000000	-0.243894	0.000000	-0.004725	-0.000103	0.000000	0.000000
60.810400	13.916828	23.020699	1.096950	-1.501481	2.250599	0.000000	-0.178395	0.000000	-0.004797	-0.000225	0.000000	0.000000
61.251360	13.131893	24.100295	0.689874	-0.937657	2.186117	0.000000	-0.114925	0.000000	-0.004924	-0.000351	0.000000	0.000000
61.692320	12.690724	24.661898	0.314313	-0.331178	2.149360	0.000000	-0.052761	0.000000	-0.005107	-0.000480	0.000000	0.000000
62.134530	12.573215	24.679373	-0.014615	0.226991	2.139919	0.000000	0.003299	0.000000	-0.005349	-0.000601	0.000000	0.000000
62.431853	12.588938	24.548161	-0.038268	0.214323	2.141079	0.000000	0.003299	0.000000	-0.005528	-0.000601	0.000000	0.000000
62.765186	12.623289	24.410013	-0.064785	0.200121	2.142379	0.000000	0.003299	0.000000	-0.005728	-0.000601	0.000000	0.000000
63.098520	12.675318	24.281333	-0.091302	0.185918	2.143679	0.000000	0.003299	0.000000	-0.005929	-0.000601	0.000000	0.000000
63.433103	12.745320	24.161693	-0.117918	0.171662	2.144984	0.000000	0.003299	0.000000	-0.006130	-0.000601	0.000000	0.000000
63.730426	12.822457	24.063409	-0.108283	0.096318	2.146142	0.000000	-0.002272	0.000000	-0.006309	-0.000585	0.000000	0.000000
64.171386	13.080374	23.713574	-0.479135	0.694085	2.159032	0.000000	0.059500	0.000000	-0.006603	-0.000752	0.000000	0.000000
64.612346	13.673662	22.848571	-0.871865	1.260275	2.199356	0.000000	0.121958	0.000000	-0.006973	-0.000927	0.000000	0.000000
65.053306	14.629408	21.507759	-1.304407	1.769132	2.267576	0.000000	0.185814	0.000000	-0.007422	-0.001112	0.000000	0.000000
65.494266	15.991246	19.752141	-1.796516	2.197508	2.364475	0.000000	0.251799	0.000000	-0.007956	-0.001311	0.000000	0.000000
65.940226	17.844673	17.636727	-2.375177	2.526485	2.492742	0.000000	0.321039	0.000000	-0.008588	-0.001525	0.000000	0.000000
66.489286	20.217893	15.270763	-1.922869	1.808612	2.649246	0.000000	0.245610	0.000000	-0.009346	-0.001235	0.000000	0.000000
67.038346	22.016601	13.618110	-1.334818	1.219534	2.762914	0.000000	0.165806	0.000000	-0.009939	-0.000922	0.000000	0.000000
67.587406	23.113849	12.561064	-0.652543	0.717300	2.831723	0.000000	0.083046	0.000000	-0.010356	-0.000593	0.000000	0.000000
68.136466	23.432202	12.024341	0.075791	0.266145	2.854447	0.000000	-0.001195	0.000000	-0.010589	-0.000254	0.000000	0.000000
68.435038	23.430385	11.853132	-0.003458	0.273245	2.856589	0.000000	0.006906	0.000000	-0.010674	-0.000283	0.000000	0.000000
68.768372	23.437433	11.681042	-0.017685	0.243023	2.858985	0.000000	0.006906	0.000000	-0.010768	-0.000283	0.000000	0.000000
69.101705	23.453965	11.529101	-0.031912	0.212801	2.861381	0.000000	0.006906	0.000000	-0.010862	-0.000283	0.000000	0.000000
69.436288	23.480097	11.396851	-0.046192	0.182467	2.863787	0.000000	0.006906	0.000000	-0.010957	-0.000283	0.000000	0.000000
69.733611	23.511422	11.296322	-0.125827	0.187627	2.865930	0.000000	0.015067	0.000000	-0.011041	-0.000313	0.000000	0.000000
70.282671	23.245851	11.316751	0.606634	-0.225059	2.850990	0.000000	-0.069672	0.000000	-0.011115	0.000046	0.000000	0.000000
