#ParticleID	Turn	x[m]	xp	y[m]	yp	z[m]	dE[GeV]# s	beta_x	beta_y	alpha_x	alpha_y	D_x	D_y	D_px	D_py	orbit_x	orbit_px	orbit_y	orbit_py
0.300000	11.943313	25.286471	-0.019973	-0.022089	2.601930	0.000000	0.000642	0.000000	-0.000680	0.000594	0.000000	0.000000
0.601250	11.962948	25.303370	-0.045207	-0.034008	2.601945	0.000000	0.000642	0.000000	-0.000501	0.000594	0.000000	0.000000
0.898573	11.997235	25.327091	-0.040600	-0.107857	2.601959	0.000000	-0.005758	0.000000	-0.000324	0.000595	0.000000	0.000000
1.339533	12.186728	25.141137	-0.390555	0.527956	2.615370	0.000000	0.067782	0.000000	-0.000063	0.000590	0.000000	0.000000
1.780493	12.691530	24.402935	-0.758357	1.139749	2.661348	0.000000	0.142087	0.000000	0.000197	0.000592	0.000000	0.000000
2.221453	13.534710	23.146069	-1.160812	1.699687	2.740414	0.000000	0.218004	0.000000	0.000460	0.000600	0.000000	0.000000
2.662413	14.754799	21.427718	-1.616307	2.182291	2.853465	0.000000	0.296398	0.000000	0.000727	0.000615	0.000000	0.000000
3.108373	16.428615	19.300886	-2.150018	2.566764	3.003640	0.000000	0.378652	0.000000	0.001007	0.000638	0.000000	0.000000
3.657433	18.574364	16.911794	-1.734511	1.810088	3.186114	0.000000	0.286220	0.000000	0.001347	0.000600	0.000000	0.000000
4.206493	20.193442	15.278377	-1.196467	1.182342	3.316392	0.000000	0.188720	0.000000	0.001663	0.000551	0.000000	0.000000
4.755553	21.171461	14.284295	-0.573894	0.638814	3.392168	0.000000	0.087882	0.000000	0.001950	0.000492	0.000000	0.000000
5.304613	21.439318	13.858746	0.089230	0.140787	3.412102	0.000000	-0.014507	0.000000	0.002203	0.000425	0.000000	0.000000
5.603185	21.423024	13.760139	0.020310	0.154028	3.410254	0.000000	-0.005758	0.000000	0.002331	0.000431	0.000000	0.000000
5.936519	21.414673	13.665720	0.004744	0.129228	3.408191	0.000000	-0.005758	0.000000	0.002475	0.000431	0.000000	0.000000
6.269852	21.416699	13.587834	-0.010822	0.104429	3.406128	0.000000	-0.005758	0.000000	0.002618	0.000431	0.000000	0.000000
6.604435	21.429168	13.526282	-0.026446	0.079537	3.404057	0.000000	-0.005758	0.000000	0.002763	0.000431	0.000000	0.000000
6.901758	21.449028	13.485560	-0.095004	0.091877	3.402218	0.000000	0.002915	0.000000	0.002891	0.000438	0.000000	0.000000
7.450818	21.187544	13.646305	0.568641	-0.386357	3.375582	0.000000	-0.099049	0.000000	0.003105	0.000341	0.000000	0.000000
7.999878	20.215072	14.344175	1.192123	-0.892115	3.293414	0.000000	-0.199249	0.000000	0.003264	0.000238	0.000000	0.000000
8.548938	18.600307	15.628885	1.731392	-1.461422	3.157173	0.000000	-0.295911	0.000000	0.003366	0.000131	0.000000	0.000000
9.097998	16.457327	17.591953	2.148349	-2.134834	2.969280	0.000000	-0.387323	0.000000	0.003407	0.000021	0.000000	0.000000
9.543958	14.785255	19.340953	1.614231	-1.770288	2.814735	0.000000	-0.306001	0.000000	0.003436	0.000110	0.000000	0.000000
9.984918	13.567273	20.711804	1.158289	-1.326514	2.696894	0.000000	-0.228660	0.000000	0.003504	0.000199	0.000000	0.000000
10.425878	12.726656	21.663047	0.755272	-0.822377	2.612514	0.000000	-0.153925	0.000000	0.003612	0.000291	0.000000	0.000000
10.866838	12.224993	22.151396	0.386765	-0.280818	2.560632	0.000000	-0.080948	0.000000	0.003761	0.000386	0.000000	0.000000
11.309048	12.039208	22.154064	0.064233	0.221031	2.540638	0.000000	-0.014891	0.000000	0.003954	0.000476	0.000000	0.000000
11.606371	12.008385	22.026814	0.039435	0.206955	2.536069	0.000000	-0.014891	0.000000	0.004095	0.000476	0.000000	0.000000
12.086371	11.989743	21.839046	-0.000599	0.184230	2.528693	0.000000	-0.014891	0.000000	0.004324	0.000476	0.000000	0.000000
12.566371	12.009535	21.673093	-0.040633	0.161505	2.521317	0.000000	-0.014891	0.000000	0.004552	0.000476	0.000000	0.000000
13.046371	12.067760	21.528957	-0.080668	0.138780	2.513941	0.000000	-0.014891	0.000000	0.004780	0.000476	0.000000	0.000000
13.526371	12.164417	21.406636	-0.120702	0.116055	2.506565	0.000000	-0.014891	0.000000	0.005009	0.000476	0.000000	0.000000
14.007621	12.299909	21.305898	-0.160840	0.093271	2.499169	0.000000	-0.014891	0.000000	0.005238	0.000476	0.000000	0.000000
14.304943	12.402915	21.254639	-0.156793	0.029899	2.494599	0.000000	-0.020693	0.000000	0.005379	0.000463	0.000000	0.000000
14.745903	12.700163	20.995787	-0.519614	0.554840	2.500828	0.000000	0.049997	0.000000	0.005615	0.000605	0.000000	0.000000
15.186863	13.326670	20.283346	-0.906186	1.054535	2.538264	0.000000	0.121250	0.000000	0.005914	0.000753	0.000000	0.000000
15.627823	14.311077	19.149732	-1.334177	1.506243	2.607330	0.000000	0.193877	0.000000	0.006280	0.000910	0.000000	0.000000
16.068783	15.698384	17.646525	-1.823146	1.889409	2.708811	0.000000	0.268702	0.000000	0.006718	0.001078	0.000000	0.000000
16.514743	17.575631	15.820582	-2.400340	2.187465	2.845557	0.000000	0.347062	0.000000	0.007239	0.001259	0.000000	0.000000
17.063803	19.985828	13.782472	-1.962255	1.546043	3.011877	0.000000	0.259995	0.000000	0.007864	0.001014	0.000000	0.000000
17.612863	21.835403	12.384527	-1.385499	1.014762	3.129188	0.000000	0.168333	0.000000	0.008350	0.000752	0.000000	0.000000
18.161923	22.993627	11.527165	-0.710826	0.555774	3.195416	0.000000	0.073696	0.000000	0.008687	0.000476	0.000000	0.000000
18.710983	23.378629	11.149313	0.014085	0.136382	3.209389	0.000000	-0.022241	0.000000	0.008871	0.000191	0.000000	0.000000
19.009556	23.407686	11.060054	-0.055147	0.135772	3.204994	0.000000	-0.014494	0.000000	0.008934	0.000213	0.000000	0.000000
19.342889	23.449212	10.979771	-0.069431	0.105078	3.200092	0.000000	-0.014494	0.000000	0.009005	0.000213	0.000000	0.000000
19.676223	23.500261	10.919950	-0.083714	0.074384	3.195189	0.000000	-0.014494	0.000000	0.009077	0.000213	0.000000	0.000000
20.010806	23.561368	10.880348	-0.214788	0.097483	3.190288	0.000000	0.001313	0.000000	0.009148	0.000259	0.000000	0.000000
20.308129	23.693075	10.830555	-0.284990	0.095998	3.190606	0.000000	0.008989	0.000000	0.009225	0.000282	0.000000	0.000000
20.857189	23.597546	10.945051	0.458014	-0.305731	3.169300	0.000000	-0.086222	0.000000	0.009298	-0.000018	0.000000	0.000000
21.406249	22.698908	11.510053	1.168653	-0.729244	3.096212	0.000000	-0.179903	0.000000	0.009205	-0.000318	0.000000	0.000000
21.955309	21.060676	12.565815	1.796704	-1.204711	2.972637	0.000000	-0.270397	0.000000	0.008949	-0.000612	0.000000	0.000000
22.504369	18.798643	14.187546	2.297784	-1.766006	2.800767	0.000000	-0.356104	0.000000	0.008535	-0.000895	0.000000	0.000000
22.950329	17.017695	15.644397	1.708906	-1.486571	2.659555	0.000000	-0.278957	0.000000	0.008184	-0.000679	0.000000	0.000000
23.391289	15.738241	16.807380	1.203021	-1.140477	2.553084	0.000000	-0.205462	0.000000	0.007931	-0.000471	0.000000	0.000000
23.832249	14.879193	17.640955	0.752122	-0.742481	2.478392	0.000000	-0.134303	0.000000	0.007768	-0.000268	0.000000	0.000000
24.273209	14.401281	18.107190	0.335600	-0.310697	2.434630	0.000000	-0.064672	0.000000	0.007694	-0.000069	0.000000	0.000000
24.715418	14.282765	18.184603	-0.033250	0.093845	2.421302	0.000000	-0.001272	0.000000	0.007707	0.000111	0.000000	0.000000
25.012741	14.308733	18.133703	-0.054090	0.077351	2.420890	0.000000	-0.001272	0.000000	0.007740	0.000111	0.000000	0.000000
25.346075	14.352581	18.088299	-0.077453	0.058859	2.420429	0.000000	-0.001272	0.000000	0.007777	0.000111	0.000000	0.000000
25.679408	14.412004	18.055224	-0.100817	0.040367	2.419968	0.000000	-0.001272	0.000000	0.007814	0.000111	0.000000	0.000000
26.013991	14.487021	18.034788	-0.006741	-0.124501	2.419480	0.000000	-0.020901	0.000000	0.007851	0.000048	0.000000	0.000000
26.311314	14.497105	18.113833	0.005588	-0.182285	2.413250	0.000000	-0.026370	0.000000	0.007866	0.000029	0.000000	0.000000
26.752274	14.671269	18.078353	-0.401954	0.262429	2.416679	0.000000	0.042191	0.000000	0.007923	0.000233	0.000000	0.000000
27.193234	15.211646	17.654416	-0.827868	0.695200	2.450335	0.000000	0.111230	0.000000	0.008071	0.000439	0.000000	0.000000
27.634194	16.142938	16.861310	-1.291622	1.096333	2.514598	0.000000	0.181531	0.000000	0.008311	0.000650	0.000000	0.000000
28.075154	17.507724	15.735126	-1.814415	1.447574	2.610199	0.000000	0.253894	0.000000	0.008645	0.000868	0.000000	0.000000
28.521114	19.392271	14.310041	-2.425244	1.734015	2.739841	0.000000	0.329613	0.000000	0.009084	0.001098	0.000000	0.000000
29.070174	21.788474	12.722904	-1.911961	1.173308	2.897647	0.000000	0.246107	0.000000	0.009605	0.000796	0.000000	0.000000
29.619234	23.542882	11.702319	-1.263553	0.696191	3.008497	0.000000	0.158247	0.000000	0.009955	0.000479	0.000000	0.000000
30.168294	24.531484	11.175583	-0.525845	0.268676	3.070429	0.000000	0.067587	0.000000	0.010129	0.000153	0.000000	0.000000
30.717354	24.684398	11.105171	0.249025	-0.139697	3.082346	0.000000	-0.024270	0.000000	0.010123	-0.000175	0.000000	0.000000
31.015927	24.574519	11.180920	0.177616	-0.140411	3.077335	0.000000	-0.016918	0.000000	0.010078	-0.000149	0.000000	0.000000
31.349260	24.460773	11.284661	0.163624	-0.170811	3.071746	0.000000	-0.016918	0.000000	0.010028	-0.000149	0.000000	0.000000
31.682593	24.356354	11.408669	0.149632	-0.201212	3.066156	0.000000	-0.016918	0.000000	0.009979	-0.000149	0.000000	0.000000
32.017177	24.260925	11.553522	0.135587	-0.231726	3.060546	0.000000	-0.016918	0.000000	0.009929	-0.000149	0.000000	0.000000
32.314499	24.184079	11.699346	0.065288	-0.230894	3.055564	0.000000	-0.009613	0.000000	0.009884	-0.000125	0.000000	0.000000
32.863559	23.698325	12.191630	0.813857	-0.670868	3.025489	0.000000	-0.100306	0.000000	0.009728	-0.000443	0.000000	0.000000
33.412619	22.417208	13.190379	1.504904	-1.158638	2.946190	0.000000	-0.189227	0.000000	0.009400	-0.000752	0.000000	0.000000
33.961679	20.431289	14.766742	2.089593	-1.728955	2.819071	0.000000	-0.274803	0.000000	0.008904	-0.001049	0.000000	0.000000
34.510739	17.880943	17.033012	2.526606	-2.422448	2.646380	0.000000	-0.355521	0.000000	0.008251	-0.001327	0.000000	0.000000
34.956699	15.899334	19.060410	1.931638	-2.104181	2.504726	0.000000	-0.282389	0.000000	0.007706	-0.001120	0.000000	0.000000
35.397659	14.422204	20.740539	1.430072	-1.691073	2.396048	0.000000	-0.212917	0.000000	0.007255	-0.000927	0.000000	0.000000
35.838619	13.357129	22.020833	0.993871	-1.201008	2.317367	0.000000	-0.145861	0.000000	0.006886	-0.000745	0.000000	0.000000
36.279579	12.655417	22.843036	0.603096	-0.656291	2.267791	0.000000	-0.080459	0.000000	0.006596	-0.000571	0.000000	0.000000
36.721789	12.284334	23.170048	0.268056	-0.134966	2.246732	0.000000	-0.021138	0.000000	0.006381	-0.000419	0.000000	0.000000
37.019112	12.132649	23.254190	0.242114	-0.148032	2.240572	0.000000	-0.021138	0.000000	0.006257	-0.000419	0.000000	0.000000
37.352445	11.980935	23.357760	0.213029	-0.162680	2.233666	0.000000	-0.021138	0.000000	0.006117	-0.000419	0.000000	0.000000
37.685779	11.848610	23.471097	0.183944	-0.177329	2.226759	0.000000	-0.021138	0.000000	0.005977	-0.000419	0.000000	0.000000
38.020362	11.735289	23.594678	0.154751	-0.192032	2.219827	0.000000	-0.021138	0.000000	0.005837	-0.000419	0.000000	0.000000
38.317684	11.650969	23.712777	0.155815	-0.260205	2.213666	0.000000	-0.026269	0.000000	0.005713	-0.000433	0.000000	0.000000
38.758644	11.662714	23.679483	-0.182668	0.335414	2.216212	0.000000	0.037130	0.000000	0.005554	-0.000287	0.000000	0.000000
39.199604	11.975554	23.125610	-0.529495	0.915769	2.246723	0.000000	0.100956	0.000000	0.005459	-0.000145	0.000000	0.000000
39.640564	12.603787	22.076364	-0.900518	1.454450	2.305547	0.000000	0.165932	0.000000	0.005426	-0.000005	0.000000	0.000000
40.081524	13.576121	20.579492	-1.312693	1.926945	2.393355	0.000000	0.232800	0.000000	0.005454	0.000135	0.000000	0.000000
40.527484	14.954533	18.680400	-1.788764	2.313191	2.512630	0.000000	0.302741	0.000000	0.005546	0.000278	0.000000	0.000000
41.076544	16.715842	16.545774	-1.399765	1.597232	2.658134	0.000000	0.226809	0.000000	0.005649	0.000097	0.000000	0.000000
41.625604	17.992731	15.130689	-0.911867	0.995059	2.760873	0.000000	0.146854	0.000000	0.005652	-0.000087	0.000000	0.000000
42.174664	18.694976	14.334340	-0.359546	0.463773	2.819023	0.000000	0.064293	0.000000	0.005555	-0.000268	0.000000	0.000000
42.723724	18.772961	14.099994	0.218172	-0.034473	2.831551	0.000000	-0.019413	0.000000	0.005359	-0.000445	0.000000	0.000000
43.022297	18.675509	14.105862	0.154985	-0.020395	2.827991	0.000000	-0.012352	0.000000	0.005230	-0.000431	0.000000	0.000000
43.502297	18.539356	14.141782	0.128666	-0.054437	2.822269	0.000000	-0.012352	0.000000	0.005023	-0.000431	0.000000	0.000000
43.982297	18.428470	14.210382	0.102346	-0.088480	2.816547	0.000000	-0.012352	0.000000	0.004816	-0.000431	0.000000	0.000000
44.462297	18.342850	14.311663	0.076027	-0.122523	2.810825	0.000000	-0.012352	0.000000	0.004609	-0.000431	0.000000	0.000000
44.942297	18.282498	14.445626	0.049707	-0.156565	2.805102	0.000000	-0.012352	0.000000	0.004402	-0.000431	0.000000	0.000000
45.423547	18.247580	14.612564	-0.067089	-0.118297	2.799383	0.000000	0.001518	0.000000	0.004194	-0.000410	0.000000	0.000000
45.720870	18.292349	14.689036	-0.129603	-0.101957	2.799957	0.000000	0.008581	0.000000	0.004072	-0.000400	0.000000	0.000000
46.269930	18.126449	15.084786	0.429708	-0.623035	2.782212	0.000000	-0.074013	0.000000	0.003817	-0.000528	0.000000	0.000000
46.818990	17.359411	16.073639	0.958652	-1.188493	2.719472	0.000000	-0.155303	0.000000	0.003494	-0.000646	0.000000	0.000000
47.368050	16.045440	17.726025	1.419860	-1.838610	2.612846	0.000000	-0.233848	0.000000	0.003109	-0.000753	0.000000	0.000000
47.917110	14.277380	20.159637	1.780751	-2.619695	2.464221	0.000000	-0.308258	0.000000	0.002669	-0.000847	0.000000	0.000000
48.363070	12.900501	22.322801	1.317216	-2.210349	2.342465	0.000000	-0.239620	0.000000	0.002306	-0.000782	0.000000	0.000000
48.804030	11.918583	24.054541	0.917670	-1.701790	2.251651	0.000000	-0.174110	0.000000	0.001974	-0.000727	0.000000	0.000000
49.244990	11.269308	25.301764	0.560058	-1.115799	2.189241	0.000000	-0.110576	0.000000	0.001664	-0.000680	0.000000	0.000000
49.685950	10.923002	26.007726	0.228040	-0.479041	2.154528	0.000000	-0.048294	0.000000	0.001373	-0.000641	0.000000	0.000000
50.128160	10.864006	26.140022	-0.067306	0.116254	2.147129	0.000000	0.008235	0.000000	0.001096	-0.000612	0.000000	0.000000
50.425482	10.912204	26.074320	-0.094798	0.104726	2.149760	0.000000	0.008235	0.000000	0.000914	-0.000612	0.000000	0.000000
50.758816	10.985676	26.008811	-0.125619	0.091802	2.152708	0.000000	0.008235	0.000000	0.000710	-0.000612	0.000000	0.000000
51.092149	11.079696	25.951918	-0.156441	0.078877	2.155657	0.000000	0.008235	0.000000	0.000506	-0.000612	0.000000	0.000000
51.426732	11.194505	25.904001	-0.096561	-0.144241	2.158595	0.000000	-0.009277	0.000000	0.000302	-0.000614	0.000000	0.000000
51.724055	11.259895	25.993257	-0.095786	-0.219857	2.156020	0.000000	-0.014559	0.000000	0.000119	-0.000615	0.000000	0.000000
52.165015	11.491026	25.897825	-0.430556	0.435454	2.163518	0.000000	0.047409	0.000000	-0.000152	-0.000615	0.000000	0.000000
52.605975	12.024916	25.231026	-0.784993	1.070949	2.198437	0.000000	0.109923	0.000000	-0.000425	-0.000623	0.000000	0.000000
53.046935	12.885950	24.023208	-1.175288	1.657716	2.261178	0.000000	0.173696	0.000000	-0.000702	-0.000637	0.000000	0.000000
53.487895	14.113458	22.329328	-1.619272	2.169057	2.352458	0.000000	0.239454	0.000000	-0.000988	-0.000659	0.000000	0.000000
53.933855	15.784503	20.201152	-2.141500	2.583026	2.474831	0.000000	0.308343	0.000000	-0.001288	-0.000688	0.000000	0.000000
54.482915	17.935469	17.806040	-1.753254	1.805017	2.624178	0.000000	0.233592	0.000000	-0.001653	-0.000641	0.000000	0.000000
55.031975	19.589164	16.190078	-1.241188	1.155573	2.731250	0.000000	0.154686	0.000000	-0.001989	-0.000582	0.000000	0.000000
55.581035	20.628805	15.238159	-0.641469	0.588437	2.794144	0.000000	0.073028	0.000000	-0.002290	-0.000512	0.000000	0.000000
56.130095	20.980982	14.882477	0.003544	0.063212	2.811740	0.000000	-0.009934	0.000000	-0.002550	-0.000434	0.000000	0.000000
56.428668	21.016553	14.827018	-0.066709	0.082740	2.811145	0.000000	-0.002431	0.000000	-0.002682	-0.000441	0.000000	0.000000
56.762001	21.066336	14.779404	-0.082640	0.060104	2.810482	0.000000	-0.002431	0.000000	-0.002829	-0.000441	0.000000	0.000000
57.095334	21.126740	14.746879	-0.098571	0.037469	2.809818	0.000000	-0.002431	0.000000	-0.002976	-0.000441	0.000000	0.000000
57.429918	21.198050	14.729408	-0.114562	0.014749	2.809152	0.000000	-0.002431	0.000000	-0.003123	-0.000441	0.000000	0.000000
57.727240	21.270406	14.726636	-0.185849	0.033983	2.808561	0.000000	0.005105	0.000000	-0.003254	-0.000449	0.000000	0.000000
58.276300	21.110960	14.971704	0.474303	-0.482979	2.788807	0.000000	-0.077717	0.000000	-0.003472	-0.000340	0.000000	0.000000
58.825360	20.240852	15.799871	1.100951	-1.034337	2.723833	0.000000	-0.159166	0.000000	-0.003627	-0.000225	0.000000	0.000000
59.374420	18.721538	17.270116	1.649841	-1.659360	2.614788	0.000000	-0.237796	0.000000	-0.003718	-0.000106	0.000000	0.000000
59.923480	16.660314	19.487151	2.082210	-2.402562	2.463605	0.000000	-0.312210	0.000000	-0.003744	0.000014	0.000000	0.000000
60.369440	15.045858	21.457455	1.550888	-1.997041	2.339744	0.000000	-0.243645	0.000000	-0.003759	-0.000083	0.000000	0.000000
60.810400	13.883750	23.006188	1.094602	-1.501968	2.246876	0.000000	-0.178241	0.000000	-0.003817	-0.000181	0.000000	0.000000
61.251360	13.100528	24.086416	0.688319	-0.938564	2.182415	0.000000	-0.114865	0.000000	-0.003918	-0.000280	0.000000	0.000000
61.692320	12.660415	24.648996	0.313480	-0.332463	2.145628	0.000000	-0.052795	0.000000	-0.004064	-0.000383	0.000000	0.000000
62.134530	12.543350	24.667760	-0.015150	0.225982	2.136103	0.000000	0.003232	0.000000	-0.004257	-0.000480	0.000000	0.000000
62.431853	12.559408	24.537148	-0.038860	0.213314	2.137207	0.000000	0.003232	0.000000	-0.004400	-0.000480	0.000000	0.000000
62.765186	12.594175	24.399673	-0.065440	0.199111	2.138444	0.000000	0.003232	0.000000	-0.004560	-0.000480	0.000000	0.000000
63.098520	12.646662	24.271667	-0.092021	0.184908	2.139681	0.000000	0.003232	0.000000	-0.004720	-0.000480	0.000000	0.000000
63.433103	12.717166	24.152703	-0.118701	0.170651	2.140923	0.000000	0.003232	0.000000	-0.004880	-0.000480	0.000000	0.000000
63.730426	12.794791	24.055010	-0.109564	0.096066	2.142026	0.000000	-0.002267	0.000000	-0.005023	-0.000467	0.000000	0.000000
64.171386	13.053600	23.705482	-0.479825	0.693628	2.154837	0.000000	0.059400	0.000000	-0.005258	-0.000600	0.000000	0.000000
64.612346	13.647291	22.840949	-0.871998	1.259634	2.195022	0.000000	0.121750	0.000000	-0.005553	-0.000739	0.000000	0.000000
65.053306	14.602969	21.500746	-1.303994	1.768334	2.263039	0.000000	0.185495	0.000000	-0.005911	-0.000887	0.000000	0.000000
65.494266	15.964275	19.745849	-1.795543	2.196587	2.359669	0.000000	0.251361	0.000000	-0.006336	-0.001045	0.000000	0.000000
65.940226	17.816652	17.631271	-2.373649	2.525511	2.487591	0.000000	0.320481	0.000000	-0.006840	-0.001215	0.000000	0.000000
66.489286	20.188889	15.266196	-1.922354	1.807847	2.643689	0.000000	0.245221	0.000000	-0.007444	-0.000984	0.000000	0.000000
67.038346	21.987724	13.614244	-1.335338	1.218930	2.757080	0.000000	0.165596	0.000000	-0.007917	-0.000735	0.000000	0.000000
67.587406	23.086177	12.557759	-0.654048	0.716818	2.825745	0.000000	0.083022	0.000000	-0.008249	-0.000473	0.000000	0.000000
68.136466	23.406715	12.021497	0.073414	0.265754	2.848464	0.000000	-0.001031	0.000000	-0.008435	-0.000203	0.000000	0.000000
68.435038	23.405680	11.850836	-0.004727	0.272306	2.850596	0.000000	0.006926	0.000000	-0.008502	-0.000226	0.000000	0.000000
68.768372	23.413578	11.679370	-0.018969	0.242093	2.852980	0.000000	0.006926	0.000000	-0.008578	-0.000226	0.000000	0.000000
69.101705	23.430972	11.528046	-0.033211	0.211880	2.855364	0.000000	0.006926	0.000000	-0.008653	-0.000226	0.000000	0.000000
69.436288	23.457978	11.396409	-0.047506	0.181553	2.857757	0.000000	0.006926	0.000000	-0.008729	-0.000226	0.000000	0.000000
69.733611	23.490058	11.296436	-0.126001	0.186205	2.859886	0.000000	0.014936	0.000000	-0.008796	-0.000250	0.000000	0.000000
70.282671	23.225041	11.318440	0.605809	-0.226521	2.844912	0.000000	-0.069612	0.000000	-0.008854	0.000036	0.000000	0.000000
