#ParticleID	Turn	x[m]	xp	y[m]	yp	z[m]	dE[GeV]# s	beta_x	beta_y	alpha_x	alpha_y	D_x	D_y	D_px	D_py	orbit_x	orbit_px	orbit_y	orbit_py
0.300000	11.914251	25.036524	-0.009728	-0.028389	2.606503	0.000000	-0.002679	0.000000	-0.001305	0.001086	0.000000	0.000000
0.601250	11.927730	25.057256	-0.035016	-0.040431	2.605369	0.000000	-0.002679	0.000000	-0.000977	0.001086	0.000000	0.000000
0.898573	11.955972	25.084833	-0.030472	-0.113822	2.604249	0.000000	-0.009105	0.000000	-0.000654	0.001088	0.000000	0.000000
1.339533	12.136111	24.906941	-0.379223	0.515708	2.615986	0.000000	0.064472	0.000000	-0.000177	0.001077	0.000000	0.000000
1.780493	12.630278	24.182117	-0.745307	1.121777	2.660298	0.000000	0.138771	0.000000	0.000297	0.001079	0.000000	0.000000
2.221453	13.461061	22.943328	-1.145451	1.676809	2.737686	0.000000	0.214640	0.000000	0.000776	0.001093	0.000000	0.000000
2.662413	14.666428	21.246930	-1.597939	2.155550	2.849025	0.000000	0.292942	0.000000	0.001263	0.001119	0.000000	0.000000
3.108373	16.322320	19.145209	-2.127789	2.537393	2.997412	0.000000	0.375060	0.000000	0.001770	0.001158	0.000000	0.000000
3.657433	18.444905	16.784548	-1.714496	1.787316	3.177711	0.000000	0.282861	0.000000	0.002389	0.001091	0.000000	0.000000
4.206493	20.044041	15.173247	-1.180067	1.164547	3.305980	0.000000	0.185662	0.000000	0.002965	0.001004	0.000000	0.000000
4.755553	21.006731	14.196547	-0.562253	0.624729	3.379949	0.000000	0.085185	0.000000	0.003488	0.000900	0.000000	0.000000
5.304613	21.264937	13.784887	0.095301	0.129410	3.398315	0.000000	-0.016788	0.000000	0.003950	0.000779	0.000000	0.000000
5.603185	21.244288	13.693562	0.027531	0.141826	3.395629	0.000000	-0.008205	0.000000	0.004185	0.000789	0.000000	0.000000
5.936519	21.231168	13.607288	0.011829	0.116994	3.392631	0.000000	-0.008205	0.000000	0.004448	0.000789	0.000000	0.000000
6.269852	21.228516	13.537570	-0.003873	0.092162	3.389632	0.000000	-0.008205	0.000000	0.004711	0.000789	0.000000	0.000000
6.604435	21.236381	13.484237	-0.019635	0.067237	3.386623	0.000000	-0.008205	0.000000	0.004976	0.000789	0.000000	0.000000
6.901758	21.252238	13.450830	-0.086709	0.078832	3.383950	0.000000	0.000244	0.000000	0.005210	0.000803	0.000000	0.000000
7.450818	20.985409	13.625475	0.570201	-0.398765	3.355841	0.000000	-0.101110	0.000000	0.005603	0.000627	0.000000	0.000000
7.999878	20.015036	14.337054	1.186838	-0.904773	3.272587	0.000000	-0.200661	0.000000	0.005897	0.000441	0.000000	0.000000
8.548938	18.409672	15.636265	1.719631	-1.475239	3.135668	0.000000	-0.296645	0.000000	0.006086	0.000247	0.000000	0.000000
9.097998	16.282744	17.615668	2.130931	-2.150802	2.947516	0.000000	-0.387362	0.000000	0.006167	0.000048	0.000000	0.000000
9.543958	14.624097	19.379254	1.601302	-1.786717	2.792797	0.000000	-0.306591	0.000000	0.006225	0.000209	0.000000	0.000000
9.984918	13.415722	20.764598	1.149293	-1.342700	2.674509	0.000000	-0.229816	0.000000	0.006352	0.000371	0.000000	0.000000
10.425878	12.581459	21.729776	0.749804	-0.837579	2.589400	0.000000	-0.155662	0.000000	0.006553	0.000538	0.000000	0.000000
10.866838	12.083182	22.230862	0.384576	-0.294340	2.536497	0.000000	-0.083287	0.000000	0.006828	0.000710	0.000000	0.000000
11.309048	11.897982	22.244486	0.063974	0.211180	2.515174	0.000000	-0.017610	0.000000	0.007181	0.000874	0.000000	0.000000
11.606371	11.867401	22.123060	0.038882	0.197218	2.509678	0.000000	-0.017610	0.000000	0.007441	0.000874	0.000000	0.000000
12.086371	11.849517	21.944550	-0.001626	0.174677	2.500806	0.000000	-0.017610	0.000000	0.007860	0.000874	0.000000	0.000000
12.566371	11.870522	21.787679	-0.042134	0.152137	2.491934	0.000000	-0.017610	0.000000	0.008280	0.000874	0.000000	0.000000
13.046371	11.930414	21.652447	-0.082642	0.129596	2.483061	0.000000	-0.017610	0.000000	0.008699	0.000874	0.000000	0.000000
13.526371	12.029195	21.538854	-0.123150	0.107055	2.474189	0.000000	-0.017610	0.000000	0.009118	0.000874	0.000000	0.000000
14.007621	12.167272	21.446690	-0.163764	0.084456	2.465294	0.000000	-0.017610	0.000000	0.009539	0.000874	0.000000	0.000000
14.304943	12.272079	21.400680	-0.161623	0.023254	2.459795	0.000000	-0.023069	0.000000	0.009799	0.000851	0.000000	0.000000
14.745903	12.572430	21.145885	-0.521646	0.552282	2.464587	0.000000	0.046714	0.000000	0.010230	0.001109	0.000000	0.000000
15.186863	13.199670	20.433802	-0.905520	1.056177	2.500129	0.000000	0.117016	0.000000	0.010779	0.001380	0.000000	0.000000
15.627823	14.182488	19.296827	-1.330796	1.512006	2.566821	0.000000	0.188638	0.000000	0.011450	0.001666	0.000000	0.000000
16.068783	15.565835	17.786695	-1.816918	1.899022	2.665415	0.000000	0.262390	0.000000	0.012251	0.001972	0.000000	0.000000
16.514743	17.436661	15.950319	-2.391102	2.200645	2.798698	0.000000	0.339606	0.000000	0.013204	0.002302	0.000000	0.000000
17.063803	19.839889	13.899918	-1.957968	1.555045	2.960866	0.000000	0.254107	0.000000	0.014347	0.001856	0.000000	0.000000
17.612863	21.688022	12.493931	-1.386408	1.020244	3.075027	0.000000	0.164129	0.000000	0.015236	0.001376	0.000000	0.000000
18.161923	22.850360	11.632200	-0.716825	0.558140	3.139167	0.000000	0.071261	0.000000	0.015854	0.000873	0.000000	0.000000
18.710983	23.244697	11.253332	0.003444	0.135805	3.152155	0.000000	-0.022858	0.000000	0.016191	0.000353	0.000000	0.000000
19.009556	23.277443	11.165412	-0.061575	0.133770	3.147312	0.000000	-0.015787	0.000000	0.016309	0.000393	0.000000	0.000000
19.342889	23.323284	11.086361	-0.075949	0.103382	3.141919	0.000000	-0.015787	0.000000	0.016439	0.000393	0.000000	0.000000
19.676223	23.378708	11.027570	-0.090323	0.072993	3.136526	0.000000	-0.015787	0.000000	0.016570	0.000393	0.000000	0.000000
20.010806	23.444268	10.988794	-0.220908	0.096936	3.131132	0.000000	-0.000273	0.000000	0.016702	0.000475	0.000000	0.000000
20.308129	23.579781	10.939181	-0.286728	0.094077	3.130922	0.000000	0.006700	0.000000	0.016843	0.000516	0.000000	0.000000
20.857189	23.488158	11.057493	0.452735	-0.310778	3.108827	0.000000	-0.086585	0.000000	0.016976	-0.000032	0.000000	0.000000
21.406249	22.596958	11.629972	1.160196	-0.737779	3.036134	0.000000	-0.178334	0.000000	0.016808	-0.000579	0.000000	0.000000
21.955309	20.969204	12.697409	1.785634	-1.217354	2.914134	0.000000	-0.266928	0.000000	0.016342	-0.001117	0.000000	0.000000
22.504369	18.720006	14.335856	2.284832	-1.783675	2.744986	0.000000	-0.350803	0.000000	0.015586	-0.001634	0.000000	0.000000
22.950329	16.949073	15.807060	1.698270	-1.500400	2.606083	0.000000	-0.275040	0.000000	0.014945	-0.001238	0.000000	0.000000
23.391289	15.677870	16.980491	1.194380	-1.149994	2.501231	0.000000	-0.202891	0.000000	0.014484	-0.000858	0.000000	0.000000
23.832249	14.825567	17.820467	0.745100	-0.747245	2.427505	0.000000	-0.133046	0.000000	0.014187	-0.000489	0.000000	0.000000
24.273209	14.353182	18.288760	0.329887	-0.310485	2.384066	0.000000	-0.064711	0.000000	0.014052	-0.000125	0.000000	0.000000
24.715418	14.239293	18.363698	-0.040230	0.101459	2.370426	0.000000	-0.002123	0.000000	0.014077	0.000206	0.000000	0.000000
25.012741	14.269434	18.308229	-0.061144	0.085102	2.369734	0.000000	-0.002123	0.000000	0.014138	0.000206	0.000000	0.000000
25.346075	14.318012	18.257608	-0.084591	0.066763	2.368958	0.000000	-0.002123	0.000000	0.014207	0.000206	0.000000	0.000000
25.679408	14.382222	18.219212	-0.108039	0.048425	2.368181	0.000000	-0.002123	0.000000	0.014276	0.000206	0.000000	0.000000
26.013991	14.462099	18.193335	-0.014248	-0.117576	2.367378	0.000000	-0.021328	0.000000	0.014344	0.000090	0.000000	0.000000
26.311314	14.476598	18.268288	-0.004315	-0.172613	2.361003	0.000000	-0.026302	0.000000	0.014371	0.000057	0.000000	0.000000
26.752274	14.659417	18.222433	-0.411667	0.276185	2.364120	0.000000	0.040919	0.000000	0.014478	0.000429	0.000000	0.000000
27.193234	15.208547	17.784744	-0.837842	0.712412	2.396800	0.000000	0.108602	0.000000	0.014750	0.000806	0.000000	0.000000
27.634194	16.149106	16.975139	-1.302328	1.116213	2.459412	0.000000	0.177514	0.000000	0.015190	0.001191	0.000000	0.000000
28.075154	17.524119	15.830460	-1.826366	1.469209	2.552666	0.000000	0.248435	0.000000	0.015803	0.001591	0.000000	0.000000
28.521114	19.420752	14.385322	-2.439209	1.756566	2.679216	0.000000	0.322655	0.000000	0.016606	0.002012	0.000000	0.000000
29.070174	21.832955	12.775534	-1.925990	1.191922	2.833346	0.000000	0.241152	0.000000	0.017560	0.001458	0.000000	0.000000
29.619234	23.602720	11.735921	-1.276594	0.712213	2.941782	0.000000	0.155393	0.000000	0.018203	0.000878	0.000000	0.000000
30.168294	24.604875	11.192416	-0.536935	0.283256	3.002605	0.000000	0.066890	0.000000	0.018522	0.000283	0.000000	0.000000
30.717354	24.768539	11.106293	0.240687	-0.125516	3.014740	0.000000	-0.022795	0.000000	0.018513	-0.000317	0.000000	0.000000
31.015927	24.660642	11.174924	0.174034	-0.128325	3.009969	0.000000	-0.016200	0.000000	0.018432	-0.000272	0.000000	0.000000
31.349260	24.549261	11.270581	0.160108	-0.158645	3.004660	0.000000	-0.016200	0.000000	0.018341	-0.000272	0.000000	0.000000
31.682593	24.447165	11.386451	0.146182	-0.188965	2.999351	0.000000	-0.016200	0.000000	0.018250	-0.000272	0.000000	0.000000
32.017177	24.354022	11.523083	0.132203	-0.219399	2.994022	0.000000	-0.016200	0.000000	0.018159	-0.000272	0.000000	0.000000
32.314499	24.279334	11.661476	0.066412	-0.220850	2.989300	0.000000	-0.009629	0.000000	0.018078	-0.000229	0.000000	0.000000
32.863559	23.790387	12.141979	0.818244	-0.659230	2.959918	0.000000	-0.098208	0.000000	0.017792	-0.000810	0.000000	0.000000
33.412619	22.502475	13.126815	1.512217	-1.144587	2.882596	0.000000	-0.185058	0.000000	0.017191	-0.001377	0.000000	0.000000
33.961679	20.506694	14.686149	2.099264	-1.711504	2.758698	0.000000	-0.268646	0.000000	0.016284	-0.001919	0.000000	0.000000
34.510739	17.944197	16.931072	2.537885	-2.400376	2.590411	0.000000	-0.347498	0.000000	0.015089	-0.002428	0.000000	0.000000
34.956699	15.953072	18.939535	1.940539	-2.083310	2.452438	0.000000	-0.275743	0.000000	0.014091	-0.002049	0.000000	0.000000
35.397659	14.468606	20.602362	1.437191	-1.672519	2.346753	0.000000	-0.207571	0.000000	0.013266	-0.001696	0.000000	0.000000
35.838619	13.397693	21.867731	0.999557	-1.185606	2.270446	0.000000	-0.141746	0.000000	0.012592	-0.001363	0.000000	0.000000
36.279579	12.691347	22.678064	0.607626	-0.644733	2.222653	0.000000	-0.077521	0.000000	0.012061	-0.001045	0.000000	0.000000
36.721789	12.316633	22.996710	0.270139	-0.124320	2.202815	0.000000	-0.018955	0.000000	0.011667	-0.000766	0.000000	0.000000
37.019112	12.163697	23.074540	0.244238	-0.137449	2.197407	0.000000	-0.018955	0.000000	0.011439	-0.000766	0.000000	0.000000
37.352445	12.010551	23.171079	0.215199	-0.152167	2.191344	0.000000	-0.018955	0.000000	0.011184	-0.000766	0.000000	0.000000
37.685779	11.876765	23.277430	0.186160	-0.166886	2.185281	0.000000	-0.018955	0.000000	0.010928	-0.000766	0.000000	0.000000
38.020362	11.761945	23.394048	0.157013	-0.181660	2.179195	0.000000	-0.018955	0.000000	0.010672	-0.000766	0.000000	0.000000
38.317684	11.676241	23.506050	0.156843	-0.246845	2.173784	0.000000	-0.023746	0.000000	0.010444	-0.000791	0.000000	0.000000
38.758644	11.687305	23.463415	-0.182243	0.343150	2.177347	0.000000	0.038646	0.000000	0.010154	-0.000525	0.000000	0.000000
39.199604	12.000023	22.905303	-0.529655	0.917525	2.208386	0.000000	0.101483	0.000000	0.009980	-0.000266	0.000000	0.000000
39.640564	12.628688	21.857119	-0.901273	1.450141	2.267257	0.000000	0.165480	0.000000	0.009919	-0.000009	0.000000	0.000000
40.081524	13.602037	20.366568	-1.314086	1.916757	2.354631	0.000000	0.231362	0.000000	0.009972	0.000247	0.000000	0.000000
40.527484	14.982205	18.478829	-1.790964	2.297662	2.472981	0.000000	0.300309	0.000000	0.010140	0.000508	0.000000	0.000000
41.076544	16.745536	16.357702	-1.400940	1.587776	2.617429	0.000000	0.225667	0.000000	0.010329	0.000177	0.000000	0.000000
41.625604	18.023188	14.949893	-0.911914	0.991017	2.719905	0.000000	0.147024	0.000000	0.010334	-0.000158	0.000000	0.000000
42.174664	18.724858	14.155101	-0.358450	0.464867	2.778590	0.000000	0.065770	0.000000	0.010155	-0.000490	0.000000	0.000000
42.723724	18.800960	13.916696	0.220335	-0.028160	2.792439	0.000000	-0.016658	0.000000	0.009797	-0.000813	0.000000	0.000000
43.022297	18.701082	13.919974	0.158985	-0.016151	2.789692	0.000000	-0.009977	0.000000	0.009561	-0.000789	0.000000	0.000000
43.502297	18.561088	13.952035	0.132669	-0.050643	2.785281	0.000000	-0.009977	0.000000	0.009183	-0.000789	0.000000	0.000000
43.982297	18.446358	14.017208	0.106353	-0.085135	2.780871	0.000000	-0.009977	0.000000	0.008804	-0.000789	0.000000	0.000000
44.462297	18.356890	14.115493	0.080038	-0.119626	2.776460	0.000000	-0.009977	0.000000	0.008425	-0.000789	0.000000	0.000000
44.942297	18.292685	14.246891	0.053722	-0.154118	2.772050	0.000000	-0.009977	0.000000	0.008047	-0.000789	0.000000	0.000000
45.423547	18.253901	14.411694	-0.063102	-0.117295	2.767645	0.000000	0.003735	0.000000	0.007667	-0.000751	0.000000	0.000000
45.720870	18.296317	14.487638	-0.124222	-0.102918	2.768981	0.000000	0.010510	0.000000	0.007444	-0.000732	0.000000	0.000000
46.269930	18.124334	14.881195	0.435123	-0.618023	2.752766	0.000000	-0.071113	0.000000	0.006977	-0.000966	0.000000	0.000000
46.818990	17.351341	15.861164	0.963708	-1.177154	2.692127	0.000000	-0.151491	0.000000	0.006386	-0.001182	0.000000	0.000000
47.368050	16.031983	17.497341	1.424181	-1.820140	2.588131	0.000000	-0.229200	0.000000	0.005683	-0.001378	0.000000	0.000000
47.917110	14.259513	19.906265	1.784009	-2.592784	2.442613	0.000000	-0.302866	0.000000	0.004878	-0.001549	0.000000	0.000000
48.363070	12.879595	22.048150	1.320434	-2.189608	2.323430	0.000000	-0.234747	0.000000	0.004214	-0.001431	0.000000	0.000000
48.804030	11.894658	23.764735	0.921042	-1.688192	2.234926	0.000000	-0.169696	0.000000	0.003606	-0.001330	0.000000	0.000000
49.244990	11.242182	25.003382	0.563746	-1.109960	2.174620	0.000000	-0.106564	0.000000	0.003038	-0.001245	0.000000	0.000000
49.685950	10.892338	25.707740	0.232219	-0.481227	2.141830	0.000000	-0.044632	0.000000	0.002506	-0.001173	0.000000	0.000000
50.128160	10.829286	25.845502	-0.062755	0.107584	2.136204	0.000000	0.011665	0.000000	0.002000	-0.001120	0.000000	0.000000
50.425482	10.874799	25.784988	-0.090319	0.095947	2.140006	0.000000	0.011665	0.000000	0.001668	-0.001120	0.000000	0.000000
50.758816	10.945312	25.725372	-0.121221	0.082901	2.144267	0.000000	0.011665	0.000000	0.001294	-0.001120	0.000000	0.000000
51.092149	11.036426	25.674453	-0.152123	0.069854	2.148529	0.000000	0.011665	0.000000	0.000921	-0.001120	0.000000	0.000000
51.426732	11.148374	25.632611	-0.092698	-0.151185	2.152785	0.000000	-0.005800	0.000000	0.000546	-0.001124	0.000000	0.000000
51.724055	11.211494	25.726040	-0.092158	-0.226424	2.151395	0.000000	-0.011065	0.000000	0.000212	-0.001125	0.000000	0.000000
52.165015	11.438840	25.639498	-0.425730	0.421936	2.160628	0.000000	0.050806	0.000000	-0.000284	-0.001126	0.000000	0.000000
52.605975	11.967789	24.987474	-0.778745	1.051094	2.197252	0.000000	0.113268	0.000000	-0.000783	-0.001140	0.000000	0.000000
53.046935	12.822496	23.799646	-1.167328	1.632425	2.261687	0.000000	0.177032	0.000000	-0.001291	-0.001166	0.000000	0.000000
53.487895	14.041997	22.130069	-1.609232	2.139481	2.354671	0.000000	0.242824	0.000000	-0.001813	-0.001206	0.000000	0.000000
53.933855	15.702856	20.029724	-2.128871	2.550485	2.478803	0.000000	0.311789	0.000000	-0.002363	-0.001260	0.000000	0.000000
54.482915	17.840913	17.666206	-1.742837	1.779749	2.630290	0.000000	0.236878	0.000000	-0.003032	-0.001173	0.000000	0.000000
55.031975	19.484555	16.074875	-1.233736	1.135777	2.739374	0.000000	0.157747	0.000000	-0.003647	-0.001065	0.000000	0.000000
55.581035	20.517733	15.142374	-0.637524	0.572700	2.804110	0.000000	0.075800	0.000000	-0.004197	-0.000938	0.000000	0.000000
56.130095	20.867512	14.802276	0.003692	0.050415	2.823343	0.000000	-0.007506	0.000000	-0.004674	-0.000794	0.000000	0.000000
56.428668	20.903397	14.754165	-0.067290	0.070416	2.823629	0.000000	0.000156	0.000000	-0.004914	-0.000806	0.000000	0.000000
56.762001	20.953597	14.714789	-0.083309	0.047711	2.823950	0.000000	0.000156	0.000000	-0.005183	-0.000806	0.000000	0.000000
57.095334	21.014476	14.690550	-0.099327	0.025007	2.824271	0.000000	0.000156	0.000000	-0.005452	-0.000806	0.000000	0.000000
57.429918	21.086322	14.681441	-0.115406	0.002217	2.824593	0.000000	0.000156	0.000000	-0.005722	-0.000806	0.000000	0.000000
57.727240	21.159218	14.686129	-0.187694	0.022054	2.824881	0.000000	0.007900	0.000000	-0.005962	-0.000822	0.000000	0.000000
58.276300	21.003751	14.943750	0.468758	-0.494069	2.806688	0.000000	-0.075469	0.000000	-0.006359	-0.000623	0.000000	0.000000
58.825360	20.141558	15.783959	1.092095	-1.045374	2.742913	0.000000	-0.157509	0.000000	-0.006644	-0.000412	0.000000	0.000000
59.374420	18.633531	17.266586	1.638306	-1.671123	2.634685	0.000000	-0.236763	0.000000	-0.006810	-0.000194	0.000000	0.000000
59.923480	16.586153	19.497211	2.068824	-2.415877	2.483919	0.000000	-0.311822	0.000000	-0.006856	0.000027	0.000000	0.000000
60.369440	14.982456	21.479815	1.540092	-2.011268	2.360359	0.000000	-0.242742	0.000000	-0.006884	-0.000151	0.000000	0.000000
60.810400	13.828985	23.041152	1.085807	-1.516376	2.268057	0.000000	-0.176805	0.000000	-0.006990	-0.000330	0.000000	0.000000
61.251360	13.052793	24.133877	0.681118	-0.952505	2.204434	0.000000	-0.112878	0.000000	-0.007175	-0.000512	0.000000	0.000000
61.692320	12.618428	24.708286	0.307542	-0.345307	2.168768	0.000000	-0.050231	0.000000	-0.007442	-0.000701	0.000000	0.000000
62.134530	12.506118	24.737678	-0.019197	0.212821	2.160667	0.000000	0.006170	0.000000	-0.007796	-0.000877	0.000000	0.000000
62.431853	12.524605	24.614860	-0.042980	0.200257	2.162763	0.000000	0.006170	0.000000	-0.008056	-0.000877	0.000000	0.000000
62.765186	12.562146	24.486050	-0.069643	0.186172	2.165112	0.000000	0.006170	0.000000	-0.008349	-0.000877	0.000000	0.000000
63.098520	12.617463	24.366630	-0.096307	0.172087	2.167461	0.000000	0.006170	0.000000	-0.008641	-0.000877	0.000000	0.000000
63.433103	12.690863	24.256206	-0.123070	0.157950	2.169819	0.000000	0.006170	0.000000	-0.008935	-0.000877	0.000000	0.000000
63.730426	12.771086	24.166077	-0.112880	0.080795	2.171912	0.000000	0.000393	0.000000	-0.009196	-0.000854	0.000000	0.000000
64.171386	13.032505	23.828627	-0.482647	0.681656	2.186255	0.000000	0.062843	0.000000	-0.009625	-0.001096	0.000000	0.000000
64.612346	13.628381	22.973044	-0.874447	1.251507	2.228372	0.000000	0.126021	0.000000	-0.010165	-0.001352	0.000000	0.000000
65.053306	14.585910	21.638258	-1.306169	1.764427	2.298747	0.000000	0.190648	0.000000	-0.010819	-0.001622	0.000000	0.000000
65.494266	15.948794	19.884995	-1.797523	2.197087	2.398189	0.000000	0.257463	0.000000	-0.011597	-0.001911	0.000000	0.000000
65.940226	17.802634	17.768048	-2.375356	2.530336	2.529460	0.000000	0.327596	0.000000	-0.012519	-0.002224	0.000000	0.000000
66.489286	20.176786	15.399653	-1.924961	1.809463	2.689554	0.000000	0.250930	0.000000	-0.013625	-0.001800	0.000000	0.000000
67.038346	21.978523	13.747783	-1.338711	1.217435	2.806033	0.000000	0.169787	0.000000	-0.014489	-0.001345	0.000000	0.000000
67.587406	23.080732	12.694793	-0.657990	0.712092	2.876820	0.000000	0.085611	0.000000	-0.015097	-0.000866	0.000000	0.000000
68.136466	23.405662	12.165694	0.069159	0.257451	2.900652	0.000000	-0.000097	0.000000	-0.015436	-0.000371	0.000000	0.000000
68.435038	23.409060	11.998627	-0.012343	0.266591	2.903280	0.000000	0.008423	0.000000	-0.015560	-0.000414	0.000000	0.000000
68.768372	23.422035	11.830818	-0.026584	0.236836	2.906225	0.000000	0.008423	0.000000	-0.015698	-0.000414	0.000000	0.000000
69.101705	23.444505	11.682846	-0.040826	0.207080	2.909171	0.000000	0.008423	0.000000	-0.015836	-0.000414	0.000000	0.000000
69.436288	23.476608	11.554268	-0.055121	0.177214	2.912128	0.000000	0.008423	0.000000	-0.015974	-0.000414	0.000000	0.000000
69.733611	23.513341	11.456693	-0.137188	0.184400	2.914766	0.000000	0.017021	0.000000	-0.016097	-0.000459	0.000000	0.000000
70.282671	23.260154	11.483121	0.595562	-0.232830	2.900501	0.000000	-0.069296	0.000000	-0.016206	0.000065	0.000000	0.000000
