#ParticleID	Turn	x[m]	xp	y[m]	yp	z[m]	dE[GeV]# s	beta_x	beta_y	alpha_x	alpha_y	D_x	D_y	D_px	D_py	orbit_x	orbit_px	orbit_y	orbit_py
0.300000	11.957193	25.251756	-0.016215	-0.023740	2.599701	0.000000	-0.000817	0.000000	-0.001161	0.000989	0.000000	0.000000
0.601250	11.974554	25.269655	-0.041416	-0.035676	2.599157	0.000000	-0.000817	0.000000	-0.000863	0.000989	0.000000	0.000000
0.898573	12.006577	25.294373	-0.036686	-0.109462	2.598620	0.000000	-0.007224	0.000000	-0.000569	0.000990	0.000000	0.000000
1.339533	12.192739	25.110210	-0.386753	0.525516	2.611197	0.000000	0.066219	0.000000	-0.000135	0.000981	0.000000	0.000000
1.780493	12.694237	24.374487	-0.754497	1.136588	2.656295	0.000000	0.140405	0.000000	0.000298	0.000983	0.000000	0.000000
2.221453	13.533993	23.120671	-1.156721	1.695949	2.734421	0.000000	0.216180	0.000000	0.000734	0.000997	0.000000	0.000000
2.662413	14.750383	21.405799	-1.611802	2.178147	2.846464	0.000000	0.294407	0.000000	0.001178	0.001021	0.000000	0.000000
3.108373	16.420018	19.282756	-2.144903	2.562419	2.995533	0.000000	0.376467	0.000000	0.001641	0.001058	0.000000	0.000000
3.657433	18.560152	16.897907	-1.729208	1.806610	3.176670	0.000000	0.284316	0.000000	0.002206	0.000995	0.000000	0.000000
4.206493	20.173610	15.267927	-1.191340	1.179483	3.305791	0.000000	0.187137	0.000000	0.002731	0.000915	0.000000	0.000000
4.755553	21.146386	14.276722	-0.569293	0.636371	3.380615	0.000000	0.086654	0.000000	0.003208	0.000819	0.000000	0.000000
5.304613	21.409733	13.853699	0.092989	0.138588	3.399818	0.000000	-0.015353	0.000000	0.003628	0.000708	0.000000	0.000000
5.603185	21.390747	13.756709	0.024798	0.151332	3.397590	0.000000	-0.006743	0.000000	0.003842	0.000718	0.000000	0.000000
5.936519	21.379412	13.664083	0.009206	0.126546	3.395103	0.000000	-0.006743	0.000000	0.004082	0.000718	0.000000	0.000000
6.269852	21.378472	13.587981	-0.006387	0.101761	3.392617	0.000000	-0.006743	0.000000	0.004321	0.000718	0.000000	0.000000
6.604435	21.387983	13.528210	-0.022038	0.076882	3.390120	0.000000	-0.006743	0.000000	0.004561	0.000718	0.000000	0.000000
6.901758	21.405237	13.489056	-0.089606	0.088733	3.387903	0.000000	0.001750	0.000000	0.004775	0.000730	0.000000	0.000000
7.450818	21.138742	13.653351	0.572460	-0.389707	3.360619	0.000000	-0.099744	0.000000	0.005132	0.000569	0.000000	0.000000
7.999878	20.163106	14.355142	1.194094	-0.895911	3.278097	0.000000	-0.199461	0.000000	0.005398	0.000399	0.000000	0.000000
8.548938	18.547251	15.644430	1.731372	-1.465940	3.141805	0.000000	-0.295632	0.000000	0.005569	0.000221	0.000000	0.000000
9.097998	16.405343	17.613065	2.146330	-2.140403	2.954164	0.000000	-0.386555	0.000000	0.005640	0.000040	0.000000	0.000000
9.543958	14.734575	19.366974	1.613205	-1.775542	2.799852	0.000000	-0.305609	0.000000	0.005691	0.000187	0.000000	0.000000
9.984918	13.517036	20.742296	1.158260	-1.331259	2.682051	0.000000	-0.228646	0.000000	0.005805	0.000335	0.000000	0.000000
10.425878	12.676005	21.697449	0.756242	-0.826394	2.597520	0.000000	-0.154292	0.000000	0.005986	0.000487	0.000000	0.000000
10.866838	12.173049	22.188967	0.388779	-0.283920	2.545294	0.000000	-0.081700	0.000000	0.006236	0.000644	0.000000	0.000000
11.309048	11.985036	22.193897	0.066514	0.220168	2.524756	0.000000	-0.015847	0.000000	0.006557	0.000794	0.000000	0.000000
11.606371	11.952892	22.067151	0.041597	0.206122	2.519808	0.000000	-0.015847	0.000000	0.006793	0.000794	0.000000	0.000000
12.086371	11.932268	21.880158	0.001370	0.183446	2.511820	0.000000	-0.015847	0.000000	0.007174	0.000794	0.000000	0.000000
12.566371	11.950262	21.714934	-0.038858	0.160770	2.503832	0.000000	-0.015847	0.000000	0.007555	0.000794	0.000000	0.000000
13.046371	12.006874	21.571478	-0.079085	0.138095	2.495844	0.000000	-0.015847	0.000000	0.007936	0.000794	0.000000	0.000000
13.526371	12.102105	21.449792	-0.119312	0.115419	2.487857	0.000000	-0.015847	0.000000	0.008317	0.000794	0.000000	0.000000
14.007621	12.236352	21.349643	-0.159644	0.092684	2.479848	0.000000	-0.015847	0.000000	0.008699	0.000794	0.000000	0.000000
14.304943	12.338664	21.298755	-0.156922	0.031153	2.474897	0.000000	-0.021392	0.000000	0.008935	0.000773	0.000000	0.000000
14.745903	12.635464	21.038260	-0.518305	0.557268	2.480555	0.000000	0.048790	0.000000	0.009327	0.001008	0.000000	0.000000
15.186863	13.260273	20.323161	-0.903386	1.058024	2.517153	0.000000	0.119516	0.000000	0.009826	0.001255	0.000000	0.000000
15.627823	14.241665	19.185994	-1.329768	1.510631	2.585103	0.000000	0.191591	0.000000	0.010436	0.001516	0.000000	0.000000
16.068783	15.624521	17.678501	-1.816945	1.894488	2.685174	0.000000	0.265832	0.000000	0.011165	0.001795	0.000000	0.000000
16.514743	17.495738	15.847581	-2.392164	2.193112	2.820188	0.000000	0.343579	0.000000	0.012032	0.002096	0.000000	0.000000
17.063803	19.898685	13.803838	-1.956575	1.550447	2.984436	0.000000	0.257353	0.000000	0.013073	0.001689	0.000000	0.000000
17.612863	21.743900	12.401477	-1.382670	1.018251	3.100241	0.000000	0.166588	0.000000	0.013882	0.001252	0.000000	0.000000
18.161923	22.900905	11.540596	-0.711015	0.558606	3.165556	0.000000	0.072888	0.000000	0.014444	0.000793	0.000000	0.000000
18.710983	23.287878	11.159867	0.010911	0.138763	3.179231	0.000000	-0.022094	0.000000	0.014750	0.000320	0.000000	0.000000
19.009556	23.316718	11.070135	-0.054967	0.136650	3.174680	0.000000	-0.014854	0.000000	0.014857	0.000356	0.000000	0.000000
19.342889	23.358143	10.989259	-0.069306	0.105977	3.169610	0.000000	-0.014854	0.000000	0.014975	0.000356	0.000000	0.000000
19.676223	23.409127	10.928833	-0.083646	0.075303	3.164540	0.000000	-0.014854	0.000000	0.015094	0.000356	0.000000	0.000000
20.010806	23.470206	10.888608	-0.214323	0.098464	3.159471	0.000000	0.000800	0.000000	0.015213	0.000431	0.000000	0.000000
20.308129	23.601754	10.838180	-0.280984	0.095498	3.159592	0.000000	0.007951	0.000000	0.015342	0.000469	0.000000	0.000000
20.857189	23.503466	10.953374	0.459045	-0.306493	3.137940	0.000000	-0.086267	0.000000	0.015462	-0.000030	0.000000	0.000000
21.406249	22.605257	11.519431	1.166627	-0.730324	3.065152	0.000000	-0.178954	0.000000	0.015308	-0.000529	0.000000	0.000000
21.955309	20.970637	12.576683	1.791740	-1.206196	2.942520	0.000000	-0.268474	0.000000	0.014883	-0.001018	0.000000	0.000000
22.504369	18.715192	14.200455	2.290190	-1.768015	2.772213	0.000000	-0.353247	0.000000	0.014194	-0.001489	0.000000	0.000000
22.950329	16.939747	15.659099	1.703297	-1.488145	2.632325	0.000000	-0.276796	0.000000	0.013610	-0.001128	0.000000	0.000000
23.391289	15.664227	16.823390	1.199276	-1.141655	2.526809	0.000000	-0.203981	0.000000	0.013189	-0.000783	0.000000	0.000000
23.832249	14.807609	17.657868	0.750086	-0.743203	2.452722	0.000000	-0.133483	0.000000	0.012918	-0.000446	0.000000	0.000000
24.273209	14.330718	18.124558	0.335188	-0.310925	2.409224	0.000000	-0.064500	0.000000	0.012795	-0.000115	0.000000	0.000000
24.715418	14.211898	18.201892	-0.033987	0.096335	2.395822	0.000000	-0.001391	0.000000	0.012817	0.000186	0.000000	0.000000
25.012741	14.238336	18.149509	-0.054932	0.079849	2.395353	0.000000	-0.001391	0.000000	0.012872	0.000186	0.000000	0.000000
25.346075	14.282784	18.102438	-0.078414	0.061366	2.394827	0.000000	-0.001391	0.000000	0.012934	0.000186	0.000000	0.000000
25.679408	14.342887	18.067688	-0.101895	0.042883	2.394302	0.000000	-0.001391	0.000000	0.012996	0.000186	0.000000	0.000000
26.013991	14.418666	18.045566	-0.008491	-0.122064	2.393750	0.000000	-0.020811	0.000000	0.013058	0.000080	0.000000	0.000000
26.311314	14.429774	18.123214	0.001746	-0.177532	2.387532	0.000000	-0.025917	0.000000	0.013082	0.000050	0.000000	0.000000
26.752274	14.606701	18.083426	-0.404334	0.267402	2.390980	0.000000	0.041990	0.000000	0.013178	0.000388	0.000000	0.000000
27.193234	15.148659	17.655056	-0.828900	0.700165	2.424310	0.000000	0.110372	0.000000	0.013425	0.000731	0.000000	0.000000
27.634194	16.080437	16.857596	-1.291366	1.101061	2.487898	0.000000	0.180003	0.000000	0.013825	0.001083	0.000000	0.000000
28.075154	17.444651	15.727338	-1.812877	1.451842	2.582466	0.000000	0.251674	0.000000	0.014382	0.001446	0.000000	0.000000
28.521114	19.327740	14.298469	-2.422509	1.737743	2.710700	0.000000	0.326682	0.000000	0.015112	0.001829	0.000000	0.000000
29.070174	21.722625	12.707210	-1.911540	1.176871	2.866838	0.000000	0.244130	0.000000	0.015979	0.001325	0.000000	0.000000
29.619234	23.478154	11.682584	-1.265427	0.699858	2.976662	0.000000	0.157268	0.000000	0.016563	0.000798	0.000000	0.000000
30.168294	24.470179	11.151591	-0.529849	0.272715	3.038230	0.000000	0.067627	0.000000	0.016853	0.000256	0.000000	0.000000
30.717354	24.628543	11.076399	0.243188	-0.134994	3.050454	0.000000	-0.023210	0.000000	0.016844	-0.000290	0.000000	0.000000
31.015927	24.519625	11.150487	0.175777	-0.137556	3.045614	0.000000	-0.016415	0.000000	0.016770	-0.000249	0.000000	0.000000
31.349260	24.407112	11.252344	0.161763	-0.168016	3.040225	0.000000	-0.016415	0.000000	0.016687	-0.000249	0.000000	0.000000
31.682593	24.303941	11.374508	0.147748	-0.198476	3.034837	0.000000	-0.016415	0.000000	0.016604	-0.000249	0.000000	0.000000
32.017177	24.209780	11.517551	0.133681	-0.229050	3.029428	0.000000	-0.016415	0.000000	0.016520	-0.000249	0.000000	0.000000
32.314499	24.134196	11.661740	0.067189	-0.230167	3.024633	0.000000	-0.009648	0.000000	0.016446	-0.000209	0.000000	0.000000
32.863559	23.647095	12.152694	0.814180	-0.669076	2.994905	0.000000	-0.099363	0.000000	0.016186	-0.000738	0.000000	0.000000
33.412619	22.366254	13.148930	1.503604	-1.155662	2.916591	0.000000	-0.187326	0.000000	0.015639	-0.001253	0.000000	0.000000
33.961679	20.382258	14.721424	2.086722	-1.724594	2.791075	0.000000	-0.271986	0.000000	0.014813	-0.001747	0.000000	0.000000
34.510739	17.835411	16.982202	2.522313	-2.416410	2.620572	0.000000	-0.351847	0.000000	0.013726	-0.002209	0.000000	0.000000
34.956699	15.856749	19.004886	1.928344	-2.099179	2.480747	0.000000	-0.279339	0.000000	0.012818	-0.001865	0.000000	0.000000
35.397659	14.381850	20.681323	1.427752	-1.687459	2.373564	0.000000	-0.210458	0.000000	0.012067	-0.001544	0.000000	0.000000
35.838619	13.318254	21.959188	0.992439	-1.198939	2.296076	0.000000	-0.143959	0.000000	0.011453	-0.001241	0.000000	0.000000
36.279579	12.617317	22.780335	0.602501	-0.655855	2.247405	0.000000	-0.079086	0.000000	0.010970	-0.000952	0.000000	0.000000
36.721789	12.246353	23.107660	0.266934	-0.133584	2.226980	0.000000	-0.020002	0.000000	0.010611	-0.000698	0.000000	0.000000
37.019112	12.095355	23.190989	0.240926	-0.146680	2.221241	0.000000	-0.020002	0.000000	0.010403	-0.000698	0.000000	0.000000
37.352445	11.944457	23.293670	0.211767	-0.161363	2.214806	0.000000	-0.020002	0.000000	0.010170	-0.000698	0.000000	0.000000
37.685779	11.812998	23.406139	0.182609	-0.176045	2.208371	0.000000	-0.020002	0.000000	0.009938	-0.000698	0.000000	0.000000
38.020362	11.700595	23.528874	0.153341	-0.190783	2.201913	0.000000	-0.020002	0.000000	0.009704	-0.000698	0.000000	0.000000
38.317684	11.617114	23.646278	0.153202	-0.256770	2.196170	0.000000	-0.024893	0.000000	0.009496	-0.000721	0.000000	0.000000
38.758644	11.630811	23.610729	-0.184576	0.337071	2.199329	0.000000	0.038070	0.000000	0.009232	-0.000479	0.000000	0.000000
39.199604	11.945052	23.056181	-0.530787	0.915570	2.230224	0.000000	0.101471	0.000000	0.009073	-0.000243	0.000000	0.000000
39.640564	12.574200	22.007876	-0.901255	1.452400	2.289208	0.000000	0.166030	0.000000	0.009017	-0.000010	0.000000	0.000000
40.081524	13.547012	20.513522	-1.312915	1.923129	2.376954	0.000000	0.232482	0.000000	0.009064	0.000223	0.000000	0.000000
40.527484	14.925554	18.618397	-1.788560	2.307860	2.495946	0.000000	0.302012	0.000000	0.009217	0.000460	0.000000	0.000000
41.076544	16.687398	16.488439	-1.400711	1.593806	2.641139	0.000000	0.226616	0.000000	0.009387	0.000159	0.000000	0.000000
41.625604	17.965992	15.076108	-0.913881	0.993305	2.743925	0.000000	0.147202	0.000000	0.009391	-0.000145	0.000000	0.000000
42.174664	18.670970	14.280783	-0.362476	0.463574	2.802479	0.000000	0.065174	0.000000	0.009228	-0.000447	0.000000	0.000000
42.723724	18.752518	14.045798	0.214535	-0.033126	2.815760	0.000000	-0.018017	0.000000	0.008901	-0.000741	0.000000	0.000000
43.022297	18.656278	14.051626	0.152904	-0.020335	2.812620	0.000000	-0.011223	0.000000	0.008687	-0.000718	0.000000	0.000000
43.502297	18.522128	14.087551	0.126574	-0.054509	2.807578	0.000000	-0.011223	0.000000	0.008342	-0.000718	0.000000	0.000000
43.982297	18.413255	14.156283	0.100244	-0.088682	2.802536	0.000000	-0.011223	0.000000	0.007997	-0.000718	0.000000	0.000000
44.462297	18.329660	14.257822	0.073914	-0.122856	2.797494	0.000000	-0.011223	0.000000	0.007652	-0.000718	0.000000	0.000000
44.942297	18.271341	14.392167	0.047584	-0.157030	2.792452	0.000000	-0.011223	0.000000	0.007307	-0.000718	0.000000	0.000000
45.423547	18.238472	14.559617	-0.069179	-0.119156	2.787414	0.000000	0.002588	0.000000	0.006962	-0.000684	0.000000	0.000000
45.720870	18.284503	14.636611	-0.130581	-0.103970	2.788389	0.000000	0.009454	0.000000	0.006758	-0.000667	0.000000	0.000000
46.269930	18.119697	15.033773	0.428534	-0.623582	2.771384	0.000000	-0.072784	0.000000	0.006333	-0.000879	0.000000	0.000000
46.818990	17.353887	16.022478	0.957355	-1.187614	2.709615	0.000000	-0.153745	0.000000	0.005796	-0.001075	0.000000	0.000000
47.368050	16.041208	17.673146	1.418517	-1.836247	2.604169	0.000000	-0.231996	0.000000	0.005156	-0.001253	0.000000	0.000000
47.917110	14.274435	20.103345	1.779440	-2.615684	2.456909	0.000000	-0.306152	0.000000	0.004424	-0.001408	0.000000	0.000000
48.363070	12.898537	22.263639	1.316029	-2.207841	2.336283	0.000000	-0.237683	0.000000	0.003821	-0.001301	0.000000	0.000000
48.804030	11.917517	23.993928	0.916587	-1.700938	2.246502	0.000000	-0.172317	0.000000	0.003268	-0.001210	0.000000	0.000000
49.244990	11.269087	25.241167	0.559035	-1.116640	2.185054	0.000000	-0.108902	0.000000	0.002752	-0.001132	0.000000	0.000000
49.685950	10.923606	25.948616	0.227036	-0.481536	2.151244	0.000000	-0.046715	0.000000	0.002267	-0.001067	0.000000	0.000000
50.128160	10.865448	26.083812	-0.068512	0.112936	2.144705	0.000000	0.009783	0.000000	0.001807	-0.001019	0.000000	0.000000
50.425482	10.914362	26.020087	-0.096004	0.101392	2.147917	0.000000	0.009783	0.000000	0.001504	-0.001019	0.000000	0.000000
50.758816	10.988640	25.956807	-0.126827	0.088449	2.151518	0.000000	0.009783	0.000000	0.001165	-0.001019	0.000000	0.000000
51.092149	11.083465	25.902155	-0.157649	0.075507	2.155119	0.000000	0.009783	0.000000	0.000825	-0.001019	0.000000	0.000000
51.426732	11.199083	25.856499	-0.097733	-0.147244	2.158711	0.000000	-0.007730	0.000000	0.000484	-0.001023	0.000000	0.000000
51.724055	11.265168	25.947550	-0.096956	-0.222895	2.156717	0.000000	-0.013010	0.000000	0.000179	-0.001024	0.000000	0.000000
52.165015	11.497336	25.855320	-0.431879	0.431257	2.165079	0.000000	0.048987	0.000000	-0.000272	-0.001025	0.000000	0.000000
52.605975	12.032419	25.192668	-0.786526	1.065782	2.200881	0.000000	0.111553	0.000000	-0.000726	-0.001038	0.000000	0.000000
53.046935	12.894852	23.989756	-1.177098	1.651813	2.264535	0.000000	0.175400	0.000000	-0.001189	-0.001062	0.000000	0.000000
53.487895	14.124025	22.301323	-1.621438	2.162686	2.356771	0.000000	0.241257	0.000000	-0.001665	-0.001099	0.000000	0.000000
53.933855	15.797095	20.178952	-2.144100	2.576461	2.480167	0.000000	0.310268	0.000000	-0.002166	-0.001149	0.000000	0.000000
54.482915	17.950650	17.790385	-1.755607	1.799653	2.630753	0.000000	0.235326	0.000000	-0.002775	-0.001069	0.000000	0.000000
55.031975	19.606573	16.179861	-1.243141	1.151026	2.738930	0.000000	0.156193	0.000000	-0.003336	-0.000970	0.000000	0.000000
55.581035	20.647945	15.232658	-0.642897	0.584381	2.802773	0.000000	0.074275	0.000000	-0.003837	-0.000854	0.000000	0.000000
56.130095	21.001247	14.881300	0.002732	0.059359	2.821142	0.000000	-0.008975	0.000000	-0.004270	-0.000722	0.000000	0.000000
56.428668	21.037788	14.827781	-0.068342	0.079506	2.820959	0.000000	-0.001343	0.000000	-0.004490	-0.000734	0.000000	0.000000
56.762001	21.088656	14.782318	-0.084260	0.056884	2.820756	0.000000	-0.001343	0.000000	-0.004734	-0.000734	0.000000	0.000000
57.095334	21.150136	14.751936	-0.100179	0.034261	2.820553	0.000000	-0.001343	0.000000	-0.004979	-0.000734	0.000000	0.000000
57.429918	21.222518	14.736607	-0.116157	0.011554	2.820349	0.000000	-0.001343	0.000000	-0.005224	-0.000734	0.000000	0.000000
57.727240	21.295831	14.735724	-0.188496	0.031452	2.820169	0.000000	0.006357	0.000000	-0.005442	-0.000748	0.000000	0.000000
58.276300	21.138746	14.983732	0.472525	-0.485850	2.801138	0.000000	-0.076847	0.000000	-0.005804	-0.000566	0.000000	0.000000
58.825360	20.270024	15.815300	1.100165	-1.037749	2.736632	0.000000	-0.158698	0.000000	-0.006062	-0.000374	0.000000	0.000000
59.374420	18.751018	17.289644	1.650107	-1.663550	2.627793	0.000000	-0.237740	0.000000	-0.006213	-0.000175	0.000000	0.000000
59.923480	16.688990	19.511757	2.083521	-2.407820	2.476547	0.000000	-0.312568	0.000000	-0.006253	0.000027	0.000000	0.000000
60.369440	15.073621	21.486613	1.551660	-2.002005	2.352608	0.000000	-0.243681	0.000000	-0.006278	-0.000136	0.000000	0.000000
60.810400	13.911107	23.039428	1.094813	-1.506355	2.259836	0.000000	-0.177949	0.000000	-0.006373	-0.000299	0.000000	0.000000
61.251360	13.127947	24.123158	0.687975	-0.942180	2.195644	0.000000	-0.114240	0.000000	-0.006541	-0.000465	0.000000	0.000000
61.692320	12.688369	24.688505	0.312563	-0.335147	2.159303	0.000000	-0.051827	0.000000	-0.006784	-0.000637	0.000000	0.000000
62.134530	12.572353	24.709164	-0.015802	0.222779	2.150408	0.000000	0.004381	0.000000	-0.007105	-0.000798	0.000000	0.000000
62.431853	12.588783	24.580445	-0.039457	0.210149	2.151948	0.000000	0.004381	0.000000	-0.007342	-0.000798	0.000000	0.000000
62.765186	12.623928	24.445066	-0.065977	0.195989	2.153674	0.000000	0.004381	0.000000	-0.007608	-0.000798	0.000000	0.000000
63.098520	12.676752	24.319126	-0.092497	0.181829	2.155401	0.000000	0.004381	0.000000	-0.007874	-0.000798	0.000000	0.000000
63.433103	12.747555	24.202207	-0.119116	0.167616	2.157133	0.000000	0.004381	0.000000	-0.008141	-0.000798	0.000000	0.000000
63.730426	12.825393	24.106340	-0.108885	0.091019	2.158671	0.000000	-0.001323	0.000000	-0.008378	-0.000776	0.000000	0.000000
64.171386	13.083824	23.760650	-0.479801	0.690042	2.172143	0.000000	0.060777	0.000000	-0.008769	-0.000997	0.000000	0.000000
64.612346	13.677674	22.898616	-0.872622	1.257674	2.213221	0.000000	0.123579	0.000000	-0.009259	-0.001230	0.000000	0.000000
65.053306	14.634047	21.559460	-1.305284	1.768093	2.282376	0.000000	0.187801	0.000000	-0.009855	-0.001476	0.000000	0.000000
65.494266	15.996599	19.804109	-1.797541	2.198084	2.380401	0.000000	0.254178	0.000000	-0.010563	-0.001739	0.000000	0.000000
65.940226	17.850902	17.687490	-2.376316	2.528615	2.510021	0.000000	0.323834	0.000000	-0.011402	-0.002024	0.000000	0.000000
66.489286	20.225097	15.319966	-1.923915	1.809518	2.668135	0.000000	0.247827	0.000000	-0.012409	-0.001638	0.000000	0.000000
67.038346	22.024685	13.667035	-1.335723	1.219272	2.783032	0.000000	0.167399	0.000000	-0.013195	-0.001224	0.000000	0.000000
67.587406	23.122688	12.610975	-0.653263	0.715845	2.852664	0.000000	0.083984	0.000000	-0.013748	-0.000787	0.000000	0.000000
68.136466	23.441645	12.076578	0.075296	0.263388	2.875789	0.000000	-0.000934	0.000000	-0.014057	-0.000337	0.000000	0.000000
68.435038	23.441074	11.906393	-0.005639	0.271650	2.878112	0.000000	0.007432	0.000000	-0.014169	-0.000376	0.000000	0.000000
68.768372	23.449573	11.735314	-0.019860	0.241588	2.880715	0.000000	0.007432	0.000000	-0.014295	-0.000376	0.000000	0.000000
69.101705	23.467553	11.584277	-0.034080	0.211526	2.883318	0.000000	0.007432	0.000000	-0.014420	-0.000376	0.000000	0.000000
69.436288	23.495134	11.452827	-0.048354	0.181351	2.885930	0.000000	0.007432	0.000000	-0.014545	-0.000376	0.000000	0.000000
69.733611	23.527807	11.352888	-0.129764	0.187636	2.888261	0.000000	0.015869	0.000000	-0.014657	-0.000416	0.000000	0.000000
70.282671	23.266262	11.374162	0.603277	-0.226619	2.873589	0.000000	-0.069587	0.000000	-0.014755	0.000060	0.000000	0.000000
