#ParticleID	Turn	x[m]	xp	y[m]	yp	z[m]	dE[GeV]# s	beta_x	beta_y	alpha_x	alpha_y	D_x	D_y	D_px	D_py	orbit_x	orbit_px	orbit_y	orbit_py
0.300000	11.964184	25.298817	-0.018003	-0.022607	2.598637	0.000000	-0.000264	0.000000	-0.001073	0.000921	0.000000	0.000000
0.601250	11.982619	25.316027	-0.043190	-0.034521	2.598280	0.000000	-0.000264	0.000000	-0.000796	0.000921	0.000000	0.000000
0.898573	12.015693	25.340051	-0.038438	-0.108393	2.597927	0.000000	-0.006666	0.000000	-0.000522	0.000922	0.000000	0.000000
1.339533	12.203497	25.154416	-0.388759	0.527771	2.610775	0.000000	0.066762	0.000000	-0.000117	0.000914	0.000000	0.000000
1.780493	12.706899	24.416218	-0.756849	1.139925	2.656138	0.000000	0.140940	0.000000	0.000286	0.000916	0.000000	0.000000
2.221453	13.548907	23.159036	-1.159524	1.700217	2.734529	0.000000	0.216715	0.000000	0.000692	0.000929	0.000000	0.000000
2.662413	14.768003	21.440062	-1.615185	2.183151	2.846838	0.000000	0.294948	0.000000	0.001107	0.000952	0.000000	0.000000
3.108373	16.440957	19.312312	-2.149024	2.567929	2.996180	0.000000	0.377021	0.000000	0.001538	0.000986	0.000000	0.000000
3.657433	18.585363	16.922133	-1.732865	1.810873	3.177651	0.000000	0.284844	0.000000	0.002065	0.000928	0.000000	0.000000
4.206493	20.202439	15.288016	-1.194276	1.182804	3.307087	0.000000	0.187629	0.000000	0.002554	0.000853	0.000000	0.000000
4.755553	21.177925	14.293575	-0.571303	0.638986	3.382199	0.000000	0.087100	0.000000	0.002999	0.000763	0.000000	0.000000
5.304613	21.442885	13.867983	0.092046	0.140682	3.401660	0.000000	-0.014962	0.000000	0.003390	0.000660	0.000000	0.000000
5.603185	21.424574	13.769669	0.023680	0.153552	3.399570	0.000000	-0.006329	0.000000	0.003590	0.000668	0.000000	0.000000
5.936519	21.413976	13.675560	0.008113	0.128773	3.397237	0.000000	-0.006329	0.000000	0.003812	0.000668	0.000000	0.000000
6.269852	21.413756	13.597971	-0.007454	0.103994	3.394905	0.000000	-0.006329	0.000000	0.004035	0.000668	0.000000	0.000000
6.604435	21.423972	13.536703	-0.023080	0.079123	3.392564	0.000000	-0.006329	0.000000	0.004259	0.000668	0.000000	0.000000
6.901758	21.441837	13.496217	-0.090869	0.091084	3.390484	0.000000	0.002194	0.000000	0.004458	0.000680	0.000000	0.000000
7.450818	21.176036	13.658022	0.572443	-0.387499	3.363444	0.000000	-0.099387	0.000000	0.004790	0.000530	0.000000	0.000000
7.999878	20.199723	14.357391	1.195324	-0.893688	3.281111	0.000000	-0.199196	0.000000	0.005038	0.000371	0.000000	0.000000
8.548938	18.581869	15.644151	1.733763	-1.463543	3.144950	0.000000	-0.295466	0.000000	0.005196	0.000205	0.000000	0.000000
9.097998	16.436780	17.609970	2.149715	-2.137660	2.957378	0.000000	-0.386492	0.000000	0.005262	0.000035	0.000000	0.000000
9.543958	14.763384	19.361360	1.615755	-1.772685	2.803117	0.000000	-0.305464	0.000000	0.005309	0.000173	0.000000	0.000000
9.984918	13.543926	20.734149	1.160086	-1.328412	2.685408	0.000000	-0.228417	0.000000	0.005415	0.000311	0.000000	0.000000
10.425878	12.701571	21.686839	0.757429	-0.823687	2.601010	0.000000	-0.153975	0.000000	0.005583	0.000453	0.000000	0.000000
10.866838	12.197826	22.176074	0.389381	-0.281477	2.548961	0.000000	-0.081292	0.000000	0.005815	0.000600	0.000000	0.000000
11.309048	12.009520	22.179006	0.066742	0.222052	2.528645	0.000000	-0.015378	0.000000	0.006114	0.000739	0.000000	0.000000
11.606371	11.977226	22.051146	0.041874	0.207985	2.523853	0.000000	-0.015378	0.000000	0.006334	0.000739	0.000000	0.000000
12.086371	11.956297	21.862381	0.001728	0.185276	2.516117	0.000000	-0.015378	0.000000	0.006688	0.000739	0.000000	0.000000
12.566371	11.973909	21.695416	-0.038419	0.162567	2.508381	0.000000	-0.015378	0.000000	0.007043	0.000739	0.000000	0.000000
13.046371	12.030061	21.550252	-0.078565	0.139858	2.500645	0.000000	-0.015378	0.000000	0.007397	0.000739	0.000000	0.000000
13.526371	12.124754	21.426889	-0.118711	0.117149	2.492909	0.000000	-0.015378	0.000000	0.007752	0.000739	0.000000	0.000000
14.007621	12.258384	21.325090	-0.158962	0.094380	2.485153	0.000000	-0.015378	0.000000	0.008108	0.000739	0.000000	0.000000
14.304943	12.360279	21.273193	-0.155959	0.032557	2.480358	0.000000	-0.020971	0.000000	0.008327	0.000719	0.000000	0.000000
14.745903	12.656424	21.011775	-0.517801	0.557952	2.486259	0.000000	0.049353	0.000000	0.008692	0.000939	0.000000	0.000000
15.186863	13.280962	20.296410	-0.903317	1.057957	2.523171	0.000000	0.120230	0.000000	0.009157	0.001169	0.000000	0.000000
15.627823	14.262456	19.159645	-1.330128	1.509817	2.591510	0.000000	0.192463	0.000000	0.009725	0.001412	0.000000	0.000000
16.068783	15.645787	17.653203	-1.817748	1.892965	2.692050	0.000000	0.266875	0.000000	0.010405	0.001672	0.000000	0.000000
16.514743	17.517858	15.823976	-2.393429	2.190926	2.827623	0.000000	0.344803	0.000000	0.011212	0.001952	0.000000	0.000000
17.063803	19.921685	13.782245	-1.957027	1.548993	2.992543	0.000000	0.258328	0.000000	0.012181	0.001573	0.000000	0.000000
17.612863	21.766879	12.381147	-1.382285	1.017423	3.108862	0.000000	0.167295	0.000000	0.012934	0.001166	0.000000	0.000000
18.161923	22.922973	11.520873	-0.709826	0.558344	3.174524	0.000000	0.073312	0.000000	0.013458	0.000738	0.000000	0.000000
18.710983	23.308217	11.140136	0.012818	0.139048	3.188373	0.000000	-0.021960	0.000000	0.013743	0.000298	0.000000	0.000000
19.009556	23.336292	11.050108	-0.053647	0.137104	3.183900	0.000000	-0.014623	0.000000	0.013842	0.000331	0.000000	0.000000
19.342889	23.376832	10.968949	-0.067972	0.106372	3.178915	0.000000	-0.014623	0.000000	0.013952	0.000331	0.000000	0.000000
19.676223	23.426922	10.908279	-0.082297	0.075639	3.173930	0.000000	-0.014623	0.000000	0.014063	0.000331	0.000000	0.000000
20.010806	23.487095	10.867850	-0.213044	0.098637	3.168946	0.000000	0.001078	0.000000	0.014174	0.000402	0.000000	0.000000
20.308129	23.617857	10.817345	-0.280311	0.095833	3.169156	0.000000	0.008328	0.000000	0.014293	0.000437	0.000000	0.000000
20.857189	23.518548	10.931846	0.460212	-0.305563	3.147635	0.000000	-0.086199	0.000000	0.014405	-0.000028	0.000000	0.000000
21.406249	22.618841	11.496519	1.168208	-0.728732	3.074791	0.000000	-0.179196	0.000000	0.014262	-0.000493	0.000000	0.000000
21.955309	20.982348	12.551593	1.793627	-1.203827	2.951915	0.000000	-0.269022	0.000000	0.013866	-0.000949	0.000000	0.000000
22.504369	18.724779	14.172239	2.292257	-1.764698	2.781184	0.000000	-0.354089	0.000000	0.013223	-0.001388	0.000000	0.000000
22.950329	16.947707	15.628200	1.705043	-1.485554	2.640935	0.000000	-0.277415	0.000000	0.012680	-0.001052	0.000000	0.000000
23.391289	15.670799	16.790544	1.200758	-1.139884	2.535168	0.000000	-0.204383	0.000000	0.012287	-0.000730	0.000000	0.000000
23.832249	14.812986	17.623843	0.751369	-0.742334	2.460934	0.000000	-0.133673	0.000000	0.012035	-0.000416	0.000000	0.000000
24.273209	14.335039	18.090174	0.336329	-0.310997	2.417391	0.000000	-0.064481	0.000000	0.011919	-0.000107	0.000000	0.000000
24.715418	14.215243	18.168002	-0.032621	0.095006	2.404045	0.000000	-0.001231	0.000000	0.011940	0.000173	0.000000	0.000000
25.012741	14.240867	18.116417	-0.053559	0.078494	2.403628	0.000000	-0.001231	0.000000	0.011991	0.000173	0.000000	0.000000
25.346075	14.284397	18.070259	-0.077033	0.059981	2.403160	0.000000	-0.001231	0.000000	0.012049	0.000173	0.000000	0.000000
25.679408	14.343578	18.036443	-0.100507	0.041468	2.402692	0.000000	-0.001231	0.000000	0.012107	0.000173	0.000000	0.000000
26.013991	14.418425	18.015276	-0.007097	-0.123263	2.402198	0.000000	-0.020719	0.000000	0.012164	0.000074	0.000000	0.000000
26.311314	14.428713	18.093635	0.003457	-0.179102	2.396010	0.000000	-0.025897	0.000000	0.012186	0.000046	0.000000	0.000000
26.752274	14.604099	18.055585	-0.402548	0.265047	2.399522	0.000000	0.042228	0.000000	0.012276	0.000361	0.000000	0.000000
27.193234	15.144405	17.629605	-0.826958	0.697133	2.433021	0.000000	0.110831	0.000000	0.012505	0.000681	0.000000	0.000000
27.634194	16.074341	16.835079	-1.289176	1.097491	2.496887	0.000000	0.180689	0.000000	0.012877	0.001008	0.000000	0.000000
28.075154	17.436439	15.708164	-1.810336	1.447898	2.591845	0.000000	0.252594	0.000000	0.013396	0.001347	0.000000	0.000000
28.521114	19.316964	14.282964	-2.419468	1.733582	2.720588	0.000000	0.327849	0.000000	0.014076	0.001703	0.000000	0.000000
29.070174	21.708507	12.695858	-1.908665	1.173468	2.877332	0.000000	0.244969	0.000000	0.014884	0.001234	0.000000	0.000000
29.619234	23.461013	11.674684	-1.262930	0.696968	2.987560	0.000000	0.157763	0.000000	0.015427	0.000743	0.000000	0.000000
30.168294	24.450558	11.146688	-0.527912	0.270131	3.049322	0.000000	0.067769	0.000000	0.015697	0.000238	0.000000	0.000000
30.717354	24.607165	11.074253	0.244426	-0.137457	3.061525	0.000000	-0.023424	0.000000	0.015688	-0.000270	0.000000	0.000000
31.015927	24.497915	11.149627	0.176372	-0.139741	3.056651	0.000000	-0.016520	0.000000	0.015619	-0.000232	0.000000	0.000000
31.349260	24.385010	11.252948	0.162343	-0.170222	3.051221	0.000000	-0.016520	0.000000	0.015542	-0.000232	0.000000	0.000000
31.682593	24.281458	11.376589	0.148313	-0.200702	3.045792	0.000000	-0.016520	0.000000	0.015464	-0.000232	0.000000	0.000000
32.017177	24.186924	11.521129	0.134230	-0.231296	3.040342	0.000000	-0.016520	0.000000	0.015387	-0.000232	0.000000	0.000000
32.314499	24.110991	11.666671	0.067131	-0.232105	3.035510	0.000000	-0.009648	0.000000	0.015318	-0.000195	0.000000	0.000000
32.863559	23.624409	12.159867	0.813337	-0.671259	3.005669	0.000000	-0.099710	0.000000	0.015075	-0.000687	0.000000	0.000000
33.412619	22.344945	13.158689	1.502039	-1.158243	2.927036	0.000000	-0.188014	0.000000	0.014565	-0.001167	0.000000	0.000000
33.961679	20.363078	14.734294	2.084553	-1.727755	2.800998	0.000000	-0.273001	0.000000	0.013797	-0.001627	0.000000	0.000000
34.510739	17.818952	16.998929	2.519702	-2.420373	2.629784	0.000000	-0.353170	0.000000	0.012784	-0.002058	0.000000	0.000000
34.956699	15.842440	19.025045	1.926292	-2.102975	2.489363	0.000000	-0.280434	0.000000	0.011938	-0.001737	0.000000	0.000000
35.397659	14.369193	20.704661	1.426138	-1.690892	2.381697	0.000000	-0.211339	0.000000	0.011239	-0.001438	0.000000	0.000000
35.838619	13.306886	21.985320	0.991186	-1.201853	2.303825	0.000000	-0.144636	0.000000	0.010667	-0.001156	0.000000	0.000000
36.279579	12.606939	22.808750	0.601548	-0.658118	2.254867	0.000000	-0.079568	0.000000	0.010217	-0.000887	0.000000	0.000000
36.721789	12.236708	23.137757	0.266435	-0.135586	2.234247	0.000000	-0.020351	0.000000	0.009883	-0.000650	0.000000	0.000000
37.019112	12.086011	23.222274	0.240412	-0.148673	2.228390	0.000000	-0.020351	0.000000	0.009689	-0.000650	0.000000	0.000000
37.352445	11.935461	23.326279	0.211238	-0.163344	2.221823	0.000000	-0.020351	0.000000	0.009473	-0.000650	0.000000	0.000000
37.685779	11.804360	23.440065	0.182064	-0.178015	2.215256	0.000000	-0.020351	0.000000	0.009256	-0.000650	0.000000	0.000000
38.020362	11.692327	23.564114	0.152780	-0.192742	2.208664	0.000000	-0.020351	0.000000	0.009038	-0.000650	0.000000	0.000000
38.317684	11.609188	23.682673	0.152793	-0.259158	2.202804	0.000000	-0.025291	0.000000	0.008845	-0.000671	0.000000	0.000000
38.758644	11.623170	23.648799	-0.184804	0.335675	2.205806	0.000000	0.037839	0.000000	0.008599	-0.000446	0.000000	0.000000
39.199604	11.937539	23.095025	-0.530845	0.915229	2.236625	0.000000	0.101405	0.000000	0.008450	-0.000227	0.000000	0.000000
39.640564	12.566660	22.046557	-0.901145	1.453131	2.295612	0.000000	0.166129	0.000000	0.008398	-0.000009	0.000000	0.000000
40.081524	13.539289	20.551109	-1.312631	1.924901	2.383440	0.000000	0.232745	0.000000	0.008442	0.000208	0.000000	0.000000
40.527484	14.917465	18.653995	-1.788074	2.310582	2.502596	0.000000	0.302442	0.000000	0.008584	0.000429	0.000000	0.000000
41.076544	16.678919	16.521671	-1.400529	1.595455	2.647976	0.000000	0.226830	0.000000	0.008742	0.000148	0.000000	0.000000
41.625604	17.957476	15.108075	-0.914019	0.993997	2.750818	0.000000	0.147195	0.000000	0.008746	-0.000135	0.000000	0.000000
42.174664	18.662779	14.312499	-0.362926	0.463357	2.809296	0.000000	0.064946	0.000000	0.008594	-0.000416	0.000000	0.000000
42.723724	18.744990	14.078259	0.213804	-0.034269	2.822371	0.000000	-0.018461	0.000000	0.008290	-0.000690	0.000000	0.000000
43.022297	18.649338	14.084593	0.151928	-0.021164	2.819101	0.000000	-0.011611	0.000000	0.008090	-0.000669	0.000000	0.000000
43.502297	18.516127	14.121276	0.125596	-0.055259	2.813849	0.000000	-0.011611	0.000000	0.007769	-0.000669	0.000000	0.000000
43.982297	18.408195	14.190690	0.099263	-0.089354	2.808597	0.000000	-0.011611	0.000000	0.007448	-0.000669	0.000000	0.000000
44.462297	18.325542	14.292835	0.072931	-0.123449	2.803345	0.000000	-0.011611	0.000000	0.007127	-0.000669	0.000000	0.000000
44.942297	18.268167	14.427712	0.046599	-0.157544	2.798093	0.000000	-0.011611	0.000000	0.006805	-0.000669	0.000000	0.000000
45.423547	18.236247	14.595618	-0.070155	-0.119412	2.792845	0.000000	0.002227	0.000000	0.006483	-0.000637	0.000000	0.000000
45.720870	18.282857	14.672752	-0.131749	-0.103924	2.793698	0.000000	0.009135	0.000000	0.006294	-0.000621	0.000000	0.000000
46.269930	18.119374	15.070450	0.427335	-0.624615	2.776444	0.000000	-0.073270	0.000000	0.005898	-0.000819	0.000000	0.000000
46.818990	17.354881	16.060906	0.956213	-1.189800	2.714329	0.000000	-0.154388	0.000000	0.005398	-0.001002	0.000000	0.000000
47.368050	16.043415	17.714664	1.417514	-1.839740	2.608448	0.000000	-0.232784	0.000000	0.004802	-0.001167	0.000000	0.000000
47.917110	14.277664	20.149515	1.778650	-2.620732	2.460672	0.000000	-0.307069	0.000000	0.004120	-0.001311	0.000000	0.000000
48.363070	12.902480	22.313823	1.315262	-2.211775	2.339618	0.000000	-0.238509	0.000000	0.003558	-0.001212	0.000000	0.000000
48.804030	11.922160	24.047014	0.915800	-1.703576	2.249454	0.000000	-0.173063	0.000000	0.003043	-0.001127	0.000000	0.000000
49.244990	11.274460	25.295959	0.558192	-1.117862	2.187659	0.000000	-0.109576	0.000000	0.002562	-0.001054	0.000000	0.000000
49.685950	10.929773	26.003838	0.226097	-0.481287	2.153534	0.000000	-0.047326	0.000000	0.002111	-0.000994	0.000000	0.000000
50.128160	10.872514	26.138163	-0.069541	0.114413	2.146707	0.000000	0.009216	0.000000	0.001683	-0.000949	0.000000	0.000000
50.425482	10.922036	26.073554	-0.097020	0.102889	2.149730	0.000000	0.009216	0.000000	0.001401	-0.000949	0.000000	0.000000
50.758816	10.996985	26.009268	-0.127826	0.089969	2.153118	0.000000	0.009216	0.000000	0.001084	-0.000949	0.000000	0.000000
51.092149	11.092471	25.953595	-0.158633	0.077050	2.156506	0.000000	0.009216	0.000000	0.000768	-0.000949	0.000000	0.000000
51.426732	11.208742	25.906900	-0.098622	-0.146088	2.159886	0.000000	-0.008306	0.000000	0.000450	-0.000953	0.000000	0.000000
51.724055	11.275351	25.997256	-0.097800	-0.221816	2.157699	0.000000	-0.013589	0.000000	0.000167	-0.000953	0.000000	0.000000
52.165015	11.508382	25.903497	-0.432977	0.433630	2.165781	0.000000	0.048429	0.000000	-0.000254	-0.000955	0.000000	0.000000
52.605975	12.044574	25.238218	-0.787930	1.069343	2.201310	0.000000	0.111010	0.000000	-0.000677	-0.000967	0.000000	0.000000
53.046935	12.908414	24.031699	-1.178872	1.656399	2.264695	0.000000	0.174865	0.000000	-0.001108	-0.000990	0.000000	0.000000
53.487895	14.139358	22.338843	-1.623663	2.168088	2.356663	0.000000	0.240722	0.000000	-0.001551	-0.001024	0.000000	0.000000
53.933855	15.814670	20.211374	-2.146887	2.582437	2.479787	0.000000	0.309727	0.000000	-0.002018	-0.001070	0.000000	0.000000
54.482915	17.971070	17.817018	-1.757928	1.804273	2.630040	0.000000	0.234802	0.000000	-0.002585	-0.000996	0.000000	0.000000
55.031975	19.629233	16.202006	-1.244829	1.154619	2.737901	0.000000	0.155697	0.000000	-0.003108	-0.000903	0.000000	0.000000
55.581035	20.672076	15.251299	-0.643831	0.587202	2.801448	0.000000	0.073816	0.000000	-0.003574	-0.000795	0.000000	0.000000
56.130095	21.025974	14.897171	0.002620	0.061611	2.819549	0.000000	-0.009387	0.000000	-0.003978	-0.000673	0.000000	0.000000
56.428668	21.062541	14.842339	-0.068372	0.081709	2.819222	0.000000	-0.001777	0.000000	-0.004182	-0.000683	0.000000	0.000000
56.762001	21.113422	14.795402	-0.084272	0.059101	2.818857	0.000000	-0.001777	0.000000	-0.004410	-0.000683	0.000000	0.000000
57.095334	21.174904	14.763537	-0.100172	0.036493	2.818493	0.000000	-0.001777	0.000000	-0.004637	-0.000683	0.000000	0.000000
57.429918	21.247275	14.746710	-0.116131	0.013800	2.818127	0.000000	-0.001777	0.000000	-0.004866	-0.000683	0.000000	0.000000
57.727240	21.320565	14.744489	-0.188353	0.033628	2.817803	0.000000	0.005894	0.000000	-0.005069	-0.000697	0.000000	0.000000
58.276300	21.162880	14.990228	0.473493	-0.483868	2.798515	0.000000	-0.077230	0.000000	-0.005406	-0.000527	0.000000	0.000000
58.825360	20.292675	15.819667	1.101891	-1.035821	2.733805	0.000000	-0.158993	0.000000	-0.005646	-0.000348	0.000000	0.000000
59.374420	18.771408	17.291870	1.652467	-1.661539	2.624818	0.000000	-0.237942	0.000000	-0.005787	-0.000163	0.000000	0.000000
59.923480	16.706505	19.511680	2.086347	-2.405585	2.473484	0.000000	-0.312674	0.000000	-0.005825	0.000025	0.000000	0.000000
60.369440	15.088878	21.484446	1.553913	-1.999566	2.349479	0.000000	-0.243865	0.000000	-0.005847	-0.000126	0.000000	0.000000
60.810400	13.924580	23.035076	1.096612	-1.503835	2.256601	0.000000	-0.178215	0.000000	-0.005936	-0.000278	0.000000	0.000000
61.251360	13.140002	24.116597	0.689402	-0.939694	2.192261	0.000000	-0.114590	0.000000	-0.006093	-0.000433	0.000000	0.000000
61.692320	12.699308	24.679811	0.313684	-0.332806	2.155730	0.000000	-0.052266	0.000000	-0.006319	-0.000593	0.000000	0.000000
62.134530	12.582421	24.698508	-0.015047	0.225145	2.146599	0.000000	0.003881	0.000000	-0.006617	-0.000743	0.000000	0.000000
62.431853	12.598396	24.568388	-0.038682	0.212496	2.147974	0.000000	0.003881	0.000000	-0.006838	-0.000743	0.000000	0.000000
62.765186	12.633017	24.431450	-0.065180	0.198316	2.149516	0.000000	0.003881	0.000000	-0.007086	-0.000743	0.000000	0.000000
63.098520	12.685304	24.303966	-0.091678	0.184136	2.151057	0.000000	0.003881	0.000000	-0.007334	-0.000743	0.000000	0.000000
63.433103	12.755551	24.185511	-0.118276	0.169903	2.152604	0.000000	0.003881	0.000000	-0.007582	-0.000743	0.000000	0.000000
63.730426	12.832887	24.088282	-0.108169	0.093661	2.153977	0.000000	-0.001782	0.000000	-0.007803	-0.000723	0.000000	0.000000
64.171386	13.090771	23.740490	-0.479244	0.692143	2.167194	0.000000	0.060194	0.000000	-0.008167	-0.000929	0.000000	0.000000
64.612346	13.684208	22.876871	-0.872199	1.259137	2.207954	0.000000	0.122865	0.000000	-0.008624	-0.001145	0.000000	0.000000
65.053306	14.640286	21.536719	-1.304978	1.768851	2.276725	0.000000	0.186948	0.000000	-0.009179	-0.001375	0.000000	0.000000
65.494266	16.002648	19.781008	-1.797341	2.198101	2.374295	0.000000	0.253174	0.000000	-0.009839	-0.001620	0.000000	0.000000
65.940226	17.856849	17.664702	-2.376236	2.527898	2.503376	0.000000	0.322669	0.000000	-0.010619	-0.001885	0.000000	0.000000
66.489286	20.230865	15.297648	-1.923554	1.809326	2.660846	0.000000	0.246885	0.000000	-0.011557	-0.001526	0.000000	0.000000
67.038346	22.029964	13.644625	-1.335100	1.219593	2.775241	0.000000	0.166699	0.000000	-0.012290	-0.001140	0.000000	0.000000
67.587406	23.127195	12.587908	-0.652416	0.716704	2.844523	0.000000	0.083539	0.000000	-0.012805	-0.000733	0.000000	0.000000
68.136466	23.445142	12.052237	0.076310	0.264848	2.867457	0.000000	-0.001114	0.000000	-0.013093	-0.000314	0.000000	0.000000
68.435038	23.443714	11.881378	-0.004174	0.272728	2.869696	0.000000	0.007172	0.000000	-0.013197	-0.000350	0.000000	0.000000
68.768372	23.451236	11.709607	-0.018392	0.242586	2.872203	0.000000	0.007172	0.000000	-0.013314	-0.000350	0.000000	0.000000
69.101705	23.468237	11.557931	-0.032611	0.212444	2.874710	0.000000	0.007172	0.000000	-0.013430	-0.000350	0.000000	0.000000
69.436288	23.494835	11.425893	-0.046883	0.182189	2.877227	0.000000	0.007172	0.000000	-0.013547	-0.000350	0.000000	0.000000
69.733611	23.526613	11.325487	-0.127810	0.188097	2.879471	0.000000	0.015525	0.000000	-0.013651	-0.000387	0.000000	0.000000
70.282671	23.262952	11.345836	0.605156	-0.225385	2.864681	0.000000	-0.069648	0.000000	-0.013742	0.000056	0.000000	0.000000
