#ParticleID	Turn	x[m]	xp	y[m]	yp	z[m]	dE[GeV]# s	beta_x	beta_y	alpha_x	alpha_y	D_x	D_y	D_px	D_py	orbit_x	orbit_px	orbit_y	orbit_py
0.300000	11.912793	25.029844	-0.009549	-0.028527	2.606736	0.000000	-0.002729	0.000000	-0.001306	0.001087	0.000000	0.000000
0.601250	11.926165	25.050661	-0.034839	-0.040572	2.605587	0.000000	-0.002729	0.000000	-0.000979	0.001087	0.000000	0.000000
0.898573	11.954303	25.078322	-0.030302	-0.113950	2.604453	0.000000	-0.009155	0.000000	-0.000655	0.001089	0.000000	0.000000
1.339533	12.134274	24.900619	-0.379010	0.515409	2.616168	0.000000	0.064427	0.000000	-0.000178	0.001078	0.000000	0.000000
1.780493	12.628232	24.176128	-0.745042	1.121322	2.660461	0.000000	0.138730	0.000000	0.000297	0.001079	0.000000	0.000000
2.221453	13.458754	22.937801	-1.145122	1.676220	2.737831	0.000000	0.214603	0.000000	0.000775	0.001093	0.000000	0.000000
2.662413	14.663798	21.241973	-1.597531	2.154852	2.849155	0.000000	0.292908	0.000000	0.001263	0.001119	0.000000	0.000000
3.108373	16.319283	19.140912	-2.127282	2.536619	2.997528	0.000000	0.375030	0.000000	0.001770	0.001159	0.000000	0.000000
3.657433	18.441351	16.780999	-1.714067	1.786719	3.177809	0.000000	0.282827	0.000000	0.002389	0.001091	0.000000	0.000000
4.206493	20.040073	15.170275	-1.179746	1.164086	3.306058	0.000000	0.185625	0.000000	0.002965	0.001005	0.000000	0.000000
4.755553	21.002480	14.194022	-0.562062	0.624371	3.380006	0.000000	0.085147	0.000000	0.003489	0.000900	0.000000	0.000000
5.304613	21.260555	13.782710	0.095348	0.129130	3.398350	0.000000	-0.016828	0.000000	0.003951	0.000779	0.000000	0.000000
5.603185	21.239871	13.691556	0.027587	0.141538	3.395652	0.000000	-0.008246	0.000000	0.004186	0.000790	0.000000	0.000000
5.936519	21.226715	13.605475	0.011881	0.116705	3.392640	0.000000	-0.008246	0.000000	0.004450	0.000790	0.000000	0.000000
6.269852	21.224030	13.535950	-0.003825	0.091871	3.389628	0.000000	-0.008246	0.000000	0.004713	0.000790	0.000000	0.000000
6.604435	21.231863	13.482813	-0.019589	0.066944	3.386605	0.000000	-0.008246	0.000000	0.004977	0.000790	0.000000	0.000000
6.901758	21.247694	13.449580	-0.086654	0.078535	3.383920	0.000000	0.000204	0.000000	0.005212	0.000803	0.000000	0.000000
7.450818	20.980889	13.624535	0.570103	-0.399035	3.355790	0.000000	-0.101149	0.000000	0.005605	0.000628	0.000000	0.000000
7.999878	20.010704	14.336403	1.186595	-0.905034	3.272514	0.000000	-0.200698	0.000000	0.005899	0.000441	0.000000	0.000000
8.548938	18.405680	15.635904	1.719259	-1.475509	3.135575	0.000000	-0.296679	0.000000	0.006088	0.000247	0.000000	0.000000
9.097998	16.279219	17.615617	2.130457	-2.151101	2.947406	0.000000	-0.387393	0.000000	0.006170	0.000048	0.000000	0.000000
9.543958	14.620947	19.379482	1.600933	-1.787043	2.792672	0.000000	-0.306625	0.000000	0.006227	0.000209	0.000000	0.000000
9.984918	13.412859	20.765120	1.149010	-1.343038	2.674368	0.000000	-0.229853	0.000000	0.006355	0.000371	0.000000	0.000000
10.425878	12.578813	21.730596	0.749593	-0.837913	2.589241	0.000000	-0.155703	0.000000	0.006555	0.000538	0.000000	0.000000
10.866838	12.080693	22.231969	0.384429	-0.294655	2.536319	0.000000	-0.083333	0.000000	0.006830	0.000710	0.000000	0.000000
11.309048	11.895598	22.245859	0.063877	0.210896	2.514975	0.000000	-0.017660	0.000000	0.007184	0.000874	0.000000	0.000000
11.606371	11.865076	22.124600	0.038781	0.196937	2.509464	0.000000	-0.017660	0.000000	0.007444	0.000874	0.000000	0.000000
12.086371	11.847293	21.946359	-0.001735	0.174400	2.500568	0.000000	-0.017660	0.000000	0.007864	0.000874	0.000000	0.000000
12.566371	11.868406	21.789752	-0.042250	0.151863	2.491671	0.000000	-0.017660	0.000000	0.008283	0.000874	0.000000	0.000000
13.046371	11.928414	21.654781	-0.082766	0.129326	2.482774	0.000000	-0.017660	0.000000	0.008703	0.000874	0.000000	0.000000
13.526371	12.027317	21.541446	-0.123282	0.106790	2.473878	0.000000	-0.017660	0.000000	0.009122	0.000874	0.000000	0.000000
14.007621	12.165525	21.449535	-0.163903	0.084194	2.464958	0.000000	-0.017660	0.000000	0.009543	0.000874	0.000000	0.000000
14.304943	12.270417	21.403680	-0.161772	0.022991	2.459444	0.000000	-0.023118	0.000000	0.009803	0.000851	0.000000	0.000000
14.745903	12.570884	21.149080	-0.521762	0.552105	2.464213	0.000000	0.046655	0.000000	0.010235	0.001110	0.000000	0.000000
15.186863	13.198214	20.437112	-0.905609	1.056094	2.499727	0.000000	0.116948	0.000000	0.010783	0.001380	0.000000	0.000000
15.627823	14.181100	19.300167	-1.330861	1.512021	2.566385	0.000000	0.188559	0.000000	0.011455	0.001667	0.000000	0.000000
16.068783	15.564495	17.789978	-1.816962	1.899135	2.664942	0.000000	0.262300	0.000000	0.012257	0.001973	0.000000	0.000000
16.514743	17.435352	15.953460	-2.391128	2.200850	2.798181	0.000000	0.339503	0.000000	0.013210	0.002303	0.000000	0.000000
17.063803	19.838643	13.902881	-1.958054	1.555164	2.960297	0.000000	0.254021	0.000000	0.014354	0.001857	0.000000	0.000000
17.612863	21.686901	12.496807	-1.386548	1.020285	3.074415	0.000000	0.164062	0.000000	0.015243	0.001377	0.000000	0.000000
18.161923	22.849419	11.635072	-0.717010	0.558105	3.138523	0.000000	0.071215	0.000000	0.015862	0.000873	0.000000	0.000000
18.710983	23.243978	11.256284	0.003229	0.135693	3.151492	0.000000	-0.022883	0.000000	0.016199	0.000353	0.000000	0.000000
19.009556	23.276849	11.168426	-0.061785	0.133670	3.146641	0.000000	-0.015814	0.000000	0.016316	0.000393	0.000000	0.000000
19.342889	23.322831	11.089439	-0.076161	0.103291	3.141238	0.000000	-0.015814	0.000000	0.016447	0.000393	0.000000	0.000000
19.676223	23.378396	11.030704	-0.090536	0.072912	3.135836	0.000000	-0.015814	0.000000	0.016578	0.000393	0.000000	0.000000
20.010806	23.444098	10.991980	-0.221120	0.096880	3.130433	0.000000	-0.000304	0.000000	0.016710	0.000476	0.000000	0.000000
20.308129	23.579737	10.942398	-0.286937	0.094033	3.130214	0.000000	0.006667	0.000000	0.016851	0.000516	0.000000	0.000000
20.857189	23.488343	11.060807	0.452530	-0.310912	3.108106	0.000000	-0.086595	0.000000	0.016984	-0.000032	0.000000	0.000000
21.406249	22.597361	11.633488	1.160008	-0.738014	3.035415	0.000000	-0.178321	0.000000	0.016816	-0.000580	0.000000	0.000000
21.955309	20.969796	12.701246	1.785478	-1.217707	2.913429	0.000000	-0.266892	0.000000	0.016350	-0.001117	0.000000	0.000000
22.504369	18.720748	14.340156	2.284718	-1.784170	2.744307	0.000000	-0.350744	0.000000	0.015593	-0.001635	0.000000	0.000000
22.950329	16.949917	15.811756	1.698152	-1.500788	2.605426	0.000000	-0.274998	0.000000	0.014953	-0.001238	0.000000	0.000000
23.391289	15.678822	16.985475	1.194253	-1.150258	2.500589	0.000000	-0.202867	0.000000	0.014491	-0.000859	0.000000	0.000000
23.832249	14.826638	17.825625	0.744958	-0.747373	2.426870	0.000000	-0.133037	0.000000	0.014194	-0.000489	0.000000	0.000000
24.273209	14.354387	18.293968	0.329724	-0.310470	2.383432	0.000000	-0.064718	0.000000	0.014059	-0.000125	0.000000	0.000000
24.715418	14.240655	18.368831	-0.040422	0.101607	2.369785	0.000000	-0.002145	0.000000	0.014084	0.000206	0.000000	0.000000
25.012741	14.270910	18.313273	-0.061335	0.085254	2.369086	0.000000	-0.002145	0.000000	0.014145	0.000206	0.000000	0.000000
25.346075	14.319614	18.262548	-0.084780	0.066920	2.368302	0.000000	-0.002145	0.000000	0.014214	0.000206	0.000000	0.000000
25.679408	14.383950	18.224047	-0.108225	0.048586	2.367518	0.000000	-0.002145	0.000000	0.014282	0.000206	0.000000	0.000000
26.013991	14.463951	18.198061	-0.014418	-0.117449	2.366708	0.000000	-0.021345	0.000000	0.014351	0.000090	0.000000	0.000000
26.311314	14.478550	18.272937	-0.004481	-0.172488	2.360327	0.000000	-0.026317	0.000000	0.014378	0.000057	0.000000	0.000000
26.752274	14.661537	18.226916	-0.411883	0.276434	2.363434	0.000000	0.040886	0.000000	0.014485	0.000429	0.000000	0.000000
27.193234	15.210884	17.788957	-0.838119	0.712774	2.396095	0.000000	0.108551	0.000000	0.014757	0.000806	0.000000	0.000000
27.634194	16.151719	16.978989	-1.302678	1.116672	2.458680	0.000000	0.177444	0.000000	0.015197	0.001192	0.000000	0.000000
28.075154	17.527079	15.833871	-1.826805	1.469742	2.551899	0.000000	0.248346	0.000000	0.015811	0.001592	0.000000	0.000000
28.521114	19.424151	14.388231	-2.439758	1.757151	2.678404	0.000000	0.322546	0.000000	0.016614	0.002013	0.000000	0.000000
29.070174	21.836914	12.777870	-1.926452	1.192385	2.832482	0.000000	0.241070	0.000000	0.017569	0.001459	0.000000	0.000000
29.619234	23.607123	11.737800	-1.276936	0.712587	2.940879	0.000000	0.155339	0.000000	0.018212	0.000879	0.000000	0.000000
30.168294	24.609577	11.193919	-0.537133	0.283568	3.001681	0.000000	0.066867	0.000000	0.018531	0.000284	0.000000	0.000000
30.717354	24.773371	11.107477	0.240648	-0.125243	3.013812	0.000000	-0.022788	0.000000	0.018522	-0.000317	0.000000	0.000000
31.015927	24.665499	11.175944	0.173992	-0.128048	3.009042	0.000000	-0.016197	0.000000	0.018441	-0.000272	0.000000	0.000000
31.349260	24.554146	11.271414	0.160069	-0.158363	3.003734	0.000000	-0.016197	0.000000	0.018350	-0.000272	0.000000	0.000000
31.682593	24.452074	11.387094	0.146146	-0.188678	2.998426	0.000000	-0.016197	0.000000	0.018259	-0.000272	0.000000	0.000000
32.017177	24.358954	11.523532	0.132170	-0.219106	2.993098	0.000000	-0.016197	0.000000	0.018168	-0.000272	0.000000	0.000000
32.314499	24.284285	11.661750	0.066376	-0.220555	2.988378	0.000000	-0.009628	0.000000	0.018087	-0.000229	0.000000	0.000000
32.863559	23.795287	12.141926	0.818373	-0.658926	2.959004	0.000000	-0.098178	0.000000	0.017801	-0.000810	0.000000	0.000000
33.412619	22.507146	13.126413	1.512501	-1.144252	2.881707	0.000000	-0.184998	0.000000	0.017199	-0.001378	0.000000	0.000000
33.961679	20.510976	14.685353	2.099683	-1.711116	2.757850	0.000000	-0.268558	0.000000	0.016292	-0.001920	0.000000	0.000000
34.510739	17.947956	16.929808	2.538410	-2.399906	2.589619	0.000000	-0.347383	0.000000	0.015096	-0.002429	0.000000	0.000000
34.956699	15.956415	18.937849	1.940949	-2.082837	2.451693	0.000000	-0.275648	0.000000	0.014098	-0.002050	0.000000	0.000000
35.397659	14.471629	20.600265	1.437507	-1.672066	2.346046	0.000000	-0.207495	0.000000	0.013273	-0.001697	0.000000	0.000000
35.838619	13.400473	21.865251	0.999793	-1.185192	2.269769	0.000000	-0.141688	0.000000	0.012598	-0.001364	0.000000	0.000000
36.279579	12.693949	22.675244	0.607794	-0.644378	2.221998	0.000000	-0.077480	0.000000	0.012067	-0.001046	0.000000	0.000000
36.721789	12.319114	22.993609	0.270249	-0.124030	2.202174	0.000000	-0.018930	0.000000	0.011673	-0.000767	0.000000	0.000000
37.019112	12.166111	23.071267	0.244352	-0.137160	2.196774	0.000000	-0.018930	0.000000	0.011445	-0.000767	0.000000	0.000000
37.352445	12.012888	23.167613	0.215317	-0.151880	2.190720	0.000000	-0.018930	0.000000	0.011189	-0.000767	0.000000	0.000000
37.685779	11.879021	23.273773	0.186283	-0.166599	2.184666	0.000000	-0.018930	0.000000	0.010934	-0.000767	0.000000	0.000000
38.020362	11.764118	23.390199	0.157139	-0.181374	2.178589	0.000000	-0.018930	0.000000	0.010677	-0.000767	0.000000	0.000000
38.317684	11.678338	23.502032	0.156976	-0.246548	2.173185	0.000000	-0.023719	0.000000	0.010449	-0.000791	0.000000	0.000000
38.758644	11.689305	23.459183	-0.182156	0.343336	2.176757	0.000000	0.038658	0.000000	0.010159	-0.000525	0.000000	0.000000
39.199604	12.001964	22.900959	-0.529610	0.917592	2.207798	0.000000	0.101480	0.000000	0.009985	-0.000266	0.000000	0.000000
39.640564	12.630607	21.852770	-0.901268	1.450086	2.266665	0.000000	0.165462	0.000000	0.009925	-0.000009	0.000000	0.000000
40.081524	13.603969	20.362320	-1.314121	1.916583	2.354027	0.000000	0.231328	0.000000	0.009977	0.000248	0.000000	0.000000
40.527484	14.984187	18.474788	-1.791041	2.297375	2.472358	0.000000	0.300259	0.000000	0.010146	0.000509	0.000000	0.000000
41.076544	16.747561	16.353908	-1.400940	1.587609	2.616785	0.000000	0.225638	0.000000	0.010334	0.000177	0.000000	0.000000
41.625604	18.025170	14.946222	-0.911838	0.990958	2.719251	0.000000	0.147016	0.000000	0.010339	-0.000158	0.000000	0.000000
42.174664	18.726716	14.151438	-0.358302	0.464912	2.777937	0.000000	0.065784	0.000000	0.010161	-0.000490	0.000000	0.000000
42.723724	18.802622	13.912926	0.220544	-0.028008	2.791799	0.000000	-0.016624	0.000000	0.009802	-0.000814	0.000000	0.000000
43.022297	18.702621	13.916121	0.159192	-0.016015	2.789062	0.000000	-0.009945	0.000000	0.009567	-0.000789	0.000000	0.000000
43.502297	18.562428	13.948057	0.132876	-0.050517	2.784667	0.000000	-0.009945	0.000000	0.009188	-0.000789	0.000000	0.000000
43.982297	18.447498	14.013113	0.106561	-0.085018	2.780272	0.000000	-0.009945	0.000000	0.008809	-0.000789	0.000000	0.000000
44.462297	18.357830	14.111291	0.080246	-0.119519	2.775877	0.000000	-0.009945	0.000000	0.008430	-0.000789	0.000000	0.000000
44.942297	18.293426	14.242590	0.053931	-0.154020	2.771482	0.000000	-0.009945	0.000000	0.008051	-0.000789	0.000000	0.000000
45.423547	18.254441	14.407303	-0.062896	-0.117229	2.767093	0.000000	0.003765	0.000000	0.007672	-0.000751	0.000000	0.000000
45.720870	18.296733	14.483210	-0.124014	-0.102870	2.768438	0.000000	0.010538	0.000000	0.007448	-0.000732	0.000000	0.000000
46.269930	18.124516	14.876641	0.435340	-0.617840	2.752244	0.000000	-0.071068	0.000000	0.006981	-0.000966	0.000000	0.000000
46.818990	17.351287	15.856329	0.963917	-1.176823	2.691634	0.000000	-0.151429	0.000000	0.006390	-0.001183	0.000000	0.000000
47.368050	16.031710	17.492052	1.424368	-1.819638	2.587676	0.000000	-0.229123	0.000000	0.005686	-0.001379	0.000000	0.000000
47.917110	14.259052	19.900315	1.784161	-2.592075	2.442205	0.000000	-0.302775	0.000000	0.004881	-0.001550	0.000000	0.000000
48.363070	12.879001	22.041628	1.320580	-2.189039	2.323061	0.000000	-0.234666	0.000000	0.004217	-0.001432	0.000000	0.000000
48.804030	11.893935	23.757782	0.921189	-1.687788	2.234590	0.000000	-0.169624	0.000000	0.003608	-0.001331	0.000000	0.000000
49.244990	11.241326	24.996152	0.563902	-1.109740	2.174314	0.000000	-0.106500	0.000000	0.003041	-0.001245	0.000000	0.000000
49.685950	10.891338	25.700401	0.232389	-0.481200	2.141551	0.000000	-0.044576	0.000000	0.002508	-0.001174	0.000000	0.000000
50.128160	10.828127	25.838225	-0.062565	0.107435	2.135949	0.000000	0.011715	0.000000	0.002002	-0.001120	0.000000	0.000000
50.425482	10.873527	25.777800	-0.090131	0.095795	2.139765	0.000000	0.011715	0.000000	0.001669	-0.001120	0.000000	0.000000
50.758816	10.943916	25.718287	-0.121036	0.082745	2.144044	0.000000	0.011715	0.000000	0.001295	-0.001120	0.000000	0.000000
51.092149	11.034908	25.667473	-0.151940	0.069696	2.148322	0.000000	0.011715	0.000000	0.000922	-0.001120	0.000000	0.000000
51.426732	11.146735	25.625737	-0.092531	-0.151291	2.152595	0.000000	-0.005748	0.000000	0.000547	-0.001125	0.000000	0.000000
51.724055	11.209757	25.719231	-0.091999	-0.226517	2.151220	0.000000	-0.011013	0.000000	0.000213	-0.001125	0.000000	0.000000
52.165015	11.436943	25.632849	-0.425528	0.421665	2.160476	0.000000	0.050854	0.000000	-0.000283	-0.001126	0.000000	0.000000
52.605975	11.965691	24.981139	-0.778489	1.050657	2.197120	0.000000	0.113312	0.000000	-0.000783	-0.001140	0.000000	0.000000
53.046935	12.820146	23.793762	-1.167008	1.631842	2.261573	0.000000	0.177072	0.000000	-0.001291	-0.001167	0.000000	0.000000
53.487895	14.039330	22.124755	-1.608832	2.138778	2.354576	0.000000	0.242862	0.000000	-0.001813	-0.001207	0.000000	0.000000
53.933855	15.699790	20.025078	-2.128373	2.549694	2.478724	0.000000	0.311825	0.000000	-0.002363	-0.001261	0.000000	0.000000
54.482915	17.837341	17.662321	-1.742419	1.779146	2.630232	0.000000	0.236916	0.000000	-0.003032	-0.001174	0.000000	0.000000
55.031975	19.480581	16.071570	-1.233427	1.135317	2.739337	0.000000	0.157786	0.000000	-0.003648	-0.001065	0.000000	0.000000
55.581035	20.513490	15.139510	-0.637346	0.572352	2.804095	0.000000	0.075840	0.000000	-0.004199	-0.000938	0.000000	0.000000
56.130095	20.863151	14.799744	0.003726	0.050153	2.823351	0.000000	-0.007466	0.000000	-0.004675	-0.000794	0.000000	0.000000
56.428668	20.899010	14.751794	-0.067248	0.070145	2.823650	0.000000	0.000197	0.000000	-0.004916	-0.000807	0.000000	0.000000
56.762001	20.949182	14.712600	-0.083269	0.047438	2.823984	0.000000	0.000197	0.000000	-0.005185	-0.000807	0.000000	0.000000
57.095334	21.010036	14.688544	-0.099291	0.024731	2.824319	0.000000	0.000197	0.000000	-0.005454	-0.000807	0.000000	0.000000
57.429918	21.081859	14.679621	-0.115373	0.001938	2.824655	0.000000	0.000197	0.000000	-0.005724	-0.000807	0.000000	0.000000
57.727240	21.154736	14.684475	-0.187653	0.021768	2.824955	0.000000	0.007941	0.000000	-0.005964	-0.000823	0.000000	0.000000
58.276300	20.999307	14.942386	0.468649	-0.494314	2.806783	0.000000	-0.075431	0.000000	-0.006361	-0.000623	0.000000	0.000000
58.825360	20.137312	15.782851	1.091844	-1.045597	2.743029	0.000000	-0.157475	0.000000	-0.006646	-0.000412	0.000000	0.000000
59.374420	18.629631	17.265717	1.637930	-1.671339	2.634819	0.000000	-0.236733	0.000000	-0.006813	-0.000194	0.000000	0.000000
59.923480	16.582722	19.496583	2.068351	-2.416102	2.484069	0.000000	-0.311796	0.000000	-0.006859	0.000027	0.000000	0.000000
60.369440	14.979400	21.479407	1.539720	-2.011534	2.360521	0.000000	-0.242712	0.000000	-0.006887	-0.000151	0.000000	0.000000
60.810400	13.826219	23.040991	1.085521	-1.516670	2.268233	0.000000	-0.176771	0.000000	-0.006993	-0.000330	0.000000	0.000000
61.251360	13.050247	24.133983	0.680903	-0.952814	2.204627	0.000000	-0.112839	0.000000	-0.007178	-0.000513	0.000000	0.000000
61.692320	12.616044	24.708666	0.307388	-0.345616	2.168980	0.000000	-0.050186	0.000000	-0.007446	-0.000701	0.000000	0.000000
62.134530	12.503846	24.738327	-0.019301	0.212521	2.160900	0.000000	0.006220	0.000000	-0.007799	-0.000878	0.000000	0.000000
62.431853	12.522396	24.615686	-0.043089	0.199960	2.163010	0.000000	0.006220	0.000000	-0.008060	-0.000878	0.000000	0.000000
62.765186	12.560012	24.487074	-0.069757	0.185877	2.165376	0.000000	0.006220	0.000000	-0.008352	-0.000878	0.000000	0.000000
63.098520	12.615406	24.367851	-0.096426	0.171794	2.167742	0.000000	0.006220	0.000000	-0.008645	-0.000878	0.000000	0.000000
63.433103	12.688887	24.257621	-0.123194	0.157658	2.170117	0.000000	0.006220	0.000000	-0.008939	-0.000878	0.000000	0.000000
63.730426	12.769185	24.167666	-0.113012	0.080499	2.172224	0.000000	0.000441	0.000000	-0.009200	-0.000854	0.000000	0.000000
64.171386	13.030703	23.830456	-0.482739	0.681410	2.186590	0.000000	0.062900	0.000000	-0.009630	-0.001097	0.000000	0.000000
64.612346	13.626644	22.975065	-0.874503	1.251321	2.228735	0.000000	0.126087	0.000000	-0.010169	-0.001352	0.000000	0.000000
65.053306	14.584207	21.640412	-1.306191	1.764311	2.299142	0.000000	0.190724	0.000000	-0.010824	-0.001623	0.000000	0.000000
65.494266	15.947096	19.887220	-1.797513	2.197045	2.398620	0.000000	0.257549	0.000000	-0.011603	-0.001912	0.000000	0.000000
65.940226	17.800912	17.770275	-2.375313	2.530371	2.529932	0.000000	0.327693	0.000000	-0.012524	-0.002225	0.000000	0.000000
66.489286	20.175055	15.401869	-1.924988	1.809451	2.690076	0.000000	0.251012	0.000000	-0.013631	-0.001801	0.000000	0.000000
67.038346	21.976859	13.750039	-1.338807	1.217373	2.806595	0.000000	0.169851	0.000000	-0.014496	-0.001345	0.000000	0.000000
67.587406	23.079207	12.697146	-0.658147	0.711977	2.877412	0.000000	0.085657	0.000000	-0.015103	-0.000866	0.000000	0.000000
68.136466	23.404337	12.168206	0.068952	0.257275	2.901264	0.000000	-0.000071	0.000000	-0.015443	-0.000371	0.000000	0.000000
68.435038	23.407859	12.001237	-0.012550	0.266432	2.903901	0.000000	0.008451	0.000000	-0.015567	-0.000414	0.000000	0.000000
68.768372	23.420973	11.833531	-0.026792	0.236685	2.906856	0.000000	0.008451	0.000000	-0.015705	-0.000414	0.000000	0.000000
69.101705	23.443582	11.685656	-0.041035	0.206939	2.909811	0.000000	0.008451	0.000000	-0.015843	-0.000414	0.000000	0.000000
69.436288	23.475824	11.557170	-0.055331	0.177081	2.912777	0.000000	0.008451	0.000000	-0.015982	-0.000414	0.000000	0.000000
69.733611	23.512682	11.459671	-0.137400	0.184286	2.915424	0.000000	0.017052	0.000000	-0.016105	-0.000459	0.000000	0.000000
70.282671	23.259737	11.486272	0.595335	-0.233030	2.901170	0.000000	-0.069287	0.000000	-0.016213	0.000065	0.000000	0.000000
