#ParticleID	Turn	x[m]	xp	y[m]	yp	z[m]	dE[GeV]# s	beta_x	beta_y	alpha_x	alpha_y	D_x	D_y	D_px	D_py	orbit_x	orbit_px	orbit_y	orbit_py
0.300000	11.961349	25.325250	-0.019897	-0.021680	2.599136	0.000000	0.000422	0.000000	-0.000875	0.000760	0.000000	0.000000
0.601250	11.980927	25.341897	-0.045092	-0.033581	2.599034	0.000000	0.000422	0.000000	-0.000646	0.000760	0.000000	0.000000
0.898573	12.015134	25.365358	-0.040377	-0.107501	2.598933	0.000000	-0.005977	0.000000	-0.000420	0.000761	0.000000	0.000000
1.339533	12.204634	25.178646	-0.390736	0.529314	2.612160	0.000000	0.067482	0.000000	-0.000086	0.000755	0.000000	0.000000
1.780493	12.709803	24.438825	-0.758952	1.142049	2.657916	0.000000	0.141702	0.000000	0.000247	0.000757	0.000000	0.000000
2.221453	13.553730	23.179550	-1.161849	1.702824	2.736722	0.000000	0.217527	0.000000	0.000582	0.000767	0.000000	0.000000
2.662413	14.774979	21.458111	-1.617835	2.186122	2.849471	0.000000	0.295822	0.000000	0.000925	0.000787	0.000000	0.000000
3.108373	16.450447	19.327605	-2.152119	2.571124	2.999290	0.000000	0.377969	0.000000	0.001282	0.000815	0.000000	0.000000
3.657433	18.598175	16.934322	-1.735885	1.813386	3.181339	0.000000	0.285683	0.000000	0.001717	0.000767	0.000000	0.000000
4.206493	20.218374	15.297745	-1.197013	1.184815	3.311282	0.000000	0.188342	0.000000	0.002121	0.000705	0.000000	0.000000
4.755553	21.196570	14.301311	-0.573567	0.640637	3.386820	0.000000	0.087671	0.000000	0.002488	0.000630	0.000000	0.000000
5.304613	21.463640	13.874053	0.090410	0.142090	3.406619	0.000000	-0.014544	0.000000	0.002811	0.000544	0.000000	0.000000
5.603185	21.446500	13.774767	0.021731	0.155175	3.404706	0.000000	-0.005855	0.000000	0.002976	0.000551	0.000000	0.000000
5.936519	21.437196	13.679577	0.006181	0.130393	3.402570	0.000000	-0.005855	0.000000	0.003159	0.000551	0.000000	0.000000
6.269852	21.438259	13.600909	-0.009369	0.105612	3.400435	0.000000	-0.005855	0.000000	0.003343	0.000551	0.000000	0.000000
6.604435	21.449751	13.538560	-0.024977	0.080737	3.398292	0.000000	-0.005855	0.000000	0.003528	0.000551	0.000000	0.000000
6.901758	21.468736	13.497117	-0.093188	0.092906	3.396388	0.000000	0.002742	0.000000	0.003692	0.000561	0.000000	0.000000
7.450818	21.204940	13.656915	0.571072	-0.385647	3.369651	0.000000	-0.099033	0.000000	0.003966	0.000437	0.000000	0.000000
7.999878	20.229551	14.354164	1.194997	-0.891673	3.287500	0.000000	-0.199044	0.000000	0.004170	0.000305	0.000000	0.000000
8.548938	18.611473	15.638540	1.734505	-1.461220	3.151395	0.000000	-0.295520	0.000000	0.004300	0.000168	0.000000	0.000000
9.097998	16.465023	17.601537	2.151477	-2.134860	2.963752	0.000000	-0.386750	0.000000	0.004354	0.000028	0.000000	0.000000
9.543958	14.790354	19.350429	1.616904	-1.769963	2.809422	0.000000	-0.305563	0.000000	0.004391	0.000141	0.000000	0.000000
9.984918	13.570148	20.720871	1.160658	-1.325873	2.691724	0.000000	-0.228355	0.000000	0.004478	0.000255	0.000000	0.000000
10.425878	12.727535	21.671434	0.757446	-0.821450	2.607419	0.000000	-0.153751	0.000000	0.004617	0.000373	0.000000	0.000000
10.866838	12.224010	22.158860	0.388845	-0.279644	2.555544	0.000000	-0.080903	0.000000	0.004808	0.000494	0.000000	0.000000
11.309048	12.036412	22.160392	0.065993	0.222920	2.535489	0.000000	-0.014898	0.000000	0.005054	0.000609	0.000000	0.000000
11.606371	12.004546	22.032021	0.041184	0.208836	2.530879	0.000000	-0.014898	0.000000	0.005235	0.000609	0.000000	0.000000
12.086371	11.984235	21.842451	0.001131	0.186100	2.523435	0.000000	-0.014898	0.000000	0.005528	0.000609	0.000000	0.000000
12.566371	12.002375	21.674709	-0.038922	0.163363	2.515992	0.000000	-0.014898	0.000000	0.005820	0.000609	0.000000	0.000000
13.046371	12.058965	21.528794	-0.078974	0.140626	2.508549	0.000000	-0.014898	0.000000	0.006112	0.000609	0.000000	0.000000
13.526371	12.154005	21.404706	-0.119027	0.117890	2.501105	0.000000	-0.014898	0.000000	0.006405	0.000609	0.000000	0.000000
14.007621	12.287895	21.302208	-0.159184	0.095094	2.493643	0.000000	-0.014898	0.000000	0.006698	0.000609	0.000000	0.000000
14.304943	12.389912	21.249878	-0.155623	0.032527	2.489030	0.000000	-0.020597	0.000000	0.006879	0.000593	0.000000	0.000000
14.745903	12.686020	20.988772	-0.518121	0.557290	2.495207	0.000000	0.049951	0.000000	0.007180	0.000774	0.000000	0.000000
15.186863	13.311089	20.274276	-0.904304	1.056693	2.532511	0.000000	0.121061	0.000000	0.007563	0.000964	0.000000	0.000000
15.627823	14.293700	19.138896	-1.331824	1.508011	2.601364	0.000000	0.193539	0.000000	0.008032	0.001165	0.000000	0.000000
16.068783	15.678778	17.634293	-1.820223	1.890702	2.702547	0.000000	0.268210	0.000000	0.008593	0.001379	0.000000	0.000000
16.514743	17.553278	15.807345	-2.396756	2.188264	2.838905	0.000000	0.346412	0.000000	0.009259	0.001611	0.000000	0.000000
17.063803	19.959983	13.768220	-1.959210	1.546992	3.004764	0.000000	0.259562	0.000000	0.010059	0.001298	0.000000	0.000000
17.612863	21.806744	12.369072	-1.383190	1.015934	3.121773	0.000000	0.168128	0.000000	0.010680	0.000962	0.000000	0.000000
18.161923	22.963006	11.510232	-0.709401	0.557257	3.187865	0.000000	0.073726	0.000000	0.011112	0.000609	0.000000	0.000000
18.710983	23.347021	11.130520	0.014533	0.138283	3.201871	0.000000	-0.021974	0.000000	0.011347	0.000245	0.000000	0.000000
19.009556	23.374939	11.040571	-0.053305	0.136926	3.197476	0.000000	-0.014427	0.000000	0.011429	0.000273	0.000000	0.000000
19.342889	23.415242	10.959540	-0.067605	0.106168	3.192576	0.000000	-0.014427	0.000000	0.011520	0.000273	0.000000	0.000000
19.676223	23.465080	10.899013	-0.081906	0.075411	3.187676	0.000000	-0.014427	0.000000	0.011611	0.000273	0.000000	0.000000
20.010806	23.524983	10.858746	-0.212817	0.098339	3.182777	0.000000	0.001342	0.000000	0.011702	0.000331	0.000000	0.000000
20.308129	23.655558	10.808445	-0.281529	0.096111	3.183085	0.000000	0.008811	0.000000	0.011801	0.000360	0.000000	0.000000
20.857189	23.556911	10.922493	0.460214	-0.305016	3.161726	0.000000	-0.086163	0.000000	0.011893	-0.000024	0.000000	0.000000
21.406249	22.656575	11.486378	1.169432	-0.727875	3.088757	0.000000	-0.179608	0.000000	0.011775	-0.000407	0.000000	0.000000
21.955309	21.018198	12.540276	1.795998	-1.202596	2.965472	0.000000	-0.269873	0.000000	0.011448	-0.000783	0.000000	0.000000
22.504369	18.757601	14.159267	2.295624	-1.762999	2.794055	0.000000	-0.355362	0.000000	0.010917	-0.001146	0.000000	0.000000
22.950329	16.978050	15.613794	1.707598	-1.484225	2.653226	0.000000	-0.278371	0.000000	0.010468	-0.000868	0.000000	0.000000
23.391289	15.699297	16.775095	1.202564	-1.138940	2.547043	0.000000	-0.205032	0.000000	0.010144	-0.000602	0.000000	0.000000
23.832249	14.840237	17.607723	0.752503	-0.741820	2.472549	0.000000	-0.134023	0.000000	0.009936	-0.000344	0.000000	0.000000
24.273209	14.361590	18.073787	0.336838	-0.310939	2.428898	0.000000	-0.064536	0.000000	0.009841	-0.000089	0.000000	0.000000
24.715418	14.241594	18.151791	-0.031931	0.093723	2.415595	0.000000	-0.001142	0.000000	0.009858	0.000142	0.000000	0.000000
25.012741	14.266795	18.100972	-0.052829	0.077200	2.415213	0.000000	-0.001142	0.000000	0.009900	0.000142	0.000000	0.000000
25.346075	14.309824	18.055681	-0.076259	0.058675	2.414785	0.000000	-0.001142	0.000000	0.009947	0.000142	0.000000	0.000000
25.679408	14.368473	18.022739	-0.099688	0.040150	2.414357	0.000000	-0.001142	0.000000	0.009995	0.000142	0.000000	0.000000
26.013991	14.442757	18.002459	-0.006037	-0.124489	2.413903	0.000000	-0.020725	0.000000	0.010042	0.000061	0.000000	0.000000
26.311314	14.452425	18.081526	0.005358	-0.181264	2.407719	0.000000	-0.026053	0.000000	0.010060	0.000037	0.000000	0.000000
26.752274	14.626347	18.045529	-0.401146	0.262574	2.411243	0.000000	0.042370	0.000000	0.010134	0.000298	0.000000	0.000000
27.193234	15.165578	17.621840	-0.825989	0.694462	2.444908	0.000000	0.111273	0.000000	0.010323	0.000561	0.000000	0.000000
27.634194	16.094773	16.829738	-1.288591	1.094745	2.509098	0.000000	0.181438	0.000000	0.010630	0.000832	0.000000	0.000000
28.075154	17.456422	15.705267	-1.810100	1.445205	2.604540	0.000000	0.253661	0.000000	0.011058	0.001111	0.000000	0.000000
28.521114	19.336676	14.282507	-2.419506	1.731019	2.733937	0.000000	0.329242	0.000000	0.011619	0.001405	0.000000	0.000000
29.070174	21.727659	12.698104	-1.907928	1.171187	2.891457	0.000000	0.245924	0.000000	0.012285	0.001018	0.000000	0.000000
29.619234	23.478833	11.679395	-1.261490	0.694802	3.002171	0.000000	0.158259	0.000000	0.012734	0.000613	0.000000	0.000000
30.168294	24.466390	11.153808	-0.525884	0.267922	3.064120	0.000000	0.067796	0.000000	0.012956	0.000196	0.000000	0.000000
30.717354	24.620508	11.083899	0.246894	-0.139868	3.076207	0.000000	-0.023866	0.000000	0.012949	-0.000223	0.000000	0.000000
31.015927	24.510808	11.160248	0.177223	-0.141410	3.071261	0.000000	-0.016731	0.000000	0.012892	-0.000191	0.000000	0.000000
31.349260	24.397335	11.264676	0.163196	-0.171875	3.065748	0.000000	-0.016731	0.000000	0.012828	-0.000191	0.000000	0.000000
31.682593	24.293213	11.389414	0.149170	-0.202340	3.060235	0.000000	-0.016731	0.000000	0.012764	-0.000191	0.000000	0.000000
32.017177	24.198104	11.535045	0.135091	-0.232919	3.054701	0.000000	-0.016731	0.000000	0.012700	-0.000191	0.000000	0.000000
32.314499	24.121606	11.681574	0.066454	-0.232941	3.049790	0.000000	-0.009635	0.000000	0.012643	-0.000160	0.000000	0.000000
32.863559	23.635643	12.175911	0.812979	-0.672547	3.019792	0.000000	-0.100150	0.000000	0.012443	-0.000567	0.000000	0.000000
33.412619	22.356486	13.176399	1.502036	-1.160073	2.940712	0.000000	-0.188898	0.000000	0.012022	-0.000963	0.000000	0.000000
33.961679	20.374574	14.754311	2.084920	-1.730253	2.813948	0.000000	-0.274309	0.000000	0.011388	-0.001342	0.000000	0.000000
34.510739	17.830026	17.022054	2.520436	-2.423708	2.641740	0.000000	-0.354875	0.000000	0.010552	-0.001698	0.000000	0.000000
34.956699	15.853121	19.050873	1.926842	-2.105891	2.500490	0.000000	-0.281849	0.000000	0.009855	-0.001433	0.000000	0.000000
35.397659	14.379580	20.732753	1.426476	-1.693203	2.392145	0.000000	-0.212479	0.000000	0.009277	-0.001187	0.000000	0.000000
35.838619	13.317135	22.015111	0.991320	-1.203458	2.313735	0.000000	-0.145516	0.000000	0.008806	-0.000954	0.000000	0.000000
36.279579	12.617206	22.839597	0.601479	-0.658947	2.264368	0.000000	-0.080202	0.000000	0.008435	-0.000731	0.000000	0.000000
36.721789	12.247147	23.168992	0.266692	-0.136675	2.243464	0.000000	-0.020861	0.000000	0.008159	-0.000537	0.000000	0.000000
37.019112	12.096291	23.254152	0.240688	-0.149748	2.237421	0.000000	-0.020861	0.000000	0.008000	-0.000537	0.000000	0.000000
37.352445	11.945550	23.358870	0.211535	-0.164404	2.230646	0.000000	-0.020861	0.000000	0.007821	-0.000537	0.000000	0.000000
37.685779	11.814244	23.473357	0.182382	-0.179059	2.223872	0.000000	-0.020861	0.000000	0.007642	-0.000537	0.000000	0.000000
38.020362	11.701991	23.598100	0.153120	-0.193770	2.217072	0.000000	-0.020861	0.000000	0.007462	-0.000537	0.000000	0.000000
38.317684	11.618653	23.717248	0.153605	-0.261096	2.211027	0.000000	-0.025901	0.000000	0.007303	-0.000554	0.000000	0.000000
38.758644	11.632020	23.684679	-0.184184	0.334667	2.213764	0.000000	0.037435	0.000000	0.007100	-0.000368	0.000000	0.000000
39.199604	11.945917	23.131378	-0.530388	0.915198	2.244423	0.000000	0.101202	0.000000	0.006977	-0.000187	0.000000	0.000000
39.640564	12.574688	22.082525	-0.900829	1.454080	2.303354	0.000000	0.166123	0.000000	0.006935	-0.000007	0.000000	0.000000
40.081524	13.547071	20.585853	-1.312439	1.926789	2.391229	0.000000	0.232937	0.000000	0.006971	0.000172	0.000000	0.000000
40.527484	14.925062	18.686733	-1.787964	2.313294	2.510534	0.000000	0.302832	0.000000	0.007088	0.000354	0.000000	0.000000
41.076544	16.686172	16.552038	-1.400110	1.597168	2.656082	0.000000	0.226963	0.000000	0.007219	0.000122	0.000000	0.000000
41.625604	17.964087	15.137084	-0.913327	0.994827	2.758924	0.000000	0.147069	0.000000	0.007222	-0.000112	0.000000	0.000000
42.174664	18.668502	14.341069	-0.362013	0.463361	2.817235	0.000000	0.064564	0.000000	0.007097	-0.000344	0.000000	0.000000
42.723724	18.749645	14.107281	0.214873	-0.035093	2.829980	0.000000	-0.019091	0.000000	0.006846	-0.000569	0.000000	0.000000
43.022297	18.653742	14.113780	0.152370	-0.021434	2.826521	0.000000	-0.012129	0.000000	0.006681	-0.000552	0.000000	0.000000
43.502297	18.520105	14.150689	0.126040	-0.055459	2.820964	0.000000	-0.012129	0.000000	0.006416	-0.000552	0.000000	0.000000
43.982297	18.411745	14.220262	0.099711	-0.089484	2.815407	0.000000	-0.012129	0.000000	0.006151	-0.000552	0.000000	0.000000
44.462297	18.328661	14.322499	0.073381	-0.123509	2.809850	0.000000	-0.012129	0.000000	0.005886	-0.000552	0.000000	0.000000
44.942297	18.270853	14.457400	0.047052	-0.157534	2.804293	0.000000	-0.012129	0.000000	0.005621	-0.000552	0.000000	0.000000
45.423547	18.238496	14.625262	-0.069710	-0.119185	2.798738	0.000000	0.001737	0.000000	0.005356	-0.000526	0.000000	0.000000
45.720870	18.284834	14.702254	-0.131757	-0.103194	2.799412	0.000000	0.008729	0.000000	0.005199	-0.000512	0.000000	0.000000
46.269930	18.121371	15.099612	0.427377	-0.624731	2.781820	0.000000	-0.073853	0.000000	0.004873	-0.000675	0.000000	0.000000
46.818990	17.356859	16.090647	0.956306	-1.190770	2.719256	0.000000	-0.155136	0.000000	0.004460	-0.000827	0.000000	0.000000
47.368050	16.045330	17.745946	1.417658	-1.841631	2.612825	0.000000	-0.233680	0.000000	0.003968	-0.000963	0.000000	0.000000
47.917110	14.279467	20.183410	1.778841	-2.623677	2.464407	0.000000	-0.308094	0.000000	0.003405	-0.001083	0.000000	0.000000
48.363070	12.904180	22.349946	1.315423	-2.213851	2.342822	0.000000	-0.239447	0.000000	0.002941	-0.001000	0.000000	0.000000
48.804030	11.923775	24.084528	0.915923	-1.704674	2.252176	0.000000	-0.173925	0.000000	0.002516	-0.000930	0.000000	0.000000
49.244990	11.276014	25.333981	0.558281	-1.117933	2.189935	0.000000	-0.110374	0.000000	0.002119	-0.000870	0.000000	0.000000
49.685950	10.931290	26.041461	0.226154	-0.480327	2.155393	0.000000	-0.048071	0.000000	0.001747	-0.000820	0.000000	0.000000
50.128160	10.874017	26.174495	-0.069437	0.116035	2.148173	0.000000	0.008494	0.000000	0.001393	-0.000783	0.000000	0.000000
50.425482	10.923476	26.108919	-0.096911	0.104522	2.150932	0.000000	0.008494	0.000000	0.001161	-0.000783	0.000000	0.000000
50.758816	10.998351	26.043539	-0.127713	0.091616	2.154025	0.000000	0.008494	0.000000	0.000899	-0.000783	0.000000	0.000000
51.092149	11.093761	25.986764	-0.158515	0.078709	2.157117	0.000000	0.008494	0.000000	0.000638	-0.000783	0.000000	0.000000
51.426732	11.209951	25.938955	-0.098490	-0.144675	2.160199	0.000000	-0.009030	0.000000	0.000376	-0.000786	0.000000	0.000000
51.724055	11.276481	26.028465	-0.097655	-0.220413	2.157748	0.000000	-0.014315	0.000000	0.000142	-0.000787	0.000000	0.000000
52.165015	11.509417	25.933110	-0.432854	0.435835	2.165438	0.000000	0.047700	0.000000	-0.000204	-0.000788	0.000000	0.000000
52.605975	12.045534	25.265568	-0.787823	1.072250	2.200571	0.000000	0.110267	0.000000	-0.000553	-0.000797	0.000000	0.000000
53.046935	12.909315	24.056220	-1.178779	1.659876	2.263551	0.000000	0.174097	0.000000	-0.000909	-0.000816	0.000000	0.000000
53.487895	14.140215	22.360098	-1.623581	2.171978	2.355099	0.000000	0.239920	0.000000	-0.001275	-0.000844	0.000000	0.000000
53.933855	15.815500	20.229033	-2.146823	2.586569	2.477776	0.000000	0.308880	0.000000	-0.001659	-0.000882	0.000000	0.000000
54.482915	17.971861	17.830608	-1.757812	1.807569	2.627489	0.000000	0.234028	0.000000	-0.002127	-0.000821	0.000000	0.000000
55.031975	19.629930	16.212315	-1.244665	1.157315	2.734861	0.000000	0.155012	0.000000	-0.002558	-0.000745	0.000000	0.000000
55.581035	20.672624	15.258879	-0.643625	0.589491	2.797982	0.000000	0.073235	0.000000	-0.002943	-0.000656	0.000000	0.000000
56.130095	21.026324	14.902383	0.002858	0.063655	2.815727	0.000000	-0.009852	0.000000	-0.003276	-0.000555	0.000000	0.000000
56.428668	21.062562	14.846469	-0.067817	0.083518	2.815210	0.000000	-0.002295	0.000000	-0.003445	-0.000564	0.000000	0.000000
56.762001	21.113073	14.798326	-0.083716	0.060909	2.814633	0.000000	-0.002295	0.000000	-0.003633	-0.000564	0.000000	0.000000
57.095334	21.174183	14.765256	-0.099615	0.038301	2.814056	0.000000	-0.002295	0.000000	-0.003820	-0.000564	0.000000	0.000000
57.429918	21.246181	14.747219	-0.115573	0.015607	2.813477	0.000000	-0.002295	0.000000	-0.004009	-0.000564	0.000000	0.000000
57.727240	21.319133	14.743927	-0.187383	0.035178	2.812963	0.000000	0.005309	0.000000	-0.004177	-0.000575	0.000000	0.000000
58.276300	21.160441	14.987945	0.474408	-0.482257	2.793341	0.000000	-0.077655	0.000000	-0.004455	-0.000435	0.000000	0.000000
58.825360	20.289304	15.815542	1.102687	-1.034035	2.728403	0.000000	-0.159249	0.000000	-0.004653	-0.000288	0.000000	0.000000
59.374420	18.767247	17.285653	1.653087	-1.659455	2.619298	0.000000	-0.238023	0.000000	-0.004769	-0.000135	0.000000	0.000000
59.923480	16.701756	19.502977	2.086742	-2.403057	2.467959	0.000000	-0.312579	0.000000	-0.004801	0.000020	0.000000	0.000000
60.369440	15.083766	21.473508	1.554324	-1.997080	2.343962	0.000000	-0.243908	0.000000	-0.004820	-0.000105	0.000000	0.000000
60.810400	13.919070	23.022039	1.097082	-1.501528	2.251018	0.000000	-0.178399	0.000000	-0.004894	-0.000230	0.000000	0.000000
61.251360	13.134043	24.101659	0.689953	-0.937669	2.186539	0.000000	-0.114918	0.000000	-0.005023	-0.000358	0.000000	0.000000
61.692320	12.692825	24.663255	0.314343	-0.331153	2.149792	0.000000	-0.052742	0.000000	-0.005210	-0.000490	0.000000	0.000000
62.134530	12.575308	24.680692	-0.014596	0.226992	2.140366	0.000000	0.003322	0.000000	-0.005456	-0.000613	0.000000	0.000000
62.431853	12.591019	24.549479	-0.038245	0.214325	2.141536	0.000000	0.003322	0.000000	-0.005639	-0.000613	0.000000	0.000000
62.765186	12.625353	24.411330	-0.064757	0.200123	2.142847	0.000000	0.003322	0.000000	-0.005843	-0.000613	0.000000	0.000000
63.098520	12.677362	24.282648	-0.091270	0.185921	2.144159	0.000000	0.003322	0.000000	-0.006048	-0.000613	0.000000	0.000000
63.433103	12.747341	24.163005	-0.117882	0.171666	2.145476	0.000000	0.003322	0.000000	-0.006253	-0.000613	0.000000	0.000000
63.730426	12.824455	24.064720	-0.108201	0.096247	2.146645	0.000000	-0.002257	0.000000	-0.006435	-0.000597	0.000000	0.000000
64.171386	13.082316	23.714933	-0.479096	0.694050	2.159550	0.000000	0.059528	0.000000	-0.006736	-0.000767	0.000000	0.000000
64.612346	13.675584	22.849947	-0.871866	1.260277	2.199896	0.000000	0.122000	0.000000	-0.007113	-0.000945	0.000000	0.000000
65.053306	14.631343	21.509120	-1.304449	1.769171	2.268147	0.000000	0.185870	0.000000	-0.007571	-0.001135	0.000000	0.000000
65.494266	15.993229	19.753455	-1.796599	2.197583	2.365083	0.000000	0.251870	0.000000	-0.008115	-0.001337	0.000000	0.000000
65.940226	17.846742	17.637962	-2.375301	2.526590	2.493398	0.000000	0.321125	0.000000	-0.008759	-0.001556	0.000000	0.000000
66.489286	20.220045	15.271910	-1.922920	1.808681	2.649957	0.000000	0.245675	0.000000	-0.009533	-0.001259	0.000000	0.000000
67.038346	22.018756	13.619203	-1.334795	1.219572	2.763665	0.000000	0.165847	0.000000	-0.010138	-0.000941	0.000000	0.000000
67.587406	23.115929	12.562133	-0.652447	0.717310	2.832498	0.000000	0.083064	0.000000	-0.010563	-0.000605	0.000000	0.000000
68.136466	23.434137	12.025417	0.075951	0.266127	2.855230	0.000000	-0.001203	0.000000	-0.010800	-0.000259	0.000000	0.000000
68.435038	23.432285	11.854186	-0.003405	0.273284	2.857375	0.000000	0.006914	0.000000	-0.010887	-0.000289	0.000000	0.000000
68.768372	23.439297	11.682069	-0.017630	0.243065	2.859776	0.000000	0.006914	0.000000	-0.010983	-0.000289	0.000000	0.000000
69.101705	23.455792	11.530099	-0.031856	0.212845	2.862177	0.000000	0.006914	0.000000	-0.011079	-0.000289	0.000000	0.000000
69.436288	23.481887	11.397819	-0.046135	0.182513	2.864586	0.000000	0.006914	0.000000	-0.011176	-0.000289	0.000000	0.000000
69.733611	23.513181	11.297261	-0.125881	0.187727	2.866733	0.000000	0.015089	0.000000	-0.011262	-0.000319	0.000000	0.000000
70.282671	23.247639	11.317592	0.606636	-0.224981	2.851800	0.000000	-0.069675	0.000000	-0.011337	0.000047	0.000000	0.000000
