#ParticleID	Turn	x[m]	xp	y[m]	yp	z[m]	dE[GeV]# s	beta_x	beta_y	alpha_x	alpha_y	D_x	D_y	D_px	D_py	orbit_x	orbit_px	orbit_y	orbit_py
0.300000	11.946603	25.193878	-0.014307	-0.025040	2.601354	0.000000	-0.001380	0.000000	-0.001224	0.001035	0.000000	0.000000
0.601250	11.962821	25.212569	-0.039528	-0.037005	2.600626	0.000000	-0.001380	0.000000	-0.000912	0.001035	0.000000	0.000000
0.898573	11.993727	25.238086	-0.034841	-0.110685	2.599909	0.000000	-0.007792	0.000000	-0.000605	0.001036	0.000000	0.000000
1.339533	12.178126	25.055652	-0.384566	0.522831	2.612223	0.000000	0.065680	0.000000	-0.000150	0.001026	0.000000	0.000000
1.780493	12.677516	24.322900	-0.751870	1.132563	2.657068	0.000000	0.139890	0.000000	0.000302	0.001028	0.000000	0.000000
2.221453	13.514724	23.073159	-1.153532	1.690766	2.734953	0.000000	0.215681	0.000000	0.000758	0.001042	0.000000	0.000000
2.662413	14.728011	21.363283	-1.607907	2.172044	2.846759	0.000000	0.293919	0.000000	0.001223	0.001068	0.000000	0.000000
3.108373	16.393800	19.245991	-2.140118	2.555673	2.995591	0.000000	0.375984	0.000000	0.001707	0.001106	0.000000	0.000000
3.657433	18.529008	16.867665	-1.725047	1.801402	3.176439	0.000000	0.283835	0.000000	0.002297	0.001041	0.000000	0.000000
4.206493	20.138390	15.242729	-1.188095	1.175444	3.305277	0.000000	0.186668	0.000000	0.002847	0.000957	0.000000	0.000000
4.755553	21.108227	14.255452	-0.567192	0.633212	3.379827	0.000000	0.086206	0.000000	0.003345	0.000857	0.000000	0.000000
5.304613	21.369978	13.835520	0.093799	0.136084	3.398774	0.000000	-0.015773	0.000000	0.003785	0.000741	0.000000	0.000000
5.603185	21.350411	13.740088	0.025757	0.148717	3.396406	0.000000	-0.007176	0.000000	0.004009	0.000751	0.000000	0.000000
5.936519	21.338447	13.649209	0.010134	0.123921	3.393764	0.000000	-0.007176	0.000000	0.004260	0.000751	0.000000	0.000000
6.269852	21.336899	13.574861	-0.005489	0.099124	3.391121	0.000000	-0.007176	0.000000	0.004510	0.000751	0.000000	0.000000
6.604435	21.345819	13.516858	-0.021171	0.074235	3.388469	0.000000	-0.007176	0.000000	0.004761	0.000751	0.000000	0.000000
6.901758	21.362567	13.479281	-0.088558	0.085994	3.386113	0.000000	0.001296	0.000000	0.004985	0.000764	0.000000	0.000000
7.450818	21.095719	13.646452	0.572065	-0.392236	3.358580	0.000000	-0.100137	0.000000	0.005359	0.000596	0.000000	0.000000
7.999878	20.121305	14.350992	1.192284	-0.898411	3.275848	0.000000	-0.199784	0.000000	0.005638	0.000418	0.000000	0.000000
8.548938	18.508160	15.643096	1.728274	-1.468590	3.139390	0.000000	-0.295881	0.000000	0.005817	0.000233	0.000000	0.000000
9.097998	16.370261	17.614816	2.142161	-2.143392	2.951630	0.000000	-0.386724	0.000000	0.005892	0.000043	0.000000	0.000000
9.543958	14.702759	19.371493	1.610012	-1.778717	2.797224	0.000000	-0.305844	0.000000	0.005946	0.000196	0.000000	0.000000
9.984918	13.487660	20.749650	1.155894	-1.334477	2.679299	0.000000	-0.228950	0.000000	0.006066	0.000351	0.000000	0.000000
10.425878	12.648391	21.707610	0.754596	-0.829507	2.594609	0.000000	-0.154668	0.000000	0.006256	0.000510	0.000000	0.000000
10.866838	12.146601	22.201777	0.387778	-0.286788	2.542188	0.000000	-0.082154	0.000000	0.006517	0.000675	0.000000	0.000000
11.309048	11.959210	22.209083	0.065968	0.217789	2.521417	0.000000	-0.016358	0.000000	0.006853	0.000831	0.000000	0.000000
11.606371	11.927407	22.083745	0.040998	0.203766	2.516306	0.000000	-0.016358	0.000000	0.007100	0.000831	0.000000	0.000000
12.086371	11.907398	21.898995	0.000687	0.181129	2.508056	0.000000	-0.016358	0.000000	0.007499	0.000831	0.000000	0.000000
12.566371	11.926087	21.735978	-0.039624	0.158491	2.499805	0.000000	-0.016358	0.000000	0.007898	0.000831	0.000000	0.000000
13.046371	11.983476	21.594693	-0.079935	0.135853	2.491555	0.000000	-0.016358	0.000000	0.008297	0.000831	0.000000	0.000000
13.526371	12.079563	21.475141	-0.120246	0.113215	2.483304	0.000000	-0.016358	0.000000	0.008696	0.000831	0.000000	0.000000
14.007621	12.214751	21.377095	-0.160662	0.090518	2.475032	0.000000	-0.016358	0.000000	0.009096	0.000831	0.000000	0.000000
14.304943	12.317681	21.327492	-0.158162	0.029169	2.469918	0.000000	-0.021866	0.000000	0.009343	0.000809	0.000000	0.000000
14.745903	12.615387	21.068391	-0.519109	0.556100	2.475320	0.000000	0.048184	0.000000	0.009753	0.001055	0.000000	0.000000
15.186863	13.240739	20.353936	-0.903791	1.057726	2.511599	0.000000	0.118772	0.000000	0.010275	0.001313	0.000000	0.000000
15.627823	14.222338	19.216633	-1.329795	1.511216	2.579162	0.000000	0.190700	0.000000	0.010914	0.001587	0.000000	0.000000
16.068783	15.605077	17.708232	-1.816596	1.895930	2.678774	0.000000	0.264783	0.000000	0.011677	0.001878	0.000000	0.000000
16.514743	17.475858	15.875636	-2.391433	2.195361	2.813245	0.000000	0.342358	0.000000	0.012584	0.002193	0.000000	0.000000
17.063803	19.878476	13.829871	-1.956625	1.551871	2.976842	0.000000	0.256367	0.000000	0.013673	0.001767	0.000000	0.000000
17.612863	21.724211	12.426337	-1.383492	1.018952	3.092138	0.000000	0.165854	0.000000	0.014519	0.001310	0.000000	0.000000
18.161923	22.882544	11.565049	-0.712547	0.558636	3.157099	0.000000	0.072420	0.000000	0.015108	0.000830	0.000000	0.000000
18.710983	23.271553	11.184648	0.008781	0.138124	3.170579	0.000000	-0.022286	0.000000	0.015429	0.000335	0.000000	0.000000
19.009556	23.301410	11.095360	-0.056699	0.135953	3.165943	0.000000	-0.015116	0.000000	0.015540	0.000373	0.000000	0.000000
19.342889	23.343993	11.014924	-0.071050	0.105355	3.160780	0.000000	-0.015116	0.000000	0.015664	0.000373	0.000000	0.000000
19.676223	23.396144	10.954887	-0.085401	0.074757	3.155617	0.000000	-0.015116	0.000000	0.015789	0.000373	0.000000	0.000000
20.010806	23.458402	10.915003	-0.216032	0.098124	3.150455	0.000000	0.000493	0.000000	0.015913	0.000452	0.000000	0.000000
20.308129	23.590987	10.864748	-0.282290	0.095109	3.150479	0.000000	0.007570	0.000000	0.016048	0.000491	0.000000	0.000000
20.857189	23.494316	10.980781	0.457428	-0.307637	3.128693	0.000000	-0.086352	0.000000	0.016174	-0.000031	0.000000	0.000000
21.406249	22.597989	11.548550	1.164812	-0.732305	3.055947	0.000000	-0.178742	0.000000	0.016014	-0.000553	0.000000	0.000000
21.955309	20.965387	12.608509	1.789852	-1.209155	2.933529	0.000000	-0.267969	0.000000	0.015569	-0.001065	0.000000	0.000000
22.504369	18.711957	14.236178	2.288358	-1.772165	2.763607	0.000000	-0.352458	0.000000	0.014848	-0.001558	0.000000	0.000000
22.950329	16.938005	15.698160	1.701662	-1.491390	2.624045	0.000000	-0.276223	0.000000	0.014237	-0.001180	0.000000	0.000000
23.391289	15.663843	16.864876	1.197776	-1.143865	2.518752	0.000000	-0.203619	0.000000	0.013797	-0.000819	0.000000	0.000000
23.832249	14.808500	17.700815	0.748655	-0.744276	2.444792	0.000000	-0.133325	0.000000	0.013514	-0.000467	0.000000	0.000000
24.273209	14.332858	18.167934	0.333761	-0.310812	2.401323	0.000000	-0.064546	0.000000	0.013385	-0.000120	0.000000	0.000000
24.715418	14.215328	18.244634	-0.035674	0.097802	2.387855	0.000000	-0.001588	0.000000	0.013408	0.000195	0.000000	0.000000
25.012741	14.242768	18.191369	-0.056617	0.081349	2.387325	0.000000	-0.001588	0.000000	0.013466	0.000195	0.000000	0.000000
25.346075	14.288339	18.143284	-0.080095	0.062904	2.386730	0.000000	-0.001588	0.000000	0.013531	0.000195	0.000000	0.000000
25.679408	14.349562	18.107496	-0.103574	0.044459	2.386136	0.000000	-0.001588	0.000000	0.013596	0.000195	0.000000	0.000000
26.013991	14.426462	18.084306	-0.010104	-0.120763	2.385515	0.000000	-0.020941	0.000000	0.013661	0.000084	0.000000	0.000000
26.311314	14.438519	18.161177	-0.000054	-0.175998	2.379258	0.000000	-0.025994	0.000000	0.013686	0.000053	0.000000	0.000000
26.752274	14.617144	18.119584	-0.406390	0.269946	2.382620	0.000000	0.041700	0.000000	0.013788	0.000407	0.000000	0.000000
27.193234	15.161074	17.688562	-0.831308	0.703603	2.415763	0.000000	0.109865	0.000000	0.014046	0.000766	0.000000	0.000000
27.634194	16.095187	16.887725	-1.294237	1.105236	2.479061	0.000000	0.179273	0.000000	0.014464	0.001133	0.000000	0.000000
28.075154	17.462212	15.753518	-1.816344	1.456563	2.573232	0.000000	0.250712	0.000000	0.015047	0.001514	0.000000	0.000000
28.521114	19.348787	14.320237	-2.426757	1.742810	2.700953	0.000000	0.325477	0.000000	0.015812	0.001914	0.000000	0.000000
29.070174	21.748156	12.723966	-1.915318	1.180956	2.856479	0.000000	0.243249	0.000000	0.016719	0.001387	0.000000	0.000000
29.619234	23.507489	11.695245	-1.268464	0.703253	2.965887	0.000000	0.156727	0.000000	0.017331	0.000835	0.000000	0.000000
30.168294	24.502359	11.160782	-0.531925	0.275664	3.027241	0.000000	0.067437	0.000000	0.017634	0.000269	0.000000	0.000000
30.717354	24.662406	11.082499	0.242220	-0.132281	3.039458	0.000000	-0.023046	0.000000	0.017625	-0.000303	0.000000	0.000000
31.015927	24.553810	11.155080	0.175215	-0.135004	3.034645	0.000000	-0.016333	0.000000	0.017547	-0.000260	0.000000	0.000000
31.349260	24.441665	11.255225	0.161222	-0.165431	3.029288	0.000000	-0.016333	0.000000	0.017460	-0.000260	0.000000	0.000000
31.682593	24.338847	11.375655	0.147230	-0.195857	3.023931	0.000000	-0.016333	0.000000	0.017374	-0.000260	0.000000	0.000000
32.017177	24.245025	11.516934	0.133185	-0.226398	3.018553	0.000000	-0.016333	0.000000	0.017287	-0.000260	0.000000	0.000000
32.314499	24.169748	11.659528	0.067073	-0.227704	3.013787	0.000000	-0.009645	0.000000	0.017209	-0.000218	0.000000	0.000000
32.863559	23.682104	12.147689	0.815255	-0.666414	2.984168	0.000000	-0.099012	0.000000	0.016937	-0.000772	0.000000	0.000000
33.412619	22.399430	13.140817	1.505791	-1.152612	2.906164	0.000000	-0.186634	0.000000	0.016364	-0.001311	0.000000	0.000000
33.961679	20.412446	14.709666	2.089862	-1.720940	2.781154	0.000000	-0.270966	0.000000	0.015501	-0.001828	0.000000	0.000000
34.510739	17.861675	16.966004	2.526178	-2.411893	2.611345	0.000000	-0.350519	0.000000	0.014363	-0.002312	0.000000	0.000000
34.956699	15.879894	18.984720	1.931373	-2.094765	2.472099	0.000000	-0.278240	0.000000	0.013413	-0.001951	0.000000	0.000000
35.397659	14.402600	20.657403	1.430108	-1.683365	2.365385	0.000000	-0.209575	0.000000	0.012627	-0.001616	0.000000	0.000000
35.838619	13.337163	21.931878	0.994231	-1.195351	2.288268	0.000000	-0.143281	0.000000	0.011985	-0.001298	0.000000	0.000000
36.279579	12.634849	22.750150	0.603812	-0.652935	2.239873	0.000000	-0.078605	0.000000	0.011479	-0.000996	0.000000	0.000000
36.721789	12.262911	23.075233	0.267713	-0.131106	2.219635	0.000000	-0.019669	0.000000	0.011104	-0.000730	0.000000	0.000000
37.019112	12.111442	23.157091	0.241730	-0.144212	2.214004	0.000000	-0.019669	0.000000	0.010887	-0.000730	0.000000	0.000000
37.352445	11.959999	23.258130	0.212599	-0.158906	2.207691	0.000000	-0.019669	0.000000	0.010643	-0.000730	0.000000	0.000000
37.685779	11.827976	23.368965	0.183469	-0.173600	2.201378	0.000000	-0.019669	0.000000	0.010400	-0.000730	0.000000	0.000000
38.020362	11.714988	23.490067	0.154229	-0.188348	2.195041	0.000000	-0.019669	0.000000	0.010155	-0.000730	0.000000	0.000000
38.317684	11.630967	23.606033	0.154021	-0.254012	2.189407	0.000000	-0.024521	0.000000	0.009938	-0.000754	0.000000	0.000000
38.758644	11.644076	23.568528	-0.184065	0.338728	2.192703	0.000000	0.038269	0.000000	0.009661	-0.000501	0.000000	0.000000
39.199604	11.957993	23.013031	-0.530561	0.916051	2.223656	0.000000	0.101501	0.000000	0.009495	-0.000254	0.000000	0.000000
39.640564	12.587066	21.964825	-0.901305	1.451681	2.282618	0.000000	0.165891	0.000000	0.009437	-0.000010	0.000000	0.000000
40.081524	13.560051	20.471616	-1.313243	1.921244	2.370264	0.000000	0.232172	0.000000	0.009486	0.000234	0.000000	0.000000
40.527484	14.939036	18.578645	-1.789192	2.304896	2.489074	0.000000	0.301528	0.000000	0.009646	0.000482	0.000000	0.000000
41.076544	16.701309	16.451260	-1.400828	1.592034	2.634056	0.000000	0.226358	0.000000	0.009824	0.000167	0.000000	0.000000
41.625604	17.979749	15.040271	-0.913472	0.992601	2.736763	0.000000	0.147174	0.000000	0.009829	-0.000152	0.000000	0.000000
42.174664	18.684002	14.245154	-0.361569	0.463889	2.795372	0.000000	0.065376	0.000000	0.009658	-0.000467	0.000000	0.000000
42.723724	18.764301	14.009256	0.215875	-0.031771	2.808841	0.000000	-0.017589	0.000000	0.009317	-0.000775	0.000000	0.000000
43.022297	18.667166	14.014424	0.154397	-0.019250	2.805826	0.000000	-0.010838	0.000000	0.009092	-0.000752	0.000000	0.000000
43.502297	18.531581	14.049350	0.128071	-0.053513	2.800984	0.000000	-0.010838	0.000000	0.008731	-0.000752	0.000000	0.000000
43.982297	18.421270	14.117169	0.101744	-0.087776	2.796142	0.000000	-0.010838	0.000000	0.008371	-0.000752	0.000000	0.000000
44.462297	18.336232	14.217880	0.075418	-0.122039	2.791301	0.000000	-0.010838	0.000000	0.008010	-0.000752	0.000000	0.000000
44.942297	18.276468	14.351485	0.049091	-0.156302	2.786459	0.000000	-0.010838	0.000000	0.007649	-0.000752	0.000000	0.000000
45.423547	18.242146	14.518278	-0.067686	-0.118722	2.781622	0.000000	0.002944	0.000000	0.007288	-0.000715	0.000000	0.000000
45.720870	18.287291	14.595029	-0.128957	-0.103807	2.782712	0.000000	0.009776	0.000000	0.007075	-0.000698	0.000000	0.000000
46.269930	18.120650	14.991331	0.430211	-0.622166	2.765952	0.000000	-0.072283	0.000000	0.006630	-0.000920	0.000000	0.000000
46.818990	17.353007	15.977757	0.958966	-1.184846	2.704529	0.000000	-0.153075	0.000000	0.006068	-0.001125	0.000000	0.000000
47.368050	16.038629	17.624562	1.419947	-1.831929	2.599524	0.000000	-0.231169	0.000000	0.005398	-0.001311	0.000000	0.000000
47.917110	14.270413	20.049043	1.780585	-2.609510	2.452790	0.000000	-0.305183	0.000000	0.004632	-0.001474	0.000000	0.000000
48.363070	12.893499	22.204392	1.317136	-2.202962	2.332600	0.000000	-0.236814	0.000000	0.004001	-0.001362	0.000000	0.000000
48.804030	11.911488	23.931037	0.917711	-1.697575	2.243206	0.000000	-0.171539	0.000000	0.003422	-0.001266	0.000000	0.000000
49.244990	11.262030	25.176040	0.560229	-1.114946	2.182107	0.000000	-0.108203	0.000000	0.002882	-0.001185	0.000000	0.000000
49.685950	10.915437	25.882764	0.228354	-0.481588	2.148611	0.000000	-0.046088	0.000000	0.002375	-0.001117	0.000000	0.000000
50.128160	10.856030	26.018782	-0.067053	0.111365	2.142355	0.000000	0.010356	0.000000	0.001894	-0.001067	0.000000	0.000000
50.425482	10.904082	25.955999	-0.094564	0.099796	2.145751	0.000000	0.010356	0.000000	0.001577	-0.001067	0.000000	0.000000
50.758816	10.977406	25.893791	-0.125407	0.086826	2.149559	0.000000	0.010356	0.000000	0.001221	-0.001067	0.000000	0.000000
51.092149	11.071292	25.840230	-0.156250	0.073856	2.153366	0.000000	0.010356	0.000000	0.000866	-0.001067	0.000000	0.000000
51.426732	11.185980	25.795687	-0.096460	-0.148430	2.157166	0.000000	-0.007144	0.000000	0.000509	-0.001071	0.000000	0.000000
51.724055	11.251316	25.887453	-0.095746	-0.223975	2.155360	0.000000	-0.012421	0.000000	0.000190	-0.001071	0.000000	0.000000
52.165015	11.482262	25.796873	-0.430321	0.428608	2.163995	0.000000	0.049545	0.000000	-0.000282	-0.001072	0.000000	0.000000
52.605975	12.015784	25.137208	-0.784548	1.061685	2.200057	0.000000	0.112086	0.000000	-0.000757	-0.001086	0.000000	0.000000
53.046935	12.876247	23.938483	-1.174610	1.646453	2.263963	0.000000	0.175915	0.000000	-0.001241	-0.001111	0.000000	0.000000
53.487895	14.102951	22.255248	-1.618324	2.156307	2.356444	0.000000	0.241760	0.000000	-0.001739	-0.001150	0.000000	0.000000
53.933855	15.772899	20.138919	-2.140211	2.569350	2.480085	0.000000	0.310765	0.000000	-0.002263	-0.001202	0.000000	0.000000
54.482915	17.922492	17.757219	-1.752353	1.794188	2.630971	0.000000	0.235822	0.000000	-0.002901	-0.001118	0.000000	0.000000
55.031975	19.575282	16.151978	-1.240752	1.146816	2.739443	0.000000	0.156678	0.000000	-0.003487	-0.001015	0.000000	0.000000
55.581035	20.614572	15.208850	-0.641545	0.581127	2.803568	0.000000	0.074738	0.000000	-0.004012	-0.000893	0.000000	0.000000
56.130095	20.966994	14.860650	0.002952	0.056830	2.822203	0.000000	-0.008541	0.000000	-0.004465	-0.000756	0.000000	0.000000
56.428668	21.003407	14.808640	-0.068140	0.076971	2.822165	0.000000	-0.000894	0.000000	-0.004694	-0.000768	0.000000	0.000000
56.762001	21.054148	14.764873	-0.084084	0.054328	2.822122	0.000000	-0.000894	0.000000	-0.004950	-0.000768	0.000000	0.000000
57.095334	21.115519	14.736202	-0.100028	0.031686	2.822080	0.000000	-0.000894	0.000000	-0.005206	-0.000768	0.000000	0.000000
57.429918	21.187809	14.722603	-0.116032	0.008958	2.822038	0.000000	-0.000894	0.000000	-0.005463	-0.000768	0.000000	0.000000
57.727240	21.261055	14.723268	-0.188411	0.028875	2.822002	0.000000	0.006825	0.000000	-0.005691	-0.000783	0.000000	0.000000
58.276300	21.104509	14.973929	0.471448	-0.488136	2.803227	0.000000	-0.076442	0.000000	-0.006069	-0.000592	0.000000	0.000000
58.825360	20.237573	15.807921	1.098002	-1.039908	2.738937	0.000000	-0.158362	0.000000	-0.006340	-0.000391	0.000000	0.000000
59.374420	18.721473	17.284629	1.647011	-1.665734	2.630268	0.000000	-0.237481	0.000000	-0.006498	-0.000183	0.000000	0.000000
59.923480	16.663266	19.509216	2.079713	-2.410184	2.479144	0.000000	-0.312391	0.000000	-0.006540	0.000028	0.000000	0.000000
60.369440	15.050928	21.486319	1.548650	-2.004667	2.355301	0.000000	-0.243437	0.000000	-0.006566	-0.000142	0.000000	0.000000
60.810400	13.890777	23.041558	1.092452	-1.509185	2.262657	0.000000	-0.177635	0.000000	-0.006666	-0.000313	0.000000	0.000000
61.251360	13.109454	24.127806	0.686153	-0.945050	2.198627	0.000000	-0.113852	0.000000	-0.006842	-0.000487	0.000000	0.000000
61.692320	12.671273	24.695652	0.311198	-0.337926	2.162486	0.000000	-0.051360	0.000000	-0.007096	-0.000667	0.000000	0.000000
62.134530	12.556282	24.718678	-0.016723	0.220025	2.153832	0.000000	0.004909	0.000000	-0.007432	-0.000835	0.000000	0.000000
62.431853	12.573268	24.591591	-0.040409	0.207414	2.155539	0.000000	0.004909	0.000000	-0.007680	-0.000835	0.000000	0.000000
62.765186	12.609059	24.458027	-0.066963	0.193276	2.157454	0.000000	0.004909	0.000000	-0.007959	-0.000835	0.000000	0.000000
63.098520	12.662553	24.333889	-0.093518	0.179138	2.159368	0.000000	0.004909	0.000000	-0.008237	-0.000835	0.000000	0.000000
63.433103	12.734050	24.218764	-0.120172	0.164948	2.161290	0.000000	0.004909	0.000000	-0.008516	-0.000835	0.000000	0.000000
63.730426	12.812523	24.124482	-0.109896	0.088102	2.162995	0.000000	-0.000825	0.000000	-0.008765	-0.000813	0.000000	0.000000
64.171386	13.071715	23.781132	-0.480540	0.687678	2.176730	0.000000	0.061389	0.000000	-0.009173	-0.001044	0.000000	0.000000
64.612346	13.666096	22.920903	-0.873121	1.255970	2.218126	0.000000	0.124313	0.000000	-0.009687	-0.001287	0.000000	0.000000
65.053306	14.622795	21.582937	-1.305564	1.767127	2.287659	0.000000	0.188665	0.000000	-0.010310	-0.001545	0.000000	0.000000
65.494266	15.985480	19.828107	-1.797615	2.197901	2.386127	0.000000	0.255183	0.000000	-0.011051	-0.001820	0.000000	0.000000
65.940226	17.839737	17.711297	-2.376169	2.529221	2.516267	0.000000	0.324991	0.000000	-0.011928	-0.002118	0.000000	0.000000
66.489286	20.213990	15.343422	-1.924245	1.809590	2.675003	0.000000	0.248774	0.000000	-0.012982	-0.001714	0.000000	0.000000
67.038346	22.014159	13.690715	-1.336512	1.218813	2.790392	0.000000	0.168117	0.000000	-0.013805	-0.001280	0.000000	0.000000
67.587406	23.113232	12.635473	-0.654458	0.714822	2.860376	0.000000	0.084459	0.000000	-0.014383	-0.000824	0.000000	0.000000
68.136466	23.433676	12.102545	0.073776	0.261727	2.883707	0.000000	-0.000710	0.000000	-0.014707	-0.000353	0.000000	0.000000
68.435038	23.434170	11.933194	-0.007448	0.270305	2.886120	0.000000	0.007718	0.000000	-0.014824	-0.000393	0.000000	0.000000
68.768372	23.443877	11.762982	-0.021673	0.240331	2.888823	0.000000	0.007718	0.000000	-0.014955	-0.000393	0.000000	0.000000
69.101705	23.463067	11.612753	-0.035898	0.210356	2.891527	0.000000	0.007718	0.000000	-0.015086	-0.000393	0.000000	0.000000
69.436288	23.491865	11.482056	-0.050176	0.180270	2.894241	0.000000	0.007718	0.000000	-0.015218	-0.000393	0.000000	0.000000
69.733611	23.525637	11.382730	-0.131905	0.186873	2.896662	0.000000	0.016218	0.000000	-0.015335	-0.000436	0.000000	0.000000
70.282671	23.266468	11.405300	0.601113	-0.228232	2.882112	0.000000	-0.069510	0.000000	-0.015438	0.000062	0.000000	0.000000
