#ParticleID	Turn	x[m]	xp	y[m]	yp	z[m]	dE[GeV]# s	beta_x	beta_y	alpha_x	alpha_y	D_x	D_y	D_px	D_py	orbit_x	orbit_px	orbit_y	orbit_py
0.300000	11.956891	25.318405	-0.020077	-0.021698	2.599835	0.000000	0.000531	0.000000	-0.000813	0.000708	0.000000	0.000000
0.601250	11.976580	25.335064	-0.045282	-0.033602	2.599781	0.000000	0.000531	0.000000	-0.000600	0.000708	0.000000	0.000000
0.898573	12.010903	25.358538	-0.040595	-0.107509	2.599729	0.000000	-0.005868	0.000000	-0.000389	0.000709	0.000000	0.000000
1.339533	12.200546	25.171913	-0.390862	0.529126	2.613030	0.000000	0.067612	0.000000	-0.000078	0.000703	0.000000	0.000000
1.780493	12.705780	24.432334	-0.758993	1.141690	2.658871	0.000000	0.141856	0.000000	0.000232	0.000705	0.000000	0.000000
2.221453	13.549696	23.173447	-1.161805	1.702309	2.737773	0.000000	0.217707	0.000000	0.000544	0.000715	0.000000	0.000000
2.662413	14.770858	21.452523	-1.617705	2.185476	2.850629	0.000000	0.296031	0.000000	0.000863	0.000733	0.000000	0.000000
3.108373	16.446155	19.322645	-2.151893	2.570373	3.000572	0.000000	0.378208	0.000000	0.001196	0.000760	0.000000	0.000000
3.657433	18.593704	16.930080	-1.735822	1.812826	3.182769	0.000000	0.285879	0.000000	0.001601	0.000714	0.000000	0.000000
4.206493	20.213908	15.294035	-1.197119	1.184405	3.312833	0.000000	0.188490	0.000000	0.001978	0.000656	0.000000	0.000000
4.755553	21.192294	14.297985	-0.573837	0.640349	3.388462	0.000000	0.087769	0.000000	0.002320	0.000587	0.000000	0.000000
5.304613	21.459728	13.870986	0.089995	0.141904	3.408321	0.000000	-0.014501	0.000000	0.002620	0.000507	0.000000	0.000000
5.603185	21.442886	13.771777	0.021233	0.155043	3.406437	0.000000	-0.005792	0.000000	0.002774	0.000513	0.000000	0.000000
5.936519	21.433915	13.676677	0.005680	0.130257	3.404336	0.000000	-0.005792	0.000000	0.002945	0.000513	0.000000	0.000000
6.269852	21.435312	13.598101	-0.009872	0.105471	3.402234	0.000000	-0.005792	0.000000	0.003116	0.000513	0.000000	0.000000
6.604435	21.447141	13.535848	-0.025482	0.080592	3.400124	0.000000	-0.005792	0.000000	0.003288	0.000513	0.000000	0.000000
6.901758	21.466425	13.494493	-0.093809	0.092818	3.398250	0.000000	0.002828	0.000000	0.003440	0.000522	0.000000	0.000000
7.450818	21.203340	13.654344	0.570388	-0.385658	3.371562	0.000000	-0.099007	0.000000	0.003696	0.000407	0.000000	0.000000
7.999878	20.228711	14.351561	1.194298	-0.891607	3.289422	0.000000	-0.199080	0.000000	0.003886	0.000284	0.000000	0.000000
8.548938	18.611388	15.635815	1.733841	-1.461073	3.153290	0.000000	-0.295616	0.000000	0.004007	0.000156	0.000000	0.000000
9.097998	16.465632	17.598592	2.150896	-2.134619	2.965582	0.000000	-0.386906	0.000000	0.004056	0.000025	0.000000	0.000000
9.543958	14.791460	19.347300	1.616378	-1.769811	2.811195	0.000000	-0.305674	0.000000	0.004091	0.000131	0.000000	0.000000
9.984918	13.571710	20.717640	1.160153	-1.325810	2.693465	0.000000	-0.228422	0.000000	0.004172	0.000238	0.000000	0.000000
10.425878	12.729541	21.668184	0.756940	-0.821479	2.609150	0.000000	-0.153774	0.000000	0.004301	0.000347	0.000000	0.000000
10.866838	12.226470	22.155674	0.388313	-0.279765	2.557288	0.000000	-0.080881	0.000000	0.004479	0.000460	0.000000	0.000000
11.309048	12.039356	22.157353	0.065518	0.222551	2.537269	0.000000	-0.014856	0.000000	0.004708	0.000567	0.000000	0.000000
11.606371	12.007770	22.029201	0.040716	0.208468	2.532683	0.000000	-0.014856	0.000000	0.004877	0.000567	0.000000	0.000000
12.086371	11.987901	21.839985	0.000676	0.185732	2.525280	0.000000	-0.014856	0.000000	0.005149	0.000567	0.000000	0.000000
12.566371	12.006472	21.672596	-0.039365	0.162996	2.517877	0.000000	-0.014856	0.000000	0.005421	0.000567	0.000000	0.000000
13.046371	12.063481	21.527034	-0.079405	0.140259	2.510473	0.000000	-0.014856	0.000000	0.005694	0.000567	0.000000	0.000000
13.526371	12.158929	21.403298	-0.119445	0.117523	2.503070	0.000000	-0.014856	0.000000	0.005966	0.000567	0.000000	0.000000
14.007621	12.293215	21.301152	-0.159590	0.094728	2.495648	0.000000	-0.014856	0.000000	0.006239	0.000567	0.000000	0.000000
14.304943	12.395474	21.249036	-0.155868	0.031911	2.491061	0.000000	-0.020589	0.000000	0.006407	0.000552	0.000000	0.000000
14.745903	12.691846	20.988483	-0.518498	0.556662	2.497272	0.000000	0.050012	0.000000	0.006688	0.000721	0.000000	0.000000
15.186863	13.317297	20.274539	-0.904829	1.056083	2.534640	0.000000	0.121175	0.000000	0.007044	0.000898	0.000000	0.000000
15.627823	14.300423	19.139688	-1.332519	1.507447	2.603586	0.000000	0.193708	0.000000	0.007481	0.001085	0.000000	0.000000
16.068783	15.686171	17.635565	-1.821117	1.890211	2.704892	0.000000	0.268437	0.000000	0.008003	0.001285	0.000000	0.000000
16.514743	17.561521	15.809043	-2.397878	2.187855	2.841407	0.000000	0.346698	0.000000	0.008624	0.001500	0.000000	0.000000
17.063803	19.969289	13.770373	-1.960109	1.546602	3.007452	0.000000	0.259767	0.000000	0.009368	0.001209	0.000000	0.000000
17.612863	21.816842	12.371670	-1.383807	1.015535	3.124590	0.000000	0.168245	0.000000	0.009947	0.000896	0.000000	0.000000
18.161923	22.973578	11.513295	-0.709699	0.556820	3.190749	0.000000	0.073754	0.000000	0.010349	0.000567	0.000000	0.000000
18.710983	23.357720	11.134103	0.014574	0.137775	3.204761	0.000000	-0.022038	0.000000	0.010568	0.000228	0.000000	0.000000
19.009556	23.385890	11.044322	-0.053705	0.136642	3.200372	0.000000	-0.014426	0.000000	0.010644	0.000254	0.000000	0.000000
19.342889	23.426458	10.963476	-0.068000	0.105897	3.195479	0.000000	-0.014426	0.000000	0.010729	0.000254	0.000000	0.000000
19.676223	23.476556	10.903126	-0.082294	0.075152	3.190585	0.000000	-0.014426	0.000000	0.010813	0.000254	0.000000	0.000000
20.010806	23.536717	10.863027	-0.213257	0.098114	3.185693	0.000000	0.001358	0.000000	0.010899	0.000308	0.000000	0.000000
20.308129	23.667539	10.812862	-0.282439	0.096108	3.186011	0.000000	0.008893	0.000000	0.010990	0.000336	0.000000	0.000000
20.857189	23.569674	10.926976	0.459703	-0.305137	3.164678	0.000000	-0.086174	0.000000	0.011077	-0.000022	0.000000	0.000000
21.406249	22.669679	11.491056	1.169357	-0.728123	3.091671	0.000000	-0.179711	0.000000	0.010966	-0.000379	0.000000	0.000000
21.955309	21.031172	12.545290	1.796367	-1.202986	2.968284	0.000000	-0.270067	0.000000	0.010661	-0.000729	0.000000	0.000000
22.504369	18.769979	14.164782	2.296418	-1.763559	2.796703	0.000000	-0.355642	0.000000	0.010168	-0.001067	0.000000	0.000000
22.950329	16.989888	15.619730	1.708123	-1.484661	2.655736	0.000000	-0.278589	0.000000	0.009749	-0.000809	0.000000	0.000000
23.391289	15.710812	16.781336	1.202827	-1.139219	2.549450	0.000000	-0.205187	0.000000	0.009448	-0.000561	0.000000	0.000000
23.832249	14.851647	17.614128	0.752512	-0.741931	2.474889	0.000000	-0.134118	0.000000	0.009254	-0.000320	0.000000	0.000000
24.273209	14.373110	18.080209	0.336595	-0.310877	2.431203	0.000000	-0.064573	0.000000	0.009165	-0.000083	0.000000	0.000000
24.715418	14.253440	18.158090	-0.032179	0.093645	2.417897	0.000000	-0.001165	0.000000	0.009181	0.000132	0.000000	0.000000
25.012741	14.278783	18.107316	-0.053060	0.077127	2.417511	0.000000	-0.001165	0.000000	0.009220	0.000132	0.000000	0.000000
25.346075	14.321960	18.062071	-0.076470	0.058609	2.417079	0.000000	-0.001165	0.000000	0.009264	0.000132	0.000000	0.000000
25.679408	14.380743	18.029171	-0.099881	0.040091	2.416646	0.000000	-0.001165	0.000000	0.009309	0.000132	0.000000	0.000000
26.013991	14.455149	18.008928	-0.006109	-0.124594	2.416188	0.000000	-0.020767	0.000000	0.009353	0.000057	0.000000	0.000000
26.311314	14.464860	18.088049	0.005574	-0.181683	2.409993	0.000000	-0.026140	0.000000	0.009370	0.000035	0.000000	0.000000
26.752274	14.638714	18.052345	-0.401215	0.262333	2.413496	0.000000	0.042340	0.000000	0.009438	0.000277	0.000000	0.000000
27.193234	15.178120	17.628790	-0.826344	0.694411	2.447173	0.000000	0.111300	0.000000	0.009615	0.000523	0.000000	0.000000
27.634194	16.107740	16.836656	-1.289247	1.094886	2.511407	0.000000	0.181522	0.000000	0.009900	0.000774	0.000000	0.000000
28.075154	17.470082	15.711990	-1.811085	1.445533	2.606926	0.000000	0.253804	0.000000	0.010299	0.001035	0.000000	0.000000
28.521114	19.351312	14.288892	-2.420846	1.731503	2.736435	0.000000	0.329445	0.000000	0.010821	0.001309	0.000000	0.000000
29.070174	21.743464	12.704077	-1.908804	1.171491	2.894087	0.000000	0.246047	0.000000	0.011442	0.000948	0.000000	0.000000
29.619234	23.495277	11.685138	-1.261847	0.694945	3.004873	0.000000	0.158298	0.000000	0.011859	0.000570	0.000000	0.000000
30.168294	24.482908	11.159484	-0.525701	0.267913	3.066834	0.000000	0.067750	0.000000	0.012066	0.000183	0.000000	0.000000
30.717354	24.636532	11.089669	0.247602	-0.140030	3.078872	0.000000	-0.023998	0.000000	0.012059	-0.000208	0.000000	0.000000
31.015927	24.526751	11.165959	0.177389	-0.141316	3.073904	0.000000	-0.016793	0.000000	0.012006	-0.000178	0.000000	0.000000
31.349260	24.413164	11.270319	0.163371	-0.171765	3.068366	0.000000	-0.016793	0.000000	0.011947	-0.000178	0.000000	0.000000
31.682593	24.308923	11.394979	0.149353	-0.202213	3.062828	0.000000	-0.016793	0.000000	0.011887	-0.000178	0.000000	0.000000
32.017177	24.213689	11.540519	0.135282	-0.232776	3.057269	0.000000	-0.016793	0.000000	0.011828	-0.000178	0.000000	0.000000
32.314499	24.137060	11.686966	0.066128	-0.232532	3.052336	0.000000	-0.009629	0.000000	0.011775	-0.000149	0.000000	0.000000
32.863559	23.651195	12.180919	0.813156	-0.672262	3.022307	0.000000	-0.100224	0.000000	0.011588	-0.000528	0.000000	0.000000
33.412619	22.371604	13.181139	1.502707	-1.159890	2.943138	0.000000	-0.189049	0.000000	0.011197	-0.000897	0.000000	0.000000
33.961679	20.388752	14.758881	2.086042	-1.730157	2.816230	0.000000	-0.274534	0.000000	0.010606	-0.001250	0.000000	0.000000
34.510739	17.842815	17.026539	2.521937	-2.423691	2.643826	0.000000	-0.355169	0.000000	0.009828	-0.001581	0.000000	0.000000
34.956699	15.864780	19.055250	1.928007	-2.105734	2.502412	0.000000	-0.282094	0.000000	0.009178	-0.001335	0.000000	0.000000
35.397659	14.390376	20.736909	1.427345	-1.692897	2.393933	0.000000	-0.212676	0.000000	0.008641	-0.001105	0.000000	0.000000
35.838619	13.327304	22.018926	0.991927	-1.203019	2.315414	0.000000	-0.145670	0.000000	0.008202	-0.000888	0.000000	0.000000
36.279579	12.626960	22.842966	0.601852	-0.658395	2.265964	0.000000	-0.080315	0.000000	0.007856	-0.000681	0.000000	0.000000
36.721789	12.256675	23.171837	0.267034	-0.136367	2.245000	0.000000	-0.020968	0.000000	0.007599	-0.000500	0.000000	0.000000
37.019112	12.105611	23.256814	0.241046	-0.149437	2.238914	0.000000	-0.020968	0.000000	0.007451	-0.000500	0.000000	0.000000
37.352445	11.954625	23.361323	0.211911	-0.164090	2.232091	0.000000	-0.020968	0.000000	0.007284	-0.000500	0.000000	0.000000
37.685779	11.823063	23.475600	0.182775	-0.178743	2.225269	0.000000	-0.020968	0.000000	0.007118	-0.000500	0.000000	0.000000
38.020362	11.710541	23.600130	0.153531	-0.193450	2.218420	0.000000	-0.020968	0.000000	0.006951	-0.000500	0.000000	0.000000
38.317684	11.626956	23.719082	0.154190	-0.261051	2.212333	0.000000	-0.026038	0.000000	0.006802	-0.000516	0.000000	0.000000
38.758644	11.639891	23.686454	-0.183776	0.334756	2.215003	0.000000	0.037330	0.000000	0.006613	-0.000343	0.000000	0.000000
39.199604	11.953499	23.133060	-0.530138	0.915327	2.245614	0.000000	0.101127	0.000000	0.006499	-0.000174	0.000000	0.000000
39.640564	12.582112	22.084085	-0.900725	1.454244	2.304515	0.000000	0.166078	0.000000	0.006460	-0.000007	0.000000	0.000000
40.081524	13.554459	20.587265	-1.312476	1.926982	2.392379	0.000000	0.232921	0.000000	0.006494	0.000160	0.000000	0.000000
40.527484	14.932526	18.687985	-1.788134	2.313495	2.511690	0.000000	0.302843	0.000000	0.006603	0.000330	0.000000	0.000000
41.076544	16.693647	16.553110	-1.399988	1.597325	2.657241	0.000000	0.226938	0.000000	0.006725	0.000114	0.000000	0.000000
41.625604	17.971262	15.138013	-0.912924	0.994950	2.760059	0.000000	0.147008	0.000000	0.006728	-0.000104	0.000000	0.000000
42.174664	18.675093	14.341885	-0.361359	0.463456	2.818319	0.000000	0.064469	0.000000	0.006612	-0.000320	0.000000	0.000000
42.723724	18.755408	14.108005	0.215732	-0.035018	2.830985	0.000000	-0.019219	0.000000	0.006378	-0.000530	0.000000	0.000000
43.022297	18.659123	14.114372	0.153017	-0.021215	2.827487	0.000000	-0.012225	0.000000	0.006224	-0.000514	0.000000	0.000000
43.502297	18.524863	14.151069	0.126690	-0.055238	2.821866	0.000000	-0.012225	0.000000	0.005978	-0.000514	0.000000	0.000000
43.982297	18.415878	14.220429	0.100363	-0.089261	2.816244	0.000000	-0.012225	0.000000	0.005731	-0.000514	0.000000	0.000000
44.462297	18.332166	14.322451	0.074036	-0.123285	2.810623	0.000000	-0.012225	0.000000	0.005484	-0.000514	0.000000	0.000000
44.942297	18.273729	14.457136	0.047709	-0.157308	2.805002	0.000000	-0.012225	0.000000	0.005237	-0.000514	0.000000	0.000000
45.423547	18.240737	14.624780	-0.069061	-0.118959	2.799383	0.000000	0.001645	0.000000	0.004990	-0.000489	0.000000	0.000000
45.720870	18.286686	14.701638	-0.131255	-0.102845	2.800019	0.000000	0.008660	0.000000	0.004845	-0.000477	0.000000	0.000000
46.269930	18.122658	15.098593	0.427923	-0.624346	2.782363	0.000000	-0.073939	0.000000	0.004541	-0.000629	0.000000	0.000000
46.818990	17.357558	16.089168	0.956857	-1.190320	2.719720	0.000000	-0.155237	0.000000	0.004156	-0.000770	0.000000	0.000000
47.368050	16.045460	17.743917	1.418178	-1.841085	2.613197	0.000000	-0.233794	0.000000	0.003698	-0.000897	0.000000	0.000000
47.917110	14.279082	20.180701	1.779295	-2.622995	2.464677	0.000000	-0.308218	0.000000	0.003174	-0.001008	0.000000	0.000000
48.363070	12.903421	22.346637	1.315849	-2.213208	2.343008	0.000000	-0.239566	0.000000	0.002741	-0.000932	0.000000	0.000000
48.804030	11.922660	24.080673	0.916336	-1.704093	2.252282	0.000000	-0.174041	0.000000	0.002345	-0.000866	0.000000	0.000000
49.244990	11.274544	25.329649	0.558700	-1.117441	2.189964	0.000000	-0.110488	0.000000	0.001976	-0.000810	0.000000	0.000000
49.685950	10.929451	26.036742	0.226596	-0.479947	2.155347	0.000000	-0.048186	0.000000	0.001629	-0.000764	0.000000	0.000000
50.128160	10.871776	26.169496	-0.068933	0.116221	2.148053	0.000000	0.008373	0.000000	0.001300	-0.000729	0.000000	0.000000
50.425482	10.920937	26.103810	-0.096411	0.104706	2.150760	0.000000	0.008373	0.000000	0.001083	-0.000729	0.000000	0.000000
50.758816	10.995480	26.038309	-0.127217	0.091797	2.153794	0.000000	0.008373	0.000000	0.000840	-0.000729	0.000000	0.000000
51.092149	11.090561	25.981414	-0.158024	0.078887	2.156828	0.000000	0.008373	0.000000	0.000597	-0.000729	0.000000	0.000000
51.426732	11.206423	25.933487	-0.098031	-0.144456	2.159852	0.000000	-0.009149	0.000000	0.000353	-0.000732	0.000000	0.000000
51.724055	11.272682	26.022867	-0.097209	-0.220166	2.157349	0.000000	-0.014432	0.000000	0.000135	-0.000733	0.000000	0.000000
52.165015	11.505191	25.927361	-0.432310	0.435930	2.164961	0.000000	0.047571	0.000000	-0.000188	-0.000733	0.000000	0.000000
52.605975	12.040783	25.259803	-0.787155	1.072189	2.200012	0.000000	0.110124	0.000000	-0.000513	-0.000742	0.000000	0.000000
53.046935	12.903920	24.050575	-1.177958	1.659663	2.262902	0.000000	0.173940	0.000000	-0.000844	-0.000760	0.000000	0.000000
53.487895	14.134026	22.354703	-1.622570	2.171622	2.354352	0.000000	0.239744	0.000000	-0.001184	-0.000786	0.000000	0.000000
53.933855	15.808320	20.224010	-2.145576	2.586089	2.476921	0.000000	0.308684	0.000000	-0.001542	-0.000821	0.000000	0.000000
54.482915	17.963421	17.826018	-1.756741	1.807250	2.626503	0.000000	0.233861	0.000000	-0.001978	-0.000764	0.000000	0.000000
55.031975	19.620464	16.207994	-1.243842	1.157134	2.733763	0.000000	0.154879	0.000000	-0.002379	-0.000694	0.000000	0.000000
55.581035	20.662436	15.254683	-0.643108	0.589437	2.796796	0.000000	0.073138	0.000000	-0.002737	-0.000611	0.000000	0.000000
56.130095	21.015767	14.898179	0.003035	0.063723	2.814477	0.000000	-0.009910	0.000000	-0.003048	-0.000517	0.000000	0.000000
56.428668	21.051824	14.842281	-0.067515	0.083487	2.813925	0.000000	-0.002370	0.000000	-0.003204	-0.000525	0.000000	0.000000
56.762001	21.102136	14.794161	-0.083421	0.060873	2.813311	0.000000	-0.002370	0.000000	-0.003379	-0.000525	0.000000	0.000000
57.095334	21.163052	14.761117	-0.099327	0.038258	2.812696	0.000000	-0.002370	0.000000	-0.003554	-0.000525	0.000000	0.000000
57.429918	21.234861	14.743111	-0.115293	0.015558	2.812078	0.000000	-0.002370	0.000000	-0.003730	-0.000525	0.000000	0.000000
57.727240	21.307647	14.739851	-0.186947	0.035028	2.811530	0.000000	0.005213	0.000000	-0.003886	-0.000535	0.000000	0.000000
58.276300	21.148697	14.983970	0.474458	-0.482291	2.791849	0.000000	-0.077705	0.000000	-0.004145	-0.000405	0.000000	0.000000
58.825360	20.277724	15.811547	1.102347	-1.033957	2.726884	0.000000	-0.159251	0.000000	-0.004330	-0.000268	0.000000	0.000000
59.374420	18.756243	17.281516	1.652380	-1.659259	2.617783	0.000000	-0.237977	0.000000	-0.004438	-0.000126	0.000000	0.000000
59.923480	16.691700	19.498565	2.085717	-2.402731	2.466480	0.000000	-0.312485	0.000000	-0.004468	0.000018	0.000000	0.000000
60.369440	15.074505	21.468857	1.553556	-1.996864	2.342516	0.000000	-0.243850	0.000000	-0.004486	-0.000098	0.000000	0.000000
60.810400	13.910380	23.017261	1.096541	-1.501439	2.249584	0.000000	-0.178377	0.000000	-0.004554	-0.000214	0.000000	0.000000
61.251360	13.125737	24.096865	0.689617	-0.937709	2.185097	0.000000	-0.114933	0.000000	-0.004675	-0.000333	0.000000	0.000000
61.692320	12.684735	24.658555	0.314196	-0.331321	2.148323	0.000000	-0.052795	0.000000	-0.004849	-0.000456	0.000000	0.000000
62.134530	12.567272	24.676197	-0.014690	0.226911	2.138849	0.000000	0.003254	0.000000	-0.005079	-0.000571	0.000000	0.000000
62.431853	12.583043	24.545032	-0.038353	0.214242	2.139986	0.000000	0.003254	0.000000	-0.005249	-0.000571	0.000000	0.000000
62.765186	12.617456	24.406939	-0.064883	0.200038	2.141261	0.000000	0.003254	0.000000	-0.005439	-0.000571	0.000000	0.000000
63.098520	12.669554	24.278315	-0.091413	0.185834	2.142536	0.000000	0.003254	0.000000	-0.005629	-0.000571	0.000000	0.000000
63.433103	12.739634	24.158731	-0.118042	0.171577	2.143816	0.000000	0.003254	0.000000	-0.005821	-0.000571	0.000000	0.000000
63.730426	12.816850	24.060496	-0.108524	0.096422	2.144952	0.000000	-0.002299	0.000000	-0.005990	-0.000556	0.000000	0.000000
64.171386	13.074932	23.710601	-0.479256	0.694112	2.157809	0.000000	0.059443	0.000000	-0.006270	-0.000714	0.000000	0.000000
64.612346	13.668287	22.845606	-0.871872	1.260223	2.198083	0.000000	0.121869	0.000000	-0.006621	-0.000880	0.000000	0.000000
65.053306	14.624004	21.504867	-1.304303	1.769003	2.266236	0.000000	0.185692	0.000000	-0.007048	-0.001057	0.000000	0.000000
65.494266	15.985718	19.749384	-1.796296	2.197308	2.363047	0.000000	0.251642	0.000000	-0.007555	-0.001245	0.000000	0.000000
65.940226	17.838913	17.634171	-2.374843	2.526230	2.491206	0.000000	0.320846	0.000000	-0.008155	-0.001448	0.000000	0.000000
66.489286	20.211914	15.268429	-1.922740	1.808434	2.647582	0.000000	0.245468	0.000000	-0.008875	-0.001173	0.000000	0.000000
67.038346	22.010627	13.615924	-1.334899	1.219421	2.761158	0.000000	0.165717	0.000000	-0.009439	-0.000876	0.000000	0.000000
67.587406	23.108096	12.558961	-0.652825	0.717246	2.829914	0.000000	0.083014	0.000000	-0.009834	-0.000564	0.000000	0.000000
68.136466	23.426871	12.022262	0.075329	0.266147	2.852626	0.000000	-0.001170	0.000000	-0.010056	-0.000242	0.000000	0.000000
68.435038	23.425174	11.851133	-0.003649	0.273103	2.854760	0.000000	0.006895	0.000000	-0.010136	-0.000269	0.000000	0.000000
68.768372	23.432350	11.679139	-0.017879	0.242879	2.857148	0.000000	0.006895	0.000000	-0.010226	-0.000269	0.000000	0.000000
69.101705	23.449013	11.527294	-0.032109	0.212654	2.859536	0.000000	0.006895	0.000000	-0.010315	-0.000269	0.000000	0.000000
69.436288	23.475278	11.395144	-0.046392	0.182316	2.861933	0.000000	0.006895	0.000000	-0.010405	-0.000269	0.000000	0.000000
69.733611	23.506715	11.294710	-0.125747	0.187342	2.864068	0.000000	0.015017	0.000000	-0.010485	-0.000297	0.000000	0.000000
70.282671	23.241136	11.315429	0.606569	-0.225306	2.849113	0.000000	-0.069662	0.000000	-0.010555	0.000043	0.000000	0.000000
