#ParticleID	Turn	x[m]	xp	y[m]	yp	z[m]	dE[GeV]# s	beta_x	beta_y	alpha_x	alpha_y	D_x	D_y	D_px	D_py	orbit_x	orbit_px	orbit_y	orbit_py
0.300000	11.907301	25.180083	-0.018449	-0.023754	2.607415	0.000000	0.000536	0.000000	-0.000426	0.000373	0.000000	0.000000
0.601250	11.926041	25.198001	-0.043757	-0.035725	2.607463	0.000000	0.000536	0.000000	-0.000313	0.000373	0.000000	0.000000
0.898573	11.959487	25.222757	-0.039352	-0.109376	2.607512	0.000000	-0.005871	0.000000	-0.000202	0.000374	0.000000	0.000000
1.339533	12.147456	25.039354	-0.388410	0.523713	2.620998	0.000000	0.067813	0.000000	-0.000038	0.000371	0.000000	0.000000
1.780493	12.649902	24.306030	-0.755216	1.132974	2.667115	0.000000	0.142265	0.000000	0.000126	0.000372	0.000000	0.000000
2.221453	13.489783	23.056148	-1.156530	1.690688	2.746386	0.000000	0.218334	0.000000	0.000291	0.000377	0.000000	0.000000
2.662413	14.705476	21.346573	-1.610685	2.171477	2.859712	0.000000	0.296885	0.000000	0.000459	0.000387	0.000000	0.000000
3.108373	16.373524	19.230032	-2.142778	2.554615	3.010239	0.000000	0.379304	0.000000	0.000634	0.000401	0.000000	0.000000
3.657433	18.512091	16.852648	-1.728890	1.800815	3.193131	0.000000	0.286653	0.000000	0.000848	0.000377	0.000000	0.000000
4.206493	20.125999	15.228158	-1.192870	1.175284	3.323696	0.000000	0.188924	0.000000	0.001047	0.000346	0.000000	0.000000
4.755553	21.101233	14.240857	-0.572581	0.633467	3.399619	0.000000	0.087848	0.000000	0.001228	0.000310	0.000000	0.000000
5.304613	21.368895	13.820424	0.088160	0.136771	3.419558	0.000000	-0.014780	0.000000	0.001386	0.000267	0.000000	0.000000
5.603185	21.353377	13.724115	0.018991	0.150161	3.417700	0.000000	-0.005949	0.000000	0.001467	0.000271	0.000000	0.000000
5.936519	21.345922	13.632286	0.003375	0.125325	3.415627	0.000000	-0.005949	0.000000	0.001557	0.000271	0.000000	0.000000
6.269852	21.348878	13.557015	-0.012241	0.100490	3.413554	0.000000	-0.005949	0.000000	0.001648	0.000271	0.000000	0.000000
6.604435	21.362313	13.498111	-0.027916	0.075561	3.411472	0.000000	-0.005949	0.000000	0.001738	0.000271	0.000000	0.000000
6.901758	21.383057	13.459765	-0.096859	0.088090	3.409623	0.000000	0.002823	0.000000	0.001819	0.000276	0.000000	0.000000
7.450818	21.124766	13.624280	0.564633	-0.389481	3.382948	0.000000	-0.099376	0.000000	0.001954	0.000214	0.000000	0.000000
7.999878	20.157736	14.325307	1.186244	-0.894796	3.300594	0.000000	-0.199809	0.000000	0.002054	0.000149	0.000000	0.000000
8.548938	18.550277	15.612784	1.724059	-1.463851	3.164023	0.000000	-0.296695	0.000000	0.002117	0.000082	0.000000	0.000000
9.097998	16.415941	17.578422	2.140087	-2.137179	2.975658	0.000000	-0.388317	0.000000	0.002143	0.000013	0.000000	0.000000
9.543958	14.750563	19.329801	1.607483	-1.773327	2.820717	0.000000	-0.306843	0.000000	0.002161	0.000069	0.000000	0.000000
9.984918	13.538010	20.703548	1.152704	-1.330076	2.702565	0.000000	-0.229354	0.000000	0.002204	0.000125	0.000000	0.000000
10.425878	12.701904	21.658089	0.750592	-0.826304	2.617950	0.000000	-0.154479	0.000000	0.002272	0.000183	0.000000	0.000000
10.866838	12.204040	22.149988	0.382774	-0.284933	2.565908	0.000000	-0.081366	0.000000	0.002366	0.000242	0.000000	0.000000
11.309048	12.021522	22.156317	0.061123	0.216200	2.545827	0.000000	-0.015278	0.000000	0.002487	0.000299	0.000000	0.000000
11.606371	11.992556	22.031931	0.036299	0.202153	2.541196	0.000000	-0.015278	0.000000	0.002575	0.000299	0.000000	0.000000
12.086371	11.976947	21.848749	-0.003779	0.179476	2.533719	0.000000	-0.015278	0.000000	0.002719	0.000299	0.000000	0.000000
12.566371	11.999812	21.687336	-0.043857	0.156800	2.526242	0.000000	-0.015278	0.000000	0.002862	0.000299	0.000000	0.000000
13.046371	12.061152	21.547693	-0.083934	0.134123	2.518765	0.000000	-0.015278	0.000000	0.003006	0.000299	0.000000	0.000000
13.526371	12.160966	21.429820	-0.124012	0.111446	2.511289	0.000000	-0.015278	0.000000	0.003150	0.000299	0.000000	0.000000
14.007621	12.299665	21.333495	-0.164194	0.088710	2.503792	0.000000	-0.015278	0.000000	0.003293	0.000299	0.000000	0.000000
14.304943	12.404678	21.284928	-0.159580	0.024238	2.499161	0.000000	-0.021209	0.000000	0.003382	0.000291	0.000000	0.000000
14.745903	12.704387	21.030685	-0.522517	0.550108	2.505271	0.000000	0.049594	0.000000	0.003530	0.000380	0.000000	0.000000
15.186863	13.333491	20.321950	-0.909333	1.050946	2.542659	0.000000	0.120957	0.000000	0.003718	0.000473	0.000000	0.000000
15.627823	14.320745	19.190971	-1.337705	1.503964	2.611749	0.000000	0.193693	0.000000	0.003948	0.000572	0.000000	0.000000
16.068783	15.711269	17.689207	-1.827208	1.888546	2.713327	0.000000	0.268629	0.000000	0.004224	0.000678	0.000000	0.000000
16.514743	17.592237	15.863482	-2.405059	2.188015	2.850243	0.000000	0.347095	0.000000	0.004551	0.000791	0.000000	0.000000
17.063803	20.007340	13.825341	-1.966828	1.545701	3.016757	0.000000	0.259882	0.000000	0.004944	0.000638	0.000000	0.000000
17.612863	21.861530	12.428333	-1.389627	1.013496	3.134132	0.000000	0.168069	0.000000	0.005249	0.000472	0.000000	0.000000
18.161923	23.023784	11.572947	-0.714237	0.553490	3.200290	0.000000	0.073283	0.000000	0.005461	0.000299	0.000000	0.000000
18.710983	23.411968	11.198253	0.011621	0.132912	3.214061	0.000000	-0.022799	0.000000	0.005576	0.000120	0.000000	0.000000
19.009556	23.443619	11.110430	-0.059431	0.133413	3.209601	0.000000	-0.014800	0.000000	0.005616	0.000134	0.000000	0.000000
19.342889	23.487996	11.031667	-0.073700	0.102877	3.204623	0.000000	-0.014800	0.000000	0.005661	0.000134	0.000000	0.000000
19.676223	23.541885	10.973260	-0.087968	0.072341	3.199645	0.000000	-0.014800	0.000000	0.005706	0.000134	0.000000	0.000000
20.010806	23.605835	10.934972	-0.219247	0.095870	3.194668	0.000000	0.001028	0.000000	0.005751	0.000163	0.000000	0.000000
20.308129	23.740158	10.886111	-0.291415	0.095498	3.194927	0.000000	0.008964	0.000000	0.005799	0.000178	0.000000	0.000000
20.857189	23.650816	11.001989	0.453212	-0.307773	3.173598	0.000000	-0.086376	0.000000	0.005845	-0.000011	0.000000	0.000000
21.406249	22.756463	11.570113	1.165819	-0.732970	3.100361	0.000000	-0.180184	0.000000	0.005787	-0.000200	0.000000	0.000000
21.955309	21.120297	12.630954	1.796053	-1.210383	2.976513	0.000000	-0.270799	0.000000	0.005626	-0.000385	0.000000	0.000000
22.504369	18.857935	14.260082	2.299384	-1.774020	2.804251	0.000000	-0.356616	0.000000	0.005366	-0.000563	0.000000	0.000000
22.950329	17.076231	15.723245	1.709396	-1.492835	2.662711	0.000000	-0.279398	0.000000	0.005145	-0.000426	0.000000	0.000000
23.391289	15.796956	16.890800	1.202345	-1.144657	2.555974	0.000000	-0.205832	0.000000	0.004986	-0.000296	0.000000	0.000000
23.832249	14.939093	17.727036	0.750240	-0.744391	2.481079	0.000000	-0.134606	0.000000	0.004884	-0.000168	0.000000	0.000000
24.273209	14.463435	18.193901	0.332421	-0.310252	2.437173	0.000000	-0.064912	0.000000	0.004838	-0.000043	0.000000	0.000000
24.715418	14.348344	18.269900	-0.036741	0.095190	2.423755	0.000000	-0.001625	0.000000	0.004846	0.000070	0.000000	0.000000
25.012741	14.376362	18.218179	-0.057491	0.078768	2.423251	0.000000	-0.001625	0.000000	0.004867	0.000070	0.000000	0.000000
25.346075	14.422444	18.171803	-0.080754	0.060358	2.422686	0.000000	-0.001625	0.000000	0.004891	0.000070	0.000000	0.000000
25.679408	14.484034	18.137701	-0.104017	0.041948	2.422120	0.000000	-0.001625	0.000000	0.004914	0.000070	0.000000	0.000000
26.013991	14.561156	18.116182	-0.009237	-0.123499	2.421529	0.000000	-0.021270	0.000000	0.004937	0.000030	0.000000	0.000000
26.311314	14.572710	18.194587	0.004386	-0.182661	2.415195	0.000000	-0.026913	0.000000	0.004946	0.000018	0.000000	0.000000
26.752274	14.748705	18.158481	-0.404956	0.264225	2.418415	0.000000	0.041690	0.000000	0.004982	0.000146	0.000000	0.000000
27.193234	15.292524	17.732045	-0.832805	0.699088	2.451910	0.000000	0.110767	0.000000	0.005075	0.000276	0.000000	0.000000
27.634194	16.229022	16.934683	-1.298713	1.102138	2.516059	0.000000	0.181102	0.000000	0.005226	0.000409	0.000000	0.000000
28.075154	17.601003	15.802677	-1.823974	1.455037	2.611593	0.000000	0.253496	0.000000	0.005437	0.000546	0.000000	0.000000
28.521114	19.495097	14.370433	-2.437637	1.742737	2.741209	0.000000	0.329234	0.000000	0.005712	0.000691	0.000000	0.000000
29.070174	21.903099	12.775027	-1.921355	1.179877	2.898975	0.000000	0.245694	0.000000	0.006040	0.000500	0.000000	0.000000
29.619234	23.665702	11.748246	-1.269313	0.701068	3.009709	0.000000	0.157803	0.000000	0.006260	0.000301	0.000000	0.000000
30.168294	24.658347	11.216950	-0.527582	0.272203	3.071448	0.000000	0.067117	0.000000	0.006369	0.000096	0.000000	0.000000
30.717354	24.810886	11.143292	0.251428	-0.137270	3.083099	0.000000	-0.024758	0.000000	0.006366	-0.000110	0.000000	0.000000
31.015927	24.701051	11.216918	0.177650	-0.136833	3.078007	0.000000	-0.017139	0.000000	0.006338	-0.000094	0.000000	0.000000
31.349260	24.587258	11.318231	0.163729	-0.167106	3.072326	0.000000	-0.017139	0.000000	0.006306	-0.000094	0.000000	0.000000
31.682593	24.482746	11.439726	0.149808	-0.197379	3.066644	0.000000	-0.017139	0.000000	0.006275	-0.000094	0.000000	0.000000
32.017177	24.387174	11.581972	0.135836	-0.227766	3.060941	0.000000	-0.017139	0.000000	0.006244	-0.000094	0.000000	0.000000
32.314499	24.310119	11.725428	0.063264	-0.225768	3.055875	0.000000	-0.009577	0.000000	0.006216	-0.000078	0.000000	0.000000
32.863559	23.824376	12.212321	0.815980	-0.666165	3.025765	0.000000	-0.100270	0.000000	0.006118	-0.000278	0.000000	0.000000
33.412619	22.538844	13.205931	1.511039	-1.154018	2.946373	0.000000	-0.189189	0.000000	0.005912	-0.000473	0.000000	0.000000
33.961679	20.544372	14.777036	2.099327	-1.724082	2.819106	0.000000	-0.274759	0.000000	0.005601	-0.000659	0.000000	0.000000
34.510739	17.981903	17.037549	2.539280	-2.416964	2.646217	0.000000	-0.355465	0.000000	0.005190	-0.000834	0.000000	0.000000
34.956699	15.990486	19.059651	1.941498	-2.098070	2.504396	0.000000	-0.282354	0.000000	0.004847	-0.000704	0.000000	0.000000
35.397659	14.505886	20.734122	1.437512	-1.684554	2.395573	0.000000	-0.212897	0.000000	0.004564	-0.000582	0.000000	0.000000
35.838619	13.435286	22.008549	0.999220	-1.194383	2.316768	0.000000	-0.145859	0.000000	0.004333	-0.000468	0.000000	0.000000
36.279579	12.729753	22.824944	0.606593	-0.649864	2.267086	0.000000	-0.080477	0.000000	0.004151	-0.000358	0.000000	0.000000
36.721789	12.356369	23.146477	0.270717	-0.130329	2.245936	0.000000	-0.021305	0.000000	0.004016	-0.000263	0.000000	0.000000
37.019112	12.203066	23.227861	0.244892	-0.143392	2.239680	0.000000	-0.021305	0.000000	0.003938	-0.000263	0.000000	0.000000
37.352445	12.049456	23.328338	0.215938	-0.158038	2.232666	0.000000	-0.021305	0.000000	0.003850	-0.000263	0.000000	0.000000
37.685779	11.915149	23.438578	0.186984	-0.172684	2.225652	0.000000	-0.021305	0.000000	0.003762	-0.000263	0.000000	0.000000
38.020362	11.799749	23.559051	0.157922	-0.187384	2.218612	0.000000	-0.021305	0.000000	0.003674	-0.000263	0.000000	0.000000
38.317684	11.713516	23.674371	0.159836	-0.256603	2.212355	0.000000	-0.026544	0.000000	0.003596	-0.000272	0.000000	0.000000
38.758644	11.722342	23.638369	-0.180002	0.337933	2.214714	0.000000	0.036816	0.000000	0.003497	-0.000180	0.000000	0.000000
39.199604	12.033385	23.082813	-0.528063	0.917090	2.245041	0.000000	0.100597	0.000000	0.003437	-0.000091	0.000000	0.000000
39.640564	12.660857	22.032983	-0.900252	1.454516	2.303683	0.000000	0.165524	0.000000	0.003417	-0.000002	0.000000	0.000000
40.081524	13.633432	20.536650	-1.313577	1.925757	2.391306	0.000000	0.232338	0.000000	0.003435	0.000086	0.000000	0.000000
40.527484	15.013084	18.639247	-1.790801	2.310749	2.510390	0.000000	0.302214	0.000000	0.003493	0.000176	0.000000	0.000000
41.076544	16.775333	16.506696	-1.399556	1.595985	2.655658	0.000000	0.226363	0.000000	0.003559	0.000062	0.000000	0.000000
41.625604	18.050725	15.092416	-0.909437	0.994910	2.758174	0.000000	0.146497	0.000000	0.003561	-0.000054	0.000000	0.000000
42.174664	18.749154	14.295661	-0.355071	0.464708	2.816117	0.000000	0.064032	0.000000	0.003500	-0.000168	0.000000	0.000000
42.723724	18.821278	14.059673	0.224375	-0.032389	2.828459	0.000000	-0.019572	0.000000	0.003377	-0.000280	0.000000	0.000000
43.022297	18.720698	14.064016	0.160245	-0.017883	2.824839	0.000000	-0.012393	0.000000	0.003296	-0.000271	0.000000	0.000000
43.502297	18.579486	14.097571	0.133946	-0.052023	2.819021	0.000000	-0.012393	0.000000	0.003166	-0.000271	0.000000	0.000000
43.982297	18.463521	14.163901	0.107648	-0.086164	2.813202	0.000000	-0.012393	0.000000	0.003036	-0.000271	0.000000	0.000000
44.462297	18.372802	14.263005	0.081349	-0.120304	2.807384	0.000000	-0.012393	0.000000	0.002906	-0.000271	0.000000	0.000000
44.942297	18.307330	14.394885	0.055051	-0.154445	2.801565	0.000000	-0.012393	0.000000	0.002776	-0.000271	0.000000	0.000000
45.423547	18.267259	14.559831	-0.061822	-0.116536	2.795749	0.000000	0.001459	0.000000	0.002646	-0.000258	0.000000	0.000000
45.720870	18.308883	14.635279	-0.124962	-0.099876	2.796259	0.000000	0.008607	0.000000	0.002569	-0.000251	0.000000	0.000000
46.269930	18.137685	15.027814	0.434754	-0.619240	2.778471	0.000000	-0.073863	0.000000	0.002409	-0.000332	0.000000	0.000000
46.818990	17.365120	16.011420	0.963751	-1.182712	2.715734	0.000000	-0.155028	0.000000	0.002206	-0.000407	0.000000	0.000000
47.368050	16.045774	17.656156	1.424660	-1.830429	2.609158	0.000000	-0.233450	0.000000	0.001964	-0.000474	0.000000	0.000000
47.917110	14.272858	20.079171	1.784922	-2.608529	2.460630	0.000000	-0.307739	0.000000	0.001687	-0.000533	0.000000	0.000000
48.363070	12.892463	22.233105	1.321118	-2.200962	2.338956	0.000000	-0.239197	0.000000	0.001458	-0.000492	0.000000	0.000000
48.804030	11.907219	23.957478	0.921463	-1.694578	2.248190	0.000000	-0.173778	0.000000	0.001249	-0.000458	0.000000	0.000000
49.244990	11.254628	25.199413	0.563913	-1.111092	2.185796	0.000000	-0.110334	0.000000	0.001054	-0.000428	0.000000	0.000000
49.685950	10.904869	25.902405	0.232131	-0.477051	2.151065	0.000000	-0.048141	0.000000	0.000871	-0.000403	0.000000	0.000000
50.128160	10.842114	26.034184	-0.062747	0.115365	2.143615	0.000000	0.008285	0.000000	0.000697	-0.000385	0.000000	0.000000
50.425482	10.887612	25.969024	-0.090278	0.103792	2.146193	0.000000	0.008285	0.000000	0.000583	-0.000385	0.000000	0.000000
50.758816	10.958086	25.904154	-0.121143	0.090818	2.149082	0.000000	0.008285	0.000000	0.000455	-0.000385	0.000000	0.000000
51.092149	11.049136	25.847934	-0.152009	0.077844	2.151972	0.000000	0.008285	0.000000	0.000327	-0.000385	0.000000	0.000000
51.426732	11.160995	25.800723	-0.092445	-0.144487	2.154851	0.000000	-0.009196	0.000000	0.000198	-0.000386	0.000000	0.000000
51.724055	11.223955	25.890140	-0.091809	-0.219834	2.152232	0.000000	-0.014470	0.000000	0.000083	-0.000386	0.000000	0.000000
52.165015	11.451217	25.795891	-0.425652	0.432756	2.159650	0.000000	0.047399	0.000000	-0.000087	-0.000386	0.000000	0.000000
52.605975	11.980328	25.132629	-0.778939	1.065655	2.194444	0.000000	0.109812	0.000000	-0.000258	-0.000391	0.000000	0.000000
53.046935	12.835457	23.930536	-1.167810	1.650067	2.257013	0.000000	0.173480	0.000000	-0.000432	-0.000400	0.000000	0.000000
53.487895	14.055667	22.244309	-1.610031	2.159401	2.348071	0.000000	0.239128	0.000000	-0.000611	-0.000413	0.000000	0.000000
53.933855	15.717580	20.125473	-2.130069	2.571809	2.470165	0.000000	0.307901	0.000000	-0.000800	-0.000431	0.000000	0.000000
54.482915	17.856923	17.741023	-1.743489	1.796666	2.619180	0.000000	0.233304	0.000000	-0.001029	-0.000402	0.000000	0.000000
55.031975	19.501211	16.132922	-1.233771	1.149495	2.726020	0.000000	0.154563	0.000000	-0.001240	-0.000365	0.000000	0.000000
55.581035	20.534318	15.186623	-0.636916	0.584199	2.788785	0.000000	0.073074	0.000000	-0.001428	-0.000322	0.000000	0.000000
56.130095	20.883285	14.834722	0.004917	0.060513	2.806361	0.000000	-0.009717	0.000000	-0.001592	-0.000273	0.000000	0.000000
56.428668	20.917643	14.781170	-0.064706	0.079519	2.805761	0.000000	-0.002287	0.000000	-0.001675	-0.000277	0.000000	0.000000
56.762001	20.966114	14.735722	-0.080708	0.056825	2.805091	0.000000	-0.002287	0.000000	-0.001767	-0.000277	0.000000	0.000000
57.095334	21.025253	14.705403	-0.096710	0.034131	2.804421	0.000000	-0.002287	0.000000	-0.001860	-0.000277	0.000000	0.000000
57.429918	21.095343	14.690185	-0.112772	0.011352	2.803748	0.000000	-0.002287	0.000000	-0.001952	-0.000277	0.000000	0.000000
57.727240	21.166649	14.689451	-0.183288	0.030083	2.803151	0.000000	0.005161	0.000000	-0.002035	-0.000283	0.000000	0.000000
58.276300	21.006346	14.938246	0.473377	-0.485900	2.783398	0.000000	-0.077488	0.000000	-0.002171	-0.000214	0.000000	0.000000
58.825360	20.139170	15.769198	1.096603	-1.036490	2.718539	0.000000	-0.158767	0.000000	-0.002269	-0.000142	0.000000	0.000000
59.374420	18.626369	17.241489	1.642376	-1.660901	2.609725	0.000000	-0.237233	0.000000	-0.002327	-0.000068	0.000000	0.000000
59.923480	16.574788	19.459978	2.072149	-2.403606	2.458882	0.000000	-0.311491	0.000000	-0.002344	0.000008	0.000000	0.000000
60.369440	14.968217	21.431665	1.543176	-1.999045	2.335311	0.000000	-0.243038	0.000000	-0.002354	-0.000053	0.000000	0.000000
60.810400	13.811985	22.982599	1.088903	-1.504864	2.242664	0.000000	-0.177743	0.000000	-0.002391	-0.000114	0.000000	0.000000
61.251360	13.032998	24.065748	0.684375	-0.942218	2.178362	0.000000	-0.114472	0.000000	-0.002455	-0.000177	0.000000	0.000000
61.692320	12.595668	24.631836	0.311113	-0.336705	2.141673	0.000000	-0.052502	0.000000	-0.002547	-0.000241	0.000000	0.000000
62.134530	12.480061	24.654549	-0.016664	0.222205	2.132186	0.000000	0.003513	0.000000	-0.002669	-0.000302	0.000000	0.000000
62.431853	12.497056	24.526178	-0.040494	0.209550	2.133320	0.000000	0.003513	0.000000	-0.002758	-0.000302	0.000000	0.000000
62.765186	12.532957	24.391208	-0.067211	0.195362	2.134592	0.000000	0.003513	0.000000	-0.002859	-0.000302	0.000000	0.000000
63.098520	12.586670	24.265695	-0.093928	0.181175	2.135863	0.000000	0.003513	0.000000	-0.002960	-0.000302	0.000000	0.000000
63.433103	12.658496	24.149224	-0.120745	0.166934	2.137140	0.000000	0.003513	0.000000	-0.003061	-0.000302	0.000000	0.000000
63.730426	12.737378	24.053727	-0.112417	0.093448	2.138274	0.000000	-0.001885	0.000000	-0.003150	-0.000294	0.000000	0.000000
64.171386	12.998194	23.706485	-0.481451	0.691061	2.151149	0.000000	0.059689	0.000000	-0.003298	-0.000377	0.000000	0.000000
64.612346	13.592867	22.844126	-0.872475	1.257233	2.191335	0.000000	0.121947	0.000000	-0.003484	-0.000465	0.000000	0.000000
65.053306	14.548554	21.505887	-1.303350	1.766206	2.259293	0.000000	0.185599	0.000000	-0.003709	-0.000557	0.000000	0.000000
65.494266	15.908904	19.752655	-1.793757	2.194825	2.355798	0.000000	0.251371	0.000000	-0.003976	-0.000656	0.000000	0.000000
65.940226	17.759282	17.639402	-2.370706	2.524245	2.483524	0.000000	0.320400	0.000000	-0.004292	-0.000764	0.000000	0.000000
66.489286	20.129650	15.275636	-1.921528	1.806555	2.639403	0.000000	0.245268	0.000000	-0.004672	-0.000618	0.000000	0.000000
67.038346	21.928941	13.625089	-1.336663	1.217527	2.752691	0.000000	0.165776	0.000000	-0.004969	-0.000462	0.000000	0.000000
67.587406	23.030112	12.570202	-0.657413	0.715212	2.821377	0.000000	0.083337	0.000000	-0.005178	-0.000298	0.000000	0.000000
68.136466	23.355418	12.035843	0.068256	0.263832	2.844239	0.000000	-0.000586	0.000000	-0.005295	-0.000128	0.000000	0.000000
68.435038	23.356491	11.866752	-0.008221	0.269687	2.846421	0.000000	0.007171	0.000000	-0.005338	-0.000142	0.000000	0.000000
68.768372	23.366729	11.697004	-0.022494	0.239554	2.848859	0.000000	0.007171	0.000000	-0.005385	-0.000142	0.000000	0.000000
69.101705	23.386483	11.547346	-0.036766	0.209422	2.851297	0.000000	0.007171	0.000000	-0.005433	-0.000142	0.000000	0.000000
69.436288	23.415879	11.417328	-0.051093	0.179176	2.853744	0.000000	0.007171	0.000000	-0.005480	-0.000142	0.000000	0.000000
69.733611	23.450067	11.318763	-0.127887	0.183196	2.855919	0.000000	0.014973	0.000000	-0.005523	-0.000157	0.000000	0.000000
70.282671	23.187794	11.344434	0.602729	-0.230230	2.840977	0.000000	-0.069455	0.000000	-0.005559	0.000023	0.000000	0.000000
