#ParticleID	Turn	x[m]	xp	y[m]	yp	z[m]	dE[GeV]# s	beta_x	beta_y	alpha_x	alpha_y	D_x	D_y	D_px	D_py	orbit_x	orbit_px	orbit_y	orbit_py
0.300000	11.884118	25.104861	-0.017107	-0.024996	2.610930	0.000000	0.000364	0.000000	-0.000285	0.000250	0.000000	0.000000
0.601250	11.902064	25.123538	-0.042464	-0.037003	2.610964	0.000000	0.000364	0.000000	-0.000210	0.000250	0.000000	0.000000
0.898573	11.934755	25.149066	-0.038185	-0.110516	2.610998	0.000000	-0.006047	0.000000	-0.000135	0.000251	0.000000	0.000000
1.339533	12.121418	24.967522	-0.386647	0.520650	2.624479	0.000000	0.067727	0.000000	-0.000025	0.000248	0.000000	0.000000
1.780493	12.621998	24.237700	-0.752776	1.128127	2.670629	0.000000	0.142269	0.000000	0.000084	0.000249	0.000000	0.000000
2.221453	13.459368	22.992803	-1.153300	1.684276	2.749975	0.000000	0.218430	0.000000	0.000195	0.000253	0.000000	0.000000
2.662413	14.671787	21.289471	-1.606517	2.163793	2.863417	0.000000	0.297075	0.000000	0.000308	0.000259	0.000000	0.000000
3.108373	16.335592	19.180232	-2.137465	2.546001	3.014106	0.000000	0.379591	0.000000	0.000425	0.000269	0.000000	0.000000
3.657433	18.468844	16.811152	-1.724657	1.794229	3.197188	0.000000	0.286813	0.000000	0.000569	0.000253	0.000000	0.000000
4.206493	20.078796	15.193008	-1.190020	1.170258	3.327866	0.000000	0.188951	0.000000	0.000702	0.000232	0.000000	0.000000
4.755553	21.051718	14.210544	-0.571319	0.629641	3.403824	0.000000	0.087742	0.000000	0.000823	0.000207	0.000000	0.000000
5.304613	21.318880	13.793784	0.087743	0.133873	3.423716	0.000000	-0.015021	0.000000	0.000929	0.000179	0.000000	0.000000
5.603185	21.303672	13.699159	0.018456	0.147329	3.421827	0.000000	-0.006145	0.000000	0.000983	0.000181	0.000000	0.000000
5.936519	21.296586	13.609227	0.002803	0.122468	3.419718	0.000000	-0.006145	0.000000	0.001044	0.000181	0.000000	0.000000
6.269852	21.299934	13.535868	-0.012849	0.097608	3.417610	0.000000	-0.006145	0.000000	0.001104	0.000181	0.000000	0.000000
6.604435	21.313789	13.478901	-0.028559	0.072654	3.415493	0.000000	-0.006145	0.000000	0.001165	0.000181	0.000000	0.000000
6.901758	21.334924	13.442291	-0.097693	0.085277	3.413612	0.000000	0.002683	0.000000	0.001219	0.000185	0.000000	0.000000
7.450818	21.078405	13.609635	0.562215	-0.391854	3.386868	0.000000	-0.099643	0.000000	0.001309	0.000144	0.000000	0.000000
7.999878	20.114817	14.313098	1.182412	-0.896897	3.304366	0.000000	-0.200198	0.000000	0.001376	0.000100	0.000000	0.000000
8.548938	18.512224	15.602789	1.719087	-1.465828	3.167570	0.000000	-0.297201	0.000000	0.001419	0.000055	0.000000	0.000000
9.097998	16.383835	17.570574	2.134327	-2.139170	2.978908	0.000000	-0.388931	0.000000	0.001436	0.000009	0.000000	0.000000
9.543958	14.723096	19.323924	1.602829	-1.775775	2.823718	0.000000	-0.307380	0.000000	0.001448	0.000046	0.000000	0.000000
9.984918	13.514260	20.699968	1.148914	-1.332850	2.705359	0.000000	-0.229818	0.000000	0.001477	0.000084	0.000000	0.000000
10.425878	12.681179	21.657043	0.747493	-0.829278	2.620577	0.000000	-0.154875	0.000000	0.001522	0.000122	0.000000	0.000000
10.866838	12.185792	22.151599	0.380225	-0.287973	2.568406	0.000000	-0.081697	0.000000	0.001585	0.000162	0.000000	0.000000
11.309048	12.005315	22.160598	0.059198	0.212826	2.548231	0.000000	-0.015602	0.000000	0.001666	0.000200	0.000000	0.000000
11.606371	11.977503	22.038212	0.034345	0.198802	2.543532	0.000000	-0.015602	0.000000	0.001726	0.000200	0.000000	0.000000
12.086371	11.963790	21.858230	-0.005777	0.176161	2.535947	0.000000	-0.015602	0.000000	0.001822	0.000200	0.000000	0.000000
12.566371	11.988595	21.699983	-0.045900	0.153520	2.528362	0.000000	-0.015602	0.000000	0.001918	0.000200	0.000000	0.000000
13.046371	12.051918	21.563472	-0.086022	0.130878	2.520777	0.000000	-0.015602	0.000000	0.002014	0.000200	0.000000	0.000000
13.526371	12.153757	21.448696	-0.126144	0.108237	2.513193	0.000000	-0.015602	0.000000	0.002110	0.000200	0.000000	0.000000
14.007621	12.294531	21.355442	-0.166371	0.085537	2.505588	0.000000	-0.015602	0.000000	0.002207	0.000200	0.000000	0.000000
14.304943	12.400850	21.308751	-0.161469	0.020443	2.500889	0.000000	-0.021602	0.000000	0.002266	0.000195	0.000000	0.000000
14.745903	12.702180	21.057555	-0.524371	0.547029	2.506882	0.000000	0.049241	0.000000	0.002365	0.000255	0.000000	0.000000
15.186863	13.332901	20.351179	-0.911235	1.048725	2.544182	0.000000	0.120642	0.000000	0.002491	0.000317	0.000000	0.000000
15.627823	14.321834	19.221762	-1.339737	1.502702	2.613214	0.000000	0.193414	0.000000	0.002646	0.000383	0.000000	0.000000
16.068783	15.714174	17.720694	-1.829458	1.888303	2.714761	0.000000	0.268386	0.000000	0.002830	0.000454	0.000000	0.000000
16.514743	17.597176	15.894773	-2.407596	2.188780	2.851677	0.000000	0.346882	0.000000	0.003049	0.000530	0.000000	0.000000
17.063803	20.015009	13.856223	-1.969462	1.545767	3.018182	0.000000	0.259627	0.000000	0.003313	0.000427	0.000000	0.000000
17.612863	21.871962	12.459557	-1.392186	1.012864	3.135499	0.000000	0.167774	0.000000	0.003517	0.000316	0.000000	0.000000
18.161923	23.036833	11.605290	-0.716552	0.552112	3.201550	0.000000	0.072950	0.000000	0.003659	0.000200	0.000000	0.000000
18.710983	23.427316	11.232572	0.009708	0.130689	3.215165	0.000000	-0.023165	0.000000	0.003736	0.000080	0.000000	0.000000
19.009556	23.460720	11.145710	-0.062344	0.131843	3.210650	0.000000	-0.015030	0.000000	0.003763	0.000090	0.000000	0.000000
19.342889	23.507037	11.067957	-0.076607	0.101416	3.205610	0.000000	-0.015030	0.000000	0.003793	0.000090	0.000000	0.000000
19.676223	23.562862	11.010489	-0.090870	0.070989	3.200569	0.000000	-0.015030	0.000000	0.003823	0.000090	0.000000	0.000000
20.010806	23.628753	10.973068	-0.222257	0.094816	3.195530	0.000000	0.000802	0.000000	0.003853	0.000109	0.000000	0.000000
20.308129	23.764853	10.924810	-0.295512	0.095101	3.195737	0.000000	0.008877	0.000000	0.003886	0.000119	0.000000	0.000000
20.857189	23.679553	11.041707	0.449979	-0.309250	3.174370	0.000000	-0.086483	0.000000	0.003916	-0.000007	0.000000	0.000000
21.406249	22.788204	11.612073	1.163681	-0.735629	3.101053	0.000000	-0.180309	0.000000	0.003878	-0.000134	0.000000	0.000000
21.955309	21.153785	12.676537	1.795169	-1.214412	2.977085	0.000000	-0.270939	0.000000	0.003770	-0.000258	0.000000	0.000000
22.504369	18.891774	14.310924	2.299830	-1.779702	2.804665	0.000000	-0.356767	0.000000	0.003596	-0.000377	0.000000	0.000000
22.950329	17.110023	15.778584	1.709248	-1.497283	2.662991	0.000000	-0.279549	0.000000	0.003448	-0.000285	0.000000	0.000000
23.391289	15.831217	16.949404	1.201550	-1.147645	2.556141	0.000000	-0.205980	0.000000	0.003342	-0.000198	0.000000	0.000000
23.832249	14.974390	17.787560	0.748758	-0.745785	2.481150	0.000000	-0.134754	0.000000	0.003273	-0.000113	0.000000	0.000000
24.273209	14.500384	18.254915	0.330180	-0.309990	2.437164	0.000000	-0.065063	0.000000	0.003242	-0.000029	0.000000	0.000000
24.715418	14.387642	18.329956	-0.039207	0.096269	2.423681	0.000000	-0.001871	0.000000	0.003248	0.000047	0.000000	0.000000
25.012741	14.417111	18.277578	-0.059904	0.079898	2.423110	0.000000	-0.001871	0.000000	0.003262	0.000047	0.000000	0.000000
25.346075	14.464781	18.230430	-0.083108	0.061544	2.422471	0.000000	-0.001871	0.000000	0.003278	0.000047	0.000000	0.000000
25.679408	14.527921	18.195519	-0.106312	0.043191	2.421831	0.000000	-0.001871	0.000000	0.003293	0.000047	0.000000	0.000000
26.013991	14.606558	18.173149	-0.011104	-0.122661	2.421165	0.000000	-0.021513	0.000000	0.003309	0.000020	0.000000	0.000000
26.311314	14.619209	18.251033	0.003255	-0.182607	2.414762	0.000000	-0.027248	0.000000	0.003315	0.000012	0.000000	0.000000
26.752274	14.796681	18.214208	-0.407206	0.265796	2.417843	0.000000	0.041339	0.000000	0.003339	0.000098	0.000000	0.000000
27.193234	15.342987	17.785752	-0.836275	0.702104	2.451207	0.000000	0.110396	0.000000	0.003402	0.000185	0.000000	0.000000
27.634194	16.283093	16.985160	-1.303558	1.106464	2.515235	0.000000	0.180709	0.000000	0.003503	0.000274	0.000000	0.000000
28.075154	17.659962	15.848859	-1.830409	1.460477	2.610654	0.000000	0.253076	0.000000	0.003644	0.000366	0.000000	0.000000
28.521114	19.560490	14.411410	-2.445918	1.749014	2.740159	0.000000	0.328780	0.000000	0.003829	0.000463	0.000000	0.000000
29.070174	21.976475	12.810014	-1.927766	1.184653	2.897786	0.000000	0.245281	0.000000	0.004048	0.000335	0.000000	0.000000
29.619234	23.744785	11.778685	-1.273415	0.704680	3.008372	0.000000	0.157437	0.000000	0.004196	0.000202	0.000000	0.000000
30.168294	24.740478	11.243957	-0.529096	0.274906	3.069957	0.000000	0.066803	0.000000	0.004269	0.000065	0.000000	0.000000
30.717354	24.893200	11.167742	0.252604	-0.135285	3.081449	0.000000	-0.025015	0.000000	0.004267	-0.000074	0.000000	0.000000
31.015927	24.783491	11.239806	0.177488	-0.134191	3.076315	0.000000	-0.017255	0.000000	0.004248	-0.000063	0.000000	0.000000
31.349260	24.669790	11.339330	0.163614	-0.164382	3.070584	0.000000	-0.017255	0.000000	0.004227	-0.000063	0.000000	0.000000
31.682593	24.565338	11.458981	0.149741	-0.194572	3.064853	0.000000	-0.017255	0.000000	0.004206	-0.000063	0.000000	0.000000
32.017177	24.469796	11.599321	0.135815	-0.224876	3.059101	0.000000	-0.017255	0.000000	0.004185	-0.000063	0.000000	0.000000
32.314499	24.392726	11.741043	0.061956	-0.222219	3.053990	0.000000	-0.009557	0.000000	0.004166	-0.000052	0.000000	0.000000
32.863559	23.906958	12.224173	0.817397	-0.662844	3.023879	0.000000	-0.100183	0.000000	0.004101	-0.000186	0.000000	0.000000
33.412619	22.618491	13.214124	1.515086	-1.150687	2.944491	0.000000	-0.189035	0.000000	0.003963	-0.000317	0.000000	0.000000
33.961679	20.618364	14.781412	2.105732	-1.720499	2.817231	0.000000	-0.274539	0.000000	0.003754	-0.000442	0.000000	0.000000
34.510739	18.047899	17.037677	2.547606	-2.412869	2.644355	0.000000	-0.355180	0.000000	0.003479	-0.000559	0.000000	0.000000
34.956699	16.050012	19.055895	1.947973	-2.093605	2.502544	0.000000	-0.282125	0.000000	0.003250	-0.000472	0.000000	0.000000
35.397659	14.560494	20.726288	1.442399	-1.679891	2.393723	0.000000	-0.212718	0.000000	0.003060	-0.000390	0.000000	0.000000
35.838619	13.486254	21.996568	1.002738	-1.189738	2.314913	0.000000	-0.145730	0.000000	0.002905	-0.000313	0.000000	0.000000
36.279579	12.778200	22.808936	0.608896	-0.645449	2.265220	0.000000	-0.080399	0.000000	0.002783	-0.000240	0.000000	0.000000
36.721789	12.403296	23.126744	0.272409	-0.127050	2.244050	0.000000	-0.021342	0.000000	0.002693	-0.000176	0.000000	0.000000
37.019112	12.248965	23.206178	0.246659	-0.140114	2.237757	0.000000	-0.021342	0.000000	0.002640	-0.000176	0.000000	0.000000
37.352445	12.094148	23.304469	0.217790	-0.154760	2.230702	0.000000	-0.021342	0.000000	0.002582	-0.000176	0.000000	0.000000
37.685779	11.958578	23.412524	0.188921	-0.169406	2.223646	0.000000	-0.021342	0.000000	0.002523	-0.000176	0.000000	0.000000
38.020362	11.841854	23.530803	0.159944	-0.184106	2.216564	0.000000	-0.021342	0.000000	0.002464	-0.000176	0.000000	0.000000
38.317684	11.754398	23.644169	0.162358	-0.253883	2.210271	0.000000	-0.026638	0.000000	0.002412	-0.000182	0.000000	0.000000
38.758644	11.761409	23.606135	-0.178369	0.339805	2.212544	0.000000	0.036665	0.000000	0.002345	-0.000120	0.000000	0.000000
39.199604	12.071378	23.049343	-0.527246	0.918031	2.242771	0.000000	0.100386	0.000000	0.002306	-0.000060	0.000000	0.000000
39.640564	12.698467	21.999128	-0.900213	1.454484	2.301299	0.000000	0.165252	0.000000	0.002292	-0.000001	0.000000	0.000000
40.081524	13.671330	20.503278	-1.314312	1.924754	2.388792	0.000000	0.232000	0.000000	0.002304	0.000058	0.000000	0.000000
40.527484	15.051956	18.607231	-1.792322	2.308792	2.507726	0.000000	0.301804	0.000000	0.002344	0.000118	0.000000	0.000000
41.076544	16.815029	16.476345	-1.399600	1.594958	2.652812	0.000000	0.226045	0.000000	0.002388	0.000042	0.000000	0.000000
41.625604	18.089634	15.062743	-0.908007	0.994737	2.755178	0.000000	0.146276	0.000000	0.002389	-0.000036	0.000000	0.000000
42.174664	18.785726	14.265732	-0.352271	0.465374	2.813008	0.000000	0.063913	0.000000	0.002349	-0.000112	0.000000	0.000000
42.723724	18.854131	14.028539	0.228348	-0.030839	2.825274	0.000000	-0.019586	0.000000	0.002266	-0.000187	0.000000	0.000000
43.022297	18.751507	14.031820	0.163677	-0.016132	2.821642	0.000000	-0.012345	0.000000	0.002212	-0.000181	0.000000	0.000000
43.502297	18.606993	14.063730	0.137394	-0.050348	2.815804	0.000000	-0.012345	0.000000	0.002125	-0.000181	0.000000	0.000000
43.982297	18.487711	14.128489	0.111110	-0.084565	2.809965	0.000000	-0.012345	0.000000	0.002038	-0.000181	0.000000	0.000000
44.462297	18.393662	14.226096	0.084826	-0.118782	2.804127	0.000000	-0.012345	0.000000	0.001951	-0.000181	0.000000	0.000000
44.942297	18.324845	14.356551	0.058542	-0.152999	2.798288	0.000000	-0.012345	0.000000	0.001864	-0.000181	0.000000	0.000000
45.423547	18.281406	14.520142	-0.058386	-0.115363	2.792451	0.000000	0.001490	0.000000	0.001777	-0.000173	0.000000	0.000000
45.720870	18.320979	14.594910	-0.121879	-0.098568	2.792946	0.000000	0.008682	0.000000	0.001725	-0.000168	0.000000	0.000000
46.269930	18.146236	14.985316	0.438144	-0.616657	2.775179	0.000000	-0.073679	0.000000	0.001618	-0.000222	0.000000	0.000000
46.818990	17.369930	15.965297	0.967212	-1.178671	2.712509	0.000000	-0.154737	0.000000	0.001482	-0.000272	0.000000	0.000000
47.368050	16.046904	17.604652	1.427952	-1.824642	2.606046	0.000000	-0.233054	0.000000	0.001320	-0.000318	0.000000	0.000000
47.917110	14.270626	20.020148	1.787818	-2.600580	2.457677	0.000000	-0.307242	0.000000	0.001134	-0.000358	0.000000	0.000000
48.363070	12.887787	22.167541	1.323807	-2.194335	2.336135	0.000000	-0.238778	0.000000	0.000981	-0.000330	0.000000	0.000000
48.804030	11.900252	23.886746	0.924060	-1.689556	2.245472	0.000000	-0.173431	0.000000	0.000840	-0.000307	0.000000	0.000000
49.244990	11.245393	25.125039	0.566534	-1.107902	2.183154	0.000000	-0.110056	0.000000	0.000710	-0.000287	0.000000	0.000000
49.685950	10.893289	25.826080	0.234895	-0.475840	2.148472	0.000000	-0.047932	0.000000	0.000587	-0.000270	0.000000	0.000000
50.128160	10.827999	25.957689	-0.059692	0.114545	2.141044	0.000000	0.008423	0.000000	0.000471	-0.000258	0.000000	0.000000
50.425482	10.871688	25.893025	-0.087249	0.102941	2.143625	0.000000	0.008423	0.000000	0.000394	-0.000258	0.000000	0.000000
50.758816	10.940152	25.828735	-0.118143	0.089931	2.146518	0.000000	0.008423	0.000000	0.000308	-0.000258	0.000000	0.000000
51.092149	11.029212	25.773118	-0.149037	0.076921	2.149412	0.000000	0.008423	0.000000	0.000222	-0.000258	0.000000	0.000000
51.426732	11.139092	25.726536	-0.089680	-0.144844	2.152294	0.000000	-0.009038	0.000000	0.000136	-0.000259	0.000000	0.000000
51.724055	11.200419	25.816175	-0.089135	-0.220012	2.149684	0.000000	-0.014307	0.000000	0.000059	-0.000259	0.000000	0.000000
52.165015	11.425083	25.722946	-0.422370	0.430629	2.157105	0.000000	0.047497	0.000000	-0.000055	-0.000259	0.000000	0.000000
52.605975	11.950997	25.062386	-0.774900	1.061677	2.191874	0.000000	0.109844	0.000000	-0.000169	-0.000262	0.000000	0.000000
53.046935	12.802185	23.864552	-1.162830	1.644418	2.254386	0.000000	0.173445	0.000000	-0.000286	-0.000268	0.000000	0.000000
53.487895	14.017534	22.183947	-1.603885	2.152340	2.345356	0.000000	0.239024	0.000000	-0.000406	-0.000276	0.000000	0.000000
53.933855	15.673368	20.071918	-2.122470	2.563659	2.467329	0.000000	0.307727	0.000000	-0.000532	-0.000289	0.000000	0.000000
54.482915	17.804968	17.695235	-1.736987	1.790568	2.616201	0.000000	0.233223	0.000000	-0.000685	-0.000269	0.000000	0.000000
55.031975	19.442978	16.092900	-1.228820	1.145014	2.722956	0.000000	0.154578	0.000000	-0.000826	-0.000244	0.000000	0.000000
55.581035	20.471708	15.150778	-0.633864	0.581017	2.785698	0.000000	0.073187	0.000000	-0.000953	-0.000216	0.000000	0.000000
56.130095	20.818503	14.801763	0.005859	0.058403	2.803311	0.000000	-0.009505	0.000000	-0.001062	-0.000183	0.000000	0.000000
56.428668	20.852066	14.749646	-0.063395	0.077096	2.802735	0.000000	-0.002115	0.000000	-0.001118	-0.000186	0.000000	0.000000
56.762001	20.899679	14.705827	-0.079445	0.054363	2.802092	0.000000	-0.002115	0.000000	-0.001180	-0.000186	0.000000	0.000000
57.095334	20.957992	14.677163	-0.095495	0.031629	2.801449	0.000000	-0.002115	0.000000	-0.001241	-0.000186	0.000000	0.000000
57.429918	21.027284	14.663632	-0.111605	0.008810	2.800803	0.000000	-0.002115	0.000000	-0.001304	-0.000186	0.000000	0.000000
57.727240	21.097907	14.664422	-0.181671	0.027243	2.800229	0.000000	0.005284	0.000000	-0.001359	-0.000189	0.000000	0.000000
58.276300	20.937121	14.915964	0.472682	-0.488089	2.780526	0.000000	-0.077273	0.000000	-0.001450	-0.000144	0.000000	0.000000
58.825360	20.071972	15.749044	1.093645	-1.038183	2.715778	0.000000	-0.158463	0.000000	-0.001516	-0.000096	0.000000	0.000000
59.374420	18.563567	17.222996	1.637362	-1.662222	2.607135	0.000000	-0.236843	0.000000	-0.001555	-0.000046	0.000000	0.000000
59.923480	16.518445	19.442801	2.065431	-2.404651	2.456521	0.000000	-0.311024	0.000000	-0.001567	0.000005	0.000000	0.000000
60.369440	14.917143	21.415726	1.538018	-2.000735	2.333142	0.000000	-0.242625	0.000000	-0.001574	-0.000036	0.000000	0.000000
60.810400	13.764850	22.968430	1.085076	-1.507134	2.240653	0.000000	-0.177383	0.000000	-0.001599	-0.000077	0.000000	0.000000
61.251360	12.988716	24.053811	0.681706	-0.944962	2.176478	0.000000	-0.114160	0.000000	-0.001642	-0.000119	0.000000	0.000000
61.692320	12.553283	24.622489	0.309479	-0.339797	2.139887	0.000000	-0.052236	0.000000	-0.001703	-0.000162	0.000000	0.000000
62.134530	12.438703	24.648040	-0.017692	0.219385	2.130468	0.000000	0.003782	0.000000	-0.001785	-0.000202	0.000000	0.000000
62.431853	12.456333	24.521343	-0.041603	0.206742	2.131653	0.000000	0.003782	0.000000	-0.001845	-0.000202	0.000000	0.000000
62.765186	12.493003	24.388240	-0.068409	0.192567	2.132981	0.000000	0.003782	0.000000	-0.001913	-0.000202	0.000000	0.000000
63.098520	12.547545	24.264586	-0.095216	0.178393	2.134309	0.000000	0.003782	0.000000	-0.001980	-0.000202	0.000000	0.000000
63.433103	12.620263	24.149972	-0.122123	0.164165	2.135642	0.000000	0.003782	0.000000	-0.002048	-0.000202	0.000000	0.000000
63.730426	12.699990	24.056115	-0.114272	0.091292	2.136827	0.000000	-0.001562	0.000000	-0.002108	-0.000197	0.000000	0.000000
64.171386	12.962107	23.710719	-0.482506	0.689033	2.149790	0.000000	0.059978	0.000000	-0.002207	-0.000253	0.000000	0.000000
64.612346	13.557410	22.850043	-0.872781	1.255425	2.190039	0.000000	0.122204	0.000000	-0.002331	-0.000311	0.000000	0.000000
65.053306	14.513090	21.513248	-1.302923	1.764699	2.258032	0.000000	0.185825	0.000000	-0.002482	-0.000373	0.000000	0.000000
65.494266	15.872800	19.761156	-1.792583	2.193685	2.354546	0.000000	0.251566	0.000000	-0.002661	-0.000440	0.000000	0.000000
65.940226	17.721858	17.648700	-2.368767	2.523554	2.482254	0.000000	0.320570	0.000000	-0.002873	-0.000511	0.000000	0.000000
66.489286	20.090968	15.285698	-1.920974	1.805755	2.638118	0.000000	0.245475	0.000000	-0.003128	-0.000414	0.000000	0.000000
67.038346	21.890526	13.636076	-1.337520	1.216566	2.751439	0.000000	0.166020	0.000000	-0.003327	-0.000310	0.000000	0.000000
67.587406	22.993455	12.582338	-0.659610	0.714023	2.820203	0.000000	0.083615	0.000000	-0.003467	-0.000200	0.000000	0.000000
68.136466	23.321873	12.049431	0.064880	0.262334	2.843191	0.000000	-0.000276	0.000000	-0.003545	-0.000086	0.000000	0.000000
68.435038	23.324402	11.881463	-0.010651	0.267826	2.845420	0.000000	0.007372	0.000000	-0.003574	-0.000095	0.000000	0.000000
68.768372	23.336267	11.712935	-0.024944	0.237759	2.847909	0.000000	0.007372	0.000000	-0.003606	-0.000095	0.000000	0.000000
69.101705	23.357661	11.564451	-0.039237	0.207692	2.850398	0.000000	0.007372	0.000000	-0.003638	-0.000095	0.000000	0.000000
69.436288	23.388717	11.435569	-0.053583	0.177512	2.852896	0.000000	0.007372	0.000000	-0.003669	-0.000095	0.000000	0.000000
69.733611	23.424379	11.337982	-0.129413	0.181209	2.855117	0.000000	0.015061	0.000000	-0.003698	-0.000105	0.000000	0.000000
70.282671	23.164215	11.366143	0.600439	-0.232805	2.840216	0.000000	-0.069347	0.000000	-0.003723	0.000015	0.000000	0.000000
