#ParticleID	Turn	x[m]	xp	y[m]	yp	z[m]	dE[GeV]# s	beta_x	beta_y	alpha_x	alpha_y	D_x	D_y	D_px	D_py	orbit_x	orbit_px	orbit_y	orbit_py
0.300000	11.911336	25.023157	-0.009369	-0.028665	2.606970	0.000000	-0.002778	0.000000	-0.001307	0.001087	0.000000	0.000000
0.601250	11.924601	25.044057	-0.034662	-0.040714	2.605805	0.000000	-0.002778	0.000000	-0.000980	0.001087	0.000000	0.000000
0.898573	11.952635	25.071803	-0.030132	-0.114079	2.604656	0.000000	-0.009205	0.000000	-0.000656	0.001089	0.000000	0.000000
1.339533	12.132438	24.894290	-0.378798	0.515111	2.616350	0.000000	0.064381	0.000000	-0.000179	0.001078	0.000000	0.000000
1.780493	12.626186	24.170132	-0.744778	1.120868	2.660624	0.000000	0.138690	0.000000	0.000296	0.001080	0.000000	0.000000
2.221453	13.456447	22.932268	-1.144794	1.675629	2.737976	0.000000	0.214566	0.000000	0.000775	0.001094	0.000000	0.000000
2.662413	14.661167	21.237011	-1.597123	2.154153	2.849285	0.000000	0.292875	0.000000	0.001263	0.001120	0.000000	0.000000
3.108373	16.316246	19.136610	-2.126775	2.535843	2.997643	0.000000	0.374999	0.000000	0.001770	0.001159	0.000000	0.000000
3.657433	18.437797	16.777446	-1.713638	1.786122	3.177907	0.000000	0.282794	0.000000	0.002389	0.001092	0.000000	0.000000
4.206493	20.036104	15.167300	-1.179424	1.163625	3.306136	0.000000	0.185589	0.000000	0.002966	0.001005	0.000000	0.000000
4.755553	20.998229	14.191494	-0.561871	0.624013	3.380064	0.000000	0.085108	0.000000	0.003490	0.000900	0.000000	0.000000
5.304613	21.256172	13.780531	0.095395	0.128849	3.398386	0.000000	-0.016868	0.000000	0.003952	0.000780	0.000000	0.000000
5.603185	21.235454	13.689548	0.027642	0.141250	3.395675	0.000000	-0.008286	0.000000	0.004188	0.000790	0.000000	0.000000
5.936519	21.222262	13.603660	0.011933	0.116415	3.392650	0.000000	-0.008286	0.000000	0.004451	0.000790	0.000000	0.000000
6.269852	21.219543	13.534328	-0.003776	0.091580	3.389625	0.000000	-0.008286	0.000000	0.004714	0.000790	0.000000	0.000000
6.604435	21.227345	13.481387	-0.019544	0.066651	3.386588	0.000000	-0.008286	0.000000	0.004979	0.000790	0.000000	0.000000
6.901758	21.243150	13.448329	-0.086599	0.078237	3.383891	0.000000	0.000164	0.000000	0.005213	0.000803	0.000000	0.000000
7.450818	20.976368	13.623593	0.570006	-0.399305	3.355738	0.000000	-0.101188	0.000000	0.005607	0.000628	0.000000	0.000000
7.999878	20.006372	14.335751	1.186352	-0.905294	3.272442	0.000000	-0.200735	0.000000	0.005901	0.000442	0.000000	0.000000
8.548938	18.401687	15.635542	1.718888	-1.475779	3.135483	0.000000	-0.296714	0.000000	0.006091	0.000247	0.000000	0.000000
9.097998	16.275693	17.615566	2.129984	-2.151400	2.947295	0.000000	-0.387425	0.000000	0.006172	0.000049	0.000000	0.000000
9.543958	14.617796	19.379711	1.600563	-1.787369	2.792547	0.000000	-0.306659	0.000000	0.006229	0.000209	0.000000	0.000000
9.984918	13.409995	20.765643	1.148726	-1.343376	2.674227	0.000000	-0.229891	0.000000	0.006357	0.000372	0.000000	0.000000
10.425878	12.576166	21.731416	0.749382	-0.838248	2.589083	0.000000	-0.155745	0.000000	0.006558	0.000538	0.000000	0.000000
10.866838	12.078204	22.233078	0.384281	-0.294971	2.536141	0.000000	-0.083379	0.000000	0.006833	0.000711	0.000000	0.000000
11.309048	11.893214	22.247233	0.063781	0.210612	2.514775	0.000000	-0.017710	0.000000	0.007187	0.000875	0.000000	0.000000
11.606371	11.862750	22.126143	0.038680	0.196655	2.509250	0.000000	-0.017710	0.000000	0.007447	0.000875	0.000000	0.000000
12.086371	11.845069	21.948170	-0.001844	0.174122	2.500329	0.000000	-0.017710	0.000000	0.007867	0.000875	0.000000	0.000000
12.566371	11.866290	21.791829	-0.042367	0.151589	2.491408	0.000000	-0.017710	0.000000	0.008287	0.000875	0.000000	0.000000
13.046371	11.926413	21.657119	-0.082890	0.129056	2.482487	0.000000	-0.017710	0.000000	0.008706	0.000875	0.000000	0.000000
13.526371	12.025440	21.544040	-0.123414	0.106524	2.473567	0.000000	-0.017710	0.000000	0.009126	0.000875	0.000000	0.000000
14.007621	12.163778	21.452383	-0.164043	0.083932	2.464623	0.000000	-0.017710	0.000000	0.009547	0.000875	0.000000	0.000000
14.304943	12.268754	21.406684	-0.161921	0.022727	2.459093	0.000000	-0.023167	0.000000	0.009807	0.000852	0.000000	0.000000
14.745903	12.569338	21.152279	-0.521878	0.551927	2.463838	0.000000	0.046597	0.000000	0.010239	0.001110	0.000000	0.000000
15.186863	13.196758	20.440427	-0.905697	1.056011	2.499324	0.000000	0.116880	0.000000	0.010788	0.001381	0.000000	0.000000
15.627823	14.179711	19.303512	-1.330926	1.512036	2.565950	0.000000	0.188479	0.000000	0.011460	0.001668	0.000000	0.000000
16.068783	15.563155	17.793266	-1.817006	1.899247	2.664469	0.000000	0.262209	0.000000	0.012262	0.001974	0.000000	0.000000
16.514743	17.434044	15.956605	-2.391154	2.201056	2.797664	0.000000	0.339399	0.000000	0.013216	0.002304	0.000000	0.000000
17.063803	19.837397	13.905848	-1.958140	1.555283	2.959727	0.000000	0.253935	0.000000	0.014360	0.001857	0.000000	0.000000
17.612863	21.685780	12.499687	-1.386689	1.020326	3.073803	0.000000	0.163996	0.000000	0.015250	0.001378	0.000000	0.000000
18.161923	22.848478	11.637948	-0.717195	0.558071	3.137879	0.000000	0.071168	0.000000	0.015869	0.000873	0.000000	0.000000
18.710983	23.243258	11.259241	0.003013	0.135581	3.150828	0.000000	-0.022909	0.000000	0.016206	0.000354	0.000000	0.000000
19.009556	23.276255	11.171444	-0.061996	0.133571	3.145969	0.000000	-0.015842	0.000000	0.016324	0.000393	0.000000	0.000000
19.342889	23.322377	11.092521	-0.076372	0.103200	3.140557	0.000000	-0.015842	0.000000	0.016455	0.000393	0.000000	0.000000
19.676223	23.378084	11.033844	-0.090748	0.072830	3.135145	0.000000	-0.015842	0.000000	0.016586	0.000393	0.000000	0.000000
20.010806	23.443928	10.995172	-0.221332	0.096823	3.129733	0.000000	-0.000335	0.000000	0.016717	0.000476	0.000000	0.000000
20.308129	23.579694	10.945620	-0.287146	0.093990	3.129505	0.000000	0.006634	0.000000	0.016859	0.000517	0.000000	0.000000
20.857189	23.488529	11.064127	0.452324	-0.311047	3.107385	0.000000	-0.086605	0.000000	0.016992	-0.000032	0.000000	0.000000
21.406249	22.597764	11.637010	1.159820	-0.738250	3.034695	0.000000	-0.178307	0.000000	0.016824	-0.000580	0.000000	0.000000
21.955309	20.970389	12.705089	1.785321	-1.218060	2.912723	0.000000	-0.266855	0.000000	0.016357	-0.001117	0.000000	0.000000
22.504369	18.721489	14.344463	2.284603	-1.784666	2.743627	0.000000	-0.350685	0.000000	0.015600	-0.001635	0.000000	0.000000
22.950329	16.950762	15.816459	1.698034	-1.501176	2.604769	0.000000	-0.274957	0.000000	0.014960	-0.001239	0.000000	0.000000
23.391289	15.679775	16.990468	1.194125	-1.150523	2.499947	0.000000	-0.202842	0.000000	0.014497	-0.000859	0.000000	0.000000
23.832249	14.827709	17.830791	0.744815	-0.747501	2.426236	0.000000	-0.133029	0.000000	0.014200	-0.000489	0.000000	0.000000
24.273209	14.355592	18.299185	0.329560	-0.310456	2.382798	0.000000	-0.064726	0.000000	0.014065	-0.000125	0.000000	0.000000
24.715418	14.242018	18.373972	-0.040614	0.101755	2.369143	0.000000	-0.002168	0.000000	0.014091	0.000206	0.000000	0.000000
25.012741	14.272386	18.318325	-0.061525	0.085405	2.368437	0.000000	-0.002168	0.000000	0.014152	0.000206	0.000000	0.000000
25.346075	14.321217	18.267498	-0.084969	0.067076	2.367646	0.000000	-0.002168	0.000000	0.014221	0.000206	0.000000	0.000000
25.679408	14.385678	18.228891	-0.108412	0.048747	2.366855	0.000000	-0.002168	0.000000	0.014289	0.000206	0.000000	0.000000
26.013991	14.465804	18.202796	-0.014588	-0.117322	2.366036	0.000000	-0.021363	0.000000	0.014358	0.000090	0.000000	0.000000
26.311314	14.480502	18.277595	-0.004647	-0.172362	2.359651	0.000000	-0.026333	0.000000	0.014385	0.000057	0.000000	0.000000
26.752274	14.663658	18.231408	-0.412099	0.276683	2.362747	0.000000	0.040853	0.000000	0.014492	0.000429	0.000000	0.000000
27.193234	15.213222	17.793178	-0.838396	0.713136	2.395389	0.000000	0.108500	0.000000	0.014764	0.000806	0.000000	0.000000
27.634194	16.154332	16.982846	-1.303028	1.117130	2.457948	0.000000	0.177375	0.000000	0.015205	0.001193	0.000000	0.000000
28.075154	17.530039	15.837288	-1.827244	1.470277	2.551132	0.000000	0.248258	0.000000	0.015818	0.001593	0.000000	0.000000
28.521114	19.427552	14.391146	-2.440308	1.757737	2.677592	0.000000	0.322436	0.000000	0.016622	0.002014	0.000000	0.000000
29.070174	21.840875	12.780212	-1.926914	1.192849	2.831617	0.000000	0.240988	0.000000	0.017577	0.001459	0.000000	0.000000
29.619234	23.611529	11.739684	-1.277278	0.712962	2.939977	0.000000	0.155286	0.000000	0.018220	0.000879	0.000000	0.000000
30.168294	24.614280	11.195427	-0.537330	0.283882	3.000757	0.000000	0.066843	0.000000	0.018540	0.000284	0.000000	0.000000
30.717354	24.778206	11.108664	0.240609	-0.124969	3.012883	0.000000	-0.022782	0.000000	0.018531	-0.000317	0.000000	0.000000
31.015927	24.670359	11.176967	0.173951	-0.127770	3.008114	0.000000	-0.016193	0.000000	0.018450	-0.000273	0.000000	0.000000
31.349260	24.559032	11.272250	0.160030	-0.158080	3.002807	0.000000	-0.016193	0.000000	0.018359	-0.000273	0.000000	0.000000
31.682593	24.456986	11.387740	0.146110	-0.188390	2.997500	0.000000	-0.016193	0.000000	0.018268	-0.000273	0.000000	0.000000
32.017177	24.363888	11.523983	0.132138	-0.218814	2.992174	0.000000	-0.016193	0.000000	0.018177	-0.000273	0.000000	0.000000
32.314499	24.289239	11.662026	0.066340	-0.220260	2.987454	0.000000	-0.009628	0.000000	0.018096	-0.000229	0.000000	0.000000
32.863559	23.800189	12.141875	0.818502	-0.658622	2.958090	0.000000	-0.098147	0.000000	0.017810	-0.000811	0.000000	0.000000
33.412619	22.511820	13.126014	1.512785	-1.143918	2.880818	0.000000	-0.184938	0.000000	0.017208	-0.001378	0.000000	0.000000
33.961679	20.515260	14.684559	2.100103	-1.710727	2.757002	0.000000	-0.268470	0.000000	0.016301	-0.001921	0.000000	0.000000
34.510739	17.951718	16.928545	2.538935	-2.399435	2.588827	0.000000	-0.347269	0.000000	0.015104	-0.002430	0.000000	0.000000
34.956699	15.959760	18.936164	1.941360	-2.082364	2.450948	0.000000	-0.275554	0.000000	0.014105	-0.002051	0.000000	0.000000
35.397659	14.474654	20.598170	1.437824	-1.671612	2.345339	0.000000	-0.207419	0.000000	0.013279	-0.001698	0.000000	0.000000
35.838619	13.403254	21.862772	1.000030	-1.184778	2.269092	0.000000	-0.141630	0.000000	0.012605	-0.001364	0.000000	0.000000
36.279579	12.696552	22.672425	0.607962	-0.644024	2.221342	0.000000	-0.077439	0.000000	0.012073	-0.001046	0.000000	0.000000
36.721789	12.321596	22.990508	0.270360	-0.123740	2.201534	0.000000	-0.018904	0.000000	0.011679	-0.000767	0.000000	0.000000
37.019112	12.168527	23.067993	0.244466	-0.136871	2.196141	0.000000	-0.018904	0.000000	0.011451	-0.000767	0.000000	0.000000
37.352445	12.015227	23.164147	0.215435	-0.151592	2.190096	0.000000	-0.018904	0.000000	0.011195	-0.000767	0.000000	0.000000
37.685779	11.881280	23.270115	0.186405	-0.166312	2.184050	0.000000	-0.018904	0.000000	0.010940	-0.000767	0.000000	0.000000
38.020362	11.766293	23.386350	0.157266	-0.181088	2.177982	0.000000	-0.018904	0.000000	0.010683	-0.000767	0.000000	0.000000
38.317684	11.680437	23.498013	0.157110	-0.246250	2.172586	0.000000	-0.023691	0.000000	0.010455	-0.000791	0.000000	0.000000
38.758644	11.691306	23.454949	-0.182068	0.343523	2.176167	0.000000	0.038670	0.000000	0.010165	-0.000526	0.000000	0.000000
39.199604	12.003907	22.896613	-0.529564	0.917660	2.207210	0.000000	0.101477	0.000000	0.009990	-0.000266	0.000000	0.000000
39.640564	12.632528	21.848418	-0.901263	1.450031	2.266072	0.000000	0.165443	0.000000	0.009930	-0.000009	0.000000	0.000000
40.081524	13.605903	20.358070	-1.314156	1.916408	2.353423	0.000000	0.231295	0.000000	0.009982	0.000248	0.000000	0.000000
40.527484	14.986171	18.470744	-1.791117	2.297088	2.471736	0.000000	0.300209	0.000000	0.010151	0.000509	0.000000	0.000000
41.076544	16.749587	16.350112	-1.400940	1.587442	2.616141	0.000000	0.225609	0.000000	0.010340	0.000177	0.000000	0.000000
41.625604	18.027154	14.942549	-0.911761	0.990899	2.718596	0.000000	0.147008	0.000000	0.010345	-0.000158	0.000000	0.000000
42.174664	18.728577	14.147773	-0.358155	0.464957	2.777284	0.000000	0.065797	0.000000	0.010167	-0.000491	0.000000	0.000000
42.723724	18.804286	13.909153	0.220752	-0.027856	2.791159	0.000000	-0.016590	0.000000	0.009808	-0.000814	0.000000	0.000000
43.022297	18.704161	13.912265	0.159399	-0.015880	2.788431	0.000000	-0.009913	0.000000	0.009572	-0.000790	0.000000	0.000000
43.502297	18.563770	13.944075	0.133084	-0.050390	2.784052	0.000000	-0.009913	0.000000	0.009193	-0.000790	0.000000	0.000000
43.982297	18.448640	14.009015	0.106769	-0.084901	2.779673	0.000000	-0.009913	0.000000	0.008814	-0.000790	0.000000	0.000000
44.462297	18.358773	14.107085	0.080454	-0.119412	2.775294	0.000000	-0.009913	0.000000	0.008435	-0.000790	0.000000	0.000000
44.942297	18.294168	14.238286	0.054139	-0.153922	2.770914	0.000000	-0.009913	0.000000	0.008056	-0.000790	0.000000	0.000000
45.423547	18.254982	14.402909	-0.062689	-0.117162	2.766541	0.000000	0.003794	0.000000	0.007676	-0.000752	0.000000	0.000000
45.720870	18.297152	14.478777	-0.123806	-0.102821	2.767895	0.000000	0.010566	0.000000	0.007452	-0.000733	0.000000	0.000000
46.269930	18.124700	14.872082	0.435556	-0.617657	2.751721	0.000000	-0.071023	0.000000	0.006985	-0.000967	0.000000	0.000000
46.818990	17.351235	15.851490	0.964126	-1.176492	2.691141	0.000000	-0.151368	0.000000	0.006394	-0.001183	0.000000	0.000000
47.368050	16.031438	17.486758	1.424556	-1.819135	2.587221	0.000000	-0.229046	0.000000	0.005689	-0.001379	0.000000	0.000000
47.917110	14.258592	19.894359	1.784314	-2.591365	2.441796	0.000000	-0.302684	0.000000	0.004884	-0.001551	0.000000	0.000000
48.363070	12.878409	22.035099	1.320727	-2.188469	2.322691	0.000000	-0.234585	0.000000	0.004219	-0.001432	0.000000	0.000000
48.804030	11.893213	23.750821	0.921337	-1.687383	2.234255	0.000000	-0.169553	0.000000	0.003610	-0.001332	0.000000	0.000000
49.244990	11.240470	24.988914	0.564057	-1.109519	2.174009	0.000000	-0.106437	0.000000	0.003043	-0.001246	0.000000	0.000000
49.685950	10.890339	25.693054	0.232560	-0.481173	2.141272	0.000000	-0.044520	0.000000	0.002509	-0.001174	0.000000	0.000000
50.128160	10.826968	25.830940	-0.062375	0.107286	2.135693	0.000000	0.011765	0.000000	0.002004	-0.001121	0.000000	0.000000
50.425482	10.872256	25.770605	-0.089944	0.095643	2.139525	0.000000	0.011765	0.000000	0.001670	-0.001121	0.000000	0.000000
50.758816	10.942521	25.711194	-0.120851	0.082590	2.143820	0.000000	0.011765	0.000000	0.001297	-0.001121	0.000000	0.000000
51.092149	11.033390	25.660485	-0.151758	0.069537	2.148115	0.000000	0.011765	0.000000	0.000923	-0.001121	0.000000	0.000000
51.426732	11.145096	25.618856	-0.092365	-0.151398	2.152405	0.000000	-0.005697	0.000000	0.000548	-0.001125	0.000000	0.000000
51.724055	11.208020	25.712414	-0.091840	-0.226610	2.151045	0.000000	-0.010961	0.000000	0.000213	-0.001126	0.000000	0.000000
52.165015	11.435048	25.626194	-0.425325	0.421394	2.160323	0.000000	0.050901	0.000000	-0.000283	-0.001127	0.000000	0.000000
52.605975	11.963594	24.974797	-0.778234	1.050220	2.196988	0.000000	0.113356	0.000000	-0.000782	-0.001141	0.000000	0.000000
53.046935	12.817795	23.787872	-1.166688	1.631258	2.261460	0.000000	0.177113	0.000000	-0.001291	-0.001167	0.000000	0.000000
53.487895	14.036664	22.119434	-1.608432	2.138075	2.354480	0.000000	0.242900	0.000000	-0.001814	-0.001207	0.000000	0.000000
53.933855	15.696724	20.020427	-2.127874	2.548903	2.478645	0.000000	0.311861	0.000000	-0.002364	-0.001261	0.000000	0.000000
54.482915	17.833769	17.658431	-1.742000	1.778542	2.630174	0.000000	0.236954	0.000000	-0.003033	-0.001174	0.000000	0.000000
55.031975	19.476607	16.068261	-1.233117	1.134857	2.739300	0.000000	0.157826	0.000000	-0.003649	-0.001066	0.000000	0.000000
55.581035	20.509247	15.136643	-0.637168	0.572003	2.804081	0.000000	0.075881	0.000000	-0.004200	-0.000939	0.000000	0.000000
56.130095	20.858790	14.797210	0.003761	0.049891	2.823359	0.000000	-0.007425	0.000000	-0.004677	-0.000795	0.000000	0.000000
56.428668	20.894622	14.749421	-0.067205	0.069874	2.823670	0.000000	0.000238	0.000000	-0.004918	-0.000807	0.000000	0.000000
56.762001	20.944767	14.710408	-0.083230	0.047164	2.824018	0.000000	0.000238	0.000000	-0.005187	-0.000807	0.000000	0.000000
57.095334	21.005596	14.686536	-0.099255	0.024454	2.824366	0.000000	0.000238	0.000000	-0.005456	-0.000807	0.000000	0.000000
57.429918	21.077396	14.677799	-0.115340	0.001659	2.824716	0.000000	0.000238	0.000000	-0.005726	-0.000807	0.000000	0.000000
57.727240	21.150254	14.682820	-0.187612	0.021483	2.825028	0.000000	0.007982	0.000000	-0.005966	-0.000823	0.000000	0.000000
58.276300	20.994862	14.941021	0.468541	-0.494560	2.806878	0.000000	-0.075392	0.000000	-0.006364	-0.000624	0.000000	0.000000
58.825360	20.133066	15.781742	1.091593	-1.045820	2.743145	0.000000	-0.157440	0.000000	-0.006649	-0.000413	0.000000	0.000000
59.374420	18.625730	17.264847	1.637555	-1.671555	2.634953	0.000000	-0.236702	0.000000	-0.006816	-0.000195	0.000000	0.000000
59.923480	16.579291	19.495954	2.067877	-2.416327	2.484218	0.000000	-0.311769	0.000000	-0.006862	0.000027	0.000000	0.000000
60.369440	14.976344	21.478998	1.539349	-2.011800	2.360684	0.000000	-0.242681	0.000000	-0.006889	-0.000151	0.000000	0.000000
60.810400	13.823452	23.040830	1.085234	-1.516964	2.268410	0.000000	-0.176736	0.000000	-0.006995	-0.000330	0.000000	0.000000
61.251360	13.047701	24.134089	0.680687	-0.953123	2.204820	0.000000	-0.112799	0.000000	-0.007181	-0.000513	0.000000	0.000000
61.692320	12.613660	24.709046	0.307234	-0.345926	2.169192	0.000000	-0.050142	0.000000	-0.007449	-0.000702	0.000000	0.000000
62.134530	12.501574	24.738976	-0.019406	0.212221	2.161132	0.000000	0.006269	0.000000	-0.007802	-0.000878	0.000000	0.000000
62.431853	12.520187	24.616513	-0.043198	0.199662	2.163258	0.000000	0.006269	0.000000	-0.008063	-0.000878	0.000000	0.000000
62.765186	12.557877	24.488099	-0.069871	0.185581	2.165640	0.000000	0.006269	0.000000	-0.008356	-0.000878	0.000000	0.000000
63.098520	12.613349	24.369072	-0.096544	0.171500	2.168023	0.000000	0.006269	0.000000	-0.008649	-0.000878	0.000000	0.000000
63.433103	12.686911	24.259039	-0.123318	0.157366	2.170414	0.000000	0.006269	0.000000	-0.008943	-0.000878	0.000000	0.000000
63.730426	12.767284	24.169256	-0.113144	0.080203	2.172537	0.000000	0.000490	0.000000	-0.009204	-0.000855	0.000000	0.000000
64.171386	13.028900	23.832287	-0.482831	0.681163	2.186926	0.000000	0.062957	0.000000	-0.009634	-0.001098	0.000000	0.000000
64.612346	13.624906	22.977087	-0.874559	1.251135	2.229098	0.000000	0.126153	0.000000	-0.010174	-0.001353	0.000000	0.000000
65.053306	14.582503	21.642569	-1.306214	1.764194	2.299537	0.000000	0.190799	0.000000	-0.010829	-0.001624	0.000000	0.000000
65.494266	15.945398	19.889447	-1.797503	2.197003	2.399050	0.000000	0.257636	0.000000	-0.011608	-0.001913	0.000000	0.000000
65.940226	17.799190	17.772505	-2.375270	2.530406	2.530404	0.000000	0.327791	0.000000	-0.012530	-0.002226	0.000000	0.000000
66.489286	20.173323	15.404087	-1.925015	1.809438	2.690598	0.000000	0.251094	0.000000	-0.013637	-0.001802	0.000000	0.000000
67.038346	21.975195	13.752298	-1.338902	1.217312	2.807158	0.000000	0.169915	0.000000	-0.014502	-0.001346	0.000000	0.000000
67.587406	23.077681	12.699502	-0.658303	0.711862	2.878005	0.000000	0.085702	0.000000	-0.015110	-0.000866	0.000000	0.000000
68.136466	23.403012	12.170721	0.068745	0.257098	2.901877	0.000000	-0.000045	0.000000	-0.015451	-0.000371	0.000000	0.000000
68.435038	23.406657	12.003850	-0.012757	0.266272	2.904522	0.000000	0.008479	0.000000	-0.015574	-0.000414	0.000000	0.000000
68.768372	23.419909	11.836247	-0.027000	0.236535	2.907487	0.000000	0.008479	0.000000	-0.015712	-0.000414	0.000000	0.000000
69.101705	23.442657	11.688470	-0.041244	0.206797	2.910451	0.000000	0.008479	0.000000	-0.015850	-0.000414	0.000000	0.000000
69.436288	23.475039	11.560076	-0.055540	0.176948	2.913427	0.000000	0.008479	0.000000	-0.015989	-0.000414	0.000000	0.000000
69.733611	23.512023	11.462654	-0.137612	0.184171	2.916082	0.000000	0.017083	0.000000	-0.016112	-0.000459	0.000000	0.000000
70.282671	23.259321	11.489426	0.595107	-0.233231	2.901840	0.000000	-0.069278	0.000000	-0.016221	0.000065	0.000000	0.000000
