#ParticleID	Turn	x[m]	xp	y[m]	yp	z[m]	dE[GeV]# s	beta_x	beta_y	alpha_x	alpha_y	D_x	D_y	D_px	D_py	orbit_x	orbit_px	orbit_y	orbit_py
0.300000	11.919407	25.060656	-0.010393	-0.027887	2.605676	0.000000	-0.002493	0.000000	-0.001298	0.001083	0.000000	0.000000
0.601250	11.933283	25.081081	-0.035670	-0.039917	2.604599	0.000000	-0.002493	0.000000	-0.000971	0.001083	0.000000	0.000000
0.898573	11.961911	25.108348	-0.031103	-0.113352	2.603536	0.000000	-0.008917	0.000000	-0.000650	0.001084	0.000000	0.000000
1.339533	12.142670	24.929770	-0.380005	0.516790	2.615353	0.000000	0.064642	0.000000	-0.000174	0.001074	0.000000	0.000000
1.780493	12.637606	24.203738	-0.746277	1.123421	2.659738	0.000000	0.138926	0.000000	0.000299	0.001075	0.000000	0.000000
2.221453	13.469342	22.963278	-1.146653	1.678942	2.737192	0.000000	0.214781	0.000000	0.000776	0.001089	0.000000	0.000000
2.662413	14.675891	21.264818	-1.599427	2.158074	2.848593	0.000000	0.293071	0.000000	0.001261	0.001115	0.000000	0.000000
3.108373	16.333263	19.160714	-2.129635	2.540193	2.997037	0.000000	0.375179	0.000000	0.001767	0.001155	0.000000	0.000000
3.657433	18.457733	16.797347	-1.716065	1.789472	3.177406	0.000000	0.282991	0.000000	0.002384	0.001087	0.000000	0.000000
4.206493	20.058388	15.183960	-1.181248	1.166213	3.305750	0.000000	0.185800	0.000000	0.002958	0.001001	0.000000	0.000000
4.755553	21.022121	14.205643	-0.562963	0.626024	3.379799	0.000000	0.085330	0.000000	0.003479	0.000897	0.000000	0.000000
5.304613	21.280823	13.792722	0.095113	0.130426	3.398247	0.000000	-0.016640	0.000000	0.003939	0.000776	0.000000	0.000000
5.603185	21.260310	13.700774	0.027308	0.142871	3.395606	0.000000	-0.008057	0.000000	0.004174	0.000786	0.000000	0.000000
5.936519	21.247334	13.613803	0.011618	0.118044	3.392658	0.000000	-0.008057	0.000000	0.004436	0.000786	0.000000	0.000000
6.269852	21.244819	13.543382	-0.004072	0.093218	3.389710	0.000000	-0.008057	0.000000	0.004699	0.000786	0.000000	0.000000
6.604435	21.252813	13.489341	-0.019821	0.068299	3.386752	0.000000	-0.008057	0.000000	0.004962	0.000786	0.000000	0.000000
6.901758	21.268778	13.455300	-0.086933	0.079915	3.384124	0.000000	0.000395	0.000000	0.005196	0.000800	0.000000	0.000000
7.450818	21.001889	13.628818	0.570532	-0.397783	3.356098	0.000000	-0.100967	0.000000	0.005587	0.000625	0.000000	0.000000
7.999878	20.030856	14.339341	1.187701	-0.903822	3.272921	0.000000	-0.200527	0.000000	0.005880	0.000439	0.000000	0.000000
8.548938	18.424278	15.637493	1.720965	-1.474250	3.136073	0.000000	-0.296523	0.000000	0.006068	0.000246	0.000000	0.000000
9.097998	16.295668	17.615757	2.132642	-2.149706	2.947985	0.000000	-0.387254	0.000000	0.006149	0.000048	0.000000	0.000000
9.543958	14.635669	19.378318	1.602636	-1.785525	2.793317	0.000000	-0.306470	0.000000	0.006206	0.000208	0.000000	0.000000
9.984918	13.426260	20.762588	1.150313	-1.341468	2.675086	0.000000	-0.229681	0.000000	0.006333	0.000370	0.000000	0.000000
10.425878	12.591218	21.726682	0.750555	-0.836363	2.590040	0.000000	-0.155511	0.000000	0.006532	0.000535	0.000000	0.000000
10.866838	12.092384	22.226722	0.385094	-0.293195	2.537209	0.000000	-0.083119	0.000000	0.006806	0.000707	0.000000	0.000000
11.309048	11.906820	22.239384	0.064309	0.212203	2.515965	0.000000	-0.017426	0.000000	0.007159	0.000870	0.000000	0.000000
11.606371	11.876034	22.117353	0.039235	0.198232	2.510525	0.000000	-0.017426	0.000000	0.007417	0.000870	0.000000	0.000000
12.086371	11.857799	21.937877	-0.001245	0.175677	2.501743	0.000000	-0.017426	0.000000	0.007835	0.000870	0.000000	0.000000
12.566371	11.878425	21.780054	-0.041725	0.153121	2.492960	0.000000	-0.017426	0.000000	0.008253	0.000870	0.000000	0.000000
13.046371	11.937911	21.643884	-0.082205	0.130566	2.484178	0.000000	-0.017426	0.000000	0.008671	0.000870	0.000000	0.000000
13.526371	12.036257	21.529367	-0.122684	0.108011	2.475395	0.000000	-0.017426	0.000000	0.009089	0.000870	0.000000	0.000000
14.007621	12.173873	21.436289	-0.163270	0.085397	2.466590	0.000000	-0.017426	0.000000	0.009508	0.000870	0.000000	0.000000
14.304943	12.278381	21.389722	-0.161088	0.024193	2.461146	0.000000	-0.022890	0.000000	0.009767	0.000848	0.000000	0.000000
14.745903	12.578316	21.134236	-0.521236	0.552906	2.466028	0.000000	0.046929	0.000000	0.010197	0.001105	0.000000	0.000000
15.186863	13.205243	20.421753	-0.905218	1.056458	2.501675	0.000000	0.117270	0.000000	0.010743	0.001375	0.000000	0.000000
15.627823	14.187835	19.284687	-1.330587	1.511931	2.568489	0.000000	0.188932	0.000000	0.011412	0.001661	0.000000	0.000000
16.068783	15.571033	17.774778	-1.816793	1.898595	2.667226	0.000000	0.262730	0.000000	0.012211	0.001965	0.000000	0.000000
16.514743	17.441779	15.938938	-2.391054	2.199881	2.800674	0.000000	0.339995	0.000000	0.013160	0.002294	0.000000	0.000000
17.063803	19.844824	13.889198	-1.957690	1.554598	2.963041	0.000000	0.254429	0.000000	0.014299	0.001849	0.000000	0.000000
17.612863	21.692531	12.483546	-1.385921	1.020081	3.077361	0.000000	0.164378	0.000000	0.015185	0.001372	0.000000	0.000000
18.161923	22.854232	11.621844	-0.716163	0.558250	3.141619	0.000000	0.071432	0.000000	0.015801	0.000869	0.000000	0.000000
18.710983	23.247765	11.242703	0.004234	0.136196	3.154680	0.000000	-0.022767	0.000000	0.016137	0.000352	0.000000	0.000000
19.009556	23.280062	11.154563	-0.060819	0.134122	3.149868	0.000000	-0.015686	0.000000	0.016254	0.000391	0.000000	0.000000
19.342889	23.325398	11.075288	-0.075190	0.103702	3.144509	0.000000	-0.015686	0.000000	0.016384	0.000391	0.000000	0.000000
19.676223	23.380316	11.016294	-0.089562	0.073281	3.139149	0.000000	-0.015686	0.000000	0.016515	0.000391	0.000000	0.000000
20.010806	23.445364	10.977337	-0.220148	0.097135	3.133789	0.000000	-0.000160	0.000000	0.016646	0.000474	0.000000	0.000000
20.308129	23.580423	10.927615	-0.285997	0.094234	3.133614	0.000000	0.006824	0.000000	0.016786	0.000514	0.000000	0.000000
20.857189	23.487990	11.045576	0.453470	-0.310293	3.111563	0.000000	-0.086549	0.000000	0.016919	-0.000032	0.000000	0.000000
21.406249	22.596007	11.617328	1.160882	-0.736932	3.038865	0.000000	-0.178387	0.000000	0.016751	-0.000578	0.000000	0.000000
21.955309	20.967549	12.683608	1.786224	-1.216085	2.916811	0.000000	-0.267068	0.000000	0.016287	-0.001113	0.000000	0.000000
22.504369	18.717779	14.320387	2.285285	-1.781892	2.747560	0.000000	-0.351028	0.000000	0.015533	-0.001628	0.000000	0.000000
22.950329	16.946446	15.790164	1.698726	-1.499003	2.608569	0.000000	-0.275200	0.000000	0.014895	-0.001234	0.000000	0.000000
23.391289	15.674834	16.962555	1.194859	-1.149044	2.503659	0.000000	-0.202988	0.000000	0.014434	-0.000856	0.000000	0.000000
23.832249	14.822092	17.801905	0.745624	-0.746785	2.429904	0.000000	-0.133080	0.000000	0.014139	-0.000487	0.000000	0.000000
24.273209	14.349217	18.270017	0.330479	-0.310535	2.386464	0.000000	-0.064683	0.000000	0.014004	-0.000124	0.000000	0.000000
24.715418	14.234764	18.345226	-0.039535	0.100918	2.372849	0.000000	-0.002041	0.000000	0.014029	0.000205	0.000000	0.000000
25.012741	14.264493	18.290084	-0.060455	0.084546	2.372182	0.000000	-0.002041	0.000000	0.014090	0.000205	0.000000	0.000000
25.346075	14.312614	18.239838	-0.083908	0.066191	2.371433	0.000000	-0.002041	0.000000	0.014158	0.000205	0.000000	0.000000
25.679408	14.376370	18.201830	-0.107361	0.047836	2.370684	0.000000	-0.002041	0.000000	0.014227	0.000205	0.000000	0.000000
26.013991	14.455796	18.176353	-0.013628	-0.118044	2.369909	0.000000	-0.021267	0.000000	0.014295	0.000089	0.000000	0.000000
26.311314	14.469929	18.251588	-0.003700	-0.173086	2.363552	0.000000	-0.026249	0.000000	0.014322	0.000056	0.000000	0.000000
26.752274	14.652132	18.206349	-0.410878	0.275267	2.366708	0.000000	0.041038	0.000000	0.014428	0.000427	0.000000	0.000000
27.193234	15.200475	17.769652	-0.836843	0.711090	2.399456	0.000000	0.108789	0.000000	0.014699	0.000803	0.000000	0.000000
27.634194	16.140042	16.961369	-1.301073	1.114549	2.462167	0.000000	0.177770	0.000000	0.015137	0.001187	0.000000	0.000000
28.075154	17.513812	15.818284	-1.824797	1.467277	2.555552	0.000000	0.248764	0.000000	0.015748	0.001585	0.000000	0.000000
28.521114	19.408871	14.374960	-2.437250	1.754453	2.682268	0.000000	0.323061	0.000000	0.016548	0.002004	0.000000	0.000000
29.070174	21.819072	12.767242	-1.924333	1.190245	2.836597	0.000000	0.241456	0.000000	0.017499	0.001453	0.000000	0.000000
29.619234	23.587234	11.729289	-1.275357	0.710852	2.945172	0.000000	0.155589	0.000000	0.018139	0.000875	0.000000	0.000000
30.168294	24.588300	11.187149	-0.536205	0.282115	3.006073	0.000000	0.066976	0.000000	0.018458	0.000282	0.000000	0.000000
30.717354	24.751466	11.102196	0.240857	-0.126518	3.018225	0.000000	-0.022822	0.000000	0.018448	-0.000316	0.000000	0.000000
31.015927	24.643473	11.171425	0.174194	-0.129335	3.013449	0.000000	-0.016215	0.000000	0.018367	-0.000272	0.000000	0.000000
31.349260	24.531989	11.267761	0.160257	-0.159672	3.008135	0.000000	-0.016215	0.000000	0.018277	-0.000272	0.000000	0.000000
31.682593	24.429796	11.384321	0.146321	-0.190009	3.002820	0.000000	-0.016215	0.000000	0.018186	-0.000272	0.000000	0.000000
32.017177	24.336564	11.521657	0.132332	-0.220460	2.997486	0.000000	-0.016215	0.000000	0.018095	-0.000272	0.000000	0.000000
32.314499	24.261800	11.660687	0.066533	-0.221910	2.992760	0.000000	-0.009632	0.000000	0.018015	-0.000228	0.000000	0.000000
32.863559	23.773043	12.142368	0.817782	-0.660328	2.963345	0.000000	-0.098323	0.000000	0.017730	-0.000807	0.000000	0.000000
33.412619	22.485948	13.128465	1.511205	-1.145800	2.885928	0.000000	-0.185282	0.000000	0.017131	-0.001372	0.000000	0.000000
33.961679	20.491554	14.689234	2.097774	-1.712920	2.761875	0.000000	-0.268975	0.000000	0.016227	-0.001913	0.000000	0.000000
34.510739	17.930914	16.935866	2.536022	-2.402094	2.593376	0.000000	-0.347926	0.000000	0.015036	-0.002419	0.000000	0.000000
34.956699	15.941270	18.945868	1.939081	-2.085032	2.455225	0.000000	-0.276097	0.000000	0.014041	-0.002042	0.000000	0.000000
35.397659	14.457941	20.610184	1.436066	-1.674164	2.349397	0.000000	-0.207855	0.000000	0.013219	-0.001691	0.000000	0.000000
35.838619	13.387894	21.876942	0.998715	-1.187099	2.272977	0.000000	-0.141963	0.000000	0.012547	-0.001359	0.000000	0.000000
36.279579	12.682182	22.688499	0.607027	-0.646006	2.225101	0.000000	-0.077674	0.000000	0.012018	-0.001042	0.000000	0.000000
36.721789	12.307900	23.008152	0.269750	-0.125364	2.205208	0.000000	-0.019054	0.000000	0.011626	-0.000764	0.000000	0.000000
37.019112	12.155200	23.086602	0.243835	-0.138490	2.199770	0.000000	-0.019054	0.000000	0.011399	-0.000764	0.000000	0.000000
37.352445	12.002328	23.183834	0.214781	-0.153205	2.193673	0.000000	-0.019054	0.000000	0.011144	-0.000764	0.000000	0.000000
37.685779	11.868824	23.290876	0.185728	-0.167921	2.187577	0.000000	-0.019054	0.000000	0.010889	-0.000764	0.000000	0.000000
38.020362	11.754299	23.408185	0.156565	-0.182691	2.181457	0.000000	-0.019054	0.000000	0.010634	-0.000764	0.000000	0.000000
38.317684	11.668866	23.520799	0.156377	-0.247926	2.176016	0.000000	-0.023851	0.000000	0.010407	-0.000788	0.000000	0.000000
38.758644	11.680268	23.478941	-0.182547	0.342475	2.179544	0.000000	0.038598	0.000000	0.010118	-0.000524	0.000000	0.000000
39.199604	11.993188	22.921234	-0.529810	0.917286	2.210574	0.000000	0.101492	0.000000	0.009944	-0.000265	0.000000	0.000000
39.640564	12.621927	21.873064	-0.901287	1.450349	2.269461	0.000000	0.165545	0.000000	0.009884	-0.000009	0.000000	0.000000
40.081524	13.595226	20.382135	-1.313959	1.917404	2.356877	0.000000	0.231484	0.000000	0.009936	0.000246	0.000000	0.000000
40.527484	14.975213	18.493634	-1.790689	2.298720	2.475295	0.000000	0.300490	0.000000	0.010104	0.000506	0.000000	0.000000
41.076544	16.738388	16.371594	-1.400934	1.588394	2.619823	0.000000	0.225772	0.000000	0.010291	0.000176	0.000000	0.000000
41.625604	18.016181	14.963328	-0.912178	0.991238	2.722336	0.000000	0.147051	0.000000	0.010296	-0.000158	0.000000	0.000000
42.174664	18.718281	14.168502	-0.358965	0.464708	2.781013	0.000000	0.065719	0.000000	0.010118	-0.000489	0.000000	0.000000
42.723724	18.795071	13.930485	0.219605	-0.028711	2.794811	0.000000	-0.016787	0.000000	0.009761	-0.000811	0.000000	0.000000
43.022297	18.695632	13.934059	0.158252	-0.016636	2.792027	0.000000	-0.010099	0.000000	0.009526	-0.000786	0.000000	0.000000
43.502297	18.556342	13.966569	0.131935	-0.051094	2.787557	0.000000	-0.010099	0.000000	0.009149	-0.000786	0.000000	0.000000
43.982297	18.442316	14.032159	0.105617	-0.085551	2.783087	0.000000	-0.010099	0.000000	0.008771	-0.000786	0.000000	0.000000
44.462297	18.353556	14.130828	0.079300	-0.120009	2.778617	0.000000	-0.010099	0.000000	0.008394	-0.000786	0.000000	0.000000
44.942297	18.290061	14.262576	0.052982	-0.154466	2.774147	0.000000	-0.010099	0.000000	0.008017	-0.000786	0.000000	0.000000
45.423547	18.251989	14.427697	-0.063834	-0.117530	2.769683	0.000000	0.003624	0.000000	0.007638	-0.000748	0.000000	0.000000
45.720870	18.294841	14.503774	-0.124965	-0.103081	2.770985	0.000000	0.010406	0.000000	0.007416	-0.000730	0.000000	0.000000
46.269930	18.123696	14.897777	0.434351	-0.618677	2.754694	0.000000	-0.071281	0.000000	0.006951	-0.000962	0.000000	0.000000
46.818990	17.351543	15.878752	0.962961	-1.178344	2.693944	0.000000	-0.151720	0.000000	0.006362	-0.001178	0.000000	0.000000
47.368050	16.032969	17.516567	1.423512	-1.821951	2.589804	0.000000	-0.229485	0.000000	0.005661	-0.001373	0.000000	0.000000
47.917110	14.261170	19.927878	1.783466	-2.595346	2.444112	0.000000	-0.303203	0.000000	0.004859	-0.001543	0.000000	0.000000
48.363070	12.881727	22.071830	1.319912	-2.191662	2.324786	0.000000	-0.235047	0.000000	0.004197	-0.001426	0.000000	0.000000
48.804030	11.897251	23.789967	0.920516	-1.689645	2.236155	0.000000	-0.169962	0.000000	0.003591	-0.001325	0.000000	0.000000
49.244990	11.245250	25.029605	0.563192	-1.110748	2.175736	0.000000	-0.106800	0.000000	0.003026	-0.001240	0.000000	0.000000
49.685950	10.895917	25.734350	0.231611	-0.481312	2.142847	0.000000	-0.044841	0.000000	0.002495	-0.001169	0.000000	0.000000
50.128160	10.833437	25.871874	-0.063432	0.108135	2.137133	0.000000	0.011479	0.000000	0.001992	-0.001116	0.000000	0.000000
50.425482	10.879349	25.811028	-0.090987	0.096508	2.140878	0.000000	0.011479	0.000000	0.001660	-0.001116	0.000000	0.000000
50.758816	10.950305	25.751034	-0.121880	0.083474	2.145076	0.000000	0.011479	0.000000	0.001288	-0.001116	0.000000	0.000000
51.092149	11.041856	25.699730	-0.152773	0.070439	2.149274	0.000000	0.011479	0.000000	0.000916	-0.001116	0.000000	0.000000
51.426732	11.154236	25.657492	-0.093291	-0.150791	2.153467	0.000000	-0.005991	0.000000	0.000542	-0.001120	0.000000	0.000000
51.724055	11.217705	25.750683	-0.092724	-0.226077	2.152018	0.000000	-0.011258	0.000000	0.000209	-0.001121	0.000000	0.000000
52.165015	11.445617	25.663548	-0.426453	0.422928	2.161169	0.000000	0.050628	0.000000	-0.000285	-0.001122	0.000000	0.000000
52.605975	11.975285	25.010381	-0.779657	1.052686	2.197715	0.000000	0.113102	0.000000	-0.000782	-0.001136	0.000000	0.000000
53.046935	12.830895	23.820910	-1.168472	1.634545	2.262077	0.000000	0.176877	0.000000	-0.001288	-0.001162	0.000000	0.000000
53.487895	14.051526	22.149266	-1.610658	2.142031	2.354995	0.000000	0.242679	0.000000	-0.001809	-0.001202	0.000000	0.000000
53.933855	15.713809	20.046495	-2.130649	2.553351	2.479061	0.000000	0.311652	0.000000	-0.002357	-0.001256	0.000000	0.000000
54.482915	17.853674	17.680216	-1.744330	1.781939	2.630469	0.000000	0.236733	0.000000	-0.003024	-0.001169	0.000000	0.000000
55.031975	19.498751	16.086778	-1.234839	1.137447	2.739470	0.000000	0.157597	0.000000	-0.003637	-0.001061	0.000000	0.000000
55.581035	20.532890	15.152674	-0.638159	0.573969	2.804122	0.000000	0.075649	0.000000	-0.004186	-0.000935	0.000000	0.000000
56.130095	20.883087	14.811360	0.003570	0.051372	2.823270	0.000000	-0.007656	0.000000	-0.004660	-0.000791	0.000000	0.000000
56.428668	20.919063	14.762663	-0.067437	0.071402	2.823511	0.000000	0.000005	0.000000	-0.004900	-0.000804	0.000000	0.000000
56.762001	20.969357	14.722627	-0.083444	0.048707	2.823781	0.000000	0.000005	0.000000	-0.005168	-0.000804	0.000000	0.000000
57.095334	21.030322	14.697720	-0.099451	0.026013	2.824050	0.000000	0.000005	0.000000	-0.005436	-0.000804	0.000000	0.000000
57.429918	21.102247	14.687935	-0.115518	0.003233	2.824321	0.000000	0.000005	0.000000	-0.005705	-0.000804	0.000000	0.000000
57.727240	21.175207	14.692016	-0.187832	0.023090	2.824563	0.000000	0.007747	0.000000	-0.005944	-0.000820	0.000000	0.000000
58.276300	21.019597	14.948585	0.469156	-0.493175	2.806287	0.000000	-0.075610	0.000000	-0.006340	-0.000621	0.000000	0.000000
58.825360	20.156685	15.787861	1.093000	-1.044559	2.742438	0.000000	-0.157637	0.000000	-0.006623	-0.000411	0.000000	0.000000
59.374420	18.647413	17.269609	1.639654	-1.670327	2.634144	0.000000	-0.236874	0.000000	-0.006789	-0.000193	0.000000	0.000000
59.923480	16.598354	19.499347	2.070520	-2.415046	2.483321	0.000000	-0.311914	0.000000	-0.006835	0.000027	0.000000	0.000000
60.369440	14.993313	21.481142	1.541422	-2.010292	2.359716	0.000000	-0.242850	0.000000	-0.006862	-0.000150	0.000000	0.000000
60.810400	13.838806	23.041571	1.086836	-1.515301	2.267362	0.000000	-0.176931	0.000000	-0.006967	-0.000329	0.000000	0.000000
61.251360	13.061821	24.133324	0.681893	-0.951381	2.203679	0.000000	-0.113022	0.000000	-0.007152	-0.000510	0.000000	0.000000
61.692320	12.626872	24.706739	0.308098	-0.344184	2.167945	0.000000	-0.050395	0.000000	-0.007418	-0.000698	0.000000	0.000000
62.134530	12.514158	24.735158	-0.018820	0.213910	2.159764	0.000000	0.005987	0.000000	-0.007770	-0.000874	0.000000	0.000000
62.431853	12.532415	24.611694	-0.042587	0.201340	2.161804	0.000000	0.005987	0.000000	-0.008030	-0.000874	0.000000	0.000000
62.765186	12.569689	24.482165	-0.069233	0.187247	2.164092	0.000000	0.005987	0.000000	-0.008322	-0.000874	0.000000	0.000000
63.098520	12.624726	24.362031	-0.095879	0.173154	2.166379	0.000000	0.005987	0.000000	-0.008613	-0.000874	0.000000	0.000000
63.433103	12.697834	24.250895	-0.122625	0.159009	2.168674	0.000000	0.005987	0.000000	-0.008906	-0.000874	0.000000	0.000000
63.730426	12.777788	24.160138	-0.112410	0.081881	2.170712	0.000000	0.000214	0.000000	-0.009166	-0.000851	0.000000	0.000000
64.171386	13.038857	23.821809	-0.482319	0.682557	2.184968	0.000000	0.062633	0.000000	-0.009594	-0.001093	0.000000	0.000000
64.612346	13.634501	22.965528	-0.874245	1.252182	2.226982	0.000000	0.125776	0.000000	-0.010131	-0.001347	0.000000	0.000000
65.053306	14.591906	21.630257	-1.306084	1.764846	2.297240	0.000000	0.190366	0.000000	-0.010783	-0.001616	0.000000	0.000000
65.494266	15.954767	19.876745	-1.797553	2.197230	2.396546	0.000000	0.257140	0.000000	-0.011559	-0.001904	0.000000	0.000000
65.940226	17.808686	17.759797	-2.375502	2.530195	2.527660	0.000000	0.327228	0.000000	-0.012477	-0.002216	0.000000	0.000000
66.489286	20.182867	15.391456	-1.924860	1.809502	2.687566	0.000000	0.250625	0.000000	-0.013579	-0.001794	0.000000	0.000000
67.038346	21.984363	13.739444	-1.338371	1.217654	2.803892	0.000000	0.169548	0.000000	-0.014440	-0.001340	0.000000	0.000000
67.587406	23.086078	12.686107	-0.657433	0.712508	2.874564	0.000000	0.085443	0.000000	-0.015046	-0.000862	0.000000	0.000000
68.136466	23.410296	12.156429	0.069893	0.258094	2.898323	0.000000	-0.000191	0.000000	-0.015385	-0.000370	0.000000	0.000000
68.435038	23.413249	11.989010	-0.011595	0.267165	2.900920	0.000000	0.008319	0.000000	-0.015508	-0.000412	0.000000	0.000000
68.768372	23.425725	11.820829	-0.025834	0.237377	2.903830	0.000000	0.008319	0.000000	-0.015645	-0.000412	0.000000	0.000000
69.101705	23.447694	11.672507	-0.040072	0.207590	2.906741	0.000000	0.008319	0.000000	-0.015783	-0.000412	0.000000	0.000000
69.436288	23.479291	11.543599	-0.054365	0.177690	2.909662	0.000000	0.008319	0.000000	-0.015920	-0.000412	0.000000	0.000000
69.733611	23.515572	11.445749	-0.136410	0.184804	2.912269	0.000000	0.016907	0.000000	-0.016043	-0.000457	0.000000	0.000000
70.282671	23.261497	11.471565	0.596392	-0.232110	2.897963	0.000000	-0.069329	0.000000	-0.016151	0.000064	0.000000	0.000000
