#ParticleID	Turn	x[m]	xp	y[m]	yp	z[m]	dE[GeV]# s	beta_x	beta_y	alpha_x	alpha_y	D_x	D_y	D_px	D_py	orbit_x	orbit_px	orbit_y	orbit_py
0.300000	11.962781	25.287612	-0.017540	-0.022889	2.598846	0.000000	-0.000411	0.000000	-0.001100	0.000942	0.000000	0.000000
0.601250	11.980938	25.304994	-0.042730	-0.034808	2.598439	0.000000	-0.000411	0.000000	-0.000816	0.000942	0.000000	0.000000
0.898573	12.013739	25.329190	-0.037981	-0.108660	2.598037	0.000000	-0.006814	0.000000	-0.000536	0.000943	0.000000	0.000000
1.339533	12.201119	25.143916	-0.388246	0.527223	2.610811	0.000000	0.066616	0.000000	-0.000122	0.000935	0.000000	0.000000
1.780493	12.704038	24.406318	-0.756255	1.139120	2.656101	0.000000	0.140794	0.000000	0.000290	0.000937	0.000000	0.000000
2.221453	13.545482	23.149945	-1.158824	1.699192	2.734418	0.000000	0.216567	0.000000	0.000706	0.000950	0.000000	0.000000
2.662413	14.763906	21.431955	-1.614346	2.181953	2.846652	0.000000	0.294796	0.000000	0.001129	0.000974	0.000000	0.000000
3.108373	16.436040	19.305331	-2.148007	2.566613	2.995916	0.000000	0.376863	0.000000	0.001571	0.001009	0.000000	0.000000
3.657433	18.579388	16.916425	-1.731952	1.809853	3.177292	0.000000	0.284696	0.000000	0.002109	0.000949	0.000000	0.000000
4.206493	20.195555	15.283299	-1.193531	1.182007	3.306640	0.000000	0.187494	0.000000	0.002610	0.000872	0.000000	0.000000
4.755553	21.170346	14.289635	-0.570777	0.638356	3.381672	0.000000	0.086981	0.000000	0.003064	0.000781	0.000000	0.000000
5.304613	21.434872	13.864665	0.092316	0.140173	3.401064	0.000000	-0.015064	0.000000	0.003464	0.000675	0.000000	0.000000
5.603185	21.416368	13.766675	0.024000	0.153008	3.398937	0.000000	-0.006437	0.000000	0.003669	0.000684	0.000000	0.000000
5.936519	21.405559	13.672930	0.008427	0.128228	3.396564	0.000000	-0.006437	0.000000	0.003896	0.000684	0.000000	0.000000
6.269852	21.405132	13.595704	-0.007147	0.103448	3.394190	0.000000	-0.006437	0.000000	0.004124	0.000684	0.000000	0.000000
6.604435	21.415145	13.534803	-0.022778	0.078575	3.391807	0.000000	-0.006437	0.000000	0.004353	0.000684	0.000000	0.000000
6.901758	21.432833	13.494642	-0.090503	0.090504	3.389691	0.000000	0.002077	0.000000	0.004556	0.000695	0.000000	0.000000
7.450818	21.166801	13.657064	0.572501	-0.388049	3.362586	0.000000	-0.099478	0.000000	0.004897	0.000542	0.000000	0.000000
7.999878	20.190599	14.357041	1.195070	-0.894248	3.280205	0.000000	-0.199260	0.000000	0.005150	0.000379	0.000000	0.000000
8.548938	18.573187	15.644442	1.733215	-1.464154	3.144013	0.000000	-0.295500	0.000000	0.005312	0.000210	0.000000	0.000000
9.097998	16.428842	17.610982	2.148911	-2.138364	2.956430	0.000000	-0.386495	0.000000	0.005380	0.000037	0.000000	0.000000
9.543958	14.756066	19.363016	1.615156	-1.773411	2.802161	0.000000	-0.305491	0.000000	0.005427	0.000177	0.000000	0.000000
9.984918	13.537054	20.736446	1.159668	-1.329128	2.684431	0.000000	-0.228469	0.000000	0.005537	0.000318	0.000000	0.000000
10.425878	12.694996	21.689752	0.757171	-0.824360	2.600001	0.000000	-0.154052	0.000000	0.005709	0.000463	0.000000	0.000000
10.866838	12.191414	22.179552	0.389272	-0.282077	2.547906	0.000000	-0.081395	0.000000	0.005946	0.000613	0.000000	0.000000
11.309048	12.003143	22.182971	0.066722	0.221611	2.527532	0.000000	-0.015499	0.000000	0.006252	0.000756	0.000000	0.000000
11.606371	11.970865	22.055371	0.041841	0.207550	2.522700	0.000000	-0.015499	0.000000	0.006476	0.000756	0.000000	0.000000
12.086371	11.949977	21.867020	0.001674	0.184849	2.514898	0.000000	-0.015499	0.000000	0.006839	0.000756	0.000000	0.000000
12.566371	11.967651	21.700461	-0.038494	0.162148	2.507096	0.000000	-0.015499	0.000000	0.007202	0.000756	0.000000	0.000000
13.046371	12.023885	21.555695	-0.078661	0.139447	2.499293	0.000000	-0.015499	0.000000	0.007565	0.000756	0.000000	0.000000
13.526371	12.118681	21.432722	-0.118829	0.116746	2.491491	0.000000	-0.015499	0.000000	0.007927	0.000756	0.000000	0.000000
14.007621	12.252435	21.331307	-0.159101	0.093986	2.483669	0.000000	-0.015499	0.000000	0.008291	0.000756	0.000000	0.000000
14.304943	12.354415	21.279645	-0.156181	0.032256	2.478833	0.000000	-0.021077	0.000000	0.008516	0.000736	0.000000	0.000000
14.745903	12.650703	21.018414	-0.517897	0.557831	2.484671	0.000000	0.049208	0.000000	0.008889	0.000960	0.000000	0.000000
15.186863	13.275278	20.303071	-0.903292	1.058022	2.521499	0.000000	0.120043	0.000000	0.009364	0.001195	0.000000	0.000000
15.627823	14.256705	19.166162	-1.329982	1.510065	2.589734	0.000000	0.192232	0.000000	0.009946	0.001444	0.000000	0.000000
16.068783	15.639863	17.659419	-1.817475	1.893385	2.690147	0.000000	0.266597	0.000000	0.010641	0.001710	0.000000	0.000000
16.514743	17.511652	15.829736	-2.393022	2.191505	2.825568	0.000000	0.344474	0.000000	0.011467	0.001997	0.000000	0.000000
17.063803	19.915173	13.787466	-1.956841	1.549388	2.990305	0.000000	0.258068	0.000000	0.012458	0.001609	0.000000	0.000000
17.612863	21.760308	12.386017	-1.382332	1.017662	3.106485	0.000000	0.167109	0.000000	0.013229	0.001193	0.000000	0.000000
18.161923	22.916593	11.525553	-0.710100	0.558445	3.172056	0.000000	0.073204	0.000000	0.013764	0.000755	0.000000	0.000000
18.710983	23.302260	11.144777	0.012336	0.139017	3.185861	0.000000	-0.021988	0.000000	0.014056	0.000305	0.000000	0.000000
19.009556	23.330507	11.054809	-0.053947	0.137014	3.181367	0.000000	-0.014681	0.000000	0.014157	0.000339	0.000000	0.000000
19.342889	23.371248	10.973706	-0.068276	0.106295	3.176361	0.000000	-0.014681	0.000000	0.014270	0.000339	0.000000	0.000000
19.676223	23.421542	10.913082	-0.082605	0.075576	3.171354	0.000000	-0.014681	0.000000	0.014383	0.000339	0.000000	0.000000
20.010806	23.481922	10.872690	-0.213331	0.098612	3.166348	0.000000	0.001007	0.000000	0.014496	0.000411	0.000000	0.000000
20.308129	23.612862	10.822193	-0.280409	0.095750	3.166536	0.000000	0.008227	0.000000	0.014619	0.000447	0.000000	0.000000
20.857189	23.513749	10.936861	0.459958	-0.305785	3.144980	0.000000	-0.086215	0.000000	0.014733	-0.000029	0.000000	0.000000
21.406249	22.614392	11.501863	1.167816	-0.729109	3.072153	0.000000	-0.179127	0.000000	0.014587	-0.000504	0.000000	0.000000
21.955309	20.978381	12.557453	1.793122	-1.204386	2.949346	0.000000	-0.268870	0.000000	0.014181	-0.000970	0.000000	0.000000
22.504369	18.721394	14.178837	2.291674	-1.765480	2.778734	0.000000	-0.353857	0.000000	0.013524	-0.001419	0.000000	0.000000
22.950329	16.944774	15.635433	1.704562	-1.486164	2.638586	0.000000	-0.277243	0.000000	0.012968	-0.001075	0.000000	0.000000
23.391289	15.668241	16.798237	1.200364	-1.140302	2.532889	0.000000	-0.204270	0.000000	0.012567	-0.000746	0.000000	0.000000
23.832249	14.810737	17.631816	0.751045	-0.742540	2.458698	0.000000	-0.133618	0.000000	0.012309	-0.000426	0.000000	0.000000
24.273209	14.333047	18.098235	0.336061	-0.310983	2.415169	0.000000	-0.064483	0.000000	0.012191	-0.000110	0.000000	0.000000
24.715418	14.213472	18.175948	-0.032945	0.095345	2.401809	0.000000	-0.001269	0.000000	0.012212	0.000177	0.000000	0.000000
25.012741	14.239289	18.124160	-0.053886	0.078838	2.401379	0.000000	-0.001269	0.000000	0.012265	0.000177	0.000000	0.000000
25.346075	14.283038	18.077770	-0.077363	0.060332	2.400897	0.000000	-0.001269	0.000000	0.012324	0.000177	0.000000	0.000000
25.679408	14.342440	18.043717	-0.100841	0.041826	2.400415	0.000000	-0.001269	0.000000	0.012382	0.000177	0.000000	0.000000
26.013991	14.417511	18.022309	-0.007442	-0.122955	2.399907	0.000000	-0.020739	0.000000	0.012441	0.000076	0.000000	0.000000
26.311314	14.428003	18.100485	0.003011	-0.178676	2.393713	0.000000	-0.025895	0.000000	0.012464	0.000047	0.000000	0.000000
26.752274	14.603780	18.061978	-0.402991	0.265654	2.397210	0.000000	0.042171	0.000000	0.012556	0.000370	0.000000	0.000000
27.193234	15.144487	17.635391	-0.827417	0.697894	2.430666	0.000000	0.110714	0.000000	0.012791	0.000696	0.000000	0.000000
27.634194	16.074852	16.840136	-1.289674	1.098370	2.494459	0.000000	0.180511	0.000000	0.013171	0.001031	0.000000	0.000000
28.075154	17.437426	15.712402	-1.810896	1.448855	2.589314	0.000000	0.252353	0.000000	0.013702	0.001378	0.000000	0.000000
28.521114	19.318519	14.286314	-2.420126	1.734581	2.717921	0.000000	0.327541	0.000000	0.014397	0.001742	0.000000	0.000000
29.070174	21.710808	12.698206	-1.909317	1.174293	2.874503	0.000000	0.244750	0.000000	0.015223	0.001262	0.000000	0.000000
29.619234	23.464023	11.676189	-1.263528	0.697678	2.984624	0.000000	0.157636	0.000000	0.015779	0.000760	0.000000	0.000000
30.168294	24.454184	11.147451	-0.528412	0.270777	3.046337	0.000000	0.067737	0.000000	0.016055	0.000244	0.000000	0.000000
30.717354	24.611270	11.074320	0.244060	-0.136829	3.058549	0.000000	-0.023360	0.000000	0.016047	-0.000276	0.000000	0.000000
31.015927	24.502110	11.149378	0.176209	-0.139203	3.053685	0.000000	-0.016489	0.000000	0.015976	-0.000237	0.000000	0.000000
31.349260	24.389313	11.252339	0.162182	-0.169680	3.048268	0.000000	-0.016489	0.000000	0.015897	-0.000237	0.000000	0.000000
31.682593	24.285867	11.375617	0.148156	-0.200156	3.042850	0.000000	-0.016489	0.000000	0.015818	-0.000237	0.000000	0.000000
32.017177	24.191437	11.519790	0.134076	-0.230747	3.037413	0.000000	-0.016489	0.000000	0.015738	-0.000237	0.000000	0.000000
32.314499	24.115603	11.665001	0.067170	-0.231654	3.032592	0.000000	-0.009649	0.000000	0.015668	-0.000199	0.000000	0.000000
32.863559	23.628884	12.157668	0.813533	-0.670736	3.002782	0.000000	-0.099618	0.000000	0.015420	-0.000703	0.000000	0.000000
33.412619	22.349110	13.155864	1.502378	-1.157612	2.924235	0.000000	-0.187831	0.000000	0.014898	-0.001194	0.000000	0.000000
33.961679	20.366785	14.730704	2.085008	-1.726972	2.798339	0.000000	-0.272730	0.000000	0.014112	-0.001664	0.000000	0.000000
34.510739	17.822086	16.994381	2.520239	-2.419383	2.627318	0.000000	-0.352816	0.000000	0.013076	-0.002105	0.000000	0.000000
34.956699	15.845124	19.019647	1.926714	-2.102038	2.487059	0.000000	-0.280141	0.000000	0.012211	-0.001777	0.000000	0.000000
35.397659	14.371530	20.698485	1.426474	-1.690058	2.379524	0.000000	-0.211103	0.000000	0.011495	-0.001471	0.000000	0.000000
35.838619	13.308950	21.978474	0.991452	-1.201160	2.301757	0.000000	-0.144454	0.000000	0.010911	-0.001182	0.000000	0.000000
36.279579	12.608788	22.801368	0.601757	-0.657597	2.252877	0.000000	-0.079439	0.000000	0.010450	-0.000907	0.000000	0.000000
36.721789	12.238392	23.129997	0.266532	-0.135111	2.232310	0.000000	-0.020256	0.000000	0.010108	-0.000665	0.000000	0.000000
37.019112	12.087636	23.214231	0.240512	-0.148200	2.226485	0.000000	-0.020256	0.000000	0.009911	-0.000665	0.000000	0.000000
37.352445	11.937019	23.317923	0.211340	-0.162874	2.219955	0.000000	-0.020256	0.000000	0.009689	-0.000665	0.000000	0.000000
37.685779	11.805849	23.431397	0.182169	-0.177549	2.213425	0.000000	-0.020256	0.000000	0.009467	-0.000665	0.000000	0.000000
38.020362	11.693744	23.555135	0.152888	-0.192278	2.206871	0.000000	-0.020256	0.000000	0.009244	-0.000665	0.000000	0.000000
38.317684	11.610539	23.673421	0.152849	-0.258566	2.201043	0.000000	-0.025181	0.000000	0.009047	-0.000687	0.000000	0.000000
38.758644	11.624484	23.639134	-0.184780	0.336015	2.204090	0.000000	0.037905	0.000000	0.008795	-0.000457	0.000000	0.000000
39.199604	11.938844	23.085176	-0.530851	0.915303	2.234931	0.000000	0.101427	0.000000	0.008643	-0.000232	0.000000	0.000000
39.640564	12.567985	22.036759	-0.901182	1.452934	2.293920	0.000000	0.166107	0.000000	0.008590	-0.000010	0.000000	0.000000
40.081524	13.540665	20.541598	-1.312701	1.924441	2.381729	0.000000	0.232680	0.000000	0.008635	0.000212	0.000000	0.000000
40.527484	14.918929	18.644995	-1.788185	2.309884	2.500843	0.000000	0.302334	0.000000	0.008780	0.000438	0.000000	0.000000
41.076544	16.680481	16.513278	-1.400586	1.595029	2.646176	0.000000	0.226778	0.000000	0.008942	0.000151	0.000000	0.000000
41.625604	17.959073	15.100011	-0.914017	0.993813	2.749006	0.000000	0.147201	0.000000	0.008945	-0.000139	0.000000	0.000000
42.174664	18.664341	14.304508	-0.362864	0.463403	2.807507	0.000000	0.065011	0.000000	0.008790	-0.000426	0.000000	0.000000
42.723724	18.746450	14.070090	0.213920	-0.033991	2.820639	0.000000	-0.018340	0.000000	0.008479	-0.000706	0.000000	0.000000
43.022297	18.650681	14.076308	0.152122	-0.020975	2.817405	0.000000	-0.011506	0.000000	0.008275	-0.000684	0.000000	0.000000
43.502297	18.517283	14.112819	0.125790	-0.055090	2.812211	0.000000	-0.011506	0.000000	0.007946	-0.000684	0.000000	0.000000
43.982297	18.409164	14.182080	0.099458	-0.089204	2.807016	0.000000	-0.011506	0.000000	0.007618	-0.000684	0.000000	0.000000
44.462297	18.326323	14.284092	0.073126	-0.123319	2.801822	0.000000	-0.011506	0.000000	0.007289	-0.000684	0.000000	0.000000
44.942297	18.268761	14.418854	0.046794	-0.157434	2.796627	0.000000	-0.011506	0.000000	0.006961	-0.000684	0.000000	0.000000
45.423547	18.236652	14.586664	-0.069961	-0.119367	2.791436	0.000000	0.002324	0.000000	0.006631	-0.000652	0.000000	0.000000
45.720870	18.283148	14.663774	-0.131496	-0.103963	2.792323	0.000000	0.009220	0.000000	0.006438	-0.000635	0.000000	0.000000
46.269930	18.119377	15.061370	0.427594	-0.624388	2.775136	0.000000	-0.073142	0.000000	0.006033	-0.000837	0.000000	0.000000
46.818990	17.354598	16.051426	0.956457	-1.189290	2.713114	0.000000	-0.154219	0.000000	0.005521	-0.001024	0.000000	0.000000
47.368050	16.042871	17.704456	1.417727	-1.838911	2.607349	0.000000	-0.232578	0.000000	0.004911	-0.001193	0.000000	0.000000
47.917110	14.276901	20.138199	1.778815	-2.619526	2.459710	0.000000	-0.306830	0.000000	0.004214	-0.001341	0.000000	0.000000
48.363070	12.901566	22.301553	1.315423	-2.210844	2.338769	0.000000	-0.238293	0.000000	0.003639	-0.001239	0.000000	0.000000
48.804030	11.921096	24.034063	0.915966	-1.702963	2.248707	0.000000	-0.172867	0.000000	0.003112	-0.001152	0.000000	0.000000
49.244990	11.273240	25.282620	0.558372	-1.117596	2.187005	0.000000	-0.109398	0.000000	0.002621	-0.001079	0.000000	0.000000
49.685950	10.928381	25.990422	0.226299	-0.481379	2.152965	0.000000	-0.047164	0.000000	0.002159	-0.001017	0.000000	0.000000
50.128160	10.870927	26.124987	-0.069321	0.114029	2.146216	0.000000	0.009367	0.000000	0.001721	-0.000971	0.000000	0.000000
50.425482	10.920320	26.060607	-0.096803	0.102500	2.149290	0.000000	0.009367	0.000000	0.001432	-0.000971	0.000000	0.000000
50.758816	10.995126	25.996582	-0.127613	0.089575	2.152736	0.000000	0.009367	0.000000	0.001109	-0.000971	0.000000	0.000000
51.092149	11.090472	25.941174	-0.158424	0.076650	2.156182	0.000000	0.009367	0.000000	0.000785	-0.000971	0.000000	0.000000
51.426732	11.206603	25.894748	-0.098434	-0.146394	2.159619	0.000000	-0.008153	0.000000	0.000460	-0.000975	0.000000	0.000000
51.724055	11.273102	25.985288	-0.097622	-0.222105	2.157485	0.000000	-0.013435	0.000000	0.000170	-0.000975	0.000000	0.000000
52.165015	11.505949	25.891923	-0.432744	0.433030	2.165642	0.000000	0.048579	0.000000	-0.000260	-0.000976	0.000000	0.000000
52.605975	12.041903	25.227302	-0.787629	1.068458	2.201246	0.000000	0.111157	0.000000	-0.000692	-0.000989	0.000000	0.000000
53.046935	12.905440	24.021674	-1.178490	1.655270	2.264705	0.000000	0.175011	0.000000	-0.001133	-0.001012	0.000000	0.000000
53.487895	14.136001	22.329903	-1.623183	2.166767	2.356748	0.000000	0.240869	0.000000	-0.001587	-0.001047	0.000000	0.000000
53.933855	15.810827	20.203678	-2.146285	2.580983	2.479948	0.000000	0.309877	0.000000	-0.002064	-0.001095	0.000000	0.000000
54.482915	17.966611	17.810732	-1.757428	1.803144	2.630295	0.000000	0.234946	0.000000	-0.002645	-0.001018	0.000000	0.000000
55.031975	19.624291	16.196821	-1.244468	1.153736	2.738243	0.000000	0.155832	0.000000	-0.003179	-0.000924	0.000000	0.000000
55.581035	20.666820	15.246978	-0.643636	0.586502	2.801872	0.000000	0.073938	0.000000	-0.003656	-0.000813	0.000000	0.000000
56.130095	21.020596	14.893542	0.002636	0.061043	2.820044	0.000000	-0.009279	0.000000	-0.004069	-0.000688	0.000000	0.000000
56.428668	21.057169	14.839037	-0.068387	0.081162	2.819756	0.000000	-0.001662	0.000000	-0.004278	-0.000699	0.000000	0.000000
56.762001	21.108062	14.792466	-0.084291	0.058550	2.819435	0.000000	-0.001662	0.000000	-0.004511	-0.000699	0.000000	0.000000
57.095334	21.169557	14.760970	-0.100195	0.035939	2.819114	0.000000	-0.001662	0.000000	-0.004744	-0.000699	0.000000	0.000000
57.429918	21.241945	14.744514	-0.116158	0.013243	2.818791	0.000000	-0.001662	0.000000	-0.004977	-0.000699	0.000000	0.000000
57.727240	21.315253	14.742624	-0.188421	0.033097	2.818506	0.000000	0.006017	0.000000	-0.005185	-0.000713	0.000000	0.000000
58.276300	21.157737	14.988922	0.473248	-0.484360	2.799286	0.000000	-0.077131	0.000000	-0.005529	-0.000539	0.000000	0.000000
58.825360	20.287889	15.818895	1.101485	-1.036308	2.734630	0.000000	-0.158919	0.000000	-0.005776	-0.000356	0.000000	0.000000
59.374420	18.767144	17.291644	1.651931	-1.662057	2.625680	0.000000	-0.237895	0.000000	-0.005919	-0.000167	0.000000	0.000000
59.923480	16.702888	19.512050	2.085719	-2.406169	2.474365	0.000000	-0.312655	0.000000	-0.005958	0.000026	0.000000	0.000000
60.369440	15.085765	21.485357	1.553409	-2.000192	2.350373	0.000000	-0.243824	0.000000	-0.005981	-0.000129	0.000000	0.000000
60.810400	13.921869	23.036542	1.096204	-1.504471	2.257521	0.000000	-0.178150	0.000000	-0.006072	-0.000284	0.000000	0.000000
61.251360	13.137616	24.118616	0.689071	-0.940311	2.193219	0.000000	-0.114502	0.000000	-0.006232	-0.000443	0.000000	0.000000
61.692320	12.697185	24.682355	0.313415	-0.333377	2.156737	0.000000	-0.052152	0.000000	-0.006463	-0.000607	0.000000	0.000000
62.134530	12.580511	24.701526	-0.015228	0.224561	2.147670	0.000000	0.004011	0.000000	-0.006769	-0.000760	0.000000	0.000000
62.431853	12.596595	24.571751	-0.038867	0.211917	2.149088	0.000000	0.004011	0.000000	-0.006995	-0.000760	0.000000	0.000000
62.765186	12.631340	24.435197	-0.065369	0.197742	2.150679	0.000000	0.004011	0.000000	-0.007248	-0.000760	0.000000	0.000000
63.098520	12.683754	24.308094	-0.091871	0.183567	2.152269	0.000000	0.004011	0.000000	-0.007501	-0.000760	0.000000	0.000000
63.433103	12.754132	24.190017	-0.118473	0.169339	2.153866	0.000000	0.004011	0.000000	-0.007756	-0.000760	0.000000	0.000000
63.730426	12.831586	24.093125	-0.108322	0.092988	2.155282	0.000000	-0.001664	0.000000	-0.007982	-0.000740	0.000000	0.000000
64.171386	13.089588	23.745866	-0.479370	0.691614	2.168567	0.000000	0.060346	0.000000	-0.008354	-0.000950	0.000000	0.000000
64.612346	13.683121	22.882642	-0.872303	1.258776	2.209412	0.000000	0.123054	0.000000	-0.008821	-0.001172	0.000000	0.000000
65.053306	14.639274	21.542732	-1.305063	1.768676	2.278286	0.000000	0.187175	0.000000	-0.009389	-0.001406	0.000000	0.000000
65.494266	16.001695	19.787095	-1.797412	2.198119	2.375980	0.000000	0.253442	0.000000	-0.010064	-0.001657	0.000000	0.000000
65.940226	17.855943	17.670689	-2.376288	2.528106	2.505208	0.000000	0.322982	0.000000	-0.010862	-0.001928	0.000000	0.000000
66.489286	20.230024	15.303492	-1.923656	1.809394	2.662854	0.000000	0.247137	0.000000	-0.011821	-0.001561	0.000000	0.000000
67.038346	22.029243	13.650476	-1.335246	1.219526	2.777384	0.000000	0.166885	0.000000	-0.012571	-0.001166	0.000000	0.000000
67.587406	23.126643	12.593913	-0.652598	0.716495	2.846760	0.000000	0.083654	0.000000	-0.013098	-0.000750	0.000000	0.000000
68.136466	23.444799	12.058558	0.076104	0.264483	2.869743	0.000000	-0.001071	0.000000	-0.013392	-0.000321	0.000000	0.000000
68.435038	23.443573	11.887859	-0.004522	0.272473	2.872004	0.000000	0.007239	0.000000	-0.013499	-0.000358	0.000000	0.000000
68.768372	23.451327	11.716251	-0.018740	0.242352	2.874536	0.000000	0.007239	0.000000	-0.013618	-0.000358	0.000000	0.000000
69.101705	23.468560	11.564724	-0.032959	0.212230	2.877068	0.000000	0.007239	0.000000	-0.013737	-0.000358	0.000000	0.000000
69.436288	23.495390	11.432822	-0.047231	0.181996	2.879609	0.000000	0.007239	0.000000	-0.013857	-0.000358	0.000000	0.000000
69.733611	23.527382	11.332522	-0.128309	0.188012	2.881876	0.000000	0.015616	0.000000	-0.013963	-0.000396	0.000000	0.000000
70.282671	23.264253	11.353071	0.604690	-0.225667	2.867117	0.000000	-0.069634	0.000000	-0.014057	0.000057	0.000000	0.000000
