#ParticleID	Turn	x[m]	xp	y[m]	yp	z[m]	dE[GeV]# s	beta_x	beta_y	alpha_x	alpha_y	D_x	D_y	D_px	D_py	orbit_x	orbit_px	orbit_y	orbit_py
0.300000	11.962075	25.282435	-0.017335	-0.023016	2.598953	0.000000	-0.000475	0.000000	-0.001111	0.000951	0.000000	0.000000
0.601250	11.980108	25.299894	-0.042526	-0.034938	2.598524	0.000000	-0.000475	0.000000	-0.000825	0.000951	0.000000	0.000000
0.898573	12.012788	25.324168	-0.037779	-0.108780	2.598100	0.000000	-0.006879	0.000000	-0.000542	0.000952	0.000000	0.000000
1.339533	12.199981	25.139058	-0.388017	0.526972	2.610843	0.000000	0.066552	0.000000	-0.000125	0.000943	0.000000	0.000000
1.780493	12.702684	24.401734	-0.755989	1.138751	2.656101	0.000000	0.140731	0.000000	0.000292	0.000946	0.000000	0.000000
2.221453	13.543874	23.145734	-1.158509	1.698720	2.734387	0.000000	0.216503	0.000000	0.000711	0.000958	0.000000	0.000000
2.662413	14.761994	21.428196	-1.613967	2.181401	2.846588	0.000000	0.294731	0.000000	0.001138	0.000982	0.000000	0.000000
3.108373	16.433757	19.302090	-2.147547	2.566006	2.995820	0.000000	0.376796	0.000000	0.001584	0.001018	0.000000	0.000000
3.657433	18.576626	16.913773	-1.731541	1.809383	3.177155	0.000000	0.284633	0.000000	0.002127	0.000957	0.000000	0.000000
4.206493	20.192385	15.281102	-1.193198	1.181641	3.306465	0.000000	0.187436	0.000000	0.002632	0.000880	0.000000	0.000000
4.755553	21.166866	14.287796	-0.570545	0.638067	3.381464	0.000000	0.086929	0.000000	0.003091	0.000788	0.000000	0.000000
5.304613	21.431204	13.863110	0.092430	0.139941	3.400826	0.000000	-0.015108	0.000000	0.003495	0.000681	0.000000	0.000000
5.603185	21.412618	13.765268	0.024135	0.152760	3.398683	0.000000	-0.006485	0.000000	0.003701	0.000690	0.000000	0.000000
5.936519	21.401720	13.671688	0.008559	0.127980	3.396291	0.000000	-0.006485	0.000000	0.003931	0.000690	0.000000	0.000000
6.269852	21.401206	13.594629	-0.007017	0.103199	3.393900	0.000000	-0.006485	0.000000	0.004161	0.000690	0.000000	0.000000
6.604435	21.411133	13.533894	-0.022652	0.078325	3.391499	0.000000	-0.006485	0.000000	0.004391	0.000690	0.000000	0.000000
6.901758	21.428747	13.493881	-0.090350	0.090241	3.389367	0.000000	0.002025	0.000000	0.004597	0.000702	0.000000	0.000000
7.450818	21.162624	13.656583	0.572516	-0.388298	3.362233	0.000000	-0.099519	0.000000	0.004940	0.000547	0.000000	0.000000
7.999878	20.186484	14.356833	1.194944	-0.894500	3.279831	0.000000	-0.199289	0.000000	0.005196	0.000383	0.000000	0.000000
8.548938	18.569284	15.644520	1.732957	-1.464426	3.143625	0.000000	-0.295517	0.000000	0.005359	0.000212	0.000000	0.000000
9.097998	16.425285	17.611381	2.148540	-2.138677	2.956035	0.000000	-0.386499	0.000000	0.005428	0.000037	0.000000	0.000000
9.543958	14.752797	19.363702	1.614878	-1.773735	2.801761	0.000000	-0.305506	0.000000	0.005476	0.000179	0.000000	0.000000
9.984918	13.533992	20.737418	1.159471	-1.329449	2.684022	0.000000	-0.228493	0.000000	0.005586	0.000321	0.000000	0.000000
10.425878	12.692076	21.691002	0.757046	-0.824664	2.599577	0.000000	-0.154087	0.000000	0.005760	0.000467	0.000000	0.000000
10.866838	12.188574	22.181057	0.389214	-0.282350	2.547462	0.000000	-0.081442	0.000000	0.005999	0.000619	0.000000	0.000000
11.309048	12.000328	22.184698	0.066705	0.221406	2.527062	0.000000	-0.015552	0.000000	0.006308	0.000763	0.000000	0.000000
11.606371	11.968061	22.057220	0.041819	0.207347	2.522212	0.000000	-0.015552	0.000000	0.006534	0.000763	0.000000	0.000000
12.086371	11.947200	21.869062	0.001642	0.184650	2.514381	0.000000	-0.015552	0.000000	0.006901	0.000763	0.000000	0.000000
12.566371	11.964909	21.702693	-0.038535	0.161952	2.506549	0.000000	-0.015552	0.000000	0.007267	0.000763	0.000000	0.000000
13.046371	12.021187	21.558113	-0.078712	0.139255	2.498718	0.000000	-0.015552	0.000000	0.007633	0.000763	0.000000	0.000000
13.526371	12.116036	21.435323	-0.118889	0.116558	2.490887	0.000000	-0.015552	0.000000	0.007999	0.000763	0.000000	0.000000
14.007621	12.249852	21.334087	-0.159170	0.093802	2.483036	0.000000	-0.015552	0.000000	0.008366	0.000763	0.000000	0.000000
14.304943	12.351875	21.282534	-0.156285	0.032109	2.478182	0.000000	-0.021124	0.000000	0.008593	0.000743	0.000000	0.000000
14.745903	12.648231	21.021397	-0.517947	0.557765	2.483991	0.000000	0.049143	0.000000	0.008970	0.000969	0.000000	0.000000
15.186863	13.272830	20.306074	-0.903290	1.058041	2.520783	0.000000	0.119960	0.000000	0.009449	0.001206	0.000000	0.000000
15.627823	14.254236	19.169111	-1.329929	1.510167	2.588972	0.000000	0.192131	0.000000	0.010036	0.001458	0.000000	0.000000
16.068783	15.637328	17.662242	-1.817367	1.893565	2.689331	0.000000	0.266475	0.000000	0.010737	0.001725	0.000000	0.000000
16.514743	17.509005	15.832360	-2.392858	2.191758	2.824686	0.000000	0.344331	0.000000	0.011570	0.002015	0.000000	0.000000
17.063803	19.912407	13.789856	-1.956774	1.549558	2.989344	0.000000	0.257955	0.000000	0.012571	0.001624	0.000000	0.000000
17.612863	21.757529	12.388257	-1.382364	1.017762	3.105464	0.000000	0.167027	0.000000	0.013348	0.001204	0.000000	0.000000
18.161923	22.913907	11.527717	-0.710229	0.558482	3.170995	0.000000	0.073156	0.000000	0.013889	0.000762	0.000000	0.000000
18.710983	23.299767	11.146932	0.012121	0.138995	3.184780	0.000000	-0.022002	0.000000	0.014183	0.000307	0.000000	0.000000
19.009556	23.328096	11.056994	-0.054089	0.136968	3.180278	0.000000	-0.014707	0.000000	0.014285	0.000342	0.000000	0.000000
19.342889	23.368932	10.975920	-0.068420	0.106256	3.175261	0.000000	-0.014707	0.000000	0.014399	0.000342	0.000000	0.000000
19.676223	23.419322	10.915320	-0.082750	0.075543	3.170245	0.000000	-0.014707	0.000000	0.014513	0.000342	0.000000	0.000000
20.010806	23.479800	10.874949	-0.213467	0.098597	3.165229	0.000000	0.000976	0.000000	0.014628	0.000415	0.000000	0.000000
20.308129	23.610824	10.824457	-0.280469	0.095713	3.165406	0.000000	0.008183	0.000000	0.014751	0.000451	0.000000	0.000000
20.857189	23.511812	10.939202	0.459836	-0.305887	3.143835	0.000000	-0.086222	0.000000	0.014867	-0.000029	0.000000	0.000000
21.406249	22.612619	11.504356	1.167639	-0.729284	3.071016	0.000000	-0.179098	0.000000	0.014719	-0.000509	0.000000	0.000000
21.955309	20.976822	12.560185	1.792902	-1.204646	2.948238	0.000000	-0.268805	0.000000	0.014310	-0.000979	0.000000	0.000000
22.504369	18.720086	14.181912	2.291426	-1.765843	2.777676	0.000000	-0.353757	0.000000	0.013647	-0.001432	0.000000	0.000000
22.950329	16.943660	15.638803	1.704355	-1.486448	2.637571	0.000000	-0.277169	0.000000	0.013086	-0.001085	0.000000	0.000000
23.391289	15.667290	16.801821	1.200192	-1.140496	2.531905	0.000000	-0.204222	0.000000	0.012681	-0.000753	0.000000	0.000000
23.832249	14.809923	17.635529	0.750900	-0.742636	2.457732	0.000000	-0.133595	0.000000	0.012420	-0.000429	0.000000	0.000000
24.273209	14.332350	18.101988	0.335936	-0.310976	2.414208	0.000000	-0.064484	0.000000	0.012301	-0.000111	0.000000	0.000000
24.715418	14.212879	18.179648	-0.033095	0.095496	2.400842	0.000000	-0.001287	0.000000	0.012323	0.000178	0.000000	0.000000
25.012741	14.238785	18.127769	-0.054037	0.078992	2.400406	0.000000	-0.001287	0.000000	0.012376	0.000178	0.000000	0.000000
25.346075	14.282636	18.081275	-0.077516	0.060489	2.399918	0.000000	-0.001287	0.000000	0.012435	0.000178	0.000000	0.000000
25.679408	14.342140	18.047117	-0.100994	0.041986	2.399429	0.000000	-0.001287	0.000000	0.012495	0.000178	0.000000	0.000000
26.013991	14.417314	18.025600	-0.007598	-0.122818	2.398915	0.000000	-0.020749	0.000000	0.012554	0.000077	0.000000	0.000000
26.311314	14.427897	18.103696	0.002814	-0.178492	2.392718	0.000000	-0.025896	0.000000	0.012577	0.000048	0.000000	0.000000
26.752274	14.603850	18.064988	-0.403191	0.265923	2.396208	0.000000	0.042145	0.000000	0.012670	0.000373	0.000000	0.000000
27.193234	15.144740	17.638129	-0.827630	0.698236	2.429644	0.000000	0.110662	0.000000	0.012907	0.000703	0.000000	0.000000
27.634194	16.075305	16.842545	-1.289909	1.098769	2.493406	0.000000	0.180432	0.000000	0.013291	0.001041	0.000000	0.000000
28.075154	17.438106	15.714438	-1.811165	1.449293	2.588215	0.000000	0.252247	0.000000	0.013826	0.001390	0.000000	0.000000
28.521114	19.319469	14.287944	-2.420445	1.735041	2.716763	0.000000	0.327406	0.000000	0.014528	0.001758	0.000000	0.000000
29.070174	21.712114	12.699376	-1.909626	1.174670	2.873275	0.000000	0.244653	0.000000	0.015362	0.001274	0.000000	0.000000
29.619234	23.465659	11.676974	-1.263804	0.698001	2.983349	0.000000	0.157580	0.000000	0.015923	0.000767	0.000000	0.000000
30.168294	24.456098	11.147900	-0.528634	0.271068	3.045040	0.000000	0.067722	0.000000	0.016201	0.000246	0.000000	0.000000
30.717354	24.613392	11.074457	0.243907	-0.136549	3.057255	0.000000	-0.023333	0.000000	0.016192	-0.000279	0.000000	0.000000
31.015927	24.504271	11.149371	0.176139	-0.138959	3.052395	0.000000	-0.016476	0.000000	0.016121	-0.000239	0.000000	0.000000
31.349260	24.391520	11.252169	0.162114	-0.169433	3.046983	0.000000	-0.016476	0.000000	0.016041	-0.000239	0.000000	0.000000
31.682593	24.288120	11.375282	0.148088	-0.199908	3.041571	0.000000	-0.016476	0.000000	0.015961	-0.000239	0.000000	0.000000
32.017177	24.193734	11.519288	0.134011	-0.230496	3.036138	0.000000	-0.016476	0.000000	0.015881	-0.000239	0.000000	0.000000
32.314499	24.117942	11.664348	0.067182	-0.231443	3.031322	0.000000	-0.009649	0.000000	0.015810	-0.000201	0.000000	0.000000
32.863559	23.631164	12.156770	0.813624	-0.670495	3.001525	0.000000	-0.099577	0.000000	0.015560	-0.000709	0.000000	0.000000
33.412619	22.351242	13.154679	1.502542	-1.157325	2.923016	0.000000	-0.187750	0.000000	0.015034	-0.001205	0.000000	0.000000
33.961679	20.368694	14.729172	2.085232	-1.726618	2.797181	0.000000	-0.272611	0.000000	0.014240	-0.001679	0.000000	0.000000
34.510739	17.823714	16.992417	2.520506	-2.418937	2.626244	0.000000	-0.352662	0.000000	0.013195	-0.002124	0.000000	0.000000
34.956699	15.846530	19.017299	1.926925	-2.101614	2.486055	0.000000	-0.280013	0.000000	0.012322	-0.001793	0.000000	0.000000
35.397659	14.372766	20.695783	1.426641	-1.689677	2.378576	0.000000	-0.211000	0.000000	0.011600	-0.001484	0.000000	0.000000
35.838619	13.310052	21.975463	0.991582	-1.200840	2.300854	0.000000	-0.144375	0.000000	0.011010	-0.001193	0.000000	0.000000
36.279579	12.609786	22.798108	0.601858	-0.657352	2.252008	0.000000	-0.079383	0.000000	0.010545	-0.000915	0.000000	0.000000
36.721789	12.239311	23.126557	0.266582	-0.134891	2.231465	0.000000	-0.020214	0.000000	0.010200	-0.000671	0.000000	0.000000
37.019112	12.088526	23.210661	0.240563	-0.147981	2.225654	0.000000	-0.020214	0.000000	0.010001	-0.000671	0.000000	0.000000
37.352445	11.937873	23.314207	0.211393	-0.162657	2.219140	0.000000	-0.020214	0.000000	0.009777	-0.000671	0.000000	0.000000
37.685779	11.806668	23.427537	0.182223	-0.177333	2.212625	0.000000	-0.020214	0.000000	0.009553	-0.000671	0.000000	0.000000
38.020362	11.694527	23.551131	0.152944	-0.192064	2.206087	0.000000	-0.020214	0.000000	0.009329	-0.000671	0.000000	0.000000
38.317684	11.611287	23.669291	0.152885	-0.258298	2.200273	0.000000	-0.025134	0.000000	0.009129	-0.000693	0.000000	0.000000
38.758644	11.625208	23.634816	-0.184762	0.336171	2.203339	0.000000	0.037933	0.000000	0.008875	-0.000461	0.000000	0.000000
39.199604	11.939559	23.080772	-0.530849	0.915339	2.234189	0.000000	0.101436	0.000000	0.008722	-0.000234	0.000000	0.000000
39.640564	12.568706	22.032376	-0.901197	1.452848	2.293178	0.000000	0.166097	0.000000	0.008668	-0.000010	0.000000	0.000000
40.081524	13.541408	20.537341	-1.312733	1.924238	2.380978	0.000000	0.232651	0.000000	0.008713	0.000214	0.000000	0.000000
40.527484	14.919712	18.640965	-1.788237	2.309574	2.500074	0.000000	0.302285	0.000000	0.008860	0.000442	0.000000	0.000000
41.076544	16.681310	16.509517	-1.400609	1.594841	2.645386	0.000000	0.226754	0.000000	0.009023	0.000153	0.000000	0.000000
41.625604	17.959911	15.096395	-0.914009	0.993733	2.748210	0.000000	0.147203	0.000000	0.009027	-0.000140	0.000000	0.000000
42.174664	18.665154	14.300922	-0.362826	0.463425	2.806720	0.000000	0.065038	0.000000	0.008870	-0.000430	0.000000	0.000000
42.723724	18.747203	14.066422	0.213988	-0.033863	2.819877	0.000000	-0.018288	0.000000	0.008556	-0.000712	0.000000	0.000000
43.022297	18.651374	14.072586	0.152221	-0.020885	2.816658	0.000000	-0.011461	0.000000	0.008350	-0.000691	0.000000	0.000000
43.502297	18.517882	14.109015	0.125889	-0.055009	2.811489	0.000000	-0.011461	0.000000	0.008019	-0.000691	0.000000	0.000000
43.982297	18.409668	14.178203	0.099557	-0.089133	2.806319	0.000000	-0.011461	0.000000	0.007687	-0.000691	0.000000	0.000000
44.462297	18.326732	14.280150	0.073225	-0.123257	2.801149	0.000000	-0.011461	0.000000	0.007356	-0.000691	0.000000	0.000000
44.942297	18.269074	14.414856	0.046894	-0.157380	2.795979	0.000000	-0.011461	0.000000	0.007024	-0.000691	0.000000	0.000000
45.423547	18.236870	14.582619	-0.069862	-0.119342	2.790813	0.000000	0.002366	0.000000	0.006692	-0.000657	0.000000	0.000000
45.720870	18.283307	14.659715	-0.131373	-0.103975	2.791714	0.000000	0.009257	0.000000	0.006496	-0.000641	0.000000	0.000000
46.269930	18.119397	15.057259	0.427720	-0.624278	2.774557	0.000000	-0.073085	0.000000	0.006088	-0.000845	0.000000	0.000000
46.818990	17.354480	16.047125	0.956577	-1.189052	2.712575	0.000000	-0.154145	0.000000	0.005571	-0.001034	0.000000	0.000000
47.368050	16.042626	17.699817	1.417832	-1.838527	2.606861	0.000000	-0.232487	0.000000	0.004956	-0.001204	0.000000	0.000000
47.917110	14.276549	20.133049	1.778897	-2.618969	2.459281	0.000000	-0.306725	0.000000	0.004253	-0.001354	0.000000	0.000000
48.363070	12.901139	22.295960	1.315502	-2.210412	2.338391	0.000000	-0.238198	0.000000	0.003672	-0.001251	0.000000	0.000000
48.804030	11.920597	24.028153	0.916048	-1.702676	2.248373	0.000000	-0.172781	0.000000	0.003141	-0.001163	0.000000	0.000000
49.244990	11.272664	25.276527	0.558460	-1.117467	2.186712	0.000000	-0.109321	0.000000	0.002645	-0.001088	0.000000	0.000000
49.685950	10.927722	25.984287	0.226397	-0.481414	2.152708	0.000000	-0.047093	0.000000	0.002179	-0.001026	0.000000	0.000000
50.128160	10.870174	26.118955	-0.069214	0.113859	2.145993	0.000000	0.009433	0.000000	0.001737	-0.000980	0.000000	0.000000
50.425482	10.919503	26.054677	-0.096697	0.102328	2.149089	0.000000	0.009433	0.000000	0.001445	-0.000980	0.000000	0.000000
50.758816	10.994239	25.990767	-0.127509	0.089401	2.152560	0.000000	0.009433	0.000000	0.001119	-0.000980	0.000000	0.000000
51.092149	11.089516	25.935476	-0.158321	0.076473	2.156031	0.000000	0.009433	0.000000	0.000792	-0.000980	0.000000	0.000000
51.426732	11.205580	25.889169	-0.098342	-0.146528	2.159493	0.000000	-0.008086	0.000000	0.000464	-0.000984	0.000000	0.000000
51.724055	11.272024	25.979790	-0.097534	-0.222231	2.157381	0.000000	-0.013368	0.000000	0.000172	-0.000984	0.000000	0.000000
52.165015	11.504781	25.886600	-0.432629	0.432761	2.165571	0.000000	0.048644	0.000000	-0.000262	-0.000985	0.000000	0.000000
52.605975	12.040619	25.222275	-0.787482	1.068059	2.201207	0.000000	0.111220	0.000000	-0.000699	-0.000998	0.000000	0.000000
53.046935	12.904009	24.017050	-1.178305	1.654758	2.264699	0.000000	0.175074	0.000000	-0.001143	-0.001021	0.000000	0.000000
53.487895	14.134384	22.325773	-1.622950	2.166165	2.356773	0.000000	0.240933	0.000000	-0.001601	-0.001057	0.000000	0.000000
53.933855	15.808975	20.200115	-2.145993	2.580319	2.480006	0.000000	0.309942	0.000000	-0.002083	-0.001105	0.000000	0.000000
54.482915	17.964461	17.807814	-1.757185	1.802630	2.630393	0.000000	0.235008	0.000000	-0.002669	-0.001028	0.000000	0.000000
55.031975	19.621906	16.194403	-1.244292	1.153334	2.738379	0.000000	0.155890	0.000000	-0.003208	-0.000932	0.000000	0.000000
55.581035	20.664281	15.244952	-0.643540	0.586186	2.802042	0.000000	0.073992	0.000000	-0.003690	-0.000821	0.000000	0.000000
56.130095	21.017997	14.891829	0.002646	0.060789	2.820246	0.000000	-0.009232	0.000000	-0.004106	-0.000694	0.000000	0.000000
56.428668	21.054570	14.837471	-0.068388	0.080914	2.819974	0.000000	-0.001612	0.000000	-0.004317	-0.000705	0.000000	0.000000
56.762001	21.105464	14.791066	-0.084294	0.058301	2.819672	0.000000	-0.001612	0.000000	-0.004552	-0.000705	0.000000	0.000000
57.095334	21.166963	14.759736	-0.100200	0.035689	2.819370	0.000000	-0.001612	0.000000	-0.004787	-0.000705	0.000000	0.000000
57.429918	21.239355	14.743448	-0.116166	0.012991	2.819066	0.000000	-0.001612	0.000000	-0.005023	-0.000705	0.000000	0.000000
57.727240	21.312668	14.741708	-0.188445	0.032854	2.818798	0.000000	0.006071	0.000000	-0.005232	-0.000719	0.000000	0.000000
58.276300	21.155223	14.988260	0.473138	-0.484582	2.799608	0.000000	-0.077087	0.000000	-0.005580	-0.000544	0.000000	0.000000
58.825360	20.285540	15.818472	1.101297	-1.036527	2.734975	0.000000	-0.158886	0.000000	-0.005828	-0.000359	0.000000	0.000000
59.374420	18.765039	17.291464	1.651678	-1.662286	2.626041	0.000000	-0.237873	0.000000	-0.005973	-0.000168	0.000000	0.000000
59.923480	16.701090	19.512134	2.085419	-2.406426	2.474736	0.000000	-0.312645	0.000000	-0.006012	0.000026	0.000000	0.000000
60.369440	15.084207	21.485680	1.553168	-2.000470	2.350751	0.000000	-0.243804	0.000000	-0.006035	-0.000130	0.000000	0.000000
60.810400	13.920502	23.037113	1.096011	-1.504756	2.257911	0.000000	-0.178120	0.000000	-0.006127	-0.000287	0.000000	0.000000
61.251360	13.136402	24.119436	0.688916	-0.940590	2.193626	0.000000	-0.114462	0.000000	-0.006289	-0.000447	0.000000	0.000000
61.692320	12.696092	24.683414	0.313292	-0.333637	2.157166	0.000000	-0.052102	0.000000	-0.006522	-0.000612	0.000000	0.000000
62.134530	12.579515	24.702801	-0.015311	0.224296	2.148126	0.000000	0.004069	0.000000	-0.006831	-0.000767	0.000000	0.000000
62.431853	12.595649	24.573183	-0.038952	0.211654	2.149563	0.000000	0.004069	0.000000	-0.007059	-0.000767	0.000000	0.000000
62.765186	12.630452	24.436804	-0.065457	0.197482	2.151175	0.000000	0.004069	0.000000	-0.007314	-0.000767	0.000000	0.000000
63.098520	12.682925	24.309874	-0.091961	0.183309	2.152787	0.000000	0.004069	0.000000	-0.007570	-0.000767	0.000000	0.000000
63.433103	12.753363	24.191969	-0.118565	0.169084	2.154405	0.000000	0.004069	0.000000	-0.007826	-0.000767	0.000000	0.000000
63.730426	12.830871	24.095229	-0.108397	0.092688	2.155841	0.000000	-0.001612	0.000000	-0.008054	-0.000746	0.000000	0.000000
64.171386	13.088932	23.748208	-0.479430	0.691377	2.169155	0.000000	0.060413	0.000000	-0.008430	-0.000959	0.000000	0.000000
64.612346	13.682508	22.885163	-0.872350	1.258613	2.210037	0.000000	0.123136	0.000000	-0.008901	-0.001182	0.000000	0.000000
65.053306	14.638696	21.545363	-1.305100	1.768593	2.278957	0.000000	0.187274	0.000000	-0.009474	-0.001419	0.000000	0.000000
65.494266	16.001140	19.789765	-1.797439	2.198122	2.376703	0.000000	0.253559	0.000000	-0.010155	-0.001672	0.000000	0.000000
65.940226	17.855405	17.673318	-2.376304	2.528193	2.505995	0.000000	0.323118	0.000000	-0.010961	-0.001946	0.000000	0.000000
66.489286	20.229510	15.306063	-1.923698	1.809420	2.663717	0.000000	0.247247	0.000000	-0.011929	-0.001575	0.000000	0.000000
67.038346	22.028783	13.653054	-1.335314	1.219492	2.778306	0.000000	0.166966	0.000000	-0.012685	-0.001176	0.000000	0.000000
67.587406	23.126264	12.596563	-0.652686	0.716400	2.847722	0.000000	0.083705	0.000000	-0.013217	-0.000757	0.000000	0.000000
68.136466	23.444523	12.061351	0.076001	0.264318	2.870728	0.000000	-0.001052	0.000000	-0.013514	-0.000324	0.000000	0.000000
68.435038	23.443391	11.890727	-0.004682	0.272355	2.872998	0.000000	0.007268	0.000000	-0.013622	-0.000361	0.000000	0.000000
68.768372	23.451252	11.719194	-0.018901	0.242243	2.875541	0.000000	0.007268	0.000000	-0.013742	-0.000361	0.000000	0.000000
69.101705	23.468593	11.567737	-0.033120	0.212130	2.878084	0.000000	0.007268	0.000000	-0.013862	-0.000361	0.000000	0.000000
69.436288	23.495531	11.435899	-0.047392	0.181905	2.880637	0.000000	0.007268	0.000000	-0.013983	-0.000361	0.000000	0.000000
69.733611	23.527620	11.335650	-0.128532	0.187967	2.882913	0.000000	0.015656	0.000000	-0.014090	-0.000400	0.000000	0.000000
70.282671	23.264731	11.356296	0.604479	-0.225800	2.868168	0.000000	-0.069627	0.000000	-0.014185	0.000058	0.000000	0.000000
