#ParticleID	Turn	x[m]	xp	y[m]	yp	z[m]	dE[GeV]# s	beta_x	beta_y	alpha_x	alpha_y	D_x	D_y	D_px	D_py	orbit_x	orbit_px	orbit_y	orbit_py
0.300000	11.965415	25.312306	-0.018621	-0.022249	2.598461	0.000000	-0.000062	0.000000	-0.001031	0.000887	0.000000	0.000000
0.601250	11.984221	25.329298	-0.043806	-0.034156	2.598175	0.000000	-0.000062	0.000000	-0.000763	0.000887	0.000000	0.000000
0.898573	12.017661	25.353103	-0.039053	-0.108052	2.597893	0.000000	-0.006463	0.000000	-0.000500	0.000889	0.000000	0.000000
1.339533	12.206027	25.167017	-0.389435	0.528449	2.610844	0.000000	0.066966	0.000000	-0.000110	0.000881	0.000000	0.000000
1.780493	12.710058	24.428083	-0.757617	1.140911	2.656312	0.000000	0.141148	0.000000	0.000279	0.000883	0.000000	0.000000
2.221453	13.552791	23.169913	-1.160419	1.701464	2.734810	0.000000	0.216928	0.000000	0.000670	0.000895	0.000000	0.000000
2.662413	14.772739	21.449745	-1.616246	2.184603	2.847228	0.000000	0.295169	0.000000	0.001070	0.000918	0.000000	0.000000
3.108373	16.446724	19.320633	-2.150301	2.569520	2.996687	0.000000	0.377254	0.000000	0.001486	0.000951	0.000000	0.000000
3.657433	18.592467	16.928914	-1.734030	1.812109	3.178299	0.000000	0.285058	0.000000	0.001993	0.000894	0.000000	0.000000
4.206493	20.210711	15.293595	-1.195248	1.183773	3.307863	0.000000	0.187821	0.000000	0.002465	0.000822	0.000000	0.000000
4.755553	21.187115	14.298206	-0.572013	0.639756	3.383089	0.000000	0.087265	0.000000	0.002893	0.000735	0.000000	0.000000
5.304613	21.452679	13.871853	0.091646	0.141309	3.402646	0.000000	-0.014827	0.000000	0.003270	0.000635	0.000000	0.000000
5.603185	21.434654	13.773132	0.023205	0.154231	3.400607	0.000000	-0.006182	0.000000	0.003462	0.000644	0.000000	0.000000
5.936519	21.424370	13.678571	0.007646	0.129454	3.398332	0.000000	-0.006182	0.000000	0.003677	0.000644	0.000000	0.000000
6.269852	21.424460	13.600527	-0.007914	0.104676	3.396056	0.000000	-0.006182	0.000000	0.003892	0.000644	0.000000	0.000000
6.604435	21.434981	13.538803	-0.023531	0.079806	3.393772	0.000000	-0.006182	0.000000	0.004107	0.000644	0.000000	0.000000
6.901758	21.453112	13.497910	-0.091419	0.091815	3.391744	0.000000	0.002356	0.000000	0.004299	0.000655	0.000000	0.000000
7.450818	21.187697	13.658932	0.572281	-0.386796	3.364793	0.000000	-0.099267	0.000000	0.004619	0.000510	0.000000	0.000000
7.999878	20.211340	14.357520	1.195561	-0.892963	3.282523	0.000000	-0.199120	0.000000	0.004857	0.000357	0.000000	0.000000
8.548938	18.593015	15.643444	1.734382	-1.462744	3.146397	0.000000	-0.295436	0.000000	0.005010	0.000197	0.000000	0.000000
9.097998	16.447059	17.608314	2.150674	-2.136730	2.958832	0.000000	-0.386508	0.000000	0.005073	0.000034	0.000000	0.000000
9.543958	14.772929	19.358858	1.616456	-1.771738	2.804574	0.000000	-0.305444	0.000000	0.005118	0.000166	0.000000	0.000000
9.984918	13.552956	20.730815	1.160560	-1.327488	2.686886	0.000000	-0.228359	0.000000	0.005220	0.000299	0.000000	0.000000
10.425878	12.710276	21.682713	0.757696	-0.822829	2.602529	0.000000	-0.153879	0.000000	0.005382	0.000436	0.000000	0.000000
10.866838	12.206381	22.171233	0.389453	-0.280724	2.550539	0.000000	-0.081156	0.000000	0.005605	0.000577	0.000000	0.000000
11.309048	12.018092	22.173561	0.066705	0.222569	2.530303	0.000000	-0.015218	0.000000	0.005893	0.000712	0.000000	0.000000
11.606371	11.985814	22.045396	0.041856	0.208496	2.525567	0.000000	-0.015218	0.000000	0.006105	0.000712	0.000000	0.000000
12.086371	11.964889	21.856145	0.001738	0.185776	2.517920	0.000000	-0.015218	0.000000	0.006446	0.000712	0.000000	0.000000
12.566371	11.982477	21.688705	-0.038379	0.163057	2.510274	0.000000	-0.015218	0.000000	0.006788	0.000712	0.000000	0.000000
13.046371	12.038578	21.543076	-0.078497	0.140337	2.502627	0.000000	-0.015218	0.000000	0.007129	0.000712	0.000000	0.000000
13.526371	12.133191	21.419258	-0.118614	0.117617	2.494981	0.000000	-0.015218	0.000000	0.007471	0.000712	0.000000	0.000000
14.007621	12.266715	21.317014	-0.158836	0.094838	2.487315	0.000000	-0.015218	0.000000	0.007813	0.000712	0.000000	0.000000
14.304943	12.368531	21.264843	-0.155707	0.032864	2.482576	0.000000	-0.020834	0.000000	0.008025	0.000693	0.000000	0.000000
14.745903	12.664526	21.003258	-0.517727	0.558026	2.488562	0.000000	0.049547	0.000000	0.008377	0.000904	0.000000	0.000000
15.186863	13.289066	20.287934	-0.903416	1.057796	2.525589	0.000000	0.120484	0.000000	0.008824	0.001126	0.000000	0.000000
15.627823	14.270712	19.151418	-1.330406	1.509427	2.594074	0.000000	0.192782	0.000000	0.009372	0.001360	0.000000	0.000000
16.068783	15.654353	17.645421	-1.818214	1.892366	2.694793	0.000000	0.267261	0.000000	0.010026	0.001610	0.000000	0.000000
16.514743	17.526897	15.816833	-2.394098	2.190135	2.830581	0.000000	0.345261	0.000000	0.010804	0.001881	0.000000	0.000000
17.063803	19.931255	13.775849	-1.957382	1.548440	2.995758	0.000000	0.258687	0.000000	0.011738	0.001515	0.000000	0.000000
17.612863	21.776627	12.375256	-1.382305	1.017068	3.112271	0.000000	0.167548	0.000000	0.012463	0.001123	0.000000	0.000000
18.161923	22.932539	11.515282	-0.709513	0.558160	3.178061	0.000000	0.073454	0.000000	0.012968	0.000711	0.000000	0.000000
18.710983	23.317256	11.134663	0.013441	0.139022	3.191966	0.000000	-0.021932	0.000000	0.013242	0.000286	0.000000	0.000000
19.009556	23.345142	11.044578	-0.053314	0.137184	3.187519	0.000000	-0.014550	0.000000	0.013337	0.000319	0.000000	0.000000
19.342889	23.385458	10.963371	-0.067633	0.106435	3.182562	0.000000	-0.014550	0.000000	0.013444	0.000319	0.000000	0.000000
19.676223	23.435319	10.902664	-0.081952	0.075687	3.177606	0.000000	-0.014550	0.000000	0.013550	0.000319	0.000000	0.000000
20.010806	23.495258	10.862209	-0.212733	0.098641	3.172651	0.000000	0.001170	0.000000	0.013657	0.000387	0.000000	0.000000
20.308129	23.625824	10.811710	-0.280302	0.095939	3.172893	0.000000	0.008468	0.000000	0.013772	0.000421	0.000000	0.000000
20.857189	23.526363	10.926006	0.460473	-0.305294	3.151419	0.000000	-0.086179	0.000000	0.013880	-0.000027	0.000000	0.000000
21.406249	22.626248	11.490281	1.168703	-0.728282	3.078548	0.000000	-0.179298	0.000000	0.013742	-0.000475	0.000000	0.000000
21.955309	20.989119	12.544739	1.794323	-1.203161	2.955571	0.000000	-0.269242	0.000000	0.013360	-0.000914	0.000000	0.000000
22.504369	18.730724	14.164502	2.293109	-1.763769	2.784666	0.000000	-0.354424	0.000000	0.012741	-0.001337	0.000000	0.000000
22.950329	16.953001	15.619705	1.705729	-1.484827	2.644270	0.000000	-0.277663	0.000000	0.012217	-0.001013	0.000000	0.000000
23.391289	15.675569	16.781498	1.201298	-1.139383	2.538399	0.000000	-0.204548	0.000000	0.011839	-0.000703	0.000000	0.000000
23.832249	14.817344	17.614459	0.751787	-0.742082	2.464102	0.000000	-0.133755	0.000000	0.011596	-0.000401	0.000000	0.000000
24.273209	14.339080	18.080680	0.336643	-0.311007	2.420536	0.000000	-0.064483	0.000000	0.011485	-0.000103	0.000000	0.000000
24.715418	14.219044	18.158638	-0.032236	0.094564	2.407208	0.000000	-0.001186	0.000000	0.011505	0.000166	0.000000	0.000000
25.012741	14.244436	18.107318	-0.053168	0.078044	2.406806	0.000000	-0.001186	0.000000	0.011554	0.000166	0.000000	0.000000
25.346075	14.287704	18.061462	-0.076635	0.059523	2.406355	0.000000	-0.001186	0.000000	0.011609	0.000166	0.000000	0.000000
25.679408	14.346617	18.027954	-0.100103	0.041002	2.405905	0.000000	-0.001186	0.000000	0.011665	0.000166	0.000000	0.000000
26.013991	14.421191	18.007102	-0.006664	-0.123671	2.405428	0.000000	-0.020700	0.000000	0.011720	0.000071	0.000000	0.000000
26.311314	14.431225	18.085700	0.004059	-0.179700	2.399248	0.000000	-0.025910	0.000000	0.011741	0.000044	0.000000	0.000000
26.752274	14.606098	18.048273	-0.401988	0.264240	2.402775	0.000000	0.042298	0.000000	0.011828	0.000348	0.000000	0.000000
27.193234	15.145911	17.623087	-0.826413	0.696153	2.436330	0.000000	0.110984	0.000000	0.012049	0.000656	0.000000	0.000000
27.634194	16.075351	16.829491	-1.288620	1.096384	2.500296	0.000000	0.180927	0.000000	0.012407	0.000971	0.000000	0.000000
28.075154	17.436926	15.703598	-1.809743	1.446714	2.595396	0.000000	0.252922	0.000000	0.012907	0.001297	0.000000	0.000000
28.521114	19.316849	14.279492	-2.418795	1.732366	2.724328	0.000000	0.328269	0.000000	0.013562	0.001641	0.000000	0.000000
29.070174	21.707582	12.693617	-1.907939	1.172452	2.881297	0.000000	0.245266	0.000000	0.014340	0.001189	0.000000	0.000000
29.619234	23.459262	11.673492	-1.262207	0.696078	2.991670	0.000000	0.157930	0.000000	0.014863	0.000715	0.000000	0.000000
30.168294	24.448023	11.146438	-0.527245	0.269304	3.053497	0.000000	0.067804	0.000000	0.015123	0.000230	0.000000	0.000000
30.717354	24.603951	11.074906	0.244988	-0.138282	3.065682	0.000000	-0.023523	0.000000	0.015115	-0.000260	0.000000	0.000000
31.015927	24.494574	11.150678	0.176604	-0.140418	3.060791	0.000000	-0.016568	0.000000	0.015048	-0.000224	0.000000	0.000000
31.349260	24.381516	11.254451	0.162571	-0.170901	3.055343	0.000000	-0.016568	0.000000	0.014974	-0.000224	0.000000	0.000000
31.682593	24.277813	11.378546	0.148538	-0.201384	3.049895	0.000000	-0.016568	0.000000	0.014899	-0.000224	0.000000	0.000000
32.017177	24.183128	11.523543	0.134453	-0.231982	3.044426	0.000000	-0.016568	0.000000	0.014824	-0.000224	0.000000	0.000000
32.314499	24.107052	11.669499	0.067041	-0.232631	3.039577	0.000000	-0.009647	0.000000	0.014758	-0.000187	0.000000	0.000000
32.863559	23.620656	12.163324	0.813109	-0.671892	3.009693	0.000000	-0.099838	0.000000	0.014524	-0.000662	0.000000	0.000000
33.412619	22.341532	13.162911	1.501692	-1.159027	2.930937	0.000000	-0.188269	0.000000	0.014033	-0.001125	0.000000	0.000000
33.961679	20.360133	14.739473	2.084113	-1.728745	2.804700	0.000000	-0.273378	0.000000	0.013293	-0.001567	0.000000	0.000000
34.510739	17.816563	17.005323	2.519206	-2.421638	2.633212	0.000000	-0.353661	0.000000	0.012317	-0.001982	0.000000	0.000000
34.956699	15.840484	19.032513	1.925899	-2.104154	2.492563	0.000000	-0.280841	0.000000	0.011502	-0.001673	0.000000	0.000000
35.397659	14.367570	20.713095	1.425819	-1.691920	2.384711	0.000000	-0.211666	0.000000	0.010828	-0.001386	0.000000	0.000000
35.838619	13.305534	21.994571	0.990923	-1.202684	2.306692	0.000000	-0.144888	0.000000	0.010277	-0.001113	0.000000	0.000000
36.279579	12.605808	22.818629	0.601329	-0.658715	2.257623	0.000000	-0.079749	0.000000	0.009844	-0.000854	0.000000	0.000000
36.721789	12.235760	23.148053	0.266354	-0.136156	2.236927	0.000000	-0.020488	0.000000	0.009522	-0.000627	0.000000	0.000000
37.019112	12.085111	23.232907	0.240330	-0.149238	2.231021	0.000000	-0.020488	0.000000	0.009336	-0.000627	0.000000	0.000000
37.352445	11.934616	23.337288	0.211155	-0.163905	2.224401	0.000000	-0.020488	0.000000	0.009127	-0.000627	0.000000	0.000000
37.685779	11.803571	23.451447	0.181980	-0.178572	2.217781	0.000000	-0.020488	0.000000	0.008918	-0.000627	0.000000	0.000000
38.020362	11.691594	23.575867	0.152695	-0.193294	2.211135	0.000000	-0.020488	0.000000	0.008708	-0.000627	0.000000	0.000000
38.317684	11.608507	23.694749	0.152796	-0.259912	2.205228	0.000000	-0.025451	0.000000	0.008522	-0.000647	0.000000	0.000000
38.758644	11.622482	23.661397	-0.184783	0.335249	2.208165	0.000000	0.037741	0.000000	0.008285	-0.000430	0.000000	0.000000
39.199604	11.936824	23.107849	-0.530804	0.915151	2.238948	0.000000	0.101367	0.000000	0.008142	-0.000218	0.000000	0.000000
39.640564	12.565897	22.059300	-0.901083	1.453404	2.297929	0.000000	0.166150	0.000000	0.008092	-0.000009	0.000000	0.000000
40.081524	13.538456	20.563467	-1.312544	1.925512	2.385781	0.000000	0.232826	0.000000	0.008134	0.000200	0.000000	0.000000
40.527484	14.916528	18.665680	-1.787951	2.311500	2.504990	0.000000	0.302583	0.000000	0.008270	0.000413	0.000000	0.000000
41.076544	16.677852	16.532555	-1.400439	1.596019	2.650431	0.000000	0.226892	0.000000	0.008423	0.000142	0.000000	0.000000
41.625604	17.956326	15.118521	-0.913969	0.994246	2.753286	0.000000	0.147179	0.000000	0.008426	-0.000131	0.000000	0.000000
42.174664	18.661598	14.322838	-0.362920	0.463309	2.811728	0.000000	0.064852	0.000000	0.008280	-0.000401	0.000000	0.000000
42.723724	18.743833	14.088815	0.213765	-0.034618	2.824718	0.000000	-0.018632	0.000000	0.007987	-0.000665	0.000000	0.000000
43.022297	18.648283	14.095280	0.151761	-0.021379	2.821398	0.000000	-0.011757	0.000000	0.007795	-0.000645	0.000000	0.000000
43.502297	18.515232	14.132157	0.125429	-0.055448	2.816064	0.000000	-0.011757	0.000000	0.007485	-0.000645	0.000000	0.000000
43.982297	18.407460	14.201741	0.099096	-0.089518	2.810730	0.000000	-0.011757	0.000000	0.007176	-0.000645	0.000000	0.000000
44.462297	18.324967	14.304031	0.072764	-0.123587	2.805396	0.000000	-0.011757	0.000000	0.006866	-0.000645	0.000000	0.000000
44.942297	18.267753	14.439029	0.046432	-0.157657	2.800062	0.000000	-0.011757	0.000000	0.006557	-0.000645	0.000000	0.000000
45.423547	18.235994	14.607031	-0.070321	-0.119443	2.794732	0.000000	0.002090	0.000000	0.006247	-0.000614	0.000000	0.000000
45.720870	18.282701	14.684180	-0.132010	-0.103829	2.795537	0.000000	0.009017	0.000000	0.006064	-0.000598	0.000000	0.000000
46.269930	18.119515	15.081957	0.427073	-0.624857	2.778189	0.000000	-0.073445	0.000000	0.005683	-0.000789	0.000000	0.000000
46.818990	17.355314	16.072868	0.955968	-1.190397	2.715945	0.000000	-0.154617	0.000000	0.005201	-0.000965	0.000000	0.000000
47.368050	16.044113	17.727490	1.417306	-1.840733	2.609904	0.000000	-0.233062	0.000000	0.004627	-0.001124	0.000000	0.000000
47.917110	14.278578	20.163674	1.778494	-2.622192	2.461939	0.000000	-0.307391	0.000000	0.003970	-0.001263	0.000000	0.000000
48.363070	12.903543	22.329130	1.315108	-2.212888	2.340729	0.000000	-0.238801	0.000000	0.003428	-0.001167	0.000000	0.000000
48.804030	11.923370	24.063126	0.915638	-1.704288	2.250424	0.000000	-0.173328	0.000000	0.002932	-0.001085	0.000000	0.000000
49.244990	11.275827	25.312508	0.558013	-1.118142	2.188501	0.000000	-0.109818	0.000000	0.002469	-0.001016	0.000000	0.000000
49.685950	10.931313	26.020436	0.225893	-0.481121	2.154257	0.000000	-0.047548	0.000000	0.002035	-0.000958	0.000000	0.000000
50.128160	10.874253	26.154419	-0.069759	0.114928	2.147321	0.000000	0.009007	0.000000	0.001622	-0.000915	0.000000	0.000000
50.425482	10.923904	26.089502	-0.097234	0.103410	2.150271	0.000000	0.009007	0.000000	0.001350	-0.000915	0.000000	0.000000
50.758816	10.998994	26.024867	-0.128037	0.090496	2.153578	0.000000	0.009007	0.000000	0.001045	-0.000915	0.000000	0.000000
51.092149	11.094620	25.968840	-0.158839	0.077583	2.156885	0.000000	0.009007	0.000000	0.000740	-0.000915	0.000000	0.000000
51.426732	11.211027	25.921786	-0.098806	-0.145668	2.160182	0.000000	-0.008518	0.000000	0.000434	-0.000918	0.000000	0.000000
51.724055	11.277744	26.011890	-0.097972	-0.221414	2.157923	0.000000	-0.013802	0.000000	0.000161	-0.000919	0.000000	0.000000
52.165015	11.510957	25.917608	-0.433208	0.434412	2.165896	0.000000	0.048221	0.000000	-0.000244	-0.000920	0.000000	0.000000
52.605975	12.047388	25.251485	-0.788231	1.070469	2.201319	0.000000	0.110803	0.000000	-0.000651	-0.000931	0.000000	0.000000
53.046935	12.911536	24.043839	-1.179257	1.657818	2.264598	0.000000	0.174657	0.000000	-0.001067	-0.000953	0.000000	0.000000
53.487895	14.142869	22.349624	-1.624150	2.169736	2.356458	0.000000	0.240510	0.000000	-0.001494	-0.000986	0.000000	0.000000
53.933855	15.818679	20.220609	-2.147502	2.584241	2.479470	0.000000	0.309509	0.000000	-0.001943	-0.001031	0.000000	0.000000
54.482915	17.975709	17.824498	-1.758432	1.805678	2.629587	0.000000	0.234597	0.000000	-0.002490	-0.000959	0.000000	0.000000
55.031975	19.634361	16.208112	-1.245187	1.155727	2.737320	0.000000	0.155508	0.000000	-0.002993	-0.000870	0.000000	0.000000
55.581035	20.677516	15.256312	-0.644017	0.588093	2.800753	0.000000	0.073647	0.000000	-0.003443	-0.000766	0.000000	0.000000
56.130095	21.031526	14.901296	0.002621	0.062346	2.818753	0.000000	-0.009532	0.000000	-0.003832	-0.000648	0.000000	0.000000
56.428668	21.068061	14.846048	-0.068316	0.082407	2.818372	0.000000	-0.001933	0.000000	-0.004028	-0.000658	0.000000	0.000000
56.762001	21.118903	14.798646	-0.084212	0.059802	2.817947	0.000000	-0.001933	0.000000	-0.004248	-0.000658	0.000000	0.000000
57.095334	21.180343	14.766313	-0.100107	0.037196	2.817522	0.000000	-0.001933	0.000000	-0.004467	-0.000658	0.000000	0.000000
57.429918	21.252670	14.749014	-0.116062	0.014506	2.817095	0.000000	-0.001933	0.000000	-0.004687	-0.000658	0.000000	0.000000
57.727240	21.325916	14.746373	-0.188210	0.034289	2.816717	0.000000	0.005723	0.000000	-0.004883	-0.000671	0.000000	0.000000
58.276300	21.167982	14.991411	0.473814	-0.483243	2.797334	0.000000	-0.077364	0.000000	-0.005207	-0.000508	0.000000	0.000000
58.825360	20.297340	15.820166	1.102366	-1.035188	2.732552	0.000000	-0.159088	0.000000	-0.005439	-0.000335	0.000000	0.000000
59.374420	18.775479	17.291654	1.653064	-1.660854	2.623519	0.000000	-0.237997	0.000000	-0.005574	-0.000157	0.000000	0.000000
59.923480	16.709868	19.510667	2.087022	-2.404799	2.472164	0.000000	-0.312687	0.000000	-0.005611	0.000024	0.000000	0.000000
60.369440	15.091696	21.482713	1.554463	-1.998739	2.348145	0.000000	-0.243911	0.000000	-0.005632	-0.000122	0.000000	0.000000
60.810400	13.926954	23.032617	1.097067	-1.503011	2.255236	0.000000	-0.178295	0.000000	-0.005718	-0.000268	0.000000	0.000000
61.251360	13.142008	24.113430	0.689783	-0.938909	2.190848	0.000000	-0.114706	0.000000	-0.005869	-0.000417	0.000000	0.000000
61.692320	12.701006	24.675985	0.314009	-0.332097	2.154250	0.000000	-0.052419	0.000000	-0.006087	-0.000571	0.000000	0.000000
62.134530	12.583853	24.694102	-0.014828	0.225882	2.145033	0.000000	0.003706	0.000000	-0.006375	-0.000716	0.000000	0.000000
62.431853	12.599697	24.563545	-0.038460	0.213228	2.146347	0.000000	0.003706	0.000000	-0.006588	-0.000716	0.000000	0.000000
62.765186	12.634169	24.426122	-0.064955	0.199041	2.147821	0.000000	0.003706	0.000000	-0.006826	-0.000716	0.000000	0.000000
63.098520	12.686304	24.298157	-0.091450	0.184853	2.149295	0.000000	0.003706	0.000000	-0.007065	-0.000716	0.000000	0.000000
63.433103	12.756397	24.179224	-0.118044	0.170613	2.150774	0.000000	0.003706	0.000000	-0.007304	-0.000716	0.000000	0.000000
63.730426	12.833596	24.081572	-0.108014	0.094545	2.152087	0.000000	-0.001939	0.000000	-0.007517	-0.000697	0.000000	0.000000
64.171386	13.091356	23.733083	-0.479104	0.692829	2.165211	0.000000	0.059987	0.000000	-0.007868	-0.000895	0.000000	0.000000
64.612346	13.684683	22.868954	-0.872068	1.259594	2.205852	0.000000	0.122606	0.000000	-0.008308	-0.001104	0.000000	0.000000
65.053306	14.640660	21.528503	-1.304850	1.769057	2.274478	0.000000	0.186633	0.000000	-0.008843	-0.001325	0.000000	0.000000
65.494266	16.002927	19.772716	-1.797213	2.198047	2.371873	0.000000	0.252800	0.000000	-0.009478	-0.001561	0.000000	0.000000
65.940226	17.857028	17.656573	-2.376113	2.527590	2.500746	0.000000	0.322231	0.000000	-0.010231	-0.001816	0.000000	0.000000
66.489286	20.230924	15.289737	-1.923403	1.809210	2.657968	0.000000	0.246536	0.000000	-0.011134	-0.001470	0.000000	0.000000
67.038346	22.029872	13.636730	-1.334928	1.219663	2.772172	0.000000	0.166446	0.000000	-0.011840	-0.001098	0.000000	0.000000
67.587406	23.126926	12.579825	-0.652232	0.716965	2.841325	0.000000	0.083386	0.000000	-0.012336	-0.000706	0.000000	0.000000
68.136466	23.444679	12.043751	0.076494	0.265320	2.864193	0.000000	-0.001164	0.000000	-0.012613	-0.000302	0.000000	0.000000
68.435038	23.443012	11.872700	-0.003759	0.273031	2.866402	0.000000	0.007084	0.000000	-0.012714	-0.000337	0.000000	0.000000
68.768372	23.450257	11.700735	-0.017978	0.242862	2.868876	0.000000	0.007084	0.000000	-0.012826	-0.000337	0.000000	0.000000
69.101705	23.466982	11.548883	-0.032197	0.212694	2.871349	0.000000	0.007084	0.000000	-0.012938	-0.000337	0.000000	0.000000
69.436288	23.493303	11.416688	-0.046469	0.182412	2.873832	0.000000	0.007084	0.000000	-0.013051	-0.000337	0.000000	0.000000
69.733611	23.524826	11.316160	-0.127152	0.188156	2.876046	0.000000	0.015398	0.000000	-0.013151	-0.000373	0.000000	0.000000
70.282671	23.260476	11.336303	0.605746	-0.225065	2.861213	0.000000	-0.069664	0.000000	-0.013239	0.000054	0.000000	0.000000
