#ParticleID	Turn	x[m]	xp	y[m]	yp	z[m]	dE[GeV]# s	beta_x	beta_y	alpha_x	alpha_y	D_x	D_y	D_px	D_py	orbit_x	orbit_px	orbit_y	orbit_py
0.300000	11.840541	24.955489	-0.014210	-0.027482	2.617555	0.000000	-0.000033	0.000000	-0.000031	0.000027	0.000000	0.000000
0.601250	11.856769	24.975686	-0.039657	-0.039562	2.617537	0.000000	-0.000033	0.000000	-0.000023	0.000027	0.000000	0.000000
0.898573	11.887818	25.002757	-0.035617	-0.112798	2.617519	0.000000	-0.006453	0.000000	-0.000014	0.000027	0.000000	0.000000
1.339533	12.071692	24.824925	-0.382940	0.514548	2.630952	0.000000	0.067489	0.000000	-0.000003	0.000027	0.000000	0.000000
1.780493	12.568405	24.102072	-0.747760	1.118483	2.677128	0.000000	0.142198	0.000000	0.000009	0.000027	0.000000	0.000000
2.221453	13.400653	22.867089	-1.146743	1.671528	2.756574	0.000000	0.218528	0.000000	0.000022	0.000028	0.000000	0.000000
2.662413	14.606457	21.176166	-1.598117	2.148520	2.870194	0.000000	0.297345	0.000000	0.000034	0.000028	0.000000	0.000000
3.108373	16.261744	19.081438	-2.126811	2.528886	3.021142	0.000000	0.380039	0.000000	0.000047	0.000029	0.000000	0.000000
3.657433	18.384291	16.728860	-1.716072	1.781139	3.204528	0.000000	0.287030	0.000000	0.000062	0.000028	0.000000	0.000000
4.206493	19.986162	15.123332	-1.184118	1.160259	3.335371	0.000000	0.188929	0.000000	0.000077	0.000025	0.000000	0.000000
4.755553	20.954207	14.150494	-0.568523	0.622021	3.411353	0.000000	0.087479	0.000000	0.000090	0.000023	0.000000	0.000000
5.304613	21.220046	13.741055	0.087230	0.128089	3.431125	0.000000	-0.015523	0.000000	0.000102	0.000020	0.000000	0.000000
5.603185	21.205243	13.649811	0.017749	0.141644	3.429159	0.000000	-0.006566	0.000000	0.000107	0.000020	0.000000	0.000000
5.936519	21.198651	13.563685	0.002024	0.116734	3.426963	0.000000	-0.006566	0.000000	0.000114	0.000020	0.000000	0.000000
6.269852	21.202543	13.494166	-0.013700	0.091824	3.424768	0.000000	-0.006566	0.000000	0.000121	0.000020	0.000000	0.000000
6.604435	21.216992	13.441086	-0.029483	0.066820	3.422565	0.000000	-0.006566	0.000000	0.000127	0.000020	0.000000	0.000000
6.901758	21.238694	13.407958	-0.098940	0.079598	3.420606	0.000000	0.002361	0.000000	0.000133	0.000020	0.000000	0.000000
7.450818	20.985262	13.581031	0.557791	-0.396675	3.393702	0.000000	-0.100185	0.000000	0.000143	0.000016	0.000000	0.000000
7.999878	20.028125	14.289463	1.175123	-0.901203	3.310902	0.000000	-0.200953	0.000000	0.000150	0.000011	0.000000	0.000000
8.548938	18.434889	15.583716	1.709449	-1.469921	3.173674	0.000000	-0.298157	0.000000	0.000155	0.000006	0.000000	0.000000
9.097998	16.318095	17.555975	2.123028	-2.143339	2.984454	0.000000	-0.390073	0.000000	0.000157	0.000001	0.000000	0.000000
9.543958	14.666436	19.313429	1.593738	-1.780831	2.828797	0.000000	-0.308391	0.000000	0.000158	0.000005	0.000000	0.000000
9.984918	13.464832	20.694198	1.141568	-1.338528	2.710046	0.000000	-0.230706	0.000000	0.000161	0.000009	0.000000	0.000000
10.425878	12.637589	21.656443	0.741554	-0.835322	2.624938	0.000000	-0.155649	0.000000	0.000166	0.000013	0.000000	0.000000
10.866838	12.146912	22.156382	0.375419	-0.294110	2.572504	0.000000	-0.082365	0.000000	0.000173	0.000018	0.000000	0.000000
11.309048	11.970243	22.170751	0.055635	0.206141	2.552126	0.000000	-0.016267	0.000000	0.000182	0.000022	0.000000	0.000000
11.606371	11.944568	22.052327	0.030720	0.192160	2.547283	0.000000	-0.016267	0.000000	0.000188	0.000022	0.000000	0.000000
12.086371	11.934385	21.878687	-0.009504	0.169590	2.539464	0.000000	-0.016267	0.000000	0.000199	0.000022	0.000000	0.000000
12.566371	11.962816	21.726714	-0.049727	0.147020	2.531645	0.000000	-0.016267	0.000000	0.000209	0.000022	0.000000	0.000000
13.046371	12.029861	21.596409	-0.089951	0.124450	2.523826	0.000000	-0.016267	0.000000	0.000220	0.000022	0.000000	0.000000
13.526371	12.135522	21.487771	-0.130175	0.101880	2.516008	0.000000	-0.016267	0.000000	0.000230	0.000022	0.000000	0.000000
14.007621	12.280223	21.400602	-0.170503	0.079251	2.508169	0.000000	-0.016267	0.000000	0.000241	0.000022	0.000000	0.000000
14.304943	12.389019	21.357633	-0.165108	0.013024	2.503325	0.000000	-0.022392	0.000000	0.000247	0.000021	0.000000	0.000000
14.745903	12.693432	21.112364	-0.527842	0.541072	2.509068	0.000000	0.048507	0.000000	0.000258	0.000028	0.000000	0.000000
15.186863	13.327136	20.410517	-0.914692	1.044501	2.546162	0.000000	0.119958	0.000000	0.000272	0.000035	0.000000	0.000000
15.627823	14.319082	19.284023	-1.343333	1.500406	2.615032	0.000000	0.192775	0.000000	0.000288	0.000042	0.000000	0.000000
16.068783	15.714591	17.784138	-1.833348	1.888044	2.716462	0.000000	0.267788	0.000000	0.000309	0.000049	0.000000	0.000000
16.514743	17.601073	15.957608	-2.411889	2.190531	2.853300	0.000000	0.346313	0.000000	0.000332	0.000058	0.000000	0.000000
17.063803	20.023623	13.918011	-1.974120	1.546085	3.019699	0.000000	0.259016	0.000000	0.000361	0.000047	0.000000	0.000000
17.612863	21.885564	12.521833	-1.396905	1.011763	3.136839	0.000000	0.167126	0.000000	0.000383	0.000034	0.000000	0.000000
18.161923	23.055373	11.669627	-0.721018	0.549508	3.202644	0.000000	0.072271	0.000000	0.000399	0.000022	0.000000	0.000000
18.710983	23.450417	11.300692	0.005799	0.126393	3.215944	0.000000	-0.023864	0.000000	0.000407	0.000009	0.000000	0.000000
19.009556	23.487230	11.215726	-0.068034	0.128756	3.211316	0.000000	-0.015490	0.000000	0.000410	0.000010	0.000000	0.000000
19.342889	23.537338	11.139960	-0.082292	0.098543	3.206150	0.000000	-0.015490	0.000000	0.000413	0.000010	0.000000	0.000000
19.676223	23.596952	11.084336	-0.096549	0.068330	3.200983	0.000000	-0.015490	0.000000	0.000417	0.000010	0.000000	0.000000
20.010806	23.666641	11.048621	-0.228118	0.092745	3.195817	0.000000	0.000344	0.000000	0.000420	0.000012	0.000000	0.000000
20.308129	23.806220	11.001541	-0.303315	0.094248	3.195915	0.000000	0.008664	0.000000	0.000424	0.000013	0.000000	0.000000
20.857189	23.728719	11.120534	0.443636	-0.312249	3.174460	0.000000	-0.086690	0.000000	0.000427	-0.000001	0.000000	0.000000
21.406249	22.843389	11.695434	1.159251	-0.740987	3.101002	0.000000	-0.180507	0.000000	0.000423	-0.000015	0.000000	0.000000
21.955309	21.212767	12.767190	1.792980	-1.222505	2.976843	0.000000	-0.271123	0.000000	0.000411	-0.000028	0.000000	0.000000
22.504369	18.952037	14.412140	2.300059	-1.791101	2.804187	0.000000	-0.356930	0.000000	0.000392	-0.000041	0.000000	0.000000
22.950329	17.170667	15.888851	1.708470	-1.506226	2.662313	0.000000	-0.279744	0.000000	0.000376	-0.000031	0.000000	0.000000
23.391289	15.893140	17.066251	1.199644	-1.153683	2.555285	0.000000	-0.206200	0.000000	0.000364	-0.000022	0.000000	0.000000
23.832249	15.038587	17.908311	0.745627	-0.748647	2.480135	0.000000	-0.135004	0.000000	0.000357	-0.000012	0.000000	0.000000
24.273209	14.567967	18.376718	0.325677	-0.309549	2.436007	0.000000	-0.065345	0.000000	0.000353	-0.000003	0.000000	0.000000
24.715418	14.459886	18.449913	-0.044140	0.098471	2.422396	0.000000	-0.002352	0.000000	0.000354	0.000005	0.000000	0.000000
25.012741	14.492259	18.396196	-0.064742	0.082199	2.421695	0.000000	-0.002352	0.000000	0.000356	0.000005	0.000000	0.000000
25.346075	14.543119	18.347477	-0.087839	0.063957	2.420910	0.000000	-0.002352	0.000000	0.000357	0.000005	0.000000	0.000000
25.679408	14.609377	18.310920	-0.110936	0.045715	2.420124	0.000000	-0.002352	0.000000	0.000359	0.000005	0.000000	0.000000
26.013991	14.691071	18.286826	-0.014936	-0.120947	2.419311	0.000000	-0.021979	0.000000	0.000361	0.000002	0.000000	0.000000
26.311314	14.705971	18.363652	0.000761	-0.182323	2.412776	0.000000	-0.027875	0.000000	0.000361	0.000001	0.000000	0.000000
26.752274	14.886540	18.325239	-0.411799	0.269103	2.415587	0.000000	0.040652	0.000000	0.000364	0.000011	0.000000	0.000000
27.193234	15.437847	17.892601	-0.843174	0.708285	2.448686	0.000000	0.109642	0.000000	0.000371	0.000020	0.000000	0.000000
27.634194	16.385082	17.085424	-1.313072	1.115239	2.512449	0.000000	0.179880	0.000000	0.000382	0.000030	0.000000	0.000000
28.075154	17.771521	15.940434	-1.842961	1.471451	2.607602	0.000000	0.252167	0.000000	0.000397	0.000040	0.000000	0.000000
28.521114	19.684609	14.492480	-2.462011	1.761634	2.736832	0.000000	0.327770	0.000000	0.000417	0.000050	0.000000	0.000000
29.070174	22.116191	12.879020	-1.940346	1.194281	2.894118	0.000000	0.244395	0.000000	0.000441	0.000037	0.000000	0.000000
29.619234	23.895801	11.838496	-1.281621	0.711994	3.004374	0.000000	0.156685	0.000000	0.000457	0.000022	0.000000	0.000000
30.168294	24.897732	11.296794	-0.532366	0.280422	3.065644	0.000000	0.066196	0.000000	0.000465	0.000007	0.000000	0.000000
30.717354	25.051211	11.215330	0.254493	-0.131176	3.076843	0.000000	-0.025467	0.000000	0.000465	-0.000008	0.000000	0.000000
31.015927	24.941861	11.284261	0.176949	-0.128885	3.071632	0.000000	-0.017459	0.000000	0.000463	-0.000007	0.000000	0.000000
31.349260	24.828489	11.380194	0.163166	-0.158915	3.065815	0.000000	-0.017459	0.000000	0.000461	-0.000007	0.000000	0.000000
31.682593	24.724306	11.496148	0.149383	-0.188945	3.059997	0.000000	-0.017459	0.000000	0.000458	-0.000007	0.000000	0.000000
32.017177	24.628973	11.632669	0.135548	-0.219088	3.054158	0.000000	-0.017459	0.000000	0.000456	-0.000007	0.000000	0.000000
32.314499	24.552025	11.770913	0.059349	-0.215237	3.048969	0.000000	-0.009523	0.000000	0.000454	-0.000006	0.000000	0.000000
32.863559	24.066300	12.246631	0.820048	-0.656294	3.018871	0.000000	-0.099976	0.000000	0.000447	-0.000020	0.000000	0.000000
33.412619	22.772245	13.229358	1.522822	-1.144097	2.939529	0.000000	-0.188657	0.000000	0.000432	-0.000034	0.000000	0.000000
33.961679	20.761270	14.789094	2.118028	-1.713393	2.812352	0.000000	-0.273991	0.000000	0.000409	-0.000048	0.000000	0.000000
34.510739	18.175423	17.036935	2.563624	-2.404731	2.639595	0.000000	-0.354467	0.000000	0.000379	-0.000061	0.000000	0.000000
34.956699	16.165067	19.047470	1.960413	-2.084757	2.497880	0.000000	-0.281549	0.000000	0.000354	-0.000051	0.000000	0.000000
35.397659	14.666099	20.709804	1.451774	-1.670685	2.389126	0.000000	-0.212266	0.000000	0.000334	-0.000043	0.000000	0.000000
35.838619	13.584882	21.971914	1.009464	-1.180597	2.310359	0.000000	-0.145400	0.000000	0.000317	-0.000034	0.000000	0.000000
36.279579	12.872016	22.776375	0.613274	-0.636793	2.260681	0.000000	-0.080190	0.000000	0.000304	-0.000026	0.000000	0.000000
36.721789	12.494242	23.086886	0.275552	-0.120521	2.239499	0.000000	-0.021370	0.000000	0.000294	-0.000019	0.000000	0.000000
37.019112	12.337999	23.162438	0.249948	-0.133587	2.233151	0.000000	-0.021370	0.000000	0.000288	-0.000019	0.000000	0.000000
37.352445	12.180935	23.256378	0.221244	-0.148235	2.226034	0.000000	-0.021370	0.000000	0.000282	-0.000019	0.000000	0.000000
37.685779	12.043007	23.360084	0.192539	-0.162882	2.218917	0.000000	-0.021370	0.000000	0.000275	-0.000019	0.000000	0.000000
38.020362	11.923806	23.473999	0.163727	-0.177585	2.211774	0.000000	-0.021370	0.000000	0.000269	-0.000019	0.000000	0.000000
38.317684	11.834059	23.583484	0.167072	-0.248347	2.205426	0.000000	-0.026765	0.000000	0.000263	-0.000020	0.000000	0.000000
38.758644	11.837714	23.541303	-0.175397	0.343638	2.207557	0.000000	0.036408	0.000000	0.000256	-0.000013	0.000000	0.000000
39.199604	12.145780	22.981964	-0.525879	0.919989	2.237607	0.000000	0.099995	0.000000	0.000252	-0.000007	0.000000	0.000000
39.640564	12.772332	21.930915	-0.900388	1.454480	2.295917	0.000000	0.164722	0.000000	0.000250	-0.000000	0.000000	0.000000
40.081524	13.745995	20.435979	-1.316033	1.922793	2.383154	0.000000	0.231324	0.000000	0.000251	0.000006	0.000000	0.000000
40.527484	15.128809	18.542600	-1.795630	2.304904	2.501781	0.000000	0.300967	0.000000	0.000256	0.000013	0.000000	0.000000
41.076544	16.893869	16.415002	-1.400019	1.592938	2.646496	0.000000	0.225412	0.000000	0.000261	0.000005	0.000000	0.000000
41.625604	18.167289	15.002710	-0.905516	0.994435	2.748571	0.000000	0.145858	0.000000	0.000261	-0.000004	0.000000	0.000000
42.174664	18.859120	14.205129	-0.347052	0.466763	2.806196	0.000000	0.063717	0.000000	0.000256	-0.000012	0.000000	0.000000
42.723724	18.920493	13.965450	0.235926	-0.027661	2.818346	0.000000	-0.019554	0.000000	0.000247	-0.000020	0.000000	0.000000
43.022297	18.813945	13.966605	0.170263	-0.012625	2.814708	0.000000	-0.012205	0.000000	0.000242	-0.000020	0.000000	0.000000
43.502297	18.663094	13.995224	0.144011	-0.046998	2.808859	0.000000	-0.012205	0.000000	0.000232	-0.000020	0.000000	0.000000
43.982297	18.537445	14.056841	0.117758	-0.081371	2.803010	0.000000	-0.012205	0.000000	0.000223	-0.000020	0.000000	0.000000
44.462297	18.436998	14.151456	0.091506	-0.115744	2.797161	0.000000	-0.012205	0.000000	0.000213	-0.000020	0.000000	0.000000
44.942297	18.361754	14.279070	0.065253	-0.150117	2.791312	0.000000	-0.012205	0.000000	0.000204	-0.000020	0.000000	0.000000
45.423547	18.311841	14.439964	-0.051795	-0.113036	2.785465	0.000000	0.001596	0.000000	0.000194	-0.000019	0.000000	0.000000
45.720870	18.347481	14.513380	-0.115938	-0.096032	2.785945	0.000000	0.008863	0.000000	0.000189	-0.000018	0.000000	0.000000
46.269930	18.165843	14.899610	0.444784	-0.611557	2.768249	0.000000	-0.073268	0.000000	0.000177	-0.000024	0.000000	0.000000
46.818990	17.382148	15.872405	0.974089	-1.170643	2.705752	0.000000	-0.154100	0.000000	0.000162	-0.000030	0.000000	0.000000
47.368050	16.051754	17.501055	1.434587	-1.813110	2.599561	0.000000	-0.232199	0.000000	0.000144	-0.000035	0.000000	0.000000
47.917110	14.268634	19.901564	1.793753	-2.584722	2.451561	0.000000	-0.306181	0.000000	0.000124	-0.000039	0.000000	0.000000
48.363070	12.880799	22.035923	1.329270	-2.181139	2.330327	0.000000	-0.237875	0.000000	0.000107	-0.000036	0.000000	0.000000
48.804030	11.888624	23.744854	0.929285	-1.679587	2.239909	0.000000	-0.172676	0.000000	0.000092	-0.000033	0.000000	0.000000
49.244990	11.229220	24.975940	0.571757	-1.101616	2.177780	0.000000	-0.109443	0.000000	0.000078	-0.000031	0.000000	0.000000
49.685950	10.872461	25.673166	0.240352	-0.473522	2.143233	0.000000	-0.047456	0.000000	0.000064	-0.000029	0.000000	0.000000
50.128160	10.802182	25.804529	-0.053712	0.112828	2.135885	0.000000	0.008756	0.000000	0.000052	-0.000028	0.000000	0.000000
50.425482	10.842329	25.740905	-0.081316	0.101159	2.138497	0.000000	0.008756	0.000000	0.000043	-0.000028	0.000000	0.000000
50.758816	10.906855	25.677826	-0.112263	0.088077	2.141425	0.000000	0.008756	0.000000	0.000034	-0.000028	0.000000	0.000000
51.092149	10.992012	25.623469	-0.143210	0.074995	2.144352	0.000000	0.008756	0.000000	0.000025	-0.000028	0.000000	0.000000
51.426732	11.098012	25.578197	-0.084238	-0.145639	2.147269	0.000000	-0.008664	0.000000	0.000015	-0.000028	0.000000	0.000000
51.724055	11.156126	25.668330	-0.083863	-0.220462	2.144702	0.000000	-0.013924	0.000000	0.000007	-0.000028	0.000000	0.000000
52.165015	11.375685	25.577223	-0.415948	0.426285	2.152165	0.000000	0.047752	0.000000	-0.000006	-0.000028	0.000000	0.000000
52.605975	11.895359	24.922144	-0.767037	1.053637	2.186919	0.000000	0.109972	0.000000	-0.000018	-0.000028	0.000000	0.000000
53.046935	12.738889	23.732898	-1.153170	1.633048	2.249359	0.000000	0.173444	0.000000	-0.000031	-0.000029	0.000000	0.000000
53.487895	13.944813	22.063596	-1.591987	2.138157	2.340197	0.000000	0.238892	0.000000	-0.000044	-0.000030	0.000000	0.000000
53.933855	15.588888	19.965229	-2.107780	2.547315	2.461973	0.000000	0.307460	0.000000	-0.000057	-0.000031	0.000000	0.000000
54.482915	17.705492	17.604134	-1.724378	1.778321	2.610617	0.000000	0.233132	0.000000	-0.000074	-0.000029	0.000000	0.000000
55.031975	19.331293	16.013392	-1.219175	1.135994	2.717251	0.000000	0.154668	0.000000	-0.000089	-0.000027	0.000000	0.000000
55.581035	20.351453	15.079697	-0.627856	0.574580	2.779984	0.000000	0.073460	0.000000	-0.000103	-0.000023	0.000000	0.000000
56.130095	20.693915	14.736544	0.007811	0.054093	2.797704	0.000000	-0.009051	0.000000	-0.000115	-0.000020	0.000000	0.000000
56.428668	20.725886	14.687327	-0.060770	0.072203	2.797192	0.000000	-0.001734	0.000000	-0.000121	-0.000020	0.000000	0.000000
56.762001	20.771780	14.646796	-0.076912	0.049390	2.796621	0.000000	-0.001734	0.000000	-0.000128	-0.000020	0.000000	0.000000
57.095334	20.828436	14.621474	-0.093054	0.026576	2.796050	0.000000	-0.001734	0.000000	-0.000135	-0.000020	0.000000	0.000000
57.429918	20.896126	14.611352	-0.109257	0.003677	2.795476	0.000000	-0.001734	0.000000	-0.000141	-0.000020	0.000000	0.000000
57.727240	20.965376	14.615215	-0.178502	0.021558	2.794967	0.000000	0.005578	0.000000	-0.000147	-0.000021	0.000000	0.000000
58.276300	20.803601	14.872271	0.471387	-0.492497	2.775391	0.000000	-0.076815	0.000000	-0.000157	-0.000016	0.000000	0.000000
58.825360	19.942314	15.709656	1.087980	-1.041632	2.710882	0.000000	-0.157845	0.000000	-0.000165	-0.000010	0.000000	0.000000
59.374420	18.442352	17.187012	1.627724	-1.664959	2.602584	0.000000	-0.236075	0.000000	-0.000169	-0.000005	0.000000	0.000000
59.923480	16.409663	19.409570	2.052494	-2.406877	2.452418	0.000000	-0.310119	0.000000	-0.000170	0.000000	0.000000	0.000000
60.369440	14.818502	21.385081	1.528091	-2.004230	2.329413	0.000000	-0.241815	0.000000	-0.000171	-0.000004	0.000000	0.000000
60.810400	13.673790	22.941410	1.077717	-1.511758	2.237238	0.000000	-0.176662	0.000000	-0.000174	-0.000008	0.000000	0.000000
61.251360	12.903139	24.031313	0.676580	-0.950503	2.173323	0.000000	-0.113522	0.000000	-0.000178	-0.000013	0.000000	0.000000
61.692320	12.471341	24.605201	0.306354	-0.346001	2.136942	0.000000	-0.051674	0.000000	-0.000185	-0.000018	0.000000	0.000000
62.134530	12.358718	24.636430	-0.019614	0.213671	2.127686	0.000000	0.004358	0.000000	-0.000194	-0.000022	0.000000	0.000000
62.431853	12.377537	24.513123	-0.043681	0.201051	2.128988	0.000000	0.004358	0.000000	-0.000201	-0.000022	0.000000	0.000000
62.765186	12.415651	24.383805	-0.070663	0.186904	2.130448	0.000000	0.004358	0.000000	-0.000208	-0.000022	0.000000	0.000000
63.098520	12.471754	24.263919	-0.097645	0.172756	2.131908	0.000000	0.004358	0.000000	-0.000215	-0.000022	0.000000	0.000000
63.433103	12.546156	24.153068	-0.124728	0.158555	2.133374	0.000000	0.004358	0.000000	-0.000223	-0.000022	0.000000	0.000000
63.730426	12.627480	24.062536	-0.117761	0.086792	2.134676	0.000000	-0.000888	0.000000	-0.000229	-0.000022	0.000000	0.000000
64.171386	12.892020	23.720980	-0.484442	0.684836	2.147840	0.000000	0.060602	0.000000	-0.000240	-0.000028	0.000000	0.000000
64.612346	13.488440	22.863777	-0.873255	1.251721	2.188247	0.000000	0.122783	0.000000	-0.000254	-0.000034	0.000000	0.000000
65.053306	14.443989	21.529928	-1.301964	1.761654	2.256359	0.000000	0.186362	0.000000	-0.000270	-0.000041	0.000000	0.000000
65.494266	15.802323	19.780122	-1.790155	2.191434	2.352950	0.000000	0.252065	0.000000	-0.000290	-0.000048	0.000000	0.000000
65.940226	17.648674	17.669205	-2.364820	2.522256	2.480693	0.000000	0.321040	0.000000	-0.000313	-0.000056	0.000000	0.000000
66.489286	20.015129	15.307676	-1.919724	1.804192	2.636615	0.000000	0.245987	0.000000	-0.000340	-0.000045	0.000000	0.000000
67.038346	21.815013	13.659893	-1.339031	1.214635	2.750062	0.000000	0.166571	0.000000	-0.000362	-0.000034	0.000000	0.000000
67.587406	22.921197	12.608490	-0.663758	0.711593	2.819022	0.000000	0.084200	0.000000	-0.000377	-0.000022	0.000000	0.000000
68.136466	23.255548	12.078578	0.058398	0.259236	2.842272	0.000000	0.000335	0.000000	-0.000386	-0.000009	0.000000	0.000000
68.435038	23.260910	11.912874	-0.015399	0.264088	2.844599	0.000000	0.007786	0.000000	-0.000389	-0.000010	0.000000	0.000000
68.768372	23.275954	11.746793	-0.029733	0.234155	2.847198	0.000000	0.007786	0.000000	-0.000393	-0.000010	0.000000	0.000000
69.101705	23.300554	11.600667	-0.044066	0.204223	2.849797	0.000000	0.007786	0.000000	-0.000396	-0.000010	0.000000	0.000000
69.436288	23.334855	11.474060	-0.058454	0.174178	2.852405	0.000000	0.007786	0.000000	-0.000400	-0.000010	0.000000	0.000000
69.733611	23.373416	11.378424	-0.132515	0.177308	2.854723	0.000000	0.015270	0.000000	-0.000403	-0.000011	0.000000	0.000000
70.282671	23.117520	11.411517	0.595816	-0.237936	2.839916	0.000000	-0.069136	0.000000	-0.000405	0.000002	0.000000	0.000000
