#ParticleID	Turn	x[m]	xp	y[m]	yp	z[m]	dE[GeV]# s	beta_x	beta_y	alpha_x	alpha_y	D_x	D_y	D_px	D_py	orbit_x	orbit_px	orbit_y	orbit_py
0.300000	11.936215	25.267079	-0.019763	-0.022373	2.603017	0.000000	0.000649	0.000000	-0.000623	0.000545	0.000000	0.000000
0.601250	11.955728	25.284152	-0.045011	-0.034301	2.603048	0.000000	0.000649	0.000000	-0.000459	0.000545	0.000000	0.000000
0.898573	11.989903	25.308050	-0.040445	-0.108114	2.603079	0.000000	-0.005752	0.000000	-0.000297	0.000546	0.000000	0.000000
1.339533	12.179176	25.122544	-0.390228	0.527201	2.616519	0.000000	0.067817	0.000000	-0.000057	0.000541	0.000000	0.000000
1.780493	12.683601	24.385216	-0.757843	1.138531	2.662540	0.000000	0.142152	0.000000	0.000182	0.000543	0.000000	0.000000
2.221453	13.526228	23.129608	-1.160086	1.698061	2.741662	0.000000	0.218101	0.000000	0.000423	0.000551	0.000000	0.000000
2.662413	14.745562	21.412846	-1.615337	2.180331	2.854785	0.000000	0.296528	0.000000	0.000668	0.000565	0.000000	0.000000
3.108373	16.418373	19.287883	-2.148754	2.564556	3.005047	0.000000	0.378817	0.000000	0.000925	0.000585	0.000000	0.000000
3.657433	18.562880	16.900917	-1.733557	1.808406	3.187625	0.000000	0.286338	0.000000	0.001237	0.000550	0.000000	0.000000
4.206493	20.181096	15.269117	-1.195892	1.181066	3.317979	0.000000	0.188788	0.000000	0.001527	0.000506	0.000000	0.000000
4.755553	21.158697	14.276259	-0.573740	0.637852	3.393801	0.000000	0.087898	0.000000	0.001790	0.000452	0.000000	0.000000
5.304613	21.426610	13.851627	0.088951	0.140072	3.413749	0.000000	-0.014544	0.000000	0.002022	0.000390	0.000000	0.000000
5.603185	21.410517	13.753422	0.019970	0.153350	3.411906	0.000000	-0.005776	0.000000	0.002140	0.000395	0.000000	0.000000
5.936519	21.402395	13.659458	0.004395	0.128544	3.409849	0.000000	-0.005776	0.000000	0.002272	0.000395	0.000000	0.000000
6.269852	21.404657	13.582031	-0.011180	0.103737	3.407792	0.000000	-0.005776	0.000000	0.002404	0.000395	0.000000	0.000000
6.604435	21.417369	13.520944	-0.026813	0.078838	3.405727	0.000000	-0.005776	0.000000	0.002536	0.000395	0.000000	0.000000
6.901758	21.437449	13.480640	-0.095463	0.091223	3.403892	0.000000	0.002919	0.000000	0.002653	0.000402	0.000000	0.000000
7.450818	21.176669	13.642028	0.567808	-0.386882	3.377261	0.000000	-0.099098	0.000000	0.002850	0.000313	0.000000	0.000000
7.999878	20.205288	14.340419	1.190973	-0.892548	3.295064	0.000000	-0.199352	0.000000	0.002996	0.000218	0.000000	0.000000
8.548938	18.591925	15.625564	1.730008	-1.461794	3.158762	0.000000	-0.296066	0.000000	0.003089	0.000120	0.000000	0.000000
9.097998	16.450555	17.589011	2.146830	-2.135171	2.970774	0.000000	-0.387526	0.000000	0.003127	0.000019	0.000000	0.000000
9.543958	14.779721	19.338366	1.612977	-1.770761	2.816149	0.000000	-0.306168	0.000000	0.003154	0.000101	0.000000	0.000000
9.984918	13.562755	20.709678	1.157235	-1.327095	2.698248	0.000000	-0.228792	0.000000	0.003216	0.000183	0.000000	0.000000
10.425878	12.722998	21.661468	0.754369	-0.823041	2.613826	0.000000	-0.154024	0.000000	0.003315	0.000267	0.000000	0.000000
10.866838	12.222078	22.150426	0.385971	-0.281534	2.561920	0.000000	-0.081013	0.000000	0.003452	0.000354	0.000000	0.000000
11.309048	12.036954	22.153740	0.063599	0.220138	2.541919	0.000000	-0.014947	0.000000	0.003629	0.000437	0.000000	0.000000
11.606371	12.006509	22.027019	0.038799	0.206067	2.537345	0.000000	-0.014947	0.000000	0.003758	0.000437	0.000000	0.000000
12.086371	11.988481	21.840100	-0.001240	0.183350	2.529961	0.000000	-0.014947	0.000000	0.003968	0.000437	0.000000	0.000000
12.566371	12.008889	21.674988	-0.041278	0.160633	2.522577	0.000000	-0.014947	0.000000	0.004177	0.000437	0.000000	0.000000
13.046371	12.067735	21.531684	-0.081317	0.137916	2.515193	0.000000	-0.014947	0.000000	0.004387	0.000437	0.000000	0.000000
13.526371	12.165018	21.410188	-0.121355	0.115200	2.507809	0.000000	-0.014947	0.000000	0.004597	0.000437	0.000000	0.000000
14.007621	12.301141	21.310269	-0.161498	0.092424	2.500406	0.000000	-0.014947	0.000000	0.004807	0.000437	0.000000	0.000000
14.304943	12.404540	21.259509	-0.157318	0.028810	2.495831	0.000000	-0.020778	0.000000	0.004936	0.000425	0.000000	0.000000
14.745903	12.702263	21.001555	-0.520191	0.553904	2.502048	0.000000	0.049943	0.000000	0.005152	0.000555	0.000000	0.000000
15.186863	13.329297	20.289862	-0.906839	1.053795	2.539490	0.000000	0.121227	0.000000	0.005427	0.000691	0.000000	0.000000
15.627823	14.314303	19.156810	-1.334934	1.505732	2.608581	0.000000	0.193884	0.000000	0.005763	0.000835	0.000000	0.000000
16.068783	15.702310	17.653954	-1.824041	1.889152	2.710107	0.000000	0.268741	0.000000	0.006165	0.000989	0.000000	0.000000
16.514743	17.580383	15.828146	-2.401399	2.187463	2.846917	0.000000	0.347133	0.000000	0.006643	0.001155	0.000000	0.000000
17.063803	19.991657	13.790135	-1.963236	1.545896	3.013312	0.000000	0.260023	0.000000	0.007216	0.000931	0.000000	0.000000
17.612863	21.842195	12.392449	-1.386338	1.014459	3.130663	0.000000	0.168315	0.000000	0.007662	0.000690	0.000000	0.000000
18.161923	23.001208	11.535524	-0.711469	0.555292	3.196894	0.000000	0.073632	0.000000	0.007972	0.000436	0.000000	0.000000
18.710983	23.386773	11.158319	0.013682	0.135685	3.210834	0.000000	-0.022350	0.000000	0.008140	0.000175	0.000000	0.000000
19.009556	23.416323	11.069338	-0.055957	0.135313	3.206430	0.000000	-0.014545	0.000000	0.008198	0.000196	0.000000	0.000000
19.342889	23.458387	10.989351	-0.070236	0.104649	3.201516	0.000000	-0.014545	0.000000	0.008263	0.000196	0.000000	0.000000
19.676223	23.509971	10.929807	-0.084516	0.073984	3.196602	0.000000	-0.014545	0.000000	0.008329	0.000196	0.000000	0.000000
20.010806	23.571614	10.890462	-0.215636	0.097163	3.191690	0.000000	0.001268	0.000000	0.008394	0.000237	0.000000	0.000000
20.308129	23.703815	10.840856	-0.286276	0.095915	3.192000	0.000000	0.009003	0.000000	0.008465	0.000259	0.000000	0.000000
20.857189	23.609501	10.955596	0.457094	-0.306099	3.170696	0.000000	-0.086250	0.000000	0.008532	-0.000017	0.000000	0.000000
21.406249	22.711655	11.521163	1.168166	-0.729921	3.097574	0.000000	-0.179974	0.000000	0.008447	-0.000292	0.000000	0.000000
21.955309	21.073731	12.577849	1.796689	-1.205746	2.973930	0.000000	-0.270509	0.000000	0.008212	-0.000562	0.000000	0.000000
22.504369	18.811495	14.200928	2.298245	-1.767471	2.801956	0.000000	-0.356254	0.000000	0.007832	-0.000822	0.000000	0.000000
22.950329	17.030289	15.658928	1.709117	-1.487715	2.660658	0.000000	-0.279080	0.000000	0.007510	-0.000623	0.000000	0.000000
23.391289	15.750784	16.822743	1.202975	-1.141237	2.554119	0.000000	-0.205560	0.000000	0.007278	-0.000432	0.000000	0.000000
23.832249	14.891905	17.656798	0.751814	-0.742824	2.479377	0.000000	-0.134376	0.000000	0.007128	-0.000246	0.000000	0.000000
24.273209	14.414392	18.123140	0.335015	-0.310606	2.435583	0.000000	-0.064721	0.000000	0.007060	-0.000063	0.000000	0.000000
24.715418	14.296522	18.200287	-0.033889	0.094053	2.422239	0.000000	-0.001337	0.000000	0.007072	0.000102	0.000000	0.000000
25.012741	14.322864	18.149258	-0.054709	0.077573	2.421811	0.000000	-0.001337	0.000000	0.007103	0.000102	0.000000	0.000000
25.346075	14.367117	18.103702	-0.078052	0.059096	2.421331	0.000000	-0.001337	0.000000	0.007137	0.000102	0.000000	0.000000
25.679408	14.426933	18.070464	-0.101394	0.040619	2.420851	0.000000	-0.001337	0.000000	0.007171	0.000102	0.000000	0.000000
26.013991	14.502328	18.049854	-0.007172	-0.124356	2.420345	0.000000	-0.020973	0.000000	0.007205	0.000044	0.000000	0.000000
26.311314	14.512666	18.128803	0.005440	-0.182442	2.414095	0.000000	-0.026481	0.000000	0.007218	0.000027	0.000000	0.000000
26.752274	14.687118	18.093285	-0.402469	0.262674	2.417485	0.000000	0.042100	0.000000	0.007271	0.000213	0.000000	0.000000
27.193234	15.228109	17.668960	-0.828774	0.695838	2.451116	0.000000	0.111158	0.000000	0.007407	0.000403	0.000000	0.000000
27.634194	16.160369	16.875136	-1.292958	1.097335	2.515370	0.000000	0.181478	0.000000	0.007627	0.000596	0.000000	0.000000
28.075154	17.526518	15.747935	-1.816241	1.448896	2.610977	0.000000	0.253860	0.000000	0.007934	0.000797	0.000000	0.000000
28.521114	19.412886	14.321578	-2.427626	1.735583	2.740640	0.000000	0.329596	0.000000	0.008336	0.001008	0.000000	0.000000
29.070174	21.811332	12.732965	-1.913733	1.174474	2.898469	0.000000	0.246065	0.000000	0.008814	0.000730	0.000000	0.000000
29.619234	23.567257	11.711292	-1.264596	0.697039	3.009316	0.000000	0.158181	0.000000	0.009135	0.000439	0.000000	0.000000
30.168294	24.556548	11.183778	-0.526089	0.269264	3.071218	0.000000	0.067497	0.000000	0.009295	0.000141	0.000000	0.000000
30.717354	24.709280	11.112845	0.249596	-0.139328	3.083079	0.000000	-0.024382	0.000000	0.009289	-0.000160	0.000000	0.000000
31.015927	24.599388	11.188225	0.177665	-0.139790	3.078049	0.000000	-0.016969	0.000000	0.009248	-0.000137	0.000000	0.000000
31.349260	24.485604	11.291543	0.163687	-0.170165	3.072439	0.000000	-0.016969	0.000000	0.009203	-0.000137	0.000000	0.000000
31.682593	24.381139	11.415111	0.149709	-0.200540	3.066828	0.000000	-0.016969	0.000000	0.009157	-0.000137	0.000000	0.000000
32.017177	24.285653	11.559507	0.135678	-0.231030	3.061197	0.000000	-0.016969	0.000000	0.009111	-0.000137	0.000000	0.000000
32.314499	24.208738	11.704916	0.064880	-0.229941	3.056196	0.000000	-0.009605	0.000000	0.009070	-0.000114	0.000000	0.000000
32.863559	23.723002	12.196207	0.814258	-0.670013	3.026108	0.000000	-0.100317	0.000000	0.008927	-0.000406	0.000000	0.000000
33.412619	22.441041	13.194031	1.506091	-1.157819	2.946773	0.000000	-0.189255	0.000000	0.008626	-0.000690	0.000000	0.000000
33.961679	20.453469	14.769470	2.091485	-1.728112	2.819596	0.000000	-0.274847	0.000000	0.008171	-0.000963	0.000000	0.000000
34.510739	17.900769	17.034749	2.529076	-2.421518	2.646828	0.000000	-0.355578	0.000000	0.007572	-0.001218	0.000000	0.000000
34.956699	15.917256	19.061230	1.933560	-2.103116	2.505108	0.000000	-0.282439	0.000000	0.007072	-0.001028	0.000000	0.000000
35.397659	14.438674	20.740356	1.431521	-1.689906	2.396375	0.000000	-0.212959	0.000000	0.006658	-0.000851	0.000000	0.000000
35.838619	13.372526	22.019586	0.994910	-1.199795	2.317649	0.000000	-0.145896	0.000000	0.006320	-0.000683	0.000000	0.000000
36.279579	12.670076	22.840712	0.603771	-0.655087	2.268036	0.000000	-0.080487	0.000000	0.006054	-0.000524	0.000000	0.000000
36.721789	12.298552	23.166686	0.268585	-0.134119	2.246949	0.000000	-0.021190	0.000000	0.005857	-0.000384	0.000000	0.000000
37.019112	12.146545	23.250324	0.242666	-0.147184	2.240763	0.000000	-0.021190	0.000000	0.005742	-0.000384	0.000000	0.000000
37.352445	11.994454	23.353329	0.213607	-0.161832	2.233827	0.000000	-0.021190	0.000000	0.005614	-0.000384	0.000000	0.000000
37.685779	11.861736	23.466099	0.184548	-0.176479	2.226892	0.000000	-0.021190	0.000000	0.005486	-0.000384	0.000000	0.000000
38.020362	11.748001	23.589112	0.155381	-0.191181	2.219931	0.000000	-0.021190	0.000000	0.005358	-0.000384	0.000000	0.000000
38.317684	11.663302	23.706701	0.156627	-0.259593	2.213744	0.000000	-0.026346	0.000000	0.005243	-0.000397	0.000000	0.000000
38.758644	11.674454	23.672942	-0.182122	0.335853	2.216243	0.000000	0.037054	0.000000	0.005098	-0.000263	0.000000	0.000000
39.199604	11.986922	23.118769	-0.529191	0.916015	2.246712	0.000000	0.100878	0.000000	0.005011	-0.000133	0.000000	0.000000
39.640564	12.614984	22.069402	-0.900441	1.454493	2.305499	0.000000	0.165854	0.000000	0.004980	-0.000004	0.000000	0.000000
40.081524	13.587342	20.572591	-1.312839	1.926783	2.393273	0.000000	0.232718	0.000000	0.005007	0.000124	0.000000	0.000000
40.527484	14.965968	18.673753	-1.789131	2.312821	2.512518	0.000000	0.302656	0.000000	0.005091	0.000255	0.000000	0.000000
41.076544	16.727422	16.539440	-1.399690	1.597053	2.657983	0.000000	0.226728	0.000000	0.005186	0.000089	0.000000	0.000000
41.625604	18.003980	15.124463	-0.911359	0.995057	2.760679	0.000000	0.146781	0.000000	0.005189	-0.000079	0.000000	0.000000
42.174664	18.705444	14.328025	-0.358642	0.463948	2.818782	0.000000	0.064227	0.000000	0.005099	-0.000246	0.000000	0.000000
42.723724	18.782255	14.093386	0.219410	-0.034110	2.831262	0.000000	-0.019469	0.000000	0.004919	-0.000408	0.000000	0.000000
43.022297	18.684190	14.098970	0.156017	-0.019926	2.827682	0.000000	-0.012381	0.000000	0.004801	-0.000396	0.000000	0.000000
43.502297	18.547045	14.134447	0.129701	-0.053985	2.821930	0.000000	-0.012381	0.000000	0.004611	-0.000396	0.000000	0.000000
43.982297	18.435164	14.202620	0.103385	-0.088043	2.816177	0.000000	-0.012381	0.000000	0.004421	-0.000396	0.000000	0.000000
44.462297	18.348545	14.303490	0.077070	-0.122102	2.810424	0.000000	-0.012381	0.000000	0.004232	-0.000396	0.000000	0.000000
44.942297	18.287189	14.437056	0.050754	-0.156161	2.804671	0.000000	-0.012381	0.000000	0.004042	-0.000396	0.000000	0.000000
45.423547	18.251262	14.603613	-0.066056	-0.117952	2.798921	0.000000	0.001487	0.000000	0.003851	-0.000377	0.000000	0.000000
45.720870	18.295414	14.679885	-0.128709	-0.101531	2.799475	0.000000	0.008570	0.000000	0.003739	-0.000367	0.000000	0.000000
46.269930	18.128497	15.075006	0.430676	-0.622313	2.781708	0.000000	-0.074007	0.000000	0.003505	-0.000484	0.000000	0.000000
46.818990	17.360403	16.062877	0.959626	-1.187424	2.718951	0.000000	-0.155280	0.000000	0.003209	-0.000593	0.000000	0.000000
47.368050	16.045410	17.713857	1.420773	-1.837117	2.612313	0.000000	-0.233807	0.000000	0.002856	-0.000691	0.000000	0.000000
47.917110	14.276432	20.145542	1.781540	-2.617671	2.463681	0.000000	-0.308199	0.000000	0.002452	-0.000777	0.000000	0.000000
48.363070	12.898889	22.307024	1.317957	-2.208631	2.341919	0.000000	-0.239576	0.000000	0.002119	-0.000718	0.000000	0.000000
48.804030	11.916340	24.037407	0.918392	-1.700451	2.251095	0.000000	-0.174081	0.000000	0.001814	-0.000667	0.000000	0.000000
49.244990	11.266433	25.283637	0.560794	-1.114900	2.188671	0.000000	-0.110561	0.000000	0.001529	-0.000624	0.000000	0.000000
49.685950	10.919469	25.989015	0.228823	-0.478622	2.153938	0.000000	-0.048294	0.000000	0.001262	-0.000588	0.000000	0.000000
50.128160	10.859754	26.121161	-0.066429	0.116146	2.146513	0.000000	0.008216	0.000000	0.001008	-0.000562	0.000000	0.000000
50.425482	10.907432	26.055526	-0.093929	0.104610	2.149123	0.000000	0.008216	0.000000	0.000842	-0.000562	0.000000	0.000000
50.758816	10.980327	25.990097	-0.124758	0.091677	2.152049	0.000000	0.008216	0.000000	0.000654	-0.000562	0.000000	0.000000
51.092149	11.073776	25.933290	-0.155588	0.078743	2.154974	0.000000	0.008216	0.000000	0.000467	-0.000562	0.000000	0.000000
51.426732	11.188018	25.885466	-0.095769	-0.144234	2.157889	0.000000	-0.009291	0.000000	0.000279	-0.000564	0.000000	0.000000
51.724055	11.252940	25.974720	-0.095022	-0.219798	2.155295	0.000000	-0.014570	0.000000	0.000112	-0.000564	0.000000	0.000000
52.165015	11.483328	25.879452	-0.429612	0.435023	2.162762	0.000000	0.047378	0.000000	-0.000137	-0.000564	0.000000	0.000000
52.605975	12.016299	25.213243	-0.783826	1.070049	2.197642	0.000000	0.109873	0.000000	-0.000387	-0.000571	0.000000	0.000000
53.046935	12.876196	24.006411	-1.173846	1.656386	2.260333	0.000000	0.173624	0.000000	-0.000642	-0.000584	0.000000	0.000000
53.487895	14.102299	22.313870	-1.617490	2.167359	2.351553	0.000000	0.239360	0.000000	-0.000903	-0.000604	0.000000	0.000000
53.933855	15.771585	20.187342	-2.139296	2.581039	2.473855	0.000000	0.308225	0.000000	-0.001179	-0.000631	0.000000	0.000000
54.482915	17.920313	17.794114	-1.751372	1.803546	2.623116	0.000000	0.233506	0.000000	-0.001514	-0.000588	0.000000	0.000000
55.031975	19.572197	16.179530	-1.239758	1.154514	2.730124	0.000000	0.154635	0.000000	-0.001822	-0.000534	0.000000	0.000000
55.581035	20.610581	15.228581	-0.640592	0.587714	2.792977	0.000000	0.073014	0.000000	-0.002098	-0.000470	0.000000	0.000000
56.130095	20.962141	14.873530	0.003809	0.062775	2.810555	0.000000	-0.009911	0.000000	-0.002337	-0.000398	0.000000	0.000000
56.428668	20.997470	14.818395	-0.066310	0.082193	2.809952	0.000000	-0.002424	0.000000	-0.002458	-0.000404	0.000000	0.000000
56.762001	21.046992	14.771149	-0.082254	0.059546	2.809278	0.000000	-0.002424	0.000000	-0.002592	-0.000404	0.000000	0.000000
57.095334	21.107143	14.739000	-0.098199	0.036900	2.808605	0.000000	-0.002424	0.000000	-0.002727	-0.000404	0.000000	0.000000
57.429918	21.178209	14.721913	-0.114204	0.014168	2.807929	0.000000	-0.002424	0.000000	-0.002863	-0.000404	0.000000	0.000000
57.727240	21.250354	14.719490	-0.185325	0.033295	2.807329	0.000000	0.005093	0.000000	-0.002983	-0.000412	0.000000	0.000000
58.276300	21.090711	14.965206	0.474154	-0.483476	2.787562	0.000000	-0.077690	0.000000	-0.003182	-0.000312	0.000000	0.000000
58.825360	20.221139	15.793836	1.100138	-1.034681	2.722601	0.000000	-0.159100	0.000000	-0.003325	-0.000207	0.000000	0.000000
59.374420	18.703055	17.264393	1.648422	-1.659575	2.613596	0.000000	-0.237691	0.000000	-0.003409	-0.000098	0.000000	0.000000
59.923480	16.643671	19.481611	2.080284	-2.402665	2.462478	0.000000	-0.312068	0.000000	-0.003432	0.000013	0.000000	0.000000
60.369440	15.030723	21.452093	1.549414	-1.997329	2.338673	0.000000	-0.243530	0.000000	-0.003446	-0.000076	0.000000	0.000000
60.810400	13.869735	23.001167	1.093519	-1.502434	2.245845	0.000000	-0.178153	0.000000	-0.003500	-0.000166	0.000000	0.000000
61.251360	13.087315	24.081881	0.687577	-0.939186	2.181409	0.000000	-0.114803	0.000000	-0.003593	-0.000257	0.000000	0.000000
61.692320	12.647722	24.645071	0.313045	-0.333211	2.144632	0.000000	-0.052757	0.000000	-0.003727	-0.000352	0.000000	0.000000
62.134530	12.530917	24.664543	-0.015430	0.225332	2.135102	0.000000	0.003264	0.000000	-0.003904	-0.000440	0.000000	0.000000
62.431853	12.547149	24.534316	-0.039163	0.212665	2.136204	0.000000	0.003264	0.000000	-0.004035	-0.000440	0.000000	0.000000
62.765186	12.582127	24.397273	-0.065770	0.198464	2.137438	0.000000	0.003264	0.000000	-0.004182	-0.000440	0.000000	0.000000
63.098520	12.634843	24.269697	-0.092377	0.184264	2.138673	0.000000	0.003264	0.000000	-0.004329	-0.000440	0.000000	0.000000
63.433103	12.705594	24.151163	-0.119084	0.170009	2.139912	0.000000	0.003264	0.000000	-0.004476	-0.000440	0.000000	0.000000
63.730426	12.783456	24.053849	-0.110120	0.095669	2.141013	0.000000	-0.002212	0.000000	-0.004607	-0.000429	0.000000	0.000000
64.171386	13.042657	23.704678	-0.480139	0.693214	2.153824	0.000000	0.059429	0.000000	-0.004823	-0.000550	0.000000	0.000000
64.612346	13.636536	22.840504	-0.872085	1.259222	2.193992	0.000000	0.121754	0.000000	-0.005093	-0.000678	0.000000	0.000000
65.053306	14.592212	21.500648	-1.303860	1.767942	2.261978	0.000000	0.185472	0.000000	-0.005422	-0.000814	0.000000	0.000000
65.494266	15.953326	19.746070	-1.795183	2.196231	2.358558	0.000000	0.251311	0.000000	-0.005812	-0.000958	0.000000	0.000000
65.940226	17.805303	17.631775	-2.373061	2.525220	2.486411	0.000000	0.320404	0.000000	-0.006274	-0.001115	0.000000	0.000000
66.489286	20.177169	15.266988	-1.922184	1.807577	2.642432	0.000000	0.245182	0.000000	-0.006829	-0.000903	0.000000	0.000000
67.038346	21.976089	13.615316	-1.335591	1.218663	2.755775	0.000000	0.165597	0.000000	-0.007262	-0.000675	0.000000	0.000000
67.587406	23.075072	12.559121	-0.654703	0.716536	2.824426	0.000000	0.083064	0.000000	-0.007567	-0.000434	0.000000	0.000000
68.136466	23.396542	12.023180	0.072406	0.265438	2.847164	0.000000	-0.000949	0.000000	-0.007738	-0.000186	0.000000	0.000000
68.435038	23.395897	11.852803	-0.005370	0.271828	2.849303	0.000000	0.006963	0.000000	-0.007800	-0.000207	0.000000	0.000000
68.768372	23.404227	11.681652	-0.019618	0.241627	2.851693	0.000000	0.006963	0.000000	-0.007869	-0.000207	0.000000	0.000000
69.101705	23.422055	11.530634	-0.033866	0.211426	2.854083	0.000000	0.006963	0.000000	-0.007938	-0.000207	0.000000	0.000000
69.436288	23.449502	11.399297	-0.048168	0.181112	2.856482	0.000000	0.006963	0.000000	-0.008007	-0.000207	0.000000	0.000000
69.733611	23.481968	11.299587	-0.126289	0.185615	2.858616	0.000000	0.014926	0.000000	-0.008069	-0.000229	0.000000	0.000000
70.282671	23.217403	11.322291	0.605278	-0.227214	2.843642	0.000000	-0.069583	0.000000	-0.008123	0.000033	0.000000	0.000000
