#ParticleID	Turn	x[m]	xp	y[m]	yp	z[m]	dE[GeV]# s	beta_x	beta_y	alpha_x	alpha_y	D_x	D_y	D_px	D_py	orbit_x	orbit_px	orbit_y	orbit_py
0.300000	11.963514	25.293360	-0.017776	-0.022745	2.598736	0.000000	-0.000336	0.000000	-0.001087	0.000932	0.000000	0.000000
0.601250	11.981812	25.310653	-0.042964	-0.034661	2.598354	0.000000	-0.000336	0.000000	-0.000806	0.000932	0.000000	0.000000
0.898573	12.014752	25.334762	-0.038214	-0.108523	2.597977	0.000000	-0.006739	0.000000	-0.000529	0.000933	0.000000	0.000000
1.339533	12.202348	25.149303	-0.388507	0.527503	2.610789	0.000000	0.066690	0.000000	-0.000120	0.000925	0.000000	0.000000
1.780493	12.705513	24.411398	-0.756558	1.139533	2.656116	0.000000	0.140868	0.000000	0.000288	0.000927	0.000000	0.000000
2.221453	13.547246	23.154610	-1.159182	1.699717	2.734470	0.000000	0.216642	0.000000	0.000699	0.000939	0.000000	0.000000
2.662413	14.766013	21.436116	-1.614775	2.182567	2.846742	0.000000	0.294872	0.000000	0.001118	0.000963	0.000000	0.000000
3.108373	16.438566	19.308914	-2.148527	2.567288	2.996045	0.000000	0.376943	0.000000	0.001555	0.000997	0.000000	0.000000
3.657433	18.582455	16.919356	-1.732418	1.810376	3.177469	0.000000	0.284771	0.000000	0.002087	0.000938	0.000000	0.000000
4.206493	20.199086	15.285721	-1.193911	1.182416	3.306861	0.000000	0.187563	0.000000	0.002582	0.000863	0.000000	0.000000
4.755553	21.174231	14.291659	-0.571044	0.638679	3.381934	0.000000	0.087041	0.000000	0.003032	0.000772	0.000000	0.000000
5.304613	21.438977	13.866370	0.092180	0.140434	3.401361	0.000000	-0.015012	0.000000	0.003427	0.000667	0.000000	0.000000
5.603185	21.420570	13.768214	0.023839	0.153286	3.399253	0.000000	-0.006382	0.000000	0.003629	0.000676	0.000000	0.000000
5.936519	21.409868	13.674283	0.008269	0.128507	3.396900	0.000000	-0.006382	0.000000	0.003854	0.000676	0.000000	0.000000
6.269852	21.409545	13.596872	-0.007302	0.103727	3.394547	0.000000	-0.006382	0.000000	0.004080	0.000676	0.000000	0.000000
6.604435	21.419661	13.535783	-0.022930	0.078855	3.392186	0.000000	-0.006382	0.000000	0.004306	0.000676	0.000000	0.000000
6.901758	21.437438	13.495455	-0.090688	0.090800	3.390088	0.000000	0.002136	0.000000	0.004507	0.000688	0.000000	0.000000
7.450818	21.171521	13.657562	0.572474	-0.387768	3.363016	0.000000	-0.099432	0.000000	0.004843	0.000536	0.000000	0.000000
7.999878	20.195259	14.357229	1.195203	-0.893962	3.280659	0.000000	-0.199227	0.000000	0.005094	0.000375	0.000000	0.000000
8.548938	18.577619	15.644302	1.733497	-1.463842	3.144483	0.000000	-0.295482	0.000000	0.005254	0.000207	0.000000	0.000000
9.097998	16.432891	17.610475	2.149323	-2.138006	2.956906	0.000000	-0.386493	0.000000	0.005321	0.000036	0.000000	0.000000
9.543958	14.759797	19.362181	1.615464	-1.773040	2.802641	0.000000	-0.305477	0.000000	0.005368	0.000175	0.000000	0.000000
9.984918	13.540555	20.735284	1.159883	-1.328762	2.684922	0.000000	-0.228442	0.000000	0.005476	0.000315	0.000000	0.000000
10.425878	12.698344	21.688275	0.757305	-0.824016	2.600509	0.000000	-0.154013	0.000000	0.005646	0.000458	0.000000	0.000000
10.866838	12.194677	22.177786	0.389330	-0.281770	2.548437	0.000000	-0.081342	0.000000	0.005880	0.000606	0.000000	0.000000
11.309048	12.006386	22.180956	0.066734	0.221838	2.528093	0.000000	-0.015437	0.000000	0.006183	0.000747	0.000000	0.000000
11.606371	11.974099	22.053223	0.041860	0.207774	2.523281	0.000000	-0.015437	0.000000	0.006405	0.000747	0.000000	0.000000
12.086371	11.953189	21.864658	0.001703	0.185069	2.515512	0.000000	-0.015437	0.000000	0.006764	0.000747	0.000000	0.000000
12.566371	11.970829	21.697891	-0.038454	0.162363	2.507744	0.000000	-0.015437	0.000000	0.007122	0.000747	0.000000	0.000000
13.046371	12.027020	21.552921	-0.078611	0.139658	2.499975	0.000000	-0.015437	0.000000	0.007481	0.000747	0.000000	0.000000
13.526371	12.121761	21.429747	-0.118767	0.116953	2.492207	0.000000	-0.015437	0.000000	0.007840	0.000747	0.000000	0.000000
14.007621	12.255451	21.328135	-0.159029	0.094189	2.484418	0.000000	-0.015437	0.000000	0.008199	0.000747	0.000000	0.000000
14.304943	12.357386	21.276352	-0.156067	0.032412	2.479603	0.000000	-0.021023	0.000000	0.008422	0.000727	0.000000	0.000000
14.745903	12.653600	21.015023	-0.517847	0.557895	2.485473	0.000000	0.049282	0.000000	0.008791	0.000949	0.000000	0.000000
15.186863	13.278155	20.299667	-0.903303	1.057991	2.522343	0.000000	0.120138	0.000000	0.009260	0.001182	0.000000	0.000000
15.627823	14.259614	19.162829	-1.330054	1.509940	2.590631	0.000000	0.192350	0.000000	0.009836	0.001428	0.000000	0.000000
16.068783	15.642858	17.656238	-1.817611	1.893172	2.691109	0.000000	0.266738	0.000000	0.010523	0.001691	0.000000	0.000000
16.514743	17.514788	15.826786	-2.393226	2.191211	2.826607	0.000000	0.344641	0.000000	0.011339	0.001974	0.000000	0.000000
17.063803	19.918461	13.784790	-1.956933	1.549188	2.991436	0.000000	0.258200	0.000000	0.012320	0.001591	0.000000	0.000000
17.612863	21.763623	12.383519	-1.382306	1.017542	3.107687	0.000000	0.167203	0.000000	0.013081	0.001179	0.000000	0.000000
18.161923	22.919808	11.523150	-0.709959	0.558395	3.173304	0.000000	0.073259	0.000000	0.013611	0.000747	0.000000	0.000000
18.710983	23.305259	11.142392	0.012582	0.139035	3.187132	0.000000	-0.021974	0.000000	0.013899	0.000301	0.000000	0.000000
19.009556	23.333417	11.052392	-0.053793	0.137061	3.182648	0.000000	-0.014651	0.000000	0.013999	0.000335	0.000000	0.000000
19.342889	23.374055	10.971260	-0.068120	0.106335	3.177652	0.000000	-0.014651	0.000000	0.014111	0.000335	0.000000	0.000000
19.676223	23.424244	10.910612	-0.082447	0.075609	3.172657	0.000000	-0.014651	0.000000	0.014223	0.000335	0.000000	0.000000
20.010806	23.484516	10.870201	-0.213183	0.098626	3.167662	0.000000	0.001043	0.000000	0.014335	0.000406	0.000000	0.000000
20.308129	23.615365	10.819698	-0.280356	0.095792	3.167861	0.000000	0.008278	0.000000	0.014456	0.000442	0.000000	0.000000
20.857189	23.516148	10.934282	0.460090	-0.305671	3.146323	0.000000	-0.086206	0.000000	0.014569	-0.000029	0.000000	0.000000
21.406249	22.616611	11.499114	1.168017	-0.728916	3.073488	0.000000	-0.179162	0.000000	0.014424	-0.000499	0.000000	0.000000
21.955309	20.980355	12.554440	1.793378	-1.204099	2.950646	0.000000	-0.268947	0.000000	0.014023	-0.000959	0.000000	0.000000
22.504369	18.723073	14.175445	2.291968	-1.765079	2.779974	0.000000	-0.353974	0.000000	0.013374	-0.001403	0.000000	0.000000
22.950329	16.946224	15.631715	1.704806	-1.485851	2.639775	0.000000	-0.277330	0.000000	0.012824	-0.001063	0.000000	0.000000
23.391289	15.669501	16.794283	1.200564	-1.140087	2.534042	0.000000	-0.204327	0.000000	0.012427	-0.000738	0.000000	0.000000
23.832249	14.811839	17.627718	0.751210	-0.742434	2.459830	0.000000	-0.133645	0.000000	0.012172	-0.000421	0.000000	0.000000
24.273209	14.334017	18.094092	0.336199	-0.310991	2.416294	0.000000	-0.064481	0.000000	0.012055	-0.000109	0.000000	0.000000
24.715418	14.214329	18.171865	-0.032779	0.095172	2.402941	0.000000	-0.001250	0.000000	0.012076	0.000175	0.000000	0.000000
25.012741	14.240046	18.120180	-0.053718	0.078662	2.402518	0.000000	-0.001250	0.000000	0.012128	0.000175	0.000000	0.000000
25.346075	14.283683	18.073908	-0.077194	0.060153	2.402043	0.000000	-0.001250	0.000000	0.012186	0.000175	0.000000	0.000000
25.679408	14.342971	18.039976	-0.100670	0.041643	2.401568	0.000000	-0.001250	0.000000	0.012244	0.000175	0.000000	0.000000
26.013991	14.417928	18.018692	-0.007266	-0.123112	2.401067	0.000000	-0.020729	0.000000	0.012303	0.000075	0.000000	0.000000
26.311314	14.428315	18.096961	0.003238	-0.178892	2.394876	0.000000	-0.025895	0.000000	0.012325	0.000046	0.000000	0.000000
26.752274	14.603893	18.058686	-0.402765	0.265345	2.398381	0.000000	0.042201	0.000000	0.012416	0.000365	0.000000	0.000000
27.193234	15.144394	17.632408	-0.827181	0.697506	2.431859	0.000000	0.110774	0.000000	0.012648	0.000689	0.000000	0.000000
27.634194	16.074539	16.837526	-1.289417	1.097921	2.495689	0.000000	0.180601	0.000000	0.013024	0.001020	0.000000	0.000000
28.075154	17.436867	15.710211	-1.810606	1.448365	2.590596	0.000000	0.252476	0.000000	0.013549	0.001362	0.000000	0.000000
28.521114	19.317666	14.284578	-2.419785	1.734069	2.719272	0.000000	0.327697	0.000000	0.014237	0.001723	0.000000	0.000000
29.070174	21.709569	12.696983	-1.908981	1.173871	2.875937	0.000000	0.244861	0.000000	0.015053	0.001248	0.000000	0.000000
29.619234	23.462420	11.675397	-1.263221	0.697315	2.986112	0.000000	0.157701	0.000000	0.015603	0.000751	0.000000	0.000000
30.168294	24.452266	11.147038	-0.528157	0.270447	3.047850	0.000000	0.067754	0.000000	0.015876	0.000241	0.000000	0.000000
30.717354	24.609109	11.074263	0.244244	-0.137149	3.060057	0.000000	-0.023392	0.000000	0.015867	-0.000273	0.000000	0.000000
31.015927	24.499904	11.149482	0.176292	-0.139478	3.055188	0.000000	-0.016505	0.000000	0.015797	-0.000235	0.000000	0.000000
31.349260	24.387052	11.252627	0.162264	-0.169957	3.049765	0.000000	-0.016505	0.000000	0.015719	-0.000235	0.000000	0.000000
31.682593	24.283552	11.376091	0.148235	-0.200435	3.044341	0.000000	-0.016505	0.000000	0.015641	-0.000235	0.000000	0.000000
32.017177	24.189070	11.520452	0.134154	-0.231028	3.038898	0.000000	-0.016505	0.000000	0.015562	-0.000235	0.000000	0.000000
32.314499	24.113186	11.665832	0.067151	-0.231886	3.034071	0.000000	-0.009648	0.000000	0.015493	-0.000197	0.000000	0.000000
32.863559	23.626536	12.158771	0.813432	-0.671004	3.004245	0.000000	-0.099665	0.000000	0.015247	-0.000695	0.000000	0.000000
33.412619	22.346922	13.157287	1.502202	-1.157935	2.925655	0.000000	-0.187924	0.000000	0.014732	-0.001181	0.000000	0.000000
33.961679	20.364834	14.732519	2.084771	-1.727373	2.799687	0.000000	-0.272867	0.000000	0.013954	-0.001646	0.000000	0.000000
34.510739	17.820434	16.996686	2.519959	-2.419888	2.628568	0.000000	-0.352996	0.000000	0.012930	-0.002081	0.000000	0.000000
34.956699	15.843706	19.022386	1.926494	-2.102517	2.488227	0.000000	-0.280290	0.000000	0.012074	-0.001757	0.000000	0.000000
35.397659	14.370293	20.701622	1.426299	-1.690485	2.380626	0.000000	-0.211223	0.000000	0.011367	-0.001455	0.000000	0.000000
35.838619	13.307855	21.981955	0.991314	-1.201516	2.302806	0.000000	-0.144546	0.000000	0.010789	-0.001169	0.000000	0.000000
36.279579	12.607804	22.805125	0.601649	-0.657865	2.253886	0.000000	-0.079505	0.000000	0.010334	-0.000897	0.000000	0.000000
36.721789	12.237493	23.133949	0.266481	-0.135355	2.233293	0.000000	-0.020304	0.000000	0.009996	-0.000658	0.000000	0.000000
37.019112	12.086768	23.218328	0.240460	-0.148443	2.227451	0.000000	-0.020304	0.000000	0.009800	-0.000658	0.000000	0.000000
37.352445	11.936186	23.322181	0.211287	-0.163115	2.220903	0.000000	-0.020304	0.000000	0.009581	-0.000658	0.000000	0.000000
37.685779	11.805052	23.435815	0.182114	-0.177788	2.214354	0.000000	-0.020304	0.000000	0.009361	-0.000658	0.000000	0.000000
38.020362	11.692985	23.559713	0.152831	-0.192516	2.207781	0.000000	-0.020304	0.000000	0.009141	-0.000658	0.000000	0.000000
38.317684	11.609814	23.678139	0.152818	-0.258869	2.201937	0.000000	-0.025237	0.000000	0.008946	-0.000679	0.000000	0.000000
38.758644	11.623781	23.644063	-0.184794	0.335841	2.204961	0.000000	0.037871	0.000000	0.008697	-0.000451	0.000000	0.000000
39.199604	11.938146	23.090199	-0.530849	0.915265	2.235791	0.000000	0.101416	0.000000	0.008547	-0.000229	0.000000	0.000000
39.640564	12.567277	22.041756	-0.901164	1.453034	2.294779	0.000000	0.166118	0.000000	0.008494	-0.000009	0.000000	0.000000
40.081524	13.539931	20.546449	-1.312665	1.924675	2.382598	0.000000	0.232713	0.000000	0.008538	0.000210	0.000000	0.000000
40.527484	14.918150	18.649586	-1.788127	2.310240	2.501733	0.000000	0.302389	0.000000	0.008682	0.000433	0.000000	0.000000
41.076544	16.679652	16.517559	-1.400557	1.595246	2.647090	0.000000	0.226805	0.000000	0.008842	0.000150	0.000000	0.000000
41.625604	17.958227	15.104125	-0.914020	0.993906	2.749927	0.000000	0.147198	0.000000	0.008846	-0.000137	0.000000	0.000000
42.174664	18.663515	14.308585	-0.362898	0.463379	2.808416	0.000000	0.064978	0.000000	0.008692	-0.000421	0.000000	0.000000
42.723724	18.745680	14.074258	0.213858	-0.034133	2.821519	0.000000	-0.018401	0.000000	0.008384	-0.000698	0.000000	0.000000
43.022297	18.649972	14.080536	0.152020	-0.021072	2.818267	0.000000	-0.011559	0.000000	0.008182	-0.000677	0.000000	0.000000
43.502297	18.516672	14.117135	0.125688	-0.055177	2.813043	0.000000	-0.011559	0.000000	0.007858	-0.000677	0.000000	0.000000
43.982297	18.408651	14.186475	0.099356	-0.089282	2.807820	0.000000	-0.011559	0.000000	0.007533	-0.000677	0.000000	0.000000
44.462297	18.325908	14.288556	0.073024	-0.123386	2.802596	0.000000	-0.011559	0.000000	0.007208	-0.000677	0.000000	0.000000
44.942297	18.268445	14.423377	0.046692	-0.157491	2.797373	0.000000	-0.011559	0.000000	0.006883	-0.000677	0.000000	0.000000
45.423547	18.236435	14.591237	-0.070062	-0.119391	2.792153	0.000000	0.002275	0.000000	0.006557	-0.000644	0.000000	0.000000
45.720870	18.282990	14.668360	-0.131627	-0.103944	2.793022	0.000000	0.009177	0.000000	0.006366	-0.000628	0.000000	0.000000
46.269930	18.119369	15.066010	0.427460	-0.624505	2.775802	0.000000	-0.073207	0.000000	0.005965	-0.000828	0.000000	0.000000
46.818990	17.354738	16.056272	0.956330	-1.189552	2.713733	0.000000	-0.154305	0.000000	0.005459	-0.001013	0.000000	0.000000
47.368050	16.043147	17.709676	1.417616	-1.839336	2.607909	0.000000	-0.232683	0.000000	0.004856	-0.001180	0.000000	0.000000
47.917110	14.277291	20.143987	1.778729	-2.620144	2.460200	0.000000	-0.306952	0.000000	0.004167	-0.001326	0.000000	0.000000
48.363070	12.902035	22.307830	1.315339	-2.211322	2.339202	0.000000	-0.238403	0.000000	0.003599	-0.001226	0.000000	0.000000
48.804030	11.921643	24.040690	0.915880	-1.703278	2.249088	0.000000	-0.172967	0.000000	0.003078	-0.001140	0.000000	0.000000
49.244990	11.273868	25.289446	0.558278	-1.117734	2.187339	0.000000	-0.109489	0.000000	0.002592	-0.001066	0.000000	0.000000
49.685950	10.929098	25.997289	0.226194	-0.481334	2.153256	0.000000	-0.047246	0.000000	0.002135	-0.001006	0.000000	0.000000
50.128160	10.871746	26.131732	-0.069436	0.114224	2.146467	0.000000	0.009291	0.000000	0.001702	-0.000960	0.000000	0.000000
50.425482	10.921206	26.067236	-0.096916	0.102698	2.149515	0.000000	0.009291	0.000000	0.001416	-0.000960	0.000000	0.000000
50.758816	10.996086	26.003079	-0.127724	0.089776	2.152932	0.000000	0.009291	0.000000	0.001096	-0.000960	0.000000	0.000000
51.092149	11.091505	25.947535	-0.158533	0.076853	2.156349	0.000000	0.009291	0.000000	0.000776	-0.000960	0.000000	0.000000
51.426732	11.207709	25.900973	-0.098532	-0.146239	2.159757	0.000000	-0.008231	0.000000	0.000455	-0.000964	0.000000	0.000000
51.724055	11.274265	25.991419	-0.097714	-0.221958	2.157596	0.000000	-0.013513	0.000000	0.000168	-0.000964	0.000000	0.000000
52.165015	11.507208	25.897854	-0.432865	0.433336	2.165715	0.000000	0.048503	0.000000	-0.000257	-0.000965	0.000000	0.000000
52.605975	12.043285	25.232897	-0.787785	1.068910	2.201281	0.000000	0.111082	0.000000	-0.000685	-0.000978	0.000000	0.000000
53.046935	12.906980	24.026813	-1.178688	1.655847	2.264703	0.000000	0.174937	0.000000	-0.001120	-0.001001	0.000000	0.000000
53.487895	14.137739	22.334487	-1.623432	2.167443	2.356708	0.000000	0.240795	0.000000	-0.001569	-0.001036	0.000000	0.000000
53.933855	15.812818	20.207626	-2.146598	2.581727	2.479870	0.000000	0.309801	0.000000	-0.002041	-0.001082	0.000000	0.000000
54.482915	17.968922	17.813958	-1.757688	1.803722	2.630169	0.000000	0.234874	0.000000	-0.002615	-0.001007	0.000000	0.000000
55.031975	19.626852	16.199484	-1.244656	1.154187	2.738073	0.000000	0.155764	0.000000	-0.003143	-0.000914	0.000000	0.000000
55.581035	20.669544	15.249199	-0.643738	0.586860	2.801661	0.000000	0.073876	0.000000	-0.003615	-0.000804	0.000000	0.000000
56.130095	21.023385	14.895410	0.002627	0.061333	2.819797	0.000000	-0.009334	0.000000	-0.004023	-0.000680	0.000000	0.000000
56.428668	21.059955	14.840738	-0.068381	0.081441	2.819489	0.000000	-0.001721	0.000000	-0.004230	-0.000691	0.000000	0.000000
56.762001	21.110843	14.793980	-0.084283	0.058832	2.819146	0.000000	-0.001721	0.000000	-0.004460	-0.000691	0.000000	0.000000
57.095334	21.172332	14.762296	-0.100184	0.036222	2.818802	0.000000	-0.001721	0.000000	-0.004691	-0.000691	0.000000	0.000000
57.429918	21.244712	14.745650	-0.116146	0.013528	2.818458	0.000000	-0.001721	0.000000	-0.004922	-0.000691	0.000000	0.000000
57.727240	21.318012	14.743591	-0.188388	0.033369	2.818153	0.000000	0.005955	0.000000	-0.005127	-0.000705	0.000000	0.000000
58.276300	21.160410	14.989603	0.473373	-0.484108	2.798899	0.000000	-0.077181	0.000000	-0.005468	-0.000533	0.000000	0.000000
58.825360	20.290380	15.819303	1.101693	-1.036059	2.734216	0.000000	-0.158957	0.000000	-0.005711	-0.000352	0.000000	0.000000
59.374420	18.769366	17.291774	1.652208	-1.661793	2.625246	0.000000	-0.237919	0.000000	-0.005853	-0.000165	0.000000	0.000000
59.923480	16.704776	19.511876	2.086044	-2.405872	2.473921	0.000000	-0.312665	0.000000	-0.005891	0.000026	0.000000	0.000000
60.369440	15.087393	21.484908	1.553669	-1.999873	2.349923	0.000000	-0.243845	0.000000	-0.005914	-0.000128	0.000000	0.000000
60.810400	13.923289	23.035809	1.096415	-1.504147	2.257057	0.000000	-0.178183	0.000000	-0.006004	-0.000281	0.000000	0.000000
61.251360	13.138868	24.117601	0.689241	-0.939996	2.192736	0.000000	-0.114547	0.000000	-0.006162	-0.000438	0.000000	0.000000
61.692320	12.698302	24.681072	0.313553	-0.333085	2.156229	0.000000	-0.052210	0.000000	-0.006391	-0.000600	0.000000	0.000000
62.134530	12.581520	24.700000	-0.015135	0.224859	2.147130	0.000000	0.003945	0.000000	-0.006693	-0.000751	0.000000	0.000000
62.431853	12.597548	24.570048	-0.038772	0.212213	2.148526	0.000000	0.003945	0.000000	-0.006917	-0.000751	0.000000	0.000000
62.765186	12.632229	24.433298	-0.065272	0.198036	2.150092	0.000000	0.003945	0.000000	-0.007167	-0.000751	0.000000	0.000000
63.098520	12.684578	24.306000	-0.091772	0.183858	2.151657	0.000000	0.003945	0.000000	-0.007418	-0.000751	0.000000	0.000000
63.433103	12.754888	24.187730	-0.118372	0.169627	2.153229	0.000000	0.003945	0.000000	-0.007669	-0.000751	0.000000	0.000000
63.730426	12.832282	24.090666	-0.108243	0.093331	2.154623	0.000000	-0.001724	0.000000	-0.007892	-0.000731	0.000000	0.000000
64.171386	13.090223	23.743135	-0.479305	0.691884	2.167874	0.000000	0.060269	0.000000	-0.008260	-0.000940	0.000000	0.000000
64.612346	13.683706	22.879710	-0.872250	1.258960	2.208675	0.000000	0.122958	0.000000	-0.008723	-0.001158	0.000000	0.000000
65.053306	14.639822	21.539676	-1.305020	1.768766	2.277497	0.000000	0.187060	0.000000	-0.009284	-0.001391	0.000000	0.000000
65.494266	16.002214	19.784001	-1.797377	2.198111	2.375128	0.000000	0.253306	0.000000	-0.009951	-0.001638	0.000000	0.000000
65.940226	17.856439	17.667645	-2.376263	2.528001	2.504282	0.000000	0.322823	0.000000	-0.010741	-0.001907	0.000000	0.000000
66.489286	20.230488	15.300520	-1.923605	1.809360	2.661839	0.000000	0.247009	0.000000	-0.011689	-0.001543	0.000000	0.000000
67.038346	22.029646	13.647500	-1.335171	1.219561	2.776301	0.000000	0.166791	0.000000	-0.012430	-0.001153	0.000000	0.000000
67.587406	23.126958	12.590858	-0.652503	0.716602	2.845629	0.000000	0.083596	0.000000	-0.012951	-0.000742	0.000000	0.000000
68.136466	23.445006	12.055342	0.076212	0.264669	2.868587	0.000000	-0.001093	0.000000	-0.013242	-0.000317	0.000000	0.000000
68.435038	23.443676	11.884561	-0.004343	0.272604	2.870836	0.000000	0.007205	0.000000	-0.013348	-0.000354	0.000000	0.000000
68.768372	23.451311	11.712870	-0.018562	0.242472	2.873356	0.000000	0.007205	0.000000	-0.013466	-0.000354	0.000000	0.000000
69.101705	23.468425	11.561265	-0.032780	0.212340	2.875875	0.000000	0.007205	0.000000	-0.013584	-0.000354	0.000000	0.000000
69.436288	23.495136	11.429294	-0.047053	0.182095	2.878404	0.000000	0.007205	0.000000	-0.013702	-0.000354	0.000000	0.000000
69.733611	23.527018	11.328940	-0.128055	0.188057	2.880660	0.000000	0.015570	0.000000	-0.013807	-0.000392	0.000000	0.000000
70.282671	23.263617	11.349385	0.604928	-0.225522	2.865885	0.000000	-0.069641	0.000000	-0.013899	0.000057	0.000000	0.000000
