#ParticleID	Turn	x[m]	xp	y[m]	yp	z[m]	dE[GeV]# s	beta_x	beta_y	alpha_x	alpha_y	D_x	D_y	D_px	D_py	orbit_x	orbit_px	orbit_y	orbit_py
0.300000	11.924327	25.232554	-0.019292	-0.022908	2.604829	0.000000	0.000623	0.000000	-0.000537	0.000471	0.000000	0.000000
0.601250	11.943564	25.249955	-0.044565	-0.034853	2.604875	0.000000	0.000623	0.000000	-0.000395	0.000471	0.000000	0.000000
0.898573	11.977480	25.274185	-0.040065	-0.108601	2.604920	0.000000	-0.005780	0.000000	-0.000255	0.000471	0.000000	0.000000
1.339533	12.166279	25.089502	-0.389553	0.525830	2.618391	0.000000	0.067837	0.000000	-0.000049	0.000467	0.000000	0.000000
1.780493	12.669957	24.353752	-0.756843	1.136338	2.664462	0.000000	0.142221	0.000000	0.000158	0.000469	0.000000	0.000000
2.221453	13.511530	23.100407	-1.158715	1.695145	2.743657	0.000000	0.218220	0.000000	0.000366	0.000475	0.000000	0.000000
2.662413	14.729452	21.386490	-1.613529	2.176825	2.856876	0.000000	0.296700	0.000000	0.000578	0.000488	0.000000	0.000000
3.108373	16.400406	19.264864	-2.146422	2.560616	3.007261	0.000000	0.379044	0.000000	0.000799	0.000505	0.000000	0.000000
3.657433	18.542603	16.881695	-1.731756	1.805399	3.189984	0.000000	0.286492	0.000000	0.001068	0.000475	0.000000	0.000000
4.206493	20.159168	15.252789	-1.194752	1.178779	3.320439	0.000000	0.188865	0.000000	0.001319	0.000436	0.000000	0.000000
4.755553	21.135895	14.262128	-0.573344	0.636121	3.396315	0.000000	0.087895	0.000000	0.001546	0.000390	0.000000	0.000000
5.304613	21.403777	13.839151	0.088574	0.138773	3.416269	0.000000	-0.014628	0.000000	0.001746	0.000337	0.000000	0.000000
5.603185	21.387957	13.741687	0.019506	0.152104	3.414425	0.000000	-0.005833	0.000000	0.001848	0.000341	0.000000	0.000000
5.936519	21.380150	13.648557	0.003915	0.127286	3.412367	0.000000	-0.005833	0.000000	0.001962	0.000341	0.000000	0.000000
6.269852	21.382737	13.571973	-0.011676	0.102467	3.410309	0.000000	-0.005833	0.000000	0.002076	0.000341	0.000000	0.000000
6.604435	21.395786	13.511740	-0.027325	0.077556	3.408244	0.000000	-0.005833	0.000000	0.002190	0.000341	0.000000	0.000000
6.901758	21.416173	13.472202	-0.096107	0.090006	3.406408	0.000000	0.002896	0.000000	0.002291	0.000347	0.000000	0.000000
7.450818	21.156473	13.634799	0.566470	-0.387882	3.379768	0.000000	-0.099201	0.000000	0.002461	0.000270	0.000000	0.000000
7.999878	20.186894	14.334196	1.189036	-0.893400	3.297512	0.000000	-0.199534	0.000000	0.002587	0.000188	0.000000	0.000000
8.548938	18.575928	15.620217	1.727609	-1.462560	3.161101	0.000000	-0.296325	0.000000	0.002667	0.000103	0.000000	0.000000
9.097998	16.437379	17.584468	2.144141	-2.135902	2.972957	0.000000	-0.387857	0.000000	0.002700	0.000016	0.000000	0.000000
9.543958	14.768725	19.334570	1.610778	-1.771721	2.818202	0.000000	-0.306447	0.000000	0.002723	0.000087	0.000000	0.000000
9.984918	13.553532	20.706800	1.155408	-1.328229	2.700198	0.000000	-0.229020	0.000000	0.002777	0.000158	0.000000	0.000000
10.425878	12.715253	21.659642	0.752832	-0.824297	2.615700	0.000000	-0.154204	0.000000	0.002862	0.000230	0.000000	0.000000
10.866838	12.215585	22.149739	0.384652	-0.282858	2.563743	0.000000	-0.081146	0.000000	0.002980	0.000306	0.000000	0.000000
11.309048	12.031545	22.154234	0.062566	0.218566	2.543717	0.000000	-0.015068	0.000000	0.003133	0.000377	0.000000	0.000000
11.606371	12.001717	22.028445	0.037757	0.204505	2.539125	0.000000	-0.015068	0.000000	0.003245	0.000377	0.000000	0.000000
12.086371	11.984694	21.843017	-0.002294	0.181803	2.531712	0.000000	-0.015068	0.000000	0.003426	0.000377	0.000000	0.000000
12.566371	12.006121	21.679383	-0.042345	0.159102	2.524299	0.000000	-0.015068	0.000000	0.003606	0.000377	0.000000	0.000000
13.046371	12.065997	21.537541	-0.082396	0.136401	2.516885	0.000000	-0.015068	0.000000	0.003787	0.000377	0.000000	0.000000
13.526371	12.164322	21.417493	-0.122448	0.113699	2.509472	0.000000	-0.015068	0.000000	0.003968	0.000377	0.000000	0.000000
14.007621	12.301503	21.319011	-0.162603	0.090939	2.502039	0.000000	-0.015068	0.000000	0.004150	0.000377	0.000000	0.000000
14.304943	12.405564	21.269127	-0.158230	0.026954	2.497447	0.000000	-0.020943	0.000000	0.004262	0.000367	0.000000	0.000000
14.745903	12.704096	21.012687	-0.521150	0.552344	2.503628	0.000000	0.049818	0.000000	0.004448	0.000479	0.000000	0.000000
15.186863	13.331992	20.302220	-0.907889	1.052602	2.541060	0.000000	0.121141	0.000000	0.004685	0.000597	0.000000	0.000000
15.627823	14.317952	19.170051	-1.336120	1.504961	2.610166	0.000000	0.193838	0.000000	0.004975	0.000721	0.000000	0.000000
16.068783	15.707043	17.667692	-1.825414	1.888839	2.711731	0.000000	0.268735	0.000000	0.005322	0.000854	0.000000	0.000000
16.514743	17.586377	15.841986	-2.403001	2.187608	2.848607	0.000000	0.347165	0.000000	0.005734	0.000997	0.000000	0.000000
17.063803	19.999308	13.803999	-1.964773	1.545758	3.015078	0.000000	0.260002	0.000000	0.006229	0.000803	0.000000	0.000000
17.612863	21.851388	12.406646	-1.387709	1.014025	3.132460	0.000000	0.168240	0.000000	0.006614	0.000595	0.000000	0.000000
18.161923	23.011729	11.550387	-0.712584	0.554530	3.198674	0.000000	0.073502	0.000000	0.006881	0.000377	0.000000	0.000000
18.710983	23.398322	11.174230	0.012898	0.134539	3.212549	0.000000	-0.022534	0.000000	0.007026	0.000151	0.000000	0.000000
19.009556	23.428721	11.085720	-0.057357	0.134539	3.208124	0.000000	-0.014643	0.000000	0.007077	0.000169	0.000000	0.000000
19.342889	23.471717	11.006232	-0.071632	0.103926	3.203187	0.000000	-0.014643	0.000000	0.007133	0.000169	0.000000	0.000000
19.676223	23.524230	10.947152	-0.085906	0.073313	3.198249	0.000000	-0.014643	0.000000	0.007190	0.000169	0.000000	0.000000
20.010806	23.586801	10.908239	-0.217096	0.096631	3.193313	0.000000	0.001178	0.000000	0.007246	0.000205	0.000000	0.000000
20.308129	23.719858	10.858941	-0.288402	0.095757	3.193605	0.000000	0.009002	0.000000	0.007307	0.000224	0.000000	0.000000
20.857189	23.627582	10.974125	0.455521	-0.306759	3.172296	0.000000	-0.086301	0.000000	0.007365	-0.000014	0.000000	0.000000
21.406249	22.731129	11.540702	1.167258	-0.731129	3.099123	0.000000	-0.180072	0.000000	0.007292	-0.000252	0.000000	0.000000
21.955309	21.093851	12.599034	1.796514	-1.207585	2.975384	0.000000	-0.270653	0.000000	0.007089	-0.000485	0.000000	0.000000
22.504369	18.831457	14.224511	2.298825	-1.770071	2.803273	0.000000	-0.356440	0.000000	0.006761	-0.000709	0.000000	0.000000
22.950329	17.049963	15.684556	1.709320	-1.489746	2.661859	0.000000	-0.279238	0.000000	0.006483	-0.000537	0.000000	0.000000
23.391289	15.770486	16.849852	1.202783	-1.142590	2.555227	0.000000	-0.205690	0.000000	0.006283	-0.000373	0.000000	0.000000
23.832249	14.911975	17.684768	0.751217	-0.743439	2.480415	0.000000	-0.134480	0.000000	0.006154	-0.000212	0.000000	0.000000
24.273209	14.435188	18.151310	0.333982	-0.310457	2.436572	0.000000	-0.064800	0.000000	0.006095	-0.000054	0.000000	0.000000
24.715418	14.318436	18.227994	-0.035022	0.094478	2.423199	0.000000	-0.001452	0.000000	0.006106	0.000088	0.000000	0.000000
25.012741	14.345444	18.176706	-0.055813	0.078021	2.422741	0.000000	-0.001452	0.000000	0.006132	0.000088	0.000000	0.000000
25.346075	14.390422	18.130842	-0.079121	0.059571	2.422227	0.000000	-0.001452	0.000000	0.006161	0.000088	0.000000	0.000000
25.679408	14.450939	18.097278	-0.102430	0.041121	2.421714	0.000000	-0.001452	0.000000	0.006191	0.000088	0.000000	0.000000
26.013991	14.527015	18.076324	-0.007973	-0.124042	2.421174	0.000000	-0.021094	0.000000	0.006220	0.000038	0.000000	0.000000
26.311314	14.537825	18.155071	0.005075	-0.182593	2.414890	0.000000	-0.026662	0.000000	0.006231	0.000023	0.000000	0.000000
26.752274	14.712855	18.119374	-0.403432	0.263230	2.418211	0.000000	0.041937	0.000000	0.006277	0.000184	0.000000	0.000000
27.193234	15.254959	17.694262	-0.830378	0.697076	2.451791	0.000000	0.111012	0.000000	0.006394	0.000348	0.000000	0.000000
27.634194	16.188915	16.899076	-1.295275	1.099200	2.516012	0.000000	0.181347	0.000000	0.006584	0.000515	0.000000	0.000000
28.075154	17.557417	15.770001	-1.819372	1.451303	2.611603	0.000000	0.253743	0.000000	0.006849	0.000688	0.000000	0.000000
28.521114	19.446913	14.341333	-2.431692	1.738404	2.741266	0.000000	0.329489	0.000000	0.007196	0.000870	0.000000	0.000000
29.070174	21.849220	12.750050	-1.916803	1.176594	2.899092	0.000000	0.245942	0.000000	0.007609	0.000630	0.000000	0.000000
29.619234	23.607812	11.726381	-1.266463	0.698607	3.009908	0.000000	0.158041	0.000000	0.007887	0.000379	0.000000	0.000000
30.168294	24.598399	11.197406	-0.526628	0.270390	3.071749	0.000000	0.067343	0.000000	0.008024	0.000121	0.000000	0.000000
30.717354	24.750970	11.125443	0.250422	-0.138564	3.083520	0.000000	-0.024548	0.000000	0.008020	-0.000138	0.000000	0.000000
31.015927	24.641083	11.200139	0.177692	-0.138638	3.078464	0.000000	-0.017044	0.000000	0.007984	-0.000118	0.000000	0.000000
31.349260	24.527274	11.302675	0.163737	-0.168972	3.072822	0.000000	-0.017044	0.000000	0.007945	-0.000118	0.000000	0.000000
31.682593	24.422767	11.425434	0.149783	-0.199305	3.067180	0.000000	-0.017044	0.000000	0.007906	-0.000118	0.000000	0.000000
32.017177	24.327224	11.568990	0.135776	-0.229753	3.061516	0.000000	-0.017044	0.000000	0.007866	-0.000118	0.000000	0.000000
32.314499	24.250230	11.713635	0.064211	-0.228270	3.056487	0.000000	-0.009593	0.000000	0.007831	-0.000098	0.000000	0.000000
32.863559	23.764501	12.203172	0.814955	-0.668486	3.026385	0.000000	-0.100311	0.000000	0.007707	-0.000350	0.000000	0.000000
33.412619	22.481091	13.199331	1.508107	-1.156326	2.947014	0.000000	-0.189254	0.000000	0.007447	-0.000596	0.000000	0.000000
33.961679	20.490708	14.773072	2.094687	-1.726543	2.819780	0.000000	-0.274849	0.000000	0.007055	-0.000831	0.000000	0.000000
34.510739	17.934022	17.036499	2.533246	-2.419759	2.646933	0.000000	-0.355582	0.000000	0.006538	-0.001051	0.000000	0.000000
34.956699	15.947284	19.061273	1.936805	-2.101145	2.505148	0.000000	-0.282446	0.000000	0.006106	-0.000887	0.000000	0.000000
35.397659	14.466245	20.738570	1.433969	-1.687795	2.396358	0.000000	-0.212967	0.000000	0.005749	-0.000734	0.000000	0.000000
35.838619	13.398281	22.015896	0.996669	-1.197641	2.317584	0.000000	-0.145906	0.000000	0.005457	-0.000590	0.000000	0.000000
36.279579	12.694575	22.835130	0.604921	-0.652989	2.267931	0.000000	-0.080501	0.000000	0.005228	-0.000452	0.000000	0.000000
36.721789	12.322294	23.159312	0.269465	-0.132615	2.246810	0.000000	-0.021252	0.000000	0.005057	-0.000331	0.000000	0.000000
37.019112	12.169753	23.242055	0.243585	-0.145679	2.240590	0.000000	-0.021252	0.000000	0.004959	-0.000331	0.000000	0.000000
37.352445	12.017035	23.344056	0.214569	-0.160325	2.233617	0.000000	-0.021252	0.000000	0.004848	-0.000331	0.000000	0.000000
37.685779	11.883661	23.455821	0.185554	-0.174971	2.226643	0.000000	-0.021252	0.000000	0.004738	-0.000331	0.000000	0.000000
38.020362	11.769239	23.577825	0.156429	-0.189672	2.219644	0.000000	-0.021252	0.000000	0.004627	-0.000331	0.000000	0.000000
38.317684	11.683907	23.694511	0.157960	-0.258439	2.213423	0.000000	-0.026445	0.000000	0.004528	-0.000342	0.000000	0.000000
38.758644	11.694090	23.659884	-0.181234	0.336662	2.215857	0.000000	0.036945	0.000000	0.004403	-0.000227	0.000000	0.000000
39.199604	12.005958	23.105169	-0.528709	0.916443	2.246264	0.000000	0.100758	0.000000	0.004328	-0.000115	0.000000	0.000000
39.640564	12.633759	22.055609	-0.900342	1.454521	2.304990	0.000000	0.165720	0.000000	0.004302	-0.000003	0.000000	0.000000
40.081524	13.606185	20.558965	-1.313117	1.926412	2.392705	0.000000	0.232570	0.000000	0.004325	0.000108	0.000000	0.000000
40.527484	14.985206	18.660660	-1.789786	2.312049	2.511888	0.000000	0.302488	0.000000	0.004398	0.000221	0.000000	0.000000
41.076544	16.746953	16.527003	-1.399606	1.596662	2.657279	0.000000	0.226584	0.000000	0.004480	0.000077	0.000000	0.000000
41.625604	18.023002	15.112278	-0.910545	0.995015	2.759901	0.000000	0.146662	0.000000	0.004482	-0.000068	0.000000	0.000000
42.174664	18.723195	14.315704	-0.357157	0.464251	2.817934	0.000000	0.064137	0.000000	0.004405	-0.000212	0.000000	0.000000
42.723724	18.798066	14.080537	0.221460	-0.033440	2.830348	0.000000	-0.019530	0.000000	0.004250	-0.000352	0.000000	0.000000
43.022297	18.698971	14.085624	0.157749	-0.019109	2.826747	0.000000	-0.012401	0.000000	0.004148	-0.000341	0.000000	0.000000
43.502297	18.560160	14.120332	0.131440	-0.053198	2.820959	0.000000	-0.012401	0.000000	0.003984	-0.000341	0.000000	0.000000
43.982297	18.446605	14.187765	0.105132	-0.087288	2.815170	0.000000	-0.012401	0.000000	0.003820	-0.000341	0.000000	0.000000
44.462297	18.358307	14.287925	0.078823	-0.121378	2.809382	0.000000	-0.012401	0.000000	0.003656	-0.000341	0.000000	0.000000
44.942297	18.295265	14.420811	0.052514	-0.155468	2.803593	0.000000	-0.012401	0.000000	0.003492	-0.000341	0.000000	0.000000
45.423547	18.257640	14.586716	-0.064321	-0.117375	2.797807	0.000000	0.001461	0.000000	0.003328	-0.000325	0.000000	0.000000
45.720870	18.300755	14.662652	-0.127185	-0.100841	2.798338	0.000000	0.008573	0.000000	0.003232	-0.000317	0.000000	0.000000
46.269930	18.132101	15.056717	0.432330	-0.621072	2.780553	0.000000	-0.073966	0.000000	0.003030	-0.000418	0.000000	0.000000
46.818990	17.362198	16.042877	0.961294	-1.185543	2.717791	0.000000	-0.155200	0.000000	0.002774	-0.000512	0.000000	0.000000
47.368050	16.045449	17.691372	1.422341	-1.834462	2.611162	0.000000	-0.233689	0.000000	0.002469	-0.000597	0.000000	0.000000
47.917110	14.274887	20.119620	1.782900	-2.614052	2.462553	0.000000	-0.308042	0.000000	0.002120	-0.000671	0.000000	0.000000
48.363070	12.896198	22.278108	1.319231	-2.205584	2.340811	0.000000	-0.239450	0.000000	0.001832	-0.000620	0.000000	0.000000
48.804030	11.912563	24.006097	0.919632	-1.698104	2.249996	0.000000	-0.173983	0.000000	0.001569	-0.000576	0.000000	0.000000
49.244990	11.261573	25.250602	0.562055	-1.113360	2.187571	0.000000	-0.110492	0.000000	0.001323	-0.000539	0.000000	0.000000
49.685950	10.913479	25.955003	0.230162	-0.477959	2.152827	0.000000	-0.048254	0.000000	0.001093	-0.000508	0.000000	0.000000
50.128160	10.852532	26.086965	-0.064934	0.115874	2.145380	0.000000	0.008223	0.000000	0.000874	-0.000485	0.000000	0.000000
50.425482	10.899325	26.021495	-0.092446	0.104324	2.147969	0.000000	0.008223	0.000000	0.000730	-0.000485	0.000000	0.000000
50.758816	10.971238	25.956262	-0.123291	0.091375	2.150872	0.000000	0.008223	0.000000	0.000568	-0.000485	0.000000	0.000000
51.092149	11.063713	25.899662	-0.154135	0.078425	2.153774	0.000000	0.008223	0.000000	0.000407	-0.000485	0.000000	0.000000
51.426732	11.176987	25.852055	-0.094420	-0.144297	2.156666	0.000000	-0.009273	0.000000	0.000245	-0.000487	0.000000	0.000000
51.724055	11.241113	25.941352	-0.093718	-0.219774	2.154053	0.000000	-0.014551	0.000000	0.000100	-0.000487	0.000000	0.000000
52.165015	11.470232	25.846451	-0.428004	0.434167	2.161489	0.000000	0.047365	0.000000	-0.000115	-0.000487	0.000000	0.000000
52.605975	12.001635	25.181372	-0.781840	1.068352	2.196322	0.000000	0.109826	0.000000	-0.000330	-0.000493	0.000000	0.000000
53.046935	12.859595	23.976379	-1.171392	1.653925	2.258952	0.000000	0.173543	0.000000	-0.000550	-0.000504	0.000000	0.000000
53.487895	14.083302	22.286302	-1.614456	2.164246	2.350094	0.000000	0.239242	0.000000	-0.000776	-0.000521	0.000000	0.000000
53.933855	15.749590	20.162788	-2.135543	2.577418	2.472298	0.000000	0.308069	0.000000	-0.001013	-0.000544	0.000000	0.000000
54.482915	17.894503	17.772999	-1.748167	1.800854	2.621444	0.000000	0.233401	0.000000	-0.001302	-0.000507	0.000000	0.000000
55.031975	19.543301	16.160947	-1.237324	1.152558	2.728369	0.000000	0.154586	0.000000	-0.001568	-0.000460	0.000000	0.000000
55.581035	20.579542	15.211804	-0.639099	0.586356	2.791174	0.000000	0.073021	0.000000	-0.001806	-0.000406	0.000000	0.000000
56.130095	20.930051	14.857961	0.004258	0.061918	2.808741	0.000000	-0.009846	0.000000	-0.002013	-0.000344	0.000000	0.000000
56.428668	20.964980	14.803437	-0.065649	0.081161	2.808133	0.000000	-0.002384	0.000000	-0.002117	-0.000349	0.000000	0.000000
56.762001	21.014069	14.756885	-0.081617	0.058495	2.807455	0.000000	-0.002384	0.000000	-0.002233	-0.000349	0.000000	0.000000
57.095334	21.073804	14.725443	-0.097585	0.035829	2.806777	0.000000	-0.002384	0.000000	-0.002350	-0.000349	0.000000	0.000000
57.429918	21.144467	14.709080	-0.113613	0.013079	2.806096	0.000000	-0.002384	0.000000	-0.002466	-0.000349	0.000000	0.000000
57.727240	21.216266	14.707311	-0.184476	0.032037	2.805491	0.000000	0.005103	0.000000	-0.002570	-0.000356	0.000000	0.000000
58.276300	21.056333	14.954226	0.473857	-0.484414	2.785720	0.000000	-0.077621	0.000000	-0.002742	-0.000270	0.000000	0.000000
58.825360	20.187716	15.783746	1.098717	-1.035364	2.720794	0.000000	-0.158972	0.000000	-0.002866	-0.000179	0.000000	0.000000
59.374420	18.671764	17.254947	1.645976	-1.660054	2.611862	0.000000	-0.237507	0.000000	-0.002938	-0.000085	0.000000	0.000000
59.923480	16.615541	19.472611	2.076983	-2.402976	2.460856	0.000000	-0.311831	0.000000	-0.002959	0.000011	0.000000	0.000000
60.369440	15.005180	21.443520	1.546885	-1.997956	2.337147	0.000000	-0.243332	0.000000	-0.002971	-0.000066	0.000000	0.000000
60.810400	13.846118	22.993289	1.091651	-1.503354	2.244390	0.000000	-0.177992	0.000000	-0.003017	-0.000144	0.000000	0.000000
61.251360	13.065084	24.074937	0.686287	-0.940358	2.180004	0.000000	-0.114678	0.000000	-0.003098	-0.000222	0.000000	0.000000
61.692320	12.626400	24.639255	0.312274	-0.334580	2.143257	0.000000	-0.052668	0.000000	-0.003214	-0.000304	0.000000	0.000000
62.134530	12.510069	24.660004	-0.015925	0.224120	2.133735	0.000000	0.003349	0.000000	-0.003367	-0.000380	0.000000	0.000000
62.431853	12.526606	24.530497	-0.039697	0.211457	2.134844	0.000000	0.003349	0.000000	-0.003480	-0.000380	0.000000	0.000000
62.765186	12.561955	24.394258	-0.066349	0.197261	2.136087	0.000000	0.003349	0.000000	-0.003607	-0.000380	0.000000	0.000000
63.098520	12.615072	24.267482	-0.093001	0.183065	2.137330	0.000000	0.003349	0.000000	-0.003733	-0.000380	0.000000	0.000000
63.433103	12.686256	24.149749	-0.119753	0.168816	2.138578	0.000000	0.003349	0.000000	-0.003861	-0.000380	0.000000	0.000000
63.730426	12.764529	24.053140	-0.111060	0.094846	2.139686	0.000000	-0.002094	0.000000	-0.003974	-0.000370	0.000000	0.000000
64.171386	13.024392	23.704690	-0.480675	0.692400	2.152514	0.000000	0.059515	0.000000	-0.004160	-0.000475	0.000000	0.000000
64.612346	13.618595	22.841208	-0.872242	1.258453	2.192677	0.000000	0.121807	0.000000	-0.004393	-0.000585	0.000000	0.000000
65.053306	14.574275	21.501984	-1.303647	1.767252	2.260636	0.000000	0.185492	0.000000	-0.004677	-0.000702	0.000000	0.000000
65.494266	15.935074	19.747950	-1.794594	2.195650	2.357167	0.000000	0.251297	0.000000	-0.005014	-0.000827	0.000000	0.000000
65.940226	17.786393	17.634097	-2.372092	2.524791	2.484946	0.000000	0.320358	0.000000	-0.005413	-0.000962	0.000000	0.000000
66.489286	20.157645	15.269749	-1.921912	1.807147	2.640882	0.000000	0.245182	0.000000	-0.005891	-0.000779	0.000000	0.000000
67.038346	21.956717	13.618538	-1.336027	1.218205	2.754183	0.000000	0.165645	0.000000	-0.006266	-0.000582	0.000000	0.000000
67.587406	23.056596	12.562860	-0.655811	0.716020	2.822835	0.000000	0.083161	0.000000	-0.006529	-0.000375	0.000000	0.000000
68.136466	23.379637	12.027526	0.070708	0.264827	2.845617	0.000000	-0.000804	0.000000	-0.006676	-0.000161	0.000000	0.000000
68.435038	23.379679	11.857658	-0.006508	0.270979	2.847771	0.000000	0.007040	0.000000	-0.006730	-0.000179	0.000000	0.000000
68.768372	23.388770	11.687064	-0.020766	0.240803	2.850177	0.000000	0.007040	0.000000	-0.006790	-0.000179	0.000000	0.000000
69.101705	23.407367	11.536587	-0.035024	0.210628	2.852584	0.000000	0.007040	0.000000	-0.006849	-0.000179	0.000000	0.000000
69.436288	23.435592	11.405776	-0.049335	0.180339	2.854999	0.000000	0.007040	0.000000	-0.006909	-0.000179	0.000000	0.000000
69.733611	23.468744	11.306525	-0.126883	0.184626	2.857147	0.000000	0.014932	0.000000	-0.006962	-0.000198	0.000000	0.000000
70.282671	23.205054	11.330428	0.604289	-0.228422	2.842182	0.000000	-0.069532	0.000000	-0.007009	0.000029	0.000000	0.000000
