#ParticleID	Turn	x[m]	xp	y[m]	yp	z[m]	dE[GeV]# s	beta_x	beta_y	alpha_x	alpha_y	D_x	D_y	D_px	D_py	orbit_x	orbit_px	orbit_y	orbit_py
0.300000	11.928004	25.101300	-0.011533	-0.027034	2.604303	0.000000	-0.002174	0.000000	-0.001283	0.001074	0.000000	0.000000
0.601250	11.942562	25.121206	-0.036793	-0.039045	2.603325	0.000000	-0.002174	0.000000	-0.000959	0.001074	0.000000	0.000000
0.898573	11.971853	25.147948	-0.032186	-0.112554	2.602359	0.000000	-0.008594	0.000000	-0.000640	0.001076	0.000000	0.000000
1.339533	12.153675	24.968208	-0.381343	0.518618	2.614316	0.000000	0.064937	0.000000	-0.000168	0.001065	0.000000	0.000000
1.780493	12.649924	24.240139	-0.747931	1.126197	2.658829	0.000000	0.139196	0.000000	0.000301	0.001067	0.000000	0.000000
2.221453	13.483285	22.996858	-1.148699	1.682538	2.736401	0.000000	0.215029	0.000000	0.000775	0.001081	0.000000	0.000000
2.662413	14.691843	21.294924	-1.601958	2.162327	2.847910	0.000000	0.293300	0.000000	0.001257	0.001107	0.000000	0.000000
3.108373	16.351733	19.186802	-2.132772	2.544911	2.996456	0.000000	0.375391	0.000000	0.001759	0.001146	0.000000	0.000000
3.657433	18.479409	16.818877	-1.718737	1.793106	3.176951	0.000000	0.283220	0.000000	0.002370	0.001079	0.000000	0.000000
4.206493	20.082652	15.201973	-1.183266	1.169022	3.305428	0.000000	0.186042	0.000000	0.002940	0.000993	0.000000	0.000000
4.755553	21.048173	14.220931	-0.564185	0.628208	3.379617	0.000000	0.085580	0.000000	0.003458	0.000890	0.000000	0.000000
5.304613	21.307735	13.805882	0.094773	0.132141	3.398207	0.000000	-0.016386	0.000000	0.003914	0.000770	0.000000	0.000000
5.603185	21.287468	13.712882	0.026907	0.144636	3.395644	0.000000	-0.007801	0.000000	0.004147	0.000780	0.000000	0.000000
5.936519	21.274753	13.624730	0.011237	0.119820	3.392783	0.000000	-0.007801	0.000000	0.004407	0.000780	0.000000	0.000000
6.269852	21.272485	13.553123	-0.004433	0.095003	3.389923	0.000000	-0.007801	0.000000	0.004667	0.000780	0.000000	0.000000
6.604435	21.280714	13.497884	-0.020162	0.070093	3.387052	0.000000	-0.007801	0.000000	0.004928	0.000780	0.000000	0.000000
6.901758	21.296876	13.462774	-0.087342	0.081746	3.384502	0.000000	0.000654	0.000000	0.005160	0.000793	0.000000	0.000000
7.450818	21.029916	13.634385	0.571067	-0.396120	3.356617	0.000000	-0.100722	0.000000	0.005549	0.000620	0.000000	0.000000
7.999878	20.057791	14.343118	1.189143	-0.902207	3.273572	0.000000	-0.200301	0.000000	0.005839	0.000435	0.000000	0.000000
8.548938	18.449176	15.639470	1.723211	-1.472570	3.136844	0.000000	-0.296320	0.000000	0.006025	0.000243	0.000000	0.000000
9.097998	16.317728	17.615797	2.135535	-2.147839	2.948862	0.000000	-0.387078	0.000000	0.006105	0.000047	0.000000	0.000000
9.543958	14.655444	19.376613	1.604886	-1.783500	2.794279	0.000000	-0.306270	0.000000	0.006161	0.000206	0.000000	0.000000
9.984918	13.444294	20.759062	1.152028	-1.339378	2.676143	0.000000	-0.229455	0.000000	0.006287	0.000366	0.000000	0.000000
10.425878	12.607946	21.721318	0.751814	-0.834303	2.591205	0.000000	-0.155257	0.000000	0.006485	0.000531	0.000000	0.000000
10.866838	12.108181	22.219590	0.385953	-0.291260	2.538494	0.000000	-0.082833	0.000000	0.006756	0.000702	0.000000	0.000000
11.309048	11.922018	22.230629	0.064858	0.213920	2.517388	0.000000	-0.017112	0.000000	0.007106	0.000863	0.000000	0.000000
11.606371	11.890896	22.107581	0.039815	0.199933	2.512043	0.000000	-0.017112	0.000000	0.007363	0.000863	0.000000	0.000000
12.086371	11.872081	21.926483	-0.000617	0.177353	2.503415	0.000000	-0.017112	0.000000	0.007777	0.000863	0.000000	0.000000
12.566371	11.892080	21.767062	-0.041048	0.154773	2.494787	0.000000	-0.017112	0.000000	0.008191	0.000863	0.000000	0.000000
13.046371	11.950892	21.629318	-0.081479	0.132193	2.486159	0.000000	-0.017112	0.000000	0.008606	0.000863	0.000000	0.000000
13.526371	12.048519	21.513251	-0.121910	0.109614	2.477531	0.000000	-0.017112	0.000000	0.009020	0.000863	0.000000	0.000000
14.007621	12.185365	21.418643	-0.162446	0.086975	2.468880	0.000000	-0.017112	0.000000	0.009436	0.000863	0.000000	0.000000
14.304943	12.289375	21.371141	-0.160187	0.025756	2.463532	0.000000	-0.022585	0.000000	0.009692	0.000841	0.000000	0.000000
14.745903	12.588615	21.114507	-0.520557	0.553936	2.468565	0.000000	0.047297	0.000000	0.010119	0.001096	0.000000	0.000000
15.186863	13.215025	20.401369	-0.904728	1.056908	2.504393	0.000000	0.117705	0.000000	0.010661	0.001364	0.000000	0.000000
15.627823	14.197258	19.264173	-1.330265	1.511781	2.571420	0.000000	0.189441	0.000000	0.011324	0.001647	0.000000	0.000000
16.068783	15.580235	17.754661	-1.816622	1.897851	2.670404	0.000000	0.263317	0.000000	0.012117	0.001950	0.000000	0.000000
16.514743	17.450885	15.919745	-2.391026	2.198572	2.804140	0.000000	0.340667	0.000000	0.013059	0.002276	0.000000	0.000000
17.063803	19.853669	13.871146	-1.957260	1.553824	2.966853	0.000000	0.254984	0.000000	0.014189	0.001835	0.000000	0.000000
17.612863	21.700688	12.466078	-1.385121	1.019789	3.081450	0.000000	0.164805	0.000000	0.015068	0.001361	0.000000	0.000000
18.161923	22.861328	11.604446	-0.715050	0.558417	3.145910	0.000000	0.071724	0.000000	0.015679	0.000862	0.000000	0.000000
18.710983	23.253499	11.224866	0.005582	0.136834	3.159096	0.000000	-0.022616	0.000000	0.016012	0.000349	0.000000	0.000000
19.009556	23.285042	11.136362	-0.059549	0.134706	3.154336	0.000000	-0.015516	0.000000	0.016128	0.000388	0.000000	0.000000
19.342889	23.329530	11.056716	-0.073915	0.104231	3.149034	0.000000	-0.015516	0.000000	0.016257	0.000388	0.000000	0.000000
19.676223	23.383595	10.997387	-0.088281	0.073756	3.143733	0.000000	-0.015516	0.000000	0.016387	0.000388	0.000000	0.000000
20.010806	23.447785	10.958132	-0.218874	0.097460	3.138431	0.000000	0.000033	0.000000	0.016516	0.000470	0.000000	0.000000
20.308129	23.582080	10.908233	-0.284792	0.094499	3.138314	0.000000	0.007038	0.000000	0.016656	0.000510	0.000000	0.000000
20.857189	23.488301	11.025604	0.454700	-0.309479	3.116339	0.000000	-0.086489	0.000000	0.016788	-0.000032	0.000000	0.000000
21.406249	22.594995	11.596134	1.162051	-0.735511	3.043632	0.000000	-0.178481	0.000000	0.016621	-0.000573	0.000000	0.000000
21.955309	20.965330	12.660474	1.787250	-1.213955	2.921481	0.000000	-0.267315	0.000000	0.016160	-0.001104	0.000000	0.000000
22.504369	18.714553	14.294455	2.286095	-1.778902	2.752048	0.000000	-0.351423	0.000000	0.015412	-0.001616	0.000000	0.000000
22.950329	16.942513	15.761839	1.699529	-1.496661	2.612902	0.000000	-0.275480	0.000000	0.014778	-0.001224	0.000000	0.000000
23.391289	15.670188	16.932485	1.195688	-1.147451	2.507890	0.000000	-0.203158	0.000000	0.014322	-0.000849	0.000000	0.000000
23.832249	14.816691	17.770788	0.746518	-0.746013	2.434081	0.000000	-0.133142	0.000000	0.014028	-0.000484	0.000000	0.000000
24.273209	14.342985	18.238595	0.331479	-0.310620	2.390636	0.000000	-0.064638	0.000000	0.013894	-0.000124	0.000000	0.000000
24.715418	14.227583	18.314262	-0.038361	0.099995	2.377066	0.000000	-0.001903	0.000000	0.013919	0.000203	0.000000	0.000000
25.012741	14.256617	18.259675	-0.059290	0.083599	2.376440	0.000000	-0.001903	0.000000	0.013979	0.000203	0.000000	0.000000
25.346075	14.303965	18.210071	-0.082753	0.065216	2.375738	0.000000	-0.001903	0.000000	0.014047	0.000203	0.000000	0.000000
25.679408	14.366954	18.172721	-0.106216	0.046833	2.375036	0.000000	-0.001903	0.000000	0.014115	0.000203	0.000000	0.000000
26.013991	14.445617	18.147923	-0.012575	-0.118843	2.374307	0.000000	-0.021165	0.000000	0.014183	0.000088	0.000000	0.000000
26.311314	14.459130	18.223641	-0.002643	-0.173907	2.367981	0.000000	-0.026163	0.000000	0.014209	0.000056	0.000000	0.000000
26.752274	14.640278	18.179459	-0.409537	0.273700	2.371201	0.000000	0.041239	0.000000	0.014314	0.000423	0.000000	0.000000
27.193234	15.187289	17.744448	-0.835157	0.708850	2.404066	0.000000	0.109107	0.000000	0.014583	0.000796	0.000000	0.000000
27.634194	16.125186	16.938403	-1.298965	1.111737	2.466947	0.000000	0.178209	0.000000	0.015018	0.001177	0.000000	0.000000
28.075154	17.496870	15.798006	-1.822169	1.464021	2.560558	0.000000	0.249329	0.000000	0.015624	0.001573	0.000000	0.000000
28.521114	19.389293	14.357737	-2.433974	1.750899	2.687561	0.000000	0.323759	0.000000	0.016417	0.001988	0.000000	0.000000
29.070174	21.796137	12.753505	-1.921551	1.187421	2.842233	0.000000	0.241977	0.000000	0.017360	0.001441	0.000000	0.000000
29.619234	23.561600	11.718350	-1.273266	0.708556	2.951048	0.000000	0.155924	0.000000	0.017995	0.000868	0.000000	0.000000
30.168294	24.560816	11.178521	-0.534955	0.280182	3.012084	0.000000	0.067119	0.000000	0.018311	0.000280	0.000000	0.000000
30.717354	24.723114	11.095555	0.241179	-0.128224	3.024260	0.000000	-0.022874	0.000000	0.018302	-0.000314	0.000000	0.000000
31.015927	24.614952	11.165794	0.174475	-0.131043	3.019476	0.000000	-0.016243	0.000000	0.018221	-0.000270	0.000000	0.000000
31.349260	24.503287	11.263278	0.160521	-0.161408	3.014152	0.000000	-0.016243	0.000000	0.018131	-0.000270	0.000000	0.000000
31.682593	24.400924	11.381006	0.146567	-0.191774	3.008827	0.000000	-0.016243	0.000000	0.018041	-0.000270	0.000000	0.000000
32.017177	24.307533	11.519532	0.132560	-0.222254	3.003483	0.000000	-0.016243	0.000000	0.017951	-0.000270	0.000000	0.000000
32.314499	24.232635	11.659638	0.066726	-0.223692	2.998747	0.000000	-0.009636	0.000000	0.017871	-0.000226	0.000000	0.000000
32.863559	23.744203	12.143302	0.817005	-0.662180	2.969275	0.000000	-0.098520	0.000000	0.017588	-0.000801	0.000000	0.000000
33.412619	22.458478	13.131529	1.509513	-1.147855	2.891693	0.000000	-0.185668	0.000000	0.016994	-0.001361	0.000000	0.000000
33.961679	20.466401	14.694728	2.095287	-1.715323	2.767370	0.000000	-0.269543	0.000000	0.016097	-0.001898	0.000000	0.000000
34.510739	17.908861	16.944264	2.532918	-2.405016	2.598502	0.000000	-0.348666	0.000000	0.014915	-0.002400	0.000000	0.000000
34.956699	15.921688	18.956876	1.936652	-2.087953	2.460043	0.000000	-0.276708	0.000000	0.013929	-0.002026	0.000000	0.000000
35.397659	14.440256	20.623714	1.434192	-1.676946	2.353966	0.000000	-0.208346	0.000000	0.013113	-0.001677	0.000000	0.000000
35.838619	13.371654	21.892815	0.997308	-1.189615	2.277351	0.000000	-0.142339	0.000000	0.012447	-0.001348	0.000000	0.000000
36.279579	12.667003	22.706431	0.606025	-0.648142	2.229329	0.000000	-0.077939	0.000000	0.011922	-0.001034	0.000000	0.000000
36.721789	12.293447	23.027771	0.269102	-0.127121	2.209340	0.000000	-0.019225	0.000000	0.011532	-0.000758	0.000000	0.000000
37.019112	12.141138	23.107263	0.243166	-0.140241	2.203849	0.000000	-0.019225	0.000000	0.011307	-0.000758	0.000000	0.000000
37.352445	11.988720	23.205660	0.214087	-0.154950	2.197693	0.000000	-0.019225	0.000000	0.011054	-0.000758	0.000000	0.000000
37.685779	11.855688	23.313864	0.185009	-0.169659	2.191538	0.000000	-0.019225	0.000000	0.010801	-0.000758	0.000000	0.000000
38.020362	11.741652	23.432334	0.155822	-0.184424	2.185359	0.000000	-0.019225	0.000000	0.010548	-0.000758	0.000000	0.000000
38.317684	11.656668	23.545975	0.155608	-0.249755	2.179865	0.000000	-0.024036	0.000000	0.010322	-0.000782	0.000000	0.000000
38.758644	11.668628	23.505431	-0.183047	0.341337	2.183331	0.000000	0.038511	0.000000	0.010036	-0.000520	0.000000	0.000000
39.199604	11.981879	22.948403	-0.530064	0.916893	2.214344	0.000000	0.101503	0.000000	0.009863	-0.000263	0.000000	0.000000
39.640564	12.610738	21.900245	-0.901307	1.450718	2.273257	0.000000	0.165653	0.000000	0.009803	-0.000010	0.000000	0.000000
40.081524	13.583950	20.408660	-1.313745	1.918518	2.360742	0.000000	0.231691	0.000000	0.009855	0.000244	0.000000	0.000000
40.527484	14.963634	18.518852	-1.790228	2.300531	2.479277	0.000000	0.300798	0.000000	0.010021	0.000502	0.000000	0.000000
41.076544	16.726543	16.395247	-1.400919	1.589455	2.623940	0.000000	0.225950	0.000000	0.010207	0.000174	0.000000	0.000000
41.625604	18.004565	14.986192	-0.912610	0.991624	2.726513	0.000000	0.147095	0.000000	0.010211	-0.000157	0.000000	0.000000
42.174664	18.707373	14.191300	-0.359814	0.464446	2.785176	0.000000	0.065627	0.000000	0.010035	-0.000485	0.000000	0.000000
42.723724	18.785300	13.953933	0.218399	-0.029639	2.798885	0.000000	-0.017012	0.000000	0.009680	-0.000804	0.000000	0.000000
43.022297	18.686589	13.958002	0.157032	-0.017447	2.796036	0.000000	-0.010308	0.000000	0.009447	-0.000780	0.000000	0.000000
43.502297	18.548472	13.991263	0.130712	-0.051847	2.791462	0.000000	-0.010308	0.000000	0.009073	-0.000780	0.000000	0.000000
43.982297	18.435622	14.057548	0.104392	-0.086246	2.786889	0.000000	-0.010308	0.000000	0.008698	-0.000780	0.000000	0.000000
44.462297	18.348039	14.156856	0.078072	-0.120645	2.782315	0.000000	-0.010308	0.000000	0.008324	-0.000780	0.000000	0.000000
44.942297	18.285724	14.289187	0.051751	-0.155045	2.777741	0.000000	-0.010308	0.000000	0.007950	-0.000780	0.000000	0.000000
45.423547	18.248839	14.454837	-0.065053	-0.117916	2.773173	0.000000	0.003431	0.000000	0.007574	-0.000743	0.000000	0.000000
45.720870	18.292416	14.531132	-0.126209	-0.103341	2.774416	0.000000	0.010225	0.000000	0.007353	-0.000724	0.000000	0.000000
46.269930	18.122674	14.925872	0.433060	-0.619767	2.757993	0.000000	-0.071571	0.000000	0.006892	-0.000955	0.000000	0.000000
46.818990	17.351927	15.908532	0.961713	-1.180342	2.697050	0.000000	-0.152112	0.000000	0.006308	-0.001169	0.000000	0.000000
47.368050	16.034662	17.549103	1.422396	-1.825001	2.592663	0.000000	-0.229975	0.000000	0.005612	-0.001362	0.000000	0.000000
47.917110	14.263983	19.964433	1.782562	-2.599663	2.446671	0.000000	-0.303780	0.000000	0.004817	-0.001531	0.000000	0.000000
48.363070	12.885331	22.111865	1.319041	-2.195118	2.327097	0.000000	-0.235561	0.000000	0.004161	-0.001414	0.000000	0.000000
48.804030	11.901626	23.832611	0.919638	-1.692086	2.238247	0.000000	-0.170420	0.000000	0.003559	-0.001315	0.000000	0.000000
49.244990	11.250419	25.073910	0.562266	-1.112061	2.177634	0.000000	-0.107206	0.000000	0.002999	-0.001230	0.000000	0.000000
49.685950	10.901941	25.779293	0.230595	-0.481440	2.144572	0.000000	-0.045200	0.000000	0.002472	-0.001160	0.000000	0.000000
50.128160	10.840418	25.916399	-0.064563	0.109079	2.138705	0.000000	0.011158	0.000000	0.001973	-0.001107	0.000000	0.000000
50.425482	10.886999	25.854987	-0.092105	0.097470	2.142351	0.000000	0.011158	0.000000	0.001643	-0.001107	0.000000	0.000000
50.758816	10.958695	25.794346	-0.122982	0.084455	2.146440	0.000000	0.011158	0.000000	0.001274	-0.001107	0.000000	0.000000
51.092149	11.050975	25.742381	-0.153859	0.071440	2.150528	0.000000	0.011158	0.000000	0.000905	-0.001107	0.000000	0.000000
51.426732	11.164076	25.699467	-0.094282	-0.150110	2.154610	0.000000	-0.006322	0.000000	0.000535	-0.001112	0.000000	0.000000
51.724055	11.228130	25.792247	-0.093669	-0.225478	2.153060	0.000000	-0.011592	0.000000	0.000204	-0.001112	0.000000	0.000000
52.165015	11.456989	25.704100	-0.427661	0.424615	2.162066	0.000000	0.050319	0.000000	-0.000286	-0.001113	0.000000	0.000000
52.605975	11.987859	25.048991	-0.781183	1.055385	2.198477	0.000000	0.112815	0.000000	-0.000779	-0.001127	0.000000	0.000000
53.046935	12.844982	23.856738	-1.170385	1.638131	2.262713	0.000000	0.176608	0.000000	-0.001282	-0.001153	0.000000	0.000000
53.487895	14.067504	22.181597	-1.613047	2.146343	2.355511	0.000000	0.242425	0.000000	-0.001799	-0.001193	0.000000	0.000000
53.933855	15.732173	20.074727	-2.133627	2.558194	2.479463	0.000000	0.311409	0.000000	-0.002342	-0.001247	0.000000	0.000000
54.482915	17.875066	17.703785	-1.746831	1.785641	2.630730	0.000000	0.236480	0.000000	-0.003004	-0.001160	0.000000	0.000000
55.031975	19.522546	16.106784	-1.236684	1.140271	2.739585	0.000000	0.157338	0.000000	-0.003612	-0.001053	0.000000	0.000000
55.581035	20.558293	15.169965	-0.639219	0.576117	2.804090	0.000000	0.075388	0.000000	-0.004157	-0.000927	0.000000	0.000000
56.130095	20.909188	14.826591	0.003370	0.052998	2.823093	0.000000	-0.007914	0.000000	-0.004628	-0.000785	0.000000	0.000000
56.428668	20.945312	14.776900	-0.067676	0.073072	2.823254	0.000000	-0.000254	0.000000	-0.004866	-0.000797	0.000000	0.000000
56.762001	20.995758	14.735745	-0.083664	0.050394	2.823435	0.000000	-0.000254	0.000000	-0.005131	-0.000797	0.000000	0.000000
57.095334	21.056863	14.709708	-0.099651	0.027716	2.823616	0.000000	-0.000254	0.000000	-0.005397	-0.000797	0.000000	0.000000
57.429918	21.128916	14.698777	-0.115698	0.004953	2.823797	0.000000	-0.000254	0.000000	-0.005664	-0.000797	0.000000	0.000000
57.727240	21.201977	14.701831	-0.188049	0.024839	2.823960	0.000000	0.007483	0.000000	-0.005901	-0.000813	0.000000	0.000000
58.276300	21.046113	14.956619	0.469834	-0.491662	2.805542	0.000000	-0.075853	0.000000	-0.006294	-0.000616	0.000000	0.000000
58.825360	20.181984	15.794315	1.094527	-1.043174	2.741564	0.000000	-0.157853	0.000000	-0.006575	-0.000407	0.000000	0.000000
59.374420	18.670617	17.274568	1.641920	-1.668972	2.633158	0.000000	-0.237060	0.000000	-0.006739	-0.000191	0.000000	0.000000
59.923480	16.618733	19.502792	2.073366	-2.413624	2.482241	0.000000	-0.312067	0.000000	-0.006784	0.000028	0.000000	0.000000
60.369440	15.011435	21.483208	1.543656	-2.008629	2.358562	0.000000	-0.243032	0.000000	-0.006811	-0.000149	0.000000	0.000000
60.810400	13.855186	23.042095	1.088567	-1.513478	2.266119	0.000000	-0.177143	0.000000	-0.006915	-0.000326	0.000000	0.000000
61.251360	13.076867	24.132199	0.683199	-0.949478	2.202334	0.000000	-0.113268	0.000000	-0.007099	-0.000506	0.000000	0.000000
61.692320	12.640932	24.703933	0.309039	-0.342289	2.166481	0.000000	-0.050677	0.000000	-0.007363	-0.000693	0.000000	0.000000
62.134530	12.527532	24.730713	-0.018183	0.215752	2.158165	0.000000	0.005673	0.000000	-0.007712	-0.000867	0.000000	0.000000
62.431853	12.545403	24.606157	-0.041924	0.203170	2.160109	0.000000	0.005673	0.000000	-0.007969	-0.000867	0.000000	0.000000
62.765186	12.582225	24.475412	-0.068541	0.189064	2.162289	0.000000	0.005673	0.000000	-0.008258	-0.000867	0.000000	0.000000
63.098520	12.636791	24.354071	-0.095158	0.174959	2.164469	0.000000	0.005673	0.000000	-0.008548	-0.000867	0.000000	0.000000
63.433103	12.709406	24.241732	-0.121874	0.160800	2.166658	0.000000	0.005673	0.000000	-0.008838	-0.000867	0.000000	0.000000
63.730426	12.788906	24.149913	-0.111624	0.083727	2.168600	0.000000	-0.000091	0.000000	-0.009096	-0.000844	0.000000	0.000000
64.171386	13.049389	23.810090	-0.481767	0.684086	2.182705	0.000000	0.062271	0.000000	-0.009520	-0.001084	0.000000	0.000000
64.612346	13.644644	22.952626	-0.873904	1.253324	2.224544	0.000000	0.125354	0.000000	-0.010053	-0.001336	0.000000	0.000000
65.053306	14.601837	21.616537	-1.305938	1.765549	2.294596	0.000000	0.189879	0.000000	-0.010701	-0.001604	0.000000	0.000000
65.494266	15.964656	19.862609	-1.797594	2.197462	2.393666	0.000000	0.256582	0.000000	-0.011470	-0.001889	0.000000	0.000000
65.940226	17.818701	17.745670	-2.375738	2.529943	2.524507	0.000000	0.326592	0.000000	-0.012381	-0.002199	0.000000	0.000000
66.489286	20.192923	15.377434	-1.924686	1.809556	2.684084	0.000000	0.250096	0.000000	-0.013474	-0.001780	0.000000	0.000000
67.038346	21.994014	13.725191	-1.337798	1.218020	2.800145	0.000000	0.169136	0.000000	-0.014329	-0.001329	0.000000	0.000000
67.587406	23.094903	12.671269	-0.656501	0.713210	2.870621	0.000000	0.085155	0.000000	-0.014929	-0.000856	0.000000	0.000000
68.136466	23.417932	12.140612	0.071118	0.259183	2.894255	0.000000	-0.000349	0.000000	-0.015265	-0.000366	0.000000	0.000000
68.435038	23.420135	11.972602	-0.010332	0.268129	2.896798	0.000000	0.008142	0.000000	-0.015387	-0.000409	0.000000	0.000000
68.768372	23.431768	11.803798	-0.024566	0.238286	2.899648	0.000000	0.008142	0.000000	-0.015524	-0.000409	0.000000	0.000000
69.101705	23.452890	11.654888	-0.038801	0.208443	2.902498	0.000000	0.008142	0.000000	-0.015660	-0.000409	0.000000	0.000000
69.436288	23.483635	11.525427	-0.053088	0.178488	2.905359	0.000000	0.008142	0.000000	-0.015797	-0.000409	0.000000	0.000000
69.733611	23.519154	11.427120	-0.135082	0.185469	2.907912	0.000000	0.016709	0.000000	-0.015918	-0.000453	0.000000	0.000000
70.282671	23.263567	11.451916	0.597803	-0.230908	2.893536	0.000000	-0.069385	0.000000	-0.016025	0.000064	0.000000	0.000000
