#ParticleID	Turn	x[m]	xp	y[m]	yp	z[m]	dE[GeV]# s	beta_x	beta_y	alpha_x	alpha_y	D_x	D_y	D_px	D_py	orbit_x	orbit_px	orbit_y	orbit_py
0.300000	11.964747	25.303855	-0.018220	-0.022478	2.598555	0.000000	-0.000194	0.000000	-0.001060	0.000910	0.000000	0.000000
0.601250	11.983312	25.320986	-0.043406	-0.034389	2.598222	0.000000	-0.000194	0.000000	-0.000785	0.000910	0.000000	0.000000
0.898573	12.016514	25.344931	-0.038653	-0.108270	2.597893	0.000000	-0.006596	0.000000	-0.000515	0.000912	0.000000	0.000000
1.339533	12.204516	25.159131	-0.388999	0.528020	2.610777	0.000000	0.066832	0.000000	-0.000115	0.000903	0.000000	0.000000
1.780493	12.708142	24.420662	-0.757124	1.140289	2.656175	0.000000	0.141011	0.000000	0.000284	0.000906	0.000000	0.000000
2.221453	13.550411	23.163114	-1.159847	1.700679	2.734602	0.000000	0.216787	0.000000	0.000685	0.000918	0.000000	0.000000
2.662413	14.769815	21.443697	-1.615570	2.183691	2.846947	0.000000	0.295022	0.000000	0.001095	0.000941	0.000000	0.000000
3.108373	16.443144	19.315441	-2.149489	2.568522	2.996328	0.000000	0.377098	0.000000	0.001522	0.000975	0.000000	0.000000
3.657433	18.588035	16.924688	-1.733285	1.811333	3.177846	0.000000	0.284916	0.000000	0.002042	0.000917	0.000000	0.000000
4.206493	20.205531	15.290124	-1.194622	1.183164	3.307325	0.000000	0.187694	0.000000	0.002526	0.000843	0.000000	0.000000
4.755553	21.181341	14.295332	-0.571551	0.639271	3.382475	0.000000	0.087157	0.000000	0.002965	0.000754	0.000000	0.000000
5.304613	21.446508	13.869459	0.091914	0.140912	3.401969	0.000000	-0.014915	0.000000	0.003352	0.000652	0.000000	0.000000
5.603185	21.428292	13.770996	0.023523	0.153800	3.399897	0.000000	-0.006278	0.000000	0.003549	0.000661	0.000000	0.000000
5.936519	21.417798	13.676723	0.007959	0.129021	3.397584	0.000000	-0.006278	0.000000	0.003769	0.000661	0.000000	0.000000
6.269852	21.417680	13.598968	-0.007606	0.104243	3.395271	0.000000	-0.006278	0.000000	0.003990	0.000661	0.000000	0.000000
6.604435	21.427997	13.537533	-0.023228	0.079373	3.392950	0.000000	-0.006278	0.000000	0.004211	0.000661	0.000000	0.000000
6.901758	21.445950	13.496898	-0.091050	0.091349	3.390888	0.000000	0.002251	0.000000	0.004407	0.000672	0.000000	0.000000
7.450818	21.180268	13.658420	0.572403	-0.387246	3.363878	0.000000	-0.099344	0.000000	0.004736	0.000524	0.000000	0.000000
7.999878	20.203919	14.357509	1.195428	-0.893429	3.281568	0.000000	-0.199168	0.000000	0.004980	0.000366	0.000000	0.000000
8.548938	18.585876	15.643971	1.734003	-1.463260	3.145420	0.000000	-0.295453	0.000000	0.005137	0.000202	0.000000	0.000000
9.097998	16.440457	17.609455	2.150075	-2.137332	2.957853	0.000000	-0.386493	0.000000	0.005202	0.000035	0.000000	0.000000
9.543958	14.766783	19.360546	1.616021	-1.772348	2.803594	0.000000	-0.305454	0.000000	0.005248	0.000170	0.000000	0.000000
9.984918	13.547128	20.733038	1.160270	-1.328081	2.685894	0.000000	-0.228394	0.000000	0.005353	0.000307	0.000000	0.000000
10.425878	12.704645	21.685444	0.757538	-0.823377	2.601511	0.000000	-0.153940	0.000000	0.005519	0.000447	0.000000	0.000000
10.866838	12.200834	22.174420	0.389421	-0.281203	2.549482	0.000000	-0.081243	0.000000	0.005748	0.000592	0.000000	0.000000
11.309048	12.012521	22.177131	0.066741	0.222248	2.529195	0.000000	-0.015322	0.000000	0.006044	0.000730	0.000000	0.000000
11.606371	11.980225	22.049155	0.041880	0.208179	2.524422	0.000000	-0.015322	0.000000	0.006261	0.000730	0.000000	0.000000
12.086371	11.959286	21.860205	0.001744	0.185466	2.516717	0.000000	-0.015322	0.000000	0.006611	0.000730	0.000000	0.000000
12.566371	11.976877	21.693060	-0.038393	0.162753	2.509012	0.000000	-0.015322	0.000000	0.006962	0.000730	0.000000	0.000000
13.046371	12.033000	21.547719	-0.078529	0.140040	2.501307	0.000000	-0.015322	0.000000	0.007312	0.000730	0.000000	0.000000
13.526371	12.127653	21.424183	-0.118665	0.117327	2.493603	0.000000	-0.015322	0.000000	0.007662	0.000730	0.000000	0.000000
14.007621	12.261235	21.322214	-0.158906	0.094555	2.485878	0.000000	-0.015322	0.000000	0.008014	0.000730	0.000000	0.000000
14.304943	12.363095	21.270213	-0.155862	0.032684	2.481103	0.000000	-0.020922	0.000000	0.008231	0.000711	0.000000	0.000000
14.745903	12.659178	21.008720	-0.517764	0.557996	2.487033	0.000000	0.049422	0.000000	0.008592	0.000928	0.000000	0.000000
15.186863	13.283707	20.293355	-0.903338	1.057915	2.523985	0.000000	0.120318	0.000000	0.009051	0.001155	0.000000	0.000000
15.627823	14.265241	19.156665	-1.330209	1.509692	2.592374	0.000000	0.192573	0.000000	0.009612	0.001396	0.000000	0.000000
16.068783	15.648665	17.650370	-1.817891	1.892763	2.692975	0.000000	0.267008	0.000000	0.010284	0.001652	0.000000	0.000000
16.514743	17.520883	15.821362	-2.393639	2.190653	2.828621	0.000000	0.344960	0.000000	0.011082	0.001929	0.000000	0.000000
17.063803	19.924872	13.779887	-1.957130	1.548805	2.993629	0.000000	0.258452	0.000000	0.012040	0.001555	0.000000	0.000000
17.612863	21.770108	12.378959	-1.382276	1.017306	3.110014	0.000000	0.167383	0.000000	0.012784	0.001152	0.000000	0.000000
18.161923	22.926124	11.518780	-0.709705	0.558290	3.175721	0.000000	0.073362	0.000000	0.013302	0.000730	0.000000	0.000000
18.710983	23.311175	11.138072	0.013040	0.139052	3.189590	0.000000	-0.021948	0.000000	0.013583	0.000294	0.000000	0.000000
19.009556	23.339176	11.048019	-0.053517	0.137141	3.185125	0.000000	-0.014597	0.000000	0.013681	0.000327	0.000000	0.000000
19.342889	23.379628	10.966838	-0.067840	0.106402	3.180151	0.000000	-0.014597	0.000000	0.013790	0.000327	0.000000	0.000000
19.676223	23.429629	10.906149	-0.082163	0.075663	3.175176	0.000000	-0.014597	0.000000	0.013899	0.000327	0.000000	0.000000
20.010806	23.489711	10.865707	-0.212921	0.098645	3.170202	0.000000	0.001110	0.000000	0.014009	0.000397	0.000000	0.000000
20.308129	23.620396	10.815200	-0.280284	0.095871	3.170423	0.000000	0.008376	0.000000	0.014127	0.000432	0.000000	0.000000
20.857189	23.521012	10.929625	0.460319	-0.305463	3.148919	0.000000	-0.086191	0.000000	0.014238	-0.000028	0.000000	0.000000
21.406249	22.621150	11.494149	1.168388	-0.728563	3.076066	0.000000	-0.179230	0.000000	0.014096	-0.000487	0.000000	0.000000
21.955309	20.984432	12.548993	1.793866	-1.203577	2.953156	0.000000	-0.269096	0.000000	0.013705	-0.000938	0.000000	0.000000
22.504369	18.726583	14.169307	2.292541	-1.764349	2.782367	0.000000	-0.354202	0.000000	0.013069	-0.001372	0.000000	0.000000
22.950329	16.949293	15.624984	1.705275	-1.485280	2.642069	0.000000	-0.277498	0.000000	0.012532	-0.001039	0.000000	0.000000
23.391289	15.672205	16.787121	1.200945	-1.139696	2.536267	0.000000	-0.204438	0.000000	0.012144	-0.000721	0.000000	0.000000
23.832249	14.814247	17.620294	0.751518	-0.742240	2.462013	0.000000	-0.133700	0.000000	0.011895	-0.000411	0.000000	0.000000
24.273209	14.336184	18.086585	0.336448	-0.311002	2.418462	0.000000	-0.064480	0.000000	0.011781	-0.000106	0.000000	0.000000
24.715418	14.216293	18.164463	-0.032477	0.094849	2.405123	0.000000	-0.001214	0.000000	0.011801	0.000171	0.000000	0.000000
25.012741	14.241830	18.112971	-0.053413	0.078334	2.404711	0.000000	-0.001214	0.000000	0.011852	0.000171	0.000000	0.000000
25.346075	14.285263	18.066921	-0.076885	0.059818	2.404249	0.000000	-0.001214	0.000000	0.011909	0.000171	0.000000	0.000000
25.679408	14.344343	18.033214	-0.100357	0.041302	2.403788	0.000000	-0.001214	0.000000	0.011966	0.000171	0.000000	0.000000
26.013991	14.419089	18.012160	-0.006940	-0.123407	2.403300	0.000000	-0.020711	0.000000	0.012023	0.000073	0.000000	0.000000
26.311314	14.429285	18.090603	0.003667	-0.179306	2.397115	0.000000	-0.025899	0.000000	0.012044	0.000045	0.000000	0.000000
26.752274	14.604489	18.052769	-0.402345	0.264763	2.400633	0.000000	0.042254	0.000000	0.012133	0.000357	0.000000	0.000000
27.193234	15.144613	17.627072	-0.826753	0.696782	2.434152	0.000000	0.110885	0.000000	0.012360	0.000673	0.000000	0.000000
27.634194	16.074360	16.832882	-1.288959	1.097089	2.498052	0.000000	0.180772	0.000000	0.012728	0.000996	0.000000	0.000000
28.075154	17.436251	15.706339	-1.810097	1.447463	2.593060	0.000000	0.252709	0.000000	0.013240	0.001331	0.000000	0.000000
28.521114	19.316535	14.281542	-2.419191	1.733132	2.721868	0.000000	0.327994	0.000000	0.013912	0.001683	0.000000	0.000000
29.070174	21.707755	12.694891	-1.908381	1.173094	2.878689	0.000000	0.245073	0.000000	0.014710	0.001219	0.000000	0.000000
29.619234	23.459948	11.674100	-1.262661	0.696644	2.988968	0.000000	0.157822	0.000000	0.015247	0.000734	0.000000	0.000000
30.168294	24.449209	11.146445	-0.527677	0.269834	3.050752	0.000000	0.067783	0.000000	0.015514	0.000236	0.000000	0.000000
30.717354	24.605585	11.074332	0.244609	-0.137749	3.062951	0.000000	-0.023456	0.000000	0.015505	-0.000267	0.000000	0.000000
31.015927	24.496292	11.149851	0.176451	-0.139987	3.058071	0.000000	-0.016536	0.000000	0.015437	-0.000229	0.000000	0.000000
31.349260	24.383336	11.253337	0.162420	-0.170469	3.052635	0.000000	-0.016536	0.000000	0.015360	-0.000229	0.000000	0.000000
31.682593	24.279733	11.377143	0.148389	-0.200951	3.047200	0.000000	-0.016536	0.000000	0.015284	-0.000229	0.000000	0.000000
32.017177	24.185148	11.521850	0.134305	-0.231547	3.041744	0.000000	-0.016536	0.000000	0.015207	-0.000229	0.000000	0.000000
32.314499	24.109168	11.667543	0.067107	-0.232305	3.036906	0.000000	-0.009648	0.000000	0.015139	-0.000192	0.000000	0.000000
32.863559	23.622650	12.160976	0.813250	-0.671494	3.007051	0.000000	-0.099755	0.000000	0.014900	-0.000679	0.000000	0.000000
33.412619	22.343320	13.160079	1.501896	-1.158530	2.928375	0.000000	-0.188102	0.000000	0.014396	-0.001154	0.000000	0.000000
33.961679	20.361647	14.736033	2.084365	-1.728114	2.802270	0.000000	-0.273131	0.000000	0.013636	-0.001608	0.000000	0.000000
34.510739	17.817758	17.001107	2.519484	-2.420828	2.630962	0.000000	-0.353339	0.000000	0.012635	-0.002034	0.000000	0.000000
34.956699	15.841432	19.027612	1.926120	-2.103403	2.490464	0.000000	-0.280574	0.000000	0.011799	-0.001717	0.000000	0.000000
35.397659	14.368327	20.707581	1.426000	-1.691269	2.382734	0.000000	-0.211451	0.000000	0.011108	-0.001421	0.000000	0.000000
35.838619	13.306134	21.988544	0.991075	-1.202164	2.304812	0.000000	-0.144722	0.000000	0.010543	-0.001142	0.000000	0.000000
36.279579	12.606278	22.812211	0.601459	-0.658348	2.255817	0.000000	-0.079630	0.000000	0.010098	-0.000876	0.000000	0.000000
36.721789	12.236119	23.141382	0.266396	-0.135799	2.235171	0.000000	-0.020398	0.000000	0.009768	-0.000643	0.000000	0.000000
37.019112	12.085445	23.226025	0.240373	-0.148884	2.229297	0.000000	-0.020398	0.000000	0.009577	-0.000643	0.000000	0.000000
37.352445	11.934921	23.330171	0.211198	-0.163554	2.222712	0.000000	-0.020398	0.000000	0.009362	-0.000643	0.000000	0.000000
37.685779	11.803848	23.444097	0.182023	-0.178224	2.216127	0.000000	-0.020398	0.000000	0.009148	-0.000643	0.000000	0.000000
38.020362	11.691842	23.568286	0.152738	-0.192949	2.209518	0.000000	-0.020398	0.000000	0.008933	-0.000643	0.000000	0.000000
38.317684	11.608728	23.686965	0.152779	-0.259431	2.203642	0.000000	-0.025345	0.000000	0.008742	-0.000663	0.000000	0.000000
38.758644	11.622720	23.653281	-0.184808	0.335519	2.206622	0.000000	0.037806	0.000000	0.008498	-0.000441	0.000000	0.000000
39.199604	11.937086	23.099592	-0.530837	0.915197	2.237429	0.000000	0.101393	0.000000	0.008352	-0.000224	0.000000	0.000000
39.640564	12.566194	22.051098	-0.901126	1.453224	2.296415	0.000000	0.166137	0.000000	0.008300	-0.000009	0.000000	0.000000
40.081524	13.538800	20.555516	-1.312600	1.925115	2.384252	0.000000	0.232774	0.000000	0.008344	0.000205	0.000000	0.000000
40.527484	14.916938	18.658164	-1.788026	2.310906	2.503427	0.000000	0.302493	0.000000	0.008484	0.000424	0.000000	0.000000
41.076544	16.678345	16.525557	-1.400500	1.595653	2.648829	0.000000	0.226853	0.000000	0.008641	0.000146	0.000000	0.000000
41.625604	17.956881	15.111808	-0.914012	0.994083	2.751676	0.000000	0.147191	0.000000	0.008644	-0.000134	0.000000	0.000000
42.174664	18.662189	14.316196	-0.362941	0.463337	2.810143	0.000000	0.064915	0.000000	0.008494	-0.000412	0.000000	0.000000
42.723724	18.744430	14.082037	0.213767	-0.034397	2.823189	0.000000	-0.018519	0.000000	0.008193	-0.000682	0.000000	0.000000
43.022297	18.648825	14.088422	0.151851	-0.021247	2.819902	0.000000	-0.011661	0.000000	0.007996	-0.000661	0.000000	0.000000
43.502297	18.515688	14.125180	0.125519	-0.055333	2.814622	0.000000	-0.011661	0.000000	0.007678	-0.000661	0.000000	0.000000
43.982297	18.407830	14.194661	0.099186	-0.089419	2.809342	0.000000	-0.011661	0.000000	0.007361	-0.000661	0.000000	0.000000
44.462297	18.325251	14.296865	0.072854	-0.123505	2.804063	0.000000	-0.011661	0.000000	0.007044	-0.000661	0.000000	0.000000
44.942297	18.267951	14.431790	0.046521	-0.157591	2.798783	0.000000	-0.011661	0.000000	0.006726	-0.000661	0.000000	0.000000
45.423547	18.236105	14.599737	-0.070231	-0.119429	2.793507	0.000000	0.002180	0.000000	0.006408	-0.000630	0.000000	0.000000
45.720870	18.282760	14.676880	-0.131856	-0.103899	2.794343	0.000000	0.009094	0.000000	0.006221	-0.000614	0.000000	0.000000
46.269930	18.119399	15.074618	0.427227	-0.624712	2.777057	0.000000	-0.073331	0.000000	0.005830	-0.000809	0.000000	0.000000
46.818990	17.355026	16.065250	0.956111	-1.190027	2.714898	0.000000	-0.154468	0.000000	0.005335	-0.000990	0.000000	0.000000
47.368050	16.043670	17.719334	1.417427	-1.840112	2.608962	0.000000	-0.232881	0.000000	0.004746	-0.001153	0.000000	0.000000
47.917110	14.278009	20.154682	1.778583	-2.621276	2.461121	0.000000	-0.307182	0.000000	0.004072	-0.001296	0.000000	0.000000
48.363070	12.902888	22.319419	1.315196	-2.212193	2.340012	0.000000	-0.238611	0.000000	0.003517	-0.001198	0.000000	0.000000
48.804030	11.922629	24.052915	0.915731	-1.703848	2.249800	0.000000	-0.173155	0.000000	0.003008	-0.001114	0.000000	0.000000
49.244990	11.274994	25.302030	0.558117	-1.117976	2.187961	0.000000	-0.109660	0.000000	0.002533	-0.001042	0.000000	0.000000
49.685950	10.930379	26.009936	0.226012	-0.481237	2.153796	0.000000	-0.047403	0.000000	0.002087	-0.000983	0.000000	0.000000
50.128160	10.873202	26.144146	-0.069632	0.114593	2.146931	0.000000	0.009144	0.000000	0.001663	-0.000938	0.000000	0.000000
50.425482	10.922778	26.079429	-0.097110	0.103071	2.149929	0.000000	0.009144	0.000000	0.001384	-0.000938	0.000000	0.000000
50.758816	10.997786	26.015021	-0.127915	0.090154	2.153289	0.000000	0.009144	0.000000	0.001072	-0.000938	0.000000	0.000000
51.092149	11.093331	25.959224	-0.158720	0.077237	2.156650	0.000000	0.009144	0.000000	0.000759	-0.000938	0.000000	0.000000
51.426732	11.209660	25.912403	-0.098700	-0.145943	2.160001	0.000000	-0.008379	0.000000	0.000445	-0.000942	0.000000	0.000000
51.724055	11.276314	26.002672	-0.097873	-0.221678	2.157790	0.000000	-0.013663	0.000000	0.000165	-0.000942	0.000000	0.000000
52.165015	11.509422	25.908729	-0.433074	0.433909	2.165835	0.000000	0.048358	0.000000	-0.000251	-0.000943	0.000000	0.000000
52.605975	12.045713	25.243147	-0.788055	1.069750	2.201328	0.000000	0.110939	0.000000	-0.000669	-0.000955	0.000000	0.000000
53.046935	12.909681	24.036219	-1.179031	1.656915	2.264677	0.000000	0.174794	0.000000	-0.001095	-0.000978	0.000000	0.000000
53.487895	14.140785	22.342867	-1.623864	2.168691	2.356609	0.000000	0.240650	0.000000	-0.001533	-0.001012	0.000000	0.000000
53.933855	15.816302	20.214832	-2.147141	2.583099	2.479695	0.000000	0.309653	0.000000	-0.001994	-0.001058	0.000000	0.000000
54.482915	17.972962	17.819833	-1.758137	1.804787	2.629903	0.000000	0.234733	0.000000	-0.002555	-0.000984	0.000000	0.000000
55.031975	19.631327	16.204320	-1.244979	1.155022	2.737721	0.000000	0.155633	0.000000	-0.003071	-0.000893	0.000000	0.000000
55.581035	20.674301	15.253216	-0.643911	0.587524	2.801229	0.000000	0.073758	0.000000	-0.003533	-0.000786	0.000000	0.000000
56.130095	21.028249	14.898768	0.002616	0.061873	2.819295	0.000000	-0.009438	0.000000	-0.003931	-0.000665	0.000000	0.000000
56.428668	21.064808	14.843786	-0.068360	0.081961	2.818950	0.000000	-0.001831	0.000000	-0.004133	-0.000675	0.000000	0.000000
56.762001	21.115680	14.796681	-0.084258	0.059354	2.818564	0.000000	-0.001831	0.000000	-0.004358	-0.000675	0.000000	0.000000
57.095334	21.177152	14.764648	-0.100156	0.036747	2.818179	0.000000	-0.001831	0.000000	-0.004583	-0.000675	0.000000	0.000000
57.429918	21.249512	14.747650	-0.116114	0.014055	2.817792	0.000000	-0.001831	0.000000	-0.004809	-0.000675	0.000000	0.000000
57.727240	21.322790	14.745276	-0.188312	0.033870	2.817450	0.000000	0.005835	0.000000	-0.005010	-0.000689	0.000000	0.000000
58.276300	21.165022	14.990761	0.473608	-0.483642	2.798129	0.000000	-0.077277	0.000000	-0.005343	-0.000521	0.000000	0.000000
58.825360	20.294655	15.819955	1.102071	-1.035595	2.733394	0.000000	-0.159027	0.000000	-0.005580	-0.000344	0.000000	0.000000
59.374420	18.773159	17.291904	1.652701	-1.661298	2.624390	0.000000	-0.237963	0.000000	-0.005719	-0.000161	0.000000	0.000000
59.923480	16.707977	19.511434	2.086617	-2.405311	2.473048	0.000000	-0.312681	0.000000	-0.005757	0.000025	0.000000	0.000000
60.369440	15.090132	21.483948	1.554131	-1.999274	2.349037	0.000000	-0.243883	0.000000	-0.005779	-0.000125	0.000000	0.000000
60.810400	13.925659	23.034320	1.096790	-1.503541	2.256147	0.000000	-0.178244	0.000000	-0.005867	-0.000275	0.000000	0.000000
61.251360	13.140939	24.115587	0.689548	-0.939410	2.191791	0.000000	-0.114631	0.000000	-0.006021	-0.000428	0.000000	0.000000
61.692320	12.700128	24.678562	0.313805	-0.332546	2.155236	0.000000	-0.052320	0.000000	-0.006245	-0.000586	0.000000	0.000000
62.134530	12.583144	24.697045	-0.014965	0.225412	2.146075	0.000000	0.003820	0.000000	-0.006540	-0.000734	0.000000	0.000000
62.431853	12.599070	24.566765	-0.038599	0.212762	2.147429	0.000000	0.003820	0.000000	-0.006758	-0.000734	0.000000	0.000000
62.765186	12.633635	24.429652	-0.065096	0.198579	2.148947	0.000000	0.003820	0.000000	-0.007003	-0.000734	0.000000	0.000000
63.098520	12.685865	24.301993	-0.091592	0.184397	2.150466	0.000000	0.003820	0.000000	-0.007248	-0.000734	0.000000	0.000000
63.433103	12.756054	24.183364	-0.118188	0.170161	2.151989	0.000000	0.003820	0.000000	-0.007494	-0.000734	0.000000	0.000000
63.730426	12.833338	24.085982	-0.108104	0.093975	2.153341	0.000000	-0.001838	0.000000	-0.007712	-0.000715	0.000000	0.000000
64.171386	13.091171	23.737942	-0.479189	0.692388	2.166526	0.000000	0.060122	0.000000	-0.008072	-0.000918	0.000000	0.000000
64.612346	13.684566	22.874140	-0.872151	1.259303	2.207245	0.000000	0.122775	0.000000	-0.008523	-0.001132	0.000000	0.000000
65.053306	14.640608	21.533878	-1.304935	1.768930	2.275966	0.000000	0.186839	0.000000	-0.009072	-0.001359	0.000000	0.000000
65.494266	16.002940	19.778134	-1.797302	2.198089	2.373477	0.000000	0.253045	0.000000	-0.009724	-0.001601	0.000000	0.000000
65.940226	17.857112	17.661879	-2.376203	2.527797	2.502487	0.000000	0.322519	0.000000	-0.010496	-0.001863	0.000000	0.000000
66.489286	20.231092	15.294894	-1.923504	1.809291	2.659873	0.000000	0.246765	0.000000	-0.011422	-0.001508	0.000000	0.000000
67.038346	22.030136	13.641872	-1.335035	1.219623	2.774203	0.000000	0.166612	0.000000	-0.012146	-0.001126	0.000000	0.000000
67.587406	23.127294	12.585083	-0.652339	0.716800	2.843440	0.000000	0.083485	0.000000	-0.012655	-0.000725	0.000000	0.000000
68.136466	23.445157	12.049267	0.076393	0.265018	2.866351	0.000000	-0.001133	0.000000	-0.012940	-0.000310	0.000000	0.000000
68.435038	23.443639	11.878336	-0.004018	0.272842	2.868579	0.000000	0.007141	0.000000	-0.013043	-0.000346	0.000000	0.000000
68.768372	23.451057	11.706492	-0.018237	0.242690	2.871075	0.000000	0.007141	0.000000	-0.013158	-0.000346	0.000000	0.000000
69.101705	23.467954	11.554749	-0.032455	0.212539	2.873570	0.000000	0.007141	0.000000	-0.013273	-0.000346	0.000000	0.000000
69.436288	23.494448	11.422651	-0.046727	0.182275	2.876075	0.000000	0.007141	0.000000	-0.013389	-0.000346	0.000000	0.000000
69.733611	23.526131	11.322198	-0.127577	0.188128	2.878309	0.000000	0.015481	0.000000	-0.013492	-0.000383	0.000000	0.000000
70.282671	23.262223	11.342463	0.605370	-0.225261	2.863504	0.000000	-0.069654	0.000000	-0.013582	0.000056	0.000000	0.000000
