#ParticleID	Turn	x[m]	xp	y[m]	yp	z[m]	dE[GeV]# s	beta_x	beta_y	alpha_x	alpha_y	D_x	D_y	D_px	D_py	orbit_x	orbit_px	orbit_y	orbit_py
0.300000	11.930986	25.115749	-0.011951	-0.026728	2.603827	0.000000	-0.002055	0.000000	-0.001276	0.001070	0.000000	0.000000
0.601250	11.945794	25.135468	-0.037204	-0.038731	2.602886	0.000000	-0.002055	0.000000	-0.000953	0.001070	0.000000	0.000000
0.898573	11.975328	25.162022	-0.032585	-0.112267	2.601957	0.000000	-0.008474	0.000000	-0.000635	0.001071	0.000000	0.000000
1.339533	12.157539	24.981865	-0.381832	0.519271	2.613966	0.000000	0.065047	0.000000	-0.000166	0.001061	0.000000	0.000000
1.780493	12.654266	24.253069	-0.748531	1.127186	2.658528	0.000000	0.139297	0.000000	0.000302	0.001063	0.000000	0.000000
2.221453	13.488214	23.008782	-1.149438	1.683819	2.736144	0.000000	0.215123	0.000000	0.000773	0.001077	0.000000	0.000000
2.662413	14.697497	21.305611	-1.602871	2.163841	2.847695	0.000000	0.293388	0.000000	0.001253	0.001103	0.000000	0.000000
3.108373	16.358293	19.196060	-2.133900	2.546589	2.996281	0.000000	0.375474	0.000000	0.001753	0.001142	0.000000	0.000000
3.657433	18.487125	16.826513	-1.719702	1.794399	3.176826	0.000000	0.283308	0.000000	0.002363	0.001075	0.000000	0.000000
4.206493	20.091305	15.208357	-1.184000	1.170023	3.305354	0.000000	0.186133	0.000000	0.002930	0.000989	0.000000	0.000000
4.755553	21.057479	14.226345	-0.564635	0.628987	3.379595	0.000000	0.085673	0.000000	0.003446	0.000886	0.000000	0.000000
5.304613	21.317363	13.810536	0.094638	0.132753	3.398238	0.000000	-0.016293	0.000000	0.003900	0.000767	0.000000	0.000000
5.603185	21.297193	13.717160	0.026747	0.145268	3.395704	0.000000	-0.007707	0.000000	0.004132	0.000777	0.000000	0.000000
5.936519	21.284582	13.628586	0.011085	0.120455	3.392876	0.000000	-0.007707	0.000000	0.004391	0.000777	0.000000	0.000000
6.269852	21.282413	13.556554	-0.004578	0.095641	3.390048	0.000000	-0.007707	0.000000	0.004650	0.000777	0.000000	0.000000
6.604435	21.290737	13.500887	-0.020300	0.070735	3.387210	0.000000	-0.007707	0.000000	0.004910	0.000777	0.000000	0.000000
6.901758	21.306978	13.465395	-0.087508	0.082402	3.384689	0.000000	0.000750	0.000000	0.005141	0.000790	0.000000	0.000000
7.450818	21.040013	13.636320	0.571241	-0.395522	3.356856	0.000000	-0.100633	0.000000	0.005528	0.000617	0.000000	0.000000
7.999878	20.067514	14.344409	1.189645	-0.901625	3.273859	0.000000	-0.200220	0.000000	0.005817	0.000433	0.000000	0.000000
8.548938	18.458183	15.640111	1.724005	-1.471961	3.137173	0.000000	-0.296249	0.000000	0.006002	0.000242	0.000000	0.000000
9.097998	16.325729	17.615735	2.136565	-2.147161	2.949227	0.000000	-0.387019	0.000000	0.006082	0.000046	0.000000	0.000000
9.543958	14.662632	19.375919	1.605686	-1.782768	2.794673	0.000000	-0.306201	0.000000	0.006137	0.000205	0.000000	0.000000
9.984918	13.450864	20.757710	1.152634	-1.338625	2.676571	0.000000	-0.229375	0.000000	0.006263	0.000364	0.000000	0.000000
10.425878	12.614056	21.719305	0.752255	-0.833564	2.591671	0.000000	-0.155166	0.000000	0.006459	0.000528	0.000000	0.000000
10.866838	12.113967	22.216943	0.386249	-0.290567	2.539005	0.000000	-0.082729	0.000000	0.006730	0.000698	0.000000	0.000000
11.309048	11.927601	22.227402	0.065043	0.214527	2.517949	0.000000	-0.016998	0.000000	0.007078	0.000860	0.000000	0.000000
11.606371	11.896366	22.103995	0.040011	0.200535	2.512639	0.000000	-0.016998	0.000000	0.007333	0.000860	0.000000	0.000000
12.086371	11.877354	21.922324	-0.000402	0.177946	2.504068	0.000000	-0.016998	0.000000	0.007746	0.000860	0.000000	0.000000
12.566371	11.897139	21.762338	-0.040816	0.155358	2.495497	0.000000	-0.016998	0.000000	0.008159	0.000860	0.000000	0.000000
13.046371	11.955720	21.624037	-0.081229	0.132769	2.486925	0.000000	-0.016998	0.000000	0.008571	0.000860	0.000000	0.000000
13.526371	12.053098	21.507422	-0.121642	0.110180	2.478354	0.000000	-0.016998	0.000000	0.008984	0.000860	0.000000	0.000000
14.007621	12.189678	21.412273	-0.162160	0.087532	2.469760	0.000000	-0.016998	0.000000	0.009398	0.000860	0.000000	0.000000
14.304943	12.293515	21.364441	-0.159869	0.026301	2.464447	0.000000	-0.022475	0.000000	0.009653	0.000837	0.000000	0.000000
14.745903	12.592511	21.107409	-0.520323	0.554289	2.469535	0.000000	0.047431	0.000000	0.010078	0.001091	0.000000	0.000000
15.186863	13.218747	20.394051	-0.904567	1.057053	2.505431	0.000000	0.117866	0.000000	0.010618	0.001358	0.000000	0.000000
15.627823	14.200864	19.256821	-1.330169	1.511712	2.572537	0.000000	0.189629	0.000000	0.011279	0.001641	0.000000	0.000000
16.068783	15.583782	17.747466	-1.816587	1.897571	2.671614	0.000000	0.263535	0.000000	0.012068	0.001942	0.000000	0.000000
16.514743	17.454423	15.912894	-2.391050	2.198090	2.805458	0.000000	0.340918	0.000000	0.013006	0.002267	0.000000	0.000000
17.063803	19.857145	13.864717	-1.957132	1.553536	2.968300	0.000000	0.255189	0.000000	0.014131	0.001827	0.000000	0.000000
17.612863	21.703941	12.459871	-1.384850	1.019673	3.083000	0.000000	0.164962	0.000000	0.015006	0.001355	0.000000	0.000000
18.161923	22.864211	11.598276	-0.714657	0.558465	3.147535	0.000000	0.071830	0.000000	0.015615	0.000859	0.000000	0.000000
18.710983	23.255894	11.218553	0.006069	0.137050	3.160766	0.000000	-0.022563	0.000000	0.015947	0.000347	0.000000	0.000000
19.009556	23.287171	11.129922	-0.059101	0.134908	3.156024	0.000000	-0.015455	0.000000	0.016062	0.000386	0.000000	0.000000
19.342889	23.331359	11.050149	-0.073465	0.104413	3.150744	0.000000	-0.015455	0.000000	0.016191	0.000386	0.000000	0.000000
19.676223	23.385124	10.990705	-0.087829	0.073919	3.145464	0.000000	-0.015455	0.000000	0.016319	0.000386	0.000000	0.000000
20.010806	23.449010	10.951346	-0.218426	0.097570	3.140183	0.000000	0.000104	0.000000	0.016449	0.000468	0.000000	0.000000
20.308129	23.583037	10.901388	-0.284381	0.094594	3.140088	0.000000	0.007117	0.000000	0.016588	0.000508	0.000000	0.000000
20.857189	23.488791	11.018550	0.455132	-0.309190	3.118141	0.000000	-0.086467	0.000000	0.016719	-0.000032	0.000000	0.000000
21.406249	22.595014	11.588647	1.162474	-0.735008	3.045429	0.000000	-0.178517	0.000000	0.016553	-0.000571	0.000000	0.000000
21.955309	20.964907	12.652299	1.787633	-1.213201	2.923240	0.000000	-0.267409	0.000000	0.016093	-0.001100	0.000000	0.000000
22.504369	18.713746	14.285290	2.286413	-1.777844	2.753737	0.000000	-0.351573	0.000000	0.015348	-0.001610	0.000000	0.000000
22.950329	16.941433	15.751826	1.699836	-1.495833	2.614532	0.000000	-0.275587	0.000000	0.014718	-0.001219	0.000000	0.000000
23.391289	15.668839	16.921855	1.195997	-1.146888	2.509480	0.000000	-0.203224	0.000000	0.014263	-0.000846	0.000000	0.000000
23.832249	14.815065	17.759787	0.746843	-0.745740	2.435650	0.000000	-0.133167	0.000000	0.013970	-0.000482	0.000000	0.000000
24.273209	14.341060	18.227486	0.331834	-0.310650	2.392203	0.000000	-0.064622	0.000000	0.013837	-0.000123	0.000000	0.000000
24.715418	14.225323	18.303315	-0.037943	0.099661	2.378649	0.000000	-0.001854	0.000000	0.013862	0.000202	0.000000	0.000000
25.012741	14.254109	18.248930	-0.058874	0.083255	2.378037	0.000000	-0.001854	0.000000	0.013922	0.000202	0.000000	0.000000
25.346075	14.301181	18.199557	-0.082340	0.064863	2.377352	0.000000	-0.001854	0.000000	0.013989	0.000202	0.000000	0.000000
25.679408	14.363897	18.162446	-0.105806	0.046470	2.376667	0.000000	-0.001854	0.000000	0.014056	0.000202	0.000000	0.000000
26.013991	14.442287	18.137894	-0.012195	-0.119135	2.375955	0.000000	-0.021129	0.000000	0.014124	0.000088	0.000000	0.000000
26.311314	14.455575	18.213787	-0.002254	-0.174214	2.369640	0.000000	-0.026134	0.000000	0.014150	0.000055	0.000000	0.000000
26.752274	14.636340	18.169993	-0.409054	0.273130	2.372882	0.000000	0.041311	0.000000	0.014255	0.000421	0.000000	0.000000
27.193234	15.182875	17.735592	-0.834557	0.708044	2.405789	0.000000	0.109222	0.000000	0.014522	0.000792	0.000000	0.000000
27.634194	16.120179	16.930351	-1.298221	1.110730	2.468733	0.000000	0.178369	0.000000	0.014955	0.001172	0.000000	0.000000
28.075154	17.491128	15.790914	-1.821247	1.462861	2.562427	0.000000	0.249537	0.000000	0.015559	0.001566	0.000000	0.000000
28.521114	19.382626	14.351734	-2.432827	1.749636	2.689537	0.000000	0.324016	0.000000	0.016349	0.001980	0.000000	0.000000
29.070174	21.788289	12.748743	-1.920569	1.186414	2.844336	0.000000	0.242168	0.000000	0.017288	0.001435	0.000000	0.000000
29.619234	23.552794	11.714587	-1.272520	0.707734	2.953239	0.000000	0.156046	0.000000	0.017920	0.000864	0.000000	0.000000
30.168294	24.551343	11.175587	-0.534498	0.279487	3.014324	0.000000	0.067169	0.000000	0.018235	0.000278	0.000000	0.000000
30.717354	24.713312	11.093338	0.241315	-0.128843	3.026508	0.000000	-0.022896	0.000000	0.018225	-0.000312	0.000000	0.000000
31.015927	24.605087	11.163940	0.174582	-0.131655	3.021720	0.000000	-0.016255	0.000000	0.018145	-0.000269	0.000000	0.000000
31.349260	24.493353	11.261835	0.160622	-0.162031	3.016391	0.000000	-0.016255	0.000000	0.018056	-0.000269	0.000000	0.000000
31.682593	24.390925	11.379981	0.146661	-0.192406	3.011063	0.000000	-0.016255	0.000000	0.017966	-0.000269	0.000000	0.000000
32.017177	24.297472	11.518934	0.132649	-0.222896	3.005714	0.000000	-0.016255	0.000000	0.017876	-0.000269	0.000000	0.000000
32.314499	24.222521	11.659425	0.066789	-0.224322	3.000975	0.000000	-0.009638	0.000000	0.017796	-0.000226	0.000000	0.000000
32.863559	23.734208	12.143792	0.816731	-0.662839	2.971481	0.000000	-0.098593	0.000000	0.017515	-0.000798	0.000000	0.000000
33.412619	22.448965	13.132780	1.508921	-1.148590	2.893837	0.000000	-0.185812	0.000000	0.016923	-0.001356	0.000000	0.000000
33.961679	20.457698	14.696851	2.094421	-1.716187	2.769413	0.000000	-0.269754	0.000000	0.016030	-0.001890	0.000000	0.000000
34.510739	17.901239	16.947432	2.531839	-2.406071	2.600407	0.000000	-0.348941	0.000000	0.014853	-0.002390	0.000000	0.000000
34.956699	15.914927	18.960983	1.935806	-2.089002	2.461833	0.000000	-0.276936	0.000000	0.013871	-0.002018	0.000000	0.000000
35.397659	14.434156	20.628725	1.433539	-1.677940	2.355662	0.000000	-0.208528	0.000000	0.013058	-0.001670	0.000000	0.000000
35.838619	13.366058	21.898662	0.996818	-1.190510	2.278973	0.000000	-0.142478	0.000000	0.012394	-0.001342	0.000000	0.000000
36.279579	12.661779	22.713007	0.605674	-0.648897	2.230896	0.000000	-0.078038	0.000000	0.011872	-0.001029	0.000000	0.000000
36.721789	12.288478	23.034939	0.268879	-0.127744	2.210871	0.000000	-0.019290	0.000000	0.011484	-0.000755	0.000000	0.000000
37.019112	12.136305	23.114802	0.242934	-0.140862	2.205360	0.000000	-0.019290	0.000000	0.011259	-0.000755	0.000000	0.000000
37.352445	11.984044	23.213613	0.213847	-0.155569	2.199182	0.000000	-0.019290	0.000000	0.011008	-0.000755	0.000000	0.000000
37.685779	11.851175	23.322228	0.184761	-0.170276	2.193003	0.000000	-0.019290	0.000000	0.010756	-0.000755	0.000000	0.000000
38.020362	11.737307	23.441110	0.155565	-0.185038	2.186802	0.000000	-0.019290	0.000000	0.010503	-0.000755	0.000000	0.000000
38.317684	11.652479	23.555115	0.155347	-0.250412	2.181288	0.000000	-0.024106	0.000000	0.010279	-0.000779	0.000000	0.000000
38.758644	11.664629	23.515042	-0.183216	0.340932	2.184730	0.000000	0.038478	0.000000	0.009993	-0.000518	0.000000	0.000000
39.199604	11.977991	22.958253	-0.530148	0.916757	2.215735	0.000000	0.101505	0.000000	0.009821	-0.000262	0.000000	0.000000
39.640564	12.606888	21.910095	-0.901310	1.450858	2.274656	0.000000	0.165691	0.000000	0.009762	-0.000010	0.000000	0.000000
40.081524	13.580067	20.418268	-1.313668	1.918927	2.362167	0.000000	0.231766	0.000000	0.009813	0.000243	0.000000	0.000000
40.527484	14.959642	18.527982	-1.790065	2.301191	2.480743	0.000000	0.300910	0.000000	0.009978	0.000499	0.000000	0.000000
41.076544	16.722454	16.403805	-1.400909	1.589843	2.625455	0.000000	0.226013	0.000000	0.010163	0.000173	0.000000	0.000000
41.625604	18.000550	14.994461	-0.912755	0.991768	2.728050	0.000000	0.147109	0.000000	0.010168	-0.000156	0.000000	0.000000
42.174664	18.703597	14.199541	-0.360103	0.464355	2.786706	0.000000	0.065592	0.000000	0.009992	-0.000483	0.000000	0.000000
42.723724	18.781914	13.962404	0.217986	-0.029971	2.800381	0.000000	-0.017097	0.000000	0.009639	-0.000801	0.000000	0.000000
43.022297	18.683456	13.966646	0.156609	-0.017733	2.797507	0.000000	-0.010387	0.000000	0.009407	-0.000777	0.000000	0.000000
43.502297	18.545745	14.000171	0.130288	-0.052111	2.792895	0.000000	-0.010387	0.000000	0.009034	-0.000777	0.000000	0.000000
43.982297	18.433303	14.066699	0.103967	-0.086489	2.788282	0.000000	-0.010387	0.000000	0.008661	-0.000777	0.000000	0.000000
44.462297	18.346129	14.166231	0.077645	-0.120868	2.783669	0.000000	-0.010387	0.000000	0.008288	-0.000777	0.000000	0.000000
44.942297	18.284224	14.298766	0.051324	-0.155246	2.779057	0.000000	-0.010387	0.000000	0.007915	-0.000777	0.000000	0.000000
45.423547	18.247751	14.464599	-0.065475	-0.118048	2.774449	0.000000	0.003359	0.000000	0.007541	-0.000740	0.000000	0.000000
45.720870	18.291580	14.540969	-0.126645	-0.103424	2.775670	0.000000	0.010159	0.000000	0.007322	-0.000721	0.000000	0.000000
46.269930	18.122329	14.935963	0.432607	-0.620149	2.759197	0.000000	-0.071677	0.000000	0.006862	-0.000951	0.000000	0.000000
46.818990	17.352075	15.919217	0.961276	-1.181050	2.698183	0.000000	-0.152257	0.000000	0.006280	-0.001164	0.000000	0.000000
47.368050	16.035269	17.560764	1.422006	-1.826083	2.593704	0.000000	-0.230154	0.000000	0.005588	-0.001356	0.000000	0.000000
47.917110	14.264982	19.977522	1.782246	-2.601198	2.447602	0.000000	-0.303991	0.000000	0.004796	-0.001524	0.000000	0.000000
48.363070	12.886607	22.126191	1.318737	-2.196344	2.327935	0.000000	-0.235749	0.000000	0.004142	-0.001408	0.000000	0.000000
48.804030	11.903172	23.847861	0.919331	-1.692948	2.239005	0.000000	-0.170588	0.000000	0.003544	-0.001309	0.000000	0.000000
49.244990	11.252243	25.089745	0.561942	-1.112521	2.178319	0.000000	-0.107355	0.000000	0.002985	-0.001225	0.000000	0.000000
49.685950	10.904064	25.795347	0.230239	-0.481475	2.145193	0.000000	-0.045332	0.000000	0.002461	-0.001155	0.000000	0.000000
50.128160	10.842877	25.932295	-0.064959	0.109424	2.139269	0.000000	0.011038	0.000000	0.001963	-0.001103	0.000000	0.000000
50.425482	10.889692	25.870676	-0.092496	0.097821	2.142879	0.000000	0.011038	0.000000	0.001635	-0.001103	0.000000	0.000000
50.758816	10.961646	25.809798	-0.123368	0.084813	2.146926	0.000000	0.011038	0.000000	0.001268	-0.001103	0.000000	0.000000
51.092149	11.054182	25.757591	-0.154240	0.071805	2.150973	0.000000	0.011038	0.000000	0.000900	-0.001103	0.000000	0.000000
51.426732	11.167536	25.714432	-0.094629	-0.149859	2.155013	0.000000	-0.006444	0.000000	0.000531	-0.001107	0.000000	0.000000
51.724055	11.231794	25.807060	-0.094000	-0.225255	2.153426	0.000000	-0.011715	0.000000	0.000202	-0.001108	0.000000	0.000000
52.165015	11.460985	25.718544	-0.428084	0.425226	2.162377	0.000000	0.050204	0.000000	-0.000286	-0.001109	0.000000	0.000000
52.605975	11.992276	25.062735	-0.781717	1.056355	2.198737	0.000000	0.112708	0.000000	-0.000777	-0.001122	0.000000	0.000000
53.046935	12.849929	23.869484	-1.171056	1.639417	2.262925	0.000000	0.176507	0.000000	-0.001277	-0.001149	0.000000	0.000000
53.487895	14.073114	22.193091	-1.613884	2.147886	2.355678	0.000000	0.242328	0.000000	-0.001792	-0.001188	0.000000	0.000000
53.933855	15.738620	20.084755	-2.134671	2.559924	2.479586	0.000000	0.311317	0.000000	-0.002334	-0.001242	0.000000	0.000000
54.482915	17.882576	17.712145	-1.747707	1.786965	2.630798	0.000000	0.236384	0.000000	-0.002993	-0.001156	0.000000	0.000000
55.031975	19.530898	16.113869	-1.237331	1.141283	2.739598	0.000000	0.157241	0.000000	-0.003599	-0.001049	0.000000	0.000000
55.581035	20.567207	15.176076	-0.639590	0.576889	2.804047	0.000000	0.075292	0.000000	-0.004141	-0.000923	0.000000	0.000000
56.130095	20.918346	14.831960	0.003302	0.053585	2.822996	0.000000	-0.008008	0.000000	-0.004610	-0.000782	0.000000	0.000000
56.428668	20.954520	14.781912	-0.067756	0.073673	2.823127	0.000000	-0.000350	0.000000	-0.004847	-0.000794	0.000000	0.000000
56.762001	21.005017	14.740354	-0.083736	0.051001	2.823275	0.000000	-0.000350	0.000000	-0.005111	-0.000794	0.000000	0.000000
57.095334	21.066168	14.713911	-0.099717	0.028328	2.823423	0.000000	-0.000350	0.000000	-0.005376	-0.000794	0.000000	0.000000
57.429918	21.138262	14.702569	-0.115757	0.005571	2.823571	0.000000	-0.000350	0.000000	-0.005642	-0.000794	0.000000	0.000000
57.727240	21.211356	14.705255	-0.188117	0.025465	2.823705	0.000000	0.007385	0.000000	-0.005878	-0.000810	0.000000	0.000000
58.276300	21.055395	14.959404	0.470080	-0.491118	2.805234	0.000000	-0.075941	0.000000	-0.006269	-0.000613	0.000000	0.000000
58.825360	20.190831	15.796530	1.095069	-1.042673	2.741209	0.000000	-0.157931	0.000000	-0.006549	-0.000405	0.000000	0.000000
59.374420	18.678723	17.276242	1.642720	-1.668480	2.632762	0.000000	-0.237126	0.000000	-0.006712	-0.000190	0.000000	0.000000
59.923480	16.625843	19.503914	2.074368	-2.413105	2.481813	0.000000	-0.312120	0.000000	-0.006757	0.000028	0.000000	0.000000
60.369440	15.017749	21.483827	1.544443	-2.008026	2.358107	0.000000	-0.243096	0.000000	-0.006784	-0.000148	0.000000	0.000000
60.810400	13.860886	23.042157	1.089178	-1.512819	2.265633	0.000000	-0.177219	0.000000	-0.006888	-0.000324	0.000000	0.000000
61.251360	13.082096	24.131667	0.683661	-0.948795	2.201811	0.000000	-0.113357	0.000000	-0.007070	-0.000504	0.000000	0.000000
61.692320	12.645810	24.702800	0.309374	-0.341612	2.165914	0.000000	-0.050780	0.000000	-0.007333	-0.000690	0.000000	0.000000
62.134530	12.532165	24.728995	-0.017956	0.216413	2.157548	0.000000	0.005558	0.000000	-0.007680	-0.000864	0.000000	0.000000
62.431853	12.549898	24.604048	-0.041688	0.203826	2.159457	0.000000	0.005558	0.000000	-0.007937	-0.000864	0.000000	0.000000
62.765186	12.586560	24.472868	-0.068295	0.189716	2.161597	0.000000	0.005558	0.000000	-0.008225	-0.000864	0.000000	0.000000
63.098520	12.640958	24.351094	-0.094902	0.175605	2.163738	0.000000	0.005558	0.000000	-0.008513	-0.000864	0.000000	0.000000
63.433103	12.713399	24.238324	-0.121608	0.161441	2.165886	0.000000	0.005558	0.000000	-0.008802	-0.000864	0.000000	0.000000
63.730426	12.792739	24.146124	-0.111349	0.084395	2.167793	0.000000	-0.000202	0.000000	-0.009059	-0.000840	0.000000	0.000000
64.171386	13.053017	23.805761	-0.481574	0.684637	2.181843	0.000000	0.062139	0.000000	-0.009481	-0.001079	0.000000	0.000000
64.612346	13.648133	22.947872	-0.873782	1.253733	2.223616	0.000000	0.125198	0.000000	-0.010012	-0.001331	0.000000	0.000000
65.053306	14.605251	21.611491	-1.305883	1.765797	2.293592	0.000000	0.189698	0.000000	-0.010657	-0.001597	0.000000	0.000000
65.494266	15.968053	19.857419	-1.797604	2.197538	2.392573	0.000000	0.256375	0.000000	-0.011423	-0.001882	0.000000	0.000000
65.940226	17.822137	17.740491	-2.375814	2.529843	2.523311	0.000000	0.326356	0.000000	-0.012330	-0.002189	0.000000	0.000000
66.489286	20.196370	15.372301	-1.924621	1.809569	2.682766	0.000000	0.249899	0.000000	-0.013419	-0.001772	0.000000	0.000000
67.038346	21.997317	13.719980	-1.337596	1.218147	2.798728	0.000000	0.168983	0.000000	-0.014270	-0.001324	0.000000	0.000000
67.587406	23.097918	12.665851	-0.656176	0.713461	2.869131	0.000000	0.085050	0.000000	-0.014868	-0.000852	0.000000	0.000000
68.136466	23.420533	12.134844	0.071544	0.259575	2.892718	0.000000	-0.000406	0.000000	-0.015203	-0.000365	0.000000	0.000000
68.435038	23.422469	11.966624	-0.009883	0.268470	2.895242	0.000000	0.008077	0.000000	-0.015324	-0.000407	0.000000	0.000000
68.768372	23.433802	11.797598	-0.024116	0.238607	2.898070	0.000000	0.008077	0.000000	-0.015460	-0.000407	0.000000	0.000000
69.101705	23.454624	11.648481	-0.038348	0.208744	2.900898	0.000000	0.008077	0.000000	-0.015596	-0.000407	0.000000	0.000000
69.436288	23.485065	11.518826	-0.052635	0.178769	2.903737	0.000000	0.008077	0.000000	-0.015732	-0.000407	0.000000	0.000000
69.733611	23.520312	11.420357	-0.134599	0.185698	2.906270	0.000000	0.016636	0.000000	-0.015853	-0.000451	0.000000	0.000000
70.282671	23.264178	11.444798	0.598311	-0.230485	2.891867	0.000000	-0.069405	0.000000	-0.015959	0.000064	0.000000	0.000000
