#ParticleID	Turn	x[m]	xp	y[m]	yp	z[m]	dE[GeV]# s	beta_x	beta_y	alpha_x	alpha_y	D_x	D_y	D_px	D_py	orbit_x	orbit_px	orbit_y	orbit_py
0.300000	11.935522	25.137910	-0.012600	-0.026255	2.603106	0.000000	-0.001871	0.000000	-0.001264	0.001062	0.000000	0.000000
0.601250	11.950719	25.157341	-0.037844	-0.038247	2.602222	0.000000	-0.001871	0.000000	-0.000944	0.001062	0.000000	0.000000
0.898573	11.980630	25.183604	-0.033205	-0.111824	2.601350	0.000000	-0.008288	0.000000	-0.000628	0.001064	0.000000	0.000000
1.339533	12.163445	25.002806	-0.382589	0.520275	2.613442	0.000000	0.065219	0.000000	-0.000162	0.001053	0.000000	0.000000
1.780493	12.660911	24.272893	-0.749460	1.128706	2.658080	0.000000	0.139457	0.000000	0.000303	0.001055	0.000000	0.000000
2.221453	13.495769	23.027063	-1.150581	1.685786	2.735767	0.000000	0.215272	0.000000	0.000771	0.001069	0.000000	0.000000
2.662413	14.706171	21.321993	-1.604280	2.166165	2.847385	0.000000	0.293528	0.000000	0.001247	0.001095	0.000000	0.000000
3.108373	16.368365	19.210248	-2.135642	2.549164	2.996035	0.000000	0.375607	0.000000	0.001744	0.001134	0.000000	0.000000
3.657433	18.498981	16.838213	-1.721194	1.796383	3.176658	0.000000	0.283447	0.000000	0.002349	0.001067	0.000000	0.000000
4.206493	20.104610	15.218137	-1.185137	1.171558	3.305268	0.000000	0.186277	0.000000	0.002912	0.000982	0.000000	0.000000
4.755553	21.071797	14.234634	-0.565336	0.630182	3.379592	0.000000	0.085818	0.000000	0.003424	0.000880	0.000000	0.000000
5.304613	21.332186	13.817660	0.094421	0.133694	3.398318	0.000000	-0.016149	0.000000	0.003875	0.000761	0.000000	0.000000
5.603185	21.312171	13.723705	0.026492	0.146240	3.395829	0.000000	-0.007561	0.000000	0.004106	0.000771	0.000000	0.000000
5.936519	21.299727	13.634481	0.010840	0.121431	3.393052	0.000000	-0.007561	0.000000	0.004363	0.000771	0.000000	0.000000
6.269852	21.297718	13.561796	-0.004811	0.096623	3.390274	0.000000	-0.007561	0.000000	0.004620	0.000771	0.000000	0.000000
6.604435	21.306193	13.505471	-0.020521	0.071722	3.387486	0.000000	-0.007561	0.000000	0.004878	0.000771	0.000000	0.000000
6.901758	21.322564	13.469391	-0.087775	0.083412	3.385010	0.000000	0.000899	0.000000	0.005107	0.000784	0.000000	0.000000
7.450818	21.055602	13.639262	0.571499	-0.394600	3.357260	0.000000	-0.100495	0.000000	0.005491	0.000613	0.000000	0.000000
7.999878	20.082538	14.346357	1.190409	-0.900727	3.274336	0.000000	-0.200097	0.000000	0.005778	0.000430	0.000000	0.000000
8.548938	18.472113	15.641055	1.725222	-1.471022	3.137716	0.000000	-0.296142	0.000000	0.005962	0.000240	0.000000	0.000000
9.097998	16.338113	17.615593	2.138148	-2.146114	2.949824	0.000000	-0.386930	0.000000	0.006040	0.000045	0.000000	0.000000
9.543958	14.673768	19.374802	1.606913	-1.781638	2.795314	0.000000	-0.306097	0.000000	0.006096	0.000203	0.000000	0.000000
9.984918	13.461053	20.755577	1.153563	-1.337464	2.677263	0.000000	-0.229253	0.000000	0.006220	0.000361	0.000000	0.000000
10.425878	12.623541	21.716154	0.752928	-0.832425	2.592422	0.000000	-0.155026	0.000000	0.006415	0.000524	0.000000	0.000000
10.866838	12.122959	22.212816	0.386697	-0.289502	2.539824	0.000000	-0.082569	0.000000	0.006683	0.000693	0.000000	0.000000
11.309048	11.936287	22.222384	0.065321	0.215457	2.518846	0.000000	-0.016820	0.000000	0.007029	0.000853	0.000000	0.000000
11.606371	11.904882	22.098427	0.040306	0.201456	2.513591	0.000000	-0.016820	0.000000	0.007282	0.000853	0.000000	0.000000
12.086371	11.885574	21.915878	-0.000080	0.178854	2.505108	0.000000	-0.016820	0.000000	0.007692	0.000853	0.000000	0.000000
12.566371	11.905035	21.755028	-0.040465	0.156251	2.496625	0.000000	-0.016820	0.000000	0.008102	0.000853	0.000000	0.000000
13.046371	11.963266	21.615876	-0.080850	0.133649	2.488141	0.000000	-0.016820	0.000000	0.008511	0.000853	0.000000	0.000000
13.526371	12.060267	21.498422	-0.121235	0.111046	2.479658	0.000000	-0.016820	0.000000	0.008921	0.000853	0.000000	0.000000
14.007621	12.196442	21.402446	-0.161725	0.088385	2.471153	0.000000	-0.016820	0.000000	0.009331	0.000853	0.000000	0.000000
14.304943	12.300015	21.354109	-0.159382	0.027131	2.465895	0.000000	-0.022305	0.000000	0.009585	0.000831	0.000000	0.000000
14.745903	12.598640	21.096474	-0.519968	0.554823	2.471069	0.000000	0.047639	0.000000	0.010007	0.001083	0.000000	0.000000
15.186863	13.224613	20.382786	-0.904328	1.057267	2.507069	0.000000	0.118115	0.000000	0.010543	0.001348	0.000000	0.000000
15.627823	14.206563	19.245514	-1.330034	1.511596	2.574300	0.000000	0.189921	0.000000	0.011198	0.001629	0.000000	0.000000
16.068783	15.589402	17.736407	-1.816551	1.897130	2.673521	0.000000	0.263875	0.000000	0.011982	0.001927	0.000000	0.000000
16.514743	17.460044	15.902372	-2.391108	2.197341	2.807534	0.000000	0.341309	0.000000	0.012913	0.002250	0.000000	0.000000
17.063803	19.862690	13.854853	-1.956951	1.553085	2.970580	0.000000	0.255510	0.000000	0.014031	0.001814	0.000000	0.000000
17.612863	21.709155	12.450356	-1.384444	1.019487	3.085442	0.000000	0.165207	0.000000	0.014899	0.001345	0.000000	0.000000
18.161923	22.868864	11.588829	-0.714055	0.558531	3.150093	0.000000	0.071994	0.000000	0.015504	0.000852	0.000000	0.000000
18.710983	23.259796	11.208894	0.006824	0.137372	3.163393	0.000000	-0.022483	0.000000	0.015833	0.000345	0.000000	0.000000
19.009556	23.290666	11.120071	-0.058414	0.135213	3.158681	0.000000	-0.015360	0.000000	0.015947	0.000383	0.000000	0.000000
19.342889	23.334396	11.040104	-0.072775	0.104689	3.153434	0.000000	-0.015360	0.000000	0.016075	0.000383	0.000000	0.000000
19.676223	23.387699	10.980486	-0.087136	0.074165	3.148186	0.000000	-0.015360	0.000000	0.016203	0.000383	0.000000	0.000000
20.010806	23.451121	10.940972	-0.217740	0.097735	3.142938	0.000000	0.000212	0.000000	0.016331	0.000464	0.000000	0.000000
20.308129	23.584736	10.890925	-0.283761	0.094739	3.142876	0.000000	0.007240	0.000000	0.016469	0.000504	0.000000	0.000000
20.857189	23.489783	11.007766	0.455792	-0.308748	3.120973	0.000000	-0.086435	0.000000	0.016599	-0.000032	0.000000	0.000000
21.406249	22.595283	11.577201	1.163127	-0.734238	3.048253	0.000000	-0.178576	0.000000	0.016434	-0.000567	0.000000	0.000000
21.955309	20.964488	12.639802	1.788234	-1.212048	2.926004	0.000000	-0.267558	0.000000	0.015978	-0.001092	0.000000	0.000000
22.504369	18.712722	14.271276	2.286919	-1.776225	2.756391	0.000000	-0.351809	0.000000	0.015238	-0.001598	0.000000	0.000000
22.950329	16.939977	15.736515	1.700321	-1.494566	2.617091	0.000000	-0.275756	0.000000	0.014612	-0.001211	0.000000	0.000000
23.391289	15.666961	16.905601	1.196481	-1.146026	2.511976	0.000000	-0.203328	0.000000	0.014160	-0.000840	0.000000	0.000000
23.832249	14.812755	17.742965	0.747346	-0.745323	2.438113	0.000000	-0.133207	0.000000	0.013870	-0.000478	0.000000	0.000000
24.273209	14.338291	18.210499	0.332380	-0.310697	2.394661	0.000000	-0.064599	0.000000	0.013737	-0.000123	0.000000	0.000000
24.715418	14.222041	18.286576	-0.037301	0.099144	2.381131	0.000000	-0.001779	0.000000	0.013762	0.000200	0.000000	0.000000
25.012741	14.250447	18.232502	-0.058236	0.082725	2.380542	0.000000	-0.001779	0.000000	0.013821	0.000200	0.000000	0.000000
25.346075	14.297094	18.183488	-0.081706	0.064317	2.379883	0.000000	-0.001779	0.000000	0.013888	0.000200	0.000000	0.000000
25.679408	14.359388	18.146745	-0.105177	0.045910	2.379223	0.000000	-0.001779	0.000000	0.013955	0.000200	0.000000	0.000000
26.013991	14.437358	18.122574	-0.011610	-0.119586	2.378537	0.000000	-0.021075	0.000000	0.014022	0.000087	0.000000	0.000000
26.311314	14.450302	18.198738	-0.001650	-0.174696	2.372238	0.000000	-0.026091	0.000000	0.014048	0.000055	0.000000	0.000000
26.752274	14.630473	18.155548	-0.408308	0.272248	2.375515	0.000000	0.041421	0.000000	0.014152	0.000418	0.000000	0.000000
27.193234	15.176274	17.722089	-0.833636	0.706800	2.408487	0.000000	0.109401	0.000000	0.014417	0.000787	0.000000	0.000000
27.634194	16.112671	16.918085	-1.297083	1.109183	2.471528	0.000000	0.178619	0.000000	0.014847	0.001164	0.000000	0.000000
28.075154	17.482496	15.780124	-1.819839	1.461080	2.565353	0.000000	0.249860	0.000000	0.015446	0.001554	0.000000	0.000000
28.521114	19.372581	14.342614	-2.431078	1.747699	2.692629	0.000000	0.324417	0.000000	0.016230	0.001965	0.000000	0.000000
29.070174	21.776440	12.741526	-1.919068	1.184870	2.847626	0.000000	0.242466	0.000000	0.017162	0.001424	0.000000	0.000000
29.619234	23.539475	11.708905	-1.271374	0.706471	2.956668	0.000000	0.156235	0.000000	0.017790	0.000858	0.000000	0.000000
30.168294	24.536995	11.171180	-0.533788	0.278416	3.017828	0.000000	0.067246	0.000000	0.018102	0.000276	0.000000	0.000000
30.717354	24.698449	11.090039	0.241538	-0.129800	3.030023	0.000000	-0.022932	0.000000	0.018093	-0.000310	0.000000	0.000000
31.015927	24.590124	11.161198	0.174751	-0.132597	3.025229	0.000000	-0.016274	0.000000	0.018013	-0.000267	0.000000	0.000000
31.349260	24.478280	11.259726	0.160781	-0.162988	3.019893	0.000000	-0.016274	0.000000	0.017924	-0.000267	0.000000	0.000000
31.682593	24.375749	11.378515	0.146811	-0.193378	3.014557	0.000000	-0.016274	0.000000	0.017835	-0.000267	0.000000	0.000000
32.017177	24.282199	11.518123	0.132790	-0.223883	3.009202	0.000000	-0.016274	0.000000	0.017746	-0.000267	0.000000	0.000000
32.314499	24.207163	11.659207	0.066880	-0.225286	3.004456	0.000000	-0.009640	0.000000	0.017667	-0.000224	0.000000	0.000000
32.863559	23.719034	12.144652	0.816310	-0.663851	2.974928	0.000000	-0.098707	0.000000	0.017387	-0.000792	0.000000	0.000000
33.412619	22.434528	13.134809	1.508019	-1.149722	2.897187	0.000000	-0.186036	0.000000	0.016799	-0.001346	0.000000	0.000000
33.961679	20.444496	14.700223	2.093102	-1.717519	2.772606	0.000000	-0.270084	0.000000	0.015913	-0.001876	0.000000	0.000000
34.510739	17.889682	16.952416	2.530197	-2.407698	2.603383	0.000000	-0.349371	0.000000	0.014745	-0.002373	0.000000	0.000000
34.956699	15.904681	18.967415	1.934521	-2.090619	2.464627	0.000000	-0.277291	0.000000	0.013769	-0.002003	0.000000	0.000000
35.397659	14.424916	20.636547	1.432545	-1.679470	2.358310	0.000000	-0.208813	0.000000	0.012963	-0.001658	0.000000	0.000000
35.838619	13.357587	21.907768	0.996070	-1.191882	2.281505	0.000000	-0.142697	0.000000	0.012304	-0.001333	0.000000	0.000000
36.279579	12.653874	22.723231	0.605138	-0.650050	2.233343	0.000000	-0.078192	0.000000	0.011785	-0.001022	0.000000	0.000000
36.721789	12.280964	23.046067	0.268539	-0.128699	2.213260	0.000000	-0.019392	0.000000	0.011400	-0.000750	0.000000	0.000000
37.019112	12.128996	23.126496	0.242583	-0.141814	2.207718	0.000000	-0.019392	0.000000	0.011177	-0.000750	0.000000	0.000000
37.352445	11.976974	23.225940	0.213483	-0.156518	2.201504	0.000000	-0.019392	0.000000	0.010927	-0.000750	0.000000	0.000000
37.685779	11.844351	23.335187	0.184384	-0.171221	2.195289	0.000000	-0.019392	0.000000	0.010677	-0.000750	0.000000	0.000000
38.020362	11.730741	23.454700	0.155175	-0.185979	2.189052	0.000000	-0.019392	0.000000	0.010426	-0.000750	0.000000	0.000000
38.317684	11.646148	23.569263	0.154953	-0.251423	2.183506	0.000000	-0.024216	0.000000	0.010203	-0.000773	0.000000	0.000000
38.758644	11.658583	23.529913	-0.183470	0.340309	2.186910	0.000000	0.038423	0.000000	0.009920	-0.000514	0.000000	0.000000
39.199604	11.972113	22.973492	-0.530274	0.916551	2.217902	0.000000	0.101507	0.000000	0.009749	-0.000260	0.000000	0.000000
39.640564	12.601066	21.925328	-0.901314	1.451078	2.276837	0.000000	0.165749	0.000000	0.009689	-0.000010	0.000000	0.000000
40.081524	13.574193	20.433124	-1.313549	1.919564	2.364386	0.000000	0.231880	0.000000	0.009740	0.000241	0.000000	0.000000
40.527484	14.953601	18.542096	-1.789816	2.302216	2.483027	0.000000	0.301083	0.000000	0.009905	0.000496	0.000000	0.000000
41.076544	16.716263	16.417032	-1.400892	1.590447	2.627814	0.000000	0.226110	0.000000	0.010088	0.000172	0.000000	0.000000
41.625604	17.994469	15.007237	-0.912972	0.991994	2.730441	0.000000	0.147129	0.000000	0.010092	-0.000155	0.000000	0.000000
42.174664	18.697876	14.212268	-0.360539	0.464219	2.789087	0.000000	0.065535	0.000000	0.009918	-0.000480	0.000000	0.000000
42.723724	18.776779	13.975484	0.217363	-0.030479	2.802706	0.000000	-0.017229	0.000000	0.009567	-0.000795	0.000000	0.000000
43.022297	18.678705	13.979992	0.155966	-0.018168	2.799795	0.000000	-0.010509	0.000000	0.009337	-0.000771	0.000000	0.000000
43.502297	18.541613	14.013919	0.129643	-0.052514	2.795121	0.000000	-0.010509	0.000000	0.008967	-0.000771	0.000000	0.000000
43.982297	18.429790	14.080818	0.103320	-0.086860	2.790447	0.000000	-0.010509	0.000000	0.008596	-0.000771	0.000000	0.000000
44.462297	18.343238	14.180690	0.076997	-0.121206	2.785773	0.000000	-0.010509	0.000000	0.008226	-0.000771	0.000000	0.000000
44.942297	18.281955	14.313534	0.050675	-0.155552	2.781099	0.000000	-0.010509	0.000000	0.007856	-0.000771	0.000000	0.000000
45.423547	18.246108	14.479646	-0.066118	-0.118247	2.776429	0.000000	0.003247	0.000000	0.007485	-0.000734	0.000000	0.000000
45.720870	18.290319	14.556129	-0.127311	-0.103547	2.777615	0.000000	0.010054	0.000000	0.007267	-0.000716	0.000000	0.000000
46.269930	18.121820	14.951507	0.431917	-0.620730	2.761064	0.000000	-0.071843	0.000000	0.006810	-0.000944	0.000000	0.000000
46.818990	17.352317	15.935669	0.960610	-1.182132	2.699939	0.000000	-0.152481	0.000000	0.006233	-0.001155	0.000000	0.000000
47.368050	16.036210	17.578711	1.421412	-1.827743	2.595316	0.000000	-0.230433	0.000000	0.005545	-0.001346	0.000000	0.000000
47.917110	14.266520	19.997660	1.781765	-2.603554	2.449042	0.000000	-0.304319	0.000000	0.004759	-0.001513	0.000000	0.000000
48.363070	12.888567	22.148225	1.318274	-2.198224	2.329232	0.000000	-0.236042	0.000000	0.004110	-0.001398	0.000000	0.000000
48.804030	11.905542	23.871310	0.918863	-1.694268	2.240176	0.000000	-0.170849	0.000000	0.003516	-0.001300	0.000000	0.000000
49.244990	11.255038	25.114088	0.561448	-1.113220	2.179377	0.000000	-0.107588	0.000000	0.002962	-0.001216	0.000000	0.000000
49.685950	10.907315	25.820020	0.229696	-0.481523	2.146151	0.000000	-0.045539	0.000000	0.002442	-0.001147	0.000000	0.000000
50.128160	10.846640	25.956719	-0.065563	0.109959	2.140137	0.000000	0.010852	0.000000	0.001948	-0.001095	0.000000	0.000000
50.425482	10.893812	25.894779	-0.093092	0.098366	2.143689	0.000000	0.010852	0.000000	0.001622	-0.001095	0.000000	0.000000
50.758816	10.966161	25.833534	-0.123956	0.085369	2.147671	0.000000	0.010852	0.000000	0.001257	-0.001095	0.000000	0.000000
51.092149	11.059086	25.780953	-0.154819	0.072372	2.151654	0.000000	0.010852	0.000000	0.000892	-0.001095	0.000000	0.000000
51.426732	11.172825	25.737411	-0.095157	-0.149468	2.155629	0.000000	-0.006635	0.000000	0.000526	-0.001099	0.000000	0.000000
51.724055	11.237394	25.829803	-0.094504	-0.224907	2.153983	0.000000	-0.011908	0.000000	0.000199	-0.001099	0.000000	0.000000
52.165015	11.467090	25.740716	-0.428729	0.426169	2.162848	0.000000	0.050025	0.000000	-0.000285	-0.001101	0.000000	0.000000
52.605975	11.999024	25.083828	-0.782533	1.057850	2.199128	0.000000	0.112540	0.000000	-0.000773	-0.001114	0.000000	0.000000
53.046935	12.857486	23.889039	-1.172079	1.641396	2.263241	0.000000	0.176348	0.000000	-0.001270	-0.001141	0.000000	0.000000
53.487895	14.081683	22.210719	-1.615162	2.150259	2.355922	0.000000	0.242176	0.000000	-0.001781	-0.001180	0.000000	0.000000
53.933855	15.748467	20.100130	-2.136265	2.562583	2.479760	0.000000	0.311170	0.000000	-0.002319	-0.001233	0.000000	0.000000
54.482915	17.894044	17.724956	-1.749044	1.789001	2.630886	0.000000	0.236234	0.000000	-0.002973	-0.001147	0.000000	0.000000
55.031975	19.543652	16.124719	-1.238316	1.142840	2.739599	0.000000	0.157089	0.000000	-0.003575	-0.001041	0.000000	0.000000
55.581035	20.580820	15.185426	-0.640154	0.578079	2.803961	0.000000	0.075141	0.000000	-0.004113	-0.000917	0.000000	0.000000
56.130095	20.932330	14.840166	0.003198	0.054492	2.822824	0.000000	-0.008155	0.000000	-0.004578	-0.000776	0.000000	0.000000
56.428668	20.968576	14.789568	-0.067874	0.074598	2.822909	0.000000	-0.000499	0.000000	-0.004814	-0.000788	0.000000	0.000000
56.762001	21.019149	14.747391	-0.083844	0.051934	2.823006	0.000000	-0.000499	0.000000	-0.005076	-0.000788	0.000000	0.000000
57.095334	21.080368	14.720322	-0.099814	0.029271	2.823102	0.000000	-0.000499	0.000000	-0.005339	-0.000788	0.000000	0.000000
57.429918	21.152523	14.708347	-0.115844	0.006522	2.823198	0.000000	-0.000499	0.000000	-0.005603	-0.000788	0.000000	0.000000
57.727240	21.225666	14.710464	-0.188215	0.026426	2.823286	0.000000	0.007232	0.000000	-0.005837	-0.000804	0.000000	0.000000
58.276300	21.069550	14.963633	0.470461	-0.490281	2.804732	0.000000	-0.076079	0.000000	-0.006225	-0.000608	0.000000	0.000000
58.825360	20.204317	15.799881	1.095901	-1.041901	2.740634	0.000000	-0.158052	0.000000	-0.006503	-0.000402	0.000000	0.000000
59.374420	18.691072	17.278756	1.643945	-1.667718	2.632125	0.000000	-0.237227	0.000000	-0.006666	-0.000189	0.000000	0.000000
59.923480	16.636669	19.505574	2.075899	-2.412298	2.481126	0.000000	-0.312199	0.000000	-0.006710	0.000028	0.000000	0.000000
60.369440	15.027360	21.484709	1.545647	-2.007092	2.357380	0.000000	-0.243194	0.000000	-0.006736	-0.000147	0.000000	0.000000
60.810400	13.869556	23.042176	1.090113	-1.511804	2.264858	0.000000	-0.177336	0.000000	-0.006839	-0.000321	0.000000	0.000000
61.251360	13.090044	24.130773	0.684370	-0.947743	2.200978	0.000000	-0.113495	0.000000	-0.007020	-0.000500	0.000000	0.000000
61.692320	12.653221	24.700980	0.309890	-0.340572	2.165014	0.000000	-0.050940	0.000000	-0.007281	-0.000684	0.000000	0.000000
62.134530	12.539197	24.726278	-0.017607	0.217429	2.156569	0.000000	0.005379	0.000000	-0.007626	-0.000857	0.000000	0.000000
62.431853	12.556719	24.600729	-0.041326	0.204836	2.158423	0.000000	0.005379	0.000000	-0.007881	-0.000857	0.000000	0.000000
62.765186	12.593133	24.468878	-0.067917	0.190718	2.160502	0.000000	0.005379	0.000000	-0.008167	-0.000857	0.000000	0.000000
63.098520	12.647275	24.346439	-0.094509	0.176599	2.162581	0.000000	0.005379	0.000000	-0.008452	-0.000857	0.000000	0.000000
63.433103	12.719448	24.233006	-0.121200	0.162428	2.164667	0.000000	0.005379	0.000000	-0.008739	-0.000857	0.000000	0.000000
63.730426	12.798541	24.140221	-0.110930	0.085428	2.166519	0.000000	-0.000375	0.000000	-0.008994	-0.000834	0.000000	0.000000
64.171386	13.058506	23.799024	-0.481277	0.685487	2.180483	0.000000	0.061932	0.000000	-0.009414	-0.001071	0.000000	0.000000
64.612346	13.653413	22.940479	-0.873595	1.254362	2.222153	0.000000	0.124956	0.000000	-0.009941	-0.001321	0.000000	0.000000
65.053306	14.610413	21.603650	-1.305797	1.766177	2.292009	0.000000	0.189416	0.000000	-0.010581	-0.001585	0.000000	0.000000
65.494266	15.973187	19.849358	-1.797616	2.197650	2.390852	0.000000	0.256051	0.000000	-0.011341	-0.001868	0.000000	0.000000
65.940226	17.827328	17.732453	-2.375927	2.529683	2.521429	0.000000	0.325985	0.000000	-0.012242	-0.002174	0.000000	0.000000
66.489286	20.201574	15.364338	-1.924520	1.809585	2.680690	0.000000	0.249593	0.000000	-0.013323	-0.001760	0.000000	0.000000
67.038346	22.002301	13.711900	-1.337287	1.218340	2.796497	0.000000	0.168746	0.000000	-0.014168	-0.001314	0.000000	0.000000
67.587406	23.102461	12.657455	-0.655680	0.713846	2.866785	0.000000	0.084887	0.000000	-0.014762	-0.000846	0.000000	0.000000
68.136466	23.424447	12.125908	0.072192	0.260178	2.890302	0.000000	-0.000492	0.000000	-0.015094	-0.000362	0.000000	0.000000
68.435038	23.425974	11.957366	-0.009193	0.268992	2.892795	0.000000	0.007977	0.000000	-0.015214	-0.000404	0.000000	0.000000
68.768372	23.436847	11.788003	-0.023424	0.239099	2.895589	0.000000	0.007977	0.000000	-0.015349	-0.000404	0.000000	0.000000
69.101705	23.457206	11.638568	-0.037654	0.209205	2.898383	0.000000	0.007977	0.000000	-0.015484	-0.000404	0.000000	0.000000
69.436288	23.487182	11.508615	-0.051938	0.179199	2.901187	0.000000	0.007977	0.000000	-0.015619	-0.000404	0.000000	0.000000
69.733611	23.522011	11.409900	-0.133851	0.186044	2.903689	0.000000	0.016522	0.000000	-0.015739	-0.000448	0.000000	0.000000
70.282671	23.265031	11.433800	0.599095	-0.229839	2.889247	0.000000	-0.069435	0.000000	-0.015844	0.000064	0.000000	0.000000
