#ParticleID	Turn	x[m]	xp	y[m]	yp	z[m]	dE[GeV]# s	beta_x	beta_y	alpha_x	alpha_y	D_x	D_y	D_px	D_py	orbit_x	orbit_px	orbit_y	orbit_py
0.300000	11.948840	25.300561	-0.020079	-0.021897	2.601081	0.000000	0.000618	0.000000	-0.000729	0.000636	0.000000	0.000000
0.601250	11.968536	25.317343	-0.045301	-0.033809	2.601075	0.000000	0.000618	0.000000	-0.000537	0.000636	0.000000	0.000000
0.898573	12.002875	25.340943	-0.040663	-0.107684	2.601070	0.000000	-0.005781	0.000000	-0.000348	0.000637	0.000000	0.000000
1.339533	12.192487	25.154676	-0.390748	0.528491	2.614448	0.000000	0.067735	0.000000	-0.000068	0.000632	0.000000	0.000000
1.780493	12.697527	24.415851	-0.758691	1.140622	2.660382	0.000000	0.142016	0.000000	0.000210	0.000633	0.000000	0.000000
2.221453	13.541076	23.158079	-1.161301	1.700858	2.739393	0.000000	0.217908	0.000000	0.000491	0.000642	0.000000	0.000000
2.662413	14.761681	21.438582	-1.616974	2.183707	2.852378	0.000000	0.296275	0.000000	0.000778	0.000659	0.000000	0.000000
3.108373	16.436194	19.310399	-2.150898	2.568363	3.002472	0.000000	0.378499	0.000000	0.001077	0.000683	0.000000	0.000000
3.657433	18.582800	16.919767	-1.735154	1.811304	3.184850	0.000000	0.286106	0.000000	0.001441	0.000642	0.000000	0.000000
4.206493	20.202449	15.285181	-1.196828	1.183263	3.315056	0.000000	0.188648	0.000000	0.001780	0.000590	0.000000	0.000000
4.755553	21.180710	14.290219	-0.573946	0.639504	3.390785	0.000000	0.087853	0.000000	0.002087	0.000527	0.000000	0.000000
5.304613	21.448463	13.864015	0.089492	0.141296	3.410698	0.000000	-0.014491	0.000000	0.002357	0.000455	0.000000	0.000000
5.603185	21.431980	13.765127	0.020627	0.154501	3.408842	0.000000	-0.005757	0.000000	0.002495	0.000461	0.000000	0.000000
5.936519	21.423416	13.670391	0.005068	0.129707	3.406769	0.000000	-0.005757	0.000000	0.002648	0.000461	0.000000	0.000000
6.269852	21.425224	13.592184	-0.010492	0.104913	3.404696	0.000000	-0.005757	0.000000	0.002802	0.000461	0.000000	0.000000
6.604435	21.437470	13.530306	-0.026110	0.080027	3.402616	0.000000	-0.005757	0.000000	0.002956	0.000461	0.000000	0.000000
6.901758	21.457129	13.489290	-0.094586	0.092326	3.400767	0.000000	0.002896	0.000000	0.003094	0.000469	0.000000	0.000000
7.450818	21.195049	13.649599	0.569319	-0.386007	3.374120	0.000000	-0.099020	0.000000	0.003323	0.000365	0.000000	0.000000
7.999878	20.221714	14.347130	1.193013	-0.891839	3.291969	0.000000	-0.199174	0.000000	0.003494	0.000255	0.000000	0.000000
8.548938	18.605882	15.631573	1.732431	-1.461202	3.155775	0.000000	-0.295791	0.000000	0.003602	0.000140	0.000000	0.000000
9.097998	16.461706	17.594429	2.149463	-2.134654	2.967956	0.000000	-0.387159	0.000000	0.003647	0.000022	0.000000	0.000000
9.543958	14.788722	19.343226	1.615159	-1.770002	2.813474	0.000000	-0.305869	0.000000	0.003678	0.000117	0.000000	0.000000
9.984918	13.569982	20.713789	1.159080	-1.326139	2.695680	0.000000	-0.228560	0.000000	0.003751	0.000213	0.000000	0.000000
10.425878	12.728714	21.664673	0.755964	-0.821932	2.611329	0.000000	-0.153856	0.000000	0.003866	0.000311	0.000000	0.000000
10.866838	12.226475	22.152607	0.387389	-0.280322	2.559461	0.000000	-0.080908	0.000000	0.004026	0.000413	0.000000	0.000000
11.309048	12.040162	22.154820	0.064740	0.221689	2.539465	0.000000	-0.014861	0.000000	0.004232	0.000509	0.000000	0.000000
11.606371	12.009038	22.027179	0.039943	0.207609	2.534895	0.000000	-0.014861	0.000000	0.004384	0.000509	0.000000	0.000000
12.086371	11.989909	21.838785	-0.000091	0.184879	2.527517	0.000000	-0.014861	0.000000	0.004628	0.000509	0.000000	0.000000
12.566371	12.009212	21.672212	-0.040125	0.162148	2.520139	0.000000	-0.014861	0.000000	0.004873	0.000509	0.000000	0.000000
13.046371	12.066948	21.527460	-0.080158	0.139418	2.512761	0.000000	-0.014861	0.000000	0.005117	0.000509	0.000000	0.000000
13.526371	12.163116	21.404529	-0.120192	0.116687	2.505383	0.000000	-0.014861	0.000000	0.005362	0.000509	0.000000	0.000000
14.007621	12.298118	21.303185	-0.160330	0.093898	2.497986	0.000000	-0.014861	0.000000	0.005607	0.000509	0.000000	0.000000
14.304943	12.400818	21.251556	-0.156399	0.030732	2.493415	0.000000	-0.020638	0.000000	0.005758	0.000496	0.000000	0.000000
14.745903	12.697702	20.992009	-0.519163	0.555574	2.499645	0.000000	0.050023	0.000000	0.006010	0.000647	0.000000	0.000000
15.186863	13.323790	20.278974	-0.905657	1.055136	2.537065	0.000000	0.121246	0.000000	0.006331	0.000807	0.000000	0.000000
15.627823	14.307704	19.144892	-1.333547	1.506683	2.606099	0.000000	0.193841	0.000000	0.006723	0.000975	0.000000	0.000000
16.068783	15.694424	17.641365	-1.822389	1.889668	2.707528	0.000000	0.268635	0.000000	0.007192	0.001154	0.000000	0.000000
16.514743	17.570966	15.815257	-2.399432	2.187540	2.844204	0.000000	0.346963	0.000000	0.007750	0.001348	0.000000	0.000000
17.063803	19.980254	13.777000	-1.961440	1.546210	3.010440	0.000000	0.259940	0.000000	0.008419	0.001086	0.000000	0.000000
17.612863	21.829045	12.378803	-1.384829	1.015034	3.127701	0.000000	0.168323	0.000000	0.008939	0.000805	0.000000	0.000000
18.161923	22.986659	11.521068	-0.710346	0.556172	3.193914	0.000000	0.073733	0.000000	0.009300	0.000509	0.000000	0.000000
18.710983	23.371264	11.142694	0.014344	0.136934	3.207909	0.000000	-0.022157	0.000000	0.009496	0.000205	0.000000	0.000000
19.009556	23.399948	11.053221	-0.054538	0.136127	3.203519	0.000000	-0.014459	0.000000	0.009565	0.000229	0.000000	0.000000
19.342889	23.441069	10.972709	-0.068825	0.105411	3.198623	0.000000	-0.014459	0.000000	0.009641	0.000229	0.000000	0.000000
19.676223	23.491715	10.912673	-0.083112	0.074695	3.193727	0.000000	-0.014459	0.000000	0.009717	0.000229	0.000000	0.000000
20.010806	23.552421	10.872871	-0.214145	0.097735	3.188832	0.000000	0.001340	0.000000	0.009793	0.000277	0.000000	0.000000
20.308129	23.683755	10.822930	-0.283972	0.096053	3.189153	0.000000	0.008965	0.000000	0.009876	0.000302	0.000000	0.000000
20.857189	23.587278	10.937252	0.458715	-0.305467	3.167841	0.000000	-0.086201	0.000000	0.009953	-0.000020	0.000000	0.000000
21.406249	22.688054	11.501847	1.168987	-0.728751	3.094782	0.000000	-0.179837	0.000000	0.009854	-0.000340	0.000000	0.000000
21.955309	21.049644	12.556936	1.796645	-1.203955	2.971272	0.000000	-0.270288	0.000000	0.009581	-0.000655	0.000000	0.000000
22.504369	18.787856	14.177685	2.297332	-1.764936	2.799500	0.000000	-0.355954	0.000000	0.009137	-0.000959	0.000000	0.000000
22.950329	17.007180	15.633699	1.708668	-1.485735	2.658371	0.000000	-0.278835	0.000000	0.008761	-0.000726	0.000000	0.000000
23.391289	15.727819	16.796077	1.203002	-1.139924	2.551963	0.000000	-0.205369	0.000000	0.008490	-0.000504	0.000000	0.000000
23.832249	14.868680	17.629306	0.752323	-0.742236	2.477316	0.000000	-0.134238	0.000000	0.008316	-0.000287	0.000000	0.000000
24.273209	14.390484	18.095468	0.336031	-0.310769	2.433582	0.000000	-0.064633	0.000000	0.008236	-0.000074	0.000000	0.000000
24.715418	14.271482	18.173081	-0.032782	0.093721	2.420265	0.000000	-0.001225	0.000000	0.008250	0.000119	0.000000	0.000000
25.012741	14.297176	18.122257	-0.053637	0.077216	2.419865	0.000000	-0.001225	0.000000	0.008286	0.000119	0.000000	0.000000
25.346075	14.340728	18.076947	-0.077019	0.058713	2.419417	0.000000	-0.001225	0.000000	0.008326	0.000119	0.000000	0.000000
25.679408	14.399868	18.043973	-0.100401	0.040210	2.418969	0.000000	-0.001225	0.000000	0.008365	0.000119	0.000000	0.000000
26.013991	14.474612	18.023646	-0.006443	-0.124579	2.418495	0.000000	-0.020846	0.000000	0.008405	0.000051	0.000000	0.000000
26.311314	14.484520	18.102745	0.005646	-0.182105	2.412279	0.000000	-0.026280	0.000000	0.008420	0.000031	0.000000	0.000000
26.752274	14.658507	18.067239	-0.401600	0.262309	2.415739	0.000000	0.042257	0.000000	0.008482	0.000249	0.000000	0.000000
27.193234	15.198444	17.643534	-0.827203	0.694786	2.449409	0.000000	0.111273	0.000000	0.008640	0.000470	0.000000	0.000000
27.634194	16.129019	16.850910	-1.290617	1.095644	2.513670	0.000000	0.181552	0.000000	0.008897	0.000696	0.000000	0.000000
28.075154	17.492776	15.725435	-1.813025	1.446640	2.609253	0.000000	0.253891	0.000000	0.009255	0.000930	0.000000	0.000000
28.521114	19.375937	14.301254	-2.423420	1.732890	2.738861	0.000000	0.329588	0.000000	0.009724	0.001176	0.000000	0.000000
29.070174	21.770440	12.715167	-1.910626	1.172480	2.896628	0.000000	0.246113	0.000000	0.010282	0.000852	0.000000	0.000000
29.619234	23.523728	11.695344	-1.262797	0.695604	3.007468	0.000000	0.158284	0.000000	0.010657	0.000513	0.000000	0.000000
30.168294	24.511860	11.169135	-0.525717	0.268288	3.069418	0.000000	0.067655	0.000000	0.010843	0.000164	0.000000	0.000000
30.717354	24.664986	11.099053	0.248517	-0.139913	3.081381	0.000000	-0.024171	0.000000	0.010837	-0.000187	0.000000	0.000000
31.015927	24.555132	11.175058	0.177552	-0.140840	3.076386	0.000000	-0.016873	0.000000	0.010789	-0.000160	0.000000	0.000000
31.349260	24.441431	11.279091	0.163549	-0.171260	3.070815	0.000000	-0.016873	0.000000	0.010736	-0.000160	0.000000	0.000000
31.682593	24.337067	11.403404	0.149546	-0.201680	3.065244	0.000000	-0.016873	0.000000	0.010682	-0.000160	0.000000	0.000000
32.017177	24.241698	11.548578	0.135491	-0.232214	3.059652	0.000000	-0.016873	0.000000	0.010629	-0.000160	0.000000	0.000000
32.314499	24.164922	11.694692	0.065616	-0.231600	3.054688	0.000000	-0.009619	0.000000	0.010581	-0.000134	0.000000	0.000000
32.863559	23.679140	12.187704	0.813557	-0.671487	3.024627	0.000000	-0.100286	0.000000	0.010414	-0.000474	0.000000	0.000000
33.412619	22.398664	13.187116	1.503995	-1.159216	2.945368	0.000000	-0.189182	0.000000	0.010062	-0.000806	0.000000	0.000000
33.961679	20.414014	14.764125	2.088134	-1.729533	2.818312	0.000000	-0.274734	0.000000	0.009532	-0.001123	0.000000	0.000000
34.510739	17.865481	17.031069	2.524694	-2.423070	2.645708	0.000000	-0.355430	0.000000	0.008832	-0.001421	0.000000	0.000000
34.956699	15.885341	19.059098	1.930151	-2.104918	2.504127	0.000000	-0.282312	0.000000	0.008248	-0.001199	0.000000	0.000000
35.397659	14.409331	20.739934	1.428953	-1.691903	2.395509	0.000000	-0.212854	0.000000	0.007766	-0.000993	0.000000	0.000000
35.838619	13.345081	22.020996	0.993070	-1.201893	2.316878	0.000000	-0.145810	0.000000	0.007371	-0.000798	0.000000	0.000000
36.279579	12.643936	22.843995	0.602579	-0.657190	2.267341	0.000000	-0.080419	0.000000	0.007061	-0.000611	0.000000	0.000000
36.721789	12.273188	23.171789	0.267642	-0.135582	2.246312	0.000000	-0.021084	0.000000	0.006830	-0.000449	0.000000	0.000000
37.019112	12.121755	23.256298	0.241681	-0.148649	2.240177	0.000000	-0.021084	0.000000	0.006697	-0.000449	0.000000	0.000000
37.352445	11.970335	23.360281	0.212576	-0.163299	2.233299	0.000000	-0.021084	0.000000	0.006547	-0.000449	0.000000	0.000000
37.685779	11.838319	23.474030	0.183471	-0.177949	2.226420	0.000000	-0.021084	0.000000	0.006398	-0.000449	0.000000	0.000000
38.020362	11.725321	23.598027	0.154257	-0.192653	2.219516	0.000000	-0.021084	0.000000	0.006248	-0.000449	0.000000	0.000000
38.317684	11.641298	23.716499	0.155169	-0.260619	2.213379	0.000000	-0.026193	0.000000	0.006114	-0.000463	0.000000	0.000000
38.758644	11.653515	23.683524	-0.183105	0.335108	2.215968	0.000000	0.037200	0.000000	0.005945	-0.000308	0.000000	0.000000
39.199604	11.966657	23.129865	-0.529744	0.915584	2.246516	0.000000	0.101020	0.000000	0.005842	-0.000156	0.000000	0.000000
39.640564	12.595033	22.080720	-0.900591	1.454394	2.305370	0.000000	0.165993	0.000000	0.005807	-0.000006	0.000000	0.000000
40.081524	13.567362	20.583830	-1.312593	1.927020	2.393202	0.000000	0.232856	0.000000	0.005837	0.000144	0.000000	0.000000
40.527484	14.945620	18.684597	-1.788494	2.313404	2.512497	0.000000	0.302796	0.000000	0.005936	0.000297	0.000000	0.000000
41.076544	16.706835	16.549792	-1.399839	1.597325	2.658026	0.000000	0.226867	0.000000	0.006046	0.000103	0.000000	0.000000
41.625604	17.984000	15.134660	-0.912280	0.995039	2.760798	0.000000	0.146914	0.000000	0.006049	-0.000093	0.000000	0.000000
42.174664	18.686871	14.338389	-0.360266	0.463641	2.818988	0.000000	0.064353	0.000000	0.005944	-0.000287	0.000000	0.000000
42.723724	18.765787	14.104252	0.217195	-0.034726	2.831563	0.000000	-0.019353	0.000000	0.005734	-0.000476	0.000000	0.000000
43.022297	18.668810	14.110332	0.154184	-0.020744	2.828022	0.000000	-0.012316	0.000000	0.005597	-0.000462	0.000000	0.000000
43.502297	18.533428	14.146582	0.127861	-0.054776	2.822332	0.000000	-0.012316	0.000000	0.005375	-0.000462	0.000000	0.000000
43.982297	18.423316	14.215503	0.101539	-0.088809	2.816642	0.000000	-0.012316	0.000000	0.005153	-0.000462	0.000000	0.000000
44.462297	18.338474	14.317095	0.075216	-0.122841	2.810952	0.000000	-0.012316	0.000000	0.004932	-0.000462	0.000000	0.000000
44.942297	18.278901	14.451358	0.048894	-0.156873	2.805262	0.000000	-0.012316	0.000000	0.004710	-0.000462	0.000000	0.000000
45.423547	18.244768	14.618588	-0.067892	-0.118565	2.799574	0.000000	0.001555	0.000000	0.004488	-0.000440	0.000000	0.000000
45.720870	18.290017	14.695216	-0.130288	-0.102302	2.800168	0.000000	0.008601	0.000000	0.004357	-0.000428	0.000000	0.000000
46.269930	18.124895	15.091455	0.428968	-0.623583	2.782448	0.000000	-0.074001	0.000000	0.004084	-0.000565	0.000000	0.000000
46.818990	17.358662	16.081040	0.957908	-1.189283	2.719734	0.000000	-0.155300	0.000000	0.003738	-0.000692	0.000000	0.000000
47.368050	16.045469	17.734456	1.419163	-1.839698	2.613134	0.000000	-0.233855	0.000000	0.003326	-0.000806	0.000000	0.000000
47.917110	14.278108	20.169469	1.780148	-2.621159	2.464531	0.000000	-0.308275	0.000000	0.002855	-0.000906	0.000000	0.000000
48.363070	12.901735	22.333855	1.316651	-2.211602	2.342794	0.000000	-0.239628	0.000000	0.002467	-0.000837	0.000000	0.000000
48.804030	11.920297	24.066592	0.917118	-1.702781	2.252001	0.000000	-0.174109	0.000000	0.002111	-0.000778	0.000000	0.000000
49.244990	11.271503	25.314559	0.559495	-1.116483	2.189615	0.000000	-0.110566	0.000000	0.001779	-0.000728	0.000000	0.000000
49.685950	10.925700	26.020977	0.227441	-0.479386	2.154928	0.000000	-0.048273	0.000000	0.001467	-0.000686	0.000000	0.000000
50.128160	10.867253	26.153422	-0.067979	0.116292	2.147560	0.000000	0.008269	0.000000	0.001172	-0.000655	0.000000	0.000000
50.425482	10.915849	26.087695	-0.095465	0.104770	2.150213	0.000000	0.008269	0.000000	0.000977	-0.000655	0.000000	0.000000
50.758816	10.989764	26.022154	-0.126280	0.091852	2.153188	0.000000	0.008269	0.000000	0.000758	-0.000655	0.000000	0.000000
51.092149	11.084222	25.965225	-0.157095	0.078935	2.156163	0.000000	0.008269	0.000000	0.000540	-0.000655	0.000000	0.000000
51.426732	11.199466	25.917268	-0.097168	-0.144285	2.159127	0.000000	-0.009247	0.000000	0.000321	-0.000658	0.000000	0.000000
51.724055	11.265214	26.006548	-0.096373	-0.219940	2.156573	0.000000	-0.014530	0.000000	0.000125	-0.000658	0.000000	0.000000
52.165015	11.496915	25.911033	-0.431281	0.435722	2.164106	0.000000	0.047453	0.000000	-0.000165	-0.000659	0.000000	0.000000
52.605975	12.031510	25.243847	-0.785887	1.071558	2.199067	0.000000	0.109983	0.000000	-0.000457	-0.000667	0.000000	0.000000
53.046935	12.893414	24.035352	-1.176392	1.658636	2.261856	0.000000	0.173772	0.000000	-0.000754	-0.000682	0.000000	0.000000
53.487895	14.121998	22.340540	-1.620637	2.170247	2.353193	0.000000	0.239549	0.000000	-0.001060	-0.000706	0.000000	0.000000
53.933855	15.794390	20.211204	-2.143188	2.584430	2.475633	0.000000	0.308457	0.000000	-0.001381	-0.000737	0.000000	0.000000
54.482915	17.947070	17.814766	-1.754697	1.806050	2.625059	0.000000	0.233679	0.000000	-0.001773	-0.000686	0.000000	0.000000
55.031975	19.602151	16.197843	-1.242285	1.156308	2.732194	0.000000	0.154744	0.000000	-0.002133	-0.000623	0.000000	0.000000
55.581035	20.642756	15.245259	-0.642144	0.588925	2.795132	0.000000	0.073055	0.000000	-0.002455	-0.000549	0.000000	0.000000
56.130095	20.995407	14.889158	0.003338	0.063490	2.812752	0.000000	-0.009939	0.000000	-0.002734	-0.000465	0.000000	0.000000
56.428668	21.031170	14.833483	-0.067027	0.083108	2.812169	0.000000	-0.002423	0.000000	-0.002874	-0.000472	0.000000	0.000000
56.762001	21.081162	14.785620	-0.082948	0.060481	2.811518	0.000000	-0.002423	0.000000	-0.003032	-0.000472	0.000000	0.000000
57.095334	21.141767	14.752841	-0.098869	0.037854	2.810868	0.000000	-0.002423	0.000000	-0.003189	-0.000472	0.000000	0.000000
57.429918	21.213274	14.735109	-0.114849	0.015143	2.810215	0.000000	-0.002423	0.000000	-0.003347	-0.000472	0.000000	0.000000
57.727240	21.285798	14.732100	-0.186275	0.034466	2.809636	0.000000	0.005131	0.000000	-0.003487	-0.000481	0.000000	0.000000
58.276300	21.126527	14.976719	0.474395	-0.482642	2.789902	0.000000	-0.077726	0.000000	-0.003720	-0.000364	0.000000	0.000000
58.825360	20.256033	15.804582	1.101554	-1.034122	2.724924	0.000000	-0.159209	0.000000	-0.003886	-0.000241	0.000000	0.000000
59.374420	18.735796	17.274646	1.650912	-1.659251	2.615852	0.000000	-0.237874	0.000000	-0.003984	-0.000114	0.000000	0.000000
59.923480	16.673179	19.491607	2.083676	-2.402551	2.464619	0.000000	-0.312321	0.000000	-0.004011	0.000016	0.000000	0.000000
60.369440	15.057576	21.461834	1.552006	-1.996888	2.340715	0.000000	-0.243731	0.000000	-0.004027	-0.000088	0.000000	0.000000
60.810400	13.894620	23.010363	1.095420	-1.501674	2.247819	0.000000	-0.178304	0.000000	-0.004089	-0.000193	0.000000	0.000000
61.251360	13.110795	24.090270	0.688874	-0.938144	2.183343	0.000000	-0.114904	0.000000	-0.004197	-0.000300	0.000000	0.000000
61.692320	12.670298	24.652430	0.313797	-0.331936	2.146554	0.000000	-0.052810	0.000000	-0.004354	-0.000410	0.000000	0.000000
62.134530	12.553049	24.670688	-0.014946	0.226427	2.137040	0.000000	0.003223	0.000000	-0.004560	-0.000513	0.000000	0.000000
62.431853	12.568980	24.539811	-0.038637	0.213758	2.138151	0.000000	0.003223	0.000000	-0.004713	-0.000513	0.000000	0.000000
62.765186	12.603592	24.402040	-0.065197	0.199554	2.139397	0.000000	0.003223	0.000000	-0.004884	-0.000513	0.000000	0.000000
63.098520	12.655910	24.273739	-0.091757	0.185350	2.140642	0.000000	0.003223	0.000000	-0.005055	-0.000513	0.000000	0.000000
63.433103	12.726230	24.154479	-0.118416	0.171092	2.141892	0.000000	0.003223	0.000000	-0.005227	-0.000513	0.000000	0.000000
63.730426	12.803679	24.056528	-0.109135	0.096297	2.143002	0.000000	-0.002296	0.000000	-0.005379	-0.000500	0.000000	0.000000
64.171386	13.062188	23.706783	-0.479586	0.693891	2.155822	0.000000	0.059396	0.000000	-0.005631	-0.000642	0.000000	0.000000
64.612346	13.655735	22.842013	-0.871937	1.259916	2.196031	0.000000	0.121772	0.000000	-0.005947	-0.000791	0.000000	0.000000
65.053306	14.611422	21.501565	-1.304108	1.768622	2.264088	0.000000	0.185542	0.000000	-0.006330	-0.000949	0.000000	0.000000
65.494266	15.972884	19.746427	-1.795835	2.196870	2.360772	0.000000	0.251435	0.000000	-0.006785	-0.001118	0.000000	0.000000
65.940226	17.825581	17.631611	-2.374118	2.525768	2.488767	0.000000	0.320583	0.000000	-0.007324	-0.001301	0.000000	0.000000
66.489286	20.198117	15.266292	-1.922497	1.808070	2.644951	0.000000	0.245284	0.000000	-0.007972	-0.001054	0.000000	0.000000
67.038346	21.996891	13.614120	-1.335149	1.219134	2.758397	0.000000	0.165619	0.000000	-0.008478	-0.000787	0.000000	0.000000
67.587406	23.094937	12.557425	-0.653543	0.717016	2.827085	0.000000	0.083004	0.000000	-0.008833	-0.000507	0.000000	0.000000
68.136466	23.414753	12.020948	0.074196	0.265958	2.849794	0.000000	-0.001092	0.000000	-0.009032	-0.000217	0.000000	0.000000
68.435038	23.413431	11.850080	-0.004256	0.272655	2.851924	0.000000	0.006905	0.000000	-0.009105	-0.000242	0.000000	0.000000
68.768372	23.421013	11.678384	-0.018493	0.242435	2.854307	0.000000	0.006905	0.000000	-0.009185	-0.000242	0.000000	0.000000
69.101705	23.438087	11.526834	-0.032730	0.212214	2.856689	0.000000	0.006905	0.000000	-0.009266	-0.000242	0.000000	0.000000
69.436288	23.464770	11.394977	-0.047020	0.181881	2.859080	0.000000	0.006905	0.000000	-0.009347	-0.000242	0.000000	0.000000
69.733611	23.496568	11.294807	-0.125834	0.186665	2.861208	0.000000	0.014956	0.000000	-0.009418	-0.000267	0.000000	0.000000
70.282671	23.231256	11.316277	0.606173	-0.226004	2.846238	0.000000	-0.069634	0.000000	-0.009481	0.000039	0.000000	0.000000
