#ParticleID	Turn	x[m]	xp	y[m]	yp	z[m]	dE[GeV]# s	beta_x	beta_y	alpha_x	alpha_y	D_x	D_y	D_px	D_py	orbit_x	orbit_px	orbit_y	orbit_py
0.300000	11.916142	25.045344	-0.009970	-0.028206	2.606200	0.000000	-0.002612	0.000000	-0.001302	0.001085	0.000000	0.000000
0.601250	11.929765	25.065964	-0.035253	-0.040244	2.605086	0.000000	-0.002612	0.000000	-0.000975	0.001085	0.000000	0.000000
0.898573	11.958148	25.093427	-0.030701	-0.113650	2.603987	0.000000	-0.009037	0.000000	-0.000653	0.001087	0.000000	0.000000
1.339533	12.138512	24.915285	-0.379507	0.516103	2.615753	0.000000	0.064534	0.000000	-0.000176	0.001076	0.000000	0.000000
1.780493	12.632959	24.190020	-0.745660	1.122377	2.660091	0.000000	0.138827	0.000000	0.000298	0.001078	0.000000	0.000000
2.221453	13.464089	22.950621	-1.145889	1.677588	2.737503	0.000000	0.214691	0.000000	0.000776	0.001092	0.000000	0.000000
2.662413	14.669887	21.253469	-1.598481	2.156472	2.848864	0.000000	0.292988	0.000000	0.001263	0.001118	0.000000	0.000000
3.108373	16.326318	19.150878	-2.128462	2.538416	2.997272	0.000000	0.375102	0.000000	0.001769	0.001157	0.000000	0.000000
3.657433	18.449590	16.789227	-1.715068	1.788103	3.177596	0.000000	0.282908	0.000000	0.002387	0.001090	0.000000	0.000000
4.206493	20.049279	15.177164	-1.180497	1.165156	3.305891	0.000000	0.185712	0.000000	0.002963	0.001003	0.000000	0.000000
4.755553	21.012349	14.199874	-0.562510	0.625202	3.379890	0.000000	0.085238	0.000000	0.003485	0.000899	0.000000	0.000000
5.304613	21.270734	13.787753	0.095234	0.129781	3.398285	0.000000	-0.016734	0.000000	0.003946	0.000778	0.000000	0.000000
5.603185	21.250133	13.696200	0.027452	0.142207	3.395615	0.000000	-0.008151	0.000000	0.004182	0.000788	0.000000	0.000000
5.936519	21.237065	13.609672	0.011754	0.117378	3.392635	0.000000	-0.008151	0.000000	0.004445	0.000788	0.000000	0.000000
6.269852	21.234462	13.539697	-0.003944	0.092548	3.389656	0.000000	-0.008151	0.000000	0.004707	0.000788	0.000000	0.000000
6.604435	21.242373	13.486106	-0.019701	0.067625	3.386665	0.000000	-0.008151	0.000000	0.004971	0.000788	0.000000	0.000000
6.901758	21.258269	13.452467	-0.086788	0.079227	3.384008	0.000000	0.000299	0.000000	0.005206	0.000802	0.000000	0.000000
7.450818	20.991415	13.626701	0.570324	-0.398407	3.355929	0.000000	-0.101058	0.000000	0.005598	0.000627	0.000000	0.000000
7.999878	20.020800	14.337895	1.187155	-0.904426	3.272703	0.000000	-0.200612	0.000000	0.005892	0.000440	0.000000	0.000000
8.548938	18.414992	15.636720	1.720119	-1.474879	3.135810	0.000000	-0.296600	0.000000	0.006080	0.000246	0.000000	0.000000
9.097998	16.287449	17.615708	2.131556	-2.150403	2.947682	0.000000	-0.387322	0.000000	0.006161	0.000048	0.000000	0.000000
9.543958	14.628308	19.378920	1.601790	-1.786283	2.792982	0.000000	-0.306547	0.000000	0.006219	0.000209	0.000000	0.000000
9.984918	13.419555	20.763873	1.149666	-1.342251	2.674715	0.000000	-0.229766	0.000000	0.006346	0.000371	0.000000	0.000000
10.425878	12.585007	21.728656	0.750079	-0.837135	2.589628	0.000000	-0.155607	0.000000	0.006546	0.000537	0.000000	0.000000
10.866838	12.086526	22.229360	0.384766	-0.293922	2.536751	0.000000	-0.083226	0.000000	0.006821	0.000709	0.000000	0.000000
11.309048	11.901192	22.242633	0.064098	0.211554	2.515457	0.000000	-0.017543	0.000000	0.007174	0.000873	0.000000	0.000000
11.606371	11.870535	22.120985	0.039012	0.197589	2.509982	0.000000	-0.017543	0.000000	0.007433	0.000873	0.000000	0.000000
12.086371	11.852523	21.942122	-0.001486	0.175043	2.501142	0.000000	-0.017543	0.000000	0.007852	0.000873	0.000000	0.000000
12.566371	11.873388	21.784903	-0.041983	0.152497	2.492303	0.000000	-0.017543	0.000000	0.008271	0.000873	0.000000	0.000000
13.046371	11.933131	21.649327	-0.082481	0.129951	2.483463	0.000000	-0.017543	0.000000	0.008690	0.000873	0.000000	0.000000
13.526371	12.031752	21.535397	-0.122979	0.107405	2.474623	0.000000	-0.017543	0.000000	0.009109	0.000873	0.000000	0.000000
14.007621	12.169660	21.442898	-0.163582	0.084800	2.465760	0.000000	-0.017543	0.000000	0.009529	0.000873	0.000000	0.000000
14.304943	12.274357	21.396684	-0.161427	0.023599	2.460282	0.000000	-0.023004	0.000000	0.009788	0.000850	0.000000	0.000000
14.745903	12.574556	21.141636	-0.521495	0.552511	2.465106	0.000000	0.046792	0.000000	0.010219	0.001108	0.000000	0.000000
15.186863	13.201680	20.429405	-0.905408	1.056281	2.500687	0.000000	0.117108	0.000000	0.010767	0.001378	0.000000	0.000000
15.627823	14.184414	19.292396	-1.330718	1.511980	2.567422	0.000000	0.188745	0.000000	0.011437	0.001664	0.000000	0.000000
16.068783	15.567705	17.782343	-1.816869	1.898868	2.666068	0.000000	0.262514	0.000000	0.012238	0.001970	0.000000	0.000000
16.514743	17.438499	15.946162	-2.391081	2.200367	2.799411	0.000000	0.339747	0.000000	0.013189	0.002300	0.000000	0.000000
17.063803	19.841657	13.896001	-1.957863	1.554883	2.961651	0.000000	0.254224	0.000000	0.014332	0.001854	0.000000	0.000000
17.612863	21.689632	12.490135	-1.386229	1.020186	3.075870	0.000000	0.164220	0.000000	0.015219	0.001375	0.000000	0.000000
18.161923	22.851737	11.628412	-0.716583	0.558181	3.140052	0.000000	0.071323	0.000000	0.015837	0.000872	0.000000	0.000000
18.710983	23.245780	11.249444	0.003732	0.135949	3.153067	0.000000	-0.022825	0.000000	0.016174	0.000353	0.000000	0.000000
19.009556	23.278362	11.161443	-0.061298	0.133899	3.148236	0.000000	-0.015750	0.000000	0.016291	0.000392	0.000000	0.000000
19.342889	23.324019	11.082310	-0.075672	0.103499	3.142855	0.000000	-0.015750	0.000000	0.016422	0.000392	0.000000	0.000000
19.676223	23.379258	11.023444	-0.090045	0.073099	3.137474	0.000000	-0.015750	0.000000	0.016552	0.000392	0.000000	0.000000
20.010806	23.444630	10.984602	-0.220630	0.097009	3.132092	0.000000	-0.000232	0.000000	0.016684	0.000475	0.000000	0.000000
20.308129	23.579977	10.934948	-0.286459	0.094134	3.131895	0.000000	0.006745	0.000000	0.016825	0.000516	0.000000	0.000000
20.857189	23.488056	11.053132	0.453004	-0.310601	3.109816	0.000000	-0.086572	0.000000	0.016958	-0.000032	0.000000	0.000000
21.406249	22.596571	11.625345	1.160446	-0.737469	3.037122	0.000000	-0.178353	0.000000	0.016790	-0.000579	0.000000	0.000000
21.955309	20.968561	12.692358	1.785848	-1.216890	2.915102	0.000000	-0.266979	0.000000	0.016324	-0.001115	0.000000	0.000000
22.504369	18.719156	14.330195	2.284994	-1.783023	2.745917	0.000000	-0.350884	0.000000	0.015568	-0.001632	0.000000	0.000000
22.950329	16.948080	15.800877	1.698435	-1.499889	2.606982	0.000000	-0.275097	0.000000	0.014929	-0.001236	0.000000	0.000000
23.391289	15.676729	16.973928	1.194553	-1.149647	2.502109	0.000000	-0.202926	0.000000	0.014468	-0.000857	0.000000	0.000000
23.832249	14.824267	17.813675	0.745291	-0.747077	2.428372	0.000000	-0.133058	0.000000	0.014171	-0.000488	0.000000	0.000000
24.273209	14.351703	18.281901	0.330104	-0.310503	2.384934	0.000000	-0.064700	0.000000	0.014036	-0.000125	0.000000	0.000000
24.715418	14.237607	18.356939	-0.039976	0.101262	2.371303	0.000000	-0.002093	0.000000	0.014061	0.000206	0.000000	0.000000
25.012741	14.267598	18.301589	-0.060892	0.084899	2.370619	0.000000	-0.002093	0.000000	0.014123	0.000206	0.000000	0.000000
25.346075	14.316009	18.251104	-0.084342	0.066555	2.369853	0.000000	-0.002093	0.000000	0.014191	0.000206	0.000000	0.000000
25.679408	14.380053	18.212849	-0.107791	0.048210	2.369087	0.000000	-0.002093	0.000000	0.014260	0.000206	0.000000	0.000000
26.013991	14.459766	18.187119	-0.014022	-0.117746	2.368294	0.000000	-0.021306	0.000000	0.014328	0.000089	0.000000	0.000000
26.311314	14.474131	18.262174	-0.004092	-0.172784	2.361926	0.000000	-0.026282	0.000000	0.014355	0.000057	0.000000	0.000000
26.752274	14.656726	18.216543	-0.411379	0.275850	2.365057	0.000000	0.040963	0.000000	0.014462	0.000428	0.000000	0.000000
27.193234	15.205569	17.779216	-0.837477	0.711930	2.397762	0.000000	0.108670	0.000000	0.014733	0.000805	0.000000	0.000000
27.634194	16.145766	16.970093	-1.301869	1.115606	2.460410	0.000000	0.177607	0.000000	0.015173	0.001190	0.000000	0.000000
28.075154	17.520324	15.825996	-1.825791	1.468503	2.553711	0.000000	0.248555	0.000000	0.015785	0.001589	0.000000	0.000000
28.521114	19.416380	14.381521	-2.438491	1.755794	2.680321	0.000000	0.322802	0.000000	0.016587	0.002009	0.000000	0.000000
29.070174	21.827851	12.772489	-1.925384	1.191309	2.834524	0.000000	0.241262	0.000000	0.017540	0.001456	0.000000	0.000000
29.619234	23.597029	11.733483	-1.276142	0.711716	2.943010	0.000000	0.155464	0.000000	0.018182	0.000877	0.000000	0.000000
30.168294	24.598787	11.190476	-0.536670	0.282840	3.003861	0.000000	0.066922	0.000000	0.018501	0.000283	0.000000	0.000000
30.717354	24.762272	11.104779	0.240747	-0.125881	3.016003	0.000000	-0.022804	0.000000	0.018492	-0.000317	0.000000	0.000000
31.015927	24.654340	11.173629	0.174092	-0.128694	3.011230	0.000000	-0.016205	0.000000	0.018411	-0.000272	0.000000	0.000000
31.349260	24.542922	11.269534	0.160162	-0.159020	3.005919	0.000000	-0.016205	0.000000	0.018320	-0.000272	0.000000	0.000000
31.682593	24.440791	11.385656	0.146232	-0.189346	3.000608	0.000000	-0.016205	0.000000	0.018229	-0.000272	0.000000	0.000000
32.017177	24.347615	11.522544	0.132249	-0.219786	2.995277	0.000000	-0.016205	0.000000	0.018138	-0.000272	0.000000	0.000000
32.314499	24.272901	11.661170	0.066457	-0.221238	2.990554	0.000000	-0.009630	0.000000	0.018057	-0.000229	0.000000	0.000000
32.863559	23.784023	12.142104	0.818075	-0.659631	2.961160	0.000000	-0.098250	0.000000	0.017772	-0.000809	0.000000	0.000000
33.412619	22.496410	13.127400	1.511846	-1.145030	2.883804	0.000000	-0.185139	0.000000	0.017171	-0.001375	0.000000	0.000000
33.961679	20.501137	14.687257	2.098718	-1.712020	2.759849	0.000000	-0.268765	0.000000	0.016266	-0.001917	0.000000	0.000000
34.510739	17.939320	16.932804	2.537202	-2.401002	2.591486	0.000000	-0.347653	0.000000	0.015072	-0.002425	0.000000	0.000000
34.956699	15.948739	18.941828	1.940004	-2.083938	2.453448	0.000000	-0.275871	0.000000	0.014075	-0.002047	0.000000	0.000000
35.397659	14.464690	20.605198	1.436778	-1.673119	2.347712	0.000000	-0.207674	0.000000	0.013251	-0.001695	0.000000	0.000000
35.838619	13.394094	21.871074	0.999248	-1.186151	2.271364	0.000000	-0.141824	0.000000	0.012577	-0.001362	0.000000	0.000000
36.279579	12.687980	22.681855	0.607407	-0.645199	2.223540	0.000000	-0.077576	0.000000	0.012047	-0.001044	0.000000	0.000000
36.721789	12.313424	23.000870	0.269996	-0.124702	2.203683	0.000000	-0.018991	0.000000	0.011654	-0.000766	0.000000	0.000000
37.019112	12.160575	23.078926	0.244090	-0.137829	2.198264	0.000000	-0.018991	0.000000	0.011426	-0.000766	0.000000	0.000000
37.352445	12.007529	23.175719	0.215046	-0.152547	2.192189	0.000000	-0.018991	0.000000	0.011171	-0.000766	0.000000	0.000000
37.685779	11.873847	23.282322	0.186001	-0.167264	2.186114	0.000000	-0.018991	0.000000	0.010915	-0.000766	0.000000	0.000000
38.020362	11.759135	23.399193	0.156848	-0.182037	2.180016	0.000000	-0.018991	0.000000	0.010659	-0.000766	0.000000	0.000000
38.317684	11.673531	23.511419	0.156671	-0.247239	2.174594	0.000000	-0.023784	0.000000	0.010432	-0.000790	0.000000	0.000000
38.758644	11.684719	23.469067	-0.182355	0.342903	2.178144	0.000000	0.038628	0.000000	0.010142	-0.000525	0.000000	0.000000
39.199604	11.997511	22.911104	-0.529712	0.917437	2.209180	0.000000	0.101487	0.000000	0.009968	-0.000265	0.000000	0.000000
39.640564	12.626204	21.862926	-0.901279	1.450216	2.268057	0.000000	0.165504	0.000000	0.009908	-0.000009	0.000000	0.000000
40.081524	13.599535	20.372237	-1.314040	1.916992	2.355447	0.000000	0.231407	0.000000	0.009960	0.000247	0.000000	0.000000
40.527484	14.979637	18.484222	-1.790864	2.298047	2.473821	0.000000	0.300375	0.000000	0.010128	0.000508	0.000000	0.000000
41.076544	16.742911	16.362762	-1.400938	1.588001	2.618299	0.000000	0.225705	0.000000	0.010316	0.000176	0.000000	0.000000
41.625604	18.020615	14.954787	-0.912011	0.991097	2.720788	0.000000	0.147034	0.000000	0.010321	-0.000158	0.000000	0.000000
42.174664	18.722443	14.159984	-0.358639	0.464808	2.779470	0.000000	0.065752	0.000000	0.010143	-0.000490	0.000000	0.000000
42.723724	18.798799	13.921721	0.220067	-0.028361	2.793301	0.000000	-0.016705	0.000000	0.009785	-0.000813	0.000000	0.000000
43.022297	18.699082	13.925107	0.158716	-0.016329	2.790540	0.000000	-0.010021	0.000000	0.009550	-0.000788	0.000000	0.000000
43.502297	18.559346	13.957333	0.132400	-0.050808	2.786108	0.000000	-0.010021	0.000000	0.009172	-0.000788	0.000000	0.000000
43.982297	18.444874	14.022659	0.106083	-0.085287	2.781676	0.000000	-0.010021	0.000000	0.008793	-0.000788	0.000000	0.000000
44.462297	18.355665	14.121085	0.079767	-0.119767	2.777244	0.000000	-0.010021	0.000000	0.008415	-0.000788	0.000000	0.000000
44.942297	18.291721	14.252611	0.053451	-0.154246	2.772812	0.000000	-0.010021	0.000000	0.008037	-0.000788	0.000000	0.000000
45.423547	18.253199	14.417530	-0.063371	-0.117382	2.768386	0.000000	0.003695	0.000000	0.007658	-0.000750	0.000000	0.000000
45.720870	18.295774	14.493523	-0.124495	-0.102978	2.769710	0.000000	0.010472	0.000000	0.007435	-0.000731	0.000000	0.000000
46.269930	18.124098	14.887244	0.434841	-0.618263	2.753467	0.000000	-0.071174	0.000000	0.006968	-0.000965	0.000000	0.000000
46.818990	17.351413	15.867581	0.963434	-1.177589	2.692788	0.000000	-0.151574	0.000000	0.006378	-0.001181	0.000000	0.000000
47.368050	16.032342	17.504358	1.423936	-1.820802	2.588740	0.000000	-0.229304	0.000000	0.005675	-0.001376	0.000000	0.000000
47.917110	14.260118	19.914154	1.783810	-2.593720	2.443159	0.000000	-0.302988	0.000000	0.004871	-0.001547	0.000000	0.000000
48.363070	12.880374	22.056795	1.320242	-2.190359	2.323924	0.000000	-0.234856	0.000000	0.004208	-0.001429	0.000000	0.000000
48.804030	11.895606	23.773947	0.920849	-1.688724	2.235374	0.000000	-0.169793	0.000000	0.003601	-0.001329	0.000000	0.000000
49.244990	11.243304	25.012957	0.563543	-1.110249	2.175027	0.000000	-0.106650	0.000000	0.003034	-0.001243	0.000000	0.000000
49.685950	10.893647	25.717458	0.231997	-0.481259	2.142201	0.000000	-0.044708	0.000000	0.002502	-0.001172	0.000000	0.000000
50.128160	10.830805	25.855133	-0.063003	0.107784	2.136543	0.000000	0.011598	0.000000	0.001997	-0.001119	0.000000	0.000000
50.425482	10.876464	25.794498	-0.090564	0.096151	2.140324	0.000000	0.011598	0.000000	0.001665	-0.001119	0.000000	0.000000
50.758816	10.947139	25.734745	-0.121462	0.083109	2.144563	0.000000	0.011598	0.000000	0.001292	-0.001119	0.000000	0.000000
51.092149	11.038413	25.683686	-0.152361	0.070067	2.148801	0.000000	0.011598	0.000000	0.000919	-0.001119	0.000000	0.000000
51.426732	11.150519	25.641700	-0.092915	-0.151042	2.153034	0.000000	-0.005869	0.000000	0.000545	-0.001123	0.000000	0.000000
51.724055	11.213767	25.735043	-0.092365	-0.226299	2.151623	0.000000	-0.011135	0.000000	0.000211	-0.001124	0.000000	0.000000
52.165015	11.441320	25.648285	-0.425995	0.422297	2.160827	0.000000	0.050741	0.000000	-0.000284	-0.001125	0.000000	0.000000
52.605975	11.970533	24.995844	-0.779079	1.051675	2.197422	0.000000	0.113208	0.000000	-0.000783	-0.001138	0.000000	0.000000
53.046935	12.825571	23.807417	-1.167747	1.633199	2.261831	0.000000	0.176976	0.000000	-0.001290	-0.001165	0.000000	0.000000
53.487895	14.045486	22.137085	-1.609754	2.140412	2.354791	0.000000	0.242772	0.000000	-0.001812	-0.001205	0.000000	0.000000
53.933855	15.706866	20.035854	-2.129522	2.551532	2.478899	0.000000	0.311740	0.000000	-0.002361	-0.001259	0.000000	0.000000
54.482915	17.845585	17.671328	-1.743384	1.780549	2.630358	0.000000	0.236826	0.000000	-0.003029	-0.001172	0.000000	0.000000
55.031975	19.489753	16.079228	-1.234140	1.136386	2.739412	0.000000	0.157693	0.000000	-0.003644	-0.001064	0.000000	0.000000
55.581035	20.523282	15.146142	-0.637757	0.573163	2.804118	0.000000	0.075745	0.000000	-0.004194	-0.000937	0.000000	0.000000
56.130095	20.873215	14.805601	0.003647	0.050764	2.823320	0.000000	-0.007561	0.000000	-0.004669	-0.000793	0.000000	0.000000
56.428668	20.909133	14.757276	-0.067345	0.070775	2.823590	0.000000	0.000102	0.000000	-0.004910	-0.000806	0.000000	0.000000
56.762001	20.959368	14.717659	-0.083359	0.048075	2.823892	0.000000	0.000102	0.000000	-0.005178	-0.000806	0.000000	0.000000
57.095334	21.020278	14.693176	-0.099373	0.025374	2.824195	0.000000	0.000102	0.000000	-0.005447	-0.000806	0.000000	0.000000
57.429918	21.092154	14.683821	-0.115448	0.002588	2.824498	0.000000	0.000102	0.000000	-0.005716	-0.000806	0.000000	0.000000
57.727240	21.165073	14.688287	-0.187746	0.022432	2.824769	0.000000	0.007844	0.000000	-0.005956	-0.000822	0.000000	0.000000
58.276300	21.009555	14.945524	0.468903	-0.493743	2.806546	0.000000	-0.075520	0.000000	-0.006353	-0.000622	0.000000	0.000000
58.825360	20.147100	15.785394	1.092426	-1.045077	2.742744	0.000000	-0.157556	0.000000	-0.006637	-0.000412	0.000000	0.000000
59.374420	18.638617	17.267700	1.638799	-1.670833	2.634492	0.000000	-0.236804	0.000000	-0.006804	-0.000194	0.000000	0.000000
59.923480	16.590624	19.498002	2.069445	-2.415575	2.483705	0.000000	-0.311856	0.000000	-0.006849	0.000027	0.000000	0.000000
60.369440	14.986436	21.480312	1.540578	-2.010912	2.360129	0.000000	-0.242782	0.000000	-0.006877	-0.000151	0.000000	0.000000
60.810400	13.832586	23.041318	1.086184	-1.515984	2.267808	0.000000	-0.176851	0.000000	-0.006983	-0.000329	0.000000	0.000000
61.251360	13.056104	24.133689	0.681402	-0.952095	2.204163	0.000000	-0.112931	0.000000	-0.007168	-0.000512	0.000000	0.000000
61.692320	12.621525	24.707735	0.307745	-0.344897	2.168472	0.000000	-0.050291	0.000000	-0.007435	-0.000700	0.000000	0.000000
62.134530	12.509068	24.736771	-0.019059	0.213218	2.160342	0.000000	0.006104	0.000000	-0.007787	-0.000876	0.000000	0.000000
62.431853	12.527471	24.613718	-0.042836	0.200653	2.162418	0.000000	0.006104	0.000000	-0.008048	-0.000876	0.000000	0.000000
62.765186	12.564915	24.484645	-0.069493	0.186565	2.164744	0.000000	0.006104	0.000000	-0.008340	-0.000876	0.000000	0.000000
63.098520	12.620129	24.364965	-0.096151	0.172477	2.167071	0.000000	0.006104	0.000000	-0.008632	-0.000876	0.000000	0.000000
63.433103	12.693423	24.254280	-0.122908	0.158336	2.169406	0.000000	0.006104	0.000000	-0.008925	-0.000876	0.000000	0.000000
63.730426	12.773547	24.163922	-0.112708	0.081191	2.171479	0.000000	0.000328	0.000000	-0.009186	-0.000853	0.000000	0.000000
64.171386	13.034838	23.826152	-0.482527	0.681985	2.185790	0.000000	0.062767	0.000000	-0.009615	-0.001095	0.000000	0.000000
64.612346	13.630629	22.970315	-0.874373	1.251754	2.227870	0.000000	0.125932	0.000000	-0.010154	-0.001350	0.000000	0.000000
65.053306	14.588113	21.635351	-1.306138	1.764580	2.298203	0.000000	0.190546	0.000000	-0.010808	-0.001620	0.000000	0.000000
65.494266	15.950989	19.881997	-1.797534	2.197140	2.397596	0.000000	0.257346	0.000000	-0.011585	-0.001909	0.000000	0.000000
65.940226	17.804858	17.765048	-2.375410	2.530285	2.528810	0.000000	0.327463	0.000000	-0.012505	-0.002221	0.000000	0.000000
66.489286	20.179021	15.396672	-1.924924	1.809478	2.688836	0.000000	0.250820	0.000000	-0.013610	-0.001798	0.000000	0.000000
67.038346	21.980670	13.744750	-1.338587	1.217516	2.805260	0.000000	0.169700	0.000000	-0.014473	-0.001343	0.000000	0.000000
67.587406	23.082698	12.691633	-0.657786	0.712244	2.876005	0.000000	0.085550	0.000000	-0.015080	-0.000865	0.000000	0.000000
68.136466	23.407367	12.162322	0.069428	0.257686	2.899810	0.000000	-0.000131	0.000000	-0.015420	-0.000371	0.000000	0.000000
68.435038	23.410602	11.995127	-0.012069	0.266801	2.902427	0.000000	0.008385	0.000000	-0.015543	-0.000413	0.000000	0.000000
68.768372	23.423395	11.827182	-0.026310	0.237034	2.905360	0.000000	0.008385	0.000000	-0.015681	-0.000413	0.000000	0.000000
69.101705	23.445682	11.679082	-0.040551	0.207267	2.908293	0.000000	0.008385	0.000000	-0.015819	-0.000413	0.000000	0.000000
69.436288	23.477600	11.550383	-0.054845	0.177388	2.911236	0.000000	0.008385	0.000000	-0.015957	-0.000413	0.000000	0.000000
69.733611	23.514168	11.452707	-0.136905	0.184548	2.913863	0.000000	0.016980	0.000000	-0.016080	-0.000458	0.000000	0.000000
70.282671	23.260658	11.478911	0.595865	-0.232566	2.899584	0.000000	-0.069308	0.000000	-0.016188	0.000065	0.000000	0.000000
