#ParticleID	Turn	x[m]	xp	y[m]	yp	z[m]	dE[GeV]# s	beta_x	beta_y	alpha_x	alpha_y	D_x	D_y	D_px	D_py	orbit_x	orbit_px	orbit_y	orbit_py
0.300000	11.959947	25.268550	-0.016816	-0.023347	2.599277	0.000000	-0.000635	0.000000	-0.001136	0.000970	0.000000	0.000000
0.601250	11.977669	25.286211	-0.042012	-0.035276	2.598794	0.000000	-0.000635	0.000000	-0.000844	0.000970	0.000000	0.000000
0.898573	12.010044	25.310688	-0.037272	-0.109092	2.598317	0.000000	-0.007040	0.000000	-0.000555	0.000971	0.000000	0.000000
1.339533	12.196760	25.126010	-0.387433	0.526310	2.610982	0.000000	0.066396	0.000000	-0.000130	0.000962	0.000000	0.000000
1.780493	12.698908	24.389413	-0.755303	1.137769	2.656164	0.000000	0.140578	0.000000	0.000295	0.000964	0.000000	0.000000
2.221453	13.539440	23.134404	-1.157689	1.697463	2.734375	0.000000	0.216350	0.000000	0.000722	0.000977	0.000000	0.000000
2.662413	14.756768	21.418075	-1.612976	2.179926	2.846500	0.000000	0.294577	0.000000	0.001158	0.001002	0.000000	0.000000
3.108373	16.427558	19.293357	-2.146339	2.564382	2.995654	0.000000	0.376639	0.000000	0.001612	0.001037	0.000000	0.000000
3.657433	18.569176	16.906611	-1.730471	1.808126	3.176895	0.000000	0.284482	0.000000	0.002166	0.000976	0.000000	0.000000
4.206493	20.183878	15.275159	-1.192342	1.180663	3.306115	0.000000	0.187295	0.000000	0.002681	0.000898	0.000000	0.000000
4.755553	21.157572	14.282807	-0.569963	0.637297	3.381031	0.000000	0.086800	0.000000	0.003149	0.000803	0.000000	0.000000
5.304613	21.421445	13.858876	0.092697	0.139326	3.400319	0.000000	-0.015222	0.000000	0.003561	0.000695	0.000000	0.000000
5.603185	21.402668	13.761422	0.024453	0.152109	3.398136	0.000000	-0.006605	0.000000	0.003771	0.000704	0.000000	0.000000
5.936519	21.391561	13.668277	0.008869	0.127326	3.395700	0.000000	-0.006605	0.000000	0.004005	0.000704	0.000000	0.000000
6.269852	21.390843	13.591654	-0.006715	0.102543	3.393264	0.000000	-0.006605	0.000000	0.004240	0.000704	0.000000	0.000000
6.604435	21.400570	13.531359	-0.022357	0.077668	3.390818	0.000000	-0.006605	0.000000	0.004475	0.000704	0.000000	0.000000
6.901758	21.418011	13.491738	-0.089992	0.089552	3.388647	0.000000	0.001897	0.000000	0.004685	0.000716	0.000000	0.000000
7.450818	21.151699	13.655168	0.572508	-0.388943	3.361443	0.000000	-0.099623	0.000000	0.005035	0.000558	0.000000	0.000000
7.999878	20.175770	14.356125	1.194572	-0.895148	3.278985	0.000000	-0.199366	0.000000	0.005296	0.000391	0.000000	0.000000
8.548938	18.559169	15.644549	1.732246	-1.465124	3.142741	0.000000	-0.295567	0.000000	0.005463	0.000217	0.000000	0.000000
9.097998	16.416112	17.612228	2.147540	-2.139474	2.955129	0.000000	-0.386521	0.000000	0.005533	0.000038	0.000000	0.000000
9.543958	14.744401	19.365282	1.614124	-1.774567	2.800839	0.000000	-0.305550	0.000000	0.005582	0.000183	0.000000	0.000000
9.984918	13.526166	20.739736	1.158927	-1.330280	2.683073	0.000000	-0.228562	0.000000	0.005694	0.000328	0.000000	0.000000
10.425878	12.684645	21.694040	0.756690	-0.825456	2.598588	0.000000	-0.154181	0.000000	0.005872	0.000477	0.000000	0.000000
10.866838	12.181382	22.184763	0.389028	-0.283066	2.546422	0.000000	-0.081561	0.000000	0.006116	0.000632	0.000000	0.000000
11.309048	11.993230	22.188992	0.066630	0.220848	2.525958	0.000000	-0.015689	0.000000	0.006431	0.000778	0.000000	0.000000
11.606371	11.961012	22.061843	0.041729	0.206795	2.521062	0.000000	-0.015689	0.000000	0.006662	0.000778	0.000000	0.000000
12.086371	11.940249	21.874210	0.001529	0.184108	2.513158	0.000000	-0.015689	0.000000	0.007036	0.000778	0.000000	0.000000
12.566371	11.958077	21.708356	-0.038672	0.161420	2.505254	0.000000	-0.015689	0.000000	0.007409	0.000778	0.000000	0.000000
13.046371	12.014498	21.564282	-0.078872	0.138733	2.497350	0.000000	-0.015689	0.000000	0.007782	0.000778	0.000000	0.000000
13.526371	12.109512	21.441989	-0.119072	0.116046	2.489446	0.000000	-0.015689	0.000000	0.008156	0.000778	0.000000	0.000000
14.007621	12.243516	21.341242	-0.159377	0.093299	2.481522	0.000000	-0.015689	0.000000	0.008530	0.000778	0.000000	0.000000
14.304943	12.345665	21.289988	-0.156571	0.031687	2.476623	0.000000	-0.021247	0.000000	0.008762	0.000757	0.000000	0.000000
14.745903	12.642218	21.029130	-0.518102	0.557554	2.482362	0.000000	0.048980	0.000000	0.009146	0.000988	0.000000	0.000000
15.186863	13.266903	20.313896	-0.903320	1.058049	2.519063	0.000000	0.119754	0.000000	0.009635	0.001230	0.000000	0.000000
15.627823	14.248289	19.176826	-1.329837	1.510394	2.587140	0.000000	0.191879	0.000000	0.010233	0.001487	0.000000	0.000000
16.068783	15.631256	17.669658	-1.817150	1.894001	2.687364	0.000000	0.266175	0.000000	0.010949	0.001760	0.000000	0.000000
16.514743	17.502699	15.839290	-2.392510	2.192389	2.822558	0.000000	0.343979	0.000000	0.011799	0.002055	0.000000	0.000000
17.063803	19.905864	13.796206	-1.956659	1.549976	2.987024	0.000000	0.257674	0.000000	0.012819	0.001656	0.000000	0.000000
17.612863	21.751008	12.394246	-1.382488	1.017996	3.102996	0.000000	0.166823	0.000000	0.013612	0.001228	0.000000	0.000000
18.161923	22.907661	11.533538	-0.710582	0.558550	3.168426	0.000000	0.073032	0.000000	0.014163	0.000777	0.000000	0.000000
18.710983	23.294029	11.152765	0.011565	0.138902	3.182161	0.000000	-0.022042	0.000000	0.014463	0.000314	0.000000	0.000000
19.009556	23.322586	11.062917	-0.054482	0.136830	3.177636	0.000000	-0.014774	0.000000	0.014567	0.000349	0.000000	0.000000
19.342889	23.363685	10.981928	-0.068817	0.106135	3.172595	0.000000	-0.014774	0.000000	0.014684	0.000349	0.000000	0.000000
19.676223	23.414341	10.921403	-0.083151	0.075440	3.167554	0.000000	-0.014774	0.000000	0.014800	0.000349	0.000000	0.000000
20.010806	23.475088	10.881095	-0.213848	0.098542	3.162513	0.000000	0.000895	0.000000	0.014917	0.000423	0.000000	0.000000
20.308129	23.606347	10.830629	-0.280682	0.095615	3.162664	0.000000	0.008075	0.000000	0.015043	0.000460	0.000000	0.000000
20.857189	23.507647	10.945578	0.459485	-0.306161	3.141055	0.000000	-0.086242	0.000000	0.015161	-0.000030	0.000000	0.000000
21.406249	22.608897	11.511140	1.167176	-0.729754	3.068251	0.000000	-0.179029	0.000000	0.015010	-0.000519	0.000000	0.000000
21.955309	20.973645	12.567612	1.792358	-1.205345	2.945543	0.000000	-0.268648	0.000000	0.014593	-0.000998	0.000000	0.000000
22.504369	18.717518	14.190262	2.290837	-1.766823	2.775103	0.000000	-0.353516	0.000000	0.013917	-0.001460	0.000000	0.000000
22.950329	16.941556	15.647945	1.703856	-1.487213	2.635101	0.000000	-0.276992	0.000000	0.013345	-0.001107	0.000000	0.000000
23.391289	15.665585	16.811537	1.199764	-1.141019	2.529506	0.000000	-0.204108	0.000000	0.012932	-0.000768	0.000000	0.000000
23.832249	14.808565	17.645594	0.750525	-0.742893	2.455374	0.000000	-0.133541	0.000000	0.012666	-0.000438	0.000000	0.000000
24.273209	14.331302	18.112158	0.335599	-0.310954	2.411863	0.000000	-0.064491	0.000000	0.012545	-0.000113	0.000000	0.000000
24.715418	14.212122	18.189672	-0.033498	0.095882	2.398481	0.000000	-0.001334	0.000000	0.012567	0.000182	0.000000	0.000000
25.012741	14.238269	18.137560	-0.054442	0.079387	2.398030	0.000000	-0.001334	0.000000	0.012621	0.000182	0.000000	0.000000
25.346075	14.282390	18.090801	-0.077923	0.060893	2.397524	0.000000	-0.001334	0.000000	0.012682	0.000182	0.000000	0.000000
25.679408	14.342166	18.056370	-0.101403	0.042399	2.397019	0.000000	-0.001334	0.000000	0.012742	0.000182	0.000000	0.000000
26.013991	14.417614	18.034575	-0.008006	-0.122470	2.396487	0.000000	-0.020776	0.000000	0.012803	0.000078	0.000000	0.000000
26.311314	14.428438	18.112464	0.002318	-0.178041	2.390281	0.000000	-0.025903	0.000000	0.012826	0.000049	0.000000	0.000000
26.752274	14.604839	18.073253	-0.403714	0.266607	2.393753	0.000000	0.042075	0.000000	0.012921	0.000381	0.000000	0.000000
27.193234	15.146215	17.645699	-0.828204	0.699121	2.427140	0.000000	0.110528	0.000000	0.013163	0.000717	0.000000	0.000000
27.634194	16.077325	16.849256	-1.290561	1.099816	2.490820	0.000000	0.180233	0.000000	0.013554	0.001061	0.000000	0.000000
28.075154	17.440757	15.720169	-1.811926	1.450452	2.585517	0.000000	0.251980	0.000000	0.014101	0.001418	0.000000	0.000000
28.521114	19.322888	14.292595	-2.421358	1.736266	2.713918	0.000000	0.327069	0.000000	0.014816	0.001793	0.000000	0.000000
29.070174	21.716531	12.702805	-1.910482	1.175670	2.870255	0.000000	0.244411	0.000000	0.015667	0.001299	0.000000	0.000000
29.619234	23.470970	11.679391	-1.264540	0.698848	2.980213	0.000000	0.157436	0.000000	0.016239	0.000782	0.000000	0.000000
30.168294	24.462135	11.149439	-0.529196	0.271823	3.041847	0.000000	0.067680	0.000000	0.016523	0.000251	0.000000	0.000000
30.717354	24.619932	11.075193	0.243559	-0.135832	3.054068	0.000000	-0.023273	0.000000	0.016514	-0.000284	0.000000	0.000000
31.015927	24.510907	11.149729	0.175968	-0.138319	3.049218	0.000000	-0.016447	0.000000	0.016441	-0.000244	0.000000	0.000000
31.349260	24.398268	11.252098	0.161948	-0.168787	3.043817	0.000000	-0.016447	0.000000	0.016360	-0.000244	0.000000	0.000000
31.682593	24.294977	11.374778	0.147927	-0.199255	3.038416	0.000000	-0.016447	0.000000	0.016278	-0.000244	0.000000	0.000000
32.017177	24.200697	11.518345	0.133854	-0.229837	3.032995	0.000000	-0.016447	0.000000	0.016197	-0.000244	0.000000	0.000000
32.314499	24.125004	11.663008	0.067193	-0.230869	3.028189	0.000000	-0.009649	0.000000	0.016124	-0.000205	0.000000	0.000000
32.863559	23.638076	12.154767	0.813875	-0.669852	2.998424	0.000000	-0.099477	0.000000	0.015869	-0.000723	0.000000	0.000000
33.412619	22.357744	13.151916	1.503012	-1.156567	2.920007	0.000000	-0.187552	0.000000	0.015332	-0.001229	0.000000	0.000000
33.961679	20.374556	14.725497	2.085887	-1.725693	2.794322	0.000000	-0.272319	0.000000	0.014523	-0.001713	0.000000	0.000000
34.510739	17.828755	16.987612	2.521297	-2.417778	2.623590	0.000000	-0.352281	0.000000	0.013457	-0.002166	0.000000	0.000000
34.956699	15.850922	19.011489	1.927546	-2.100501	2.483571	0.000000	-0.279698	0.000000	0.012566	-0.001828	0.000000	0.000000
35.397659	14.376659	20.689040	1.427128	-1.688668	2.376232	0.000000	-0.210747	0.000000	0.011830	-0.001514	0.000000	0.000000
35.838619	13.313557	21.967897	0.991960	-1.199980	2.298620	0.000000	-0.144180	0.000000	0.011229	-0.001217	0.000000	0.000000
36.279579	12.612994	22.789867	0.602143	-0.656680	2.249856	0.000000	-0.079244	0.000000	0.010755	-0.000933	0.000000	0.000000
36.721789	12.242301	23.117814	0.266735	-0.134300	2.229369	0.000000	-0.020114	0.000000	0.010403	-0.000685	0.000000	0.000000
37.019112	12.091423	23.201568	0.240720	-0.147393	2.223592	0.000000	-0.020114	0.000000	0.010199	-0.000685	0.000000	0.000000
37.352445	11.940665	23.304723	0.211555	-0.162072	2.217115	0.000000	-0.020114	0.000000	0.009971	-0.000685	0.000000	0.000000
37.685779	11.809350	23.417664	0.182390	-0.176751	2.210639	0.000000	-0.020114	0.000000	0.009743	-0.000685	0.000000	0.000000
38.020362	11.697095	23.540870	0.153115	-0.191485	2.204138	0.000000	-0.020114	0.000000	0.009514	-0.000685	0.000000	0.000000
38.317684	11.613751	23.658689	0.153015	-0.257599	2.198358	0.000000	-0.025020	0.000000	0.009310	-0.000707	0.000000	0.000000
38.758644	11.627580	23.623723	-0.184687	0.336581	2.201468	0.000000	0.037998	0.000000	0.009051	-0.000470	0.000000	0.000000
39.199604	11.941889	23.069451	-0.530827	0.915441	2.232340	0.000000	0.101454	0.000000	0.008895	-0.000238	0.000000	0.000000
39.640564	12.571041	22.021100	-0.901227	1.452638	2.291328	0.000000	0.166068	0.000000	0.008840	-0.000010	0.000000	0.000000
40.081524	13.543794	20.526382	-1.312816	1.923724	2.379103	0.000000	0.232574	0.000000	0.008886	0.000219	0.000000	0.000000
40.527484	14.922206	18.630583	-1.788381	2.308782	2.498151	0.000000	0.302159	0.000000	0.009036	0.000451	0.000000	0.000000
41.076544	16.683917	16.499824	-1.400660	1.594362	2.643409	0.000000	0.226692	0.000000	0.009203	0.000156	0.000000	0.000000
41.625604	17.962523	15.087069	-0.913961	0.993533	2.746216	0.000000	0.147204	0.000000	0.009206	-0.000143	0.000000	0.000000
42.174664	18.667660	14.291667	-0.362682	0.463491	2.804748	0.000000	0.065103	0.000000	0.009047	-0.000438	0.000000	0.000000
42.723724	18.749500	14.056947	0.214217	-0.033527	2.817963	0.000000	-0.018161	0.000000	0.008726	-0.000726	0.000000	0.000000
43.022297	18.653492	14.062961	0.152518	-0.020639	2.814782	0.000000	-0.011349	0.000000	0.008516	-0.000704	0.000000	0.000000
43.502297	18.519714	14.099165	0.126187	-0.054786	2.809672	0.000000	-0.011349	0.000000	0.008178	-0.000704	0.000000	0.000000
43.982297	18.411214	14.168149	0.099856	-0.088932	2.804563	0.000000	-0.011349	0.000000	0.007840	-0.000704	0.000000	0.000000
44.462297	18.327991	14.269915	0.073525	-0.123079	2.799453	0.000000	-0.011349	0.000000	0.007502	-0.000704	0.000000	0.000000
44.942297	18.270046	14.404461	0.047194	-0.157226	2.794344	0.000000	-0.011349	0.000000	0.007164	-0.000704	0.000000	0.000000
45.423547	18.237553	14.572086	-0.069565	-0.119262	2.789238	0.000000	0.002470	0.000000	0.006825	-0.000671	0.000000	0.000000
45.720870	18.283814	14.649139	-0.131022	-0.103982	2.790174	0.000000	0.009349	0.000000	0.006626	-0.000654	0.000000	0.000000
46.269930	18.119507	15.046518	0.428079	-0.623969	2.773088	0.000000	-0.072945	0.000000	0.006209	-0.000862	0.000000	0.000000
46.818990	17.354195	16.035864	0.956920	-1.188405	2.711206	0.000000	-0.153959	0.000000	0.005682	-0.001054	0.000000	0.000000
47.368050	16.041976	17.687642	1.418134	-1.837496	2.605617	0.000000	-0.232259	0.000000	0.005055	-0.001228	0.000000	0.000000
47.917110	14.275593	20.119502	1.779135	-2.617481	2.458187	0.000000	-0.306459	0.000000	0.004337	-0.001380	0.000000	0.000000
48.363070	12.899968	22.281229	1.315734	-2.209250	2.337420	0.000000	-0.237959	0.000000	0.003746	-0.001276	0.000000	0.000000
48.804030	11.919215	24.012563	0.916285	-1.701894	2.247513	0.000000	-0.172566	0.000000	0.003203	-0.001186	0.000000	0.000000
49.244990	11.271063	25.260429	0.558714	-1.117100	2.185951	0.000000	-0.109126	0.000000	0.002698	-0.001110	0.000000	0.000000
49.685950	10.925883	25.968057	0.226679	-0.481480	2.152038	0.000000	-0.046917	0.000000	0.002222	-0.001047	0.000000	0.000000
50.128160	10.868065	26.102974	-0.068904	0.113431	2.145406	0.000000	0.009597	0.000000	0.001772	-0.000999	0.000000	0.000000
50.425482	10.917211	26.038952	-0.096392	0.101894	2.148556	0.000000	0.009597	0.000000	0.001474	-0.000999	0.000000	0.000000
50.758816	10.991745	25.975334	-0.127208	0.088960	2.152088	0.000000	0.009597	0.000000	0.001141	-0.000999	0.000000	0.000000
51.092149	11.086823	25.920339	-0.158025	0.076026	2.155620	0.000000	0.009597	0.000000	0.000808	-0.000999	0.000000	0.000000
51.426732	11.202690	25.874334	-0.098074	-0.146862	2.159144	0.000000	-0.007919	0.000000	0.000474	-0.001003	0.000000	0.000000
51.724055	11.268976	25.965155	-0.097280	-0.222542	2.157087	0.000000	-0.013201	0.000000	0.000175	-0.001004	0.000000	0.000000
52.165015	11.501474	25.872409	-0.432299	0.432069	2.165358	0.000000	0.048805	0.000000	-0.000267	-0.001005	0.000000	0.000000
52.605975	12.036978	25.208851	-0.787060	1.067017	2.201072	0.000000	0.111377	0.000000	-0.000712	-0.001017	0.000000	0.000000
53.046935	12.899946	24.004684	-1.177772	1.653413	2.264641	0.000000	0.175228	0.000000	-0.001166	-0.001042	0.000000	0.000000
53.487895	14.129789	22.314704	-1.622281	2.164580	2.356791	0.000000	0.241086	0.000000	-0.001633	-0.001078	0.000000	0.000000
53.933855	15.803707	20.190543	-2.145156	2.578562	2.480102	0.000000	0.310096	0.000000	-0.002124	-0.001126	0.000000	0.000000
54.482915	17.958338	17.799943	-1.756488	1.801273	2.630583	0.000000	0.235158	0.000000	-0.002722	-0.001048	0.000000	0.000000
55.031975	19.615111	16.187848	-1.243785	1.152281	2.738660	0.000000	0.156033	0.000000	-0.003271	-0.000951	0.000000	0.000000
55.581035	20.657043	15.239424	-0.643258	0.585360	2.802408	0.000000	0.074124	0.000000	-0.003763	-0.000837	0.000000	0.000000
56.130095	21.010578	14.887110	0.002681	0.060132	2.820689	0.000000	-0.009113	0.000000	-0.004187	-0.000708	0.000000	0.000000
56.428668	21.047141	14.833137	-0.068374	0.080270	2.820459	0.000000	-0.001487	0.000000	-0.004402	-0.000719	0.000000	0.000000
56.762001	21.098028	14.787163	-0.084286	0.057653	2.820203	0.000000	-0.001487	0.000000	-0.004642	-0.000719	0.000000	0.000000
57.095334	21.159523	14.756267	-0.100197	0.035036	2.819947	0.000000	-0.001487	0.000000	-0.004882	-0.000719	0.000000	0.000000
57.429918	21.231915	14.740418	-0.116169	0.012334	2.819691	0.000000	-0.001487	0.000000	-0.005122	-0.000719	0.000000	0.000000
57.727240	21.305232	14.739069	-0.188479	0.032216	2.819464	0.000000	0.006204	0.000000	-0.005336	-0.000734	0.000000	0.000000
58.276300	21.147959	14.986285	0.472855	-0.485162	2.800348	0.000000	-0.076976	0.000000	-0.005690	-0.000555	0.000000	0.000000
58.825360	20.278712	15.817119	1.100786	-1.037089	2.735774	0.000000	-0.158799	0.000000	-0.005944	-0.000366	0.000000	0.000000
59.374420	18.758882	17.290735	1.650975	-1.662870	2.626884	0.000000	-0.237813	0.000000	-0.006092	-0.000171	0.000000	0.000000
59.923480	16.695791	19.512073	2.084574	-2.407073	2.475604	0.000000	-0.312612	0.000000	-0.006131	0.000027	0.000000	0.000000
60.369440	15.079583	21.486225	1.552496	-2.001178	2.351640	0.000000	-0.243749	0.000000	-0.006155	-0.000133	0.000000	0.000000
60.810400	13.916409	23.038294	1.095475	-1.505491	2.258831	0.000000	-0.178043	0.000000	-0.006249	-0.000293	0.000000	0.000000
61.251360	13.132730	24.121262	0.688493	-0.941318	2.194588	0.000000	-0.114360	0.000000	-0.006414	-0.000456	0.000000	0.000000
61.692320	12.692751	24.685865	0.312961	-0.334325	2.158183	0.000000	-0.051975	0.000000	-0.006651	-0.000624	0.000000	0.000000
62.134530	12.576430	24.705830	-0.015534	0.223603	2.149211	0.000000	0.004214	0.000000	-0.006966	-0.000782	0.000000	0.000000
62.431853	12.592698	24.576622	-0.039181	0.210967	2.150697	0.000000	0.004214	0.000000	-0.007199	-0.000782	0.000000	0.000000
62.765186	12.627656	24.440700	-0.065692	0.196800	2.152362	0.000000	0.004214	0.000000	-0.007459	-0.000782	0.000000	0.000000
63.098520	12.680287	24.314222	-0.092203	0.182633	2.154027	0.000000	0.004214	0.000000	-0.007720	-0.000782	0.000000	0.000000
63.433103	12.750890	24.196768	-0.118813	0.168413	2.155699	0.000000	0.004214	0.000000	-0.007982	-0.000782	0.000000	0.000000
63.730426	12.828547	24.100426	-0.108613	0.091918	2.157182	0.000000	-0.001478	0.000000	-0.008214	-0.000761	0.000000	0.000000
64.171386	13.086772	23.754018	-0.479596	0.690763	2.170570	0.000000	0.060582	0.000000	-0.008597	-0.000978	0.000000	0.000000
64.612346	13.680471	22.891437	-0.872474	1.258184	2.211544	0.000000	0.123343	0.000000	-0.009078	-0.001206	0.000000	0.000000
65.053306	14.636744	21.551930	-1.305187	1.768368	2.280574	0.000000	0.187520	0.000000	-0.009663	-0.001447	0.000000	0.000000
65.494266	15.999242	19.796440	-1.797493	2.198111	2.378451	0.000000	0.253849	0.000000	-0.010357	-0.001705	0.000000	0.000000
65.940226	17.853531	17.679908	-2.376320	2.528395	2.507898	0.000000	0.323453	0.000000	-0.011179	-0.001984	0.000000	0.000000
66.489286	20.227684	15.312522	-1.923801	1.809471	2.665804	0.000000	0.247518	0.000000	-0.012166	-0.001606	0.000000	0.000000
67.038346	22.027101	13.659543	-1.335498	1.219395	2.780538	0.000000	0.167168	0.000000	-0.012937	-0.001200	0.000000	0.000000
67.587406	23.124814	12.603247	-0.652941	0.716147	2.850055	0.000000	0.083834	0.000000	-0.013479	-0.000772	0.000000	0.000000
68.136466	23.443379	12.068408	0.075693	0.263892	2.873116	0.000000	-0.000999	0.000000	-0.013782	-0.000330	0.000000	0.000000
68.435038	23.442499	11.897983	-0.005115	0.272037	2.875410	0.000000	0.007344	0.000000	-0.013892	-0.000368	0.000000	0.000000
68.768372	23.450649	11.726655	-0.019335	0.241948	2.877981	0.000000	0.007344	0.000000	-0.014015	-0.000368	0.000000	0.000000
69.101705	23.468279	11.575386	-0.033554	0.211858	2.880552	0.000000	0.007344	0.000000	-0.014138	-0.000368	0.000000	0.000000
69.436288	23.495508	11.443723	-0.047827	0.181656	2.883132	0.000000	0.007344	0.000000	-0.014261	-0.000368	0.000000	0.000000
69.733611	23.527861	11.343613	-0.129100	0.187825	2.885434	0.000000	0.015756	0.000000	-0.014370	-0.000408	0.000000	0.000000
70.282671	23.265590	11.364537	0.603929	-0.226167	2.870723	0.000000	-0.069609	0.000000	-0.014466	0.000059	0.000000	0.000000
