#ParticleID	Turn	x[m]	xp	y[m]	yp	z[m]	dE[GeV]# s	beta_x	beta_y	alpha_x	alpha_y	D_x	D_y	D_px	D_py	orbit_x	orbit_px	orbit_y	orbit_py
0.300000	11.945275	25.186909	-0.014086	-0.025194	2.601563	0.000000	-0.001444	0.000000	-0.001230	0.001039	0.000000	0.000000
0.601250	11.961361	25.205693	-0.039310	-0.037162	2.600815	0.000000	-0.001444	0.000000	-0.000917	0.001039	0.000000	0.000000
0.898573	11.992138	25.231304	-0.034629	-0.110829	2.600077	0.000000	-0.007857	0.000000	-0.000608	0.001040	0.000000	0.000000
1.339533	12.176332	25.049076	-0.384312	0.522511	2.612361	0.000000	0.065619	0.000000	-0.000152	0.001031	0.000000	0.000000
1.780493	12.675476	24.316680	-0.751562	1.132080	2.657179	0.000000	0.139832	0.000000	0.000303	0.001033	0.000000	0.000000
2.221453	13.512385	23.067427	-1.153157	1.690145	2.735037	0.000000	0.215626	0.000000	0.000761	0.001046	0.000000	0.000000
2.662413	14.725307	21.358151	-1.607448	2.171310	2.846817	0.000000	0.293865	0.000000	0.001227	0.001072	0.000000	0.000000
3.108373	16.390642	19.241551	-2.139553	2.554862	2.995625	0.000000	0.375932	0.000000	0.001713	0.001110	0.000000	0.000000
3.657433	18.525268	16.864009	-1.724558	1.800776	3.176441	0.000000	0.283782	0.000000	0.002306	0.001045	0.000000	0.000000
4.206493	20.134172	15.239679	-1.187716	1.174959	3.305248	0.000000	0.186616	0.000000	0.002857	0.000961	0.000000	0.000000
4.755553	21.103669	14.252873	-0.566950	0.632834	3.379768	0.000000	0.086155	0.000000	0.003358	0.000861	0.000000	0.000000
5.304613	21.365239	13.833311	0.093886	0.135784	3.398686	0.000000	-0.015821	0.000000	0.003800	0.000745	0.000000	0.000000
5.603185	21.345609	13.738065	0.025859	0.148406	3.396302	0.000000	-0.007226	0.000000	0.004025	0.000754	0.000000	0.000000
5.936519	21.333579	13.647394	0.010233	0.123608	3.393642	0.000000	-0.007226	0.000000	0.004276	0.000754	0.000000	0.000000
6.269852	21.331966	13.573255	-0.005394	0.098810	3.390982	0.000000	-0.007226	0.000000	0.004528	0.000754	0.000000	0.000000
6.604435	21.340823	13.515463	-0.021079	0.073919	3.388312	0.000000	-0.007226	0.000000	0.004780	0.000754	0.000000	0.000000
6.901758	21.357517	13.478074	-0.088447	0.085669	3.385940	0.000000	0.001244	0.000000	0.005004	0.000767	0.000000	0.000000
7.450818	21.090642	13.645585	0.572005	-0.392535	3.358378	0.000000	-0.100183	0.000000	0.005380	0.000599	0.000000	0.000000
7.999878	20.116386	14.350449	1.192058	-0.898705	3.275622	0.000000	-0.199823	0.000000	0.005660	0.000420	0.000000	0.000000
8.548938	18.503574	15.642883	1.727897	-1.468900	3.139144	0.000000	-0.295912	0.000000	0.005840	0.000234	0.000000	0.000000
9.097998	16.366158	17.614964	2.141661	-2.143740	2.951369	0.000000	-0.386748	0.000000	0.005916	0.000043	0.000000	0.000000
9.543958	14.699049	19.371964	1.609627	-1.779089	2.796950	0.000000	-0.305874	0.000000	0.005970	0.000197	0.000000	0.000000
9.984918	13.484245	20.750454	1.155606	-1.334856	2.679010	0.000000	-0.228987	0.000000	0.006091	0.000353	0.000000	0.000000
10.425878	12.645192	21.708745	0.754393	-0.829876	2.594301	0.000000	-0.154713	0.000000	0.006282	0.000512	0.000000	0.000000
10.866838	12.143547	22.203227	0.387650	-0.287129	2.541858	0.000000	-0.082207	0.000000	0.006544	0.000678	0.000000	0.000000
11.309048	11.956239	22.210816	0.065894	0.217500	2.521059	0.000000	-0.016417	0.000000	0.006882	0.000834	0.000000	0.000000
11.606371	11.924481	22.085649	0.040919	0.203481	2.515930	0.000000	-0.016417	0.000000	0.007130	0.000834	0.000000	0.000000
12.086371	11.904553	21.901172	0.000598	0.180847	2.507649	0.000000	-0.016417	0.000000	0.007530	0.000834	0.000000	0.000000
12.566371	11.923333	21.738422	-0.039723	0.158214	2.499369	0.000000	-0.016417	0.000000	0.007931	0.000834	0.000000	0.000000
13.046371	11.980821	21.597401	-0.080044	0.135580	2.491088	0.000000	-0.016417	0.000000	0.008331	0.000834	0.000000	0.000000
13.526371	12.077017	21.478108	-0.120364	0.112947	2.482807	0.000000	-0.016417	0.000000	0.008732	0.000834	0.000000	0.000000
14.007621	12.212323	21.380318	-0.160790	0.090254	2.474505	0.000000	-0.016417	0.000000	0.009133	0.000834	0.000000	0.000000
14.304943	12.315330	21.330872	-0.158312	0.028922	2.469372	0.000000	-0.021922	0.000000	0.009382	0.000813	0.000000	0.000000
14.745903	12.613148	21.071946	-0.519211	0.555950	2.474745	0.000000	0.048114	0.000000	0.009794	0.001060	0.000000	0.000000
15.186863	13.238572	20.357578	-0.903849	1.057679	2.510987	0.000000	0.118687	0.000000	0.010318	0.001319	0.000000	0.000000
15.627823	14.220205	19.220271	-1.329812	1.511274	2.578506	0.000000	0.190598	0.000000	0.010960	0.001593	0.000000	0.000000
16.068783	15.602944	17.711772	-1.816573	1.896090	2.678066	0.000000	0.264664	0.000000	0.011726	0.001886	0.000000	0.000000
16.514743	17.473691	15.878986	-2.391371	2.195619	2.812477	0.000000	0.342220	0.000000	0.012637	0.002202	0.000000	0.000000
17.063803	19.876292	13.832991	-1.956649	1.552031	2.976000	0.000000	0.256254	0.000000	0.013730	0.001775	0.000000	0.000000
17.612863	21.722105	12.429328	-1.383601	1.019026	3.091239	0.000000	0.165770	0.000000	0.014580	0.001316	0.000000	0.000000
18.161923	22.880604	11.568001	-0.712733	0.558630	3.156160	0.000000	0.072366	0.000000	0.015171	0.000834	0.000000	0.000000
18.710983	23.269855	11.187651	0.008531	0.138038	3.169617	0.000000	-0.022310	0.000000	0.015493	0.000337	0.000000	0.000000
19.009556	23.299836	11.098418	-0.056910	0.135864	3.164972	0.000000	-0.015147	0.000000	0.015605	0.000375	0.000000	0.000000
19.342889	23.342560	11.018038	-0.071263	0.105276	3.159798	0.000000	-0.015147	0.000000	0.015730	0.000375	0.000000	0.000000
19.676223	23.394853	10.958051	-0.085615	0.074687	3.154624	0.000000	-0.015147	0.000000	0.015855	0.000375	0.000000	0.000000
20.010806	23.457254	10.918210	-0.216242	0.098079	3.149450	0.000000	0.000457	0.000000	0.015980	0.000454	0.000000	0.000000
20.308129	23.589966	10.867980	-0.282461	0.095062	3.149463	0.000000	0.007527	0.000000	0.016115	0.000493	0.000000	0.000000
20.857189	23.493501	10.984113	0.457228	-0.307775	3.127662	0.000000	-0.086362	0.000000	0.016242	-0.000031	0.000000	0.000000
21.406249	22.597401	11.552089	1.164598	-0.732545	3.054920	0.000000	-0.178719	0.000000	0.016081	-0.000555	0.000000	0.000000
21.955309	20.965032	12.612376	1.789638	-1.209514	2.932525	0.000000	-0.267914	0.000000	0.015634	-0.001069	0.000000	0.000000
22.504369	18.711825	14.240517	2.288159	-1.772668	2.762645	0.000000	-0.352371	0.000000	0.014910	-0.001564	0.000000	0.000000
22.950329	16.938038	15.702903	1.701481	-1.491783	2.623119	0.000000	-0.276160	0.000000	0.014297	-0.001185	0.000000	0.000000
23.391289	15.664028	16.869913	1.197606	-1.144133	2.517851	0.000000	-0.203579	0.000000	0.013855	-0.000822	0.000000	0.000000
23.832249	14.808833	17.706029	0.748487	-0.744406	2.443904	0.000000	-0.133309	0.000000	0.013571	-0.000468	0.000000	0.000000
24.273209	14.333339	18.173200	0.333590	-0.310798	2.400438	0.000000	-0.064552	0.000000	0.013441	-0.000120	0.000000	0.000000
24.715418	14.215966	18.249823	-0.035877	0.097973	2.386962	0.000000	-0.001612	0.000000	0.013465	0.000196	0.000000	0.000000
25.012741	14.243527	18.196454	-0.056819	0.081525	2.386425	0.000000	-0.001612	0.000000	0.013523	0.000196	0.000000	0.000000
25.346075	14.289232	18.148251	-0.080297	0.063085	2.385822	0.000000	-0.001612	0.000000	0.013588	0.000196	0.000000	0.000000
25.679408	14.350589	18.112341	-0.103775	0.044644	2.385219	0.000000	-0.001612	0.000000	0.013653	0.000196	0.000000	0.000000
26.013991	14.427624	18.089027	-0.010294	-0.120612	2.384591	0.000000	-0.020957	0.000000	0.013719	0.000084	0.000000	0.000000
26.311314	14.439793	18.165807	-0.000261	-0.175825	2.378328	0.000000	-0.026005	0.000000	0.013744	0.000053	0.000000	0.000000
26.752274	14.618616	18.124006	-0.406633	0.270241	2.381680	0.000000	0.041665	0.000000	0.013846	0.000409	0.000000	0.000000
27.193234	15.162780	17.692673	-0.831598	0.704008	2.414801	0.000000	0.109805	0.000000	0.014105	0.000769	0.000000	0.000000
27.634194	16.097177	16.891437	-1.294587	1.105732	2.478065	0.000000	0.179188	0.000000	0.014525	0.001138	0.000000	0.000000
28.075154	17.464545	15.756758	-1.816771	1.457128	2.572191	0.000000	0.250601	0.000000	0.015111	0.001520	0.000000	0.000000
28.521114	19.351550	14.322949	-2.427282	1.743419	2.699854	0.000000	0.325339	0.000000	0.015878	0.001922	0.000000	0.000000
29.070174	21.751469	12.726076	-1.915779	1.181445	2.855311	0.000000	0.243148	0.000000	0.016790	0.001393	0.000000	0.000000
29.619234	23.511260	11.696866	-1.268827	0.703658	2.964671	0.000000	0.156664	0.000000	0.017404	0.000839	0.000000	0.000000
30.168294	24.506467	11.161992	-0.532165	0.276013	3.026000	0.000000	0.067413	0.000000	0.017709	0.000270	0.000000	0.000000
30.717354	24.666701	11.083345	0.242121	-0.131964	3.038215	0.000000	-0.023029	0.000000	0.017700	-0.000304	0.000000	0.000000
31.015927	24.558142	11.155747	0.175152	-0.134701	3.033405	0.000000	-0.016324	0.000000	0.017622	-0.000261	0.000000	0.000000
31.349260	24.446037	11.255689	0.161163	-0.165123	3.028051	0.000000	-0.016324	0.000000	0.017534	-0.000261	0.000000	0.000000
31.682593	24.343258	11.375912	0.147173	-0.195546	3.022697	0.000000	-0.016324	0.000000	0.017447	-0.000261	0.000000	0.000000
32.017177	24.249473	11.516981	0.133131	-0.226082	3.017322	0.000000	-0.016324	0.000000	0.017360	-0.000261	0.000000	0.000000
32.314499	24.174230	11.659386	0.067054	-0.227405	3.012560	0.000000	-0.009645	0.000000	0.017282	-0.000219	0.000000	0.000000
32.863559	23.686523	12.147210	0.815385	-0.666094	2.982952	0.000000	-0.098972	0.000000	0.017009	-0.000775	0.000000	0.000000
33.412619	22.403625	13.139965	1.506062	-1.152249	2.904984	0.000000	-0.186556	0.000000	0.016434	-0.001317	0.000000	0.000000
33.961679	20.416271	14.708382	2.090253	-1.720508	2.780030	0.000000	-0.270850	0.000000	0.015567	-0.001836	0.000000	0.000000
34.510739	17.865011	16.964196	2.526662	-2.411361	2.610299	0.000000	-0.350368	0.000000	0.014424	-0.002322	0.000000	0.000000
34.956699	15.882840	18.982442	1.931752	-2.094242	2.471118	0.000000	-0.278115	0.000000	0.013469	-0.001960	0.000000	0.000000
35.397659	14.405249	20.654679	1.430402	-1.682877	2.364457	0.000000	-0.209475	0.000000	0.012680	-0.001622	0.000000	0.000000
35.838619	13.339582	21.928747	0.994453	-1.194919	2.287381	0.000000	-0.143204	0.000000	0.012036	-0.001304	0.000000	0.000000
36.279579	12.637098	22.746671	0.603973	-0.652579	2.239017	0.000000	-0.078551	0.000000	0.011528	-0.001000	0.000000	0.000000
36.721789	12.265041	23.071479	0.267812	-0.130806	2.218800	0.000000	-0.019632	0.000000	0.011151	-0.000734	0.000000	0.000000
37.019112	12.113513	23.153159	0.241832	-0.143914	2.213181	0.000000	-0.019632	0.000000	0.010933	-0.000734	0.000000	0.000000
37.352445	11.962000	23.254000	0.212705	-0.158609	2.206881	0.000000	-0.019632	0.000000	0.010688	-0.000734	0.000000	0.000000
37.685779	11.829906	23.364638	0.183578	-0.173304	2.200581	0.000000	-0.019632	0.000000	0.010444	-0.000734	0.000000	0.000000
38.020362	11.716844	23.485543	0.154342	-0.188054	2.194258	0.000000	-0.019632	0.000000	0.010198	-0.000734	0.000000	0.000000
38.317684	11.632755	23.601334	0.154129	-0.253685	2.188636	0.000000	-0.024480	0.000000	0.009980	-0.000757	0.000000	0.000000
38.758644	11.645786	23.563597	-0.183997	0.338927	2.191947	0.000000	0.038290	0.000000	0.009703	-0.000503	0.000000	0.000000
39.199604	11.959659	23.007985	-0.530529	0.916111	2.222905	0.000000	0.101503	0.000000	0.009536	-0.000255	0.000000	0.000000
39.640564	12.588720	21.959787	-0.901308	1.451601	2.281865	0.000000	0.165874	0.000000	0.009477	-0.000010	0.000000	0.000000
40.081524	13.561724	20.466709	-1.313282	1.921027	2.369499	0.000000	0.232135	0.000000	0.009527	0.000235	0.000000	0.000000
40.527484	14.940763	18.573988	-1.789269	2.304552	2.488287	0.000000	0.301472	0.000000	0.009687	0.000484	0.000000	0.000000
41.076544	16.703085	16.446901	-1.400839	1.591830	2.633244	0.000000	0.226327	0.000000	0.009866	0.000167	0.000000	0.000000
41.625604	17.981502	15.036067	-0.913416	0.992521	2.735942	0.000000	0.147169	0.000000	0.009870	-0.000152	0.000000	0.000000
42.174664	18.685658	14.240971	-0.361450	0.463928	2.794556	0.000000	0.065398	0.000000	0.009700	-0.000469	0.000000	0.000000
42.723724	18.765794	14.004963	0.216049	-0.031609	2.808045	0.000000	-0.017542	0.000000	0.009356	-0.000778	0.000000	0.000000
43.022297	18.668546	14.010050	0.154585	-0.019117	2.805044	0.000000	-0.010795	0.000000	0.009131	-0.000755	0.000000	0.000000
43.502297	18.532781	14.044853	0.128259	-0.053391	2.800225	0.000000	-0.010795	0.000000	0.008769	-0.000755	0.000000	0.000000
43.982297	18.422288	14.112560	0.101933	-0.087664	2.795405	0.000000	-0.010795	0.000000	0.008407	-0.000755	0.000000	0.000000
44.462297	18.337069	14.213169	0.075607	-0.121938	2.790586	0.000000	-0.010795	0.000000	0.008044	-0.000755	0.000000	0.000000
44.942297	18.277123	14.346681	0.049281	-0.156212	2.785767	0.000000	-0.010795	0.000000	0.007682	-0.000755	0.000000	0.000000
45.423547	18.242619	14.513392	-0.067498	-0.118666	2.780952	0.000000	0.002984	0.000000	0.007319	-0.000718	0.000000	0.000000
45.720870	18.287651	14.590111	-0.128757	-0.103780	2.782055	0.000000	0.009812	0.000000	0.007105	-0.000700	0.000000	0.000000
46.269930	18.120784	14.986304	0.430419	-0.621991	2.765323	0.000000	-0.072226	0.000000	0.006659	-0.000923	0.000000	0.000000
46.818990	17.352915	15.972450	0.959166	-1.184510	2.703939	0.000000	-0.152998	0.000000	0.006094	-0.001130	0.000000	0.000000
47.368050	16.038326	17.618789	1.420125	-1.831409	2.598984	0.000000	-0.231073	0.000000	0.005421	-0.001317	0.000000	0.000000
47.917110	14.269931	20.042581	1.780728	-2.608767	2.452310	0.000000	-0.305072	0.000000	0.004652	-0.001480	0.000000	0.000000
48.363070	12.892891	22.197335	1.317274	-2.202373	2.332170	0.000000	-0.236714	0.000000	0.004018	-0.001367	0.000000	0.000000
48.804030	11.910756	23.923538	0.917851	-1.697166	2.242820	0.000000	-0.171449	0.000000	0.003437	-0.001271	0.000000	0.000000
49.244990	11.261171	25.168268	0.560377	-1.114736	2.181760	0.000000	-0.108123	0.000000	0.002895	-0.001190	0.000000	0.000000
49.685950	10.914441	25.874899	0.228518	-0.481586	2.148299	0.000000	-0.046016	0.000000	0.002385	-0.001122	0.000000	0.000000
50.128160	10.854879	26.011007	-0.066872	0.111184	2.142076	0.000000	0.010421	0.000000	0.001902	-0.001071	0.000000	0.000000
50.425482	10.902824	25.948333	-0.094385	0.099612	2.145493	0.000000	0.010421	0.000000	0.001584	-0.001071	0.000000	0.000000
50.758816	10.976030	25.886249	-0.125230	0.086638	2.149323	0.000000	0.010421	0.000000	0.001227	-0.001071	0.000000	0.000000
51.092149	11.069799	25.832815	-0.156076	0.073665	2.153154	0.000000	0.010421	0.000000	0.000870	-0.001071	0.000000	0.000000
51.426732	11.184372	25.788401	-0.096302	-0.148565	2.156977	0.000000	-0.007078	0.000000	0.000511	-0.001075	0.000000	0.000000
51.724055	11.249615	25.880248	-0.095595	-0.224097	2.155192	0.000000	-0.012353	0.000000	0.000192	-0.001076	0.000000	0.000000
52.165015	11.480409	25.789860	-0.430128	0.428297	2.163858	0.000000	0.049608	0.000000	-0.000282	-0.001077	0.000000	0.000000
52.605975	12.013738	25.130548	-0.784303	1.061200	2.199949	0.000000	0.112146	0.000000	-0.000760	-0.001090	0.000000	0.000000
53.046935	12.873958	23.932319	-1.174302	1.645816	2.263882	0.000000	0.175973	0.000000	-0.001246	-0.001116	0.000000	0.000000
53.487895	14.100356	22.249702	-1.617940	2.155547	2.356390	0.000000	0.241816	0.000000	-0.001746	-0.001155	0.000000	0.000000
53.933855	15.769919	20.134093	-2.139731	2.568502	2.480059	0.000000	0.310820	0.000000	-0.002272	-0.001207	0.000000	0.000000
54.482915	17.919022	17.753212	-1.751950	1.793536	2.630977	0.000000	0.235877	0.000000	-0.002912	-0.001123	0.000000	0.000000
55.031975	19.571425	16.148601	-1.240456	1.146316	2.739482	0.000000	0.156732	0.000000	-0.003501	-0.001019	0.000000	0.000000
55.581035	20.610457	15.205956	-0.641376	0.580742	2.803639	0.000000	0.074791	0.000000	-0.004028	-0.000897	0.000000	0.000000
56.130095	20.962769	14.858128	0.002981	0.056533	2.822303	0.000000	-0.008491	0.000000	-0.004483	-0.000759	0.000000	0.000000
56.428668	20.999163	14.806297	-0.068111	0.076671	2.822281	0.000000	-0.000843	0.000000	-0.004713	-0.000771	0.000000	0.000000
56.762001	21.049886	14.762731	-0.084058	0.054026	2.822257	0.000000	-0.000843	0.000000	-0.004970	-0.000771	0.000000	0.000000
57.095334	21.111241	14.734262	-0.100005	0.031381	2.822233	0.000000	-0.000843	0.000000	-0.005227	-0.000771	0.000000	0.000000
57.429918	21.183516	14.720869	-0.116012	0.008650	2.822209	0.000000	-0.000843	0.000000	-0.005485	-0.000771	0.000000	0.000000
57.727240	21.256752	14.721716	-0.188393	0.028567	2.822189	0.000000	0.006879	0.000000	-0.005715	-0.000786	0.000000	0.000000
58.276300	21.100264	14.972693	0.471322	-0.488407	2.803444	0.000000	-0.076395	0.000000	-0.006094	-0.000595	0.000000	0.000000
58.825360	20.233541	15.806971	1.097741	-1.040161	2.739179	0.000000	-0.158323	0.000000	-0.006366	-0.000393	0.000000	0.000000
59.374420	18.717794	17.283956	1.646634	-1.665988	2.630530	0.000000	-0.237450	0.000000	-0.006525	-0.000184	0.000000	0.000000
59.923480	16.660055	19.508829	2.079245	-2.410457	2.479421	0.000000	-0.312369	0.000000	-0.006568	0.000028	0.000000	0.000000
60.369440	15.048088	21.486194	1.548282	-2.004977	2.355590	0.000000	-0.243407	0.000000	-0.006593	-0.000143	0.000000	0.000000
60.810400	13.888224	23.041717	1.092164	-1.509518	2.262961	0.000000	-0.177597	0.000000	-0.006694	-0.000314	0.000000	0.000000
61.251360	13.107125	24.128262	0.685933	-0.945390	2.198951	0.000000	-0.113806	0.000000	-0.006871	-0.000489	0.000000	0.000000
61.692320	12.669113	24.696405	0.311035	-0.338258	2.162832	0.000000	-0.051305	0.000000	-0.007126	-0.000669	0.000000	0.000000
62.134530	12.554243	24.719715	-0.016833	0.219698	2.154205	0.000000	0.004969	0.000000	-0.007463	-0.000838	0.000000	0.000000
62.431853	12.571296	24.592822	-0.040523	0.207089	2.155932	0.000000	0.004969	0.000000	-0.007713	-0.000838	0.000000	0.000000
62.765186	12.607164	24.459474	-0.067082	0.192954	2.157868	0.000000	0.004969	0.000000	-0.007992	-0.000838	0.000000	0.000000
63.098520	12.660739	24.335549	-0.093641	0.178819	2.159804	0.000000	0.004969	0.000000	-0.008272	-0.000838	0.000000	0.000000
63.433103	12.732320	24.220637	-0.120299	0.164630	2.161747	0.000000	0.004969	0.000000	-0.008552	-0.000838	0.000000	0.000000
63.730426	12.810869	24.126544	-0.110022	0.087761	2.163471	0.000000	-0.000767	0.000000	-0.008801	-0.000816	0.000000	0.000000
64.171386	13.070155	23.783468	-0.480630	0.687400	2.177236	0.000000	0.061459	0.000000	-0.009212	-0.001048	0.000000	0.000000
64.612346	13.664601	22.923452	-0.873180	1.255767	2.218668	0.000000	0.124396	0.000000	-0.009727	-0.001292	0.000000	0.000000
65.053306	14.621339	21.585629	-1.305595	1.767010	2.288244	0.000000	0.188764	0.000000	-0.010354	-0.001551	0.000000	0.000000
65.494266	15.984036	19.830864	-1.797619	2.197873	2.386761	0.000000	0.255297	0.000000	-0.011098	-0.001828	0.000000	0.000000
65.940226	17.838282	17.714038	-2.376144	2.529285	2.516959	0.000000	0.325122	0.000000	-0.011979	-0.002127	0.000000	0.000000
66.489286	20.212538	15.346126	-1.924282	1.809593	2.675765	0.000000	0.248881	0.000000	-0.013036	-0.001721	0.000000	0.000000
67.038346	22.012776	13.693450	-1.336608	1.218756	2.791209	0.000000	0.168199	0.000000	-0.013863	-0.001286	0.000000	0.000000
67.587406	23.111982	12.638307	-0.654606	0.714699	2.861233	0.000000	0.084514	0.000000	-0.014444	-0.000827	0.000000	0.000000
68.136466	23.432611	12.105553	0.073586	0.261531	2.884589	0.000000	-0.000683	0.000000	-0.014769	-0.000354	0.000000	0.000000
68.435038	23.433234	11.936303	-0.007665	0.270142	2.887011	0.000000	0.007751	0.000000	-0.014887	-0.000395	0.000000	0.000000
68.768372	23.443086	11.766196	-0.021891	0.240178	2.889727	0.000000	0.007751	0.000000	-0.015018	-0.000395	0.000000	0.000000
69.101705	23.462421	11.616066	-0.036116	0.210214	2.892442	0.000000	0.007751	0.000000	-0.015150	-0.000395	0.000000	0.000000
69.436288	23.491366	11.485460	-0.050395	0.180138	2.895168	0.000000	0.007751	0.000000	-0.015282	-0.000395	0.000000	0.000000
69.733611	23.525270	11.386209	-0.132154	0.186775	2.897600	0.000000	0.016258	0.000000	-0.015400	-0.000438	0.000000	0.000000
70.282671	23.266380	11.408941	0.600858	-0.228429	2.883064	0.000000	-0.069501	0.000000	-0.015503	0.000063	0.000000	0.000000
