#ParticleID	Turn	x[m]	xp	y[m]	yp	z[m]	dE[GeV]# s	beta_x	beta_y	alpha_x	alpha_y	D_x	D_y	D_px	D_py	orbit_x	orbit_px	orbit_y	orbit_py
0.300000	11.940909	25.280031	-0.019910	-0.022181	2.602299	0.000000	0.000647	0.000000	-0.000660	0.000577	0.000000	0.000000
0.601250	11.960507	25.296987	-0.045148	-0.034104	2.602320	0.000000	0.000647	0.000000	-0.000486	0.000577	0.000000	0.000000
0.898573	11.994761	25.320765	-0.040555	-0.107940	2.602341	0.000000	-0.005754	0.000000	-0.000314	0.000578	0.000000	0.000000
1.339533	12.184186	25.134958	-0.390452	0.527707	2.615763	0.000000	0.067796	0.000000	-0.000061	0.000573	0.000000	0.000000
1.780493	12.688868	24.397045	-0.758192	1.139347	2.661757	0.000000	0.142112	0.000000	0.000192	0.000575	0.000000	0.000000
2.221453	13.531869	23.140595	-1.160576	1.699148	2.740843	0.000000	0.218040	0.000000	0.000447	0.000583	0.000000	0.000000
2.662413	14.751712	21.422771	-1.615990	2.181641	2.853920	0.000000	0.296445	0.000000	0.000707	0.000598	0.000000	0.000000
3.108373	16.425199	19.296559	-2.149604	2.566031	3.004126	0.000000	0.378711	0.000000	0.000978	0.000620	0.000000	0.000000
3.657433	18.570542	16.908172	-1.734201	1.809530	3.186637	0.000000	0.286263	0.000000	0.001309	0.000583	0.000000	0.000000
4.206493	20.189341	15.275291	-1.196284	1.181919	3.316943	0.000000	0.188746	0.000000	0.001616	0.000535	0.000000	0.000000
4.755553	21.167230	14.281615	-0.573851	0.638496	3.392736	0.000000	0.087890	0.000000	0.001895	0.000478	0.000000	0.000000
5.304613	21.435114	13.856369	0.089130	0.140551	3.412675	0.000000	-0.014518	0.000000	0.002140	0.000413	0.000000	0.000000
5.603185	21.418892	13.757894	0.020188	0.153805	3.410830	0.000000	-0.005762	0.000000	0.002265	0.000418	0.000000	0.000000
5.936519	21.410623	13.663625	0.004619	0.129003	3.408769	0.000000	-0.005762	0.000000	0.002404	0.000418	0.000000	0.000000
6.269852	21.412733	13.585890	-0.010950	0.104202	3.406709	0.000000	-0.005762	0.000000	0.002544	0.000418	0.000000	0.000000
6.604435	21.425289	13.524491	-0.026577	0.079307	3.404641	0.000000	-0.005762	0.000000	0.002684	0.000418	0.000000	0.000000
6.901758	21.445227	13.483905	-0.095168	0.091663	3.402804	0.000000	0.002918	0.000000	0.002808	0.000426	0.000000	0.000000
7.450818	21.183989	13.644860	0.568355	-0.386528	3.376171	0.000000	-0.099064	0.000000	0.003016	0.000331	0.000000	0.000000
7.999878	20.211888	14.342898	1.191734	-0.892253	3.293993	0.000000	-0.199283	0.000000	0.003171	0.000231	0.000000	0.000000
8.548938	18.597595	15.627746	1.730928	-1.461539	3.157733	0.000000	-0.295964	0.000000	0.003269	0.000127	0.000000	0.000000
9.097998	16.455152	17.590932	2.147844	-2.134938	2.969807	0.000000	-0.387392	0.000000	0.003310	0.000020	0.000000	0.000000
9.543958	14.783492	19.340043	1.613813	-1.770438	2.815235	0.000000	-0.306058	0.000000	0.003338	0.000106	0.000000	0.000000
9.984918	13.565849	20.711040	1.157936	-1.326700	2.697373	0.000000	-0.228704	0.000000	0.003404	0.000193	0.000000	0.000000
10.425878	12.725521	21.662460	0.754968	-0.822593	2.612979	0.000000	-0.153958	0.000000	0.003509	0.000282	0.000000	0.000000
10.866838	12.224110	22.151007	0.386495	-0.281053	2.561090	0.000000	-0.080968	0.000000	0.003653	0.000375	0.000000	0.000000
11.309048	12.038550	22.153888	0.064017	0.220733	2.541095	0.000000	-0.014908	0.000000	0.003840	0.000462	0.000000	0.000000
11.606371	12.007856	22.026815	0.039218	0.206658	2.536525	0.000000	-0.014908	0.000000	0.003978	0.000462	0.000000	0.000000
12.086371	11.989424	21.839329	-0.000817	0.183936	2.529147	0.000000	-0.014908	0.000000	0.004200	0.000462	0.000000	0.000000
12.566371	12.009425	21.673657	-0.040853	0.161214	2.521769	0.000000	-0.014908	0.000000	0.004421	0.000462	0.000000	0.000000
13.046371	12.067861	21.529799	-0.080888	0.138492	2.514392	0.000000	-0.014908	0.000000	0.004643	0.000462	0.000000	0.000000
13.526371	12.164731	21.407754	-0.120923	0.115769	2.507014	0.000000	-0.014908	0.000000	0.004865	0.000462	0.000000	0.000000
14.007621	12.300436	21.307289	-0.161063	0.092988	2.499617	0.000000	-0.014908	0.000000	0.005087	0.000462	0.000000	0.000000
14.304943	12.403575	21.256196	-0.156968	0.029532	2.495046	0.000000	-0.020720	0.000000	0.005225	0.000450	0.000000	0.000000
14.745903	12.700983	20.997648	-0.519810	0.554523	2.501272	0.000000	0.049981	0.000000	0.005453	0.000587	0.000000	0.000000
15.186863	13.327670	20.285462	-0.906410	1.054281	2.538711	0.000000	0.121245	0.000000	0.005744	0.000732	0.000000	0.000000
15.627823	14.312283	19.152043	-1.334438	1.506065	2.607788	0.000000	0.193883	0.000000	0.006100	0.000884	0.000000	0.000000
16.068783	15.699833	17.648960	-1.823457	1.889314	2.709286	0.000000	0.268720	0.000000	0.006525	0.001047	0.000000	0.000000
16.514743	17.577367	15.823071	-2.400710	2.187455	2.846057	0.000000	0.347092	0.000000	0.007031	0.001223	0.000000	0.000000
17.063803	19.987938	13.785004	-1.962594	1.545986	3.012405	0.000000	0.260009	0.000000	0.007638	0.000985	0.000000	0.000000
17.612863	21.837844	12.387153	-1.385785	1.014654	3.129732	0.000000	0.168330	0.000000	0.008110	0.000730	0.000000	0.000000
18.161923	22.996335	11.529943	-0.711041	0.555608	3.195962	0.000000	0.073676	0.000000	0.008438	0.000462	0.000000	0.000000
18.710983	23.381522	11.152313	0.013956	0.136144	3.209925	0.000000	-0.022278	0.000000	0.008616	0.000186	0.000000	0.000000
19.009556	23.410745	11.063148	-0.055419	0.135617	3.205527	0.000000	-0.014510	0.000000	0.008678	0.000207	0.000000	0.000000
19.342889	23.452451	10.982965	-0.069701	0.104933	3.200621	0.000000	-0.014510	0.000000	0.008747	0.000207	0.000000	0.000000
19.676223	23.503679	10.923238	-0.083983	0.074249	3.195716	0.000000	-0.014510	0.000000	0.008816	0.000207	0.000000	0.000000
20.010806	23.564966	10.883723	-0.215073	0.097374	3.190811	0.000000	0.001299	0.000000	0.008885	0.000251	0.000000	0.000000
20.308129	23.696839	10.833994	-0.285428	0.095972	3.191126	0.000000	0.008996	0.000000	0.008960	0.000274	0.000000	0.000000
20.857189	23.601721	10.948570	0.457704	-0.305853	3.169821	0.000000	-0.086231	0.000000	0.009030	-0.000018	0.000000	0.000000
21.406249	22.703347	11.513760	1.168494	-0.729469	3.096721	0.000000	-0.179928	0.000000	0.008941	-0.000309	0.000000	0.000000
21.955309	21.065211	12.569828	1.796708	-1.205055	2.973122	0.000000	-0.270438	0.000000	0.008692	-0.000595	0.000000	0.000000
22.504369	18.803098	14.192007	2.297953	-1.766493	2.801214	0.000000	-0.356160	0.000000	0.008290	-0.000870	0.000000	0.000000
22.950329	17.022053	15.649240	1.708987	-1.486951	2.659972	0.000000	-0.279002	0.000000	0.007949	-0.000659	0.000000	0.000000
23.391289	15.742575	16.812499	1.203012	-1.140729	2.553475	0.000000	-0.205497	0.000000	0.007703	-0.000457	0.000000	0.000000
23.832249	14.883579	17.646233	0.752023	-0.742595	2.478766	0.000000	-0.134329	0.000000	0.007545	-0.000261	0.000000	0.000000
24.273209	14.405798	18.112504	0.335405	-0.310666	2.434993	0.000000	-0.064688	0.000000	0.007473	-0.000067	0.000000	0.000000
24.715418	14.287499	18.189827	-0.033462	0.093911	2.421659	0.000000	-0.001294	0.000000	0.007486	0.000108	0.000000	0.000000
25.012741	14.313591	18.138886	-0.054295	0.077421	2.421242	0.000000	-0.001294	0.000000	0.007518	0.000108	0.000000	0.000000
25.346075	14.357573	18.093435	-0.077652	0.058934	2.420775	0.000000	-0.001294	0.000000	0.007554	0.000108	0.000000	0.000000
25.679408	14.417127	18.060307	-0.101008	0.040447	2.420308	0.000000	-0.001294	0.000000	0.007590	0.000108	0.000000	0.000000
26.013991	14.492268	18.039816	-0.006882	-0.124457	2.419814	0.000000	-0.020925	0.000000	0.007626	0.000046	0.000000	0.000000
26.311314	14.502436	18.118831	0.005545	-0.182345	2.413577	0.000000	-0.026408	0.000000	0.007640	0.000028	0.000000	0.000000
26.752274	14.676691	18.083346	-0.402122	0.262503	2.416993	0.000000	0.042161	0.000000	0.007696	0.000226	0.000000	0.000000
27.193234	15.217270	17.659286	-0.828169	0.695405	2.450641	0.000000	0.111207	0.000000	0.007839	0.000426	0.000000	0.000000
27.634194	16.148886	16.865947	-1.292070	1.096661	2.514902	0.000000	0.181516	0.000000	0.008072	0.000631	0.000000	0.000000
28.075154	17.514130	15.739429	-1.815029	1.448010	2.610507	0.000000	0.253886	0.000000	0.008397	0.000844	0.000000	0.000000
28.521114	19.399289	14.313924	-2.426046	1.734534	2.740158	0.000000	0.329612	0.000000	0.008823	0.001067	0.000000	0.000000
29.070174	21.796244	12.726300	-1.912555	1.173692	2.897975	0.000000	0.246096	0.000000	0.009329	0.000773	0.000000	0.000000
29.619234	23.551158	11.705357	-1.263899	0.696469	3.008826	0.000000	0.158226	0.000000	0.009669	0.000465	0.000000	0.000000
30.168294	24.539985	11.178368	-0.525920	0.268866	3.070749	0.000000	0.067557	0.000000	0.009838	0.000149	0.000000	0.000000
30.717354	24.692828	11.107790	0.249227	-0.139581	3.082646	0.000000	-0.024309	0.000000	0.009832	-0.000170	0.000000	0.000000
31.015927	24.582943	11.183417	0.177636	-0.140207	3.077629	0.000000	-0.016936	0.000000	0.009789	-0.000145	0.000000	0.000000
31.349260	24.469181	11.287020	0.163648	-0.170599	3.072032	0.000000	-0.016936	0.000000	0.009740	-0.000145	0.000000	0.000000
31.682593	24.364745	11.410883	0.149661	-0.200991	3.066435	0.000000	-0.016936	0.000000	0.009692	-0.000145	0.000000	0.000000
32.017177	24.269294	11.555587	0.135621	-0.231497	3.060817	0.000000	-0.016936	0.000000	0.009644	-0.000145	0.000000	0.000000
32.314499	24.192423	11.701274	0.065148	-0.230575	3.055829	0.000000	-0.009610	0.000000	0.009600	-0.000121	0.000000	0.000000
32.863559	23.706676	12.193227	0.813991	-0.670584	3.025749	0.000000	-0.100311	0.000000	0.009449	-0.000430	0.000000	0.000000
33.412619	22.425276	13.191671	1.505304	-1.158369	2.946436	0.000000	-0.189240	0.000000	0.009130	-0.000731	0.000000	0.000000
33.961679	20.438800	14.767730	2.090232	-1.728680	2.819295	0.000000	-0.274823	0.000000	0.008649	-0.001019	0.000000	0.000000
34.510739	17.887659	17.033677	2.527440	-2.422146	2.646574	0.000000	-0.355546	0.000000	0.008014	-0.001289	0.000000	0.000000
34.956699	15.905407	19.060775	1.932288	-2.103832	2.504895	0.000000	-0.282411	0.000000	0.007485	-0.001088	0.000000	0.000000
35.397659	14.427787	20.740574	1.430561	-1.690687	2.396196	0.000000	-0.212935	0.000000	0.007047	-0.000900	0.000000	0.000000
35.838619	13.362350	22.020515	0.994221	-1.200605	2.317498	0.000000	-0.145876	0.000000	0.006689	-0.000723	0.000000	0.000000
36.279579	12.660389	22.842359	0.603324	-0.655888	2.267908	0.000000	-0.080470	0.000000	0.006407	-0.000555	0.000000	0.000000
36.721789	12.289158	23.169022	0.268236	-0.134684	2.246839	0.000000	-0.021157	0.000000	0.006198	-0.000407	0.000000	0.000000
37.019112	12.137364	23.252996	0.242301	-0.147750	2.240669	0.000000	-0.021157	0.000000	0.006077	-0.000407	0.000000	0.000000
37.352445	11.985522	23.356379	0.213225	-0.162398	2.233752	0.000000	-0.021157	0.000000	0.005942	-0.000407	0.000000	0.000000
37.685779	11.853063	23.469527	0.184149	-0.177046	2.226835	0.000000	-0.021157	0.000000	0.005806	-0.000407	0.000000	0.000000
38.020362	11.739601	23.592920	0.154965	-0.191749	2.219892	0.000000	-0.021157	0.000000	0.005670	-0.000407	0.000000	0.000000
38.317684	11.655153	23.710848	0.156091	-0.260006	2.213722	0.000000	-0.026297	0.000000	0.005549	-0.000420	0.000000	0.000000
38.758644	11.666696	23.677403	-0.182481	0.335558	2.216251	0.000000	0.037103	0.000000	0.005395	-0.000279	0.000000	0.000000
39.199604	11.979409	23.123431	-0.529390	0.915851	2.246747	0.000000	0.100929	0.000000	0.005302	-0.000141	0.000000	0.000000
39.640564	12.607582	22.074143	-0.900490	1.454467	2.305559	0.000000	0.165906	0.000000	0.005270	-0.000005	0.000000	0.000000
40.081524	13.579923	20.577287	-1.312741	1.926896	2.393355	0.000000	0.232773	0.000000	0.005298	0.000131	0.000000	0.000000
40.527484	14.958405	18.678274	-1.788886	2.313075	2.512621	0.000000	0.302714	0.000000	0.005388	0.000270	0.000000	0.000000
41.076544	16.719760	16.543745	-1.399737	1.597178	2.658113	0.000000	0.226782	0.000000	0.005488	0.000094	0.000000	0.000000
41.625604	17.996535	15.128693	-0.911693	0.995061	2.760837	0.000000	0.146829	0.000000	0.005491	-0.000084	0.000000	0.000000
42.174664	18.698513	14.332313	-0.359238	0.463832	2.818971	0.000000	0.064269	0.000000	0.005396	-0.000260	0.000000	0.000000
42.723724	18.776099	14.097870	0.218593	-0.034354	2.831481	0.000000	-0.019434	0.000000	0.005205	-0.000432	0.000000	0.000000
43.022297	18.678439	14.103643	0.155334	-0.020238	2.827914	0.000000	-0.012364	0.000000	0.005080	-0.000419	0.000000	0.000000
43.502297	18.541950	14.139414	0.129016	-0.054286	2.822180	0.000000	-0.012364	0.000000	0.004879	-0.000419	0.000000	0.000000
43.982297	18.430727	14.207872	0.102698	-0.088334	2.816447	0.000000	-0.012364	0.000000	0.004678	-0.000419	0.000000	0.000000
44.462297	18.344770	14.309015	0.076380	-0.122381	2.810713	0.000000	-0.012364	0.000000	0.004477	-0.000419	0.000000	0.000000
44.942297	18.284078	14.442844	0.050062	-0.156429	2.804980	0.000000	-0.012364	0.000000	0.004276	-0.000419	0.000000	0.000000
45.423547	18.248818	14.609654	-0.066740	-0.118180	2.799249	0.000000	0.001505	0.000000	0.004075	-0.000399	0.000000	0.000000
45.720870	18.293378	14.686057	-0.129302	-0.101811	2.799815	0.000000	0.008576	0.000000	0.003956	-0.000388	0.000000	0.000000
46.269930	18.127136	15.081595	0.430034	-0.622792	2.782062	0.000000	-0.074013	0.000000	0.003708	-0.000513	0.000000	0.000000
46.818990	17.359743	16.070119	0.958980	-1.188137	2.719314	0.000000	-0.155298	0.000000	0.003395	-0.000628	0.000000	0.000000
47.368050	16.045428	17.722037	1.420167	-1.838114	2.612683	0.000000	-0.233838	0.000000	0.003021	-0.000732	0.000000	0.000000
47.917110	14.277059	20.155009	1.781016	-2.619024	2.464053	0.000000	-0.308242	0.000000	0.002594	-0.000823	0.000000	0.000000
48.363070	12.899957	22.317615	1.317466	-2.209778	2.342293	0.000000	-0.239609	0.000000	0.002241	-0.000760	0.000000	0.000000
48.804030	11.917827	24.048902	0.917913	-1.701343	2.251474	0.000000	-0.174104	0.000000	0.001918	-0.000706	0.000000	0.000000
49.244990	11.268339	25.295793	0.560305	-1.115497	2.189057	0.000000	-0.110574	0.000000	0.001617	-0.000661	0.000000	0.000000
49.685950	10.921812	26.001557	0.228303	-0.478896	2.154336	0.000000	-0.048297	0.000000	0.001334	-0.000623	0.000000	0.000000
50.128160	10.862574	26.133798	-0.067011	0.116223	2.146927	0.000000	0.008226	0.000000	0.001066	-0.000594	0.000000	0.000000
50.425482	10.910596	26.068115	-0.094505	0.104692	2.149550	0.000000	0.008226	0.000000	0.000889	-0.000594	0.000000	0.000000
50.758816	10.983874	26.002629	-0.125329	0.091765	2.152490	0.000000	0.008226	0.000000	0.000691	-0.000594	0.000000	0.000000
51.092149	11.077702	25.945761	-0.156153	0.078838	2.155430	0.000000	0.008226	0.000000	0.000493	-0.000594	0.000000	0.000000
51.426732	11.192320	25.897872	-0.096294	-0.144234	2.158359	0.000000	-0.009284	0.000000	0.000294	-0.000597	0.000000	0.000000
51.724055	11.257552	25.987124	-0.095529	-0.219833	2.155776	0.000000	-0.014565	0.000000	0.000116	-0.000597	0.000000	0.000000
52.165015	11.488433	25.891742	-0.430238	0.435316	2.163262	0.000000	0.047396	0.000000	-0.000147	-0.000597	0.000000	0.000000
52.605975	12.022013	25.225134	-0.784600	1.070656	2.198167	0.000000	0.109904	0.000000	-0.000411	-0.000605	0.000000	0.000000
53.046935	12.882664	24.017637	-1.174802	1.657280	2.260890	0.000000	0.173669	0.000000	-0.000681	-0.000619	0.000000	0.000000
53.487895	14.109698	22.324197	-1.618671	2.168499	2.352148	0.000000	0.239420	0.000000	-0.000958	-0.000640	0.000000	0.000000
53.933855	15.780151	20.196563	-2.140757	2.582372	2.474495	0.000000	0.308300	0.000000	-0.001250	-0.000669	0.000000	0.000000
54.482915	17.930363	17.802071	-1.752620	1.804534	2.623811	0.000000	0.233560	0.000000	-0.001605	-0.000622	0.000000	0.000000
55.031975	19.583448	16.186562	-1.240706	1.155226	2.730860	0.000000	0.154667	0.000000	-0.001931	-0.000565	0.000000	0.000000
55.581035	20.622665	15.234960	-0.641173	0.588201	2.793738	0.000000	0.073021	0.000000	-0.002223	-0.000498	0.000000	0.000000
56.130095	20.974634	14.879482	0.003634	0.063072	2.811327	0.000000	-0.009928	0.000000	-0.002476	-0.000422	0.000000	0.000000
56.428668	21.010122	14.824129	-0.066573	0.082562	2.810729	0.000000	-0.002431	0.000000	-0.002604	-0.000428	0.000000	0.000000
56.762001	21.059816	14.776634	-0.082509	0.059923	2.810061	0.000000	-0.002431	0.000000	-0.002746	-0.000428	0.000000	0.000000
57.095334	21.120134	14.744232	-0.098444	0.037284	2.809394	0.000000	-0.002431	0.000000	-0.002889	-0.000428	0.000000	0.000000
57.429918	21.191361	14.726886	-0.114440	0.014559	2.808724	0.000000	-0.002431	0.000000	-0.003032	-0.000428	0.000000	0.000000
57.727240	21.263645	14.724228	-0.185670	0.033757	2.808128	0.000000	0.005099	0.000000	-0.003160	-0.000436	0.000000	0.000000
58.276300	21.104129	14.969508	0.474256	-0.483141	2.788369	0.000000	-0.077709	0.000000	-0.003371	-0.000331	0.000000	0.000000
58.825360	20.234199	15.797824	1.100680	-1.034446	2.723398	0.000000	-0.159144	0.000000	-0.003522	-0.000219	0.000000	0.000000
59.374420	18.715297	17.268167	1.649365	-1.659425	2.614366	0.000000	-0.237761	0.000000	-0.003610	-0.000104	0.000000	0.000000
59.923480	16.654691	19.485255	2.081562	-2.402588	2.463205	0.000000	-0.312162	0.000000	-0.003635	0.000014	0.000000	0.000000
60.369440	15.040742	21.455612	1.550393	-1.997130	2.339363	0.000000	-0.243606	0.000000	-0.003650	-0.000081	0.000000	0.000000
60.810400	13.879010	23.004452	1.094239	-1.502117	2.246509	0.000000	-0.178212	0.000000	-0.003706	-0.000175	0.000000	0.000000
61.251360	13.096057	24.084837	0.688071	-0.938767	2.182056	0.000000	-0.114845	0.000000	-0.003805	-0.000272	0.000000	0.000000
61.692320	12.656117	24.647617	0.313336	-0.332709	2.145271	0.000000	-0.052784	0.000000	-0.003947	-0.000372	0.000000	0.000000
62.134530	12.539138	24.666615	-0.015243	0.225770	2.135743	0.000000	0.003241	0.000000	-0.004134	-0.000466	0.000000	0.000000
62.431853	12.555254	24.536129	-0.038961	0.213102	2.136845	0.000000	0.003241	0.000000	-0.004273	-0.000466	0.000000	0.000000
62.765186	12.590091	24.398795	-0.065550	0.198899	2.138081	0.000000	0.003241	0.000000	-0.004428	-0.000466	0.000000	0.000000
63.098520	12.642654	24.270929	-0.092140	0.184697	2.139317	0.000000	0.003241	0.000000	-0.004583	-0.000466	0.000000	0.000000
63.433103	12.713241	24.152106	-0.118829	0.170441	2.140557	0.000000	0.003241	0.000000	-0.004739	-0.000466	0.000000	0.000000
63.730426	12.790945	24.054537	-0.109752	0.095941	2.141658	0.000000	-0.002250	0.000000	-0.004878	-0.000454	0.000000	0.000000
64.171386	13.049886	23.705122	-0.479931	0.693496	2.154468	0.000000	0.059408	0.000000	-0.005106	-0.000582	0.000000	0.000000
64.612346	13.643640	22.840705	-0.872027	1.259499	2.194646	0.000000	0.121748	0.000000	-0.005392	-0.000718	0.000000	0.000000
65.053306	14.599318	21.500616	-1.303948	1.768203	2.262651	0.000000	0.185483	0.000000	-0.005740	-0.000861	0.000000	0.000000
65.494266	15.960557	19.745827	-1.795420	2.196465	2.359261	0.000000	0.251340	0.000000	-0.006153	-0.001014	0.000000	0.000000
65.940226	17.812798	17.631347	-2.373448	2.525409	2.487157	0.000000	0.320450	0.000000	-0.006642	-0.001180	0.000000	0.000000
66.489286	20.184908	15.266372	-1.922295	1.807754	2.643226	0.000000	0.245204	0.000000	-0.007230	-0.000956	0.000000	0.000000
67.038346	21.983771	13.614515	-1.335422	1.218840	2.756599	0.000000	0.165593	0.000000	-0.007689	-0.000714	0.000000	0.000000
67.587406	23.082402	12.558127	-0.654269	0.716726	2.825258	0.000000	0.083035	0.000000	-0.008011	-0.000460	0.000000	0.000000
68.136466	23.403256	12.021969	0.073073	0.265652	2.847982	0.000000	-0.001004	0.000000	-0.008192	-0.000197	0.000000	0.000000
68.435038	23.402351	11.851402	-0.004941	0.272147	2.850116	0.000000	0.006937	0.000000	-0.008257	-0.000219	0.000000	0.000000
68.768372	23.410393	11.680041	-0.019185	0.241938	2.852501	0.000000	0.006937	0.000000	-0.008330	-0.000219	0.000000	0.000000
69.101705	23.427931	11.528819	-0.033429	0.211729	2.854887	0.000000	0.006937	0.000000	-0.008404	-0.000219	0.000000	0.000000
69.436288	23.455084	11.397282	-0.047726	0.181406	2.857281	0.000000	0.006937	0.000000	-0.008477	-0.000219	0.000000	0.000000
69.733611	23.487292	11.297397	-0.126091	0.186005	2.859412	0.000000	0.014931	0.000000	-0.008542	-0.000242	0.000000	0.000000
70.282671	23.222420	11.319636	0.605636	-0.226753	2.844438	0.000000	-0.069602	0.000000	-0.008599	0.000035	0.000000	0.000000
