#ParticleID	Turn	x[m]	xp	y[m]	yp	z[m]	dE[GeV]# s	beta_x	beta_y	alpha_x	alpha_y	D_x	D_y	D_px	D_py	orbit_x	orbit_px	orbit_y	orbit_py
0.300000	11.951386	25.219080	-0.015112	-0.024482	2.600604	0.000000	-0.001145	0.000000	-0.001201	0.001018	0.000000	0.000000
0.601250	11.968086	25.237431	-0.040324	-0.036434	2.599953	0.000000	-0.001145	0.000000	-0.000894	0.001018	0.000000	0.000000
0.898573	11.999463	25.262605	-0.035617	-0.110160	2.599310	0.000000	-0.007555	0.000000	-0.000591	0.001019	0.000000	0.000000
1.339533	12.184606	25.079425	-0.385494	0.523993	2.611732	0.000000	0.065904	0.000000	-0.000144	0.001010	0.000000	0.000000
1.780493	12.684894	24.345386	-0.752990	1.134309	2.656681	0.000000	0.140102	0.000000	0.000301	0.001012	0.000000	0.000000
2.221453	13.523191	23.093875	-1.154897	1.693017	2.734664	0.000000	0.215885	0.000000	0.000750	0.001025	0.000000	0.000000
2.662413	14.737810	21.381828	-1.609579	2.174697	2.846565	0.000000	0.294116	0.000000	0.001207	0.001051	0.000000	0.000000
3.108373	16.405252	19.262035	-2.142176	2.558608	2.995492	0.000000	0.376177	0.000000	0.001684	0.001088	0.000000	0.000000
3.657433	18.542575	16.880872	-1.726829	1.803667	3.176455	0.000000	0.284030	0.000000	0.002264	0.001024	0.000000	0.000000
4.206493	20.153698	15.253743	-1.189475	1.177199	3.305408	0.000000	0.186861	0.000000	0.002805	0.000942	0.000000	0.000000
4.755553	21.124780	14.264760	-0.568074	0.634583	3.380070	0.000000	0.086392	0.000000	0.003296	0.000843	0.000000	0.000000
5.304613	21.387192	13.843488	0.093477	0.137168	3.399124	0.000000	-0.015595	0.000000	0.003728	0.000729	0.000000	0.000000
5.603185	21.367856	13.747383	0.025376	0.149846	3.396814	0.000000	-0.006994	0.000000	0.003949	0.000739	0.000000	0.000000
5.936519	21.356142	13.655750	0.009766	0.125054	3.394236	0.000000	-0.006994	0.000000	0.004195	0.000739	0.000000	0.000000
6.269852	21.354835	13.580644	-0.005844	0.100263	3.391659	0.000000	-0.006994	0.000000	0.004442	0.000739	0.000000	0.000000
6.604435	21.363988	13.521877	-0.021512	0.075378	3.389071	0.000000	-0.006994	0.000000	0.004689	0.000739	0.000000	0.000000
6.901758	21.380935	13.483619	-0.088970	0.087174	3.386773	0.000000	0.001486	0.000000	0.004909	0.000752	0.000000	0.000000
7.450818	21.114197	13.649553	0.572273	-0.391151	3.359344	0.000000	-0.099970	0.000000	0.005276	0.000587	0.000000	0.000000
7.999878	20.139217	14.352915	1.193097	-0.897342	3.276702	0.000000	-0.199643	0.000000	0.005551	0.000411	0.000000	0.000000
8.548938	18.524871	15.643818	1.729636	-1.467461	3.140317	0.000000	-0.295768	0.000000	0.005727	0.000228	0.000000	0.000000
9.097998	16.385219	17.614226	2.143976	-2.142123	2.952612	0.000000	-0.386643	0.000000	0.005801	0.000042	0.000000	0.000000
9.543958	14.716293	19.369726	1.611407	-1.777363	2.798249	0.000000	-0.305737	0.000000	0.005853	0.000193	0.000000	0.000000
9.984918	13.500125	20.746672	1.156934	-1.333099	2.680379	0.000000	-0.228816	0.000000	0.005971	0.000345	0.000000	0.000000
10.425878	12.660078	21.703429	0.755328	-0.828169	2.595758	0.000000	-0.154506	0.000000	0.006158	0.000502	0.000000	0.000000
10.866838	12.157763	22.196455	0.388237	-0.285550	2.543420	0.000000	-0.081960	0.000000	0.006415	0.000664	0.000000	0.000000
11.309048	11.970078	22.202733	0.066229	0.218831	2.522746	0.000000	-0.016141	0.000000	0.006746	0.000817	0.000000	0.000000
11.606371	11.938113	22.076779	0.041281	0.204798	2.517704	0.000000	-0.016141	0.000000	0.006989	0.000817	0.000000	0.000000
12.086371	11.917816	21.891046	0.001005	0.182144	2.509564	0.000000	-0.016141	0.000000	0.007381	0.000817	0.000000	0.000000
12.566371	11.936183	21.727062	-0.039271	0.159490	2.501424	0.000000	-0.016141	0.000000	0.007773	0.000817	0.000000	0.000000
13.046371	11.993215	21.584826	-0.079547	0.136835	2.493284	0.000000	-0.016141	0.000000	0.008165	0.000817	0.000000	0.000000
13.526371	12.088913	21.464338	-0.119823	0.114181	2.485144	0.000000	-0.016141	0.000000	0.008558	0.000817	0.000000	0.000000
14.007621	12.223675	21.365369	-0.160203	0.091468	2.476982	0.000000	-0.016141	0.000000	0.008951	0.000817	0.000000	0.000000
14.304943	12.326326	21.315204	-0.157617	0.030055	2.471937	0.000000	-0.021663	0.000000	0.009194	0.000796	0.000000	0.000000
14.745903	12.623630	21.055473	-0.518743	0.556637	2.477447	0.000000	0.048440	0.000000	0.009598	0.001038	0.000000	0.000000
15.186863	13.248727	20.340710	-0.903587	1.057888	2.513858	0.000000	0.119085	0.000000	0.010111	0.001292	0.000000	0.000000
15.627823	14.230206	19.203436	-1.329742	1.510997	2.581582	0.000000	0.191072	0.000000	0.010740	0.001561	0.000000	0.000000
16.068783	15.612956	17.695398	-1.816692	1.895339	2.681384	0.000000	0.265220	0.000000	0.011491	0.001847	0.000000	0.000000
16.514743	17.483872	15.863497	-2.391679	2.194419	2.816079	0.000000	0.342865	0.000000	0.012383	0.002157	0.000000	0.000000
17.063803	19.886567	13.818574	-1.956550	1.551282	2.979944	0.000000	0.256778	0.000000	0.013454	0.001739	0.000000	0.000000
17.612863	21.732033	12.415518	-1.383103	1.018673	3.095451	0.000000	0.166162	0.000000	0.014287	0.001289	0.000000	0.000000
18.161923	22.889769	11.554378	-0.711874	0.558648	3.160560	0.000000	0.072619	0.000000	0.014866	0.000817	0.000000	0.000000
18.710983	23.277900	11.173807	0.009690	0.138428	3.174124	0.000000	-0.022200	0.000000	0.015181	0.000330	0.000000	0.000000
19.009556	23.307307	11.084319	-0.055936	0.136268	3.169524	0.000000	-0.015003	0.000000	0.015291	0.000367	0.000000	0.000000
19.342889	23.349380	11.003684	-0.070282	0.105637	3.164401	0.000000	-0.015003	0.000000	0.015413	0.000367	0.000000	0.000000
19.676223	23.401017	10.943469	-0.084629	0.075007	3.159277	0.000000	-0.015003	0.000000	0.015535	0.000367	0.000000	0.000000
20.010806	23.462757	10.903429	-0.215276	0.098283	3.154154	0.000000	0.000624	0.000000	0.015658	0.000444	0.000000	0.000000
20.308129	23.594885	10.853092	-0.281681	0.095276	3.154219	0.000000	0.007729	0.000000	0.015790	0.000483	0.000000	0.000000
20.857189	23.497479	10.968760	0.458147	-0.307138	3.132489	0.000000	-0.086315	0.000000	0.015915	-0.000031	0.000000	0.000000
21.406249	22.600330	11.535783	1.165590	-0.731440	3.059727	0.000000	-0.178827	0.000000	0.015756	-0.000544	0.000000	0.000000
21.955309	20.966875	12.594560	1.790635	-1.207862	2.937223	0.000000	-0.268175	0.000000	0.015319	-0.001048	0.000000	0.000000
22.504369	18.712621	14.220527	2.289093	-1.770350	2.767146	0.000000	-0.352780	0.000000	0.014609	-0.001533	0.000000	0.000000
22.950329	16.938064	15.681051	1.702329	-1.489971	2.627452	0.000000	-0.276456	0.000000	0.014009	-0.001161	0.000000	0.000000
23.391289	15.663341	16.846707	1.198401	-1.142899	2.522069	0.000000	-0.203765	0.000000	0.013575	-0.000806	0.000000	0.000000
23.832249	14.807461	17.682009	0.749264	-0.743808	2.448059	0.000000	-0.133387	0.000000	0.013297	-0.000459	0.000000	0.000000
24.273209	14.331280	18.148942	0.334384	-0.310863	2.404579	0.000000	-0.064524	0.000000	0.013169	-0.000118	0.000000	0.000000
24.715418	14.213181	18.225921	-0.034940	0.097177	2.391140	0.000000	-0.001502	0.000000	0.013193	0.000192	0.000000	0.000000
25.012741	14.240185	18.173031	-0.055884	0.080710	2.390636	0.000000	-0.001502	0.000000	0.013249	0.000192	0.000000	0.000000
25.346075	14.285268	18.125378	-0.079365	0.062248	2.390071	0.000000	-0.001502	0.000000	0.013313	0.000192	0.000000	0.000000
25.679408	14.346005	18.090033	-0.102846	0.043787	2.389507	0.000000	-0.001502	0.000000	0.013377	0.000192	0.000000	0.000000
26.013991	14.422420	18.067299	-0.009411	-0.121315	2.388916	0.000000	-0.020883	0.000000	0.013441	0.000083	0.000000	0.000000
26.311314	14.434069	18.144499	0.000703	-0.176631	2.382676	0.000000	-0.025956	0.000000	0.013466	0.000052	0.000000	0.000000
26.752274	14.611972	18.103664	-0.405507	0.268868	2.386076	0.000000	0.041826	0.000000	0.013565	0.000400	0.000000	0.000000
27.193234	15.155049	17.673772	-0.830259	0.702130	2.419298	0.000000	0.110081	0.000000	0.013819	0.000753	0.000000	0.000000
27.634194	16.088139	16.874387	-1.292972	1.103436	2.482718	0.000000	0.179581	0.000000	0.014231	0.001115	0.000000	0.000000
28.075154	17.453922	15.741886	-1.814806	1.454518	2.577055	0.000000	0.251116	0.000000	0.014804	0.001489	0.000000	0.000000
28.521114	19.338952	14.310518	-2.424864	1.740607	2.704990	0.000000	0.325982	0.000000	0.015556	0.001883	0.000000	0.000000
29.070174	21.736337	12.716423	-1.913653	1.179185	2.860771	0.000000	0.243620	0.000000	0.016449	0.001364	0.000000	0.000000
29.619234	23.494006	11.689472	-1.267145	0.701788	2.970353	0.000000	0.156956	0.000000	0.017050	0.000822	0.000000	0.000000
30.168294	24.487656	11.156502	-0.531048	0.274399	3.031799	0.000000	0.067521	0.000000	0.017349	0.000264	0.000000	0.000000
30.717354	24.647011	11.079540	0.242594	-0.133435	3.044021	0.000000	-0.023109	0.000000	0.017340	-0.000298	0.000000	0.000000
31.015927	24.538283	11.152771	0.175445	-0.136104	3.039198	0.000000	-0.016364	0.000000	0.017263	-0.000256	0.000000	0.000000
31.349260	24.425988	11.253654	0.161442	-0.166546	3.033829	0.000000	-0.016364	0.000000	0.017178	-0.000256	0.000000	0.000000
31.682593	24.323027	11.374832	0.147440	-0.196987	3.028459	0.000000	-0.016364	0.000000	0.017093	-0.000256	0.000000	0.000000
32.017177	24.229068	11.516873	0.133385	-0.227543	3.023070	0.000000	-0.016364	0.000000	0.017007	-0.000256	0.000000	0.000000
32.314499	24.153668	11.660155	0.067139	-0.228783	3.018293	0.000000	-0.009647	0.000000	0.016931	-0.000215	0.000000	0.000000
32.863559	23.666252	12.149536	0.814783	-0.667571	2.988628	0.000000	-0.099158	0.000000	0.016663	-0.000759	0.000000	0.000000
33.412619	22.384389	13.144011	1.504816	-1.153929	2.910497	0.000000	-0.186922	0.000000	0.016099	-0.001290	0.000000	0.000000
33.961679	20.398738	14.714431	2.088454	-1.722511	2.785278	0.000000	-0.271390	0.000000	0.015250	-0.001798	0.000000	0.000000
34.510739	17.849726	16.972676	2.524439	-2.413828	2.615183	0.000000	-0.351072	0.000000	0.014130	-0.002274	0.000000	0.000000
34.956699	15.869342	18.993098	1.930011	-2.096665	2.475697	0.000000	-0.278697	0.000000	0.013195	-0.001920	0.000000	0.000000
35.397659	14.393123	20.667402	1.429050	-1.685137	2.368790	0.000000	-0.209942	0.000000	0.012422	-0.001590	0.000000	0.000000
35.838619	13.328509	21.943349	0.993429	-1.196914	2.291520	0.000000	-0.143563	0.000000	0.011790	-0.001277	0.000000	0.000000
36.279579	12.626809	22.762878	0.603229	-0.654218	2.243011	0.000000	-0.078805	0.000000	0.011293	-0.000980	0.000000	0.000000
36.721789	12.255302	23.088952	0.267360	-0.132186	2.222696	0.000000	-0.019806	0.000000	0.010924	-0.000719	0.000000	0.000000
37.019112	12.104046	23.171452	0.241365	-0.145288	2.217021	0.000000	-0.019806	0.000000	0.010710	-0.000719	0.000000	0.000000
37.352445	11.952851	23.273207	0.212221	-0.159978	2.210659	0.000000	-0.019806	0.000000	0.010470	-0.000719	0.000000	0.000000
37.685779	11.821084	23.384755	0.183078	-0.174667	2.204297	0.000000	-0.019806	0.000000	0.010231	-0.000719	0.000000	0.000000
38.020362	11.708362	23.506570	0.153825	-0.189411	2.197910	0.000000	-0.019806	0.000000	0.009990	-0.000719	0.000000	0.000000
38.317684	11.624586	23.623164	0.153637	-0.255197	2.192232	0.000000	-0.024673	0.000000	0.009777	-0.000742	0.000000	0.000000
38.758644	11.637971	23.586502	-0.184308	0.338012	2.195473	0.000000	0.038189	0.000000	0.009505	-0.000493	0.000000	0.000000
39.199604	11.952045	23.031418	-0.530673	0.915836	2.226404	0.000000	0.101492	0.000000	0.009341	-0.000250	0.000000	0.000000
39.640564	12.581160	21.983178	-0.901291	1.451978	2.285377	0.000000	0.165953	0.000000	0.009283	-0.000010	0.000000	0.000000
40.081524	13.554074	20.489489	-1.313103	1.922039	2.373067	0.000000	0.232306	0.000000	0.009332	0.000230	0.000000	0.000000
40.527484	14.932867	18.595605	-1.788914	2.306153	2.491954	0.000000	0.301735	0.000000	0.009489	0.000474	0.000000	0.000000
41.076544	16.694958	16.467129	-1.400786	1.592783	2.637027	0.000000	0.226470	0.000000	0.009664	0.000164	0.000000	0.000000
41.625604	17.973483	15.055575	-0.913671	0.992894	2.739769	0.000000	0.147189	0.000000	0.009668	-0.000149	0.000000	0.000000
42.174664	18.678080	14.260377	-0.361994	0.463748	2.798357	0.000000	0.065295	0.000000	0.009501	-0.000460	0.000000	0.000000
42.723724	18.758959	14.024876	0.215253	-0.032357	2.811750	0.000000	-0.017766	0.000000	0.009165	-0.000762	0.000000	0.000000
43.022297	18.662229	14.030335	0.153722	-0.019728	2.808683	0.000000	-0.010998	0.000000	0.008944	-0.000739	0.000000	0.000000
43.502297	18.527293	14.065702	0.127394	-0.053953	2.803759	0.000000	-0.010998	0.000000	0.008589	-0.000739	0.000000	0.000000
43.982297	18.417632	14.133925	0.101066	-0.088178	2.798835	0.000000	-0.010998	0.000000	0.008234	-0.000739	0.000000	0.000000
44.462297	18.333246	14.235004	0.074738	-0.122403	2.793912	0.000000	-0.010998	0.000000	0.007879	-0.000739	0.000000	0.000000
44.942297	18.274135	14.368939	0.048409	-0.156628	2.788988	0.000000	-0.010998	0.000000	0.007524	-0.000739	0.000000	0.000000
45.423547	18.240470	14.536026	-0.068361	-0.118921	2.784068	0.000000	0.002796	0.000000	0.007168	-0.000704	0.000000	0.000000
45.720870	18.286016	14.612889	-0.129680	-0.103897	2.785111	0.000000	0.009641	0.000000	0.006959	-0.000686	0.000000	0.000000
46.269930	18.120191	15.009583	0.429464	-0.622795	2.768250	0.000000	-0.072493	0.000000	0.006521	-0.000905	0.000000	0.000000
46.818990	17.353364	15.997012	0.958247	-1.186059	2.706683	0.000000	-0.153356	0.000000	0.005968	-0.001107	0.000000	0.000000
47.368050	16.039743	17.645504	1.419308	-1.833811	2.601494	0.000000	-0.231517	0.000000	0.005309	-0.001290	0.000000	0.000000
47.917110	14.272171	20.072475	1.780072	-2.612195	2.454540	0.000000	-0.305592	0.000000	0.004556	-0.001450	0.000000	0.000000
48.363070	12.895710	22.229979	1.316640	-2.205090	2.334168	0.000000	-0.237180	0.000000	0.003935	-0.001340	0.000000	0.000000
48.804030	11.914142	23.958216	0.917208	-1.699049	2.244613	0.000000	-0.171866	0.000000	0.003365	-0.001245	0.000000	0.000000
49.244990	11.265142	25.204205	0.559696	-1.115700	2.183368	0.000000	-0.108496	0.000000	0.002834	-0.001166	0.000000	0.000000
49.685950	10.919044	25.911262	0.227767	-0.481587	2.149742	0.000000	-0.046350	0.000000	0.002335	-0.001099	0.000000	0.000000
50.128160	10.860193	26.046943	-0.067704	0.112028	2.143369	0.000000	0.010117	0.000000	0.001862	-0.001049	0.000000	0.000000
50.425482	10.908631	25.983762	-0.095207	0.100470	2.146689	0.000000	0.010117	0.000000	0.001550	-0.001049	0.000000	0.000000
50.758816	10.982380	25.921102	-0.126041	0.087512	2.150411	0.000000	0.010117	0.000000	0.001200	-0.001049	0.000000	0.000000
51.092149	11.076685	25.867080	-0.156875	0.074554	2.154133	0.000000	0.010117	0.000000	0.000850	-0.001049	0.000000	0.000000
51.426732	11.191789	25.822066	-0.097029	-0.147934	2.157848	0.000000	-0.007389	0.000000	0.000499	-0.001053	0.000000	0.000000
51.724055	11.257460	25.913533	-0.096287	-0.223526	2.155964	0.000000	-0.012666	0.000000	0.000186	-0.001054	0.000000	0.000000
52.165015	11.488951	25.822254	-0.431017	0.429738	2.164486	0.000000	0.049313	0.000000	-0.000278	-0.001055	0.000000	0.000000
52.605975	12.023169	25.161310	-0.785430	1.063445	2.200441	0.000000	0.111866	0.000000	-0.000746	-0.001068	0.000000	0.000000
53.046935	12.884510	23.960783	-1.175719	1.648763	2.264244	0.000000	0.175704	0.000000	-0.001222	-0.001094	0.000000	0.000000
53.487895	14.112313	22.275305	-1.619711	2.159062	2.356625	0.000000	0.241554	0.000000	-0.001712	-0.001131	0.000000	0.000000
53.933855	15.783651	20.156364	-2.141943	2.572426	2.480168	0.000000	0.310563	0.000000	-0.002228	-0.001183	0.000000	0.000000
54.482915	17.935007	17.771696	-1.753803	1.796549	2.630933	0.000000	0.235619	0.000000	-0.002855	-0.001100	0.000000	0.000000
55.031975	19.589193	16.164175	-1.241818	1.148631	2.739284	0.000000	0.156478	0.000000	-0.003432	-0.000998	0.000000	0.000000
55.581035	20.629412	15.219293	-0.642151	0.582526	2.803294	0.000000	0.074545	0.000000	-0.003948	-0.000879	0.000000	0.000000
56.130095	20.982229	14.869738	0.002850	0.057911	2.821818	0.000000	-0.008724	0.000000	-0.004394	-0.000744	0.000000	0.000000
56.428668	21.018706	14.817080	-0.068241	0.078060	2.821720	0.000000	-0.001082	0.000000	-0.004620	-0.000755	0.000000	0.000000
56.762001	21.069512	14.772585	-0.084174	0.055426	2.821611	0.000000	-0.001082	0.000000	-0.004872	-0.000755	0.000000	0.000000
57.095334	21.130939	14.743179	-0.100107	0.032793	2.821502	0.000000	-0.001082	0.000000	-0.005123	-0.000755	0.000000	0.000000
57.429918	21.203278	14.728836	-0.116100	0.010074	2.821392	0.000000	-0.001082	0.000000	-0.005376	-0.000755	0.000000	0.000000
57.727240	21.276561	14.728834	-0.188470	0.029989	2.821296	0.000000	0.006630	0.000000	-0.005601	-0.000770	0.000000	0.000000
58.276300	21.119797	14.978352	0.471907	-0.487153	2.802415	0.000000	-0.076613	0.000000	-0.005973	-0.000583	0.000000	0.000000
58.825360	20.252086	15.811305	1.098947	-1.038986	2.738034	0.000000	-0.158506	0.000000	-0.006239	-0.000385	0.000000	0.000000
59.374420	18.734711	17.287006	1.648375	-1.664808	2.629292	0.000000	-0.237594	0.000000	-0.006394	-0.000180	0.000000	0.000000
59.923480	16.674817	19.510546	2.081399	-2.409187	2.478114	0.000000	-0.312472	0.000000	-0.006436	0.000028	0.000000	0.000000
60.369440	15.061138	21.486698	1.549980	-2.003536	2.354228	0.000000	-0.243545	0.000000	-0.006461	-0.000140	0.000000	0.000000
60.810400	13.899944	23.040904	1.093493	-1.507975	2.261528	0.000000	-0.177771	0.000000	-0.006560	-0.000308	0.000000	0.000000
61.251360	13.117813	24.126072	0.686952	-0.943816	2.197429	0.000000	-0.114017	0.000000	-0.006733	-0.000479	0.000000	0.000000
61.692320	12.679022	24.692840	0.311791	-0.336724	2.161204	0.000000	-0.051557	0.000000	-0.006983	-0.000656	0.000000	0.000000
62.134530	12.563588	24.714839	-0.016323	0.221211	2.152449	0.000000	0.004686	0.000000	-0.007313	-0.000821	0.000000	0.000000
62.431853	12.580332	24.587049	-0.039994	0.208592	2.154087	0.000000	0.004686	0.000000	-0.007557	-0.000821	0.000000	0.000000
62.765186	12.615842	24.452703	-0.066533	0.194445	2.155923	0.000000	0.004686	0.000000	-0.007831	-0.000821	0.000000	0.000000
63.098520	12.669043	24.327789	-0.093072	0.180298	2.157759	0.000000	0.004686	0.000000	-0.008105	-0.000821	0.000000	0.000000
63.433103	12.740237	24.211891	-0.119710	0.166098	2.159601	0.000000	0.004686	0.000000	-0.008380	-0.000821	0.000000	0.000000
63.730426	12.818432	24.116926	-0.109445	0.089344	2.161236	0.000000	-0.001036	0.000000	-0.008624	-0.000799	0.000000	0.000000
64.171386	13.077285	23.772578	-0.480214	0.688689	2.174861	0.000000	0.061131	0.000000	-0.009026	-0.001027	0.000000	0.000000
64.612346	13.671432	22.911575	-0.872905	1.256704	2.216125	0.000000	0.124005	0.000000	-0.009531	-0.001266	0.000000	0.000000
65.053306	14.627992	21.573094	-1.305450	1.767550	2.285501	0.000000	0.188305	0.000000	-0.010144	-0.001520	0.000000	0.000000
65.494266	15.990626	19.818031	-1.797597	2.197994	2.383786	0.000000	0.254765	0.000000	-0.010873	-0.001790	0.000000	0.000000
65.940226	17.844917	17.701288	-2.376253	2.528981	2.513712	0.000000	0.324511	0.000000	-0.011736	-0.002084	0.000000	0.000000
66.489286	20.219158	15.333546	-1.924110	1.809573	2.672193	0.000000	0.248380	0.000000	-0.012773	-0.001687	0.000000	0.000000
67.038346	22.019075	13.680732	-1.336166	1.219018	2.787378	0.000000	0.167817	0.000000	-0.013583	-0.001260	0.000000	0.000000
67.587406	23.117671	12.625133	-0.653924	0.715264	2.857215	0.000000	0.084258	0.000000	-0.014152	-0.000810	0.000000	0.000000
68.136466	23.437447	12.091573	0.074461	0.262439	2.880459	0.000000	-0.000808	0.000000	-0.014470	-0.000347	0.000000	0.000000
68.435038	23.437476	11.921859	-0.006660	0.270892	2.882834	0.000000	0.007596	0.000000	-0.014585	-0.000387	0.000000	0.000000
68.768372	23.446656	11.751268	-0.020883	0.240881	2.885495	0.000000	0.007596	0.000000	-0.014714	-0.000387	0.000000	0.000000
69.101705	23.465319	11.600685	-0.035105	0.210869	2.888156	0.000000	0.007596	0.000000	-0.014843	-0.000387	0.000000	0.000000
69.436288	23.493587	11.469657	-0.049382	0.180745	2.890827	0.000000	0.007596	0.000000	-0.014973	-0.000387	0.000000	0.000000
69.733611	23.526881	11.370061	-0.130995	0.187222	2.893211	0.000000	0.016073	0.000000	-0.015088	-0.000429	0.000000	0.000000
70.282671	23.266697	11.392053	0.602042	-0.227521	2.878610	0.000000	-0.069544	0.000000	-0.015189	0.000062	0.000000	0.000000
