#ParticleID	Turn	x[m]	xp	y[m]	yp	z[m]	dE[GeV]# s	beta_x	beta_y	alpha_x	alpha_y	D_x	D_y	D_px	D_py	orbit_x	orbit_px	orbit_y	orbit_py
0.300000	11.944257	25.181587	-0.013919	-0.025311	2.601724	0.000000	-0.001493	0.000000	-0.001235	0.001042	0.000000	0.000000
0.601250	11.960243	25.200443	-0.039145	-0.037282	2.600960	0.000000	-0.001493	0.000000	-0.000921	0.001042	0.000000	0.000000
0.898573	11.990923	25.226126	-0.034467	-0.110939	2.600207	0.000000	-0.007906	0.000000	-0.000611	0.001044	0.000000	0.000000
1.339533	12.174961	25.044055	-0.384119	0.522266	2.612469	0.000000	0.065573	0.000000	-0.000153	0.001034	0.000000	0.000000
1.780493	12.673918	24.311929	-0.751328	1.131712	2.657266	0.000000	0.139788	0.000000	0.000303	0.001036	0.000000	0.000000
2.221453	13.510599	23.063050	-1.152872	1.689670	2.735103	0.000000	0.215585	0.000000	0.000762	0.001050	0.000000	0.000000
2.662413	14.723243	21.354231	-1.607098	2.170750	2.846864	0.000000	0.293825	0.000000	0.001230	0.001075	0.000000	0.000000
3.108373	16.388231	19.238159	-2.139122	2.554243	2.995652	0.000000	0.375892	0.000000	0.001718	0.001113	0.000000	0.000000
3.657433	18.522415	16.861216	-1.724185	1.800299	3.176445	0.000000	0.283743	0.000000	0.002312	0.001048	0.000000	0.000000
4.206493	20.130955	15.237349	-1.187428	1.174589	3.305229	0.000000	0.186576	0.000000	0.002865	0.000964	0.000000	0.000000
4.755553	21.100192	14.250903	-0.566767	0.632545	3.379726	0.000000	0.086116	0.000000	0.003368	0.000863	0.000000	0.000000
5.304613	21.361626	13.831623	0.093952	0.135556	3.398621	0.000000	-0.015858	0.000000	0.003810	0.000747	0.000000	0.000000
5.603185	21.341950	13.736519	0.025937	0.148168	3.396226	0.000000	-0.007264	0.000000	0.004036	0.000757	0.000000	0.000000
5.936519	21.329868	13.646007	0.010308	0.123369	3.393552	0.000000	-0.007264	0.000000	0.004289	0.000757	0.000000	0.000000
6.269852	21.328206	13.572027	-0.005322	0.098570	3.390878	0.000000	-0.007264	0.000000	0.004541	0.000757	0.000000	0.000000
6.604435	21.337016	13.514395	-0.021010	0.073678	3.388195	0.000000	-0.007264	0.000000	0.004794	0.000757	0.000000	0.000000
6.901758	21.353670	13.477149	-0.088363	0.085421	3.385811	0.000000	0.001205	0.000000	0.005019	0.000770	0.000000	0.000000
7.450818	21.086775	13.644921	0.571959	-0.392763	3.358228	0.000000	-0.100218	0.000000	0.005396	0.000601	0.000000	0.000000
7.999878	20.112640	14.350031	1.191885	-0.898929	3.275453	0.000000	-0.199853	0.000000	0.005677	0.000421	0.000000	0.000000
8.548938	18.500082	15.642717	1.727610	-1.469136	3.138960	0.000000	-0.295936	0.000000	0.005857	0.000235	0.000000	0.000000
9.097998	16.363036	17.615072	2.141279	-2.144006	2.951172	0.000000	-0.386766	0.000000	0.005934	0.000044	0.000000	0.000000
9.543958	14.696227	19.372318	1.609333	-1.779372	2.796745	0.000000	-0.305897	0.000000	0.005988	0.000198	0.000000	0.000000
9.984918	13.481648	20.751062	1.155387	-1.335144	2.678792	0.000000	-0.229016	0.000000	0.006109	0.000354	0.000000	0.000000
10.425878	12.642760	21.709606	0.754237	-0.830157	2.594069	0.000000	-0.154747	0.000000	0.006301	0.000514	0.000000	0.000000
10.866838	12.141226	22.204327	0.387552	-0.287389	2.541609	0.000000	-0.082247	0.000000	0.006564	0.000680	0.000000	0.000000
11.309048	11.953982	22.212133	0.065838	0.217280	2.520790	0.000000	-0.016462	0.000000	0.006902	0.000837	0.000000	0.000000
11.606371	11.922259	22.087096	0.040857	0.203262	2.515647	0.000000	-0.016462	0.000000	0.007151	0.000837	0.000000	0.000000
12.086371	11.902393	21.902827	0.000529	0.180632	2.507343	0.000000	-0.016462	0.000000	0.007553	0.000837	0.000000	0.000000
12.566371	11.921243	21.740283	-0.039799	0.158002	2.499039	0.000000	-0.016462	0.000000	0.007955	0.000837	0.000000	0.000000
13.046371	11.978807	21.599463	-0.080127	0.135372	2.490735	0.000000	-0.016462	0.000000	0.008357	0.000837	0.000000	0.000000
13.526371	12.075086	21.480368	-0.120455	0.112742	2.482432	0.000000	-0.016462	0.000000	0.008759	0.000837	0.000000	0.000000
14.007621	12.210482	21.382773	-0.160888	0.090053	2.474106	0.000000	-0.016462	0.000000	0.009161	0.000837	0.000000	0.000000
14.304943	12.313549	21.333447	-0.158427	0.028732	2.468960	0.000000	-0.021964	0.000000	0.009410	0.000815	0.000000	0.000000
14.745903	12.611453	21.074656	-0.519289	0.555834	2.474310	0.000000	0.048061	0.000000	0.009824	0.001063	0.000000	0.000000
15.186863	13.236931	20.360356	-0.903895	1.057642	2.510524	0.000000	0.118622	0.000000	0.010350	0.001323	0.000000	0.000000
15.627823	14.218592	19.223045	-1.329826	1.511317	2.578010	0.000000	0.190521	0.000000	0.010993	0.001598	0.000000	0.000000
16.068783	15.601332	17.714472	-1.816557	1.896211	2.677531	0.000000	0.264573	0.000000	0.011762	0.001892	0.000000	0.000000
16.514743	17.472055	15.881543	-2.391325	2.195814	2.811895	0.000000	0.342115	0.000000	0.012676	0.002209	0.000000	0.000000
17.063803	19.874644	13.835374	-1.956669	1.552153	2.975364	0.000000	0.256169	0.000000	0.013773	0.001780	0.000000	0.000000
17.612863	21.720518	12.431612	-1.383685	1.019083	3.090559	0.000000	0.165706	0.000000	0.014625	0.001320	0.000000	0.000000
18.161923	22.879143	11.570257	-0.712875	0.558625	3.155449	0.000000	0.072324	0.000000	0.015218	0.000836	0.000000	0.000000
18.710983	23.268579	11.189945	0.008342	0.137972	3.168889	0.000000	-0.022328	0.000000	0.015541	0.000338	0.000000	0.000000
19.009556	23.298655	11.100756	-0.057071	0.135796	3.164236	0.000000	-0.015170	0.000000	0.015653	0.000376	0.000000	0.000000
19.342889	23.341487	11.020419	-0.071425	0.105215	3.159054	0.000000	-0.015170	0.000000	0.015779	0.000376	0.000000	0.000000
19.676223	23.393888	10.960469	-0.085778	0.074633	3.153872	0.000000	-0.015170	0.000000	0.015904	0.000376	0.000000	0.000000
20.010806	23.456399	10.920663	-0.216402	0.098044	3.148690	0.000000	0.000430	0.000000	0.016030	0.000455	0.000000	0.000000
20.308129	23.589208	10.870450	-0.282593	0.095027	3.148694	0.000000	0.007494	0.000000	0.016165	0.000495	0.000000	0.000000
20.857189	23.492899	10.986661	0.457075	-0.307881	3.126882	0.000000	-0.086370	0.000000	0.016293	-0.000031	0.000000	0.000000
21.406249	22.596973	11.554795	1.164435	-0.732728	3.054142	0.000000	-0.178702	0.000000	0.016131	-0.000557	0.000000	0.000000
21.955309	20.964782	12.615333	1.789476	-1.209788	2.931765	0.000000	-0.267871	0.000000	0.015683	-0.001072	0.000000	0.000000
22.504369	18.711745	14.243834	2.288009	-1.773052	2.761917	0.000000	-0.352305	0.000000	0.014956	-0.001569	0.000000	0.000000
22.950329	16.938081	15.706529	1.701344	-1.492084	2.622418	0.000000	-0.276113	0.000000	0.014342	-0.001189	0.000000	0.000000
23.391289	15.664187	16.873763	1.197477	-1.144337	2.517168	0.000000	-0.203549	0.000000	0.013898	-0.000825	0.000000	0.000000
23.832249	14.809104	17.710014	0.748360	-0.744506	2.443231	0.000000	-0.133296	0.000000	0.013613	-0.000470	0.000000	0.000000
24.273209	14.333723	18.177225	0.333458	-0.310788	2.399767	0.000000	-0.064557	0.000000	0.013483	-0.000121	0.000000	0.000000
24.715418	14.216471	18.253789	-0.036032	0.098104	2.386285	0.000000	-0.001630	0.000000	0.013507	0.000196	0.000000	0.000000
25.012741	14.244123	18.200342	-0.056973	0.081659	2.385742	0.000000	-0.001630	0.000000	0.013565	0.000196	0.000000	0.000000
25.346075	14.289931	18.152048	-0.080450	0.063222	2.385134	0.000000	-0.001630	0.000000	0.013631	0.000196	0.000000	0.000000
25.679408	14.351391	18.116046	-0.103928	0.044785	2.384525	0.000000	-0.001630	0.000000	0.013696	0.000196	0.000000	0.000000
26.013991	14.428528	18.092636	-0.010440	-0.120497	2.383890	0.000000	-0.020970	0.000000	0.013762	0.000085	0.000000	0.000000
26.311314	14.440782	18.169348	-0.000418	-0.175695	2.377623	0.000000	-0.026013	0.000000	0.013787	0.000053	0.000000	0.000000
26.752274	14.619756	18.127389	-0.406818	0.270466	2.380967	0.000000	0.041639	0.000000	0.013889	0.000410	0.000000	0.000000
27.193234	15.164099	17.695820	-0.831819	0.704317	2.414071	0.000000	0.109760	0.000000	0.014149	0.000772	0.000000	0.000000
27.634194	16.098712	16.894278	-1.294855	1.106111	2.477310	0.000000	0.179124	0.000000	0.014571	0.001142	0.000000	0.000000
28.075154	17.466343	15.759240	-1.817098	1.457560	2.571402	0.000000	0.250517	0.000000	0.015158	0.001525	0.000000	0.000000
28.521114	19.353675	14.325028	-2.427684	1.743885	2.699020	0.000000	0.325234	0.000000	0.015928	0.001928	0.000000	0.000000
29.070174	21.754015	12.727695	-1.916132	1.181819	2.854425	0.000000	0.243070	0.000000	0.016843	0.001397	0.000000	0.000000
29.619234	23.514158	11.698112	-1.269105	0.703966	2.963748	0.000000	0.156616	0.000000	0.017458	0.000842	0.000000	0.000000
30.168294	24.509620	11.162924	-0.532348	0.276278	3.025059	0.000000	0.067395	0.000000	0.017764	0.000271	0.000000	0.000000
30.717354	24.669997	11.084000	0.242046	-0.131723	3.037272	0.000000	-0.023017	0.000000	0.017755	-0.000305	0.000000	0.000000
31.015927	24.561465	11.156266	0.175105	-0.134470	3.032465	0.000000	-0.016318	0.000000	0.017677	-0.000262	0.000000	0.000000
31.349260	24.449390	11.256052	0.161117	-0.164889	3.027113	0.000000	-0.016318	0.000000	0.017589	-0.000262	0.000000	0.000000
31.682593	24.346641	11.376118	0.147130	-0.195308	3.021761	0.000000	-0.016318	0.000000	0.017502	-0.000262	0.000000	0.000000
32.017177	24.252885	11.517027	0.133090	-0.225841	3.016389	0.000000	-0.016318	0.000000	0.017414	-0.000262	0.000000	0.000000
32.314499	24.177666	11.659287	0.067038	-0.227176	3.011628	0.000000	-0.009644	0.000000	0.017337	-0.000220	0.000000	0.000000
32.863559	23.689912	12.146853	0.815485	-0.665850	2.982030	0.000000	-0.098942	0.000000	0.017062	-0.000777	0.000000	0.000000
33.412619	22.406842	13.139325	1.506269	-1.151972	2.904088	0.000000	-0.186496	0.000000	0.016485	-0.001321	0.000000	0.000000
33.961679	20.419205	14.707412	2.090553	-1.720179	2.779178	0.000000	-0.270762	0.000000	0.015616	-0.001841	0.000000	0.000000
34.510739	17.867571	16.962826	2.527032	-2.410956	2.609505	0.000000	-0.350254	0.000000	0.014469	-0.002329	0.000000	0.000000
34.956699	15.885102	18.980714	1.932043	-2.093843	2.470373	0.000000	-0.278021	0.000000	0.013512	-0.001966	0.000000	0.000000
35.397659	14.407282	20.652611	1.430627	-1.682504	2.363752	0.000000	-0.209399	0.000000	0.012720	-0.001628	0.000000	0.000000
35.838619	13.341440	21.926369	0.994624	-1.194590	2.286708	0.000000	-0.143146	0.000000	0.012073	-0.001308	0.000000	0.000000
36.279579	12.638826	22.744027	0.604097	-0.652307	2.238367	0.000000	-0.078510	0.000000	0.011564	-0.001003	0.000000	0.000000
36.721789	12.266678	23.068624	0.267887	-0.130578	2.218166	0.000000	-0.019604	0.000000	0.011186	-0.000736	0.000000	0.000000
37.019112	12.115104	23.150169	0.241910	-0.143686	2.212556	0.000000	-0.019604	0.000000	0.010967	-0.000736	0.000000	0.000000
37.352445	11.963538	23.250859	0.212786	-0.158382	2.206266	0.000000	-0.019604	0.000000	0.010722	-0.000736	0.000000	0.000000
37.685779	11.831389	23.361346	0.183662	-0.173078	2.199977	0.000000	-0.019604	0.000000	0.010477	-0.000736	0.000000	0.000000
38.020362	11.718270	23.482099	0.154428	-0.187830	2.193664	0.000000	-0.019604	0.000000	0.010230	-0.000736	0.000000	0.000000
38.317684	11.634129	23.597758	0.154212	-0.253436	2.188051	0.000000	-0.024449	0.000000	0.010012	-0.000759	0.000000	0.000000
38.758644	11.647100	23.559844	-0.183944	0.339078	2.191373	0.000000	0.038307	0.000000	0.009733	-0.000505	0.000000	0.000000
39.199604	11.960940	23.004144	-0.530505	0.916157	2.222335	0.000000	0.101504	0.000000	0.009566	-0.000256	0.000000	0.000000
39.640564	12.589991	21.955952	-0.901311	1.451540	2.281293	0.000000	0.165861	0.000000	0.009507	-0.000010	0.000000	0.000000
40.081524	13.563010	20.462973	-1.313312	1.920862	2.368917	0.000000	0.232107	0.000000	0.009557	0.000236	0.000000	0.000000
40.527484	14.942089	18.570442	-1.789328	2.304290	2.487689	0.000000	0.301428	0.000000	0.009718	0.000486	0.000000	0.000000
41.076544	16.704450	16.443582	-1.400847	1.591674	2.632628	0.000000	0.226303	0.000000	0.009898	0.000168	0.000000	0.000000
41.625604	17.982848	15.032865	-0.913373	0.992461	2.735318	0.000000	0.147165	0.000000	0.009902	-0.000153	0.000000	0.000000
42.174664	18.686929	14.237786	-0.361358	0.463959	2.793936	0.000000	0.065414	0.000000	0.009730	-0.000471	0.000000	0.000000
42.723724	18.766940	14.001693	0.216183	-0.031485	2.807441	0.000000	-0.017505	0.000000	0.009386	-0.000781	0.000000	0.000000
43.022297	18.669606	14.006717	0.154730	-0.019015	2.804450	0.000000	-0.010762	0.000000	0.009160	-0.000757	0.000000	0.000000
43.502297	18.533702	14.041427	0.128404	-0.053297	2.799648	0.000000	-0.010762	0.000000	0.008797	-0.000757	0.000000	0.000000
43.982297	18.423070	14.109048	0.102078	-0.087579	2.794845	0.000000	-0.010762	0.000000	0.008433	-0.000757	0.000000	0.000000
44.462297	18.337712	14.209579	0.075752	-0.121860	2.790043	0.000000	-0.010762	0.000000	0.008070	-0.000757	0.000000	0.000000
44.942297	18.277626	14.343020	0.049426	-0.156142	2.785241	0.000000	-0.010762	0.000000	0.007706	-0.000757	0.000000	0.000000
45.423547	18.242982	14.509668	-0.067354	-0.118623	2.780443	0.000000	0.003014	0.000000	0.007342	-0.000721	0.000000	0.000000
45.720870	18.287928	14.586363	-0.128603	-0.103759	2.781555	0.000000	0.009840	0.000000	0.007128	-0.000703	0.000000	0.000000
46.269930	18.120888	14.982471	0.430578	-0.621857	2.764844	0.000000	-0.072182	0.000000	0.006680	-0.000926	0.000000	0.000000
46.818990	17.352845	15.968405	0.959319	-1.184254	2.703490	0.000000	-0.152939	0.000000	0.006114	-0.001134	0.000000	0.000000
47.368050	16.038096	17.614387	1.420261	-1.831011	2.598573	0.000000	-0.231001	0.000000	0.005439	-0.001321	0.000000	0.000000
47.917110	14.269563	20.037653	1.780838	-2.608200	2.451945	0.000000	-0.304987	0.000000	0.004667	-0.001485	0.000000	0.000000
48.363070	12.892426	22.191952	1.317380	-2.201923	2.331842	0.000000	-0.236638	0.000000	0.004031	-0.001372	0.000000	0.000000
48.804030	11.910197	23.917818	0.917958	-1.696854	2.242526	0.000000	-0.171381	0.000000	0.003448	-0.001275	0.000000	0.000000
49.244990	11.260515	25.162339	0.560491	-1.114575	2.181496	0.000000	-0.108062	0.000000	0.002904	-0.001193	0.000000	0.000000
49.685950	10.913679	25.868898	0.228643	-0.481585	2.148062	0.000000	-0.045962	0.000000	0.002393	-0.001125	0.000000	0.000000
50.128160	10.853999	26.005076	-0.066733	0.111046	2.141863	0.000000	0.010470	0.000000	0.001908	-0.001074	0.000000	0.000000
50.425482	10.901863	25.942484	-0.094248	0.099472	2.145295	0.000000	0.010470	0.000000	0.001589	-0.001074	0.000000	0.000000
50.758816	10.974977	25.880495	-0.125096	0.086496	2.149144	0.000000	0.010470	0.000000	0.001231	-0.001074	0.000000	0.000000
51.092149	11.068657	25.827156	-0.155943	0.073520	2.152992	0.000000	0.010470	0.000000	0.000873	-0.001074	0.000000	0.000000
51.426732	11.183142	25.782840	-0.096181	-0.148668	2.156833	0.000000	-0.007027	0.000000	0.000513	-0.001079	0.000000	0.000000
51.724055	11.248314	25.874749	-0.095480	-0.224190	2.155064	0.000000	-0.012303	0.000000	0.000193	-0.001079	0.000000	0.000000
52.165015	11.478991	25.784507	-0.429980	0.428060	2.163752	0.000000	0.049656	0.000000	-0.000283	-0.001080	0.000000	0.000000
52.605975	12.012173	25.125463	-0.784116	1.060830	2.199866	0.000000	0.112192	0.000000	-0.000762	-0.001094	0.000000	0.000000
53.046935	12.872206	23.927613	-1.174066	1.645330	2.263820	0.000000	0.176017	0.000000	-0.001249	-0.001120	0.000000	0.000000
53.487895	14.098371	22.245467	-1.617645	2.154968	2.356349	0.000000	0.241858	0.000000	-0.001751	-0.001158	0.000000	0.000000
53.933855	15.767639	20.130408	-2.139363	2.567854	2.480037	0.000000	0.310861	0.000000	-0.002279	-0.001211	0.000000	0.000000
54.482915	17.916368	17.750152	-1.751642	1.793039	2.630981	0.000000	0.235919	0.000000	-0.002921	-0.001126	0.000000	0.000000
55.031975	19.568474	16.146020	-1.240230	1.145934	2.739509	0.000000	0.156774	0.000000	-0.003512	-0.001022	0.000000	0.000000
55.581035	20.607309	15.203745	-0.641247	0.580449	2.803690	0.000000	0.074831	0.000000	-0.004040	-0.000900	0.000000	0.000000
56.130095	20.959536	14.856200	0.003003	0.056306	2.822378	0.000000	-0.008453	0.000000	-0.004497	-0.000761	0.000000	0.000000
56.428668	20.995916	14.804505	-0.068088	0.076443	2.822368	0.000000	-0.000804	0.000000	-0.004728	-0.000773	0.000000	0.000000
56.762001	21.046625	14.761092	-0.084038	0.053795	2.822358	0.000000	-0.000804	0.000000	-0.004986	-0.000773	0.000000	0.000000
57.095334	21.107967	14.732778	-0.099987	0.031148	2.822348	0.000000	-0.000804	0.000000	-0.005243	-0.000773	0.000000	0.000000
57.429918	21.180231	14.719540	-0.115997	0.008416	2.822338	0.000000	-0.000804	0.000000	-0.005502	-0.000773	0.000000	0.000000
57.727240	21.253459	14.720528	-0.188379	0.028333	2.822330	0.000000	0.006919	0.000000	-0.005732	-0.000789	0.000000	0.000000
58.276300	21.097015	14.971746	0.471226	-0.488614	2.803606	0.000000	-0.076359	0.000000	-0.006113	-0.000597	0.000000	0.000000
58.825360	20.230454	15.806241	1.097542	-1.040354	2.739360	0.000000	-0.158293	0.000000	-0.006386	-0.000394	0.000000	0.000000
59.374420	18.714977	17.283437	1.646346	-1.666182	2.630727	0.000000	-0.237426	0.000000	-0.006545	-0.000185	0.000000	0.000000
59.923480	16.657594	19.508528	2.078888	-2.410665	2.479630	0.000000	-0.312351	0.000000	-0.006588	0.000028	0.000000	0.000000
60.369440	15.045911	21.486091	1.548000	-2.005214	2.355807	0.000000	-0.243384	0.000000	-0.006614	-0.000143	0.000000	0.000000
60.810400	13.886268	23.041831	1.091944	-1.509771	2.263190	0.000000	-0.177569	0.000000	-0.006715	-0.000315	0.000000	0.000000
61.251360	13.105339	24.128603	0.685765	-0.945649	2.199194	0.000000	-0.113771	0.000000	-0.006892	-0.000491	0.000000	0.000000
61.692320	12.667456	24.696972	0.310910	-0.338511	2.163093	0.000000	-0.051264	0.000000	-0.007148	-0.000671	0.000000	0.000000
62.134530	12.552679	24.720499	-0.016917	0.219448	2.154487	0.000000	0.005016	0.000000	-0.007486	-0.000841	0.000000	0.000000
62.431853	12.569783	24.593754	-0.040610	0.206842	2.156229	0.000000	0.005016	0.000000	-0.007736	-0.000841	0.000000	0.000000
62.765186	12.605710	24.460570	-0.067172	0.192708	2.158181	0.000000	0.005016	0.000000	-0.008017	-0.000841	0.000000	0.000000
63.098520	12.659346	24.336809	-0.093735	0.178575	2.160133	0.000000	0.005016	0.000000	-0.008297	-0.000841	0.000000	0.000000
63.433103	12.730991	24.222059	-0.120397	0.164388	2.162093	0.000000	0.005016	0.000000	-0.008579	-0.000841	0.000000	0.000000
63.730426	12.809599	24.128110	-0.110118	0.087501	2.163832	0.000000	-0.000723	0.000000	-0.008829	-0.000819	0.000000	0.000000
64.171386	13.068957	23.785243	-0.480699	0.687188	2.177619	0.000000	0.061513	0.000000	-0.009241	-0.001051	0.000000	0.000000
64.612346	13.663452	22.925390	-0.873225	1.255613	2.219078	0.000000	0.124460	0.000000	-0.009758	-0.001296	0.000000	0.000000
65.053306	14.620219	21.587675	-1.305619	1.766920	2.288686	0.000000	0.188838	0.000000	-0.010386	-0.001556	0.000000	0.000000
65.494266	15.982926	19.832960	-1.797622	2.197852	2.387241	0.000000	0.255383	0.000000	-0.011132	-0.001833	0.000000	0.000000
65.940226	17.837164	17.716121	-2.376125	2.529334	2.517483	0.000000	0.325222	0.000000	-0.012016	-0.002133	0.000000	0.000000
66.489286	20.211421	15.348183	-1.924309	1.809596	2.676342	0.000000	0.248963	0.000000	-0.013077	-0.001727	0.000000	0.000000
67.038346	22.011712	13.695530	-1.336681	1.218712	2.791828	0.000000	0.168262	0.000000	-0.013906	-0.001290	0.000000	0.000000
67.587406	23.111018	12.640463	-0.654720	0.714606	2.861883	0.000000	0.084556	0.000000	-0.014489	-0.000830	0.000000	0.000000
68.136466	23.431790	12.107842	0.073440	0.261382	2.885256	0.000000	-0.000662	0.000000	-0.014815	-0.000355	0.000000	0.000000
68.435038	23.432511	11.938669	-0.007831	0.270018	2.887687	0.000000	0.007776	0.000000	-0.014933	-0.000396	0.000000	0.000000
68.768372	23.442473	11.768642	-0.022057	0.240062	2.890411	0.000000	0.007776	0.000000	-0.015065	-0.000396	0.000000	0.000000
69.101705	23.461920	11.618587	-0.036283	0.210105	2.893135	0.000000	0.007776	0.000000	-0.015197	-0.000396	0.000000	0.000000
69.436288	23.490977	11.488051	-0.050562	0.180037	2.895870	0.000000	0.007776	0.000000	-0.015330	-0.000396	0.000000	0.000000
69.733611	23.524982	11.388858	-0.132344	0.186699	2.898310	0.000000	0.016288	0.000000	-0.015448	-0.000439	0.000000	0.000000
70.282671	23.266303	11.411713	0.600663	-0.228580	2.883784	0.000000	-0.069494	0.000000	-0.015551	0.000063	0.000000	0.000000
