#ParticleID	Turn	x[m]	xp	y[m]	yp	z[m]	dE[GeV]# s	beta_x	beta_y	alpha_x	alpha_y	D_x	D_y	D_px	D_py	orbit_x	orbit_px	orbit_y	orbit_py
0.300000	11.965088	25.307605	-0.018392	-0.022378	2.598506	0.000000	-0.000138	0.000000	-0.001048	0.000901	0.000000	0.000000
0.601250	11.983757	25.324676	-0.043578	-0.034288	2.598193	0.000000	-0.000138	0.000000	-0.000776	0.000901	0.000000	0.000000
0.898573	12.017061	25.348560	-0.038824	-0.108176	2.597884	0.000000	-0.006540	0.000000	-0.000508	0.000902	0.000000	0.000000
1.339533	12.205219	25.162635	-0.389187	0.528209	2.610796	0.000000	0.066888	0.000000	-0.000113	0.000894	0.000000	0.000000
1.780493	12.709020	24.423961	-0.757337	1.140563	2.656224	0.000000	0.141068	0.000000	0.000282	0.000896	0.000000	0.000000
2.221453	13.551491	23.166139	-1.160095	1.701026	2.734680	0.000000	0.216846	0.000000	0.000679	0.000909	0.000000	0.000000
2.662413	14.771131	21.446389	-1.615865	2.184095	2.847056	0.000000	0.295083	0.000000	0.001085	0.000932	0.000000	0.000000
3.108373	16.444747	19.317754	-2.149844	2.568964	2.996469	0.000000	0.377163	0.000000	0.001507	0.000965	0.000000	0.000000
3.657433	18.590010	16.926573	-1.733609	1.811676	3.178026	0.000000	0.284975	0.000000	0.002022	0.000908	0.000000	0.000000
4.206493	20.207830	15.291676	-1.194892	1.183433	3.307541	0.000000	0.187747	0.000000	0.002501	0.000835	0.000000	0.000000
4.755553	21.183896	14.296619	-0.571748	0.639485	3.382723	0.000000	0.087203	0.000000	0.002936	0.000747	0.000000	0.000000
5.304613	21.449231	13.870535	0.091802	0.141086	3.402243	0.000000	-0.014877	0.000000	0.003319	0.000645	0.000000	0.000000
5.603185	21.431095	13.771959	0.023391	0.153988	3.400185	0.000000	-0.006237	0.000000	0.003514	0.000654	0.000000	0.000000
5.936519	21.420688	13.677560	0.007829	0.129211	3.397889	0.000000	-0.006237	0.000000	0.003732	0.000654	0.000000	0.000000
6.269852	21.420656	13.599678	-0.007733	0.104433	3.395592	0.000000	-0.006237	0.000000	0.003950	0.000654	0.000000	0.000000
6.604435	21.431058	13.538117	-0.023354	0.079562	3.393286	0.000000	-0.006237	0.000000	0.004168	0.000654	0.000000	0.000000
6.901758	21.449084	13.497369	-0.091203	0.091553	3.391238	0.000000	0.002296	0.000000	0.004363	0.000665	0.000000	0.000000
7.450818	21.183510	13.658673	0.572358	-0.387050	3.364253	0.000000	-0.099311	0.000000	0.004688	0.000518	0.000000	0.000000
7.999878	20.207149	14.357544	1.195494	-0.893227	3.281960	0.000000	-0.199147	0.000000	0.004930	0.000362	0.000000	0.000000
8.548938	18.588975	15.643775	1.734175	-1.463038	3.145822	0.000000	-0.295445	0.000000	0.005085	0.000200	0.000000	0.000000
9.097998	16.443315	17.608994	2.150341	-2.137073	2.958257	0.000000	-0.386498	0.000000	0.005149	0.000034	0.000000	0.000000
9.543958	14.769438	19.359850	1.616216	-1.772085	2.804000	0.000000	-0.305448	0.000000	0.005195	0.000169	0.000000	0.000000
9.984918	13.549639	20.732111	1.160401	-1.327824	2.686305	0.000000	-0.228378	0.000000	0.005299	0.000304	0.000000	0.000000
10.425878	12.707065	21.684297	0.757612	-0.823139	2.601933	0.000000	-0.153913	0.000000	0.005463	0.000443	0.000000	0.000000
10.866838	12.203213	22.173074	0.389441	-0.280994	2.549921	0.000000	-0.081206	0.000000	0.005690	0.000586	0.000000	0.000000
11.309048	12.014904	22.175617	0.066731	0.222392	2.529656	0.000000	-0.015277	0.000000	0.005982	0.000723	0.000000	0.000000
11.606371	11.982613	22.047556	0.041875	0.208321	2.524898	0.000000	-0.015277	0.000000	0.006197	0.000723	0.000000	0.000000
12.086371	11.961675	21.858471	0.001746	0.185605	2.517218	0.000000	-0.015277	0.000000	0.006544	0.000723	0.000000	0.000000
12.566371	11.979260	21.691194	-0.038382	0.162889	2.509539	0.000000	-0.015277	0.000000	0.006891	0.000723	0.000000	0.000000
13.046371	12.035368	21.545724	-0.078510	0.140173	2.501859	0.000000	-0.015277	0.000000	0.007237	0.000723	0.000000	0.000000
13.526371	12.130000	21.422061	-0.118638	0.117457	2.494179	0.000000	-0.015277	0.000000	0.007584	0.000723	0.000000	0.000000
14.007621	12.263551	21.319969	-0.158871	0.094682	2.486479	0.000000	-0.015277	0.000000	0.007932	0.000723	0.000000	0.000000
14.304943	12.365390	21.267891	-0.155792	0.032769	2.481719	0.000000	-0.020884	0.000000	0.008147	0.000703	0.000000	0.000000
14.745903	12.661431	21.006352	-0.517744	0.558016	2.487674	0.000000	0.049476	0.000000	0.008504	0.000918	0.000000	0.000000
15.186863	13.285961	20.290999	-0.903366	1.057871	2.524657	0.000000	0.120389	0.000000	0.008958	0.001143	0.000000	0.000000
15.627823	14.267538	19.154378	-1.330286	1.509584	2.593087	0.000000	0.192662	0.000000	0.009514	0.001381	0.000000	0.000000
16.068783	15.651048	17.648207	-1.818021	1.892597	2.693738	0.000000	0.267115	0.000000	0.010179	0.001635	0.000000	0.000000
16.514743	17.523397	15.819376	-2.393825	2.190433	2.829444	0.000000	0.345088	0.000000	0.010969	0.001909	0.000000	0.000000
17.063803	19.927534	13.778109	-1.957229	1.548651	2.994523	0.000000	0.258552	0.000000	0.011917	0.001539	0.000000	0.000000
17.612863	21.772820	12.377321	-1.382281	1.017207	3.110962	0.000000	0.167453	0.000000	0.012653	0.001140	0.000000	0.000000
18.161923	22.928785	11.517226	-0.709618	0.558239	3.176704	0.000000	0.073402	0.000000	0.013166	0.000722	0.000000	0.000000
18.710983	23.313690	11.136550	0.013214	0.139045	3.190589	0.000000	-0.021940	0.000000	0.013444	0.000291	0.000000	0.000000
19.009556	23.341638	11.046481	-0.053424	0.137163	3.186131	0.000000	-0.014576	0.000000	0.013541	0.000324	0.000000	0.000000
19.342889	23.382028	10.965287	-0.067746	0.106420	3.181165	0.000000	-0.014576	0.000000	0.013649	0.000324	0.000000	0.000000
19.676223	23.431965	10.904588	-0.082067	0.075676	3.176198	0.000000	-0.014576	0.000000	0.013757	0.000324	0.000000	0.000000
20.010806	23.491982	10.864138	-0.212834	0.098646	3.171232	0.000000	0.001136	0.000000	0.013865	0.000393	0.000000	0.000000
20.308129	23.622613	10.813633	-0.280281	0.095901	3.171462	0.000000	0.008415	0.000000	0.013982	0.000427	0.000000	0.000000
20.857189	23.523186	10.928002	0.460392	-0.305388	3.149971	0.000000	-0.086186	0.000000	0.014092	-0.000028	0.000000	0.000000
21.406249	22.623211	11.492415	1.168525	-0.728438	3.077111	0.000000	-0.179258	0.000000	0.013952	-0.000482	0.000000	0.000000
21.955309	20.986316	12.547087	1.794060	-1.203392	2.954173	0.000000	-0.269157	0.000000	0.013564	-0.000928	0.000000	0.000000
22.504369	18.728237	14.167156	2.292778	-1.764090	2.783335	0.000000	-0.354295	0.000000	0.012935	-0.001357	0.000000	0.000000
22.950329	16.950766	15.622622	1.705466	-1.485078	2.642996	0.000000	-0.277567	0.000000	0.012404	-0.001029	0.000000	0.000000
23.391289	15.673533	16.784606	1.201095	-1.139557	2.537165	0.000000	-0.204484	0.000000	0.012020	-0.000714	0.000000	0.000000
23.832249	14.815460	17.617685	0.751635	-0.742170	2.462893	0.000000	-0.133723	0.000000	0.011773	-0.000407	0.000000	0.000000
24.273209	14.337308	18.083945	0.336535	-0.311005	2.419336	0.000000	-0.064481	0.000000	0.011660	-0.000105	0.000000	0.000000
24.715418	14.217351	18.161859	-0.032370	0.094726	2.406002	0.000000	-0.001201	0.000000	0.011680	0.000169	0.000000	0.000000
25.012741	14.242823	18.110442	-0.053304	0.078209	2.405594	0.000000	-0.001201	0.000000	0.011730	0.000169	0.000000	0.000000
25.346075	14.286183	18.064475	-0.076774	0.059690	2.405138	0.000000	-0.001201	0.000000	0.011787	0.000169	0.000000	0.000000
25.679408	14.345189	18.030854	-0.100244	0.041172	2.404681	0.000000	-0.001201	0.000000	0.011843	0.000169	0.000000	0.000000
26.013991	14.419859	18.009887	-0.006819	-0.123520	2.404198	0.000000	-0.020706	0.000000	0.011899	0.000072	0.000000	0.000000
26.311314	14.429985	18.088397	0.003835	-0.179472	2.398015	0.000000	-0.025903	0.000000	0.011921	0.000045	0.000000	0.000000
26.752274	14.605045	18.050736	-0.402189	0.264538	2.401537	0.000000	0.042273	0.000000	0.012008	0.000353	0.000000	0.000000
27.193234	15.145032	17.625260	-0.826601	0.696510	2.435072	0.000000	0.110928	0.000000	0.012233	0.000666	0.000000	0.000000
27.634194	16.074641	16.831328	-1.288804	1.096781	2.499000	0.000000	0.180839	0.000000	0.012597	0.000986	0.000000	0.000000
28.075154	17.436387	15.705070	-1.809932	1.447134	2.594047	0.000000	0.252800	0.000000	0.013104	0.001317	0.000000	0.000000
28.521114	19.316503	14.280577	-2.419004	1.732793	2.722908	0.000000	0.328111	0.000000	0.013769	0.001666	0.000000	0.000000
29.070174	21.707499	12.694268	-1.908179	1.172812	2.879792	0.000000	0.245155	0.000000	0.014559	0.001207	0.000000	0.000000
29.619234	23.459462	11.673768	-1.262460	0.696397	2.990110	0.000000	0.157869	0.000000	0.015091	0.000726	0.000000	0.000000
30.168294	24.448505	11.146375	-0.527492	0.269604	3.051913	0.000000	0.067792	0.000000	0.015355	0.000233	0.000000	0.000000
30.717354	24.604692	11.074514	0.244765	-0.137979	3.064106	0.000000	-0.023483	0.000000	0.015346	-0.000264	0.000000	0.000000
31.015927	24.495364	11.150143	0.176515	-0.140176	3.059222	0.000000	-0.016549	0.000000	0.015278	-0.000227	0.000000	0.000000
31.349260	24.382365	11.253755	0.162483	-0.170658	3.053781	0.000000	-0.016549	0.000000	0.015203	-0.000227	0.000000	0.000000
31.682593	24.278720	11.377687	0.148451	-0.201140	3.048341	0.000000	-0.016549	0.000000	0.015127	-0.000227	0.000000	0.000000
32.017177	24.184093	11.522521	0.134367	-0.231737	3.042880	0.000000	-0.016549	0.000000	0.015051	-0.000227	0.000000	0.000000
32.314499	24.108073	11.668329	0.067082	-0.232452	3.038037	0.000000	-0.009647	0.000000	0.014984	-0.000190	0.000000	0.000000
32.863559	23.621607	12.161937	0.813186	-0.671670	3.008169	0.000000	-0.099790	0.000000	0.014746	-0.000672	0.000000	0.000000
33.412619	22.342371	13.161254	1.501800	-1.158747	2.929460	0.000000	-0.188173	0.000000	0.014248	-0.001142	0.000000	0.000000
33.961679	20.360828	14.737473	2.084243	-1.728389	2.803299	0.000000	-0.273235	0.000000	0.013496	-0.001591	0.000000	0.000000
34.510739	17.817093	17.002885	2.519346	-2.421180	2.631916	0.000000	-0.353475	0.000000	0.012505	-0.002013	0.000000	0.000000
34.956699	15.840888	19.029689	1.926010	-2.103731	2.491354	0.000000	-0.280687	0.000000	0.011678	-0.001699	0.000000	0.000000
35.397659	14.367876	20.709927	1.425911	-1.691555	2.383572	0.000000	-0.211542	0.000000	0.010993	-0.001407	0.000000	0.000000
35.838619	13.305758	21.991116	0.991002	-1.202395	2.305610	0.000000	-0.144793	0.000000	0.010434	-0.001131	0.000000	0.000000
36.279579	12.605963	22.814958	0.601398	-0.658514	2.256583	0.000000	-0.079680	0.000000	0.009994	-0.000867	0.000000	0.000000
36.721789	12.235855	23.144245	0.266374	-0.135958	2.235916	0.000000	-0.020436	0.000000	0.009667	-0.000636	0.000000	0.000000
37.019112	12.085194	23.228981	0.240350	-0.149042	2.230029	0.000000	-0.020436	0.000000	0.009478	-0.000636	0.000000	0.000000
37.352445	11.934686	23.333232	0.211175	-0.163710	2.223429	0.000000	-0.020436	0.000000	0.009266	-0.000636	0.000000	0.000000
37.685779	11.803628	23.447262	0.182000	-0.178379	2.216829	0.000000	-0.020436	0.000000	0.009054	-0.000636	0.000000	0.000000
38.020362	11.691638	23.571553	0.152715	-0.193103	2.210205	0.000000	-0.020436	0.000000	0.008841	-0.000636	0.000000	0.000000
38.317684	11.608539	23.690323	0.152779	-0.259640	2.204316	0.000000	-0.025389	0.000000	0.008652	-0.000657	0.000000	0.000000
38.758644	11.622528	23.656784	-0.184802	0.335400	2.207278	0.000000	0.037779	0.000000	0.008411	-0.000437	0.000000	0.000000
39.199604	11.936887	23.103157	-0.530826	0.915175	2.238075	0.000000	0.101382	0.000000	0.008266	-0.000222	0.000000	0.000000
39.640564	12.565982	22.054641	-0.901109	1.453300	2.297059	0.000000	0.166143	0.000000	0.008215	-0.000009	0.000000	0.000000
40.081524	13.538568	20.558952	-1.312575	1.925285	2.384903	0.000000	0.232797	0.000000	0.008258	0.000203	0.000000	0.000000
40.527484	14.916676	18.661413	-1.787991	2.311162	2.504092	0.000000	0.302532	0.000000	0.008397	0.000419	0.000000	0.000000
41.076544	16.678048	16.528583	-1.400475	1.595810	2.649512	0.000000	0.226870	0.000000	0.008552	0.000145	0.000000	0.000000
41.625604	17.956560	15.114712	-0.913998	0.994152	2.752362	0.000000	0.147186	0.000000	0.008555	-0.000133	0.000000	0.000000
42.174664	18.661859	14.319071	-0.362940	0.463324	2.810819	0.000000	0.064888	0.000000	0.008407	-0.000407	0.000000	0.000000
42.723724	18.744107	14.084972	0.213757	-0.034494	2.823841	0.000000	-0.018567	0.000000	0.008109	-0.000675	0.000000	0.000000
43.022297	18.648531	14.091393	0.151805	-0.021307	2.820540	0.000000	-0.011701	0.000000	0.007914	-0.000654	0.000000	0.000000
43.502297	18.515438	14.128206	0.125472	-0.055386	2.815238	0.000000	-0.011701	0.000000	0.007600	-0.000654	0.000000	0.000000
43.982297	18.407624	14.197734	0.099140	-0.089464	2.809935	0.000000	-0.011701	0.000000	0.007285	-0.000654	0.000000	0.000000
44.462297	18.325090	14.299978	0.072807	-0.123543	2.804633	0.000000	-0.011701	0.000000	0.006971	-0.000654	0.000000	0.000000
44.942297	18.267834	14.434937	0.046475	-0.157622	2.799330	0.000000	-0.011701	0.000000	0.006657	-0.000654	0.000000	0.000000
45.423547	18.236034	14.602911	-0.070278	-0.119438	2.794031	0.000000	0.002142	0.000000	0.006342	-0.000623	0.000000	0.000000
45.720870	18.282716	14.680057	-0.131929	-0.103873	2.794855	0.000000	0.009062	0.000000	0.006157	-0.000607	0.000000	0.000000
46.269930	18.119437	15.077817	0.427154	-0.624780	2.777542	0.000000	-0.073379	0.000000	0.005770	-0.000801	0.000000	0.000000
46.818990	17.355145	16.068576	0.956043	-1.190193	2.715348	0.000000	-0.154532	0.000000	0.005280	-0.000980	0.000000	0.000000
47.368050	16.043863	17.722900	1.417369	-1.840388	2.609367	0.000000	-0.232959	0.000000	0.004697	-0.001141	0.000000	0.000000
47.917110	14.278262	20.158619	1.778539	-2.621682	2.461473	0.000000	-0.307271	0.000000	0.004031	-0.001283	0.000000	0.000000
48.363070	12.903183	22.323675	1.315153	-2.212502	2.340321	0.000000	-0.238692	0.000000	0.003481	-0.001185	0.000000	0.000000
48.804030	11.922965	24.057395	0.915686	-1.704046	2.250070	0.000000	-0.173229	0.000000	0.002977	-0.001102	0.000000	0.000000
49.244990	11.275374	25.306631	0.558068	-1.118054	2.188195	0.000000	-0.109727	0.000000	0.002507	-0.001031	0.000000	0.000000
49.685950	10.930807	26.014551	0.225956	-0.481191	2.153997	0.000000	-0.047464	0.000000	0.002065	-0.000972	0.000000	0.000000
50.128160	10.873685	26.148666	-0.069693	0.114736	2.147102	0.000000	0.009086	0.000000	0.001646	-0.000929	0.000000	0.000000
50.425482	10.923297	26.083863	-0.097169	0.103216	2.150079	0.000000	0.009086	0.000000	0.001370	-0.000929	0.000000	0.000000
50.758816	10.998344	26.019358	-0.127973	0.090301	2.153417	0.000000	0.009086	0.000000	0.001061	-0.000929	0.000000	0.000000
51.092149	11.093928	25.963462	-0.158777	0.077385	2.156755	0.000000	0.009086	0.000000	0.000751	-0.000929	0.000000	0.000000
51.426732	11.210294	25.916542	-0.098751	-0.145826	2.160084	0.000000	-0.008438	0.000000	0.000440	-0.000932	0.000000	0.000000
51.724055	11.276979	26.006740	-0.097921	-0.221566	2.157852	0.000000	-0.013722	0.000000	0.000163	-0.000933	0.000000	0.000000
52.165015	11.510137	25.912652	-0.433139	0.434126	2.165867	0.000000	0.048300	0.000000	-0.000248	-0.000934	0.000000	0.000000
52.605975	12.046495	25.246835	-0.788139	1.070063	2.201330	0.000000	0.110882	0.000000	-0.000662	-0.000945	0.000000	0.000000
53.046935	12.910548	24.039594	-1.179139	1.657309	2.264650	0.000000	0.174736	0.000000	-0.001083	-0.000968	0.000000	0.000000
53.487895	14.141761	22.345864	-1.624000	2.169149	2.356552	0.000000	0.240591	0.000000	-0.001517	-0.001001	0.000000	0.000000
53.933855	15.817416	20.217400	-2.147312	2.583601	2.479607	0.000000	0.309593	0.000000	-0.001973	-0.001047	0.000000	0.000000
54.482915	17.974252	17.821912	-1.758277	1.805178	2.629777	0.000000	0.234676	0.000000	-0.002529	-0.000974	0.000000	0.000000
55.031975	19.632753	16.206017	-1.245079	1.155330	2.737559	0.000000	0.155580	0.000000	-0.003039	-0.000884	0.000000	0.000000
55.581035	20.675813	15.254609	-0.643963	0.587772	2.801036	0.000000	0.073711	0.000000	-0.003496	-0.000778	0.000000	0.000000
56.130095	21.029792	14.899915	0.002617	0.062078	2.819074	0.000000	-0.009478	0.000000	-0.003891	-0.000658	0.000000	0.000000
56.428668	21.066342	14.844818	-0.068344	0.082155	2.818713	0.000000	-0.001875	0.000000	-0.004090	-0.000668	0.000000	0.000000
56.762001	21.117204	14.797583	-0.084241	0.059549	2.818311	0.000000	-0.001875	0.000000	-0.004313	-0.000668	0.000000	0.000000
57.095334	21.178664	14.765419	-0.100138	0.036943	2.817909	0.000000	-0.001875	0.000000	-0.004536	-0.000668	0.000000	0.000000
57.429918	21.251012	14.748290	-0.116094	0.014252	2.817505	0.000000	-0.001875	0.000000	-0.004759	-0.000668	0.000000	0.000000
57.727240	21.324278	14.745800	-0.188273	0.034054	2.817148	0.000000	0.005788	0.000000	-0.004958	-0.000682	0.000000	0.000000
58.276300	21.166440	14.991090	0.473697	-0.483468	2.797800	0.000000	-0.077315	0.000000	-0.005287	-0.000516	0.000000	0.000000
58.825360	20.295952	15.820093	1.102203	-1.035419	2.733046	0.000000	-0.159054	0.000000	-0.005523	-0.000340	0.000000	0.000000
59.374420	18.774291	17.291844	1.652867	-1.661107	2.624029	0.000000	-0.237978	0.000000	-0.005660	-0.000159	0.000000	0.000000
59.923480	16.708912	19.511152	2.086805	-2.405093	2.472681	0.000000	-0.312684	0.000000	-0.005697	0.000025	0.000000	0.000000
60.369440	15.090916	21.483466	1.554284	-1.999044	2.348666	0.000000	-0.243896	0.000000	-0.005719	-0.000123	0.000000	0.000000
60.810400	13.926320	23.033636	1.096917	-1.503312	2.255768	0.000000	-0.178266	0.000000	-0.005806	-0.000272	0.000000	0.000000
61.251360	13.141497	24.114706	0.689654	-0.939192	2.191398	0.000000	-0.114664	0.000000	-0.005959	-0.000424	0.000000	0.000000
61.692320	12.700601	24.677498	0.313895	-0.332349	2.154824	0.000000	-0.052362	0.000000	-0.006180	-0.000580	0.000000	0.000000
62.134530	12.583543	24.695819	-0.014904	0.225618	2.145640	0.000000	0.003771	0.000000	-0.006473	-0.000727	0.000000	0.000000
62.431853	12.599432	24.565419	-0.038538	0.212965	2.146977	0.000000	0.003771	0.000000	-0.006689	-0.000727	0.000000	0.000000
62.765186	12.633956	24.428170	-0.065033	0.198781	2.148476	0.000000	0.003771	0.000000	-0.006931	-0.000727	0.000000	0.000000
63.098520	12.686143	24.300378	-0.091529	0.184596	2.149976	0.000000	0.003771	0.000000	-0.007173	-0.000727	0.000000	0.000000
63.433103	12.756289	24.181616	-0.118124	0.170358	2.151480	0.000000	0.003771	0.000000	-0.007416	-0.000727	0.000000	0.000000
63.730426	12.833536	24.084116	-0.108061	0.094221	2.152816	0.000000	-0.001881	0.000000	-0.007633	-0.000707	0.000000	0.000000
64.171386	13.091334	23.735882	-0.479150	0.692579	2.165975	0.000000	0.060064	0.000000	-0.007988	-0.000909	0.000000	0.000000
64.612346	13.684698	22.871938	-0.872115	1.259430	2.206661	0.000000	0.122703	0.000000	-0.008435	-0.001120	0.000000	0.000000
65.053306	14.640712	21.531593	-1.304900	1.768987	2.275342	0.000000	0.186752	0.000000	-0.008978	-0.001345	0.000000	0.000000
65.494266	16.003018	19.775828	-1.797267	2.198074	2.372804	0.000000	0.252941	0.000000	-0.009624	-0.001585	0.000000	0.000000
65.940226	17.857162	17.659618	-2.376169	2.527711	2.501756	0.000000	0.322397	0.000000	-0.010387	-0.001844	0.000000	0.000000
66.489286	20.231109	15.292694	-1.923462	1.809259	2.659073	0.000000	0.246668	0.000000	-0.011305	-0.001493	0.000000	0.000000
67.038346	22.030111	13.639676	-1.334987	1.219642	2.773350	0.000000	0.166541	0.000000	-0.012021	-0.001115	0.000000	0.000000
67.587406	23.127221	12.582836	-0.652288	0.716872	2.842551	0.000000	0.083443	0.000000	-0.012525	-0.000717	0.000000	0.000000
68.136466	23.445030	12.046907	0.076444	0.265149	2.865443	0.000000	-0.001147	0.000000	-0.012806	-0.000307	0.000000	0.000000
68.435038	23.443445	11.875923	-0.003903	0.272926	2.867663	0.000000	0.007117	0.000000	-0.012909	-0.000342	0.000000	0.000000
68.768372	23.450786	11.704026	-0.018121	0.242767	2.870150	0.000000	0.007117	0.000000	-0.013023	-0.000342	0.000000	0.000000
69.101705	23.467607	11.552234	-0.032340	0.212609	2.872636	0.000000	0.007117	0.000000	-0.013137	-0.000342	0.000000	0.000000
69.436288	23.494023	11.420092	-0.046612	0.182337	2.875131	0.000000	0.007117	0.000000	-0.013251	-0.000342	0.000000	0.000000
69.733611	23.525635	11.319605	-0.127394	0.188145	2.877357	0.000000	0.015446	0.000000	-0.013353	-0.000379	0.000000	0.000000
70.282671	23.261536	11.339812	0.605534	-0.225172	2.862540	0.000000	-0.069659	0.000000	-0.013442	0.000055	0.000000	0.000000
