#ParticleID	Turn	x[m]	xp	y[m]	yp	z[m]	dE[GeV]# s	beta_x	beta_y	alpha_x	alpha_y	D_x	D_y	D_px	D_py	orbit_x	orbit_px	orbit_y	orbit_py
0.300000	11.849886	24.988261	-0.014863	-0.026938	2.616130	0.000000	0.000056	0.000000	-0.000085	0.000075	0.000000	0.000000
0.601250	11.866501	25.008126	-0.040291	-0.039002	2.616124	0.000000	0.000056	0.000000	-0.000063	0.000075	0.000000	0.000000
0.898573	11.897921	25.034859	-0.036199	-0.112299	2.616119	0.000000	-0.006362	0.000000	-0.000040	0.000075	0.000000	0.000000
1.339533	12.082421	24.856214	-0.383768	0.515885	2.629564	0.000000	0.067544	0.000000	-0.000007	0.000075	0.000000	0.000000
1.780493	12.579994	24.131833	-0.748871	1.120598	2.675736	0.000000	0.142218	0.000000	0.000025	0.000075	0.000000	0.000000
2.221453	13.413373	22.894676	-1.148189	1.674324	2.755162	0.000000	0.218511	0.000000	0.000059	0.000076	0.000000	0.000000
2.662413	14.620634	21.201031	-1.599965	2.151870	2.868746	0.000000	0.297292	0.000000	0.000093	0.000078	0.000000	0.000000
3.108373	16.277793	19.103119	-2.129151	2.532641	3.019640	0.000000	0.379947	0.000000	0.000128	0.000081	0.000000	0.000000
3.657433	18.402696	16.746921	-1.717966	1.784011	3.202963	0.000000	0.286987	0.000000	0.000171	0.000076	0.000000	0.000000
4.206493	20.006353	15.138625	-1.185429	1.162453	3.333773	0.000000	0.188938	0.000000	0.000211	0.000070	0.000000	0.000000
4.755553	20.975488	14.163675	-0.569158	0.623693	3.409752	0.000000	0.087538	0.000000	0.000247	0.000062	0.000000	0.000000
5.304613	21.241643	13.752630	0.087318	0.129358	3.429551	0.000000	-0.015413	0.000000	0.000279	0.000054	0.000000	0.000000
5.603185	21.226766	13.660642	0.017877	0.142894	3.427602	0.000000	-0.006473	0.000000	0.000295	0.000054	0.000000	0.000000
5.936519	21.220085	13.573680	0.002169	0.117995	3.425427	0.000000	-0.006473	0.000000	0.000314	0.000054	0.000000	0.000000
6.269852	21.223875	13.503316	-0.013540	0.093095	3.423251	0.000000	-0.006473	0.000000	0.000332	0.000054	0.000000	0.000000
6.604435	21.238211	13.449382	-0.029307	0.068103	3.421067	0.000000	-0.006473	0.000000	0.000350	0.000054	0.000000	0.000000
6.901758	21.259804	13.415489	-0.098696	0.080848	3.419126	0.000000	0.002433	0.000000	0.000366	0.000055	0.000000	0.000000
7.450818	21.005727	13.587300	0.558733	-0.395612	3.392257	0.000000	-0.100066	0.000000	0.000393	0.000043	0.000000	0.000000
7.999878	20.047205	14.294636	1.176696	-0.900252	3.309522	0.000000	-0.200790	0.000000	0.000413	0.000030	0.000000	0.000000
8.548938	18.451943	15.587880	1.711542	-1.469016	3.172388	0.000000	-0.297951	0.000000	0.000426	0.000016	0.000000	0.000000
9.097998	16.332625	17.559149	2.125492	-2.142416	2.983287	0.000000	-0.389828	0.000000	0.000432	0.000003	0.000000	0.000000
9.543958	14.678988	19.315695	1.595717	-1.779713	2.827731	0.000000	-0.308173	0.000000	0.000435	0.000014	0.000000	0.000000
9.984918	13.475811	20.695420	1.143164	-1.337274	2.709065	0.000000	-0.230514	0.000000	0.000444	0.000025	0.000000	0.000000
10.425878	12.647302	21.656524	0.742839	-0.833989	2.624028	0.000000	-0.155481	0.000000	0.000457	0.000037	0.000000	0.000000
10.866838	12.155608	22.155276	0.376453	-0.292758	2.571651	0.000000	-0.082219	0.000000	0.000476	0.000049	0.000000	0.000000
11.309048	11.978123	22.168463	0.056396	0.207608	2.551317	0.000000	-0.016121	0.000000	0.000501	0.000060	0.000000	0.000000
11.606371	11.951991	22.049169	0.031495	0.193618	2.546506	0.000000	-0.016121	0.000000	0.000518	0.000060	0.000000	0.000000
12.086371	11.941053	21.874137	-0.008706	0.171032	2.538739	0.000000	-0.016121	0.000000	0.000547	0.000060	0.000000	0.000000
12.566371	11.968706	21.720787	-0.048906	0.148447	2.530972	0.000000	-0.016121	0.000000	0.000576	0.000060	0.000000	0.000000
13.046371	12.034953	21.589119	-0.089107	0.125861	2.523205	0.000000	-0.016121	0.000000	0.000605	0.000060	0.000000	0.000000
13.526371	12.139791	21.479133	-0.129307	0.103276	2.515437	0.000000	-0.016121	0.000000	0.000634	0.000060	0.000000	0.000000
14.007621	12.283647	21.390628	-0.169613	0.080631	2.507650	0.000000	-0.016121	0.000000	0.000663	0.000060	0.000000	0.000000
14.304943	12.391909	21.346841	-0.164321	0.014648	2.502839	0.000000	-0.022219	0.000000	0.000681	0.000058	0.000000	0.000000
14.745903	12.695659	21.100277	-0.527099	0.542373	2.508636	0.000000	0.048669	0.000000	0.000711	0.000076	0.000000	0.000000
15.186863	13.328727	20.397441	-0.913960	1.045421	2.545777	0.000000	0.120110	0.000000	0.000748	0.000095	0.000000	0.000000
15.627823	14.320039	19.270313	-1.342579	1.500902	2.614684	0.000000	0.192918	0.000000	0.000795	0.000115	0.000000	0.000000
16.068783	15.714888	17.770175	-1.832540	1.888092	2.716142	0.000000	0.267923	0.000000	0.000850	0.000136	0.000000	0.000000
16.514743	17.600651	15.943788	-2.411006	2.190138	2.853000	0.000000	0.346443	0.000000	0.000916	0.000159	0.000000	0.000000
17.063803	20.022223	13.904429	-1.973144	1.546008	3.019426	0.000000	0.259154	0.000000	0.000995	0.000128	0.000000	0.000000
17.612863	21.883111	12.508151	-1.395901	1.012000	3.136608	0.000000	0.167270	0.000000	0.001056	0.000095	0.000000	0.000000
18.161923	23.051860	11.655498	-0.720052	0.550076	3.202467	0.000000	0.072420	0.000000	0.001099	0.000060	0.000000	0.000000
18.710983	23.445908	11.285737	0.006662	0.127333	3.215836	0.000000	-0.023713	0.000000	0.001122	0.000024	0.000000	0.000000
19.009556	23.481978	11.200353	-0.066792	0.129435	3.211233	0.000000	-0.015390	0.000000	0.001130	0.000027	0.000000	0.000000
19.342889	23.531259	11.124150	-0.081050	0.099175	3.206094	0.000000	-0.015390	0.000000	0.001139	0.000027	0.000000	0.000000
19.676223	23.590045	11.068120	-0.095309	0.068915	3.200955	0.000000	-0.015390	0.000000	0.001148	0.000027	0.000000	0.000000
20.010806	23.658904	11.032030	-0.226840	0.093202	3.195816	0.000000	0.000444	0.000000	0.001157	0.000033	0.000000	0.000000
20.308129	23.797723	10.984690	-0.301623	0.094442	3.195939	0.000000	0.008712	0.000000	0.001167	0.000036	0.000000	0.000000
20.857189	23.718522	11.103216	0.445027	-0.311583	3.174503	0.000000	-0.086645	0.000000	0.001176	-0.000002	0.000000	0.000000
21.406249	22.831861	11.677111	1.160242	-0.739802	3.101075	0.000000	-0.180467	0.000000	0.001165	-0.000040	0.000000	0.000000
21.955309	21.200376	12.747255	1.793498	-1.220718	2.976956	0.000000	-0.271087	0.000000	0.001132	-0.000077	0.000000	0.000000
22.504369	18.939316	14.389873	2.300062	-1.788585	2.804348	0.000000	-0.356900	0.000000	0.001080	-0.000113	0.000000	0.000000
22.950329	17.157824	15.864584	1.708680	-1.504250	2.662515	0.000000	-0.279706	0.000000	0.001036	-0.000086	0.000000	0.000000
23.391289	15.879987	17.040528	1.200090	-1.152345	2.555524	0.000000	-0.206155	0.000000	0.001004	-0.000059	0.000000	0.000000
23.832249	15.024915	17.881721	0.746332	-0.748008	2.480407	0.000000	-0.134951	0.000000	0.000983	-0.000034	0.000000	0.000000
24.273209	14.553540	18.349888	0.326674	-0.309637	2.436309	0.000000	-0.065284	0.000000	0.000974	-0.000009	0.000000	0.000000
24.715418	14.444432	18.423483	-0.043052	0.097988	2.422726	0.000000	-0.002247	0.000000	0.000976	0.000014	0.000000	0.000000
25.012741	14.476164	18.370059	-0.063674	0.081694	2.422053	0.000000	-0.002247	0.000000	0.000980	0.000014	0.000000	0.000000
25.346075	14.526320	18.321685	-0.086794	0.063428	2.421300	0.000000	-0.002247	0.000000	0.000985	0.000014	0.000000	0.000000
25.679408	14.591889	18.285489	-0.109913	0.045161	2.420546	0.000000	-0.002247	0.000000	0.000989	0.000014	0.000000	0.000000
26.013991	14.672907	18.261773	-0.014084	-0.121322	2.419765	0.000000	-0.021878	0.000000	0.000994	0.000006	0.000000	0.000000
26.311314	14.687307	18.338830	0.001327	-0.182390	2.413258	0.000000	-0.027740	0.000000	0.000996	0.000004	0.000000	0.000000
26.752274	14.867183	18.300771	-0.410781	0.268370	2.416128	0.000000	0.040801	0.000000	0.001003	0.000029	0.000000	0.000000
27.193234	15.417388	17.869058	-0.841658	0.706918	2.449285	0.000000	0.109807	0.000000	0.001022	0.000056	0.000000	0.000000
27.634194	16.363059	17.063336	-1.310989	1.113302	2.513107	0.000000	0.180063	0.000000	0.001052	0.000082	0.000000	0.000000
28.075154	17.747406	15.920264	-1.840220	1.469029	2.608319	0.000000	0.252369	0.000000	0.001095	0.000110	0.000000	0.000000
28.521114	19.657751	14.474630	-2.458501	1.758850	2.737611	0.000000	0.327995	0.000000	0.001150	0.000139	0.000000	0.000000
29.070174	22.085925	12.863832	-1.937593	1.192156	2.894974	0.000000	0.244591	0.000000	0.001216	0.000101	0.000000	0.000000
29.619234	23.863056	11.825337	-1.279814	0.710380	3.005304	0.000000	0.156850	0.000000	0.001261	0.000061	0.000000	0.000000
30.168294	24.863603	11.285175	-0.531629	0.279204	3.066643	0.000000	0.066328	0.000000	0.001283	0.000019	0.000000	0.000000
30.717354	25.016887	11.204870	0.254110	-0.132085	3.077905	0.000000	-0.025371	0.000000	0.001282	-0.000022	0.000000	0.000000
31.015927	24.907448	11.274489	0.177087	-0.130050	3.072711	0.000000	-0.017415	0.000000	0.001276	-0.000019	0.000000	0.000000
31.349260	24.793991	11.371211	0.163285	-0.160116	3.066912	0.000000	-0.017415	0.000000	0.001270	-0.000019	0.000000	0.000000
31.682593	24.689735	11.487977	0.149482	-0.190181	3.061113	0.000000	-0.017415	0.000000	0.001264	-0.000019	0.000000	0.000000
32.017177	24.594342	11.625336	0.135628	-0.220359	3.055292	0.000000	-0.017415	0.000000	0.001257	-0.000019	0.000000	0.000000
32.314499	24.517353	11.764345	0.059931	-0.216764	3.050120	0.000000	-0.009530	0.000000	0.001252	-0.000016	0.000000	0.000000
32.863559	24.031603	12.241683	0.819485	-0.657725	3.020018	0.000000	-0.100023	0.000000	0.001232	-0.000056	0.000000	0.000000
33.412619	22.738750	13.225987	1.521151	-1.145535	2.940665	0.000000	-0.188742	0.000000	0.001191	-0.000095	0.000000	0.000000
33.961679	20.730123	14.787370	2.115362	-1.714942	2.813467	0.000000	-0.274116	0.000000	0.001128	-0.000133	0.000000	0.000000
34.510739	18.147615	17.037046	2.560145	-2.406503	2.640680	0.000000	-0.354629	0.000000	0.001046	-0.000168	0.000000	0.000000
34.956699	16.139968	19.049253	1.957713	-2.086686	2.498941	0.000000	-0.281679	0.000000	0.000977	-0.000142	0.000000	0.000000
35.397659	14.643051	20.713344	1.449742	-1.672693	2.390170	0.000000	-0.212368	0.000000	0.000920	-0.000117	0.000000	0.000000
35.838619	13.563345	21.977237	1.008009	-1.182593	2.311392	0.000000	-0.145475	0.000000	0.000873	-0.000094	0.000000	0.000000
36.279579	12.851517	22.783425	0.612332	-0.638684	2.261709	0.000000	-0.080238	0.000000	0.000837	-0.000072	0.000000	0.000000
36.721789	12.474357	23.095532	0.274882	-0.121956	2.240529	0.000000	-0.021366	0.000000	0.000809	-0.000053	0.000000	0.000000
37.019112	12.318522	23.171937	0.249247	-0.135021	2.234192	0.000000	-0.021366	0.000000	0.000794	-0.000053	0.000000	0.000000
37.352445	12.161938	23.266833	0.220506	-0.149668	2.227088	0.000000	-0.021366	0.000000	0.000776	-0.000053	0.000000	0.000000
37.685779	12.024514	23.371495	0.191765	-0.164316	2.219984	0.000000	-0.021366	0.000000	0.000759	-0.000053	0.000000	0.000000
38.020362	11.905843	23.486368	0.162917	-0.179018	2.212853	0.000000	-0.021366	0.000000	0.000741	-0.000053	0.000000	0.000000
38.317684	11.816587	23.596706	0.166060	-0.249570	2.206516	0.000000	-0.026739	0.000000	0.000725	-0.000055	0.000000	0.000000
38.758644	11.820959	23.555443	-0.176026	0.342787	2.208677	0.000000	0.036462	0.000000	0.000705	-0.000036	0.000000	0.000000
39.199604	12.129421	22.996673	-0.526154	0.919546	2.238765	0.000000	0.100080	0.000000	0.000693	-0.000018	0.000000	0.000000
39.640564	12.756067	21.945819	-0.900322	1.454467	2.297123	0.000000	0.164838	0.000000	0.000689	-0.000000	0.000000	0.000000
40.081524	13.729528	20.450695	-1.315623	1.923209	2.384415	0.000000	0.231473	0.000000	0.000693	0.000018	0.000000	0.000000
40.527484	15.111831	18.556745	-1.794867	2.305742	2.503110	0.000000	0.301151	0.000000	0.000705	0.000036	0.000000	0.000000
41.076544	16.876414	16.428440	-1.399891	1.593369	2.647907	0.000000	0.225551	0.000000	0.000718	0.000013	0.000000	0.000000
41.625604	18.150056	15.015873	-0.906030	0.994491	2.750046	0.000000	0.145949	0.000000	0.000719	-0.000011	0.000000	0.000000
42.174664	18.842789	14.218429	-0.348171	0.466449	2.807714	0.000000	0.063759	0.000000	0.000707	-0.000034	0.000000	0.000000
42.723724	18.905681	13.979305	0.234282	-0.028368	2.819889	0.000000	-0.019563	0.000000	0.000682	-0.000056	0.000000	0.000000
43.022297	18.799985	13.980930	0.168834	-0.013400	2.816251	0.000000	-0.012237	0.000000	0.000666	-0.000054	0.000000	0.000000
43.502297	18.650509	14.010276	0.142574	-0.047739	2.810404	0.000000	-0.012237	0.000000	0.000640	-0.000054	0.000000	0.000000
43.982297	18.526243	14.072588	0.116314	-0.082077	2.804556	0.000000	-0.012237	0.000000	0.000614	-0.000054	0.000000	0.000000
44.462297	18.427186	14.167865	0.090055	-0.116416	2.798708	0.000000	-0.012237	0.000000	0.000587	-0.000054	0.000000	0.000000
44.942297	18.353338	14.296107	0.063795	-0.150755	2.792860	0.000000	-0.012237	0.000000	0.000561	-0.000054	0.000000	0.000000
45.423547	18.304833	14.457597	-0.053226	-0.113551	2.787014	0.000000	0.001571	0.000000	0.000535	-0.000052	0.000000	0.000000
45.720870	18.341326	14.531313	-0.117228	-0.096590	2.787497	0.000000	0.008822	0.000000	0.000520	-0.000050	0.000000	0.000000
46.269930	18.161193	14.918461	0.443329	-0.612679	2.769784	0.000000	-0.073360	0.000000	0.000487	-0.000067	0.000000	0.000000
46.818990	17.379123	15.892836	0.972570	-1.172408	2.707247	0.000000	-0.154242	0.000000	0.000447	-0.000082	0.000000	0.000000
47.368050	16.050363	17.523839	1.433111	-1.815646	2.600995	0.000000	-0.232389	0.000000	0.000398	-0.000096	0.000000	0.000000
47.917110	14.268773	19.927643	1.792420	-2.588209	2.452912	0.000000	-0.306416	0.000000	0.000342	-0.000108	0.000000	0.000000
48.363070	12.882059	22.064867	1.328049	-2.184040	2.331609	0.000000	-0.238075	0.000000	0.000296	-0.000099	0.000000	0.000000
48.804030	11.890919	23.776056	0.928123	-1.681778	2.241136	0.000000	-0.172844	0.000000	0.000254	-0.000092	0.000000	0.000000
49.244990	11.232524	25.008726	0.570602	-1.102997	2.178964	0.000000	-0.109579	0.000000	0.000214	-0.000086	0.000000	0.000000
49.685950	10.876792	25.706790	0.239151	-0.474030	2.144386	0.000000	-0.047562	0.000000	0.000178	-0.000081	0.000000	0.000000
50.128160	10.807608	25.838206	-0.055023	0.113205	2.137019	0.000000	0.008681	0.000000	0.000143	-0.000077	0.000000	0.000000
50.425482	10.848532	25.774354	-0.082616	0.101551	2.139623	0.000000	0.008681	0.000000	0.000120	-0.000077	0.000000	0.000000
50.758816	10.913921	25.711009	-0.113552	0.088485	2.142542	0.000000	0.008681	0.000000	0.000094	-0.000077	0.000000	0.000000
51.092149	10.999935	25.656374	-0.144488	0.075419	2.145462	0.000000	0.008681	0.000000	0.000068	-0.000077	0.000000	0.000000
51.426732	11.106786	25.610814	-0.085434	-0.145464	2.148370	0.000000	-0.008748	0.000000	0.000042	-0.000078	0.000000	0.000000
51.724055	11.165606	25.700838	-0.085023	-0.220362	2.145792	0.000000	-0.014009	0.000000	0.000019	-0.000078	0.000000	0.000000
52.165015	11.386287	25.609264	-0.417355	0.427242	2.153245	0.000000	0.047694	0.000000	-0.000015	-0.000078	0.000000	0.000000
52.605975	11.907325	24.952979	-0.768755	1.055406	2.188001	0.000000	0.109941	0.000000	-0.000049	-0.000078	0.000000	0.000000
53.046935	12.752526	23.761844	-1.155276	1.635550	2.250455	0.000000	0.173442	0.000000	-0.000084	-0.000080	0.000000	0.000000
53.487895	13.960504	22.090055	-1.594578	2.141277	2.341321	0.000000	0.238919	0.000000	-0.000120	-0.000083	0.000000	0.000000
53.933855	15.607138	19.988683	-2.110976	2.550910	2.463138	0.000000	0.307516	0.000000	-0.000158	-0.000086	0.000000	0.000000
54.482915	17.727008	17.624159	-1.727126	1.781015	2.611830	0.000000	0.233150	0.000000	-0.000204	-0.000081	0.000000	0.000000
55.031975	19.355474	16.030866	-1.221283	1.137979	2.718488	0.000000	0.154646	0.000000	-0.000246	-0.000073	0.000000	0.000000
55.581035	20.377512	15.095316	-0.629177	0.575997	2.781222	0.000000	0.073399	0.000000	-0.000284	-0.000065	0.000000	0.000000
56.130095	20.720935	14.750872	0.007369	0.055043	2.798918	0.000000	-0.009152	0.000000	-0.000317	-0.000055	0.000000	0.000000
56.428668	20.753262	14.701017	-0.061356	0.073279	2.798391	0.000000	-0.001819	0.000000	-0.000334	-0.000056	0.000000	0.000000
56.762001	20.799540	14.659763	-0.077478	0.050483	2.797803	0.000000	-0.001819	0.000000	-0.000352	-0.000056	0.000000	0.000000
57.095334	20.856566	14.633706	-0.093601	0.027688	2.797216	0.000000	-0.001819	0.000000	-0.000371	-0.000056	0.000000	0.000000
57.429918	20.924615	14.622834	-0.109783	0.004806	2.796626	0.000000	-0.001819	0.000000	-0.000390	-0.000056	0.000000	0.000000
57.727240	20.994173	14.626021	-0.179204	0.022806	2.796101	0.000000	0.005511	0.000000	-0.000406	-0.000057	0.000000	0.000000
58.276300	20.832627	14.881867	0.471656	-0.491529	2.776496	0.000000	-0.076917	0.000000	-0.000434	-0.000043	0.000000	0.000000
58.825360	19.970515	15.718305	1.089200	-1.040874	2.711934	0.000000	-0.157981	0.000000	-0.000454	-0.000029	0.000000	0.000000
59.374420	18.468729	17.194914	1.629809	-1.664357	2.603560	0.000000	-0.236244	0.000000	-0.000465	-0.000014	0.000000	0.000000
59.923480	16.433347	19.416867	2.055299	-2.406387	2.453296	0.000000	-0.310316	0.000000	-0.000469	0.000001	0.000000	0.000000
60.369440	14.839988	21.391809	1.530242	-2.003461	2.330210	0.000000	-0.241992	0.000000	-0.000471	-0.000011	0.000000	0.000000
60.810400	13.693634	22.947340	1.079309	-1.510741	2.237966	0.000000	-0.176821	0.000000	-0.000479	-0.000023	0.000000	0.000000
61.251360	12.921798	24.036249	0.677686	-0.949284	2.173994	0.000000	-0.113663	0.000000	-0.000492	-0.000036	0.000000	0.000000
61.692320	12.489217	24.608992	0.307025	-0.344637	2.137566	0.000000	-0.051798	0.000000	-0.000510	-0.000049	0.000000	0.000000
62.134530	12.376177	24.638973	-0.019208	0.214932	2.128273	0.000000	0.004231	0.000000	-0.000535	-0.000061	0.000000	0.000000
62.431853	12.394744	24.514918	-0.043240	0.202307	2.129549	0.000000	0.004231	0.000000	-0.000553	-0.000061	0.000000	0.000000
62.765186	12.432552	24.384765	-0.070184	0.188153	2.130979	0.000000	0.004231	0.000000	-0.000573	-0.000061	0.000000	0.000000
63.098520	12.488322	24.264047	-0.097127	0.174000	2.132410	0.000000	0.004231	0.000000	-0.000594	-0.000061	0.000000	0.000000
63.433103	12.562365	24.152366	-0.124172	0.159793	2.133845	0.000000	0.004231	0.000000	-0.000614	-0.000061	0.000000	0.000000
63.730426	12.643349	24.061099	-0.117014	0.087791	2.135121	0.000000	-0.001037	0.000000	-0.000632	-0.000059	0.000000	0.000000
64.171386	12.907372	23.718691	-0.484035	0.685768	2.148240	0.000000	0.060464	0.000000	-0.000662	-0.000076	0.000000	0.000000
64.612346	13.503563	22.860717	-0.873169	1.252544	2.188611	0.000000	0.122654	0.000000	-0.000699	-0.000094	0.000000	0.000000
65.053306	14.459158	21.526214	-1.302194	1.762330	2.256695	0.000000	0.186241	0.000000	-0.000744	-0.000112	0.000000	0.000000
65.494266	15.817812	19.775900	-1.790709	2.191933	2.353267	0.000000	0.251951	0.000000	-0.000798	-0.000132	0.000000	0.000000
65.940226	17.664777	17.664642	-2.365711	2.522544	2.481000	0.000000	0.320932	0.000000	-0.000862	-0.000154	0.000000	0.000000
66.489286	20.031843	15.302786	-1.920023	1.804539	2.636905	0.000000	0.245871	0.000000	-0.000938	-0.000124	0.000000	0.000000
67.038346	21.831684	13.654595	-1.338723	1.215064	2.750322	0.000000	0.166448	0.000000	-0.000998	-0.000093	0.000000	0.000000
67.587406	22.937178	12.602673	-0.662868	0.712133	2.819238	0.000000	0.084071	0.000000	-0.001040	-0.000060	0.000000	0.000000
68.136466	23.270246	12.072095	0.059806	0.259924	2.842430	0.000000	0.000202	0.000000	-0.001064	-0.000026	0.000000	0.000000
68.435038	23.274993	11.905890	-0.014366	0.264914	2.844736	0.000000	0.007694	0.000000	-0.001072	-0.000029	0.000000	0.000000
68.768372	23.289346	11.739268	-0.028691	0.234951	2.847310	0.000000	0.007694	0.000000	-0.001082	-0.000029	0.000000	0.000000
69.101705	23.313248	11.592621	-0.043015	0.204989	2.849885	0.000000	0.007694	0.000000	-0.001091	-0.000029	0.000000	0.000000
69.436288	23.346843	11.465512	-0.057394	0.174915	2.852469	0.000000	0.007694	0.000000	-0.001101	-0.000029	0.000000	0.000000
69.733611	23.384771	11.369445	-0.131837	0.178166	2.854765	0.000000	0.015223	0.000000	-0.001110	-0.000032	0.000000	0.000000
70.282671	23.127939	11.401452	0.596834	-0.236804	2.839937	0.000000	-0.069182	0.000000	-0.001117	0.000004	0.000000	0.000000
