#ParticleID	Turn	x[m]	xp	y[m]	yp	z[m]	dE[GeV]# s	beta_x	beta_y	alpha_x	alpha_y	D_x	D_y	D_px	D_py	orbit_x	orbit_px	orbit_y	orbit_py
0.300000	11.882853	25.100662	-0.017029	-0.025066	2.611122	0.000000	0.000354	0.000000	-0.000278	0.000244	0.000000	0.000000
0.601250	11.900752	25.119382	-0.042388	-0.037075	2.611155	0.000000	0.000354	0.000000	-0.000204	0.000244	0.000000	0.000000
0.898573	11.933400	25.144953	-0.038116	-0.110580	2.611188	0.000000	-0.006058	0.000000	-0.000132	0.000244	0.000000	0.000000
1.339533	12.119988	24.963514	-0.386546	0.520478	2.624667	0.000000	0.067721	0.000000	-0.000025	0.000242	0.000000	0.000000
1.780493	12.620461	24.233888	-0.752638	1.127856	2.670819	0.000000	0.142269	0.000000	0.000082	0.000243	0.000000	0.000000
2.221453	13.457688	22.989269	-1.153117	1.683918	2.750168	0.000000	0.218434	0.000000	0.000190	0.000246	0.000000	0.000000
2.662413	14.669923	21.286285	-1.606282	2.163363	2.863616	0.000000	0.297084	0.000000	0.000300	0.000253	0.000000	0.000000
3.108373	16.333490	19.177455	-2.137167	2.545520	3.014313	0.000000	0.379606	0.000000	0.000414	0.000262	0.000000	0.000000
3.657433	18.466443	16.808839	-1.724419	1.793862	3.197404	0.000000	0.286820	0.000000	0.000554	0.000246	0.000000	0.000000
4.206493	20.076170	15.191049	-1.189858	1.169977	3.328088	0.000000	0.188952	0.000000	0.000684	0.000226	0.000000	0.000000
4.755553	21.048960	14.208855	-0.571245	0.629427	3.404047	0.000000	0.087735	0.000000	0.000801	0.000202	0.000000	0.000000
5.304613	21.316089	13.792301	0.087724	0.133711	3.423937	0.000000	-0.015035	0.000000	0.000905	0.000174	0.000000	0.000000
5.603185	21.300897	13.697770	0.018430	0.147170	3.422046	0.000000	-0.006157	0.000000	0.000957	0.000177	0.000000	0.000000
5.936519	21.293828	13.607944	0.002776	0.122308	3.419935	0.000000	-0.006157	0.000000	0.001016	0.000177	0.000000	0.000000
6.269852	21.297195	13.534693	-0.012878	0.097446	3.417824	0.000000	-0.006157	0.000000	0.001075	0.000177	0.000000	0.000000
6.604435	21.311070	13.477835	-0.028591	0.072491	3.415705	0.000000	-0.006157	0.000000	0.001134	0.000177	0.000000	0.000000
6.901758	21.332224	13.441322	-0.097735	0.085119	3.413822	0.000000	0.002674	0.000000	0.001187	0.000180	0.000000	0.000000
7.450818	21.075799	13.608826	0.562085	-0.391988	3.387073	0.000000	-0.099658	0.000000	0.001275	0.000140	0.000000	0.000000
7.999878	20.112398	14.312426	1.182202	-0.897017	3.304563	0.000000	-0.200220	0.000000	0.001340	0.000098	0.000000	0.000000
8.548938	18.510074	15.602243	1.718812	-1.465941	3.167755	0.000000	-0.297229	0.000000	0.001382	0.000053	0.000000	0.000000
9.097998	16.382013	17.570151	2.134007	-2.139285	2.979077	0.000000	-0.388964	0.000000	0.001399	0.000008	0.000000	0.000000
9.543958	14.721532	19.323614	1.602570	-1.775914	2.823873	0.000000	-0.307409	0.000000	0.001410	0.000045	0.000000	0.000000
9.984918	13.512902	20.699789	1.148705	-1.333007	2.705503	0.000000	-0.229844	0.000000	0.001438	0.000082	0.000000	0.000000
10.425878	12.679989	21.657007	0.747323	-0.829446	2.620712	0.000000	-0.154897	0.000000	0.001483	0.000119	0.000000	0.000000
10.866838	12.184737	22.151713	0.380085	-0.288144	2.568533	0.000000	-0.081716	0.000000	0.001544	0.000158	0.000000	0.000000
11.309048	12.004371	22.160862	0.059094	0.212638	2.548352	0.000000	-0.015620	0.000000	0.001623	0.000195	0.000000	0.000000
11.606371	11.976621	22.038587	0.034239	0.198615	2.543650	0.000000	-0.015620	0.000000	0.001681	0.000195	0.000000	0.000000
12.086371	11.963012	21.858783	-0.005886	0.175976	2.536059	0.000000	-0.015620	0.000000	0.001774	0.000195	0.000000	0.000000
12.566371	11.987922	21.700713	-0.046011	0.153337	2.528467	0.000000	-0.015620	0.000000	0.001868	0.000195	0.000000	0.000000
13.046371	12.051352	21.564377	-0.086136	0.130698	2.520876	0.000000	-0.015620	0.000000	0.001961	0.000195	0.000000	0.000000
13.526371	12.153303	21.449774	-0.126261	0.108059	2.513285	0.000000	-0.015620	0.000000	0.002055	0.000195	0.000000	0.000000
14.007621	12.294190	21.356691	-0.166491	0.085360	2.505674	0.000000	-0.015620	0.000000	0.002149	0.000195	0.000000	0.000000
14.304943	12.400581	21.310104	-0.161573	0.020233	2.500971	0.000000	-0.021625	0.000000	0.002207	0.000190	0.000000	0.000000
14.745903	12.702000	21.059076	-0.524472	0.546859	2.506957	0.000000	0.049221	0.000000	0.002303	0.000248	0.000000	0.000000
15.186863	13.332808	20.352829	-0.911337	1.048604	2.544252	0.000000	0.120624	0.000000	0.002426	0.000309	0.000000	0.000000
15.627823	14.321831	19.223497	-1.339845	1.502635	2.613280	0.000000	0.193398	0.000000	0.002576	0.000373	0.000000	0.000000
16.068783	15.714267	17.722464	-1.829577	1.888293	2.714825	0.000000	0.268370	0.000000	0.002756	0.000442	0.000000	0.000000
16.514743	17.597375	15.896529	-2.407728	2.188826	2.851739	0.000000	0.346867	0.000000	0.002969	0.000516	0.000000	0.000000
17.063803	20.015352	13.857953	-1.969602	1.545774	3.018242	0.000000	0.259611	0.000000	0.003226	0.000416	0.000000	0.000000
17.612863	21.872453	12.461304	-1.392325	1.012832	3.135555	0.000000	0.167756	0.000000	0.003425	0.000308	0.000000	0.000000
18.161923	23.037467	11.607096	-0.716680	0.552037	3.201600	0.000000	0.072931	0.000000	0.003563	0.000195	0.000000	0.000000
18.710983	23.428079	11.234486	0.009600	0.130567	3.215206	0.000000	-0.023185	0.000000	0.003638	0.000078	0.000000	0.000000
19.009556	23.461580	11.147678	-0.062505	0.131756	3.210687	0.000000	-0.015043	0.000000	0.003664	0.000088	0.000000	0.000000
19.342889	23.508004	11.069981	-0.076768	0.101335	3.205644	0.000000	-0.015043	0.000000	0.003694	0.000088	0.000000	0.000000
19.676223	23.563937	11.012564	-0.091031	0.070914	3.200600	0.000000	-0.015043	0.000000	0.003723	0.000088	0.000000	0.000000
20.010806	23.629935	10.975191	-0.222424	0.094757	3.195557	0.000000	0.000789	0.000000	0.003752	0.000106	0.000000	0.000000
20.308129	23.766134	10.926967	-0.295736	0.095078	3.195761	0.000000	0.008872	0.000000	0.003784	0.000116	0.000000	0.000000
20.857189	23.681056	11.043921	0.449800	-0.309333	3.174392	0.000000	-0.086489	0.000000	0.003814	-0.000007	0.000000	0.000000
21.406249	22.789876	11.614413	1.163559	-0.735779	3.101070	0.000000	-0.180316	0.000000	0.003776	-0.000130	0.000000	0.000000
21.955309	21.155558	12.679081	1.795115	-1.214638	2.977096	0.000000	-0.270946	0.000000	0.003671	-0.000251	0.000000	0.000000
22.504369	18.893574	14.313762	2.299847	-1.780020	2.804669	0.000000	-0.356774	0.000000	0.003501	-0.000367	0.000000	0.000000
22.950329	17.111826	15.781675	1.709234	-1.497532	2.662989	0.000000	-0.279556	0.000000	0.003358	-0.000278	0.000000	0.000000
23.391289	15.833051	16.952678	1.201502	-1.147813	2.556133	0.000000	-0.205987	0.000000	0.003254	-0.000193	0.000000	0.000000
23.832249	14.976283	17.790942	0.748673	-0.745864	2.481136	0.000000	-0.134762	0.000000	0.003187	-0.000110	0.000000	0.000000
24.273209	14.502371	18.258325	0.330055	-0.309976	2.437146	0.000000	-0.065071	0.000000	0.003157	-0.000028	0.000000	0.000000
24.715418	14.389760	18.333313	-0.039345	0.096330	2.423660	0.000000	-0.001885	0.000000	0.003163	0.000046	0.000000	0.000000
25.012741	14.419310	18.280897	-0.060039	0.079962	2.423086	0.000000	-0.001885	0.000000	0.003176	0.000046	0.000000	0.000000
25.346075	14.467070	18.233706	-0.083240	0.061612	2.422442	0.000000	-0.001885	0.000000	0.003192	0.000046	0.000000	0.000000
25.679408	14.530296	18.198749	-0.106440	0.043261	2.421798	0.000000	-0.001885	0.000000	0.003207	0.000046	0.000000	0.000000
26.013991	14.609018	18.176331	-0.011210	-0.122614	2.421128	0.000000	-0.021527	0.000000	0.003222	0.000020	0.000000	0.000000
26.311314	14.621731	18.254185	0.003189	-0.182601	2.414721	0.000000	-0.027266	0.000000	0.003228	0.000012	0.000000	0.000000
26.752274	14.799287	18.217318	-0.407333	0.265886	2.417794	0.000000	0.041320	0.000000	0.003252	0.000095	0.000000	0.000000
27.193234	15.345733	17.788746	-0.836469	0.702275	2.451151	0.000000	0.110375	0.000000	0.003313	0.000180	0.000000	0.000000
27.634194	16.286040	16.987972	-1.303827	1.106708	2.515172	0.000000	0.180686	0.000000	0.003411	0.000267	0.000000	0.000000
28.075154	17.663180	15.851430	-1.830765	1.460782	2.610584	0.000000	0.253052	0.000000	0.003548	0.000356	0.000000	0.000000
28.521114	19.564065	14.413688	-2.446375	1.749366	2.740081	0.000000	0.328753	0.000000	0.003728	0.000451	0.000000	0.000000
29.070174	21.980492	12.811956	-1.928122	1.184921	2.897700	0.000000	0.245257	0.000000	0.003942	0.000327	0.000000	0.000000
29.619234	23.749120	11.780370	-1.273645	0.704884	3.008277	0.000000	0.157416	0.000000	0.004086	0.000197	0.000000	0.000000
30.168294	24.744985	11.245449	-0.529184	0.275059	3.069853	0.000000	0.066785	0.000000	0.004157	0.000063	0.000000	0.000000
30.717354	24.897723	11.169088	0.252664	-0.135172	3.081336	0.000000	-0.025029	0.000000	0.004155	-0.000072	0.000000	0.000000
31.015927	24.788022	11.241064	0.177476	-0.134043	3.076200	0.000000	-0.017261	0.000000	0.004136	-0.000061	0.000000	0.000000
31.349260	24.674328	11.340488	0.163605	-0.164229	3.070467	0.000000	-0.017261	0.000000	0.004116	-0.000061	0.000000	0.000000
31.682593	24.569881	11.460036	0.149734	-0.194415	3.064733	0.000000	-0.017261	0.000000	0.004096	-0.000061	0.000000	0.000000
32.017177	24.474342	11.600269	0.135811	-0.224714	3.058978	0.000000	-0.017261	0.000000	0.004075	-0.000061	0.000000	0.000000
32.314499	24.397273	11.741894	0.061884	-0.222022	3.053865	0.000000	-0.009556	0.000000	0.004057	-0.000051	0.000000	0.000000
32.863559	23.911505	12.224814	0.817474	-0.662659	3.023755	0.000000	-0.100178	0.000000	0.003994	-0.000181	0.000000	0.000000
33.412619	22.622876	13.214561	1.515309	-1.150501	2.944367	0.000000	-0.189026	0.000000	0.003859	-0.000308	0.000000	0.000000
33.961679	20.622438	14.781636	2.106084	-1.720298	2.817109	0.000000	-0.274525	0.000000	0.003656	-0.000430	0.000000	0.000000
34.510739	18.051533	17.037663	2.548064	-2.412639	2.644235	0.000000	-0.355162	0.000000	0.003388	-0.000544	0.000000	0.000000
34.956699	16.053290	19.055664	1.948329	-2.093355	2.502425	0.000000	-0.282110	0.000000	0.003165	-0.000459	0.000000	0.000000
35.397659	14.563502	20.725829	1.442668	-1.679631	2.393605	0.000000	-0.212706	0.000000	0.002980	-0.000380	0.000000	0.000000
35.838619	13.489062	21.995878	1.002931	-1.189480	2.314797	0.000000	-0.145722	0.000000	0.002829	-0.000305	0.000000	0.000000
36.279579	12.780869	22.808023	0.609023	-0.645204	2.265103	0.000000	-0.080393	0.000000	0.002710	-0.000234	0.000000	0.000000
36.721789	12.405881	23.125624	0.272501	-0.126867	2.243933	0.000000	-0.021344	0.000000	0.002622	-0.000171	0.000000	0.000000
37.019112	12.251494	23.204949	0.246755	-0.139930	2.237638	0.000000	-0.021344	0.000000	0.002571	-0.000171	0.000000	0.000000
37.352445	12.096612	23.303118	0.217891	-0.154576	2.230580	0.000000	-0.021344	0.000000	0.002514	-0.000171	0.000000	0.000000
37.685779	11.960973	23.411051	0.189027	-0.169222	2.223523	0.000000	-0.021344	0.000000	0.002457	-0.000171	0.000000	0.000000
38.020362	11.844177	23.529208	0.160054	-0.183923	2.216439	0.000000	-0.021344	0.000000	0.002400	-0.000171	0.000000	0.000000
38.317684	11.756654	23.642465	0.162495	-0.253729	2.210144	0.000000	-0.026643	0.000000	0.002349	-0.000177	0.000000	0.000000
38.758644	11.763567	23.604316	-0.178282	0.339911	2.212412	0.000000	0.036657	0.000000	0.002284	-0.000117	0.000000	0.000000
39.199604	12.073479	23.047454	-0.527203	0.918084	2.242635	0.000000	0.100375	0.000000	0.002245	-0.000059	0.000000	0.000000
39.640564	12.700549	21.997217	-0.900213	1.454482	2.301156	0.000000	0.165237	0.000000	0.002232	-0.000001	0.000000	0.000000
40.081524	13.673430	20.501394	-1.314355	1.924698	2.388642	0.000000	0.231981	0.000000	0.002244	0.000057	0.000000	0.000000
40.527484	15.054113	18.605423	-1.792410	2.308681	2.507567	0.000000	0.301780	0.000000	0.002282	0.000115	0.000000	0.000000
41.076544	16.817236	16.474630	-1.399606	1.594900	2.652643	0.000000	0.226027	0.000000	0.002325	0.000041	0.000000	0.000000
41.625604	18.091801	15.061067	-0.907932	0.994727	2.755001	0.000000	0.146264	0.000000	0.002327	-0.000035	0.000000	0.000000
42.174664	18.787767	14.264042	-0.352119	0.465411	2.812824	0.000000	0.063907	0.000000	0.002287	-0.000110	0.000000	0.000000
42.723724	18.855968	14.026780	0.228565	-0.030752	2.825087	0.000000	-0.019586	0.000000	0.002207	-0.000182	0.000000	0.000000
43.022297	18.753233	14.030001	0.163866	-0.016034	2.821455	0.000000	-0.012342	0.000000	0.002154	-0.000177	0.000000	0.000000
43.502297	18.608537	14.061820	0.137583	-0.050255	2.815616	0.000000	-0.012342	0.000000	0.002069	-0.000177	0.000000	0.000000
43.982297	18.489073	14.126491	0.111300	-0.084476	2.809776	0.000000	-0.012342	0.000000	0.001985	-0.000177	0.000000	0.000000
44.462297	18.394841	14.224014	0.085017	-0.118697	2.803937	0.000000	-0.012342	0.000000	0.001900	-0.000177	0.000000	0.000000
44.942297	18.325840	14.354390	0.058734	-0.152919	2.798098	0.000000	-0.012342	0.000000	0.001815	-0.000177	0.000000	0.000000
45.423547	18.282216	14.517906	-0.058197	-0.115298	2.792261	0.000000	0.001493	0.000000	0.001730	-0.000168	0.000000	0.000000
45.720870	18.321676	14.592636	-0.121709	-0.098496	2.792754	0.000000	0.008686	0.000000	0.001680	-0.000164	0.000000	0.000000
46.269930	18.146737	14.982924	0.438331	-0.616514	2.774989	0.000000	-0.073668	0.000000	0.001576	-0.000216	0.000000	0.000000
46.818990	17.370223	15.962703	0.967405	-1.178446	2.712323	0.000000	-0.154719	0.000000	0.001443	-0.000265	0.000000	0.000000
47.368050	16.046992	17.601757	1.428137	-1.824318	2.605868	0.000000	-0.233031	0.000000	0.001285	-0.000310	0.000000	0.000000
47.917110	14.270525	20.016834	1.787981	-2.600136	2.457508	0.000000	-0.307213	0.000000	0.001104	-0.000348	0.000000	0.000000
48.363070	12.887549	22.163861	1.323958	-2.193965	2.335974	0.000000	-0.238753	0.000000	0.000955	-0.000322	0.000000	0.000000
48.804030	11.899885	23.882778	0.924205	-1.689276	2.245317	0.000000	-0.173410	0.000000	0.000818	-0.000299	0.000000	0.000000
49.244990	11.244900	25.120868	0.566680	-1.107725	2.183004	0.000000	-0.110040	0.000000	0.000691	-0.000279	0.000000	0.000000
49.685950	10.892665	25.821801	0.235048	-0.475774	2.148326	0.000000	-0.047919	0.000000	0.000572	-0.000263	0.000000	0.000000
50.128160	10.827234	25.953402	-0.059523	0.114498	2.140900	0.000000	0.008431	0.000000	0.000458	-0.000251	0.000000	0.000000
50.425482	10.870823	25.888767	-0.087081	0.102892	2.143481	0.000000	0.008431	0.000000	0.000384	-0.000251	0.000000	0.000000
50.758816	10.939175	25.824510	-0.117977	0.089880	2.146375	0.000000	0.008431	0.000000	0.000300	-0.000251	0.000000	0.000000
51.092149	11.028125	25.768927	-0.148873	0.076868	2.149269	0.000000	0.008431	0.000000	0.000217	-0.000251	0.000000	0.000000
51.426732	11.137896	25.722382	-0.089526	-0.144866	2.152152	0.000000	-0.009028	0.000000	0.000133	-0.000252	0.000000	0.000000
51.724055	11.199133	25.812034	-0.088986	-0.220024	2.149543	0.000000	-0.014297	0.000000	0.000058	-0.000252	0.000000	0.000000
52.165015	11.423652	25.718864	-0.422188	0.430509	2.156965	0.000000	0.047503	0.000000	-0.000053	-0.000252	0.000000	0.000000
52.605975	11.949389	25.058457	-0.774676	1.061453	2.191732	0.000000	0.109847	0.000000	-0.000165	-0.000255	0.000000	0.000000
53.046935	12.800360	23.860862	-1.162555	1.644101	2.254243	0.000000	0.173444	0.000000	-0.000278	-0.000260	0.000000	0.000000
53.487895	14.015440	22.180573	-1.603545	2.151943	2.345208	0.000000	0.239020	0.000000	-0.000395	-0.000269	0.000000	0.000000
53.933855	15.670939	20.068926	-2.122051	2.563202	2.467175	0.000000	0.307718	0.000000	-0.000518	-0.000281	0.000000	0.000000
54.482915	17.802112	17.692679	-1.736628	1.790226	2.616040	0.000000	0.233220	0.000000	-0.000667	-0.000262	0.000000	0.000000
55.031975	19.439774	16.090667	-1.228547	1.144762	2.722791	0.000000	0.154580	0.000000	-0.000804	-0.000238	0.000000	0.000000
55.581035	20.468262	15.148781	-0.633695	0.580837	2.785531	0.000000	0.073195	0.000000	-0.000927	-0.000210	0.000000	0.000000
56.130095	20.814936	14.799929	0.005912	0.058284	2.803148	0.000000	-0.009492	0.000000	-0.001034	-0.000178	0.000000	0.000000
56.428668	20.848455	14.747893	-0.063322	0.076960	2.802573	0.000000	-0.002105	0.000000	-0.001088	-0.000181	0.000000	0.000000
56.762001	20.896021	14.704165	-0.079374	0.054224	2.801932	0.000000	-0.002105	0.000000	-0.001148	-0.000181	0.000000	0.000000
57.095334	20.954288	14.675594	-0.095427	0.031488	2.801290	0.000000	-0.002105	0.000000	-0.001209	-0.000181	0.000000	0.000000
57.429918	21.023535	14.662159	-0.111540	0.008667	2.800647	0.000000	-0.002105	0.000000	-0.001269	-0.000181	0.000000	0.000000
57.727240	21.094120	14.663034	-0.181582	0.027084	2.800074	0.000000	0.005292	0.000000	-0.001323	-0.000184	0.000000	0.000000
58.276300	20.933307	14.914731	0.472643	-0.488212	2.780374	0.000000	-0.077261	0.000000	-0.001412	-0.000140	0.000000	0.000000
58.825360	20.068270	15.747931	1.093482	-1.038279	2.715633	0.000000	-0.158446	0.000000	-0.001476	-0.000093	0.000000	0.000000
59.374420	18.560108	17.221977	1.637086	-1.662298	2.606999	0.000000	-0.236822	0.000000	-0.001514	-0.000045	0.000000	0.000000
59.923480	16.515342	19.441858	2.065061	-2.404712	2.456399	0.000000	-0.310998	0.000000	-0.001525	0.000004	0.000000	0.000000
60.369440	14.914329	21.414855	1.537734	-2.000832	2.333030	0.000000	-0.242602	0.000000	-0.001532	-0.000035	0.000000	0.000000
60.810400	13.762254	22.967659	1.084865	-1.507262	2.240550	0.000000	-0.177363	0.000000	-0.001556	-0.000075	0.000000	0.000000
61.251360	12.986277	24.053166	0.681559	-0.945116	2.176382	0.000000	-0.114142	0.000000	-0.001598	-0.000116	0.000000	0.000000
61.692320	12.550948	24.621989	0.309389	-0.339971	2.139796	0.000000	-0.052221	0.000000	-0.001659	-0.000158	0.000000	0.000000
62.134530	12.436425	24.647700	-0.017749	0.219226	2.130382	0.000000	0.003798	0.000000	-0.001738	-0.000197	0.000000	0.000000
62.431853	12.454090	24.521097	-0.041664	0.206584	2.131569	0.000000	0.003798	0.000000	-0.001797	-0.000197	0.000000	0.000000
62.765186	12.490803	24.388099	-0.068475	0.192410	2.132901	0.000000	0.003798	0.000000	-0.001862	-0.000197	0.000000	0.000000
63.098520	12.545390	24.264550	-0.095287	0.178236	2.134233	0.000000	0.003798	0.000000	-0.001928	-0.000197	0.000000	0.000000
63.433103	12.618157	24.150041	-0.122199	0.164009	2.135570	0.000000	0.003798	0.000000	-0.001994	-0.000197	0.000000	0.000000
63.730426	12.697930	24.056276	-0.114373	0.091168	2.136757	0.000000	-0.001543	0.000000	-0.002053	-0.000192	0.000000	0.000000
64.171386	12.960118	23.710985	-0.482564	0.688918	2.149726	0.000000	0.059995	0.000000	-0.002149	-0.000246	0.000000	0.000000
64.612346	13.555455	22.850405	-0.872797	1.255323	2.189978	0.000000	0.122220	0.000000	-0.002270	-0.000303	0.000000	0.000000
65.053306	14.511134	21.513692	-1.302899	1.764615	2.257974	0.000000	0.185839	0.000000	-0.002417	-0.000364	0.000000	0.000000
65.494266	15.870807	19.761663	-1.792517	2.193622	2.354489	0.000000	0.251579	0.000000	-0.002591	-0.000428	0.000000	0.000000
65.940226	17.719791	17.649250	-2.368659	2.523517	2.482197	0.000000	0.320581	0.000000	-0.002798	-0.000498	0.000000	0.000000
66.489286	20.088830	15.286290	-1.920942	1.805711	2.638062	0.000000	0.245488	0.000000	-0.003046	-0.000403	0.000000	0.000000
67.038346	21.888401	13.636719	-1.337566	1.216512	2.751386	0.000000	0.166035	0.000000	-0.003239	-0.000302	0.000000	0.000000
67.587406	22.991426	12.583046	-0.659730	0.713956	2.820155	0.000000	0.083631	0.000000	-0.003376	-0.000194	0.000000	0.000000
68.136466	23.320014	12.050222	0.064695	0.262249	2.843150	0.000000	-0.000258	0.000000	-0.003452	-0.000084	0.000000	0.000000
68.435038	23.322624	11.882317	-0.010786	0.267722	2.845381	0.000000	0.007383	0.000000	-0.003480	-0.000093	0.000000	0.000000
68.768372	23.334579	11.713857	-0.025080	0.237658	2.847874	0.000000	0.007383	0.000000	-0.003511	-0.000093	0.000000	0.000000
69.101705	23.356064	11.565439	-0.039374	0.207595	2.850366	0.000000	0.007383	0.000000	-0.003542	-0.000093	0.000000	0.000000
69.436288	23.387212	11.436620	-0.053721	0.177419	2.852867	0.000000	0.007383	0.000000	-0.003573	-0.000093	0.000000	0.000000
69.733611	23.422957	11.339087	-0.129500	0.181099	2.855090	0.000000	0.015066	0.000000	-0.003601	-0.000102	0.000000	0.000000
70.282671	23.162912	11.367387	0.600310	-0.232948	2.840192	0.000000	-0.069341	0.000000	-0.003625	0.000015	0.000000	0.000000
