#ParticleID	Turn	x[m]	xp	y[m]	yp	z[m]	dE[GeV]# s	beta_x	beta_y	alpha_x	alpha_y	D_x	D_y	D_px	D_py	orbit_x	orbit_px	orbit_y	orbit_py
0.300000	11.959380	25.322631	-0.020000	-0.021675	2.599445	0.000000	0.000478	0.000000	-0.000846	0.000735	0.000000	0.000000
0.601250	11.979021	25.339276	-0.045200	-0.033577	2.599367	0.000000	0.000478	0.000000	-0.000624	0.000735	0.000000	0.000000
0.898573	12.013294	25.362735	-0.040498	-0.107492	2.599291	0.000000	-0.005921	0.000000	-0.000406	0.000736	0.000000	0.000000
1.339533	12.202878	25.176045	-0.390817	0.529253	2.612554	0.000000	0.067548	0.000000	-0.000083	0.000730	0.000000	0.000000
1.780493	12.708099	24.436308	-0.758998	1.141921	2.658353	0.000000	0.141778	0.000000	0.000240	0.000732	0.000000	0.000000
2.221453	13.552047	23.177173	-1.161861	1.702635	2.737206	0.000000	0.217616	0.000000	0.000564	0.000743	0.000000	0.000000
2.662413	14.773287	21.455925	-1.617814	2.185882	2.850007	0.000000	0.295924	0.000000	0.000896	0.000761	0.000000	0.000000
3.108373	16.448715	19.325655	-2.152062	2.570840	2.999886	0.000000	0.378085	0.000000	0.001241	0.000789	0.000000	0.000000
3.657433	18.596409	16.932642	-1.735898	1.813177	3.182006	0.000000	0.285779	0.000000	0.001662	0.000742	0.000000	0.000000
4.206493	20.216652	15.296263	-1.197095	1.184664	3.312008	0.000000	0.188415	0.000000	0.002053	0.000682	0.000000	0.000000
4.755553	21.194966	14.299969	-0.573714	0.640534	3.387592	0.000000	0.087721	0.000000	0.002409	0.000610	0.000000	0.000000
5.304613	21.462223	13.872801	0.090208	0.142028	3.407420	0.000000	-0.014520	0.000000	0.002721	0.000526	0.000000	0.000000
5.603185	21.445227	13.773536	0.021489	0.155139	3.405523	0.000000	-0.005821	0.000000	0.002880	0.000533	0.000000	0.000000
5.936519	21.436084	13.678371	0.005938	0.130356	3.403404	0.000000	-0.005821	0.000000	0.003058	0.000533	0.000000	0.000000
6.269852	21.437309	13.599728	-0.009612	0.105572	3.401286	0.000000	-0.005821	0.000000	0.003236	0.000533	0.000000	0.000000
6.604435	21.448964	13.537406	-0.025221	0.080696	3.399160	0.000000	-0.005821	0.000000	0.003414	0.000533	0.000000	0.000000
6.901758	21.468093	13.495988	-0.093488	0.092892	3.397271	0.000000	0.002787	0.000000	0.003573	0.000543	0.000000	0.000000
7.450818	21.204632	13.655783	0.570758	-0.385627	3.370559	0.000000	-0.099017	0.000000	0.003838	0.000423	0.000000	0.000000
7.999878	20.229584	14.352990	1.194690	-0.891618	3.288416	0.000000	-0.199058	0.000000	0.004036	0.000295	0.000000	0.000000
8.548938	18.611830	15.637281	1.734227	-1.461125	3.152299	0.000000	-0.295562	0.000000	0.004161	0.000162	0.000000	0.000000
9.097998	16.465663	17.600145	2.151249	-2.134718	2.964627	0.000000	-0.386821	0.000000	0.004213	0.000027	0.000000	0.000000
9.543958	14.791192	19.348924	1.616691	-1.769860	2.810272	0.000000	-0.305613	0.000000	0.004249	0.000136	0.000000	0.000000
9.984918	13.571173	20.719291	1.160447	-1.325812	2.692560	0.000000	-0.228383	0.000000	0.004334	0.000247	0.000000	0.000000
10.425878	12.728749	21.669817	0.757228	-0.821433	2.608252	0.000000	-0.153758	0.000000	0.004468	0.000360	0.000000	0.000000
10.866838	12.225424	22.157247	0.388608	-0.279672	2.556385	0.000000	-0.080888	0.000000	0.004652	0.000478	0.000000	0.000000
11.309048	12.038044	22.158824	0.065778	0.222772	2.536349	0.000000	-0.014874	0.000000	0.004891	0.000589	0.000000	0.000000
11.606371	12.006305	22.030541	0.040972	0.208688	2.531751	0.000000	-0.014874	0.000000	0.005066	0.000589	0.000000	0.000000
12.086371	11.986194	21.841115	0.000926	0.185951	2.524329	0.000000	-0.014874	0.000000	0.005349	0.000589	0.000000	0.000000
12.566371	12.004527	21.673515	-0.039120	0.163214	2.516907	0.000000	-0.014874	0.000000	0.005632	0.000589	0.000000	0.000000
13.046371	12.061305	21.527743	-0.079166	0.140478	2.509485	0.000000	-0.014874	0.000000	0.005914	0.000589	0.000000	0.000000
13.526371	12.156527	21.403798	-0.119212	0.117741	2.502063	0.000000	-0.014874	0.000000	0.006197	0.000589	0.000000	0.000000
14.007621	12.290591	21.301443	-0.159363	0.094945	2.494621	0.000000	-0.014874	0.000000	0.006481	0.000589	0.000000	0.000000
14.304943	12.392715	21.249200	-0.155725	0.032260	2.490022	0.000000	-0.020589	0.000000	0.006656	0.000573	0.000000	0.000000
14.745903	12.688937	20.988338	-0.518289	0.557009	2.496218	0.000000	0.049985	0.000000	0.006947	0.000749	0.000000	0.000000
15.186863	13.314178	20.274092	-0.904544	1.056412	2.533554	0.000000	0.121121	0.000000	0.007318	0.000933	0.000000	0.000000
15.627823	14.297027	19.138960	-1.332148	1.507742	2.602454	0.000000	0.193626	0.000000	0.007771	0.001127	0.000000	0.000000
16.068783	15.682419	17.634590	-1.820643	1.890459	2.703699	0.000000	0.268325	0.000000	0.008314	0.001335	0.000000	0.000000
16.514743	17.557319	15.807857	-2.397286	2.188051	2.840135	0.000000	0.346557	0.000000	0.008958	0.001559	0.000000	0.000000
17.063803	19.964523	13.768964	-1.959629	1.546796	3.006087	0.000000	0.259667	0.000000	0.009732	0.001256	0.000000	0.000000
17.612863	21.811649	12.370034	-1.383469	1.015741	3.123161	0.000000	0.168190	0.000000	0.010334	0.000931	0.000000	0.000000
18.161923	22.968118	11.511415	-0.709525	0.557053	3.189287	0.000000	0.073744	0.000000	0.010751	0.000589	0.000000	0.000000
18.710983	23.352172	11.131942	0.014574	0.138052	3.203298	0.000000	-0.022001	0.000000	0.010979	0.000237	0.000000	0.000000
19.009556	23.380197	11.042067	-0.053473	0.136801	3.198907	0.000000	-0.014424	0.000000	0.011057	0.000264	0.000000	0.000000
19.342889	23.420612	10.961117	-0.067771	0.106048	3.194011	0.000000	-0.014424	0.000000	0.011146	0.000264	0.000000	0.000000
19.676223	23.470558	10.900670	-0.082069	0.075295	3.189115	0.000000	-0.014424	0.000000	0.011234	0.000264	0.000000	0.000000
20.010806	23.530569	10.860478	-0.213004	0.098237	3.184220	0.000000	0.001352	0.000000	0.011322	0.000320	0.000000	0.000000
20.308129	23.661249	10.810238	-0.281939	0.096113	3.184533	0.000000	0.008853	0.000000	0.011417	0.000349	0.000000	0.000000
20.857189	23.562949	10.924309	0.459993	-0.305061	3.163187	0.000000	-0.086167	0.000000	0.011507	-0.000023	0.000000	0.000000
21.406249	22.662751	11.488269	1.169417	-0.727972	3.090200	0.000000	-0.179658	0.000000	0.011392	-0.000394	0.000000	0.000000
21.955309	21.024292	12.542297	1.796190	-1.202749	2.966866	0.000000	-0.269968	0.000000	0.011076	-0.000758	0.000000	0.000000
22.504369	18.763396	14.161484	2.296013	-1.763219	2.795369	0.000000	-0.355500	0.000000	0.010563	-0.001108	0.000000	0.000000
22.950329	16.983578	15.616174	1.707860	-1.484397	2.654473	0.000000	-0.278478	0.000000	0.010128	-0.000840	0.000000	0.000000
23.391289	15.704661	16.777594	1.202703	-1.139048	2.548240	0.000000	-0.205108	0.000000	0.009815	-0.000583	0.000000	0.000000
23.832249	14.845537	17.610285	0.752522	-0.741861	2.473713	0.000000	-0.134069	0.000000	0.009613	-0.000332	0.000000	0.000000
24.273209	14.366928	18.076353	0.336740	-0.310912	2.430046	0.000000	-0.064553	0.000000	0.009521	-0.000086	0.000000	0.000000
24.715418	14.247070	18.154306	-0.032029	0.093672	2.416742	0.000000	-0.001151	0.000000	0.009538	0.000138	0.000000	0.000000
25.012741	14.272327	18.103517	-0.052919	0.077151	2.416359	0.000000	-0.001151	0.000000	0.009579	0.000138	0.000000	0.000000
25.346075	14.315413	18.058257	-0.076340	0.058629	2.415930	0.000000	-0.001151	0.000000	0.009624	0.000138	0.000000	0.000000
25.679408	14.374113	18.025345	-0.099760	0.040107	2.415500	0.000000	-0.001151	0.000000	0.009670	0.000138	0.000000	0.000000
26.013991	14.448442	18.005093	-0.006054	-0.124551	2.415045	0.000000	-0.020743	0.000000	0.009716	0.000059	0.000000	0.000000
26.311314	14.458120	18.084193	0.005477	-0.181474	2.408856	0.000000	-0.026093	0.000000	0.009734	0.000036	0.000000	0.000000
26.752274	14.631994	18.048350	-0.401157	0.262437	2.412371	0.000000	0.042359	0.000000	0.009805	0.000288	0.000000	0.000000
27.193234	15.171285	17.624749	-0.826129	0.694405	2.446044	0.000000	0.111291	0.000000	0.009988	0.000543	0.000000	0.000000
27.634194	16.100655	16.832665	-1.288866	1.094770	2.510256	0.000000	0.181484	0.000000	0.010285	0.000804	0.000000	0.000000
28.075154	17.462597	15.708142	-1.810523	1.445312	2.605739	0.000000	0.253737	0.000000	0.010699	0.001075	0.000000	0.000000
28.521114	19.343269	14.285268	-2.420086	1.731195	2.735193	0.000000	0.329348	0.000000	0.011242	0.001360	0.000000	0.000000
29.070174	21.734750	12.700722	-1.908297	1.171289	2.892780	0.000000	0.245990	0.000000	0.011886	0.000985	0.000000	0.000000
29.619234	23.486183	11.681945	-1.261625	0.694836	3.003531	0.000000	0.158282	0.000000	0.012320	0.000593	0.000000	0.000000
30.168294	24.473745	11.156361	-0.525777	0.267889	3.065488	0.000000	0.067776	0.000000	0.012535	0.000190	0.000000	0.000000
30.717354	24.627617	11.086526	0.247233	-0.139970	3.077552	0.000000	-0.023929	0.000000	0.012528	-0.000216	0.000000	0.000000
31.015927	24.517875	11.162862	0.177307	-0.141391	3.072596	0.000000	-0.016761	0.000000	0.012473	-0.000185	0.000000	0.000000
31.349260	24.404345	11.267276	0.163284	-0.171849	3.067071	0.000000	-0.016761	0.000000	0.012411	-0.000185	0.000000	0.000000
31.682593	24.300163	11.391994	0.149261	-0.202307	3.061546	0.000000	-0.016761	0.000000	0.012349	-0.000185	0.000000	0.000000
32.017177	24.204993	11.537600	0.135185	-0.232879	3.056000	0.000000	-0.016761	0.000000	0.012287	-0.000185	0.000000	0.000000
32.314499	24.128430	11.684107	0.066304	-0.232775	3.051078	0.000000	-0.009632	0.000000	0.012232	-0.000155	0.000000	0.000000
32.863559	23.642517	12.178293	0.813052	-0.672441	3.021065	0.000000	-0.100188	0.000000	0.012039	-0.000548	0.000000	0.000000
33.412619	22.363176	13.178687	1.502326	-1.160018	2.941941	0.000000	-0.188975	0.000000	0.011632	-0.000932	0.000000	0.000000
33.961679	20.380856	14.756556	2.085411	-1.730245	2.815105	0.000000	-0.274423	0.000000	0.011018	-0.001299	0.000000	0.000000
34.510739	17.835702	17.024304	2.521095	-2.423745	2.642799	0.000000	-0.355024	0.000000	0.010210	-0.001643	0.000000	0.000000
34.956699	15.858302	19.053112	1.927353	-2.105862	2.501467	0.000000	-0.281973	0.000000	0.009535	-0.001387	0.000000	0.000000
35.397659	14.384384	20.734927	1.426857	-1.693101	2.393056	0.000000	-0.212579	0.000000	0.008976	-0.001148	0.000000	0.000000
35.838619	13.321666	22.017160	0.991585	-1.203290	2.314591	0.000000	-0.145594	0.000000	0.008520	-0.000922	0.000000	0.000000
36.279579	12.621557	22.841467	0.601640	-0.658719	2.265183	0.000000	-0.080259	0.000000	0.008161	-0.000707	0.000000	0.000000
36.721789	12.251402	23.170640	0.266843	-0.136556	2.244249	0.000000	-0.020914	0.000000	0.007894	-0.000519	0.000000	0.000000
37.019112	12.100454	23.255729	0.240847	-0.149627	2.238185	0.000000	-0.020914	0.000000	0.007740	-0.000519	0.000000	0.000000
37.352445	11.949604	23.360366	0.211702	-0.164282	2.231387	0.000000	-0.020914	0.000000	0.007567	-0.000519	0.000000	0.000000
37.685779	11.818185	23.474772	0.182557	-0.178936	2.224589	0.000000	-0.020914	0.000000	0.007394	-0.000519	0.000000	0.000000
38.020362	11.705812	23.599431	0.153302	-0.193645	2.217765	0.000000	-0.020914	0.000000	0.007220	-0.000519	0.000000	0.000000
38.317684	11.622364	23.718502	0.153869	-0.261102	2.211700	0.000000	-0.025969	0.000000	0.007066	-0.000536	0.000000	0.000000
38.758644	11.635536	23.685925	-0.183999	0.334692	2.214405	0.000000	0.037384	0.000000	0.006869	-0.000356	0.000000	0.000000
39.199604	11.949302	23.132589	-0.530273	0.915254	2.245041	0.000000	0.101167	0.000000	0.006751	-0.000181	0.000000	0.000000
39.640564	12.577999	22.083678	-0.900779	1.454164	2.303958	0.000000	0.166104	0.000000	0.006710	-0.000007	0.000000	0.000000
40.081524	13.550362	20.586925	-1.312452	1.926898	2.391829	0.000000	0.232933	0.000000	0.006745	0.000166	0.000000	0.000000
40.527484	14.928383	18.687709	-1.788035	2.313418	2.511138	0.000000	0.302842	0.000000	0.006859	0.000343	0.000000	0.000000
41.076544	16.689492	16.552904	-1.400051	1.597259	2.656690	0.000000	0.226954	0.000000	0.006986	0.000119	0.000000	0.000000
41.625604	17.967268	15.137870	-0.913143	0.994892	2.759521	0.000000	0.147041	0.000000	0.006989	-0.000108	0.000000	0.000000
42.174664	18.671418	14.341800	-0.361717	0.463403	2.817808	0.000000	0.064518	0.000000	0.006868	-0.000332	0.000000	0.000000
42.723724	18.752188	14.107978	0.215259	-0.035071	2.830515	0.000000	-0.019155	0.000000	0.006625	-0.000551	0.000000	0.000000
43.022297	18.656117	14.114422	0.152656	-0.021343	2.827036	0.000000	-0.012177	0.000000	0.006465	-0.000534	0.000000	0.000000
43.502297	18.522205	14.151242	0.126327	-0.055366	2.821448	0.000000	-0.012177	0.000000	0.006209	-0.000534	0.000000	0.000000
43.982297	18.413568	14.220724	0.099999	-0.089389	2.815859	0.000000	-0.012177	0.000000	0.005952	-0.000534	0.000000	0.000000
44.462297	18.330207	14.322869	0.073670	-0.123412	2.810270	0.000000	-0.012177	0.000000	0.005696	-0.000534	0.000000	0.000000
44.942297	18.272121	14.457676	0.047342	-0.157436	2.804681	0.000000	-0.012177	0.000000	0.005440	-0.000534	0.000000	0.000000
45.423547	18.239484	14.625444	-0.069424	-0.119084	2.799095	0.000000	0.001691	0.000000	0.005183	-0.000508	0.000000	0.000000
45.720870	18.285650	14.702375	-0.131540	-0.103033	2.799750	0.000000	0.008694	0.000000	0.005032	-0.000496	0.000000	0.000000
46.269930	18.121943	15.099554	0.427613	-0.624566	2.782125	0.000000	-0.073898	0.000000	0.004716	-0.000653	0.000000	0.000000
46.818990	17.357177	16.090398	0.956545	-1.190588	2.719522	0.000000	-0.155190	0.000000	0.004316	-0.000800	0.000000	0.000000
47.368050	16.045402	17.745478	1.417884	-1.841419	2.613043	0.000000	-0.233741	0.000000	0.003840	-0.000932	0.000000	0.000000
47.917110	14.279316	20.182682	1.779039	-2.623420	2.464573	0.000000	-0.308161	0.000000	0.003296	-0.001048	0.000000	0.000000
48.363070	12.903867	22.348987	1.315608	-2.213600	2.342945	0.000000	-0.239511	0.000000	0.002847	-0.000968	0.000000	0.000000
48.804030	11.923308	24.083351	0.916103	-1.704437	2.252258	0.000000	-0.173986	0.000000	0.002435	-0.000900	0.000000	0.000000
49.244990	11.275393	25.332604	0.558463	-1.117721	2.189977	0.000000	-0.110434	0.000000	0.002052	-0.000842	0.000000	0.000000
49.685950	10.930509	26.039911	0.226346	-0.480150	2.155398	0.000000	-0.048131	0.000000	0.001691	-0.000794	0.000000	0.000000
50.128160	10.873062	26.172807	-0.069218	0.116137	2.148141	0.000000	0.008433	0.000000	0.001349	-0.000758	0.000000	0.000000
50.425482	10.922392	26.107170	-0.096694	0.104624	2.150873	0.000000	0.008433	0.000000	0.001124	-0.000758	0.000000	0.000000
50.758816	10.997123	26.041723	-0.127498	0.091716	2.153937	0.000000	0.008433	0.000000	0.000871	-0.000758	0.000000	0.000000
51.092149	11.092389	25.984882	-0.158301	0.078808	2.157000	0.000000	0.008433	0.000000	0.000619	-0.000758	0.000000	0.000000
51.426732	11.208437	25.937007	-0.098291	-0.144561	2.160053	0.000000	-0.009091	0.000000	0.000365	-0.000761	0.000000	0.000000
51.724055	11.274848	26.026449	-0.097461	-0.220288	2.157577	0.000000	-0.014375	0.000000	0.000139	-0.000761	0.000000	0.000000
52.165015	11.507599	25.931007	-0.432617	0.435905	2.165228	0.000000	0.047635	0.000000	-0.000196	-0.000762	0.000000	0.000000
52.605975	12.043488	25.263429	-0.787533	1.072262	2.200320	0.000000	0.110195	0.000000	-0.000534	-0.000771	0.000000	0.000000
53.046935	12.906990	24.054096	-1.178423	1.659829	2.263256	0.000000	0.174019	0.000000	-0.000878	-0.000789	0.000000	0.000000
53.487895	14.137546	22.358038	-1.623143	2.171875	2.354756	0.000000	0.239833	0.000000	-0.001232	-0.000817	0.000000	0.000000
53.933855	15.812402	20.227088	-2.146283	2.586415	2.477380	0.000000	0.308784	0.000000	-0.001604	-0.000853	0.000000	0.000000
54.482915	17.968218	17.828797	-1.757347	1.807474	2.627029	0.000000	0.233946	0.000000	-0.002057	-0.000794	0.000000	0.000000
55.031975	19.625842	16.210577	-1.244307	1.157272	2.734347	0.000000	0.154946	0.000000	-0.002473	-0.000721	0.000000	0.000000
55.581035	20.668223	15.257159	-0.643399	0.589498	2.797424	0.000000	0.073185	0.000000	-0.002846	-0.000635	0.000000	0.000000
56.130095	21.021761	14.900628	0.002937	0.063711	2.815137	0.000000	-0.009883	0.000000	-0.003168	-0.000537	0.000000	0.000000
56.428668	21.057917	14.844707	-0.067680	0.083529	2.814602	0.000000	-0.002334	0.000000	-0.003331	-0.000546	0.000000	0.000000
56.762001	21.108337	14.796558	-0.083582	0.060917	2.814006	0.000000	-0.002334	0.000000	-0.003513	-0.000546	0.000000	0.000000
57.095334	21.169359	14.763484	-0.099483	0.038306	2.813410	0.000000	-0.002334	0.000000	-0.003695	-0.000546	0.000000	0.000000
57.429918	21.241271	14.745444	-0.115445	0.015610	2.812811	0.000000	-0.002334	0.000000	-0.003877	-0.000546	0.000000	0.000000
57.727240	21.314147	14.742151	-0.187182	0.035133	2.812280	0.000000	0.005260	0.000000	-0.004039	-0.000556	0.000000	0.000000
58.276300	21.155331	14.986190	0.474441	-0.482250	2.792628	0.000000	-0.077682	0.000000	-0.004308	-0.000421	0.000000	0.000000
58.825360	20.284252	15.813754	1.102550	-1.033978	2.727676	0.000000	-0.159253	0.000000	-0.004500	-0.000278	0.000000	0.000000
59.374420	18.762434	17.283776	1.652789	-1.659342	2.618571	0.000000	-0.238005	0.000000	-0.004613	-0.000131	0.000000	0.000000
59.923480	16.697346	19.500948	2.086304	-2.402882	2.467248	0.000000	-0.312537	0.000000	-0.004643	0.000019	0.000000	0.000000
60.369440	15.079695	21.471345	1.553997	-1.996953	2.343264	0.000000	-0.243884	0.000000	-0.004662	-0.000101	0.000000	0.000000
60.810400	13.915242	23.019793	1.096854	-1.501459	2.250325	0.000000	-0.178392	0.000000	-0.004733	-0.000223	0.000000	0.000000
61.251360	13.130375	24.099381	0.689815	-0.937659	2.185841	0.000000	-0.114929	0.000000	-0.004858	-0.000346	0.000000	0.000000
61.692320	12.689243	24.660996	0.314288	-0.331204	2.149079	0.000000	-0.052771	0.000000	-0.005039	-0.000474	0.000000	0.000000
62.134530	12.571742	24.678505	-0.014631	0.226981	2.139628	0.000000	0.003285	0.000000	-0.005278	-0.000593	0.000000	0.000000
62.431853	12.587476	24.547299	-0.038286	0.214313	2.140781	0.000000	0.003285	0.000000	-0.005454	-0.000593	0.000000	0.000000
62.765186	12.621840	24.409158	-0.064807	0.200110	2.142074	0.000000	0.003285	0.000000	-0.005652	-0.000593	0.000000	0.000000
63.098520	12.673885	24.280486	-0.091327	0.185907	2.143367	0.000000	0.003285	0.000000	-0.005850	-0.000593	0.000000	0.000000
63.433103	12.743904	24.160853	-0.117946	0.171651	2.144665	0.000000	0.003285	0.000000	-0.006048	-0.000593	0.000000	0.000000
63.730426	12.821059	24.062575	-0.108342	0.096356	2.145817	0.000000	-0.002281	0.000000	-0.006225	-0.000578	0.000000	0.000000
64.171386	13.079016	23.712716	-0.479164	0.694101	2.158697	0.000000	0.059483	0.000000	-0.006515	-0.000742	0.000000	0.000000
64.612346	13.672320	22.847708	-0.871865	1.260268	2.199006	0.000000	0.121932	0.000000	-0.006880	-0.000915	0.000000	0.000000
65.053306	14.628057	21.506911	-1.304380	1.769102	2.267208	0.000000	0.185779	0.000000	-0.007323	-0.001098	0.000000	0.000000
65.494266	15.989863	19.751326	-1.796459	2.197456	2.364082	0.000000	0.251754	0.000000	-0.007850	-0.001293	0.000000	0.000000
65.940226	17.843231	17.635966	-2.375092	2.526416	2.492319	0.000000	0.320984	0.000000	-0.008473	-0.001505	0.000000	0.000000
66.489286	20.216395	15.270062	-1.922835	1.808565	2.648787	0.000000	0.245569	0.000000	-0.009222	-0.001218	0.000000	0.000000
67.038346	22.015103	13.617447	-1.334837	1.219506	2.762430	0.000000	0.165780	0.000000	-0.009807	-0.000910	0.000000	0.000000
67.587406	23.112404	12.560419	-0.652612	0.717290	2.831223	0.000000	0.083036	0.000000	-0.010218	-0.000586	0.000000	0.000000
68.136466	23.430860	12.023697	0.075677	0.266152	2.853943	0.000000	-0.001190	0.000000	-0.010448	-0.000251	0.000000	0.000000
68.435038	23.429070	11.852505	-0.003500	0.273213	2.856083	0.000000	0.006902	0.000000	-0.010532	-0.000279	0.000000	0.000000
68.768372	23.436147	11.680438	-0.017728	0.242990	2.858477	0.000000	0.006902	0.000000	-0.010625	-0.000279	0.000000	0.000000
69.101705	23.452708	11.528518	-0.031955	0.212768	2.860871	0.000000	0.006902	0.000000	-0.010718	-0.000279	0.000000	0.000000
69.436288	23.478869	11.396291	-0.046236	0.182432	2.863273	0.000000	0.006902	0.000000	-0.010811	-0.000279	0.000000	0.000000
69.733611	23.510219	11.295785	-0.125798	0.187556	2.865414	0.000000	0.015052	0.000000	-0.010894	-0.000309	0.000000	0.000000
70.282671	23.244636	11.316284	0.606626	-0.225117	2.850469	0.000000	-0.069670	0.000000	-0.010967	0.000045	0.000000	0.000000
