#ParticleID	Turn	x[m]	xp	y[m]	yp	z[m]	dE[GeV]# s	beta_x	beta_y	alpha_x	alpha_y	D_x	D_y	D_px	D_py	orbit_x	orbit_px	orbit_y	orbit_py
0.300000	11.956717	25.248988	-0.016119	-0.023803	2.599775	0.000000	-0.000846	0.000000	-0.001165	0.000992	0.000000	0.000000
0.601250	11.974021	25.266925	-0.041321	-0.035741	2.599221	0.000000	-0.000846	0.000000	-0.000866	0.000992	0.000000	0.000000
0.898573	12.005987	25.291682	-0.036592	-0.109522	2.598675	0.000000	-0.007253	0.000000	-0.000571	0.000993	0.000000	0.000000
1.339533	12.192061	25.107603	-0.386644	0.525387	2.611238	0.000000	0.066191	0.000000	-0.000136	0.000984	0.000000	0.000000
1.780493	12.693454	24.372024	-0.754367	1.136394	2.656322	0.000000	0.140378	0.000000	0.000298	0.000986	0.000000	0.000000
2.221453	13.533084	23.118403	-1.156564	1.695700	2.734436	0.000000	0.216154	0.000000	0.000735	0.000999	0.000000	0.000000
2.662413	14.749322	21.403772	-1.611611	2.177854	2.846466	0.000000	0.294380	0.000000	0.001181	0.001024	0.000000	0.000000
3.108373	16.418770	19.281004	-2.144669	2.562096	2.995522	0.000000	0.376440	0.000000	0.001645	0.001061	0.000000	0.000000
3.657433	18.558662	16.896468	-1.729004	1.806360	3.176643	0.000000	0.284290	0.000000	0.002212	0.000998	0.000000	0.000000
4.206493	20.171918	15.266729	-1.191179	1.179289	3.305750	0.000000	0.187113	0.000000	0.002738	0.000918	0.000000	0.000000
4.755553	21.144548	14.275713	-0.569187	0.636219	3.380559	0.000000	0.086631	0.000000	0.003217	0.000822	0.000000	0.000000
5.304613	21.407812	13.852839	0.093033	0.138467	3.399749	0.000000	-0.015374	0.000000	0.003638	0.000710	0.000000	0.000000
5.603185	21.388794	13.755925	0.024851	0.151205	3.397514	0.000000	-0.006765	0.000000	0.003853	0.000720	0.000000	0.000000
5.936519	21.377425	13.663383	0.009257	0.126419	3.395019	0.000000	-0.006765	0.000000	0.004093	0.000720	0.000000	0.000000
6.269852	21.376452	13.587366	-0.006338	0.101633	3.392524	0.000000	-0.006765	0.000000	0.004333	0.000720	0.000000	0.000000
6.604435	21.385930	13.527681	-0.021990	0.076754	3.390020	0.000000	-0.006765	0.000000	0.004573	0.000720	0.000000	0.000000
6.901758	21.403156	13.488604	-0.089548	0.088599	3.387796	0.000000	0.001727	0.000000	0.004787	0.000732	0.000000	0.000000
7.450818	21.136636	13.653039	0.572448	-0.389831	3.360498	0.000000	-0.099764	0.000000	0.005146	0.000571	0.000000	0.000000
7.999878	20.161052	14.354965	1.194012	-0.896034	3.277966	0.000000	-0.199476	0.000000	0.005413	0.000400	0.000000	0.000000
8.548938	18.545323	15.644392	1.731226	-1.466071	3.141666	0.000000	-0.295643	0.000000	0.005584	0.000222	0.000000	0.000000
9.097998	16.403606	17.613181	2.146130	-2.140552	2.954021	0.000000	-0.386562	0.000000	0.005656	0.000040	0.000000	0.000000
9.543958	14.732994	19.367227	1.613053	-1.775699	2.799704	0.000000	-0.305619	0.000000	0.005706	0.000187	0.000000	0.000000
9.984918	13.515570	20.742689	1.158148	-1.331417	2.681898	0.000000	-0.228661	0.000000	0.005821	0.000336	0.000000	0.000000
10.425878	12.674622	21.697981	0.756166	-0.826546	2.597359	0.000000	-0.154310	0.000000	0.006003	0.000488	0.000000	0.000000
10.866838	12.171719	22.189627	0.388736	-0.284059	2.545123	0.000000	-0.081723	0.000000	0.006253	0.000646	0.000000	0.000000
11.309048	11.983730	22.194672	0.066492	0.220056	2.524573	0.000000	-0.015873	0.000000	0.006575	0.000796	0.000000	0.000000
11.606371	11.951600	22.067993	0.041572	0.206011	2.519617	0.000000	-0.015873	0.000000	0.006812	0.000796	0.000000	0.000000
12.086371	11.931002	21.881106	0.001341	0.183337	2.511616	0.000000	-0.015873	0.000000	0.007194	0.000796	0.000000	0.000000
12.566371	11.949026	21.715986	-0.038891	0.160663	2.503615	0.000000	-0.015873	0.000000	0.007576	0.000796	0.000000	0.000000
13.046371	12.005672	21.572634	-0.079122	0.137989	2.495614	0.000000	-0.015873	0.000000	0.007958	0.000796	0.000000	0.000000
13.526371	12.100941	21.451048	-0.119354	0.115314	2.487612	0.000000	-0.015873	0.000000	0.008340	0.000796	0.000000	0.000000
14.007621	12.235231	21.350999	-0.159690	0.092581	2.479591	0.000000	-0.015873	0.000000	0.008723	0.000796	0.000000	0.000000
14.304943	12.337570	21.300172	-0.156980	0.031062	2.474632	0.000000	-0.021415	0.000000	0.008960	0.000775	0.000000	0.000000
14.745903	12.634412	21.039739	-0.518341	0.557217	2.480276	0.000000	0.048759	0.000000	0.009353	0.001011	0.000000	0.000000
15.186863	13.259243	20.324666	-0.903400	1.058015	2.516858	0.000000	0.119479	0.000000	0.009853	0.001259	0.000000	0.000000
15.627823	14.240640	19.187487	-1.329762	1.510665	2.584788	0.000000	0.191546	0.000000	0.010465	0.001521	0.000000	0.000000
16.068783	15.623483	17.679945	-1.816918	1.894564	2.684835	0.000000	0.265779	0.000000	0.011197	0.001800	0.000000	0.000000
16.514743	17.494669	15.848938	-2.392116	2.193226	2.819821	0.000000	0.343516	0.000000	0.012066	0.002102	0.000000	0.000000
17.063803	19.897589	13.805091	-1.956567	1.550521	2.984035	0.000000	0.257302	0.000000	0.013110	0.001694	0.000000	0.000000
17.612863	21.742821	12.402668	-1.382704	1.018289	3.099813	0.000000	0.166551	0.000000	0.013921	0.001256	0.000000	0.000000
18.161923	22.899886	11.541762	-0.711087	0.558612	3.165111	0.000000	0.072864	0.000000	0.014485	0.000795	0.000000	0.000000
18.710983	23.286958	11.161043	0.010806	0.138737	3.178776	0.000000	-0.022103	0.000000	0.014792	0.000321	0.000000	0.000000
19.009556	23.315846	11.071331	-0.055049	0.136619	3.174221	0.000000	-0.014866	0.000000	0.014898	0.000357	0.000000	0.000000
19.342889	23.357324	10.990475	-0.069388	0.105949	3.169146	0.000000	-0.014866	0.000000	0.015017	0.000357	0.000000	0.000000
19.676223	23.408363	10.930066	-0.083728	0.075279	3.164072	0.000000	-0.014866	0.000000	0.015136	0.000357	0.000000	0.000000
20.010806	23.469498	10.889856	-0.214403	0.098450	3.158998	0.000000	0.000785	0.000000	0.015256	0.000433	0.000000	0.000000
20.308129	23.601095	10.839435	-0.281039	0.095479	3.159113	0.000000	0.007931	0.000000	0.015385	0.000470	0.000000	0.000000
20.857189	23.502879	10.954669	0.458970	-0.306548	3.137455	0.000000	-0.086271	0.000000	0.015506	-0.000030	0.000000	0.000000
21.406249	22.604759	11.520808	1.166538	-0.730418	3.064670	0.000000	-0.178943	0.000000	0.015351	-0.000530	0.000000	0.000000
21.955309	20.970241	12.578189	1.791642	-1.206336	2.942049	0.000000	-0.268447	0.000000	0.014925	-0.001021	0.000000	0.000000
22.504369	18.714902	14.202146	2.290091	-1.768212	2.771763	0.000000	-0.353205	0.000000	0.014233	-0.001493	0.000000	0.000000
22.950329	16.939536	15.660949	1.703211	-1.488299	2.631892	0.000000	-0.276765	0.000000	0.013648	-0.001132	0.000000	0.000000
23.391289	15.664087	16.825355	1.199199	-1.141760	2.526388	0.000000	-0.203962	0.000000	0.013226	-0.000785	0.000000	0.000000
23.832249	14.807533	17.659903	0.750015	-0.743254	2.452308	0.000000	-0.133474	0.000000	0.012954	-0.000448	0.000000	0.000000
24.273209	14.330702	18.126614	0.335120	-0.310920	2.408812	0.000000	-0.064502	0.000000	0.012830	-0.000115	0.000000	0.000000
24.715418	14.211943	18.203918	-0.034068	0.096408	2.395407	0.000000	-0.001401	0.000000	0.012853	0.000186	0.000000	0.000000
25.012741	14.238428	18.151491	-0.055013	0.079923	2.394935	0.000000	-0.001401	0.000000	0.012908	0.000186	0.000000	0.000000
25.346075	14.282931	18.104369	-0.078495	0.061442	2.394406	0.000000	-0.001401	0.000000	0.012970	0.000186	0.000000	0.000000
25.679408	14.343088	18.069569	-0.101976	0.042961	2.393877	0.000000	-0.001401	0.000000	0.013033	0.000186	0.000000	0.000000
26.013991	14.418921	18.047393	-0.008570	-0.121999	2.393321	0.000000	-0.020817	0.000000	0.013095	0.000080	0.000000	0.000000
26.311314	14.430075	18.125003	0.001655	-0.177452	2.387102	0.000000	-0.025920	0.000000	0.013119	0.000050	0.000000	0.000000
26.752274	14.607087	18.085123	-0.404435	0.267529	2.390546	0.000000	0.041976	0.000000	0.013215	0.000390	0.000000	0.000000
27.193234	15.149140	17.656621	-0.829015	0.700334	2.423866	0.000000	0.110347	0.000000	0.013463	0.000733	0.000000	0.000000
27.634194	16.081028	16.858997	-1.291501	1.101264	2.487440	0.000000	0.179966	0.000000	0.013864	0.001086	0.000000	0.000000
28.075154	17.445374	15.728547	-1.813038	1.452070	2.581988	0.000000	0.251625	0.000000	0.014422	0.001450	0.000000	0.000000
28.521114	19.328625	14.299466	-2.422705	1.737986	2.710195	0.000000	0.326621	0.000000	0.015154	0.001834	0.000000	0.000000
29.070174	21.723718	12.707966	-1.911717	1.177068	2.866301	0.000000	0.244086	0.000000	0.016024	0.001329	0.000000	0.000000
29.619234	23.479428	11.683141	-1.265573	0.700023	2.976104	0.000000	0.157241	0.000000	0.016610	0.000800	0.000000	0.000000
30.168294	24.471593	11.151979	-0.529953	0.272860	3.037662	0.000000	0.067618	0.000000	0.016901	0.000257	0.000000	0.000000
30.717354	24.630044	11.076635	0.243133	-0.134859	3.049886	0.000000	-0.023200	0.000000	0.016891	-0.000290	0.000000	0.000000
31.015927	24.521143	11.150649	0.175748	-0.137432	3.045048	0.000000	-0.016410	0.000000	0.016817	-0.000250	0.000000	0.000000
31.349260	24.408650	11.252424	0.161734	-0.167890	3.039661	0.000000	-0.016410	0.000000	0.016734	-0.000250	0.000000	0.000000
31.682593	24.305498	11.374503	0.147720	-0.198349	3.034274	0.000000	-0.016410	0.000000	0.016650	-0.000250	0.000000	0.000000
32.017177	24.211355	11.517461	0.133654	-0.228921	3.028867	0.000000	-0.016410	0.000000	0.016567	-0.000250	0.000000	0.000000
32.314499	24.135787	11.661572	0.067187	-0.230050	3.024074	0.000000	-0.009648	0.000000	0.016493	-0.000210	0.000000	0.000000
32.863559	23.648659	12.152393	0.814231	-0.668949	2.994351	0.000000	-0.099345	0.000000	0.016232	-0.000740	0.000000	0.000000
33.412619	22.367732	13.148480	1.503705	-1.155514	2.916053	0.000000	-0.187291	0.000000	0.015683	-0.001257	0.000000	0.000000
33.961679	20.383599	14.720796	2.086865	-1.724416	2.790564	0.000000	-0.271933	0.000000	0.014855	-0.001752	0.000000	0.000000
34.510739	17.836574	16.981356	2.522488	-2.416188	2.620098	0.000000	-0.351779	0.000000	0.013764	-0.002216	0.000000	0.000000
34.956699	15.857769	19.003847	1.928481	-2.098964	2.480302	0.000000	-0.279282	0.000000	0.012854	-0.001870	0.000000	0.000000
35.397659	14.382761	20.680101	1.427859	-1.687261	2.373144	0.000000	-0.210413	0.000000	0.012101	-0.001548	0.000000	0.000000
35.838619	13.319082	21.957804	0.992521	-1.198768	2.295675	0.000000	-0.143924	0.000000	0.011485	-0.001244	0.000000	0.000000
36.279579	12.618081	22.778815	0.602561	-0.655717	2.247018	0.000000	-0.079061	0.000000	0.011001	-0.000955	0.000000	0.000000
36.721789	12.247072	23.106034	0.266969	-0.133465	2.226603	0.000000	-0.019985	0.000000	0.010641	-0.000700	0.000000	0.000000
37.019112	12.096053	23.189293	0.240962	-0.146562	2.220870	0.000000	-0.019985	0.000000	0.010433	-0.000700	0.000000	0.000000
37.352445	11.945131	23.291896	0.211804	-0.161246	2.214441	0.000000	-0.019985	0.000000	0.010199	-0.000700	0.000000	0.000000
37.685779	11.813647	23.404287	0.182647	-0.175929	2.208013	0.000000	-0.019985	0.000000	0.009966	-0.000700	0.000000	0.000000
38.020362	11.701218	23.526944	0.153380	-0.190667	2.201561	0.000000	-0.019985	0.000000	0.009731	-0.000700	0.000000	0.000000
38.317684	11.617712	23.644280	0.153236	-0.256635	2.195825	0.000000	-0.024873	0.000000	0.009523	-0.000723	0.000000	0.000000
38.758644	11.631385	23.608635	-0.184555	0.337152	2.198991	0.000000	0.038080	0.000000	0.009258	-0.000480	0.000000	0.000000
39.199604	11.945613	23.054042	-0.530778	0.915592	2.229889	0.000000	0.101473	0.000000	0.009099	-0.000244	0.000000	0.000000
39.640564	12.574759	22.005744	-0.901259	1.452363	2.288872	0.000000	0.166024	0.000000	0.009043	-0.000010	0.000000	0.000000
40.081524	13.547581	20.511448	-1.312931	1.923034	2.376613	0.000000	0.232467	0.000000	0.009090	0.000224	0.000000	0.000000
40.527484	14.926144	18.616430	-1.788590	2.307712	2.495597	0.000000	0.301988	0.000000	0.009243	0.000462	0.000000	0.000000
41.076544	16.688009	16.486601	-1.400718	1.593717	2.640779	0.000000	0.226603	0.000000	0.009413	0.000159	0.000000	0.000000
41.625604	17.966599	15.074338	-0.913865	0.993269	2.743561	0.000000	0.147201	0.000000	0.009417	-0.000146	0.000000	0.000000
42.174664	18.671548	14.279025	-0.362438	0.463589	2.802119	0.000000	0.065185	0.000000	0.009254	-0.000448	0.000000	0.000000
42.723724	18.753042	14.043996	0.214592	-0.033061	2.815409	0.000000	-0.017995	0.000000	0.008926	-0.000743	0.000000	0.000000
43.022297	18.656762	14.049794	0.152971	-0.020284	2.812276	0.000000	-0.011203	0.000000	0.008711	-0.000720	0.000000	0.000000
43.502297	18.522548	14.085672	0.126641	-0.054462	2.807245	0.000000	-0.011203	0.000000	0.008366	-0.000720	0.000000	0.000000
43.982297	18.413611	14.154361	0.100311	-0.088640	2.802213	0.000000	-0.011203	0.000000	0.008020	-0.000720	0.000000	0.000000
44.462297	18.329950	14.255861	0.073981	-0.122819	2.797182	0.000000	-0.011203	0.000000	0.007674	-0.000720	0.000000	0.000000
44.942297	18.271567	14.390173	0.047651	-0.156997	2.792150	0.000000	-0.011203	0.000000	0.007328	-0.000720	0.000000	0.000000
45.423547	18.238633	14.557593	-0.069112	-0.119137	2.787123	0.000000	0.002606	0.000000	0.006982	-0.000686	0.000000	0.000000
45.720870	18.284625	14.634576	-0.130506	-0.103966	2.788104	0.000000	0.009470	0.000000	0.006778	-0.000669	0.000000	0.000000
46.269930	18.119733	15.031701	0.428611	-0.623516	2.771112	0.000000	-0.072759	0.000000	0.006351	-0.000881	0.000000	0.000000
46.818990	17.353839	16.020299	0.957429	-1.187483	2.709360	0.000000	-0.153711	0.000000	0.005813	-0.001078	0.000000	0.000000
47.368050	16.041082	17.670782	1.418583	-1.836041	2.603937	0.000000	-0.231954	0.000000	0.005171	-0.001256	0.000000	0.000000
47.917110	14.274243	20.100708	1.779492	-2.615388	2.456704	0.000000	-0.306103	0.000000	0.004437	-0.001412	0.000000	0.000000
48.363070	12.898298	22.260766	1.316080	-2.207608	2.336100	0.000000	-0.237639	0.000000	0.003832	-0.001305	0.000000	0.000000
48.804030	11.917233	23.990881	0.916638	-1.700779	2.246339	0.000000	-0.172278	0.000000	0.003277	-0.001213	0.000000	0.000000
49.244990	11.268756	25.238016	0.559090	-1.116562	2.184909	0.000000	-0.108866	0.000000	0.002760	-0.001135	0.000000	0.000000
49.685950	10.923223	25.945434	0.227096	-0.481542	2.151115	0.000000	-0.046683	0.000000	0.002274	-0.001070	0.000000	0.000000
50.128160	10.865008	26.080672	-0.068445	0.112857	2.144591	0.000000	0.009813	0.000000	0.001813	-0.001022	0.000000	0.000000
50.425482	10.913883	26.016995	-0.095938	0.101311	2.147813	0.000000	0.009813	0.000000	0.001509	-0.001022	0.000000	0.000000
50.758816	10.988117	25.953769	-0.126762	0.088368	2.151424	0.000000	0.009813	0.000000	0.001168	-0.001022	0.000000	0.000000
51.092149	11.082899	25.899171	-0.157585	0.075424	2.155036	0.000000	0.009813	0.000000	0.000827	-0.001022	0.000000	0.000000
51.426732	11.198474	25.853571	-0.097674	-0.147305	2.158639	0.000000	-0.007700	0.000000	0.000485	-0.001026	0.000000	0.000000
51.724055	11.264525	25.944659	-0.096901	-0.222950	2.156655	0.000000	-0.012979	0.000000	0.000180	-0.001027	0.000000	0.000000
52.165015	11.496637	25.852511	-0.431808	0.431126	2.165031	0.000000	0.049016	0.000000	-0.000272	-0.001028	0.000000	0.000000
52.605975	12.031649	25.190006	-0.786435	1.065582	2.200846	0.000000	0.111581	0.000000	-0.000728	-0.001041	0.000000	0.000000
53.046935	12.893991	23.987298	-1.176984	1.651552	2.264514	0.000000	0.175427	0.000000	-0.001192	-0.001065	0.000000	0.000000
53.487895	14.123051	22.299118	-1.621294	2.162377	2.356762	0.000000	0.241283	0.000000	-0.001669	-0.001102	0.000000	0.000000
53.933855	15.795977	20.177040	-2.143921	2.576117	2.480172	0.000000	0.310294	0.000000	-0.002172	-0.001152	0.000000	0.000000
54.482915	17.949349	17.788805	-1.755457	1.799388	2.630774	0.000000	0.235352	0.000000	-0.002783	-0.001072	0.000000	0.000000
55.031975	19.605128	16.178538	-1.243031	1.150821	2.738967	0.000000	0.156219	0.000000	-0.003345	-0.000973	0.000000	0.000000
55.581035	20.646404	15.231533	-0.642836	0.584222	2.802824	0.000000	0.074299	0.000000	-0.003848	-0.000856	0.000000	0.000000
56.130095	20.999666	14.880330	0.002741	0.059235	2.821207	0.000000	-0.008953	0.000000	-0.004282	-0.000724	0.000000	0.000000
56.428668	21.036203	14.826885	-0.068335	0.079382	2.821032	0.000000	-0.001320	0.000000	-0.004502	-0.000736	0.000000	0.000000
56.762001	21.087066	14.781505	-0.084255	0.056759	2.820837	0.000000	-0.001320	0.000000	-0.004747	-0.000736	0.000000	0.000000
57.095334	21.148543	14.751207	-0.100174	0.034135	2.820642	0.000000	-0.001320	0.000000	-0.004993	-0.000736	0.000000	0.000000
57.429918	21.220922	14.735962	-0.116154	0.011427	2.820447	0.000000	-0.001320	0.000000	-0.005239	-0.000736	0.000000	0.000000
57.727240	21.294233	14.735154	-0.188496	0.031327	2.820274	0.000000	0.006381	0.000000	-0.005457	-0.000750	0.000000	0.000000
58.276300	21.137177	14.983291	0.472471	-0.485961	2.801256	0.000000	-0.076827	0.000000	-0.005820	-0.000568	0.000000	0.000000
58.825360	20.268541	15.814979	1.100062	-1.037856	2.736761	0.000000	-0.158681	0.000000	-0.006079	-0.000375	0.000000	0.000000
59.374420	18.749672	17.289440	1.649962	-1.663659	2.627930	0.000000	-0.237727	0.000000	-0.006230	-0.000175	0.000000	0.000000
59.923480	16.687823	19.511677	2.083344	-2.407940	2.476690	0.000000	-0.312560	0.000000	-0.006271	0.000027	0.000000	0.000000
60.369440	15.072596	21.486646	1.551519	-2.002137	2.352755	0.000000	-0.243670	0.000000	-0.006295	-0.000136	0.000000	0.000000
60.810400	13.910192	23.039580	1.094703	-1.506494	2.259990	0.000000	-0.177934	0.000000	-0.006391	-0.000299	0.000000	0.000000
61.251360	13.127118	24.123434	0.687889	-0.942320	2.195806	0.000000	-0.114221	0.000000	-0.006560	-0.000466	0.000000	0.000000
61.692320	12.687608	24.688903	0.312497	-0.335281	2.159474	0.000000	-0.051804	0.000000	-0.006803	-0.000639	0.000000	0.000000
62.134530	12.571641	24.709675	-0.015847	0.222645	2.150592	0.000000	0.004407	0.000000	-0.007125	-0.000800	0.000000	0.000000
62.431853	12.588098	24.581036	-0.039503	0.210016	2.152141	0.000000	0.004407	0.000000	-0.007363	-0.000800	0.000000	0.000000
62.765186	12.623273	24.445745	-0.066024	0.195857	2.153876	0.000000	0.004407	0.000000	-0.007629	-0.000800	0.000000	0.000000
63.098520	12.676130	24.319893	-0.092546	0.181698	2.155612	0.000000	0.004407	0.000000	-0.007896	-0.000800	0.000000	0.000000
63.433103	12.746965	24.203062	-0.119166	0.167486	2.157355	0.000000	0.004407	0.000000	-0.008164	-0.000800	0.000000	0.000000
63.730426	12.824834	24.107271	-0.108931	0.090874	2.158901	0.000000	-0.001298	0.000000	-0.008402	-0.000779	0.000000	0.000000
64.171386	13.083300	23.761697	-0.479836	0.689926	2.172387	0.000000	0.060808	0.000000	-0.008793	-0.001000	0.000000	0.000000
64.612346	13.677175	22.899752	-0.872646	1.257591	2.213481	0.000000	0.123616	0.000000	-0.009285	-0.001233	0.000000	0.000000
65.053306	14.633564	21.560653	-1.305298	1.768047	2.282655	0.000000	0.187845	0.000000	-0.009883	-0.001480	0.000000	0.000000
65.494266	15.996123	19.805326	-1.797548	2.198077	2.380703	0.000000	0.254229	0.000000	-0.010593	-0.001744	0.000000	0.000000
65.940226	17.850427	17.688695	-2.376313	2.528649	2.510351	0.000000	0.323893	0.000000	-0.011434	-0.002030	0.000000	0.000000
66.489286	20.224628	15.321151	-1.923932	1.809524	2.668497	0.000000	0.247876	0.000000	-0.012444	-0.001643	0.000000	0.000000
67.038346	22.024243	13.668228	-1.335761	1.219251	2.783420	0.000000	0.167436	0.000000	-0.013232	-0.001227	0.000000	0.000000
67.587406	23.122296	12.612207	-0.653317	0.715795	2.853070	0.000000	0.084007	0.000000	-0.013787	-0.000789	0.000000	0.000000
68.136466	23.441321	12.077882	0.075227	0.263307	2.876205	0.000000	-0.000923	0.000000	-0.014097	-0.000338	0.000000	0.000000
68.435038	23.440800	11.907737	-0.005726	0.271586	2.878533	0.000000	0.007447	0.000000	-0.014209	-0.000377	0.000000	0.000000
68.768372	23.449357	11.736699	-0.019946	0.241528	2.881141	0.000000	0.007447	0.000000	-0.014335	-0.000377	0.000000	0.000000
69.101705	23.467395	11.585700	-0.034167	0.211470	2.883748	0.000000	0.007447	0.000000	-0.014460	-0.000377	0.000000	0.000000
69.436288	23.495034	11.454286	-0.048441	0.181300	2.886366	0.000000	0.007447	0.000000	-0.014586	-0.000377	0.000000	0.000000
69.733611	23.527759	11.354376	-0.129871	0.187602	2.888701	0.000000	0.015887	0.000000	-0.014698	-0.000417	0.000000	0.000000
70.282671	23.266332	11.375709	0.603171	-0.226695	2.874036	0.000000	-0.069584	0.000000	-0.014797	0.000060	0.000000	0.000000
