#ParticleID	Turn	x[m]	xp	y[m]	yp	z[m]	dE[GeV]# s	beta_x	beta_y	alpha_x	alpha_y	D_x	D_y	D_px	D_py	orbit_x	orbit_px	orbit_y	orbit_py
0.300000	11.933563	25.259595	-0.019670	-0.022486	2.603422	0.000000	0.000647	0.000000	-0.000603	0.000528	0.000000	0.000000
0.601250	11.953022	25.276737	-0.044924	-0.034418	2.603457	0.000000	0.000647	0.000000	-0.000444	0.000528	0.000000	0.000000
0.898573	11.987146	25.300705	-0.040372	-0.108217	2.603493	0.000000	-0.005755	0.000000	-0.000287	0.000528	0.000000	0.000000
1.339533	12.176324	25.115374	-0.390090	0.526907	2.616942	0.000000	0.067825	0.000000	-0.000055	0.000524	0.000000	0.000000
1.780493	12.680594	24.378386	-0.757634	1.138058	2.662976	0.000000	0.142172	0.000000	0.000176	0.000526	0.000000	0.000000
2.221453	13.522999	23.123267	-1.159796	1.697431	2.742117	0.000000	0.218132	0.000000	0.000409	0.000533	0.000000	0.000000
2.662413	14.742033	21.407120	-1.614952	2.179572	2.855263	0.000000	0.296571	0.000000	0.000647	0.000547	0.000000	0.000000
3.108373	16.414448	19.282879	-2.148256	2.563703	3.005555	0.000000	0.378873	0.000000	0.000895	0.000567	0.000000	0.000000
3.657433	18.558463	16.896735	-1.733176	1.807755	3.188169	0.000000	0.286377	0.000000	0.001198	0.000533	0.000000	0.000000
4.206493	20.176332	15.265562	-1.195656	1.180572	3.318548	0.000000	0.188809	0.000000	0.001479	0.000490	0.000000	0.000000
4.755553	21.153755	14.273178	-0.573666	0.637479	3.394384	0.000000	0.087901	0.000000	0.001734	0.000437	0.000000	0.000000
5.304613	21.421674	13.848903	0.088858	0.139793	3.414335	0.000000	-0.014560	0.000000	0.001958	0.000378	0.000000	0.000000
5.603185	21.405649	13.750856	0.019855	0.153084	3.412493	0.000000	-0.005786	0.000000	0.002072	0.000383	0.000000	0.000000
5.936519	21.397604	13.657070	0.004277	0.128275	3.410437	0.000000	-0.005786	0.000000	0.002200	0.000383	0.000000	0.000000
6.269852	21.399946	13.579823	-0.011301	0.103466	3.408381	0.000000	-0.005786	0.000000	0.002327	0.000383	0.000000	0.000000
6.604435	21.412740	13.518919	-0.026938	0.078564	3.406317	0.000000	-0.005786	0.000000	0.002455	0.000383	0.000000	0.000000
6.901758	21.432894	13.478779	-0.095619	0.090964	3.404483	0.000000	0.002917	0.000000	0.002569	0.000389	0.000000	0.000000
7.450818	21.172365	13.640423	0.567503	-0.387093	3.377851	0.000000	-0.099119	0.000000	0.002759	0.000303	0.000000	0.000000
7.999878	20.201389	14.339024	1.190542	-0.892725	3.295642	0.000000	-0.199391	0.000000	0.002901	0.000211	0.000000	0.000000
8.548938	18.588555	15.624349	1.729481	-1.461950	3.159316	0.000000	-0.296124	0.000000	0.002991	0.000116	0.000000	0.000000
9.097998	16.447803	17.587957	2.146245	-2.135316	2.971293	0.000000	-0.387601	0.000000	0.003028	0.000018	0.000000	0.000000
9.543958	14.777444	19.337463	1.612497	-1.770958	2.816639	0.000000	-0.306231	0.000000	0.003053	0.000097	0.000000	0.000000
9.984918	13.560866	20.708964	1.156834	-1.327331	2.698715	0.000000	-0.228842	0.000000	0.003114	0.000177	0.000000	0.000000
10.425878	12.721435	21.660975	0.754029	-0.823306	2.614276	0.000000	-0.154063	0.000000	0.003210	0.000258	0.000000	0.000000
10.866838	12.220794	22.150174	0.385676	-0.281816	2.562360	0.000000	-0.081041	0.000000	0.003342	0.000343	0.000000	0.000000
11.309048	12.035914	22.153741	0.063366	0.219795	2.542355	0.000000	-0.014971	0.000000	0.003513	0.000423	0.000000	0.000000
11.606371	12.005608	22.027224	0.038564	0.205726	2.537778	0.000000	-0.014971	0.000000	0.003639	0.000423	0.000000	0.000000
12.086371	11.987806	21.840629	-0.001477	0.183013	2.530390	0.000000	-0.014971	0.000000	0.003841	0.000423	0.000000	0.000000
12.566371	12.008444	21.675839	-0.041518	0.160299	2.523001	0.000000	-0.014971	0.000000	0.004044	0.000423	0.000000	0.000000
13.046371	12.067520	21.532854	-0.081558	0.137586	2.515612	0.000000	-0.014971	0.000000	0.004247	0.000423	0.000000	0.000000
13.526371	12.165036	21.411674	-0.121599	0.114872	2.508223	0.000000	-0.014971	0.000000	0.004450	0.000423	0.000000	0.000000
14.007621	12.301395	21.312069	-0.161744	0.092100	2.500815	0.000000	-0.014971	0.000000	0.004653	0.000423	0.000000	0.000000
14.304943	12.404941	21.261500	-0.157518	0.028400	2.496237	0.000000	-0.020812	0.000000	0.004779	0.000411	0.000000	0.000000
14.745903	12.702844	21.003882	-0.520405	0.553556	2.502447	0.000000	0.049919	0.000000	0.004988	0.000537	0.000000	0.000000
15.186863	13.330072	20.292465	-0.907077	1.053524	2.539889	0.000000	0.121212	0.000000	0.005254	0.000669	0.000000	0.000000
15.627823	14.315296	19.159616	-1.335207	1.505552	2.608987	0.000000	0.193880	0.000000	0.005579	0.000809	0.000000	0.000000
16.068783	15.703554	17.656881	-1.824360	1.889069	2.710524	0.000000	0.268747	0.000000	0.005968	0.000958	0.000000	0.000000
16.514743	17.581921	15.831108	-2.401774	2.187480	2.847354	0.000000	0.347149	0.000000	0.006431	0.001118	0.000000	0.000000
17.063803	19.993579	13.793118	-1.963590	1.545854	3.013770	0.000000	0.260025	0.000000	0.006986	0.000901	0.000000	0.000000
17.612863	21.844468	12.395516	-1.386647	1.014354	3.131132	0.000000	0.168303	0.000000	0.007417	0.000668	0.000000	0.000000
18.161923	23.003776	11.538747	-0.711713	0.555118	3.197362	0.000000	0.073606	0.000000	0.007717	0.000422	0.000000	0.000000
18.710983	23.389562	11.161780	0.013519	0.135428	3.211288	0.000000	-0.022391	0.000000	0.007880	0.000170	0.000000	0.000000
19.009556	23.419299	11.072903	-0.056264	0.135141	3.206880	0.000000	-0.014566	0.000000	0.007937	0.000190	0.000000	0.000000
19.342889	23.461568	10.993027	-0.070543	0.104488	3.201961	0.000000	-0.014566	0.000000	0.008000	0.000190	0.000000	0.000000
19.676223	23.513356	10.933586	-0.084821	0.073835	3.197043	0.000000	-0.014566	0.000000	0.008063	0.000190	0.000000	0.000000
20.010806	23.575203	10.894338	-0.215958	0.097044	3.192126	0.000000	0.001250	0.000000	0.008127	0.000230	0.000000	0.000000
20.308129	23.707592	10.844800	-0.286753	0.095882	3.192432	0.000000	0.009006	0.000000	0.008195	0.000251	0.000000	0.000000
20.857189	23.613733	10.959636	0.456747	-0.306241	3.171128	0.000000	-0.086261	0.000000	0.008259	-0.000016	0.000000	0.000000
21.406249	22.716190	11.525422	1.167973	-0.730183	3.097994	0.000000	-0.179998	0.000000	0.008177	-0.000282	0.000000	0.000000
21.955309	21.078397	12.582464	1.796665	-1.206145	2.974327	0.000000	-0.270546	0.000000	0.007950	-0.000544	0.000000	0.000000
22.504369	18.816107	14.206063	2.298394	-1.768036	2.802319	0.000000	-0.356303	0.000000	0.007582	-0.000795	0.000000	0.000000
22.950329	17.034822	15.664507	1.709178	-1.488156	2.660992	0.000000	-0.279121	0.000000	0.007270	-0.000603	0.000000	0.000000
23.391289	15.755312	16.828642	1.202944	-1.141530	2.554429	0.000000	-0.205592	0.000000	0.007046	-0.000418	0.000000	0.000000
23.832249	14.896507	17.662883	0.751689	-0.742956	2.479671	0.000000	-0.134401	0.000000	0.006901	-0.000238	0.000000	0.000000
24.273209	14.419149	18.129268	0.334790	-0.310573	2.435866	0.000000	-0.064739	0.000000	0.006835	-0.000061	0.000000	0.000000
24.715418	14.301525	18.206313	-0.034135	0.094140	2.422515	0.000000	-0.001362	0.000000	0.006847	0.000099	0.000000	0.000000
25.012741	14.328011	18.155232	-0.054949	0.077665	2.422081	0.000000	-0.001362	0.000000	0.006876	0.000099	0.000000	0.000000
25.346075	14.372422	18.109613	-0.078283	0.059194	2.421594	0.000000	-0.001362	0.000000	0.006909	0.000099	0.000000	0.000000
25.679408	14.432389	18.076307	-0.101618	0.040723	2.421107	0.000000	-0.001362	0.000000	0.006942	0.000099	0.000000	0.000000
26.013991	14.507931	18.055626	-0.007343	-0.124293	2.420593	0.000000	-0.021000	0.000000	0.006975	0.000042	0.000000	0.000000
26.311314	14.518370	18.134534	0.005371	-0.182488	2.414335	0.000000	-0.026522	0.000000	0.006988	0.000026	0.000000	0.000000
26.752274	14.692941	18.098988	-0.402674	0.262783	2.417710	0.000000	0.042065	0.000000	0.007039	0.000207	0.000000	0.000000
27.193234	15.234172	17.674502	-0.829123	0.696096	2.451331	0.000000	0.111128	0.000000	0.007170	0.000390	0.000000	0.000000
27.634194	16.166803	16.880391	-1.293467	1.097732	2.515579	0.000000	0.181453	0.000000	0.007384	0.000577	0.000000	0.000000
28.075154	17.533469	15.752790	-1.816932	1.449412	2.611185	0.000000	0.253840	0.000000	0.007681	0.000772	0.000000	0.000000
28.521114	19.420528	14.325936	-2.428526	1.736191	2.740852	0.000000	0.329580	0.000000	0.008070	0.000976	0.000000	0.000000
29.070174	21.819824	12.736749	-1.914408	1.174930	2.898685	0.000000	0.246043	0.000000	0.008533	0.000707	0.000000	0.000000
29.619234	23.576331	11.714649	-1.265000	0.697373	3.009527	0.000000	0.158153	0.000000	0.008844	0.000425	0.000000	0.000000
30.168294	24.565897	11.186826	-0.526196	0.269500	3.071417	0.000000	0.067463	0.000000	0.008999	0.000136	0.000000	0.000000
30.717354	24.718578	11.115680	0.249793	-0.139173	3.083257	0.000000	-0.024421	0.000000	0.008993	-0.000155	0.000000	0.000000
31.015927	24.608684	11.190913	0.177677	-0.139544	3.078221	0.000000	-0.016987	0.000000	0.008954	-0.000133	0.000000	0.000000
31.349260	24.494890	11.294065	0.163704	-0.169911	3.072603	0.000000	-0.016987	0.000000	0.008909	-0.000133	0.000000	0.000000
31.682593	24.390412	11.417461	0.149731	-0.200277	3.066985	0.000000	-0.016987	0.000000	0.008865	-0.000133	0.000000	0.000000
32.017177	24.294910	11.561677	0.135705	-0.230757	3.061346	0.000000	-0.016987	0.000000	0.008821	-0.000133	0.000000	0.000000
32.314499	24.217974	11.706922	0.064729	-0.229576	3.056339	0.000000	-0.009602	0.000000	0.008781	-0.000111	0.000000	0.000000
32.863559	23.732242	12.197832	0.814411	-0.669682	3.026247	0.000000	-0.100318	0.000000	0.008643	-0.000393	0.000000	0.000000
33.412619	22.449961	13.195297	1.506538	-1.157499	2.946902	0.000000	-0.189260	0.000000	0.008351	-0.000668	0.000000	0.000000
33.961679	20.461766	14.770373	2.092196	-1.727779	2.819708	0.000000	-0.274854	0.000000	0.007911	-0.000932	0.000000	0.000000
34.510739	17.908182	17.035260	2.530003	-2.421147	2.646917	0.000000	-0.355588	0.000000	0.007331	-0.001179	0.000000	0.000000
34.956699	15.923952	19.061377	1.934282	-2.102696	2.505178	0.000000	-0.282448	0.000000	0.006846	-0.000995	0.000000	0.000000
35.397659	14.444825	20.740112	1.432065	-1.689452	2.396429	0.000000	-0.212967	0.000000	0.006446	-0.000823	0.000000	0.000000
35.838619	13.378275	22.018930	0.995300	-1.199328	2.317689	0.000000	-0.145903	0.000000	0.006119	-0.000661	0.000000	0.000000
36.279579	12.675546	22.839643	0.604026	-0.654627	2.268065	0.000000	-0.080494	0.000000	0.005861	-0.000507	0.000000	0.000000
36.721789	12.303854	23.165223	0.268782	-0.133793	2.246969	0.000000	-0.021207	0.000000	0.005670	-0.000372	0.000000	0.000000
37.019112	12.151728	23.248667	0.242871	-0.146858	2.240774	0.000000	-0.021207	0.000000	0.005560	-0.000372	0.000000	0.000000
37.352445	11.999497	23.351454	0.213822	-0.161505	2.233829	0.000000	-0.021207	0.000000	0.005436	-0.000372	0.000000	0.000000
37.685779	11.866632	23.464006	0.184773	-0.176152	2.226884	0.000000	-0.021207	0.000000	0.005312	-0.000372	0.000000	0.000000
38.020362	11.752744	23.586800	0.155615	-0.190853	2.219913	0.000000	-0.021207	0.000000	0.005187	-0.000372	0.000000	0.000000
38.317684	11.667903	23.704193	0.156927	-0.259349	2.213718	0.000000	-0.026371	0.000000	0.005077	-0.000384	0.000000	0.000000
38.758644	11.678837	23.670250	-0.181921	0.336026	2.216202	0.000000	0.037027	0.000000	0.004936	-0.000255	0.000000	0.000000
39.199604	11.991168	23.115960	-0.529080	0.916109	2.246656	0.000000	0.100851	0.000000	0.004851	-0.000129	0.000000	0.000000
39.640564	12.619169	22.066548	-0.900416	1.454504	2.305429	0.000000	0.165824	0.000000	0.004822	-0.000004	0.000000	0.000000
40.081524	13.591539	20.569769	-1.312897	1.926711	2.393190	0.000000	0.232687	0.000000	0.004848	0.000121	0.000000	0.000000
40.527484	14.970249	18.671038	-1.789273	2.312664	2.512422	0.000000	0.302621	0.000000	0.004930	0.000247	0.000000	0.000000
41.076544	16.731764	16.536857	-1.399667	1.596976	2.657872	0.000000	0.226697	0.000000	0.005021	0.000086	0.000000	0.000000
41.625604	18.008204	15.121929	-0.911174	0.995052	2.760551	0.000000	0.146754	0.000000	0.005024	-0.000077	0.000000	0.000000
42.174664	18.709381	14.325459	-0.358307	0.464015	2.818639	0.000000	0.064205	0.000000	0.004937	-0.000238	0.000000	0.000000
42.723724	18.785756	14.090707	0.219869	-0.033967	2.831102	0.000000	-0.019486	0.000000	0.004763	-0.000395	0.000000	0.000000
43.022297	18.687461	14.096182	0.156402	-0.019747	2.827516	0.000000	-0.012388	0.000000	0.004649	-0.000383	0.000000	0.000000
43.502297	18.549946	14.131490	0.130088	-0.053812	2.821754	0.000000	-0.012388	0.000000	0.004465	-0.000383	0.000000	0.000000
43.982297	18.437692	14.199501	0.103774	-0.087878	2.815992	0.000000	-0.012388	0.000000	0.004281	-0.000383	0.000000	0.000000
44.462297	18.350699	14.300215	0.077460	-0.121943	2.810229	0.000000	-0.012388	0.000000	0.004097	-0.000383	0.000000	0.000000
44.942297	18.288967	14.433631	0.051146	-0.156008	2.804467	0.000000	-0.012388	0.000000	0.003914	-0.000383	0.000000	0.000000
45.423547	18.252662	14.600044	-0.065670	-0.117824	2.798707	0.000000	0.001478	0.000000	0.003729	-0.000365	0.000000	0.000000
45.720870	18.296583	14.676241	-0.128371	-0.101374	2.799255	0.000000	0.008568	0.000000	0.003621	-0.000355	0.000000	0.000000
46.269930	18.129282	15.071127	0.431041	-0.622040	2.781483	0.000000	-0.074001	0.000000	0.003394	-0.000469	0.000000	0.000000
46.818990	17.360789	16.058623	0.959994	-1.187014	2.718722	0.000000	-0.155266	0.000000	0.003108	-0.000574	0.000000	0.000000
47.368050	16.045409	17.709063	1.421119	-1.836541	2.612083	0.000000	-0.233786	0.000000	0.002766	-0.000669	0.000000	0.000000
47.917110	14.276082	20.140003	1.781840	-2.616888	2.463452	0.000000	-0.308170	0.000000	0.002375	-0.000753	0.000000	0.000000
48.363070	12.898287	22.300836	1.318238	-2.207970	2.341692	0.000000	-0.239553	0.000000	0.002052	-0.000695	0.000000	0.000000
48.804030	11.915498	24.030698	0.918665	-1.699939	2.250867	0.000000	-0.174064	0.000000	0.001757	-0.000646	0.000000	0.000000
49.244990	11.265353	25.276550	0.561072	-1.114561	2.188440	0.000000	-0.110550	0.000000	0.001481	-0.000604	0.000000	0.000000
49.685950	10.918140	25.981710	0.229118	-0.478471	2.153702	0.000000	-0.048289	0.000000	0.001223	-0.000570	0.000000	0.000000
50.128160	10.858152	26.113808	-0.066098	0.116095	2.146271	0.000000	0.008213	0.000000	0.000977	-0.000544	0.000000	0.000000
50.425482	10.905635	26.048204	-0.093601	0.104556	2.148875	0.000000	0.008213	0.000000	0.000816	-0.000544	0.000000	0.000000
50.758816	10.978313	25.982812	-0.124434	0.091619	2.151794	0.000000	0.008213	0.000000	0.000634	-0.000544	0.000000	0.000000
51.092149	11.071546	25.926045	-0.155267	0.078682	2.154712	0.000000	0.008213	0.000000	0.000453	-0.000544	0.000000	0.000000
51.426732	11.185574	25.878263	-0.095471	-0.144240	2.157621	0.000000	-0.009291	0.000000	0.000271	-0.000546	0.000000	0.000000
51.724055	11.250320	25.967522	-0.094733	-0.219785	2.155020	0.000000	-0.014570	0.000000	0.000109	-0.000546	0.000000	0.000000
52.165015	11.480427	25.872326	-0.429256	0.434846	2.162479	0.000000	0.047371	0.000000	-0.000132	-0.000546	0.000000	0.000000
52.605975	12.013051	25.206354	-0.783387	1.069690	2.197346	0.000000	0.109858	0.000000	-0.000374	-0.000553	0.000000	0.000000
53.046935	12.872519	23.999913	-1.173303	1.655862	2.260022	0.000000	0.173602	0.000000	-0.000620	-0.000566	0.000000	0.000000
53.487895	14.098092	22.307898	-1.616819	2.166693	2.351222	0.000000	0.239329	0.000000	-0.000874	-0.000585	0.000000	0.000000
53.933855	15.766714	20.182016	-2.138466	2.580262	2.473500	0.000000	0.308186	0.000000	-0.001140	-0.000611	0.000000	0.000000
54.482915	17.914598	17.789525	-1.750662	1.802970	2.622733	0.000000	0.233479	0.000000	-0.001464	-0.000569	0.000000	0.000000
55.031975	19.565800	16.175482	-1.239220	1.154097	2.729720	0.000000	0.154621	0.000000	-0.001763	-0.000517	0.000000	0.000000
55.581035	20.603710	15.224917	-0.640261	0.587427	2.792559	0.000000	0.073012	0.000000	-0.002030	-0.000455	0.000000	0.000000
56.130095	20.955037	14.870120	0.003909	0.062597	2.810133	0.000000	-0.009899	0.000000	-0.002261	-0.000386	0.000000	0.000000
56.428668	20.990277	14.815113	-0.066161	0.081975	2.809528	0.000000	-0.002418	0.000000	-0.002378	-0.000392	0.000000	0.000000
56.762001	21.039701	14.768014	-0.082111	0.059324	2.808852	0.000000	-0.002418	0.000000	-0.002509	-0.000392	0.000000	0.000000
57.095334	21.099758	14.736015	-0.098061	0.036673	2.808177	0.000000	-0.002418	0.000000	-0.002639	-0.000392	0.000000	0.000000
57.429918	21.170734	14.719081	-0.114071	0.013938	2.807499	0.000000	-0.002418	0.000000	-0.002770	-0.000392	0.000000	0.000000
57.727240	21.242801	14.716797	-0.185133	0.033026	2.806896	0.000000	0.005092	0.000000	-0.002887	-0.000399	0.000000	0.000000
58.276300	21.083089	14.962768	0.474092	-0.483675	2.787127	0.000000	-0.077677	0.000000	-0.003079	-0.000303	0.000000	0.000000
58.825360	20.213725	15.791584	1.099828	-1.034822	2.722172	0.000000	-0.159073	0.000000	-0.003218	-0.000201	0.000000	0.000000
59.374420	18.696109	17.262272	1.647883	-1.659669	2.613182	0.000000	-0.237651	0.000000	-0.003299	-0.000095	0.000000	0.000000
59.923480	16.637422	19.479575	2.079555	-2.402719	2.462089	0.000000	-0.312015	0.000000	-0.003322	0.000012	0.000000	0.000000
60.369440	15.025045	21.450139	1.548856	-1.997454	2.338305	0.000000	-0.243486	0.000000	-0.003335	-0.000074	0.000000	0.000000
60.810400	13.864481	22.999354	1.093108	-1.502624	2.245493	0.000000	-0.178118	0.000000	-0.003387	-0.000161	0.000000	0.000000
61.251360	13.082366	24.080264	0.687294	-0.939434	2.181067	0.000000	-0.114777	0.000000	-0.003477	-0.000249	0.000000	0.000000
61.692320	12.642972	24.643695	0.312878	-0.333504	2.144296	0.000000	-0.052740	0.000000	-0.003607	-0.000341	0.000000	0.000000
62.134530	12.526269	24.663441	-0.015538	0.225075	2.134766	0.000000	0.003279	0.000000	-0.003779	-0.000426	0.000000	0.000000
62.431853	12.542568	24.533368	-0.039280	0.212409	2.135868	0.000000	0.003279	0.000000	-0.003906	-0.000426	0.000000	0.000000
62.765186	12.577627	24.396495	-0.065897	0.198209	2.137103	0.000000	0.003279	0.000000	-0.004048	-0.000426	0.000000	0.000000
63.098520	12.630430	24.269089	-0.092514	0.184009	2.138338	0.000000	0.003279	0.000000	-0.004190	-0.000426	0.000000	0.000000
63.433103	12.701276	24.150726	-0.119231	0.169756	2.139578	0.000000	0.003279	0.000000	-0.004332	-0.000426	0.000000	0.000000
63.730426	12.779228	24.053561	-0.110329	0.095502	2.140679	0.000000	-0.002189	0.000000	-0.004459	-0.000415	0.000000	0.000000
64.171386	13.038576	23.704538	-0.480258	0.693045	2.153492	0.000000	0.059445	0.000000	-0.004668	-0.000533	0.000000	0.000000
64.612346	13.632527	22.840510	-0.872119	1.259058	2.193657	0.000000	0.121761	0.000000	-0.004930	-0.000656	0.000000	0.000000
65.053306	14.588203	21.500789	-1.303811	1.767791	2.261634	0.000000	0.185471	0.000000	-0.005248	-0.000788	0.000000	0.000000
65.494266	15.949246	19.746331	-1.795050	2.196100	2.358200	0.000000	0.251301	0.000000	-0.005626	-0.000928	0.000000	0.000000
65.940226	17.801075	17.632139	-2.372844	2.525118	2.486033	0.000000	0.320386	0.000000	-0.006073	-0.001079	0.000000	0.000000
66.489286	20.172803	15.267454	-1.922122	1.807478	2.642029	0.000000	0.245175	0.000000	-0.006610	-0.000874	0.000000	0.000000
67.038346	21.971757	13.615885	-1.335687	1.218562	2.755360	0.000000	0.165603	0.000000	-0.007030	-0.000653	0.000000	0.000000
67.587406	23.070938	12.559802	-0.654949	0.716426	2.824009	0.000000	0.083083	0.000000	-0.007325	-0.000421	0.000000	0.000000
68.136466	23.392758	12.023989	0.072028	0.265310	2.846755	0.000000	-0.000917	0.000000	-0.007490	-0.000181	0.000000	0.000000
68.435038	23.392263	11.853723	-0.005618	0.271643	2.848896	0.000000	0.006978	0.000000	-0.007550	-0.000201	0.000000	0.000000
68.768372	23.400758	11.682693	-0.019868	0.241448	2.851289	0.000000	0.006978	0.000000	-0.007617	-0.000201	0.000000	0.000000
69.101705	23.418754	11.531793	-0.034118	0.211252	2.853682	0.000000	0.006978	0.000000	-0.007684	-0.000201	0.000000	0.000000
69.436288	23.446371	11.400570	-0.048422	0.180943	2.856084	0.000000	0.006978	0.000000	-0.007751	-0.000201	0.000000	0.000000
69.733611	23.478986	11.300961	-0.126410	0.185395	2.858222	0.000000	0.014925	0.000000	-0.007811	-0.000222	0.000000	0.000000
70.282671	23.214604	11.323929	0.605068	-0.227479	2.843249	0.000000	-0.069572	0.000000	-0.007863	0.000032	0.000000	0.000000
