#ParticleID	Turn	x[m]	xp	y[m]	yp	z[m]	dE[GeV]# s	beta_x	beta_y	alpha_x	alpha_y	D_x	D_y	D_px	D_py	orbit_x	orbit_px	orbit_y	orbit_py
0.300000	11.899592	25.155466	-0.018024	-0.024158	2.608584	0.000000	0.000484	0.000000	-0.000378	0.000332	0.000000	0.000000
0.601250	11.918080	25.173631	-0.043348	-0.036140	2.608629	0.000000	0.000484	0.000000	-0.000278	0.000332	0.000000	0.000000
0.898573	11.951288	25.198638	-0.038984	-0.109747	2.608675	0.000000	-0.005924	0.000000	-0.000179	0.000332	0.000000	0.000000
1.339533	12.138841	25.015841	-0.387845	0.522713	2.622161	0.000000	0.067790	0.000000	-0.000034	0.000329	0.000000	0.000000
1.780493	12.640686	24.283661	-0.754429	1.131390	2.668292	0.000000	0.142272	0.000000	0.000112	0.000330	0.000000	0.000000
2.221453	13.479754	23.035408	-1.155482	1.688591	2.747591	0.000000	0.218372	0.000000	0.000258	0.000335	0.000000	0.000000
2.662413	14.694383	21.327875	-1.609330	2.168964	2.860959	0.000000	0.296955	0.000000	0.000408	0.000344	0.000000	0.000000
3.108373	16.361050	19.213723	-2.141048	2.551797	3.011543	0.000000	0.379406	0.000000	0.000564	0.000356	0.000000	0.000000
3.657433	18.497889	16.839055	-1.727517	1.798661	3.194502	0.000000	0.286712	0.000000	0.000754	0.000335	0.000000	0.000000
4.206493	20.110517	15.216640	-1.191953	1.173641	3.325107	0.000000	0.188938	0.000000	0.000930	0.000308	0.000000	0.000000
4.755553	21.085012	14.230920	-0.572185	0.632217	3.401045	0.000000	0.087817	0.000000	0.001091	0.000275	0.000000	0.000000
5.304613	21.352528	13.811687	0.088007	0.135825	3.420971	0.000000	-0.014857	0.000000	0.001231	0.000237	0.000000	0.000000
5.603185	21.337124	13.715926	0.018796	0.149239	3.419104	0.000000	-0.006011	0.000000	0.001303	0.000241	0.000000	0.000000
5.936519	21.329803	13.624715	0.003168	0.124395	3.417020	0.000000	-0.006011	0.000000	0.001383	0.000241	0.000000	0.000000
6.269852	21.332900	13.550066	-0.012460	0.099551	3.414937	0.000000	-0.006011	0.000000	0.001463	0.000241	0.000000	0.000000
6.604435	21.346486	13.491794	-0.028146	0.074614	3.412845	0.000000	-0.006011	0.000000	0.001544	0.000241	0.000000	0.000000
6.901758	21.367370	13.454012	-0.097155	0.087176	3.410986	0.000000	0.002780	0.000000	0.001615	0.000245	0.000000	0.000000
7.450818	21.109683	13.619446	0.563821	-0.390250	3.384291	0.000000	-0.099462	0.000000	0.001735	0.000190	0.000000	0.000000
7.999878	20.143800	14.321261	1.184973	-0.895474	3.301889	0.000000	-0.199937	0.000000	0.001824	0.000133	0.000000	0.000000
8.548938	18.537949	15.609450	1.722421	-1.464486	3.165243	0.000000	-0.296863	0.000000	0.001880	0.000073	0.000000	0.000000
9.097998	16.405569	17.575776	2.138197	-2.137815	2.976780	0.000000	-0.388522	0.000000	0.001904	0.000011	0.000000	0.000000
9.543958	14.741714	19.327786	1.605954	-1.774114	2.821756	0.000000	-0.307021	0.000000	0.001920	0.000061	0.000000	0.000000
9.984918	13.530384	20.702273	1.151455	-1.330972	2.703535	0.000000	-0.229507	0.000000	0.001958	0.000111	0.000000	0.000000
10.425878	12.695276	21.657634	0.749567	-0.827268	2.618865	0.000000	-0.154609	0.000000	0.002018	0.000162	0.000000	0.000000
10.866838	12.198234	22.150395	0.381926	-0.285921	2.566782	0.000000	-0.081473	0.000000	0.002101	0.000215	0.000000	0.000000
11.309048	12.016397	22.157594	0.060479	0.215094	2.546671	0.000000	-0.015382	0.000000	0.002208	0.000266	0.000000	0.000000
11.606371	11.987817	22.033863	0.035646	0.201055	2.542019	0.000000	-0.015382	0.000000	0.002287	0.000266	0.000000	0.000000
12.086371	11.972841	21.851730	-0.004446	0.178390	2.534508	0.000000	-0.015382	0.000000	0.002415	0.000266	0.000000	0.000000
12.566371	11.996353	21.691355	-0.044537	0.155725	2.526998	0.000000	-0.015382	0.000000	0.002542	0.000266	0.000000	0.000000
13.046371	12.058353	21.552738	-0.084629	0.133059	2.519487	0.000000	-0.015382	0.000000	0.002670	0.000266	0.000000	0.000000
13.526371	12.158840	21.435881	-0.124720	0.110394	2.511976	0.000000	-0.015382	0.000000	0.002797	0.000266	0.000000	0.000000
14.007621	12.298228	21.340563	-0.164916	0.087670	2.504446	0.000000	-0.015382	0.000000	0.002925	0.000266	0.000000	0.000000
14.304943	12.403675	21.292610	-0.160203	0.022987	2.499793	0.000000	-0.021336	0.000000	0.003004	0.000258	0.000000	0.000000
14.745903	12.703921	21.039373	-0.523135	0.549088	2.505867	0.000000	0.049481	0.000000	0.003135	0.000337	0.000000	0.000000
15.186863	13.333565	20.331421	-0.909972	1.050205	2.543229	0.000000	0.120859	0.000000	0.003302	0.000420	0.000000	0.000000
15.627823	14.321386	19.200967	-1.338393	1.503535	2.612303	0.000000	0.193608	0.000000	0.003507	0.000508	0.000000	0.000000
16.068783	15.712528	17.699445	-1.827976	1.888450	2.713875	0.000000	0.268558	0.000000	0.003751	0.000602	0.000000	0.000000
16.514743	17.594192	15.873672	-2.405930	2.188248	2.850796	0.000000	0.347036	0.000000	0.004042	0.000703	0.000000	0.000000
17.063803	20.010226	13.835415	-1.967720	1.545709	3.017313	0.000000	0.259806	0.000000	0.004391	0.000566	0.000000	0.000000
17.612863	21.865347	12.438533	-1.390483	1.013278	3.134674	0.000000	0.167977	0.000000	0.004662	0.000419	0.000000	0.000000
18.161923	23.028469	11.583526	-0.715000	0.553029	3.200800	0.000000	0.073175	0.000000	0.004850	0.000265	0.000000	0.000000
18.710983	23.417404	11.209489	0.011003	0.132175	3.214520	0.000000	-0.022921	0.000000	0.004952	0.000107	0.000000	0.000000
19.009556	23.449633	11.121983	-0.060389	0.132895	3.210042	0.000000	-0.014875	0.000000	0.004988	0.000119	0.000000	0.000000
19.342889	23.494648	11.043552	-0.074656	0.102395	3.205044	0.000000	-0.014875	0.000000	0.005028	0.000119	0.000000	0.000000
19.676223	23.549174	10.985455	-0.088923	0.071895	3.200046	0.000000	-0.014875	0.000000	0.005067	0.000119	0.000000	0.000000
20.010806	23.613762	10.947453	-0.220239	0.095522	3.195049	0.000000	0.000955	0.000000	0.005107	0.000145	0.000000	0.000000
20.308129	23.748669	10.898792	-0.292776	0.095370	3.195291	0.000000	0.008939	0.000000	0.005150	0.000158	0.000000	0.000000
20.857189	23.660665	11.015000	0.452148	-0.308254	3.173951	0.000000	-0.086411	0.000000	0.005191	-0.000010	0.000000	0.000000
21.406249	22.767294	11.583855	1.165128	-0.733838	3.100686	0.000000	-0.180229	0.000000	0.005139	-0.000177	0.000000	0.000000
21.955309	21.131683	12.645879	1.795786	-1.211698	2.976796	0.000000	-0.270852	0.000000	0.004997	-0.000341	0.000000	0.000000
22.504369	18.869406	14.276724	2.299565	-1.775876	2.804477	0.000000	-0.356675	0.000000	0.004766	-0.000500	0.000000	0.000000
22.950329	17.087660	15.741355	1.709374	-1.494287	2.662889	0.000000	-0.279455	0.000000	0.004570	-0.000379	0.000000	0.000000
23.391289	15.808521	16.909976	1.202102	-1.145631	2.556112	0.000000	-0.205885	0.000000	0.004429	-0.000263	0.000000	0.000000
23.832249	14.950986	17.746837	0.749764	-0.744844	2.481183	0.000000	-0.134658	0.000000	0.004338	-0.000149	0.000000	0.000000
24.273209	14.475864	18.213859	0.331689	-0.310163	2.437250	0.000000	-0.064962	0.000000	0.004297	-0.000038	0.000000	0.000000
24.715418	14.361544	18.289542	-0.037547	0.095537	2.423810	0.000000	-0.001706	0.000000	0.004304	0.000062	0.000000	0.000000
25.012741	14.390035	18.237609	-0.058279	0.079133	2.423285	0.000000	-0.001706	0.000000	0.004323	0.000062	0.000000	0.000000
25.346075	14.436636	18.190984	-0.081522	0.060741	2.422695	0.000000	-0.001706	0.000000	0.004344	0.000062	0.000000	0.000000
25.679408	14.498731	18.156621	-0.104765	0.042349	2.422106	0.000000	-0.001706	0.000000	0.004364	0.000062	0.000000	0.000000
26.013991	14.576347	18.134827	-0.009842	-0.123230	2.421490	0.000000	-0.021351	0.000000	0.004385	0.000027	0.000000	0.000000
26.311314	14.588256	18.213064	0.004030	-0.182657	2.415133	0.000000	-0.027025	0.000000	0.004393	0.000016	0.000000	0.000000
26.752274	14.764726	18.176734	-0.405686	0.264725	2.418307	0.000000	0.041575	0.000000	0.004425	0.000130	0.000000	0.000000
27.193234	15.309355	17.749649	-0.833941	0.700062	2.451760	0.000000	0.110647	0.000000	0.004508	0.000245	0.000000	0.000000
27.634194	16.247036	16.951241	-1.300306	1.103543	2.515871	0.000000	0.180977	0.000000	0.004642	0.000363	0.000000	0.000000
28.075154	17.620625	15.817839	-1.826094	1.456808	2.611370	0.000000	0.253364	0.000000	0.004829	0.000485	0.000000	0.000000
28.521114	19.516838	14.383900	-2.440368	1.744784	2.740954	0.000000	0.329093	0.000000	0.005074	0.000614	0.000000	0.000000
29.070174	21.927468	12.786542	-1.923463	1.181432	2.898679	0.000000	0.245564	0.000000	0.005364	0.000444	0.000000	0.000000
29.619234	23.691941	11.758281	-1.270653	0.702242	3.009367	0.000000	0.157685	0.000000	0.005560	0.000267	0.000000	0.000000
30.168294	24.685573	11.225872	-0.528062	0.273078	3.071057	0.000000	0.067013	0.000000	0.005657	0.000086	0.000000	0.000000
30.717354	24.838150	11.151389	0.251838	-0.136632	3.082654	0.000000	-0.024846	0.000000	0.005654	-0.000098	0.000000	0.000000
31.015927	24.728351	11.224507	0.177607	-0.135973	3.077549	0.000000	-0.017179	0.000000	0.005629	-0.000083	0.000000	0.000000
31.349260	24.614581	11.325237	0.163702	-0.166219	3.071850	0.000000	-0.017179	0.000000	0.005601	-0.000083	0.000000	0.000000
31.682593	24.510081	11.446132	0.149797	-0.196465	3.066151	0.000000	-0.017179	0.000000	0.005574	-0.000083	0.000000	0.000000
32.017177	24.414512	11.587758	0.135840	-0.226824	3.060431	0.000000	-0.017179	0.000000	0.005546	-0.000083	0.000000	0.000000
32.314499	24.337444	11.730648	0.062833	-0.224603	3.055350	0.000000	-0.009570	0.000000	0.005521	-0.000069	0.000000	0.000000
32.863559	23.851692	12.216308	0.816450	-0.665077	3.025239	0.000000	-0.100244	0.000000	0.005434	-0.000247	0.000000	0.000000
33.412619	22.565189	13.208720	1.512378	-1.152930	2.945845	0.000000	-0.189144	0.000000	0.005251	-0.000420	0.000000	0.000000
33.961679	20.568846	14.778578	2.101446	-1.722913	2.818576	0.000000	-0.274695	0.000000	0.004975	-0.000585	0.000000	0.000000
34.510739	18.003732	17.037707	2.542034	-2.415631	2.645684	0.000000	-0.355383	0.000000	0.004610	-0.000741	0.000000	0.000000
34.956699	16.010177	19.058542	1.943641	-2.096613	2.503861	0.000000	-0.282288	0.000000	0.004306	-0.000625	0.000000	0.000000
35.397659	14.523950	20.731680	1.439130	-1.683029	2.395034	0.000000	-0.212845	0.000000	0.004054	-0.000517	0.000000	0.000000
35.838619	13.452145	22.004748	1.000385	-1.192860	2.316224	0.000000	-0.145822	0.000000	0.003849	-0.000415	0.000000	0.000000
36.279579	12.745777	22.819822	0.607356	-0.648413	2.266535	0.000000	-0.080455	0.000000	0.003687	-0.000318	0.000000	0.000000
36.721789	12.371889	23.140129	0.271282	-0.129256	2.245377	0.000000	-0.021320	0.000000	0.003567	-0.000233	0.000000	0.000000
37.019112	12.218244	23.220875	0.245481	-0.142320	2.239108	0.000000	-0.021320	0.000000	0.003498	-0.000233	0.000000	0.000000
37.352445	12.064232	23.320637	0.216555	-0.156965	2.232079	0.000000	-0.021320	0.000000	0.003420	-0.000233	0.000000	0.000000
37.685779	11.929504	23.430162	0.187630	-0.171611	2.225049	0.000000	-0.021320	0.000000	0.003342	-0.000233	0.000000	0.000000
38.020362	11.813663	23.549917	0.158595	-0.186312	2.217994	0.000000	-0.021320	0.000000	0.003264	-0.000233	0.000000	0.000000
38.317684	11.727022	23.664598	0.160677	-0.255721	2.211724	0.000000	-0.026579	0.000000	0.003195	-0.000241	0.000000	0.000000
38.758644	11.735242	23.627937	-0.179454	0.338540	2.214053	0.000000	0.036763	0.000000	0.003107	-0.000160	0.000000	0.000000
39.199604	12.045922	23.071979	-0.527784	0.917396	2.244346	0.000000	0.100526	0.000000	0.003054	-0.000080	0.000000	0.000000
39.640564	12.673259	22.022024	-0.900229	1.454507	2.302949	0.000000	0.165435	0.000000	0.003036	-0.000002	0.000000	0.000000
40.081524	13.645919	20.525847	-1.313808	1.925433	2.390531	0.000000	0.232228	0.000000	0.003052	0.000077	0.000000	0.000000
40.527484	15.025881	18.628883	-1.791289	2.310116	2.509566	0.000000	0.302081	0.000000	0.003104	0.000156	0.000000	0.000000
41.076544	16.788386	16.496871	-1.399557	1.595653	2.654775	0.000000	0.226259	0.000000	0.003162	0.000055	0.000000	0.000000
41.625604	18.063504	15.082811	-0.908953	0.994855	2.757241	0.000000	0.146424	0.000000	0.003164	-0.000048	0.000000	0.000000
42.174664	18.761148	14.285972	-0.354137	0.464925	2.815146	0.000000	0.063990	0.000000	0.003110	-0.000149	0.000000	0.000000
42.723724	18.832035	14.049593	0.225694	-0.031887	2.827461	0.000000	-0.019581	0.000000	0.003001	-0.000248	0.000000	0.000000
43.022297	18.730778	14.053588	0.161382	-0.017309	2.823836	0.000000	-0.012381	0.000000	0.002929	-0.000241	0.000000	0.000000
43.502297	18.588473	14.086605	0.135088	-0.051475	2.818009	0.000000	-0.012381	0.000000	0.002813	-0.000241	0.000000	0.000000
43.982297	18.471410	14.152420	0.108794	-0.085640	2.812181	0.000000	-0.012381	0.000000	0.002698	-0.000241	0.000000	0.000000
44.462297	18.379588	14.251033	0.082501	-0.119805	2.806354	0.000000	-0.012381	0.000000	0.002582	-0.000241	0.000000	0.000000
44.942297	18.313009	14.382445	0.056207	-0.153970	2.800527	0.000000	-0.012381	0.000000	0.002467	-0.000241	0.000000	0.000000
45.423547	18.271823	14.546947	-0.060684	-0.116150	2.794702	0.000000	0.001466	0.000000	0.002351	-0.000229	0.000000	0.000000
45.720870	18.312767	14.622171	-0.123943	-0.099442	2.795206	0.000000	0.008629	0.000000	0.002283	-0.000223	0.000000	0.000000
46.269930	18.140401	15.014004	0.435870	-0.618391	2.777423	0.000000	-0.073806	0.000000	0.002141	-0.000295	0.000000	0.000000
46.818990	17.366606	15.996420	0.964887	-1.181388	2.714705	0.000000	-0.154937	0.000000	0.001961	-0.000361	0.000000	0.000000
47.368050	16.046054	17.639395	1.425738	-1.828536	2.608162	0.000000	-0.233325	0.000000	0.001746	-0.000421	0.000000	0.000000
47.917110	14.272041	20.059952	1.785867	-2.605931	2.459682	0.000000	-0.307582	0.000000	0.001500	-0.000474	0.000000	0.000000
48.363070	12.890848	22.211746	1.321997	-2.198794	2.338048	0.000000	-0.239065	0.000000	0.001297	-0.000437	0.000000	0.000000
48.804030	11.904855	23.934427	0.922313	-1.692932	2.247313	0.000000	-0.173669	0.000000	0.001111	-0.000406	0.000000	0.000000
49.244990	11.251521	25.175167	0.564773	-1.110043	2.184941	0.000000	-0.110247	0.000000	0.000937	-0.000380	0.000000	0.000000
49.685950	10.900992	25.877515	0.233039	-0.476647	2.150224	0.000000	-0.048077	0.000000	0.000775	-0.000358	0.000000	0.000000
50.128160	10.837403	26.009230	-0.061741	0.115104	2.142778	0.000000	0.008326	0.000000	0.000621	-0.000341	0.000000	0.000000
50.425482	10.882305	25.944228	-0.089280	0.103521	2.145355	0.000000	0.008326	0.000000	0.000519	-0.000341	0.000000	0.000000
50.758816	10.952117	25.879542	-0.120155	0.090536	2.148244	0.000000	0.008326	0.000000	0.000405	-0.000341	0.000000	0.000000
51.092149	11.042512	25.823513	-0.151030	0.077550	2.151133	0.000000	0.008326	0.000000	0.000292	-0.000341	0.000000	0.000000
51.426732	11.153719	25.776504	-0.091535	-0.144596	2.154011	0.000000	-0.009149	0.000000	0.000177	-0.000343	0.000000	0.000000
51.724055	11.216142	25.865988	-0.090929	-0.219885	2.151393	0.000000	-0.014421	0.000000	0.000075	-0.000343	0.000000	0.000000
52.165015	11.442549	25.772066	-0.424571	0.432070	2.158809	0.000000	0.047426	0.000000	-0.000076	-0.000343	0.000000	0.000000
52.605975	11.970606	25.109679	-0.777607	1.064364	2.193592	0.000000	0.109818	0.000000	-0.000228	-0.000347	0.000000	0.000000
53.046935	12.824435	23.908970	-1.166167	1.648229	2.256140	0.000000	0.173463	0.000000	-0.000382	-0.000355	0.000000	0.000000
53.487895	14.043041	22.224573	-1.608002	2.157101	2.347166	0.000000	0.239088	0.000000	-0.000541	-0.000367	0.000000	0.000000
53.933855	15.702947	20.107955	-2.127560	2.569152	2.469217	0.000000	0.307838	0.000000	-0.000708	-0.000383	0.000000	0.000000
54.482915	17.839733	17.726037	-1.741343	1.794680	2.618182	0.000000	0.233272	0.000000	-0.000912	-0.000357	0.000000	0.000000
55.031975	19.481951	16.119813	-1.232138	1.148037	2.724990	0.000000	0.154563	0.000000	-0.001099	-0.000324	0.000000	0.000000
55.581035	20.513616	15.174872	-0.635912	0.583166	2.787745	0.000000	0.073107	0.000000	-0.001267	-0.000286	0.000000	0.000000
56.130095	20.861870	14.823906	0.005224	0.059832	2.805331	0.000000	-0.009650	0.000000	-0.001412	-0.000242	0.000000	0.000000
56.428668	20.895966	14.770820	-0.064274	0.078733	2.804737	0.000000	-0.002234	0.000000	-0.001485	-0.000246	0.000000	0.000000
56.762001	20.944155	14.725900	-0.080292	0.056026	2.804075	0.000000	-0.002234	0.000000	-0.001567	-0.000246	0.000000	0.000000
57.095334	21.003023	14.696119	-0.096310	0.033319	2.803412	0.000000	-0.002234	0.000000	-0.001649	-0.000246	0.000000	0.000000
57.429918	21.072850	14.681449	-0.112388	0.010527	2.802747	0.000000	-0.002234	0.000000	-0.001732	-0.000246	0.000000	0.000000
57.727240	21.143931	14.681210	-0.182752	0.029157	2.802156	0.000000	0.005198	0.000000	-0.001805	-0.000251	0.000000	0.000000
58.276300	20.983468	14.930899	0.473149	-0.486611	2.782417	0.000000	-0.077420	0.000000	-0.001926	-0.000190	0.000000	0.000000
58.825360	20.116959	15.762540	1.095627	-1.037037	2.717594	0.000000	-0.158669	0.000000	-0.002014	-0.000127	0.000000	0.000000
59.374420	18.605610	17.235365	1.640720	-1.661323	2.608835	0.000000	-0.237105	0.000000	-0.002065	-0.000061	0.000000	0.000000
59.923480	16.556162	19.454273	2.069930	-2.403935	2.458068	0.000000	-0.311337	0.000000	-0.002080	0.000007	0.000000	0.000000
60.369440	14.951331	21.426354	1.541472	-1.999587	2.334560	0.000000	-0.242902	0.000000	-0.002089	-0.000047	0.000000	0.000000
60.810400	13.796400	22.977857	1.087640	-1.505597	2.241964	0.000000	-0.177626	0.000000	-0.002122	-0.000102	0.000000	0.000000
61.251360	13.018354	24.061730	0.683494	-0.943109	2.177703	0.000000	-0.114371	0.000000	-0.002179	-0.000157	0.000000	0.000000
61.692320	12.581650	24.628660	0.310574	-0.337713	2.141045	0.000000	-0.052417	0.000000	-0.002261	-0.000214	0.000000	0.000000
62.134530	12.466381	24.652299	-0.017004	0.221289	2.131578	0.000000	0.003598	0.000000	-0.002369	-0.000268	0.000000	0.000000
62.431853	12.483586	24.524472	-0.040861	0.208638	2.132728	0.000000	0.003598	0.000000	-0.002448	-0.000268	0.000000	0.000000
62.765186	12.519743	24.390108	-0.067608	0.194455	2.134016	0.000000	0.003598	0.000000	-0.002538	-0.000268	0.000000	0.000000
63.098520	12.573730	24.265199	-0.094354	0.180271	2.135305	0.000000	0.003598	0.000000	-0.002627	-0.000268	0.000000	0.000000
63.433103	12.645851	24.149331	-0.121201	0.166034	2.136599	0.000000	0.003598	0.000000	-0.002717	-0.000268	0.000000	0.000000
63.730426	12.725012	24.054367	-0.113033	0.092756	2.137748	0.000000	-0.001782	0.000000	-0.002797	-0.000261	0.000000	0.000000
64.171386	12.986261	23.707718	-0.481803	0.690407	2.150650	0.000000	0.059780	0.000000	-0.002928	-0.000335	0.000000	0.000000
64.612346	13.581145	22.845903	-0.872579	1.256647	2.190854	0.000000	0.122026	0.000000	-0.003093	-0.000413	0.000000	0.000000
65.053306	14.536834	21.508133	-1.303212	1.765714	2.258820	0.000000	0.185666	0.000000	-0.003293	-0.000495	0.000000	0.000000
65.494266	15.896975	19.755275	-1.793373	2.194448	2.355324	0.000000	0.251426	0.000000	-0.003530	-0.000583	0.000000	0.000000
65.940226	17.746921	17.642289	-2.370070	2.524010	2.483039	0.000000	0.320446	0.000000	-0.003811	-0.000678	0.000000	0.000000
66.489286	20.116879	15.278779	-1.921350	1.806288	2.638906	0.000000	0.245328	0.000000	-0.004148	-0.000549	0.000000	0.000000
67.038346	21.916264	13.628537	-1.336950	1.217212	2.752201	0.000000	0.165851	0.000000	-0.004412	-0.000410	0.000000	0.000000
67.587406	23.018020	12.574025	-0.658142	0.714825	2.820910	0.000000	0.083425	0.000000	-0.004598	-0.000265	0.000000	0.000000
68.136466	23.344358	12.040135	0.067139	0.263349	2.843812	0.000000	-0.000484	0.000000	-0.004702	-0.000114	0.000000	0.000000
68.435038	23.345910	11.871411	-0.009019	0.269079	2.846009	0.000000	0.007236	0.000000	-0.004739	-0.000126	0.000000	0.000000
68.768372	23.356682	11.702062	-0.023298	0.238968	2.848463	0.000000	0.007236	0.000000	-0.004781	-0.000126	0.000000	0.000000
69.101705	23.376974	11.552787	-0.037578	0.208856	2.850917	0.000000	0.007236	0.000000	-0.004824	-0.000126	0.000000	0.000000
69.436288	23.406916	11.423140	-0.051910	0.178631	2.853380	0.000000	0.007236	0.000000	-0.004866	-0.000126	0.000000	0.000000
69.733611	23.441587	11.324896	-0.128379	0.182540	2.855570	0.000000	0.014999	0.000000	-0.004903	-0.000139	0.000000	0.000000
70.282671	23.179997	11.351385	0.601985	-0.231074	2.840640	0.000000	-0.069420	0.000000	-0.004936	0.000020	0.000000	0.000000
