#ParticleID	Turn	x[m]	xp	y[m]	yp	z[m]	dE[GeV]# s	beta_x	beta_y	alpha_x	alpha_y	D_x	D_y	D_px	D_py	orbit_x	orbit_px	orbit_y	orbit_py
0.300000	11.851224	24.992925	-0.014955	-0.026861	2.615926	0.000000	0.000069	0.000000	-0.000093	0.000082	0.000000	0.000000
0.601250	11.867894	25.012742	-0.040380	-0.038923	2.615922	0.000000	0.000069	0.000000	-0.000069	0.000082	0.000000	0.000000
0.898573	11.899367	25.039427	-0.036281	-0.112228	2.615918	0.000000	-0.006349	0.000000	-0.000044	0.000082	0.000000	0.000000
1.339533	12.083955	24.860666	-0.383885	0.516076	2.629365	0.000000	0.067552	0.000000	-0.000008	0.000081	0.000000	0.000000
1.780493	12.581650	24.136068	-0.749029	1.120899	2.675537	0.000000	0.142220	0.000000	0.000028	0.000082	0.000000	0.000000
2.221453	13.415190	22.898601	-1.148395	1.674722	2.754960	0.000000	0.218508	0.000000	0.000064	0.000083	0.000000	0.000000
2.662413	14.622658	21.204568	-1.600228	2.152347	2.868538	0.000000	0.297284	0.000000	0.000101	0.000085	0.000000	0.000000
3.108373	16.280083	19.106204	-2.129484	2.533175	3.019425	0.000000	0.379934	0.000000	0.000140	0.000088	0.000000	0.000000
3.657433	18.405321	16.749491	-1.718235	1.784420	3.202739	0.000000	0.286981	0.000000	0.000187	0.000083	0.000000	0.000000
4.206493	20.009232	15.140800	-1.185615	1.162765	3.333544	0.000000	0.188939	0.000000	0.000230	0.000076	0.000000	0.000000
4.755553	20.978522	14.165550	-0.569247	0.623931	3.409522	0.000000	0.087547	0.000000	0.000270	0.000068	0.000000	0.000000
5.304613	21.244720	13.754276	0.087331	0.129539	3.429326	0.000000	-0.015397	0.000000	0.000305	0.000059	0.000000	0.000000
5.603185	21.229833	13.662183	0.017896	0.143072	3.427379	0.000000	-0.006460	0.000000	0.000322	0.000059	0.000000	0.000000
5.936519	21.223138	13.575101	0.002190	0.118174	3.425206	0.000000	-0.006460	0.000000	0.000342	0.000059	0.000000	0.000000
6.269852	21.226913	13.504618	-0.013516	0.093276	3.423033	0.000000	-0.006460	0.000000	0.000362	0.000059	0.000000	0.000000
6.604435	21.241232	13.450562	-0.029281	0.068285	3.420852	0.000000	-0.006460	0.000000	0.000382	0.000059	0.000000	0.000000
6.901758	21.262810	13.416560	-0.098660	0.081026	3.418914	0.000000	0.002443	0.000000	0.000400	0.000060	0.000000	0.000000
7.450818	21.008640	13.588191	0.558868	-0.395461	3.392050	0.000000	-0.100049	0.000000	0.000429	0.000047	0.000000	0.000000
7.999878	20.049919	14.295372	1.176921	-0.900117	3.309324	0.000000	-0.200766	0.000000	0.000451	0.000033	0.000000	0.000000
8.548938	18.454367	15.588473	1.711841	-1.468887	3.172203	0.000000	-0.297922	0.000000	0.000465	0.000018	0.000000	0.000000
9.097998	16.334689	17.559601	2.125843	-2.142285	2.983120	0.000000	-0.389793	0.000000	0.000471	0.000003	0.000000	0.000000
9.543958	14.680770	19.316017	1.596000	-1.779554	2.827578	0.000000	-0.308142	0.000000	0.000475	0.000015	0.000000	0.000000
9.984918	13.477369	20.695594	1.143392	-1.337096	2.708924	0.000000	-0.230487	0.000000	0.000484	0.000027	0.000000	0.000000
10.425878	12.648679	21.656536	0.743023	-0.833800	2.623897	0.000000	-0.155457	0.000000	0.000499	0.000040	0.000000	0.000000
10.866838	12.156840	22.155119	0.376601	-0.292566	2.571528	0.000000	-0.082199	0.000000	0.000520	0.000053	0.000000	0.000000
11.309048	11.979238	22.168138	0.056505	0.207817	2.551201	0.000000	-0.016100	0.000000	0.000546	0.000066	0.000000	0.000000
11.606371	11.953041	22.048721	0.031606	0.193825	2.546394	0.000000	-0.016100	0.000000	0.000566	0.000066	0.000000	0.000000
12.086371	11.941994	21.873490	-0.008591	0.171238	2.538634	0.000000	-0.016100	0.000000	0.000597	0.000066	0.000000	0.000000
12.566371	11.969536	21.719944	-0.048789	0.148650	2.530875	0.000000	-0.016100	0.000000	0.000629	0.000066	0.000000	0.000000
13.046371	12.035668	21.588083	-0.088986	0.126062	2.523115	0.000000	-0.016100	0.000000	0.000660	0.000066	0.000000	0.000000
13.526371	12.140390	21.477905	-0.129183	0.103474	2.515355	0.000000	-0.016100	0.000000	0.000692	0.000066	0.000000	0.000000
14.007621	12.284124	21.389210	-0.169485	0.080828	2.507575	0.000000	-0.016100	0.000000	0.000723	0.000066	0.000000	0.000000
14.304943	12.392310	21.345307	-0.164208	0.014879	2.502769	0.000000	-0.022195	0.000000	0.000743	0.000064	0.000000	0.000000
14.745903	12.695965	21.098558	-0.526992	0.542559	2.508574	0.000000	0.048692	0.000000	0.000775	0.000083	0.000000	0.000000
15.186863	13.328942	20.395581	-0.913855	1.045552	2.545721	0.000000	0.120132	0.000000	0.000816	0.000104	0.000000	0.000000
15.627823	14.320162	19.268363	-1.342470	1.500973	2.614634	0.000000	0.192939	0.000000	0.000867	0.000126	0.000000	0.000000
16.068783	15.714916	17.768189	-1.832423	1.888099	2.716095	0.000000	0.267942	0.000000	0.000927	0.000149	0.000000	0.000000
16.514743	17.600575	15.941822	-2.410878	2.190082	2.852956	0.000000	0.346461	0.000000	0.000999	0.000174	0.000000	0.000000
17.063803	20.022005	13.902498	-1.973003	1.545997	3.019386	0.000000	0.259173	0.000000	0.001085	0.000140	0.000000	0.000000
17.612863	21.882741	12.506205	-1.395757	1.012033	3.136573	0.000000	0.167290	0.000000	0.001152	0.000104	0.000000	0.000000
18.161923	23.051339	11.653488	-0.719914	0.550156	3.202440	0.000000	0.072441	0.000000	0.001199	0.000066	0.000000	0.000000
18.710983	23.445245	11.283609	0.006785	0.127467	3.215819	0.000000	-0.023691	0.000000	0.001224	0.000026	0.000000	0.000000
19.009556	23.481209	11.198167	-0.066615	0.129531	3.211220	0.000000	-0.015376	0.000000	0.001233	0.000030	0.000000	0.000000
19.342889	23.530372	11.121901	-0.080873	0.099265	3.206085	0.000000	-0.015376	0.000000	0.001243	0.000030	0.000000	0.000000
19.676223	23.589040	11.065813	-0.095132	0.068999	3.200950	0.000000	-0.015376	0.000000	0.001253	0.000030	0.000000	0.000000
20.010806	23.657781	11.029670	-0.226658	0.093267	3.195815	0.000000	0.000458	0.000000	0.001263	0.000036	0.000000	0.000000
20.308129	23.796492	10.982293	-0.301382	0.094469	3.195941	0.000000	0.008719	0.000000	0.001273	0.000039	0.000000	0.000000
20.857189	23.717049	11.100753	0.445225	-0.311489	3.174508	0.000000	-0.086639	0.000000	0.001283	-0.000002	0.000000	0.000000
21.406249	22.830199	11.674506	1.160382	-0.739634	3.101084	0.000000	-0.180461	0.000000	0.001271	-0.000044	0.000000	0.000000
21.955309	21.198593	12.744421	1.793570	-1.220464	2.976971	0.000000	-0.271082	0.000000	0.001235	-0.000084	0.000000	0.000000
22.504369	18.937487	14.386707	2.300060	-1.788227	2.804370	0.000000	-0.356896	0.000000	0.001178	-0.000123	0.000000	0.000000
22.950329	17.155980	15.861134	1.708709	-1.503969	2.662543	0.000000	-0.279701	0.000000	0.001130	-0.000093	0.000000	0.000000
23.391289	15.878099	17.036872	1.200153	-1.152155	2.555557	0.000000	-0.206149	0.000000	0.001095	-0.000065	0.000000	0.000000
23.832249	15.022954	17.877942	0.746432	-0.747918	2.480445	0.000000	-0.134944	0.000000	0.001073	-0.000037	0.000000	0.000000
24.273209	14.551473	18.346076	0.326815	-0.309650	2.436351	0.000000	-0.065276	0.000000	0.001063	-0.000009	0.000000	0.000000
24.715418	14.442219	18.419727	-0.042897	0.097919	2.422772	0.000000	-0.002232	0.000000	0.001064	0.000015	0.000000	0.000000
25.012741	14.473860	18.366346	-0.063522	0.081622	2.422104	0.000000	-0.002232	0.000000	0.001069	0.000015	0.000000	0.000000
25.346075	14.523916	18.318021	-0.086645	0.063352	2.421354	0.000000	-0.002232	0.000000	0.001074	0.000015	0.000000	0.000000
25.679408	14.589388	18.281876	-0.109768	0.045082	2.420605	0.000000	-0.002232	0.000000	0.001079	0.000015	0.000000	0.000000
26.013991	14.670309	18.258214	-0.013963	-0.121376	2.419829	0.000000	-0.021863	0.000000	0.001085	0.000007	0.000000	0.000000
26.311314	14.684638	18.335304	0.001406	-0.182399	2.413326	0.000000	-0.027721	0.000000	0.001087	0.000004	0.000000	0.000000
26.752274	14.864417	18.297295	-0.410637	0.268265	2.416205	0.000000	0.040823	0.000000	0.001095	0.000032	0.000000	0.000000
27.193234	15.414464	17.865714	-0.841442	0.706724	2.449370	0.000000	0.109831	0.000000	0.001115	0.000061	0.000000	0.000000
27.634194	16.359913	17.060199	-1.310693	1.113026	2.513200	0.000000	0.180089	0.000000	0.001148	0.000090	0.000000	0.000000
28.075154	17.743962	15.917399	-1.839829	1.468685	2.608421	0.000000	0.252398	0.000000	0.001194	0.000120	0.000000	0.000000
28.521114	19.653916	14.472095	-2.458001	1.758454	2.737721	0.000000	0.328027	0.000000	0.001255	0.000152	0.000000	0.000000
29.070174	22.081605	12.861674	-1.937202	1.191854	2.895096	0.000000	0.244619	0.000000	0.001327	0.000110	0.000000	0.000000
29.619234	23.858383	11.823468	-1.279557	0.710150	3.005436	0.000000	0.156874	0.000000	0.001375	0.000066	0.000000	0.000000
30.168294	24.858734	11.283525	-0.531525	0.279031	3.066785	0.000000	0.066347	0.000000	0.001399	0.000021	0.000000	0.000000
30.717354	25.011992	11.203385	0.254055	-0.132214	3.078055	0.000000	-0.025357	0.000000	0.001398	-0.000024	0.000000	0.000000
31.015927	24.902540	11.273102	0.177106	-0.130216	3.072863	0.000000	-0.017409	0.000000	0.001392	-0.000020	0.000000	0.000000
31.349260	24.789071	11.369936	0.163301	-0.160287	3.067067	0.000000	-0.017409	0.000000	0.001385	-0.000020	0.000000	0.000000
31.682593	24.684806	11.486817	0.149495	-0.190357	3.061271	0.000000	-0.017409	0.000000	0.001379	-0.000020	0.000000	0.000000
32.017177	24.589405	11.624296	0.135638	-0.220540	3.055453	0.000000	-0.017409	0.000000	0.001372	-0.000020	0.000000	0.000000
32.314499	24.512411	11.763413	0.060013	-0.216982	3.050283	0.000000	-0.009531	0.000000	0.001366	-0.000017	0.000000	0.000000
32.863559	24.026658	12.240982	0.819404	-0.657929	3.020181	0.000000	-0.100029	0.000000	0.001344	-0.000061	0.000000	0.000000
33.412619	22.733977	13.225511	1.520912	-1.145740	2.940826	0.000000	-0.188755	0.000000	0.001299	-0.000104	0.000000	0.000000
33.961679	20.725686	14.787129	2.114982	-1.715163	2.813625	0.000000	-0.274133	0.000000	0.001231	-0.000145	0.000000	0.000000
34.510739	18.143655	17.037066	2.559649	-2.406756	2.640834	0.000000	-0.354652	0.000000	0.001141	-0.000183	0.000000	0.000000
34.956699	16.136394	19.049513	1.957328	-2.086961	2.499092	0.000000	-0.281698	0.000000	0.001065	-0.000154	0.000000	0.000000
35.397659	14.639769	20.713854	1.449452	-1.672980	2.390318	0.000000	-0.212383	0.000000	0.001003	-0.000128	0.000000	0.000000
35.838619	13.560279	21.978001	1.007801	-1.182877	2.311538	0.000000	-0.145486	0.000000	0.000953	-0.000103	0.000000	0.000000
36.279579	12.848600	22.784436	0.612197	-0.638954	2.261855	0.000000	-0.080244	0.000000	0.000913	-0.000079	0.000000	0.000000
36.721789	12.471528	23.096770	0.274786	-0.122160	2.240675	0.000000	-0.021365	0.000000	0.000883	-0.000058	0.000000	0.000000
37.019112	12.315751	23.173296	0.249146	-0.135225	2.234340	0.000000	-0.021365	0.000000	0.000866	-0.000058	0.000000	0.000000
37.352445	12.159236	23.268328	0.220400	-0.149872	2.227237	0.000000	-0.021365	0.000000	0.000847	-0.000058	0.000000	0.000000
37.685779	12.021884	23.373126	0.191654	-0.164520	2.220135	0.000000	-0.021365	0.000000	0.000828	-0.000058	0.000000	0.000000
38.020362	11.903289	23.488136	0.162801	-0.179222	2.213006	0.000000	-0.021365	0.000000	0.000808	-0.000058	0.000000	0.000000
38.317684	11.814104	23.598594	0.165915	-0.249744	2.206671	0.000000	-0.026736	0.000000	0.000791	-0.000059	0.000000	0.000000
38.758644	11.818578	23.557462	-0.176117	0.342666	2.208836	0.000000	0.036470	0.000000	0.000769	-0.000039	0.000000	0.000000
39.199604	12.127097	22.998773	-0.526195	0.919484	2.238930	0.000000	0.100092	0.000000	0.000756	-0.000020	0.000000	0.000000
39.640564	12.753758	21.947946	-0.900314	1.454466	2.297294	0.000000	0.164854	0.000000	0.000752	-0.000000	0.000000	0.000000
40.081524	13.727192	20.452794	-1.315567	1.923269	2.384595	0.000000	0.231494	0.000000	0.000756	0.000019	0.000000	0.000000
40.527484	15.109423	18.558762	-1.794760	2.305863	2.503299	0.000000	0.301178	0.000000	0.000769	0.000039	0.000000	0.000000
41.076544	16.873941	16.430356	-1.399874	1.593431	2.648108	0.000000	0.225570	0.000000	0.000784	0.000014	0.000000	0.000000
41.625604	18.147616	15.017749	-0.906105	0.994499	2.750255	0.000000	0.145962	0.000000	0.000784	-0.000012	0.000000	0.000000
42.174664	18.840479	14.220323	-0.348331	0.466405	2.807930	0.000000	0.063765	0.000000	0.000771	-0.000037	0.000000	0.000000
42.723724	18.903587	13.981278	0.234048	-0.028468	2.820108	0.000000	-0.019564	0.000000	0.000744	-0.000061	0.000000	0.000000
43.022297	18.798013	13.982970	0.168630	-0.013510	2.816471	0.000000	-0.012242	0.000000	0.000726	-0.000059	0.000000	0.000000
43.502297	18.648733	14.012420	0.142369	-0.047844	2.810623	0.000000	-0.012242	0.000000	0.000698	-0.000059	0.000000	0.000000
43.982297	18.524664	14.074830	0.116108	-0.082178	2.804775	0.000000	-0.012242	0.000000	0.000669	-0.000059	0.000000	0.000000
44.462297	18.425805	14.170200	0.089848	-0.116511	2.798928	0.000000	-0.012242	0.000000	0.000641	-0.000059	0.000000	0.000000
44.942297	18.352157	14.298531	0.063587	-0.150845	2.793080	0.000000	-0.012242	0.000000	0.000612	-0.000059	0.000000	0.000000
45.423547	18.303852	14.460107	-0.053430	-0.113624	2.787234	0.000000	0.001568	0.000000	0.000584	-0.000057	0.000000	0.000000
45.720870	18.340467	14.533865	-0.117412	-0.096669	2.787717	0.000000	0.008817	0.000000	0.000567	-0.000055	0.000000	0.000000
46.269930	18.160548	14.921143	0.443122	-0.612838	2.770002	0.000000	-0.073373	0.000000	0.000532	-0.000073	0.000000	0.000000
46.818990	17.378710	15.895743	0.972355	-1.172659	2.707460	0.000000	-0.154262	0.000000	0.000487	-0.000089	0.000000	0.000000
47.368050	16.050181	17.527080	1.432902	-1.816006	2.601199	0.000000	-0.232416	0.000000	0.000434	-0.000104	0.000000	0.000000
47.917110	14.268808	19.931353	1.792232	-2.588705	2.453104	0.000000	-0.306450	0.000000	0.000373	-0.000117	0.000000	0.000000
48.363070	12.882251	22.068984	1.327876	-2.184452	2.331791	0.000000	-0.238104	0.000000	0.000323	-0.000108	0.000000	0.000000
48.804030	11.891257	23.780495	0.927958	-1.682090	2.241310	0.000000	-0.172867	0.000000	0.000277	-0.000101	0.000000	0.000000
49.244990	11.233005	25.013389	0.570438	-1.103193	2.179132	0.000000	-0.109599	0.000000	0.000234	-0.000094	0.000000	0.000000
49.685950	10.877419	25.711573	0.238980	-0.474103	2.144550	0.000000	-0.047577	0.000000	0.000194	-0.000088	0.000000	0.000000
50.128160	10.808391	25.842996	-0.055209	0.113259	2.137180	0.000000	0.008670	0.000000	0.000156	-0.000084	0.000000	0.000000
50.425482	10.849425	25.779111	-0.082801	0.101607	2.139783	0.000000	0.008670	0.000000	0.000131	-0.000084	0.000000	0.000000
50.758816	10.914937	25.715728	-0.113736	0.088543	2.142701	0.000000	0.008670	0.000000	0.000102	-0.000084	0.000000	0.000000
51.092149	11.001073	25.661054	-0.144670	0.075479	2.145619	0.000000	0.008670	0.000000	0.000074	-0.000084	0.000000	0.000000
51.426732	11.108045	25.615453	-0.085604	-0.145439	2.148527	0.000000	-0.008760	0.000000	0.000046	-0.000085	0.000000	0.000000
51.724055	11.166965	25.705462	-0.085188	-0.220348	2.145947	0.000000	-0.014022	0.000000	0.000021	-0.000085	0.000000	0.000000
52.165015	11.387805	25.613821	-0.417555	0.427378	2.153399	0.000000	0.047686	0.000000	-0.000016	-0.000085	0.000000	0.000000
52.605975	11.909038	24.957364	-0.768999	1.055658	2.188155	0.000000	0.109937	0.000000	-0.000054	-0.000086	0.000000	0.000000
53.046935	12.754477	23.765960	-1.155576	1.635905	2.250611	0.000000	0.173442	0.000000	-0.000092	-0.000088	0.000000	0.000000
53.487895	13.962747	22.093817	-1.594947	2.141721	2.341481	0.000000	0.238922	0.000000	-0.000131	-0.000090	0.000000	0.000000
53.933855	15.609747	19.992018	-2.111432	2.551421	2.463304	0.000000	0.307524	0.000000	-0.000172	-0.000094	0.000000	0.000000
54.482915	17.730082	17.627006	-1.727518	1.781399	2.612002	0.000000	0.233152	0.000000	-0.000223	-0.000088	0.000000	0.000000
55.031975	19.358927	16.033351	-1.221583	1.138261	2.718665	0.000000	0.154643	0.000000	-0.000269	-0.000080	0.000000	0.000000
55.581035	20.381233	15.097537	-0.629365	0.576199	2.781399	0.000000	0.073390	0.000000	-0.000310	-0.000071	0.000000	0.000000
56.130095	20.724792	14.752909	0.007306	0.055178	2.799090	0.000000	-0.009166	0.000000	-0.000346	-0.000060	0.000000	0.000000
56.428668	20.757169	14.702963	-0.061439	0.073432	2.798562	0.000000	-0.001831	0.000000	-0.000364	-0.000061	0.000000	0.000000
56.762001	20.803501	14.661606	-0.077558	0.050639	2.797972	0.000000	-0.001831	0.000000	-0.000385	-0.000061	0.000000	0.000000
57.095334	20.860580	14.635445	-0.093678	0.027846	2.797382	0.000000	-0.001831	0.000000	-0.000405	-0.000061	0.000000	0.000000
57.429918	20.928679	14.624466	-0.109857	0.004967	2.796789	0.000000	-0.001831	0.000000	-0.000425	-0.000061	0.000000	0.000000
57.727240	20.998280	14.627558	-0.179303	0.022984	2.796263	0.000000	0.005502	0.000000	-0.000443	-0.000062	0.000000	0.000000
58.276300	20.836767	14.883231	0.471695	-0.491391	2.776654	0.000000	-0.076931	0.000000	-0.000473	-0.000047	0.000000	0.000000
58.825360	19.974535	15.719535	1.089374	-1.040766	2.712084	0.000000	-0.158000	0.000000	-0.000495	-0.000032	0.000000	0.000000
59.374420	18.472489	17.196037	1.630107	-1.664272	2.603699	0.000000	-0.236268	0.000000	-0.000508	-0.000015	0.000000	0.000000
59.923480	16.436722	19.417903	2.055700	-2.406317	2.453422	0.000000	-0.310344	0.000000	-0.000512	0.000001	0.000000	0.000000
60.369440	14.843050	21.392764	1.530549	-2.003352	2.330323	0.000000	-0.242018	0.000000	-0.000514	-0.000012	0.000000	0.000000
60.810400	13.696461	22.948182	1.079537	-1.510596	2.238069	0.000000	-0.176843	0.000000	-0.000522	-0.000025	0.000000	0.000000
61.251360	12.924456	24.036949	0.677845	-0.949111	2.174089	0.000000	-0.113683	0.000000	-0.000536	-0.000039	0.000000	0.000000
61.692320	12.491763	24.609529	0.307121	-0.344443	2.137655	0.000000	-0.051816	0.000000	-0.000557	-0.000053	0.000000	0.000000
62.134530	12.378662	24.639332	-0.019149	0.215111	2.128356	0.000000	0.004212	0.000000	-0.000584	-0.000066	0.000000	0.000000
62.431853	12.397193	24.515171	-0.043177	0.202485	2.129629	0.000000	0.004212	0.000000	-0.000603	-0.000066	0.000000	0.000000
62.765186	12.434957	24.384899	-0.070115	0.188331	2.131055	0.000000	0.004212	0.000000	-0.000625	-0.000066	0.000000	0.000000
63.098520	12.490680	24.264064	-0.097053	0.174176	2.132481	0.000000	0.004212	0.000000	-0.000648	-0.000066	0.000000	0.000000
63.433103	12.564671	24.152264	-0.124092	0.159969	2.133913	0.000000	0.004212	0.000000	-0.000670	-0.000066	0.000000	0.000000
63.730426	12.645606	24.060894	-0.116907	0.087933	2.135185	0.000000	-0.001058	0.000000	-0.000689	-0.000065	0.000000	0.000000
64.171386	12.909555	23.718364	-0.483976	0.685900	2.148297	0.000000	0.060444	0.000000	-0.000722	-0.000083	0.000000	0.000000
64.612346	13.505713	22.860280	-0.873156	1.252660	2.188663	0.000000	0.122635	0.000000	-0.000763	-0.000102	0.000000	0.000000
65.053306	14.461314	21.525685	-1.302225	1.762426	2.256743	0.000000	0.186224	0.000000	-0.000812	-0.000122	0.000000	0.000000
65.494266	15.820012	19.775299	-1.790786	2.192004	2.353312	0.000000	0.251935	0.000000	-0.000871	-0.000144	0.000000	0.000000
65.940226	17.667063	17.663993	-2.365836	2.522585	2.481044	0.000000	0.320916	0.000000	-0.000940	-0.000168	0.000000	0.000000
66.489286	20.034214	15.302090	-1.920065	1.804588	2.636947	0.000000	0.245855	0.000000	-0.001024	-0.000136	0.000000	0.000000
67.038346	21.834047	13.653841	-1.338678	1.215124	2.750360	0.000000	0.166431	0.000000	-0.001089	-0.000101	0.000000	0.000000
67.587406	22.939442	12.601846	-0.662740	0.712209	2.819269	0.000000	0.084053	0.000000	-0.001135	-0.000065	0.000000	0.000000
68.136466	23.272327	12.071173	0.060006	0.260022	2.842453	0.000000	0.000183	0.000000	-0.001161	-0.000028	0.000000	0.000000
68.435038	23.276987	11.904898	-0.014219	0.265031	2.844756	0.000000	0.007681	0.000000	-0.001170	-0.000031	0.000000	0.000000
68.768372	23.291240	11.738199	-0.028542	0.235064	2.847327	0.000000	0.007681	0.000000	-0.001180	-0.000031	0.000000	0.000000
69.101705	23.315043	11.591479	-0.042865	0.205098	2.849898	0.000000	0.007681	0.000000	-0.001191	-0.000031	0.000000	0.000000
69.436288	23.348537	11.464298	-0.057242	0.175019	2.852478	0.000000	0.007681	0.000000	-0.001201	-0.000031	0.000000	0.000000
69.733611	23.386376	11.368170	-0.131740	0.178288	2.854771	0.000000	0.015216	0.000000	-0.001211	-0.000035	0.000000	0.000000
70.282671	23.129410	11.400022	0.596979	-0.236644	2.839941	0.000000	-0.069188	0.000000	-0.001219	0.000005	0.000000	0.000000
