#ParticleID	Turn	x[m]	xp	y[m]	yp	z[m]	dE[GeV]# s	beta_x	beta_y	alpha_x	alpha_y	D_x	D_y	D_px	D_py	orbit_x	orbit_px	orbit_y	orbit_py
0.300000	11.839877	24.953143	-0.014163	-0.027521	2.617657	0.000000	-0.000039	0.000000	-0.000027	0.000024	0.000000	0.000000
0.601250	11.856076	24.973364	-0.039612	-0.039602	2.617638	0.000000	-0.000039	0.000000	-0.000020	0.000024	0.000000	0.000000
0.898573	11.887099	25.000459	-0.035575	-0.112834	2.617619	0.000000	-0.006459	0.000000	-0.000013	0.000024	0.000000	0.000000
1.339533	12.070927	24.822685	-0.382881	0.514452	2.631051	0.000000	0.067485	0.000000	-0.000002	0.000024	0.000000	0.000000
1.780493	12.567579	24.099942	-0.747680	1.118332	2.677227	0.000000	0.142197	0.000000	0.000008	0.000024	0.000000	0.000000
2.221453	13.399745	22.865114	-1.146639	1.671328	2.756674	0.000000	0.218529	0.000000	0.000019	0.000024	0.000000	0.000000
2.662413	14.605445	21.174386	-1.597985	2.148280	2.870297	0.000000	0.297349	0.000000	0.000030	0.000025	0.000000	0.000000
3.108373	16.260598	19.079886	-2.126643	2.528618	3.021249	0.000000	0.380045	0.000000	0.000041	0.000026	0.000000	0.000000
3.657433	18.382977	16.727567	-1.715937	1.780934	3.204639	0.000000	0.287033	0.000000	0.000055	0.000024	0.000000	0.000000
4.206493	19.984720	15.122237	-1.184024	1.160102	3.335485	0.000000	0.188929	0.000000	0.000067	0.000022	0.000000	0.000000
4.755553	20.952686	14.149550	-0.568477	0.621901	3.411467	0.000000	0.087474	0.000000	0.000079	0.000020	0.000000	0.000000
5.304613	21.218503	13.740226	0.087224	0.127998	3.431237	0.000000	-0.015531	0.000000	0.000089	0.000017	0.000000	0.000000
5.603185	21.203704	13.649035	0.017740	0.141555	3.429270	0.000000	-0.006573	0.000000	0.000094	0.000017	0.000000	0.000000
5.936519	21.197119	13.562969	0.002014	0.116644	3.427073	0.000000	-0.006573	0.000000	0.000100	0.000017	0.000000	0.000000
6.269852	21.201018	13.493510	-0.013711	0.091733	3.424876	0.000000	-0.006573	0.000000	0.000106	0.000017	0.000000	0.000000
6.604435	21.215474	13.440492	-0.029495	0.066728	3.422671	0.000000	-0.006573	0.000000	0.000111	0.000017	0.000000	0.000000
6.901758	21.237184	13.407418	-0.098957	0.079509	3.420712	0.000000	0.002356	0.000000	0.000116	0.000018	0.000000	0.000000
7.450818	20.983798	13.580582	0.557724	-0.396751	3.393805	0.000000	-0.100193	0.000000	0.000125	0.000014	0.000000	0.000000
7.999878	20.026759	14.289093	1.175011	-0.901271	3.311000	0.000000	-0.200965	0.000000	0.000131	0.000010	0.000000	0.000000
8.548938	18.433668	15.583417	1.709300	-1.469986	3.173766	0.000000	-0.298172	0.000000	0.000136	0.000005	0.000000	0.000000
9.097998	16.317054	17.555747	2.122852	-2.143406	2.984537	0.000000	-0.390090	0.000000	0.000137	0.000001	0.000000	0.000000
9.543958	14.665536	19.313266	1.593597	-1.780911	2.828872	0.000000	-0.308407	0.000000	0.000138	0.000004	0.000000	0.000000
9.984918	13.464045	20.694110	1.141454	-1.338618	2.710116	0.000000	-0.230720	0.000000	0.000141	0.000008	0.000000	0.000000
10.425878	12.636892	21.656437	0.741462	-0.835418	2.625003	0.000000	-0.155661	0.000000	0.000145	0.000012	0.000000	0.000000
10.866838	12.146287	22.156461	0.375345	-0.294207	2.572565	0.000000	-0.082376	0.000000	0.000151	0.000015	0.000000	0.000000
11.309048	11.969677	22.170915	0.055581	0.206036	2.552183	0.000000	-0.016278	0.000000	0.000159	0.000019	0.000000	0.000000
11.606371	11.944034	22.052553	0.030665	0.192056	2.547338	0.000000	-0.016278	0.000000	0.000165	0.000019	0.000000	0.000000
12.086371	11.933904	21.879013	-0.009561	0.169487	2.539515	0.000000	-0.016278	0.000000	0.000174	0.000019	0.000000	0.000000
12.566371	11.962391	21.727139	-0.049786	0.146918	2.531693	0.000000	-0.016278	0.000000	0.000183	0.000019	0.000000	0.000000
13.046371	12.029493	21.596931	-0.090011	0.124349	2.523871	0.000000	-0.016278	0.000000	0.000192	0.000019	0.000000	0.000000
13.526371	12.135212	21.488389	-0.130236	0.101780	2.516048	0.000000	-0.016278	0.000000	0.000201	0.000019	0.000000	0.000000
14.007621	12.279973	21.401316	-0.170566	0.079152	2.508205	0.000000	-0.016278	0.000000	0.000210	0.000019	0.000000	0.000000
14.304943	12.388808	21.358405	-0.165164	0.012908	2.503360	0.000000	-0.022404	0.000000	0.000216	0.000019	0.000000	0.000000
14.745903	12.693268	21.113230	-0.527895	0.540979	2.509098	0.000000	0.048496	0.000000	0.000226	0.000024	0.000000	0.000000
15.186863	13.327017	20.411453	-0.914744	1.044435	2.546190	0.000000	0.119947	0.000000	0.000238	0.000030	0.000000	0.000000
15.627823	14.319008	19.285005	-1.343386	1.500371	2.615057	0.000000	0.192765	0.000000	0.000252	0.000037	0.000000	0.000000
16.068783	15.714563	17.785138	-1.833405	1.888040	2.716485	0.000000	0.267778	0.000000	0.000270	0.000043	0.000000	0.000000
16.514743	17.601096	15.958597	-2.411952	2.190559	2.853321	0.000000	0.346303	0.000000	0.000291	0.000051	0.000000	0.000000
17.063803	20.023716	13.918983	-1.974189	1.546090	3.019718	0.000000	0.259006	0.000000	0.000316	0.000041	0.000000	0.000000
17.612863	21.885731	12.522812	-1.396977	1.011746	3.136856	0.000000	0.167115	0.000000	0.000335	0.000030	0.000000	0.000000
18.161923	23.055615	11.670638	-0.721087	0.549467	3.202656	0.000000	0.072261	0.000000	0.000349	0.000019	0.000000	0.000000
18.710983	23.450730	11.301763	0.005738	0.126326	3.215952	0.000000	-0.023875	0.000000	0.000356	0.000008	0.000000	0.000000
19.009556	23.487596	11.216827	-0.068123	0.128707	3.211322	0.000000	-0.015498	0.000000	0.000359	0.000009	0.000000	0.000000
19.342889	23.537764	11.141092	-0.082380	0.098497	3.206154	0.000000	-0.015498	0.000000	0.000362	0.000009	0.000000	0.000000
19.676223	23.597437	11.085497	-0.096638	0.068288	3.200985	0.000000	-0.015498	0.000000	0.000364	0.000009	0.000000	0.000000
20.010806	23.667185	11.049810	-0.228210	0.092713	3.195817	0.000000	0.000336	0.000000	0.000367	0.000010	0.000000	0.000000
20.308129	23.806819	11.002748	-0.303436	0.094234	3.195914	0.000000	0.008661	0.000000	0.000370	0.000011	0.000000	0.000000
20.857189	23.729439	11.121775	0.443536	-0.312297	3.174457	0.000000	-0.086694	0.000000	0.000373	-0.000001	0.000000	0.000000
21.406249	22.844205	11.696747	1.159179	-0.741072	3.100996	0.000000	-0.180510	0.000000	0.000370	-0.000013	0.000000	0.000000
21.955309	21.213645	12.768618	1.792942	-1.222634	2.976835	0.000000	-0.271126	0.000000	0.000359	-0.000025	0.000000	0.000000
22.504369	18.952939	14.413736	2.300058	-1.791281	2.804175	0.000000	-0.356932	0.000000	0.000343	-0.000036	0.000000	0.000000
22.950329	17.171579	15.890591	1.708454	-1.506368	2.662299	0.000000	-0.279747	0.000000	0.000329	-0.000027	0.000000	0.000000
23.391289	15.894075	17.068095	1.199611	-1.153779	2.555268	0.000000	-0.206203	0.000000	0.000319	-0.000019	0.000000	0.000000
23.832249	15.039560	17.910217	0.745576	-0.748693	2.480115	0.000000	-0.135007	0.000000	0.000312	-0.000011	0.000000	0.000000
24.273209	14.568993	18.378642	0.325605	-0.309543	2.435985	0.000000	-0.065350	0.000000	0.000309	-0.000003	0.000000	0.000000
24.715418	14.460986	18.451808	-0.044218	0.098505	2.422372	0.000000	-0.002359	0.000000	0.000310	0.000004	0.000000	0.000000
25.012741	14.493405	18.398070	-0.064818	0.082235	2.421669	0.000000	-0.002359	0.000000	0.000311	0.000004	0.000000	0.000000
25.346075	14.544316	18.349327	-0.087914	0.063995	2.420882	0.000000	-0.002359	0.000000	0.000312	0.000004	0.000000	0.000000
25.679408	14.610624	18.312743	-0.111009	0.045755	2.420094	0.000000	-0.002359	0.000000	0.000314	0.000004	0.000000	0.000000
26.013991	14.692366	18.288623	-0.014997	-0.120920	2.419278	0.000000	-0.021986	0.000000	0.000315	0.000002	0.000000	0.000000
26.311314	14.707302	18.365432	0.000720	-0.182318	2.412741	0.000000	-0.027885	0.000000	0.000316	0.000001	0.000000	0.000000
26.752274	14.887920	18.326993	-0.411872	0.269156	2.415549	0.000000	0.040641	0.000000	0.000318	0.000009	0.000000	0.000000
27.193234	15.439307	17.894290	-0.843283	0.708382	2.448643	0.000000	0.109630	0.000000	0.000324	0.000018	0.000000	0.000000
27.634194	16.386653	17.087008	-1.313221	1.115378	2.512402	0.000000	0.179867	0.000000	0.000334	0.000026	0.000000	0.000000
28.075154	17.773243	15.941880	-1.843157	1.471625	2.607551	0.000000	0.252153	0.000000	0.000347	0.000035	0.000000	0.000000
28.521114	19.686527	14.493761	-2.462263	1.761834	2.736776	0.000000	0.327754	0.000000	0.000365	0.000044	0.000000	0.000000
29.070174	22.118353	12.880109	-1.940543	1.194433	2.894057	0.000000	0.244381	0.000000	0.000386	0.000032	0.000000	0.000000
29.619234	23.898140	11.839440	-1.281750	0.712110	3.004307	0.000000	0.156673	0.000000	0.000400	0.000019	0.000000	0.000000
30.168294	24.900171	11.297628	-0.532419	0.280509	3.065573	0.000000	0.066187	0.000000	0.000407	0.000006	0.000000	0.000000
30.717354	25.053663	11.216080	0.254520	-0.131111	3.076767	0.000000	-0.025474	0.000000	0.000407	-0.000007	0.000000	0.000000
31.015927	24.944320	11.284963	0.176938	-0.128801	3.071555	0.000000	-0.017462	0.000000	0.000405	-0.000006	0.000000	0.000000
31.349260	24.830955	11.380839	0.163157	-0.158829	3.065736	0.000000	-0.017462	0.000000	0.000403	-0.000006	0.000000	0.000000
31.682593	24.726777	11.496735	0.149375	-0.188857	3.059917	0.000000	-0.017462	0.000000	0.000401	-0.000006	0.000000	0.000000
32.017177	24.631449	11.633196	0.135542	-0.218997	3.054077	0.000000	-0.017462	0.000000	0.000399	-0.000006	0.000000	0.000000
32.314499	24.554504	11.771385	0.059307	-0.215128	3.048887	0.000000	-0.009522	0.000000	0.000397	-0.000005	0.000000	0.000000
32.863559	24.068781	12.246987	0.820088	-0.656191	3.018789	0.000000	-0.099973	0.000000	0.000391	-0.000018	0.000000	0.000000
33.412619	22.774641	13.229602	1.522941	-1.143994	2.939448	0.000000	-0.188651	0.000000	0.000378	-0.000030	0.000000	0.000000
33.961679	20.763498	14.789220	2.118218	-1.713282	2.812273	0.000000	-0.273983	0.000000	0.000358	-0.000042	0.000000	0.000000
34.510739	18.177413	17.036930	2.563872	-2.404604	2.639518	0.000000	-0.354455	0.000000	0.000332	-0.000053	0.000000	0.000000
34.956699	16.166863	19.047346	1.960606	-2.084619	2.497804	0.000000	-0.281539	0.000000	0.000310	-0.000045	0.000000	0.000000
35.397659	14.667749	20.709554	1.451919	-1.670541	2.389052	0.000000	-0.212259	0.000000	0.000292	-0.000037	0.000000	0.000000
35.838619	13.586424	21.971537	1.009567	-1.180454	2.310285	0.000000	-0.145395	0.000000	0.000277	-0.000030	0.000000	0.000000
36.279579	12.873484	22.775874	0.613341	-0.636657	2.260607	0.000000	-0.080187	0.000000	0.000265	-0.000023	0.000000	0.000000
36.721789	12.495666	23.086271	0.275600	-0.120418	2.239426	0.000000	-0.021370	0.000000	0.000257	-0.000017	0.000000	0.000000
37.019112	12.339394	23.161762	0.249998	-0.133484	2.233077	0.000000	-0.021370	0.000000	0.000252	-0.000017	0.000000	0.000000
37.352445	12.182296	23.255634	0.221296	-0.148132	2.225959	0.000000	-0.021370	0.000000	0.000246	-0.000017	0.000000	0.000000
37.685779	12.044332	23.359271	0.192594	-0.162780	2.218841	0.000000	-0.021370	0.000000	0.000241	-0.000017	0.000000	0.000000
38.020362	11.925094	23.473117	0.163784	-0.177483	2.211697	0.000000	-0.021370	0.000000	0.000235	-0.000017	0.000000	0.000000
38.317684	11.835312	23.582541	0.167144	-0.248260	2.205348	0.000000	-0.026767	0.000000	0.000230	-0.000017	0.000000	0.000000
38.758644	11.838916	23.540295	-0.175353	0.343700	2.207477	0.000000	0.036404	0.000000	0.000224	-0.000011	0.000000	0.000000
39.199604	12.146954	22.980914	-0.525860	0.920021	2.237524	0.000000	0.099989	0.000000	0.000220	-0.000006	0.000000	0.000000
39.640564	12.773499	21.929851	-0.900393	1.454481	2.295831	0.000000	0.164713	0.000000	0.000219	-0.000000	0.000000	0.000000
40.081524	13.747177	20.434928	-1.316063	1.922763	2.383063	0.000000	0.231313	0.000000	0.000220	0.000006	0.000000	0.000000
40.527484	15.130028	18.541590	-1.795686	2.304845	2.501685	0.000000	0.300954	0.000000	0.000224	0.000011	0.000000	0.000000
41.076544	16.895124	16.414042	-1.400029	1.592908	2.646395	0.000000	0.225402	0.000000	0.000228	0.000004	0.000000	0.000000
41.625604	18.168529	15.001769	-0.905480	0.994431	2.748466	0.000000	0.145852	0.000000	0.000228	-0.000003	0.000000	0.000000
42.174664	18.860296	14.204179	-0.346972	0.466786	2.806087	0.000000	0.063714	0.000000	0.000224	-0.000011	0.000000	0.000000
42.723724	18.921561	13.964459	0.236044	-0.027610	2.818236	0.000000	-0.019553	0.000000	0.000216	-0.000018	0.000000	0.000000
43.022297	18.814952	13.965580	0.170366	-0.012569	2.814598	0.000000	-0.012203	0.000000	0.000211	-0.000017	0.000000	0.000000
43.502297	18.664002	13.994147	0.144114	-0.046945	2.808749	0.000000	-0.012203	0.000000	0.000203	-0.000017	0.000000	0.000000
43.982297	18.538254	14.055714	0.117861	-0.081320	2.802899	0.000000	-0.012203	0.000000	0.000195	-0.000017	0.000000	0.000000
44.462297	18.437708	14.150282	0.091609	-0.115696	2.797050	0.000000	-0.012203	0.000000	0.000186	-0.000017	0.000000	0.000000
44.942297	18.362364	14.277851	0.065357	-0.150072	2.791201	0.000000	-0.012203	0.000000	0.000178	-0.000017	0.000000	0.000000
45.423547	18.312351	14.438702	-0.051693	-0.112999	2.785354	0.000000	0.001597	0.000000	0.000170	-0.000016	0.000000	0.000000
45.720870	18.347930	14.512097	-0.115846	-0.095992	2.785834	0.000000	0.008866	0.000000	0.000165	-0.000016	0.000000	0.000000
46.269930	18.166185	14.898261	0.444889	-0.611477	2.768139	0.000000	-0.073262	0.000000	0.000155	-0.000021	0.000000	0.000000
46.818990	17.382373	15.870943	0.974198	-1.170516	2.705645	0.000000	-0.154090	0.000000	0.000142	-0.000026	0.000000	0.000000
47.368050	16.051861	17.499424	1.434694	-1.812929	2.599459	0.000000	-0.232186	0.000000	0.000126	-0.000030	0.000000	0.000000
47.917110	14.268631	19.899697	1.793849	-2.584473	2.451465	0.000000	-0.306164	0.000000	0.000108	-0.000034	0.000000	0.000000
48.363070	12.880715	22.033850	1.329358	-2.180931	2.330235	0.000000	-0.237861	0.000000	0.000094	-0.000031	0.000000	0.000000
48.804030	11.888465	23.742620	0.929369	-1.679430	2.239821	0.000000	-0.172664	0.000000	0.000080	-0.000029	0.000000	0.000000
49.244990	11.228989	24.973592	0.571840	-1.101517	2.177696	0.000000	-0.109433	0.000000	0.000068	-0.000027	0.000000	0.000000
49.685950	10.872157	25.670758	0.240438	-0.473485	2.143151	0.000000	-0.047448	0.000000	0.000056	-0.000026	0.000000	0.000000
50.128160	10.801799	25.802117	-0.053618	0.112801	2.135804	0.000000	0.008761	0.000000	0.000045	-0.000025	0.000000	0.000000
50.425482	10.841890	25.738510	-0.081222	0.101131	2.138416	0.000000	0.008761	0.000000	0.000038	-0.000025	0.000000	0.000000
50.758816	10.906354	25.675450	-0.112170	0.088048	2.141345	0.000000	0.008761	0.000000	0.000030	-0.000025	0.000000	0.000000
51.092149	10.991450	25.621112	-0.143118	0.074965	2.144273	0.000000	0.008761	0.000000	0.000022	-0.000025	0.000000	0.000000
51.426732	11.097388	25.575861	-0.084153	-0.145651	2.147191	0.000000	-0.008658	0.000000	0.000013	-0.000025	0.000000	0.000000
51.724055	11.155452	25.666001	-0.083780	-0.220469	2.144624	0.000000	-0.013917	0.000000	0.000006	-0.000025	0.000000	0.000000
52.165015	11.374931	25.574928	-0.415848	0.426217	2.152088	0.000000	0.047756	0.000000	-0.000005	-0.000025	0.000000	0.000000
52.605975	11.894507	24.919935	-0.766915	1.053510	2.186842	0.000000	0.109974	0.000000	-0.000016	-0.000025	0.000000	0.000000
53.046935	12.737917	23.730825	-1.153019	1.632869	2.249281	0.000000	0.173444	0.000000	-0.000027	-0.000025	0.000000	0.000000
53.487895	13.943695	22.061701	-1.591802	2.137934	2.340117	0.000000	0.238890	0.000000	-0.000038	-0.000026	0.000000	0.000000
53.933855	15.587586	19.963549	-2.107552	2.547057	2.461890	0.000000	0.307456	0.000000	-0.000050	-0.000027	0.000000	0.000000
54.482915	17.703957	17.602700	-1.724181	1.778128	2.610530	0.000000	0.233131	0.000000	-0.000065	-0.000026	0.000000	0.000000
55.031975	19.329568	16.012140	-1.219024	1.135852	2.717162	0.000000	0.154669	0.000000	-0.000078	-0.000023	0.000000	0.000000
55.581035	20.349593	15.078578	-0.627761	0.574479	2.779896	0.000000	0.073464	0.000000	-0.000090	-0.000021	0.000000	0.000000
56.130095	20.691986	14.735517	0.007843	0.054025	2.797617	0.000000	-0.009044	0.000000	-0.000101	-0.000017	0.000000	0.000000
56.428668	20.723931	14.686346	-0.060727	0.072126	2.797106	0.000000	-0.001728	0.000000	-0.000106	-0.000018	0.000000	0.000000
56.762001	20.769798	14.645866	-0.076871	0.049312	2.796536	0.000000	-0.001728	0.000000	-0.000112	-0.000018	0.000000	0.000000
57.095334	20.826426	14.620597	-0.093015	0.026497	2.795966	0.000000	-0.001728	0.000000	-0.000118	-0.000018	0.000000	0.000000
57.429918	20.894091	14.610529	-0.109219	0.003596	2.795394	0.000000	-0.001728	0.000000	-0.000124	-0.000018	0.000000	0.000000
57.727240	20.963319	14.614441	-0.178452	0.021468	2.794885	0.000000	0.005582	0.000000	-0.000129	-0.000018	0.000000	0.000000
58.276300	20.801527	14.871584	0.471369	-0.492567	2.775311	0.000000	-0.076807	0.000000	-0.000138	-0.000014	0.000000	0.000000
58.825360	19.940299	15.709035	1.087893	-1.041686	2.710806	0.000000	-0.157835	0.000000	-0.000144	-0.000009	0.000000	0.000000
59.374420	18.440466	17.186445	1.627575	-1.665002	2.602514	0.000000	-0.236063	0.000000	-0.000148	-0.000004	0.000000	0.000000
59.923480	16.407970	19.409046	2.052294	-2.406912	2.452355	0.000000	-0.310104	0.000000	-0.000149	0.000000	0.000000	0.000000
60.369440	14.816966	21.384598	1.527938	-2.004284	2.329356	0.000000	-0.241802	0.000000	-0.000150	-0.000003	0.000000	0.000000
60.810400	13.672370	22.940984	1.077603	-1.511831	2.237185	0.000000	-0.176651	0.000000	-0.000152	-0.000007	0.000000	0.000000
61.251360	12.901804	24.030958	0.676501	-0.950590	2.173275	0.000000	-0.113512	0.000000	-0.000156	-0.000011	0.000000	0.000000
61.692320	12.470062	24.604928	0.306306	-0.346098	2.136898	0.000000	-0.051665	0.000000	-0.000162	-0.000015	0.000000	0.000000
62.134530	12.357468	24.636246	-0.019643	0.213581	2.127643	0.000000	0.004368	0.000000	-0.000170	-0.000019	0.000000	0.000000
62.431853	12.376305	24.512993	-0.043712	0.200961	2.128948	0.000000	0.004368	0.000000	-0.000175	-0.000019	0.000000	0.000000
62.765186	12.414441	24.383735	-0.070697	0.186814	2.130410	0.000000	0.004368	0.000000	-0.000182	-0.000019	0.000000	0.000000
63.098520	12.470567	24.263908	-0.097681	0.172667	2.131872	0.000000	0.004368	0.000000	-0.000188	-0.000019	0.000000	0.000000
63.433103	12.544995	24.153116	-0.124767	0.158466	2.133340	0.000000	0.004368	0.000000	-0.000195	-0.000019	0.000000	0.000000
63.730426	12.626343	24.062637	-0.117814	0.086720	2.134644	0.000000	-0.000877	0.000000	-0.000201	-0.000019	0.000000	0.000000
64.171386	12.890919	23.721143	-0.484471	0.684769	2.147811	0.000000	0.060612	0.000000	-0.000210	-0.000024	0.000000	0.000000
64.612346	13.487355	22.863995	-0.873261	1.251662	2.188221	0.000000	0.122792	0.000000	-0.000222	-0.000030	0.000000	0.000000
65.053306	14.442901	21.530193	-1.301947	1.761606	2.256334	0.000000	0.186371	0.000000	-0.000236	-0.000036	0.000000	0.000000
65.494266	15.801211	19.780424	-1.790114	2.191398	2.352927	0.000000	0.252073	0.000000	-0.000253	-0.000042	0.000000	0.000000
65.940226	17.647518	17.669531	-2.364756	2.522236	2.480671	0.000000	0.321047	0.000000	-0.000273	-0.000049	0.000000	0.000000
66.489286	20.013928	15.308025	-1.919702	1.804167	2.636594	0.000000	0.245996	0.000000	-0.000298	-0.000039	0.000000	0.000000
67.038346	21.813815	13.660272	-1.339053	1.214604	2.750043	0.000000	0.166580	0.000000	-0.000317	-0.000030	0.000000	0.000000
67.587406	22.920048	12.608907	-0.663821	0.711554	2.819006	0.000000	0.084209	0.000000	-0.000330	-0.000019	0.000000	0.000000
68.136466	23.254490	12.079042	0.058298	0.259187	2.842260	0.000000	0.000345	0.000000	-0.000338	-0.000008	0.000000	0.000000
68.435038	23.259896	11.913374	-0.015473	0.264028	2.844590	0.000000	0.007792	0.000000	-0.000340	-0.000009	0.000000	0.000000
68.768372	23.274989	11.747332	-0.029807	0.234098	2.847190	0.000000	0.007792	0.000000	-0.000343	-0.000009	0.000000	0.000000
69.101705	23.299639	11.601243	-0.044141	0.204168	2.849790	0.000000	0.007792	0.000000	-0.000346	-0.000009	0.000000	0.000000
69.436288	23.333991	11.474672	-0.058529	0.174125	2.852400	0.000000	0.007792	0.000000	-0.000349	-0.000009	0.000000	0.000000
69.733611	23.372597	11.379067	-0.132563	0.177246	2.854720	0.000000	0.015273	0.000000	-0.000352	-0.000010	0.000000	0.000000
70.282671	23.116768	11.412238	0.595743	-0.238017	2.839914	0.000000	-0.069132	0.000000	-0.000354	0.000001	0.000000	0.000000
