#ParticleID	Turn	x[m]	xp	y[m]	yp	z[m]	dE[GeV]# s	beta_x	beta_y	alpha_x	alpha_y	D_x	D_y	D_px	D_py	orbit_x	orbit_px	orbit_y	orbit_py
0.300000	11.949178	25.301383	-0.020084	-0.021886	2.601029	0.000000	0.000616	0.000000	-0.000732	0.000639	0.000000	0.000000
0.601250	11.968876	25.318158	-0.045305	-0.033798	2.601022	0.000000	0.000616	0.000000	-0.000539	0.000639	0.000000	0.000000
0.898573	12.003217	25.341752	-0.040665	-0.107674	2.601015	0.000000	-0.005784	0.000000	-0.000349	0.000640	0.000000	0.000000
1.339533	12.192834	25.155467	-0.390758	0.528522	2.614390	0.000000	0.067731	0.000000	-0.000069	0.000634	0.000000	0.000000
1.780493	12.697887	24.416606	-0.758708	1.140673	2.660321	0.000000	0.142011	0.000000	0.000211	0.000636	0.000000	0.000000
2.221453	13.541456	23.158782	-1.161328	1.700926	2.739329	0.000000	0.217901	0.000000	0.000493	0.000645	0.000000	0.000000
2.662413	14.762090	21.439218	-1.617012	2.183790	2.852309	0.000000	0.296266	0.000000	0.000781	0.000662	0.000000	0.000000
3.108373	16.436643	19.310956	-2.150947	2.568456	3.002398	0.000000	0.378489	0.000000	0.001081	0.000686	0.000000	0.000000
3.657433	18.583296	16.920235	-1.735190	1.811375	3.184769	0.000000	0.286098	0.000000	0.001447	0.000645	0.000000	0.000000
4.206493	20.202976	15.285581	-1.196847	1.183316	3.314971	0.000000	0.188643	0.000000	0.001787	0.000592	0.000000	0.000000
4.755553	21.181249	14.290567	-0.573946	0.639544	3.390696	0.000000	0.087851	0.000000	0.002096	0.000529	0.000000	0.000000
5.304613	21.448993	13.864326	0.089510	0.141325	3.410608	0.000000	-0.014491	0.000000	0.002367	0.000457	0.000000	0.000000
5.603185	21.432498	13.765422	0.020649	0.154528	3.408750	0.000000	-0.005757	0.000000	0.002505	0.000463	0.000000	0.000000
5.936519	21.423919	13.670668	0.005089	0.129734	3.406677	0.000000	-0.005757	0.000000	0.002660	0.000463	0.000000	0.000000
6.269852	21.425712	13.592443	-0.010470	0.104941	3.404603	0.000000	-0.005757	0.000000	0.002814	0.000463	0.000000	0.000000
6.604435	21.437944	13.530546	-0.026088	0.080054	3.402522	0.000000	-0.005757	0.000000	0.002969	0.000463	0.000000	0.000000
6.901758	21.457589	13.489514	-0.094558	0.092351	3.400673	0.000000	0.002895	0.000000	0.003107	0.000471	0.000000	0.000000
7.450818	21.195470	13.649799	0.569362	-0.385988	3.374024	0.000000	-0.099019	0.000000	0.003337	0.000367	0.000000	0.000000
7.999878	20.222082	14.347311	1.193067	-0.891824	3.291875	0.000000	-0.199170	0.000000	0.003508	0.000256	0.000000	0.000000
8.548938	18.606186	15.631741	1.732493	-1.461191	3.155683	0.000000	-0.295784	0.000000	0.003618	0.000141	0.000000	0.000000
9.097998	16.461940	17.594587	2.149529	-2.134646	2.967869	0.000000	-0.387149	0.000000	0.003662	0.000023	0.000000	0.000000
9.543958	14.788901	19.343375	1.615213	-1.769987	2.813391	0.000000	-0.305861	0.000000	0.003694	0.000118	0.000000	0.000000
9.984918	13.570117	20.713923	1.159128	-1.326120	2.695599	0.000000	-0.228554	0.000000	0.003767	0.000214	0.000000	0.000000
10.425878	12.728809	21.664787	0.756006	-0.821908	2.611250	0.000000	-0.153852	0.000000	0.003883	0.000313	0.000000	0.000000
10.866838	12.226535	22.152698	0.387427	-0.280294	2.559383	0.000000	-0.080906	0.000000	0.004043	0.000415	0.000000	0.000000
11.309048	12.040190	22.154885	0.064772	0.221728	2.539386	0.000000	-0.014860	0.000000	0.004250	0.000512	0.000000	0.000000
11.606371	12.009046	22.027222	0.039974	0.207648	2.534816	0.000000	-0.014860	0.000000	0.004402	0.000512	0.000000	0.000000
12.086371	11.989887	21.838790	-0.000060	0.184917	2.527438	0.000000	-0.014860	0.000000	0.004648	0.000512	0.000000	0.000000
12.566371	12.009161	21.672181	-0.040093	0.162186	2.520059	0.000000	-0.014860	0.000000	0.004893	0.000512	0.000000	0.000000
13.046371	12.066866	21.527392	-0.080127	0.139456	2.512681	0.000000	-0.014860	0.000000	0.005139	0.000512	0.000000	0.000000
13.526371	12.163005	21.404426	-0.120161	0.116725	2.505303	0.000000	-0.014860	0.000000	0.005385	0.000512	0.000000	0.000000
14.007621	12.297976	21.303046	-0.160299	0.093935	2.497905	0.000000	-0.014860	0.000000	0.005631	0.000512	0.000000	0.000000
14.304943	12.400658	21.251395	-0.156375	0.030782	2.493333	0.000000	-0.020635	0.000000	0.005783	0.000498	0.000000	0.000000
14.745903	12.697520	20.991806	-0.519135	0.555619	2.499564	0.000000	0.050023	0.000000	0.006036	0.000650	0.000000	0.000000
15.186863	13.323582	20.278734	-0.905624	1.055173	2.536983	0.000000	0.121244	0.000000	0.006358	0.000810	0.000000	0.000000
15.627823	14.307464	19.144622	-1.333507	1.506712	2.606013	0.000000	0.193838	0.000000	0.006752	0.000979	0.000000	0.000000
16.068783	15.694147	17.641074	-1.822340	1.889686	2.707439	0.000000	0.268630	0.000000	0.007223	0.001159	0.000000	0.000000
16.514743	17.570644	15.814953	-2.399373	2.187547	2.844109	0.000000	0.346955	0.000000	0.007783	0.001354	0.000000	0.000000
17.063803	19.979873	13.776684	-1.961388	1.546222	3.010339	0.000000	0.259936	0.000000	0.008455	0.001091	0.000000	0.000000
17.612863	21.828615	12.378470	-1.384787	1.015052	3.127597	0.000000	0.168322	0.000000	0.008977	0.000808	0.000000	0.000000
18.161923	22.986191	11.520711	-0.710317	0.556198	3.193809	0.000000	0.073735	0.000000	0.009340	0.000511	0.000000	0.000000
18.710983	23.370774	11.142305	0.014358	0.136969	3.207804	0.000000	-0.022152	0.000000	0.009537	0.000206	0.000000	0.000000
19.009556	23.399436	11.052819	-0.054501	0.136149	3.203415	0.000000	-0.014458	0.000000	0.009605	0.000229	0.000000	0.000000
19.342889	23.440533	10.972292	-0.068789	0.105431	3.198519	0.000000	-0.014458	0.000000	0.009682	0.000229	0.000000	0.000000
19.676223	23.491155	10.912243	-0.083076	0.074714	3.193623	0.000000	-0.014458	0.000000	0.009758	0.000229	0.000000	0.000000
20.010806	23.551837	10.872429	-0.214107	0.097750	3.188729	0.000000	0.001341	0.000000	0.009835	0.000278	0.000000	0.000000
20.308129	23.683148	10.822479	-0.283909	0.096056	3.189050	0.000000	0.008963	0.000000	0.009918	0.000303	0.000000	0.000000
20.857189	23.586613	10.936791	0.458758	-0.305452	3.167737	0.000000	-0.086199	0.000000	0.009996	-0.000020	0.000000	0.000000
21.406249	22.687355	11.501362	1.169006	-0.728722	3.094680	0.000000	-0.179833	0.000000	0.009896	-0.000342	0.000000	0.000000
21.955309	21.048936	12.556412	1.796639	-1.203911	2.971175	0.000000	-0.270280	0.000000	0.009621	-0.000658	0.000000	0.000000
22.504369	18.787166	14.177103	2.297300	-1.764873	2.799409	0.000000	-0.355944	0.000000	0.009176	-0.000963	0.000000	0.000000
22.950329	17.006509	15.633069	1.708651	-1.485687	2.658286	0.000000	-0.278827	0.000000	0.008799	-0.000730	0.000000	0.000000
23.391289	15.727156	16.795412	1.202999	-1.139892	2.551882	0.000000	-0.205363	0.000000	0.008526	-0.000506	0.000000	0.000000
23.832249	14.868013	17.628620	0.752334	-0.742222	2.477238	0.000000	-0.134234	0.000000	0.008351	-0.000289	0.000000	0.000000
24.273209	14.389801	18.094778	0.336056	-0.310774	2.433506	0.000000	-0.064630	0.000000	0.008271	-0.000074	0.000000	0.000000
24.715418	14.270769	18.172403	-0.032754	0.093715	2.420189	0.000000	-0.001222	0.000000	0.008286	0.000120	0.000000	0.000000
25.012741	14.296447	18.121583	-0.053611	0.077210	2.419790	0.000000	-0.001222	0.000000	0.008321	0.000120	0.000000	0.000000
25.346075	14.339982	18.076278	-0.076994	0.058706	2.419343	0.000000	-0.001222	0.000000	0.008361	0.000120	0.000000	0.000000
25.679408	14.399106	18.043309	-0.100377	0.040202	2.418896	0.000000	-0.001222	0.000000	0.008401	0.000120	0.000000	0.000000
26.013991	14.473834	18.022987	-0.006426	-0.124583	2.418422	0.000000	-0.020842	0.000000	0.008441	0.000051	0.000000	0.000000
26.311314	14.483732	18.102089	0.005647	-0.182092	2.412208	0.000000	-0.026274	0.000000	0.008456	0.000031	0.000000	0.000000
26.752274	14.657710	18.066579	-0.401580	0.262304	2.415670	0.000000	0.042261	0.000000	0.008518	0.000250	0.000000	0.000000
27.193234	15.197622	17.642886	-0.827164	0.694764	2.449340	0.000000	0.111275	0.000000	0.008677	0.000472	0.000000	0.000000
27.634194	16.128154	16.850288	-1.290557	1.095605	2.513601	0.000000	0.181552	0.000000	0.008935	0.000699	0.000000	0.000000
28.075154	17.491849	15.724853	-1.812941	1.446587	2.609182	0.000000	0.253890	0.000000	0.009294	0.000934	0.000000	0.000000
28.521114	19.374927	14.300724	-2.423310	1.732825	2.738787	0.000000	0.329585	0.000000	0.009766	0.001181	0.000000	0.000000
29.070174	21.769328	12.714698	-1.910547	1.172433	2.896551	0.000000	0.246112	0.000000	0.010326	0.000855	0.000000	0.000000
29.619234	23.522549	11.694918	-1.262753	0.695571	3.007390	0.000000	0.158286	0.000000	0.010702	0.000515	0.000000	0.000000
30.168294	24.510655	11.168738	-0.525712	0.268267	3.069340	0.000000	0.067659	0.000000	0.010889	0.000165	0.000000	0.000000
30.717354	24.663796	11.098673	0.248484	-0.139924	3.081306	0.000000	-0.024165	0.000000	0.010883	-0.000188	0.000000	0.000000
31.015927	24.553944	11.174692	0.177547	-0.140864	3.076312	0.000000	-0.016870	0.000000	0.010835	-0.000161	0.000000	0.000000
31.349260	24.440248	11.278742	0.163543	-0.171285	3.070742	0.000000	-0.016870	0.000000	0.010781	-0.000161	0.000000	0.000000
31.682593	24.335887	11.403073	0.149540	-0.201706	3.065173	0.000000	-0.016870	0.000000	0.010728	-0.000161	0.000000	0.000000
32.017177	24.240523	11.548265	0.135484	-0.232242	3.059582	0.000000	-0.016870	0.000000	0.010674	-0.000161	0.000000	0.000000
32.314499	24.163752	11.694395	0.065637	-0.231641	3.054619	0.000000	-0.009619	0.000000	0.010626	-0.000134	0.000000	0.000000
32.863559	23.677967	12.187450	0.813539	-0.671523	3.024559	0.000000	-0.100284	0.000000	0.010458	-0.000476	0.000000	0.000000
33.412619	22.397530	13.186901	1.503939	-1.159249	2.945303	0.000000	-0.189178	0.000000	0.010105	-0.000809	0.000000	0.000000
33.961679	20.412956	14.763945	2.088045	-1.729566	2.818252	0.000000	-0.274728	0.000000	0.009572	-0.001128	0.000000	0.000000
34.510739	17.864534	17.030928	2.524578	-2.423104	2.645655	0.000000	-0.355422	0.000000	0.008870	-0.001427	0.000000	0.000000
34.956699	15.884483	19.058991	1.930061	-2.104959	2.504078	0.000000	-0.282306	0.000000	0.008284	-0.001204	0.000000	0.000000
35.397659	14.408541	20.739868	1.428885	-1.691951	2.395465	0.000000	-0.212849	0.000000	0.007799	-0.000997	0.000000	0.000000
35.838619	13.344342	22.020975	0.993022	-1.201945	2.316837	0.000000	-0.145806	0.000000	0.007403	-0.000801	0.000000	0.000000
36.279579	12.643231	22.844020	0.602548	-0.657243	2.267303	0.000000	-0.080416	0.000000	0.007091	-0.000614	0.000000	0.000000
36.721789	12.272503	23.171862	0.267617	-0.135618	2.246277	0.000000	-0.021080	0.000000	0.006859	-0.000451	0.000000	0.000000
37.019112	12.121085	23.256392	0.241655	-0.148685	2.240143	0.000000	-0.021080	0.000000	0.006725	-0.000451	0.000000	0.000000
37.352445	11.969684	23.360399	0.212549	-0.163335	2.233267	0.000000	-0.021080	0.000000	0.006575	-0.000451	0.000000	0.000000
37.685779	11.837687	23.474172	0.183442	-0.177985	2.226390	0.000000	-0.021080	0.000000	0.006425	-0.000451	0.000000	0.000000
38.020362	11.724708	23.598193	0.154227	-0.192690	2.219488	0.000000	-0.021080	0.000000	0.006274	-0.000451	0.000000	0.000000
38.317684	11.640704	23.716687	0.155129	-0.260642	2.213353	0.000000	-0.026188	0.000000	0.006140	-0.000465	0.000000	0.000000
38.758644	11.652950	23.683730	-0.183132	0.335091	2.215945	0.000000	0.037205	0.000000	0.005970	-0.000309	0.000000	0.000000
39.199604	11.966111	23.130084	-0.529760	0.915573	2.246495	0.000000	0.101024	0.000000	0.005867	-0.000156	0.000000	0.000000
39.640564	12.594496	22.080944	-0.900596	1.454390	2.305351	0.000000	0.165996	0.000000	0.005832	-0.000006	0.000000	0.000000
40.081524	13.566824	20.584055	-1.312587	1.927022	2.393184	0.000000	0.232859	0.000000	0.005862	0.000145	0.000000	0.000000
40.527484	14.945074	18.684816	-1.788478	2.313414	2.512480	0.000000	0.302799	0.000000	0.005961	0.000298	0.000000	0.000000
41.076544	16.706283	16.550002	-1.399845	1.597329	2.658011	0.000000	0.226870	0.000000	0.006072	0.000104	0.000000	0.000000
41.625604	17.983466	15.134869	-0.912306	0.995038	2.760784	0.000000	0.146918	0.000000	0.006075	-0.000093	0.000000	0.000000
42.174664	18.686376	14.338603	-0.360311	0.463633	2.818977	0.000000	0.064358	0.000000	0.005970	-0.000288	0.000000	0.000000
42.723724	18.765350	14.104478	0.217135	-0.034741	2.831555	0.000000	-0.019349	0.000000	0.005759	-0.000478	0.000000	0.000000
43.022297	18.668402	14.110571	0.154135	-0.020765	2.828016	0.000000	-0.012313	0.000000	0.005620	-0.000464	0.000000	0.000000
43.502297	18.533067	14.146840	0.127812	-0.054797	2.822328	0.000000	-0.012313	0.000000	0.005398	-0.000464	0.000000	0.000000
43.982297	18.423003	14.215780	0.101489	-0.088828	2.816640	0.000000	-0.012313	0.000000	0.005175	-0.000464	0.000000	0.000000
44.462297	18.338208	14.317390	0.075167	-0.122860	2.810952	0.000000	-0.012313	0.000000	0.004952	-0.000464	0.000000	0.000000
44.942297	18.278683	14.451671	0.048844	-0.156892	2.805265	0.000000	-0.012313	0.000000	0.004730	-0.000464	0.000000	0.000000
45.423547	18.244597	14.618919	-0.067941	-0.118581	2.799579	0.000000	0.001557	0.000000	0.004507	-0.000441	0.000000	0.000000
45.720870	18.289876	14.695556	-0.130330	-0.102324	2.800174	0.000000	0.008602	0.000000	0.004375	-0.000430	0.000000	0.000000
46.269930	18.124800	15.091825	0.428923	-0.623616	2.782457	0.000000	-0.074000	0.000000	0.004101	-0.000568	0.000000	0.000000
46.818990	17.358616	16.081455	0.957863	-1.189329	2.719745	0.000000	-0.155299	0.000000	0.003754	-0.000695	0.000000	0.000000
47.368050	16.045470	17.734931	1.419121	-1.839762	2.613146	0.000000	-0.233854	0.000000	0.003340	-0.000810	0.000000	0.000000
47.917110	14.278151	20.170025	1.780112	-2.621244	2.464546	0.000000	-0.308275	0.000000	0.002867	-0.000910	0.000000	0.000000
48.363070	12.901809	22.334482	1.316616	-2.211675	2.342810	0.000000	-0.239627	0.000000	0.002477	-0.000841	0.000000	0.000000
48.804030	11.920400	24.067278	0.917084	-1.702839	2.252019	0.000000	-0.174108	0.000000	0.002120	-0.000782	0.000000	0.000000
49.244990	11.271635	25.315289	0.559461	-1.116524	2.189635	0.000000	-0.110564	0.000000	0.001786	-0.000731	0.000000	0.000000
49.685950	10.925863	26.021736	0.227405	-0.479408	2.154950	0.000000	-0.048271	0.000000	0.001473	-0.000689	0.000000	0.000000
50.128160	10.867449	26.154190	-0.068020	0.116293	2.147585	0.000000	0.008272	0.000000	0.001176	-0.000658	0.000000	0.000000
50.425482	10.916069	26.088463	-0.095505	0.104771	2.150240	0.000000	0.008272	0.000000	0.000981	-0.000658	0.000000	0.000000
50.758816	10.990010	26.022921	-0.126320	0.091854	2.153216	0.000000	0.008272	0.000000	0.000761	-0.000658	0.000000	0.000000
51.092149	11.084495	25.965991	-0.157134	0.078937	2.156193	0.000000	0.008272	0.000000	0.000542	-0.000658	0.000000	0.000000
51.426732	11.199766	25.918033	-0.097205	-0.144289	2.159159	0.000000	-0.009245	0.000000	0.000322	-0.000661	0.000000	0.000000
51.724055	11.265536	26.007316	-0.096409	-0.219947	2.156606	0.000000	-0.014527	0.000000	0.000125	-0.000661	0.000000	0.000000
52.165015	11.497271	25.911798	-0.431325	0.435736	2.164142	0.000000	0.047456	0.000000	-0.000166	-0.000662	0.000000	0.000000
52.605975	12.031908	25.244591	-0.785941	1.071591	2.199105	0.000000	0.109987	0.000000	-0.000459	-0.000670	0.000000	0.000000
53.046935	12.893865	24.036058	-1.176459	1.658688	2.261899	0.000000	0.173778	0.000000	-0.000758	-0.000685	0.000000	0.000000
53.487895	14.122515	22.341194	-1.620719	2.170314	2.353239	0.000000	0.239555	0.000000	-0.001065	-0.000709	0.000000	0.000000
53.933855	15.794988	20.211791	-2.143291	2.584510	2.475684	0.000000	0.308465	0.000000	-0.001387	-0.000741	0.000000	0.000000
54.482915	17.947771	17.815278	-1.754784	1.806109	2.625116	0.000000	0.233685	0.000000	-0.001781	-0.000689	0.000000	0.000000
55.031975	19.602937	16.198300	-1.242351	1.156349	2.732255	0.000000	0.154748	0.000000	-0.002142	-0.000626	0.000000	0.000000
55.581035	20.643600	15.245678	-0.642185	0.588952	2.795195	0.000000	0.073057	0.000000	-0.002466	-0.000551	0.000000	0.000000
56.130095	20.996280	14.889556	0.003326	0.063505	2.812817	0.000000	-0.009939	0.000000	-0.002745	-0.000467	0.000000	0.000000
56.428668	21.032055	14.833868	-0.067047	0.083128	2.812235	0.000000	-0.002422	0.000000	-0.002887	-0.000474	0.000000	0.000000
56.762001	21.082060	14.785991	-0.082967	0.060502	2.811586	0.000000	-0.002422	0.000000	-0.003045	-0.000474	0.000000	0.000000
57.095334	21.142678	14.753199	-0.098887	0.037876	2.810937	0.000000	-0.002422	0.000000	-0.003203	-0.000474	0.000000	0.000000
57.429918	21.214197	14.735452	-0.114867	0.015164	2.810285	0.000000	-0.002422	0.000000	-0.003361	-0.000474	0.000000	0.000000
57.727240	21.286731	14.732430	-0.186302	0.034494	2.809706	0.000000	0.005133	0.000000	-0.003502	-0.000483	0.000000	0.000000
58.276300	21.127472	14.977024	0.474400	-0.482623	2.789973	0.000000	-0.077726	0.000000	-0.003736	-0.000366	0.000000	0.000000
58.825360	20.256955	15.804870	1.101590	-1.034111	2.724995	0.000000	-0.159212	0.000000	-0.003903	-0.000242	0.000000	0.000000
59.374420	18.736663	17.274925	1.650977	-1.659247	2.615922	0.000000	-0.237878	0.000000	-0.004001	-0.000114	0.000000	0.000000
59.923480	16.673962	19.491884	2.083764	-2.402553	2.464686	0.000000	-0.312328	0.000000	-0.004028	0.000016	0.000000	0.000000
60.369440	15.058290	21.462109	1.552073	-1.996881	2.340780	0.000000	-0.243737	0.000000	-0.004044	-0.000089	0.000000	0.000000
60.810400	13.895283	23.010628	1.095469	-1.501659	2.247882	0.000000	-0.178307	0.000000	-0.004106	-0.000194	0.000000	0.000000
61.251360	13.111423	24.090518	0.688907	-0.938121	2.183405	0.000000	-0.114906	0.000000	-0.004215	-0.000301	0.000000	0.000000
61.692320	12.670902	24.652654	0.313816	-0.331906	2.146616	0.000000	-0.052810	0.000000	-0.004372	-0.000412	0.000000	0.000000
62.134530	12.553643	24.670883	-0.014935	0.226452	2.137104	0.000000	0.003223	0.000000	-0.004580	-0.000516	0.000000	0.000000
62.431853	12.569567	24.539991	-0.038624	0.213783	2.138215	0.000000	0.003223	0.000000	-0.004733	-0.000516	0.000000	0.000000
62.765186	12.604169	24.402204	-0.065183	0.199579	2.139462	0.000000	0.003223	0.000000	-0.004905	-0.000516	0.000000	0.000000
63.098520	12.656477	24.273886	-0.091741	0.185374	2.140708	0.000000	0.003223	0.000000	-0.005077	-0.000516	0.000000	0.000000
63.433103	12.726787	24.154610	-0.118400	0.171117	2.141959	0.000000	0.003223	0.000000	-0.005249	-0.000516	0.000000	0.000000
63.730426	12.804225	24.056644	-0.109109	0.096308	2.143069	0.000000	-0.002297	0.000000	-0.005403	-0.000502	0.000000	0.000000
64.171386	13.062716	23.706888	-0.479572	0.693905	2.155890	0.000000	0.059397	0.000000	-0.005655	-0.000645	0.000000	0.000000
64.612346	13.656255	22.842106	-0.871934	1.259931	2.196101	0.000000	0.121774	0.000000	-0.005972	-0.000794	0.000000	0.000000
65.053306	14.611942	21.501644	-1.304115	1.768639	2.264160	0.000000	0.185546	0.000000	-0.006357	-0.000953	0.000000	0.000000
65.494266	15.973415	19.746491	-1.795853	2.196887	2.360849	0.000000	0.251441	0.000000	-0.006814	-0.001123	0.000000	0.000000
65.940226	17.826131	17.631660	-2.374147	2.525784	2.488849	0.000000	0.320590	0.000000	-0.007356	-0.001307	0.000000	0.000000
66.489286	20.198686	15.266325	-1.922507	1.808084	2.645040	0.000000	0.245289	0.000000	-0.008006	-0.001058	0.000000	0.000000
67.038346	21.997457	13.614140	-1.335138	1.219146	2.758489	0.000000	0.165621	0.000000	-0.008514	-0.000790	0.000000	0.000000
67.587406	23.095478	12.557433	-0.653513	0.717027	2.827180	0.000000	0.083003	0.000000	-0.008871	-0.000509	0.000000	0.000000
68.136466	23.415250	12.020944	0.074244	0.265969	2.849888	0.000000	-0.001095	0.000000	-0.009071	-0.000218	0.000000	0.000000
68.435038	23.413911	11.850064	-0.004228	0.272675	2.852018	0.000000	0.006904	0.000000	-0.009143	-0.000243	0.000000	0.000000
68.768372	23.421475	11.678354	-0.018465	0.242455	2.854400	0.000000	0.006904	0.000000	-0.009224	-0.000243	0.000000	0.000000
69.101705	23.438530	11.526791	-0.032701	0.212234	2.856783	0.000000	0.006904	0.000000	-0.009305	-0.000243	0.000000	0.000000
69.436288	23.465194	11.394921	-0.046992	0.181900	2.859174	0.000000	0.006904	0.000000	-0.009387	-0.000243	0.000000	0.000000
69.733611	23.496975	11.294740	-0.125826	0.186693	2.861302	0.000000	0.014957	0.000000	-0.009459	-0.000268	0.000000	0.000000
70.282671	23.231648	11.316177	0.606193	-0.225973	2.846332	0.000000	-0.069635	0.000000	-0.009522	0.000039	0.000000	0.000000
