#ParticleID	Turn	x[m]	xp	y[m]	yp	z[m]	dE[GeV]# s	beta_x	beta_y	alpha_x	alpha_y	D_x	D_y	D_px	D_py	orbit_x	orbit_px	orbit_y	orbit_py
0.300000	11.946272	25.192142	-0.014252	-0.025079	2.601406	0.000000	-0.001396	0.000000	-0.001225	0.001036	0.000000	0.000000
0.601250	11.962457	25.210857	-0.039474	-0.037044	2.600673	0.000000	-0.001396	0.000000	-0.000913	0.001036	0.000000	0.000000
0.898573	11.993331	25.236397	-0.034788	-0.110721	2.599950	0.000000	-0.007808	0.000000	-0.000605	0.001037	0.000000	0.000000
1.339533	12.177679	25.054014	-0.384503	0.522751	2.612257	0.000000	0.065665	0.000000	-0.000151	0.001027	0.000000	0.000000
1.780493	12.677007	24.321351	-0.751793	1.132442	2.657096	0.000000	0.139875	0.000000	0.000302	0.001029	0.000000	0.000000
2.221453	13.514141	23.071732	-1.153439	1.690612	2.734974	0.000000	0.215668	0.000000	0.000759	0.001043	0.000000	0.000000
2.662413	14.727338	21.362004	-1.607793	2.171861	2.846773	0.000000	0.293905	0.000000	0.001224	0.001069	0.000000	0.000000
3.108373	16.393013	19.244885	-2.139977	2.555471	2.995599	0.000000	0.375971	0.000000	0.001709	0.001107	0.000000	0.000000
3.657433	18.528076	16.866754	-1.724925	1.801246	3.176439	0.000000	0.283822	0.000000	0.002299	0.001042	0.000000	0.000000
4.206493	20.137339	15.241969	-1.188000	1.175323	3.305270	0.000000	0.186655	0.000000	0.002849	0.000958	0.000000	0.000000
4.755553	21.107091	14.254810	-0.567131	0.633118	3.379812	0.000000	0.086193	0.000000	0.003349	0.000858	0.000000	0.000000
5.304613	21.368797	13.834970	0.093821	0.136009	3.398752	0.000000	-0.015785	0.000000	0.003789	0.000742	0.000000	0.000000
5.603185	21.349214	13.739585	0.025782	0.148639	3.396380	0.000000	-0.007189	0.000000	0.004013	0.000752	0.000000	0.000000
5.936519	21.337234	13.648757	0.010158	0.123843	3.393733	0.000000	-0.007189	0.000000	0.004264	0.000752	0.000000	0.000000
6.269852	21.335670	13.574461	-0.005465	0.099046	3.391086	0.000000	-0.007189	0.000000	0.004514	0.000752	0.000000	0.000000
6.604435	21.344574	13.516511	-0.021148	0.074156	3.388429	0.000000	-0.007189	0.000000	0.004766	0.000752	0.000000	0.000000
6.901758	21.361308	13.478980	-0.088530	0.085913	3.386070	0.000000	0.001283	0.000000	0.004990	0.000765	0.000000	0.000000
7.450818	21.094454	13.646236	0.572050	-0.392311	3.358529	0.000000	-0.100149	0.000000	0.005364	0.000597	0.000000	0.000000
7.999878	20.120079	14.350856	1.192227	-0.898485	3.275792	0.000000	-0.199794	0.000000	0.005643	0.000419	0.000000	0.000000
8.548938	18.507017	15.643043	1.728180	-1.468667	3.139329	0.000000	-0.295889	0.000000	0.005822	0.000233	0.000000	0.000000
9.097998	16.369238	17.614853	2.142037	-2.143479	2.951565	0.000000	-0.386730	0.000000	0.005898	0.000043	0.000000	0.000000
9.543958	14.701834	19.371611	1.609916	-1.778810	2.797156	0.000000	-0.305852	0.000000	0.005952	0.000197	0.000000	0.000000
9.984918	13.486808	20.749850	1.155822	-1.334571	2.679227	0.000000	-0.228960	0.000000	0.006072	0.000352	0.000000	0.000000
10.425878	12.647594	21.707893	0.754545	-0.829599	2.594532	0.000000	-0.154679	0.000000	0.006262	0.000511	0.000000	0.000000
10.866838	12.145839	22.202139	0.387746	-0.286873	2.542106	0.000000	-0.082167	0.000000	0.006524	0.000676	0.000000	0.000000
11.309048	11.958469	22.209515	0.065949	0.217717	2.521328	0.000000	-0.016373	0.000000	0.006860	0.000832	0.000000	0.000000
11.606371	11.926677	22.084220	0.040978	0.203695	2.516212	0.000000	-0.016373	0.000000	0.007108	0.000832	0.000000	0.000000
12.086371	11.906689	21.899538	0.000665	0.181058	2.507954	0.000000	-0.016373	0.000000	0.007507	0.000832	0.000000	0.000000
12.566371	11.925401	21.736587	-0.039649	0.158422	2.499696	0.000000	-0.016373	0.000000	0.007906	0.000832	0.000000	0.000000
13.046371	11.982814	21.595368	-0.079962	0.135785	2.491438	0.000000	-0.016373	0.000000	0.008305	0.000832	0.000000	0.000000
13.526371	12.078928	21.475880	-0.120276	0.113148	2.483180	0.000000	-0.016373	0.000000	0.008705	0.000832	0.000000	0.000000
14.007621	12.214145	21.377898	-0.160694	0.090452	2.474900	0.000000	-0.016373	0.000000	0.009105	0.000832	0.000000	0.000000
14.304943	12.317094	21.328334	-0.158199	0.029107	2.469782	0.000000	-0.021880	0.000000	0.009352	0.000810	0.000000	0.000000
14.745903	12.614829	21.069276	-0.519134	0.556063	2.475177	0.000000	0.048167	0.000000	0.009764	0.001056	0.000000	0.000000
15.186863	13.240199	20.354843	-0.903806	1.057715	2.511446	0.000000	0.118751	0.000000	0.010286	0.001315	0.000000	0.000000
15.627823	14.221806	19.217539	-1.329799	1.511231	2.578998	0.000000	0.190675	0.000000	0.010925	0.001588	0.000000	0.000000
16.068783	15.604545	17.709114	-1.816590	1.895970	2.678597	0.000000	0.264753	0.000000	0.011689	0.001880	0.000000	0.000000
16.514743	17.475317	15.876470	-2.391418	2.195425	2.813053	0.000000	0.342324	0.000000	0.012598	0.002195	0.000000	0.000000
17.063803	19.877931	13.830648	-1.956631	1.551911	2.976632	0.000000	0.256339	0.000000	0.013688	0.001769	0.000000	0.000000
17.612863	21.723686	12.427082	-1.383519	1.018970	3.091914	0.000000	0.165833	0.000000	0.014535	0.001312	0.000000	0.000000
18.161923	22.882060	11.565784	-0.712593	0.558634	3.156865	0.000000	0.072407	0.000000	0.015124	0.000831	0.000000	0.000000
18.710983	23.271130	11.185396	0.008719	0.138103	3.170339	0.000000	-0.022292	0.000000	0.015445	0.000336	0.000000	0.000000
19.009556	23.301017	11.096122	-0.056751	0.135931	3.165701	0.000000	-0.015124	0.000000	0.015556	0.000373	0.000000	0.000000
19.342889	23.343636	11.015700	-0.071103	0.105335	3.160535	0.000000	-0.015124	0.000000	0.015681	0.000373	0.000000	0.000000
19.676223	23.395821	10.955675	-0.085455	0.074740	3.155370	0.000000	-0.015124	0.000000	0.015805	0.000373	0.000000	0.000000
20.010806	23.458115	10.915801	-0.216085	0.098113	3.150204	0.000000	0.000484	0.000000	0.015930	0.000452	0.000000	0.000000
20.308129	23.590732	10.865553	-0.282333	0.095097	3.150226	0.000000	0.007559	0.000000	0.016065	0.000491	0.000000	0.000000
20.857189	23.494112	10.981611	0.457378	-0.307671	3.128436	0.000000	-0.086354	0.000000	0.016191	-0.000031	0.000000	0.000000
21.406249	22.597842	11.549431	1.164759	-0.732365	3.055690	0.000000	-0.178736	0.000000	0.016030	-0.000553	0.000000	0.000000
21.955309	20.965298	12.609472	1.789798	-1.209244	2.933278	0.000000	-0.267955	0.000000	0.015585	-0.001066	0.000000	0.000000
22.504369	18.711923	14.237259	2.288308	-1.772290	2.763367	0.000000	-0.352437	0.000000	0.014863	-0.001559	0.000000	0.000000
22.950329	16.938013	15.699341	1.701616	-1.491487	2.623814	0.000000	-0.276208	0.000000	0.014252	-0.001181	0.000000	0.000000
23.391289	15.663888	16.866130	1.197734	-1.143931	2.518527	0.000000	-0.203609	0.000000	0.013812	-0.000820	0.000000	0.000000
23.832249	14.808583	17.702113	0.748613	-0.744309	2.444570	0.000000	-0.133321	0.000000	0.013528	-0.000467	0.000000	0.000000
24.273209	14.332977	18.169246	0.333719	-0.310809	2.401102	0.000000	-0.064547	0.000000	0.013399	-0.000120	0.000000	0.000000
24.715418	14.215486	18.245926	-0.035725	0.097844	2.387632	0.000000	-0.001594	0.000000	0.013422	0.000195	0.000000	0.000000
25.012741	14.242956	18.192635	-0.056667	0.081393	2.387100	0.000000	-0.001594	0.000000	0.013480	0.000195	0.000000	0.000000
25.346075	14.288561	18.144521	-0.080145	0.062949	2.386504	0.000000	-0.001594	0.000000	0.013545	0.000195	0.000000	0.000000
25.679408	14.349817	18.108702	-0.103624	0.044506	2.385908	0.000000	-0.001594	0.000000	0.013611	0.000195	0.000000	0.000000
26.013991	14.426751	18.085482	-0.010151	-0.120726	2.385285	0.000000	-0.020945	0.000000	0.013676	0.000084	0.000000	0.000000
26.311314	14.438836	18.162330	-0.000106	-0.175955	2.379026	0.000000	-0.025996	0.000000	0.013701	0.000053	0.000000	0.000000
26.752274	14.617510	18.120685	-0.406451	0.270019	2.382386	0.000000	0.041691	0.000000	0.013802	0.000407	0.000000	0.000000
27.193234	15.161498	17.689585	-0.831381	0.703704	2.415523	0.000000	0.109850	0.000000	0.014061	0.000767	0.000000	0.000000
27.634194	16.095682	16.888649	-1.294324	1.105359	2.478813	0.000000	0.179252	0.000000	0.014480	0.001135	0.000000	0.000000
28.075154	17.462793	15.754324	-1.816451	1.456704	2.572973	0.000000	0.250684	0.000000	0.015063	0.001515	0.000000	0.000000
28.521114	19.349475	14.320912	-2.426888	1.742961	2.700679	0.000000	0.325443	0.000000	0.015828	0.001916	0.000000	0.000000
29.070174	21.748981	12.724491	-1.915433	1.181078	2.856188	0.000000	0.243224	0.000000	0.016737	0.001389	0.000000	0.000000
29.619234	23.508428	11.695648	-1.268554	0.703354	2.965584	0.000000	0.156711	0.000000	0.017349	0.000836	0.000000	0.000000
30.168294	24.503382	11.161083	-0.531985	0.275751	3.026932	0.000000	0.067431	0.000000	0.017653	0.000269	0.000000	0.000000
30.717354	24.663476	11.082709	0.242196	-0.132202	3.039148	0.000000	-0.023042	0.000000	0.017644	-0.000303	0.000000	0.000000
31.015927	24.554889	11.155246	0.175199	-0.134929	3.034336	0.000000	-0.016330	0.000000	0.017566	-0.000260	0.000000	0.000000
31.349260	24.442753	11.255340	0.161207	-0.165354	3.028980	0.000000	-0.016330	0.000000	0.017479	-0.000260	0.000000	0.000000
31.682593	24.339946	11.375718	0.147216	-0.195780	3.023623	0.000000	-0.016330	0.000000	0.017392	-0.000260	0.000000	0.000000
32.017177	24.246133	11.516945	0.133171	-0.226319	3.018246	0.000000	-0.016330	0.000000	0.017305	-0.000260	0.000000	0.000000
32.314499	24.170864	11.659492	0.067068	-0.227629	3.013481	0.000000	-0.009645	0.000000	0.017228	-0.000219	0.000000	0.000000
32.863559	23.683205	12.147569	0.815287	-0.666334	2.983864	0.000000	-0.099002	0.000000	0.016955	-0.000773	0.000000	0.000000
33.412619	22.400475	13.140604	1.505859	-1.152521	2.905870	0.000000	-0.186615	0.000000	0.016382	-0.001313	0.000000	0.000000
33.961679	20.413399	14.709345	2.089959	-1.720832	2.780874	0.000000	-0.270937	0.000000	0.015517	-0.001830	0.000000	0.000000
34.510739	17.862506	16.965553	2.526298	-2.411761	2.611084	0.000000	-0.350481	0.000000	0.014378	-0.002314	0.000000	0.000000
34.956699	15.880627	18.984152	1.931468	-2.094634	2.471854	0.000000	-0.278209	0.000000	0.013427	-0.001953	0.000000	0.000000
35.397659	14.403260	20.656724	1.430181	-1.683244	2.365154	0.000000	-0.209550	0.000000	0.012640	-0.001617	0.000000	0.000000
35.838619	13.337765	21.931097	0.994286	-1.195244	2.288047	0.000000	-0.143262	0.000000	0.011997	-0.001300	0.000000	0.000000
36.279579	12.635409	22.749283	0.603852	-0.652846	2.239660	0.000000	-0.078592	0.000000	0.011491	-0.000997	0.000000	0.000000
36.721789	12.263441	23.074297	0.267738	-0.131031	2.219427	0.000000	-0.019660	0.000000	0.011115	-0.000731	0.000000	0.000000
37.019112	12.111957	23.156111	0.241755	-0.144138	2.213799	0.000000	-0.019660	0.000000	0.010898	-0.000731	0.000000	0.000000
37.352445	11.960497	23.257101	0.212626	-0.158832	2.207489	0.000000	-0.019660	0.000000	0.010654	-0.000731	0.000000	0.000000
37.685779	11.828456	23.367887	0.183496	-0.173526	2.201179	0.000000	-0.019660	0.000000	0.010411	-0.000731	0.000000	0.000000
38.020362	11.715450	23.488939	0.154257	-0.188275	2.194846	0.000000	-0.019660	0.000000	0.010166	-0.000731	0.000000	0.000000
38.317684	11.631412	23.604862	0.154048	-0.253930	2.189215	0.000000	-0.024511	0.000000	0.009948	-0.000754	0.000000	0.000000
38.758644	11.644501	23.567299	-0.184048	0.338778	2.192515	0.000000	0.038274	0.000000	0.009672	-0.000502	0.000000	0.000000
39.199604	11.958408	23.011773	-0.530553	0.916066	2.223469	0.000000	0.101501	0.000000	0.009505	-0.000254	0.000000	0.000000
39.640564	12.587478	21.963569	-0.901306	1.451661	2.282431	0.000000	0.165887	0.000000	0.009447	-0.000010	0.000000	0.000000
40.081524	13.560467	20.470393	-1.313253	1.921189	2.370073	0.000000	0.232163	0.000000	0.009496	0.000234	0.000000	0.000000
40.527484	14.939466	18.577485	-1.789211	2.304810	2.488878	0.000000	0.301514	0.000000	0.009656	0.000483	0.000000	0.000000
41.076544	16.701751	16.450173	-1.400830	1.591983	2.633854	0.000000	0.226350	0.000000	0.009835	0.000167	0.000000	0.000000
41.625604	17.980185	15.039224	-0.913458	0.992581	2.736559	0.000000	0.147172	0.000000	0.009839	-0.000152	0.000000	0.000000
42.174664	18.684414	14.244112	-0.361540	0.463898	2.795169	0.000000	0.065381	0.000000	0.009669	-0.000468	0.000000	0.000000
42.723724	18.764672	14.008187	0.215918	-0.031730	2.808642	0.000000	-0.017578	0.000000	0.009327	-0.000776	0.000000	0.000000
43.022297	18.667509	14.013334	0.154444	-0.019217	2.805631	0.000000	-0.010827	0.000000	0.009102	-0.000752	0.000000	0.000000
43.502297	18.531879	14.048230	0.128118	-0.053483	2.800795	0.000000	-0.010827	0.000000	0.008741	-0.000752	0.000000	0.000000
43.982297	18.421523	14.116020	0.101791	-0.087748	2.795959	0.000000	-0.010827	0.000000	0.008380	-0.000752	0.000000	0.000000
44.462297	18.336440	14.216706	0.075465	-0.122014	2.791123	0.000000	-0.010827	0.000000	0.008019	-0.000752	0.000000	0.000000
44.942297	18.276631	14.350288	0.049138	-0.156280	2.786287	0.000000	-0.010827	0.000000	0.007657	-0.000752	0.000000	0.000000
45.423547	18.242264	14.517061	-0.067639	-0.118708	2.781455	0.000000	0.002954	0.000000	0.007295	-0.000716	0.000000	0.000000
45.720870	18.287380	14.593804	-0.128907	-0.103800	2.782548	0.000000	0.009785	0.000000	0.007082	-0.000698	0.000000	0.000000
46.269930	18.120683	14.990079	0.430263	-0.622123	2.765796	0.000000	-0.072269	0.000000	0.006637	-0.000921	0.000000	0.000000
46.818990	17.352984	15.976435	0.959016	-1.184763	2.704382	0.000000	-0.153055	0.000000	0.006075	-0.001127	0.000000	0.000000
47.368050	16.038553	17.623124	1.419991	-1.831800	2.599389	0.000000	-0.231145	0.000000	0.005404	-0.001312	0.000000	0.000000
47.917110	14.270293	20.047433	1.780621	-2.609325	2.452670	0.000000	-0.305155	0.000000	0.004637	-0.001475	0.000000	0.000000
48.363070	12.893347	22.202634	1.317170	-2.202815	2.332493	0.000000	-0.236789	0.000000	0.004005	-0.001363	0.000000	0.000000
48.804030	11.911305	23.929169	0.917746	-1.697473	2.243110	0.000000	-0.171516	0.000000	0.003426	-0.001267	0.000000	0.000000
49.244990	11.261816	25.174104	0.560266	-1.114894	2.182020	0.000000	-0.108183	0.000000	0.002885	-0.001186	0.000000	0.000000
49.685950	10.915189	25.880805	0.228395	-0.481588	2.148533	0.000000	-0.046070	0.000000	0.002378	-0.001118	0.000000	0.000000
50.128160	10.855743	26.016845	-0.067008	0.111320	2.142286	0.000000	0.010372	0.000000	0.001896	-0.001068	0.000000	0.000000
50.425482	10.903769	25.954089	-0.094519	0.099750	2.145687	0.000000	0.010372	0.000000	0.001578	-0.001068	0.000000	0.000000
50.758816	10.977063	25.891912	-0.125363	0.086779	2.149500	0.000000	0.010372	0.000000	0.001223	-0.001068	0.000000	0.000000
51.092149	11.070920	25.838383	-0.156206	0.073808	2.153313	0.000000	0.010372	0.000000	0.000867	-0.001068	0.000000	0.000000
51.426732	11.185579	25.793872	-0.096421	-0.148464	2.157119	0.000000	-0.007128	0.000000	0.000509	-0.001072	0.000000	0.000000
51.724055	11.250892	25.885658	-0.095708	-0.224005	2.155318	0.000000	-0.012404	0.000000	0.000191	-0.001072	0.000000	0.000000
52.165015	11.481800	25.795126	-0.430273	0.428530	2.163961	0.000000	0.049561	0.000000	-0.000282	-0.001073	0.000000	0.000000
52.605975	12.015274	25.135549	-0.784487	1.061564	2.200030	0.000000	0.112101	0.000000	-0.000758	-0.001087	0.000000	0.000000
53.046935	12.875677	23.936948	-1.174533	1.646294	2.263943	0.000000	0.175930	0.000000	-0.001242	-0.001113	0.000000	0.000000
53.487895	14.102304	22.253866	-1.618229	2.156118	2.356430	0.000000	0.241774	0.000000	-0.001741	-0.001151	0.000000	0.000000
53.933855	15.772157	20.137717	-2.140091	2.569139	2.480079	0.000000	0.310779	0.000000	-0.002265	-0.001203	0.000000	0.000000
54.482915	17.921628	17.756221	-1.752252	1.794025	2.630973	0.000000	0.235836	0.000000	-0.002904	-0.001119	0.000000	0.000000
55.031975	19.574321	16.151137	-1.240679	1.146692	2.739453	0.000000	0.156691	0.000000	-0.003491	-0.001016	0.000000	0.000000
55.581035	20.613547	15.208130	-0.641503	0.581032	2.803586	0.000000	0.074752	0.000000	-0.004016	-0.000894	0.000000	0.000000
56.130095	20.965941	14.860022	0.002959	0.056756	2.822228	0.000000	-0.008528	0.000000	-0.004469	-0.000757	0.000000	0.000000
56.428668	21.002350	14.808056	-0.068133	0.076896	2.822194	0.000000	-0.000881	0.000000	-0.004699	-0.000769	0.000000	0.000000
56.762001	21.053086	14.764340	-0.084077	0.054253	2.822156	0.000000	-0.000881	0.000000	-0.004955	-0.000769	0.000000	0.000000
57.095334	21.114453	14.735719	-0.100022	0.031610	2.822119	0.000000	-0.000881	0.000000	-0.005211	-0.000769	0.000000	0.000000
57.429918	21.186740	14.722172	-0.116027	0.008881	2.822081	0.000000	-0.000881	0.000000	-0.005468	-0.000769	0.000000	0.000000
57.727240	21.259984	14.722881	-0.188407	0.028798	2.822049	0.000000	0.006839	0.000000	-0.005697	-0.000784	0.000000	0.000000
58.276300	21.103452	14.973622	0.471416	-0.488204	2.803281	0.000000	-0.076430	0.000000	-0.006075	-0.000593	0.000000	0.000000
58.825360	20.236568	15.807684	1.097937	-1.039971	2.738997	0.000000	-0.158353	0.000000	-0.006346	-0.000392	0.000000	0.000000
59.374420	18.720557	17.284462	1.646917	-1.665797	2.630333	0.000000	-0.237473	0.000000	-0.006504	-0.000184	0.000000	0.000000
59.923480	16.662467	19.509119	2.079596	-2.410252	2.479214	0.000000	-0.312386	0.000000	-0.006547	0.000028	0.000000	0.000000
60.369440	15.050221	21.486288	1.548558	-2.004744	2.355373	0.000000	-0.243430	0.000000	-0.006573	-0.000142	0.000000	0.000000
60.810400	13.890141	23.041598	1.092380	-1.509268	2.262733	0.000000	-0.177625	0.000000	-0.006673	-0.000313	0.000000	0.000000
61.251360	13.108874	24.127920	0.686099	-0.945135	2.198708	0.000000	-0.113840	0.000000	-0.006849	-0.000487	0.000000	0.000000
61.692320	12.670735	24.695840	0.311157	-0.338009	2.162572	0.000000	-0.051346	0.000000	-0.007104	-0.000667	0.000000	0.000000
62.134530	12.555774	24.718937	-0.016750	0.219943	2.153925	0.000000	0.004924	0.000000	-0.007440	-0.000836	0.000000	0.000000
62.431853	12.572777	24.591898	-0.040437	0.207333	2.155637	0.000000	0.004924	0.000000	-0.007688	-0.000836	0.000000	0.000000
62.765186	12.608587	24.458388	-0.066993	0.193196	2.157557	0.000000	0.004924	0.000000	-0.007967	-0.000836	0.000000	0.000000
63.098520	12.662101	24.334303	-0.093548	0.179059	2.159477	0.000000	0.004924	0.000000	-0.008246	-0.000836	0.000000	0.000000
63.433103	12.733619	24.219231	-0.120204	0.164868	2.161404	0.000000	0.004924	0.000000	-0.008525	-0.000836	0.000000	0.000000
63.730426	12.812111	24.124996	-0.109928	0.088017	2.163114	0.000000	-0.000810	0.000000	-0.008774	-0.000813	0.000000	0.000000
64.171386	13.071327	23.781714	-0.480563	0.687609	2.176856	0.000000	0.061406	0.000000	-0.009183	-0.001045	0.000000	0.000000
64.612346	13.665724	22.921538	-0.873136	1.255919	2.218261	0.000000	0.124333	0.000000	-0.009697	-0.001288	0.000000	0.000000
65.053306	14.622433	21.583608	-1.305572	1.767098	2.287805	0.000000	0.188690	0.000000	-0.010321	-0.001546	0.000000	0.000000
65.494266	15.985120	19.828794	-1.797616	2.197894	2.386285	0.000000	0.255211	0.000000	-0.011063	-0.001822	0.000000	0.000000
65.940226	17.839375	17.711980	-2.376163	2.529237	2.516439	0.000000	0.325024	0.000000	-0.011941	-0.002120	0.000000	0.000000
66.489286	20.213629	15.344096	-1.924254	1.809591	2.675193	0.000000	0.248801	0.000000	-0.012995	-0.001716	0.000000	0.000000
67.038346	22.013815	13.691396	-1.336536	1.218799	2.790595	0.000000	0.168138	0.000000	-0.013819	-0.001282	0.000000	0.000000
67.587406	23.112921	12.636179	-0.654495	0.714791	2.860589	0.000000	0.084473	0.000000	-0.014398	-0.000825	0.000000	0.000000
68.136466	23.433411	12.103294	0.073729	0.261678	2.883927	0.000000	-0.000703	0.000000	-0.014722	-0.000353	0.000000	0.000000
68.435038	23.433937	11.933969	-0.007502	0.270264	2.886342	0.000000	0.007726	0.000000	-0.014840	-0.000394	0.000000	0.000000
68.768372	23.443680	11.763783	-0.021727	0.240293	2.889049	0.000000	0.007726	0.000000	-0.014971	-0.000394	0.000000	0.000000
69.101705	23.462906	11.613578	-0.035952	0.210321	2.891755	0.000000	0.007726	0.000000	-0.015102	-0.000394	0.000000	0.000000
69.436288	23.491742	11.482904	-0.050231	0.180237	2.894472	0.000000	0.007726	0.000000	-0.015234	-0.000394	0.000000	0.000000
69.733611	23.525546	11.383597	-0.131967	0.186848	2.896896	0.000000	0.016228	0.000000	-0.015351	-0.000436	0.000000	0.000000
70.282671	23.266447	11.406208	0.601049	-0.228281	2.882350	0.000000	-0.069508	0.000000	-0.015454	0.000063	0.000000	0.000000
