#ParticleID	Turn	x[m]	xp	y[m]	yp	z[m]	dE[GeV]# s	beta_x	beta_y	alpha_x	alpha_y	D_x	D_y	D_px	D_py	orbit_x	orbit_px	orbit_y	orbit_py
0.300000	11.959173	25.322320	-0.020009	-0.021676	2.599478	0.000000	0.000483	0.000000	-0.000843	0.000733	0.000000	0.000000
0.601250	11.978820	25.338965	-0.045209	-0.033578	2.599402	0.000000	0.000483	0.000000	-0.000622	0.000733	0.000000	0.000000
0.898573	12.013098	25.362425	-0.040508	-0.107492	2.599328	0.000000	-0.005916	0.000000	-0.000404	0.000734	0.000000	0.000000
1.339533	12.202689	25.175739	-0.390824	0.529245	2.612595	0.000000	0.067554	0.000000	-0.000082	0.000728	0.000000	0.000000
1.780493	12.707914	24.436013	-0.759000	1.141905	2.658398	0.000000	0.141786	0.000000	0.000239	0.000730	0.000000	0.000000
2.221453	13.551862	23.176895	-1.161860	1.702612	2.737255	0.000000	0.217624	0.000000	0.000563	0.000740	0.000000	0.000000
2.662413	14.773098	21.455670	-1.617809	2.185852	2.850061	0.000000	0.295934	0.000000	0.000893	0.000759	0.000000	0.000000
3.108373	16.448519	19.325428	-2.152053	2.570806	2.999946	0.000000	0.378096	0.000000	0.001237	0.000786	0.000000	0.000000
3.657433	18.596206	16.932448	-1.735896	1.813151	3.182073	0.000000	0.285788	0.000000	0.001657	0.000740	0.000000	0.000000
4.206493	20.216450	15.296093	-1.197101	1.184646	3.312081	0.000000	0.188423	0.000000	0.002047	0.000680	0.000000	0.000000
4.755553	21.194774	14.299816	-0.573728	0.640521	3.387669	0.000000	0.087726	0.000000	0.002401	0.000607	0.000000	0.000000
5.304613	21.462048	13.872660	0.090188	0.142020	3.407501	0.000000	-0.014518	0.000000	0.002712	0.000525	0.000000	0.000000
5.603185	21.445067	13.773398	0.021465	0.155134	3.405604	0.000000	-0.005818	0.000000	0.002871	0.000532	0.000000	0.000000
5.936519	21.435940	13.678236	0.005915	0.130350	3.403488	0.000000	-0.005818	0.000000	0.003048	0.000532	0.000000	0.000000
6.269852	21.437180	13.599598	-0.009636	0.105566	3.401371	0.000000	-0.005818	0.000000	0.003225	0.000532	0.000000	0.000000
6.604435	21.448851	13.537280	-0.025245	0.080690	3.399246	0.000000	-0.005818	0.000000	0.003403	0.000532	0.000000	0.000000
6.901758	21.467995	13.495866	-0.093517	0.092888	3.397359	0.000000	0.002791	0.000000	0.003561	0.000541	0.000000	0.000000
7.450818	21.204567	13.655662	0.570726	-0.385627	3.370650	0.000000	-0.099016	0.000000	0.003825	0.000421	0.000000	0.000000
7.999878	20.229555	14.352867	1.194658	-0.891614	3.288506	0.000000	-0.199059	0.000000	0.004022	0.000294	0.000000	0.000000
8.548938	18.611836	15.637152	1.734197	-1.461117	3.152389	0.000000	-0.295567	0.000000	0.004147	0.000162	0.000000	0.000000
9.097998	16.465700	17.600005	2.151223	-2.134706	2.964714	0.000000	-0.386828	0.000000	0.004199	0.000026	0.000000	0.000000
9.543958	14.791251	19.348774	1.616667	-1.769852	2.810356	0.000000	-0.305618	0.000000	0.004235	0.000136	0.000000	0.000000
9.984918	13.571253	20.719135	1.160424	-1.325808	2.692643	0.000000	-0.228386	0.000000	0.004319	0.000246	0.000000	0.000000
10.425878	12.728850	21.669660	0.757204	-0.821433	2.608334	0.000000	-0.153759	0.000000	0.004453	0.000359	0.000000	0.000000
10.866838	12.225546	22.157092	0.388583	-0.279677	2.556468	0.000000	-0.080887	0.000000	0.004637	0.000476	0.000000	0.000000
11.309048	12.038189	22.158676	0.065755	0.222755	2.536433	0.000000	-0.014871	0.000000	0.004874	0.000587	0.000000	0.000000
11.606371	12.006463	22.030403	0.040950	0.208671	2.531837	0.000000	-0.014871	0.000000	0.005049	0.000587	0.000000	0.000000
12.086371	11.986373	21.840992	0.000905	0.185934	2.524417	0.000000	-0.014871	0.000000	0.005331	0.000587	0.000000	0.000000
12.566371	12.004726	21.673409	-0.039141	0.163197	2.516997	0.000000	-0.014871	0.000000	0.005613	0.000587	0.000000	0.000000
13.046371	12.061523	21.527653	-0.079186	0.140461	2.509577	0.000000	-0.014871	0.000000	0.005895	0.000587	0.000000	0.000000
13.526371	12.156764	21.403725	-0.119232	0.117724	2.502156	0.000000	-0.014871	0.000000	0.006176	0.000587	0.000000	0.000000
14.007621	12.290847	21.301386	-0.159382	0.094928	2.494717	0.000000	-0.014871	0.000000	0.006459	0.000587	0.000000	0.000000
14.304943	12.392981	21.249152	-0.155736	0.032231	2.490119	0.000000	-0.020588	0.000000	0.006634	0.000572	0.000000	0.000000
14.745903	12.689216	20.988316	-0.518306	0.556980	2.496316	0.000000	0.049988	0.000000	0.006924	0.000746	0.000000	0.000000
15.186863	13.314475	20.274097	-0.904569	1.056384	2.533656	0.000000	0.121126	0.000000	0.007293	0.000930	0.000000	0.000000
15.627823	14.297348	19.138989	-1.332180	1.507716	2.602560	0.000000	0.193634	0.000000	0.007745	0.001123	0.000000	0.000000
16.068783	15.682771	17.634642	-1.820685	1.890435	2.703811	0.000000	0.268336	0.000000	0.008286	0.001330	0.000000	0.000000
16.514743	17.557712	15.807930	-2.397339	2.188031	2.840254	0.000000	0.346570	0.000000	0.008928	0.001553	0.000000	0.000000
17.063803	19.964966	13.769059	-1.959671	1.546778	3.006215	0.000000	0.259676	0.000000	0.009700	0.001252	0.000000	0.000000
17.612863	21.812129	12.370150	-1.383498	1.015722	3.123295	0.000000	0.168195	0.000000	0.010299	0.000928	0.000000	0.000000
18.161923	22.968620	11.511553	-0.709538	0.557032	3.189425	0.000000	0.073745	0.000000	0.010715	0.000587	0.000000	0.000000
18.710983	23.352680	11.132105	0.014576	0.138029	3.203436	0.000000	-0.022004	0.000000	0.010942	0.000236	0.000000	0.000000
19.009556	23.380716	11.042238	-0.053492	0.136787	3.199045	0.000000	-0.014424	0.000000	0.011020	0.000263	0.000000	0.000000
19.342889	23.421143	10.961297	-0.067789	0.106035	3.194150	0.000000	-0.014424	0.000000	0.011108	0.000263	0.000000	0.000000
19.676223	23.471102	10.900857	-0.082087	0.075283	3.189254	0.000000	-0.014424	0.000000	0.011196	0.000263	0.000000	0.000000
20.010806	23.531125	10.860673	-0.213024	0.098227	3.184359	0.000000	0.001353	0.000000	0.011284	0.000319	0.000000	0.000000
20.308129	23.661816	10.810440	-0.281981	0.096113	3.184673	0.000000	0.008856	0.000000	0.011379	0.000348	0.000000	0.000000
20.857189	23.563552	10.924514	0.459969	-0.305067	3.163329	0.000000	-0.086168	0.000000	0.011468	-0.000023	0.000000	0.000000
21.406249	22.663370	11.488483	1.169414	-0.727983	3.090340	0.000000	-0.179663	0.000000	0.011354	-0.000392	0.000000	0.000000
21.955309	21.024904	12.542526	1.796208	-1.202767	2.967001	0.000000	-0.269977	0.000000	0.011039	-0.000755	0.000000	0.000000
22.504369	18.763980	14.161736	2.296051	-1.763245	2.795496	0.000000	-0.355513	0.000000	0.010527	-0.001105	0.000000	0.000000
22.950329	16.984136	15.616445	1.707885	-1.484417	2.654593	0.000000	-0.278488	0.000000	0.010094	-0.000837	0.000000	0.000000
23.391289	15.705203	16.777879	1.202715	-1.139061	2.548355	0.000000	-0.205115	0.000000	0.009782	-0.000581	0.000000	0.000000
23.832249	14.846074	17.610577	0.752523	-0.741866	2.473825	0.000000	-0.134073	0.000000	0.009581	-0.000331	0.000000	0.000000
24.273209	14.367470	18.076646	0.336729	-0.310909	2.430156	0.000000	-0.064555	0.000000	0.009489	-0.000085	0.000000	0.000000
24.715418	14.247627	18.154594	-0.032040	0.093668	2.416852	0.000000	-0.001152	0.000000	0.009506	0.000137	0.000000	0.000000
25.012741	14.272891	18.103807	-0.052930	0.077147	2.416469	0.000000	-0.001152	0.000000	0.009546	0.000137	0.000000	0.000000
25.346075	14.315983	18.058549	-0.076349	0.058625	2.416039	0.000000	-0.001152	0.000000	0.009592	0.000137	0.000000	0.000000
25.679408	14.374690	18.025640	-0.099769	0.040103	2.415610	0.000000	-0.001152	0.000000	0.009638	0.000137	0.000000	0.000000
26.013991	14.449024	18.005390	-0.006057	-0.124557	2.415154	0.000000	-0.020745	0.000000	0.009684	0.000059	0.000000	0.000000
26.311314	14.458704	18.084492	0.005487	-0.181494	2.408965	0.000000	-0.026097	0.000000	0.009701	0.000036	0.000000	0.000000
26.752274	14.632573	18.048664	-0.401160	0.262425	2.412479	0.000000	0.042358	0.000000	0.009772	0.000287	0.000000	0.000000
27.193234	15.171873	17.625070	-0.826145	0.694402	2.446152	0.000000	0.111292	0.000000	0.009955	0.000541	0.000000	0.000000
27.634194	16.101262	16.832985	-1.288897	1.094776	2.510367	0.000000	0.181488	0.000000	0.010250	0.000802	0.000000	0.000000
28.075154	17.463236	15.708454	-1.810568	1.445326	2.605853	0.000000	0.253744	0.000000	0.010663	0.001071	0.000000	0.000000
28.521114	19.343953	14.285564	-2.420148	1.731217	2.735313	0.000000	0.329358	0.000000	0.011204	0.001355	0.000000	0.000000
29.070174	21.735488	12.701000	-1.908337	1.171302	2.892906	0.000000	0.245996	0.000000	0.011846	0.000982	0.000000	0.000000
29.619234	23.486951	11.682214	-1.261641	0.694842	3.003661	0.000000	0.158284	0.000000	0.012279	0.000591	0.000000	0.000000
30.168294	24.474515	11.156627	-0.525768	0.267888	3.065618	0.000000	0.067774	0.000000	0.012493	0.000189	0.000000	0.000000
30.717354	24.628363	11.086797	0.247266	-0.139978	3.077680	0.000000	-0.023935	0.000000	0.012486	-0.000215	0.000000	0.000000
31.015927	24.518618	11.163131	0.177315	-0.141387	3.072723	0.000000	-0.016763	0.000000	0.012431	-0.000185	0.000000	0.000000
31.349260	24.405082	11.267542	0.163292	-0.171844	3.067197	0.000000	-0.016763	0.000000	0.012369	-0.000185	0.000000	0.000000
31.682593	24.300895	11.392257	0.149269	-0.202302	3.061670	0.000000	-0.016763	0.000000	0.012308	-0.000185	0.000000	0.000000
32.017177	24.205718	11.537859	0.135194	-0.232873	3.056123	0.000000	-0.016763	0.000000	0.012246	-0.000185	0.000000	0.000000
32.314499	24.129149	11.684362	0.066289	-0.232756	3.051201	0.000000	-0.009632	0.000000	0.012191	-0.000154	0.000000	0.000000
32.863559	23.643241	12.178531	0.813060	-0.672428	3.021186	0.000000	-0.100191	0.000000	0.011998	-0.000546	0.000000	0.000000
33.412619	22.363880	13.178913	1.502358	-1.160011	2.942058	0.000000	-0.188982	0.000000	0.011593	-0.000929	0.000000	0.000000
33.961679	20.381516	14.756775	2.085463	-1.730241	2.815215	0.000000	-0.274434	0.000000	0.010982	-0.001294	0.000000	0.000000
34.510739	17.836298	17.024520	2.521165	-2.423745	2.642900	0.000000	-0.355038	0.000000	0.010175	-0.001637	0.000000	0.000000
34.956699	15.858846	19.053324	1.927408	-2.105855	2.501560	0.000000	-0.281985	0.000000	0.009503	-0.001382	0.000000	0.000000
35.397659	14.384887	20.735129	1.426897	-1.693088	2.393142	0.000000	-0.212589	0.000000	0.008946	-0.001144	0.000000	0.000000
35.838619	13.322140	22.017347	0.991613	-1.203270	2.314672	0.000000	-0.145602	0.000000	0.008491	-0.000919	0.000000	0.000000
36.279579	12.622012	22.841634	0.601657	-0.658694	2.265260	0.000000	-0.080264	0.000000	0.008134	-0.000705	0.000000	0.000000
36.721789	12.251847	23.170783	0.266859	-0.136542	2.244323	0.000000	-0.020919	0.000000	0.007868	-0.000517	0.000000	0.000000
37.019112	12.100889	23.255864	0.240863	-0.149613	2.238257	0.000000	-0.020919	0.000000	0.007714	-0.000517	0.000000	0.000000
37.352445	11.950028	23.360491	0.211719	-0.164267	2.231457	0.000000	-0.020919	0.000000	0.007542	-0.000517	0.000000	0.000000
37.685779	11.818597	23.474887	0.182575	-0.178922	2.224656	0.000000	-0.020919	0.000000	0.007369	-0.000517	0.000000	0.000000
38.020362	11.706211	23.599537	0.153321	-0.193631	2.217830	0.000000	-0.020919	0.000000	0.007196	-0.000517	0.000000	0.000000
38.317684	11.622752	23.718599	0.153897	-0.261101	2.211763	0.000000	-0.025975	0.000000	0.007042	-0.000534	0.000000	0.000000
38.758644	11.635903	23.686020	-0.183980	0.334696	2.214465	0.000000	0.037379	0.000000	0.006846	-0.000355	0.000000	0.000000
39.199604	11.949655	23.132679	-0.530261	0.915260	2.245098	0.000000	0.101163	0.000000	0.006729	-0.000180	0.000000	0.000000
39.640564	12.578345	22.083762	-0.900774	1.454172	2.304014	0.000000	0.166102	0.000000	0.006687	-0.000007	0.000000	0.000000
40.081524	13.550707	20.587002	-1.312453	1.926908	2.391884	0.000000	0.232932	0.000000	0.006722	0.000166	0.000000	0.000000
40.527484	14.928731	18.687778	-1.788043	2.313428	2.511194	0.000000	0.302843	0.000000	0.006836	0.000342	0.000000	0.000000
41.076544	16.689840	16.552964	-1.400045	1.597267	2.656746	0.000000	0.226953	0.000000	0.006962	0.000118	0.000000	0.000000
41.625604	17.967602	15.137922	-0.913124	0.994898	2.759576	0.000000	0.147038	0.000000	0.006965	-0.000107	0.000000	0.000000
42.174664	18.671725	14.341847	-0.361687	0.463407	2.817861	0.000000	0.064513	0.000000	0.006845	-0.000331	0.000000	0.000000
42.723724	18.752457	14.108020	0.215299	-0.035068	2.830564	0.000000	-0.019161	0.000000	0.006603	-0.000549	0.000000	0.000000
43.022297	18.656367	14.114458	0.152686	-0.021333	2.827083	0.000000	-0.012182	0.000000	0.006444	-0.000532	0.000000	0.000000
43.502297	18.522427	14.151269	0.126357	-0.055356	2.821492	0.000000	-0.012182	0.000000	0.006188	-0.000532	0.000000	0.000000
43.982297	18.413761	14.220741	0.100029	-0.089379	2.815900	0.000000	-0.012182	0.000000	0.005933	-0.000532	0.000000	0.000000
44.462297	18.330371	14.322876	0.073701	-0.123402	2.810308	0.000000	-0.012182	0.000000	0.005677	-0.000532	0.000000	0.000000
44.942297	18.272255	14.457673	0.047373	-0.157425	2.804716	0.000000	-0.012182	0.000000	0.005422	-0.000532	0.000000	0.000000
45.423547	18.239589	14.625430	-0.069393	-0.119074	2.799127	0.000000	0.001686	0.000000	0.005165	-0.000507	0.000000	0.000000
45.720870	18.285737	14.702356	-0.131517	-0.103017	2.799780	0.000000	0.008690	0.000000	0.005015	-0.000494	0.000000	0.000000
46.269930	18.122003	15.099516	0.427639	-0.624548	2.782152	0.000000	-0.073902	0.000000	0.004700	-0.000651	0.000000	0.000000
46.818990	17.357210	16.090338	0.956570	-1.190567	2.719545	0.000000	-0.155195	0.000000	0.004302	-0.000797	0.000000	0.000000
47.368050	16.045409	17.745393	1.417908	-1.841395	2.613062	0.000000	-0.233747	0.000000	0.003827	-0.000929	0.000000	0.000000
47.917110	14.279299	20.182566	1.779060	-2.623389	2.464587	0.000000	-0.308168	0.000000	0.003285	-0.001044	0.000000	0.000000
48.363070	12.903832	22.348844	1.315628	-2.213570	2.342954	0.000000	-0.239516	0.000000	0.002837	-0.000965	0.000000	0.000000
48.804030	11.923257	24.083183	0.916122	-1.704410	2.252263	0.000000	-0.173992	0.000000	0.002427	-0.000897	0.000000	0.000000
49.244990	11.275325	25.332414	0.558482	-1.117698	2.189979	0.000000	-0.110440	0.000000	0.002045	-0.000839	0.000000	0.000000
49.685950	10.930424	26.039703	0.226366	-0.480132	2.155397	0.000000	-0.048136	0.000000	0.001686	-0.000791	0.000000	0.000000
50.128160	10.872959	26.172585	-0.069195	0.116146	2.148136	0.000000	0.008427	0.000000	0.001345	-0.000755	0.000000	0.000000
50.425482	10.922275	26.106943	-0.096671	0.104633	2.150866	0.000000	0.008427	0.000000	0.001120	-0.000755	0.000000	0.000000
50.758816	10.996990	26.041490	-0.127475	0.091725	2.153926	0.000000	0.008427	0.000000	0.000869	-0.000755	0.000000	0.000000
51.092149	11.092241	25.984643	-0.158279	0.078817	2.156987	0.000000	0.008427	0.000000	0.000617	-0.000755	0.000000	0.000000
51.426732	11.208274	25.936762	-0.098269	-0.144551	2.160037	0.000000	-0.009097	0.000000	0.000364	-0.000758	0.000000	0.000000
51.724055	11.274673	26.026198	-0.097440	-0.220276	2.157558	0.000000	-0.014381	0.000000	0.000139	-0.000759	0.000000	0.000000
52.165015	11.507404	25.930748	-0.432592	0.435910	2.165205	0.000000	0.047629	0.000000	-0.000196	-0.000759	0.000000	0.000000
52.605975	12.043268	25.263168	-0.787502	1.072260	2.200294	0.000000	0.110188	0.000000	-0.000532	-0.000769	0.000000	0.000000
53.046935	12.906740	24.053840	-1.178385	1.659820	2.263225	0.000000	0.174012	0.000000	-0.000875	-0.000787	0.000000	0.000000
53.487895	14.137260	22.357794	-1.623096	2.171859	2.354721	0.000000	0.239825	0.000000	-0.001227	-0.000814	0.000000	0.000000
53.933855	15.812070	20.226859	-2.146225	2.586394	2.477340	0.000000	0.308775	0.000000	-0.001598	-0.000851	0.000000	0.000000
54.482915	17.967827	17.828587	-1.757298	1.807460	2.626983	0.000000	0.233938	0.000000	-0.002050	-0.000791	0.000000	0.000000
55.031975	19.625404	16.210379	-1.244269	1.157264	2.734295	0.000000	0.154939	0.000000	-0.002465	-0.000718	0.000000	0.000000
55.581035	20.667751	15.256966	-0.643375	0.589496	2.797368	0.000000	0.073181	0.000000	-0.002836	-0.000632	0.000000	0.000000
56.130095	21.021272	14.900434	0.002945	0.063715	2.815078	0.000000	-0.009886	0.000000	-0.003157	-0.000535	0.000000	0.000000
56.428668	21.057419	14.844513	-0.067666	0.083528	2.814541	0.000000	-0.002338	0.000000	-0.003320	-0.000544	0.000000	0.000000
56.762001	21.107831	14.796365	-0.083568	0.060916	2.813943	0.000000	-0.002338	0.000000	-0.003501	-0.000544	0.000000	0.000000
57.095334	21.168843	14.763291	-0.099470	0.038305	2.813345	0.000000	-0.002338	0.000000	-0.003682	-0.000544	0.000000	0.000000
57.429918	21.240746	14.745253	-0.115432	0.015608	2.812745	0.000000	-0.002338	0.000000	-0.003864	-0.000544	0.000000	0.000000
57.727240	21.313614	14.741961	-0.187162	0.035127	2.812212	0.000000	0.005255	0.000000	-0.004026	-0.000554	0.000000	0.000000
58.276300	21.154786	14.986004	0.474444	-0.482251	2.792558	0.000000	-0.077685	0.000000	-0.004293	-0.000420	0.000000	0.000000
58.825360	20.283715	15.813566	1.102535	-1.033974	2.727604	0.000000	-0.159254	0.000000	-0.004485	-0.000277	0.000000	0.000000
59.374420	18.761923	17.283581	1.652757	-1.659333	2.618499	0.000000	-0.238002	0.000000	-0.004597	-0.000130	0.000000	0.000000
59.923480	16.696878	19.500739	2.086256	-2.402866	2.467177	0.000000	-0.312533	0.000000	-0.004628	0.000019	0.000000	0.000000
60.369440	15.079265	21.471125	1.553961	-1.996942	2.343196	0.000000	-0.243881	0.000000	-0.004646	-0.000101	0.000000	0.000000
60.810400	13.914837	23.019566	1.096829	-1.501454	2.250257	0.000000	-0.178391	0.000000	-0.004717	-0.000222	0.000000	0.000000
61.251360	13.129988	24.099152	0.689800	-0.937660	2.185772	0.000000	-0.114930	0.000000	-0.004842	-0.000345	0.000000	0.000000
61.692320	12.688867	24.660771	0.314281	-0.331211	2.149009	0.000000	-0.052774	0.000000	-0.005022	-0.000472	0.000000	0.000000
62.134530	12.571368	24.678290	-0.014635	0.226978	2.139556	0.000000	0.003282	0.000000	-0.005260	-0.000591	0.000000	0.000000
62.431853	12.587104	24.547085	-0.038291	0.214309	2.140707	0.000000	0.003282	0.000000	-0.005436	-0.000591	0.000000	0.000000
62.765186	12.621472	24.408946	-0.064812	0.200106	2.141999	0.000000	0.003282	0.000000	-0.005633	-0.000591	0.000000	0.000000
63.098520	12.673521	24.280276	-0.091333	0.185903	2.143290	0.000000	0.003282	0.000000	-0.005830	-0.000591	0.000000	0.000000
63.433103	12.743545	24.160646	-0.117954	0.171647	2.144586	0.000000	0.003282	0.000000	-0.006028	-0.000591	0.000000	0.000000
63.730426	12.820704	24.062371	-0.108357	0.096365	2.145736	0.000000	-0.002283	0.000000	-0.006204	-0.000576	0.000000	0.000000
64.171386	13.078672	23.712506	-0.479171	0.694104	2.158614	0.000000	0.059478	0.000000	-0.006493	-0.000739	0.000000	0.000000
64.612346	13.671979	22.847497	-0.871865	1.260266	2.198920	0.000000	0.121925	0.000000	-0.006857	-0.000912	0.000000	0.000000
65.053306	14.627715	21.506704	-1.304373	1.769094	2.267117	0.000000	0.185771	0.000000	-0.007299	-0.001094	0.000000	0.000000
65.494266	15.989513	19.751128	-1.796445	2.197443	2.363985	0.000000	0.251743	0.000000	-0.007824	-0.001289	0.000000	0.000000
65.940226	17.842865	17.635780	-2.375071	2.526399	2.492215	0.000000	0.320971	0.000000	-0.008445	-0.001500	0.000000	0.000000
66.489286	20.216015	15.269892	-1.922826	1.808553	2.648674	0.000000	0.245559	0.000000	-0.009191	-0.001214	0.000000	0.000000
67.038346	22.014722	13.617286	-1.334841	1.219499	2.762310	0.000000	0.165774	0.000000	-0.009774	-0.000907	0.000000	0.000000
67.587406	23.112037	12.560263	-0.652629	0.717287	2.831100	0.000000	0.083034	0.000000	-0.010184	-0.000584	0.000000	0.000000
68.136466	23.430520	12.023542	0.075648	0.266153	2.853819	0.000000	-0.001188	0.000000	-0.010413	-0.000250	0.000000	0.000000
68.435038	23.428737	11.852355	-0.003512	0.273205	2.855958	0.000000	0.006901	0.000000	-0.010496	-0.000278	0.000000	0.000000
68.768372	23.435821	11.680293	-0.017739	0.242982	2.858351	0.000000	0.006901	0.000000	-0.010589	-0.000278	0.000000	0.000000
69.101705	23.452390	11.528379	-0.031967	0.212759	2.860744	0.000000	0.006901	0.000000	-0.010682	-0.000278	0.000000	0.000000
69.436288	23.478559	11.396158	-0.046248	0.182422	2.863147	0.000000	0.006901	0.000000	-0.010775	-0.000278	0.000000	0.000000
69.733611	23.509915	11.295658	-0.125791	0.187537	2.865286	0.000000	0.015049	0.000000	-0.010858	-0.000308	0.000000	0.000000
70.282671	23.244330	11.316175	0.606624	-0.225132	2.850341	0.000000	-0.069669	0.000000	-0.010930	0.000045	0.000000	0.000000
