#ParticleID	Turn	x[m]	xp	y[m]	yp	z[m]	dE[GeV]# s	beta_x	beta_y	alpha_x	alpha_y	D_x	D_y	D_px	D_py	orbit_x	orbit_px	orbit_y	orbit_py
0.300000	11.952516	25.225330	-0.015319	-0.024341	2.600427	0.000000	-0.001083	0.000000	-0.001194	0.001013	0.000000	0.000000
0.601250	11.969341	25.243595	-0.040529	-0.036291	2.599796	0.000000	-0.001083	0.000000	-0.000888	0.001013	0.000000	0.000000
0.898573	12.000839	25.268682	-0.035817	-0.110028	2.599173	0.000000	-0.007493	0.000000	-0.000587	0.001014	0.000000	0.000000
1.339533	12.186174	25.085315	-0.385731	0.524283	2.611624	0.000000	0.065962	0.000000	-0.000143	0.001005	0.000000	0.000000
1.780493	12.686689	24.350955	-0.753275	1.134744	2.656600	0.000000	0.140158	0.000000	0.000301	0.001007	0.000000	0.000000
2.221453	13.525262	23.099004	-1.155242	1.693577	2.734609	0.000000	0.215939	0.000000	0.000747	0.001020	0.000000	0.000000
2.662413	14.740217	21.386418	-1.610000	2.175356	2.846536	0.000000	0.294169	0.000000	0.001202	0.001046	0.000000	0.000000
3.108373	16.408075	19.266003	-2.142693	2.559337	2.995489	0.000000	0.376230	0.000000	0.001676	0.001083	0.000000	0.000000
3.657433	18.545930	16.884136	-1.727279	1.804229	3.176484	0.000000	0.284082	0.000000	0.002254	0.001019	0.000000	0.000000
4.206493	20.157494	15.256462	-1.189827	1.177635	3.305468	0.000000	0.186912	0.000000	0.002792	0.000937	0.000000	0.000000
4.755553	21.128895	14.267055	-0.568302	0.634925	3.380160	0.000000	0.086441	0.000000	0.003281	0.000839	0.000000	0.000000
5.304613	21.391481	13.845449	0.093388	0.137439	3.399241	0.000000	-0.015550	0.000000	0.003711	0.000726	0.000000	0.000000
5.603185	21.372209	13.749176	0.025270	0.150129	3.396947	0.000000	-0.006947	0.000000	0.003930	0.000735	0.000000	0.000000
5.936519	21.360564	13.657353	0.009664	0.125338	3.394386	0.000000	-0.006947	0.000000	0.004175	0.000735	0.000000	0.000000
6.269852	21.359324	13.582058	-0.005943	0.100548	3.391825	0.000000	-0.006947	0.000000	0.004421	0.000735	0.000000	0.000000
6.604435	21.368542	13.523100	-0.021608	0.075665	3.389255	0.000000	-0.006947	0.000000	0.004667	0.000735	0.000000	0.000000
6.901758	21.385545	13.484671	-0.089086	0.087470	3.386972	0.000000	0.001535	0.000000	0.004885	0.000748	0.000000	0.000000
7.450818	21.118847	13.650294	0.572314	-0.390877	3.359570	0.000000	-0.099928	0.000000	0.005251	0.000584	0.000000	0.000000
7.999878	20.143737	14.353359	1.193291	-0.897071	3.276950	0.000000	-0.199609	0.000000	0.005524	0.000409	0.000000	0.000000
8.548938	18.529100	15.643956	1.729969	-1.467174	3.140583	0.000000	-0.295742	0.000000	0.005699	0.000227	0.000000	0.000000
9.097998	16.389017	17.614030	2.144425	-2.141798	2.952891	0.000000	-0.386625	0.000000	0.005773	0.000041	0.000000	0.000000
9.543958	14.719739	19.369230	1.611751	-1.777019	2.798538	0.000000	-0.305712	0.000000	0.005825	0.000192	0.000000	0.000000
9.984918	13.503308	20.745868	1.157188	-1.332751	2.680682	0.000000	-0.228783	0.000000	0.005942	0.000343	0.000000	0.000000
10.425878	12.663072	21.702322	0.755505	-0.827832	2.596078	0.000000	-0.154465	0.000000	0.006128	0.000499	0.000000	0.000000
10.866838	12.160633	22.195061	0.388343	-0.285240	2.543761	0.000000	-0.081911	0.000000	0.006383	0.000660	0.000000	0.000000
11.309048	11.972882	22.201083	0.066287	0.219087	2.523112	0.000000	-0.016086	0.000000	0.006713	0.000813	0.000000	0.000000
11.606371	11.940881	22.074976	0.041344	0.205052	2.518088	0.000000	-0.016086	0.000000	0.006954	0.000813	0.000000	0.000000
12.086371	11.920518	21.889002	0.001078	0.182394	2.509976	0.000000	-0.016086	0.000000	0.007345	0.000813	0.000000	0.000000
12.566371	11.938812	21.724780	-0.039189	0.159736	2.501865	0.000000	-0.016086	0.000000	0.007735	0.000813	0.000000	0.000000
13.046371	11.995762	21.582310	-0.079456	0.137077	2.493753	0.000000	-0.016086	0.000000	0.008125	0.000813	0.000000	0.000000
13.526371	12.091368	21.461591	-0.119723	0.114419	2.485641	0.000000	-0.016086	0.000000	0.008516	0.000813	0.000000	0.000000
14.007621	12.226030	21.362396	-0.160094	0.091702	2.477509	0.000000	-0.016086	0.000000	0.008907	0.000813	0.000000	0.000000
14.304943	12.328615	21.312091	-0.157483	0.030268	2.472481	0.000000	-0.021612	0.000000	0.009149	0.000792	0.000000	0.000000
14.745903	12.625821	21.052211	-0.518657	0.556762	2.478019	0.000000	0.048506	0.000000	0.009551	0.001033	0.000000	0.000000
15.186863	13.250861	20.337380	-0.903545	1.057919	2.514465	0.000000	0.119166	0.000000	0.010061	0.001286	0.000000	0.000000
15.627823	14.232319	19.200122	-1.329742	1.510932	2.582231	0.000000	0.191169	0.000000	0.010687	0.001553	0.000000	0.000000
16.068783	15.615084	17.692183	-1.816733	1.895181	2.682083	0.000000	0.265334	0.000000	0.011434	0.001838	0.000000	0.000000
16.514743	17.486050	15.860465	-2.391762	2.194174	2.816837	0.000000	0.342998	0.000000	0.012322	0.002146	0.000000	0.000000
17.063803	19.888785	13.815762	-1.956547	1.551127	2.980773	0.000000	0.256885	0.000000	0.013388	0.001730	0.000000	0.000000
17.612863	21.734196	12.412834	-1.383017	1.018597	3.096335	0.000000	0.166242	0.000000	0.014216	0.001283	0.000000	0.000000
18.161923	22.891791	11.551740	-0.711709	0.558644	3.161483	0.000000	0.072670	0.000000	0.014792	0.000812	0.000000	0.000000
18.710983	23.279702	11.171134	0.009920	0.138495	3.175068	0.000000	-0.022179	0.000000	0.015106	0.000328	0.000000	0.000000
19.009556	23.309000	11.081598	-0.055750	0.136343	3.170477	0.000000	-0.014975	0.000000	0.015215	0.000365	0.000000	0.000000
19.342889	23.350948	11.000916	-0.070095	0.105704	3.165364	0.000000	-0.014975	0.000000	0.015336	0.000365	0.000000	0.000000
19.676223	23.402460	10.940659	-0.084440	0.075065	3.160250	0.000000	-0.014975	0.000000	0.015458	0.000365	0.000000	0.000000
20.010806	23.464072	10.900583	-0.215093	0.098319	3.155137	0.000000	0.000657	0.000000	0.015580	0.000442	0.000000	0.000000
20.308129	23.596089	10.850227	-0.281542	0.095319	3.155213	0.000000	0.007770	0.000000	0.015712	0.000480	0.000000	0.000000
20.857189	23.498511	10.965805	0.458320	-0.307015	3.133498	0.000000	-0.086306	0.000000	0.015835	-0.000031	0.000000	0.000000
21.406249	22.601159	11.532642	1.165787	-0.731226	3.060731	0.000000	-0.178850	0.000000	0.015678	-0.000541	0.000000	0.000000
21.955309	20.967485	12.591127	1.790841	-1.207542	2.938204	0.000000	-0.268230	0.000000	0.015242	-0.001042	0.000000	0.000000
22.504369	18.713010	14.216673	2.289294	-1.769902	2.768084	0.000000	-0.352866	0.000000	0.014536	-0.001525	0.000000	0.000000
22.950329	16.938289	15.676837	1.702508	-1.489620	2.628354	0.000000	-0.276519	0.000000	0.013939	-0.001156	0.000000	0.000000
23.391289	15.663419	16.842232	1.198564	-1.142660	2.522947	0.000000	-0.203805	0.000000	0.013508	-0.000802	0.000000	0.000000
23.832249	14.807400	17.677376	0.749419	-0.743692	2.448923	0.000000	-0.133405	0.000000	0.013230	-0.000457	0.000000	0.000000
24.273209	14.331084	18.144262	0.334538	-0.310875	2.405440	0.000000	-0.064519	0.000000	0.013104	-0.000117	0.000000	0.000000
24.715418	14.212846	18.221309	-0.034758	0.097018	2.392008	0.000000	-0.001481	0.000000	0.013127	0.000191	0.000000	0.000000
25.012741	14.239742	18.168514	-0.055702	0.080547	2.391511	0.000000	-0.001481	0.000000	0.013183	0.000191	0.000000	0.000000
25.346075	14.284704	18.120971	-0.079184	0.062082	2.390953	0.000000	-0.001481	0.000000	0.013247	0.000191	0.000000	0.000000
25.679408	14.345320	18.085739	-0.102665	0.043616	2.390396	0.000000	-0.001481	0.000000	0.013310	0.000191	0.000000	0.000000
26.013991	14.421613	18.063120	-0.009237	-0.121456	2.389813	0.000000	-0.020869	0.000000	0.013374	0.000082	0.000000	0.000000
26.311314	14.433160	18.140405	0.000898	-0.176799	2.383577	0.000000	-0.025948	0.000000	0.013398	0.000051	0.000000	0.000000
26.752274	14.610879	18.099766	-0.405285	0.268592	2.386987	0.000000	0.041857	0.000000	0.013497	0.000398	0.000000	0.000000
27.193234	15.153743	17.670162	-0.829999	0.701758	2.420229	0.000000	0.110135	0.000000	0.013750	0.000749	0.000000	0.000000
27.634194	16.086581	16.871142	-1.292664	1.102984	2.483680	0.000000	0.179660	0.000000	0.014160	0.001109	0.000000	0.000000
28.075154	17.452063	15.739068	-1.814434	1.454008	2.578061	0.000000	0.251220	0.000000	0.014730	0.001482	0.000000	0.000000
28.521114	19.336718	14.308178	-2.424408	1.740059	2.706051	0.000000	0.326113	0.000000	0.015478	0.001874	0.000000	0.000000
29.070174	21.733621	12.714623	-1.913246	1.178743	2.861898	0.000000	0.243716	0.000000	0.016367	0.001358	0.000000	0.000000
29.619234	23.490881	11.688116	-1.266817	0.701421	2.971526	0.000000	0.157015	0.000000	0.016965	0.000817	0.000000	0.000000
30.168294	24.484222	11.155522	-0.530823	0.274080	3.032995	0.000000	0.067541	0.000000	0.017262	0.000263	0.000000	0.000000
30.717354	24.643394	11.078894	0.242701	-0.133730	3.045218	0.000000	-0.023127	0.000000	0.017253	-0.000296	0.000000	0.000000
31.015927	24.534631	11.152288	0.175506	-0.136380	3.040392	0.000000	-0.016373	0.000000	0.017177	-0.000255	0.000000	0.000000
31.349260	24.422295	11.253356	0.161501	-0.166825	3.035019	0.000000	-0.016373	0.000000	0.017092	-0.000255	0.000000	0.000000
31.682593	24.319295	11.374722	0.147497	-0.197271	3.029646	0.000000	-0.016373	0.000000	0.017007	-0.000255	0.000000	0.000000
32.017177	24.225299	11.516953	0.133439	-0.227830	3.024253	0.000000	-0.016373	0.000000	0.016922	-0.000255	0.000000	0.000000
32.314499	24.149865	11.660408	0.067151	-0.229049	3.019473	0.000000	-0.009647	0.000000	0.016846	-0.000214	0.000000	0.000000
32.863559	23.662509	12.150090	0.814668	-0.667859	2.989796	0.000000	-0.099196	0.000000	0.016579	-0.000756	0.000000	0.000000
33.412619	22.380842	13.144901	1.504582	-1.154259	2.911631	0.000000	-0.186998	0.000000	0.016018	-0.001284	0.000000	0.000000
33.961679	20.395512	14.715715	2.088118	-1.722906	2.786357	0.000000	-0.271501	0.000000	0.015173	-0.001789	0.000000	0.000000
34.510739	17.846920	16.974440	2.524025	-2.414317	2.616186	0.000000	-0.351216	0.000000	0.014059	-0.002263	0.000000	0.000000
34.956699	15.866871	18.995291	1.929686	-2.097142	2.476638	0.000000	-0.278817	0.000000	0.013129	-0.001910	0.000000	0.000000
35.397659	14.390907	20.670001	1.428798	-1.685579	2.369680	0.000000	-0.210039	0.000000	0.012360	-0.001582	0.000000	0.000000
35.838619	13.326491	21.946314	0.993237	-1.197301	2.292369	0.000000	-0.143637	0.000000	0.011731	-0.001271	0.000000	0.000000
36.279579	12.624938	22.766154	0.603088	-0.654533	2.243830	0.000000	-0.078857	0.000000	0.011236	-0.000975	0.000000	0.000000
36.721789	12.253536	23.092469	0.267277	-0.132454	2.223495	0.000000	-0.019842	0.000000	0.010869	-0.000715	0.000000	0.000000
37.019112	12.102331	23.175128	0.241279	-0.145555	2.217808	0.000000	-0.019842	0.000000	0.010656	-0.000715	0.000000	0.000000
37.352445	11.951193	23.277060	0.212133	-0.160243	2.211433	0.000000	-0.019842	0.000000	0.010418	-0.000715	0.000000	0.000000
37.685779	11.819487	23.388785	0.182986	-0.174931	2.205057	0.000000	-0.019842	0.000000	0.010179	-0.000715	0.000000	0.000000
38.020362	11.706827	23.510776	0.153731	-0.189674	2.198657	0.000000	-0.019842	0.000000	0.009940	-0.000715	0.000000	0.000000
38.317684	11.623109	23.627525	0.153551	-0.255496	2.192968	0.000000	-0.024713	0.000000	0.009727	-0.000738	0.000000	0.000000
38.758644	11.636557	23.591074	-0.184361	0.337833	2.196193	0.000000	0.038168	0.000000	0.009457	-0.000491	0.000000	0.000000
39.199604	11.950664	23.036093	-0.530696	0.915784	2.227117	0.000000	0.101489	0.000000	0.009294	-0.000249	0.000000	0.000000
39.640564	12.579786	21.987842	-0.901285	1.452056	2.286093	0.000000	0.165968	0.000000	0.009237	-0.000010	0.000000	0.000000
40.081524	13.552682	20.494029	-1.313067	1.922244	2.373793	0.000000	0.232339	0.000000	0.009285	0.000229	0.000000	0.000000
40.527484	14.931427	18.599912	-1.788846	2.306474	2.492701	0.000000	0.301787	0.000000	0.009441	0.000472	0.000000	0.000000
41.076544	16.693471	16.471157	-1.400773	1.592975	2.637796	0.000000	0.226498	0.000000	0.009616	0.000163	0.000000	0.000000
41.625604	17.972011	15.059457	-0.913714	0.992971	2.740547	0.000000	0.147192	0.000000	0.009620	-0.000149	0.000000	0.000000
42.174664	18.676685	14.264236	-0.362090	0.463714	2.799129	0.000000	0.065273	0.000000	0.009453	-0.000458	0.000000	0.000000
42.723724	18.757697	14.028834	0.215111	-0.032503	2.812501	0.000000	-0.017812	0.000000	0.009118	-0.000759	0.000000	0.000000
43.022297	18.661062	14.034364	0.153563	-0.019845	2.809421	0.000000	-0.011039	0.000000	0.008899	-0.000736	0.000000	0.000000
43.502297	18.526279	14.069839	0.127234	-0.054060	2.804475	0.000000	-0.011039	0.000000	0.008546	-0.000736	0.000000	0.000000
43.982297	18.416772	14.138160	0.100905	-0.088276	2.799530	0.000000	-0.011039	0.000000	0.008192	-0.000736	0.000000	0.000000
44.462297	18.332541	14.239328	0.074577	-0.122491	2.794584	0.000000	-0.011039	0.000000	0.007839	-0.000736	0.000000	0.000000
44.942297	18.273585	14.373342	0.048248	-0.156706	2.789638	0.000000	-0.011039	0.000000	0.007486	-0.000736	0.000000	0.000000
45.423547	18.240075	14.540501	-0.068520	-0.118968	2.784697	0.000000	0.002758	0.000000	0.007132	-0.000700	0.000000	0.000000
45.720870	18.285715	14.617389	-0.129854	-0.103913	2.785727	0.000000	0.009607	0.000000	0.006924	-0.000683	0.000000	0.000000
46.269930	18.120088	15.014176	0.429284	-0.622948	2.768839	0.000000	-0.072547	0.000000	0.006488	-0.000900	0.000000	0.000000
46.818990	17.353458	16.001850	0.958074	-1.186357	2.707234	0.000000	-0.153429	0.000000	0.005938	-0.001102	0.000000	0.000000
47.368050	16.040019	17.650759	1.419155	-1.834277	2.601997	0.000000	-0.231607	0.000000	0.005282	-0.001283	0.000000	0.000000
47.917110	14.272602	20.078348	1.779949	-2.612862	2.454987	0.000000	-0.305697	0.000000	0.004533	-0.001442	0.000000	0.000000
48.363070	12.896251	22.236385	1.316522	-2.205617	2.334567	0.000000	-0.237274	0.000000	0.003915	-0.001333	0.000000	0.000000
48.804030	11.914788	23.965015	0.917088	-1.699412	2.244970	0.000000	-0.171950	0.000000	0.003348	-0.001239	0.000000	0.000000
49.244990	11.265899	25.211246	0.559568	-1.115882	2.183687	0.000000	-0.108572	0.000000	0.002820	-0.001160	0.000000	0.000000
49.685950	10.919921	25.918380	0.227625	-0.481580	2.150027	0.000000	-0.046418	0.000000	0.002323	-0.001093	0.000000	0.000000
50.128160	10.861204	26.053971	-0.067861	0.112199	2.143623	0.000000	0.010055	0.000000	0.001852	-0.001044	0.000000	0.000000
50.425482	10.909734	25.990688	-0.095361	0.100643	2.146923	0.000000	0.010055	0.000000	0.001542	-0.001044	0.000000	0.000000
50.758816	10.983585	25.927911	-0.126193	0.087688	2.150623	0.000000	0.010055	0.000000	0.001194	-0.001044	0.000000	0.000000
51.092149	11.077992	25.873771	-0.157025	0.074733	2.154322	0.000000	0.010055	0.000000	0.000846	-0.001044	0.000000	0.000000
51.426732	11.193195	25.828637	-0.097166	-0.147805	2.158014	0.000000	-0.007452	0.000000	0.000496	-0.001048	0.000000	0.000000
51.724055	11.258946	25.920026	-0.096417	-0.223408	2.156110	0.000000	-0.012730	0.000000	0.000185	-0.001049	0.000000	0.000000
52.165015	11.490569	25.828568	-0.431184	0.430025	2.164602	0.000000	0.049252	0.000000	-0.000277	-0.001050	0.000000	0.000000
52.605975	12.024955	25.167300	-0.785643	1.063888	2.200529	0.000000	0.111808	0.000000	-0.000743	-0.001063	0.000000	0.000000
53.046935	12.886507	23.966320	-1.175986	1.649343	2.264304	0.000000	0.175647	0.000000	-0.001216	-0.001088	0.000000	0.000000
53.487895	14.114575	22.280280	-1.620045	2.159752	2.356659	0.000000	0.241499	0.000000	-0.001704	-0.001126	0.000000	0.000000
53.933855	15.786248	20.160686	-2.142360	2.573194	2.480175	0.000000	0.310509	0.000000	-0.002217	-0.001177	0.000000	0.000000
54.482915	17.938029	17.775275	-1.754152	1.797140	2.630906	0.000000	0.235565	0.000000	-0.002841	-0.001095	0.000000	0.000000
55.031975	19.592552	16.167183	-1.242075	1.149087	2.739226	0.000000	0.156425	0.000000	-0.003416	-0.000993	0.000000	0.000000
55.581035	20.632994	15.221860	-0.642296	0.582878	2.803205	0.000000	0.074495	0.000000	-0.003929	-0.000874	0.000000	0.000000
56.130095	20.985905	14.871964	0.002826	0.058185	2.821700	0.000000	-0.008771	0.000000	-0.004373	-0.000740	0.000000	0.000000
56.428668	21.022396	14.819142	-0.068263	0.078334	2.821586	0.000000	-0.001131	0.000000	-0.004597	-0.000751	0.000000	0.000000
56.762001	21.073214	14.774463	-0.084193	0.055703	2.821459	0.000000	-0.001131	0.000000	-0.004848	-0.000751	0.000000	0.000000
57.095334	21.134653	14.744872	-0.100123	0.033071	2.821333	0.000000	-0.001131	0.000000	-0.005098	-0.000751	0.000000	0.000000
57.429918	21.207002	14.730342	-0.116112	0.010355	2.821206	0.000000	-0.001131	0.000000	-0.005350	-0.000751	0.000000	0.000000
57.727240	21.280292	14.730173	-0.188479	0.030267	2.821094	0.000000	0.006579	0.000000	-0.005573	-0.000766	0.000000	0.000000
58.276300	21.123469	14.979403	0.472023	-0.486906	2.802185	0.000000	-0.076657	0.000000	-0.005943	-0.000580	0.000000	0.000000
58.825360	20.255566	15.812094	1.099180	-1.038752	2.737781	0.000000	-0.158542	0.000000	-0.006208	-0.000383	0.000000	0.000000
59.374420	18.737877	17.287539	1.648708	-1.664571	2.629020	0.000000	-0.237622	0.000000	-0.006362	-0.000179	0.000000	0.000000
59.923480	16.677573	19.510811	2.081808	-2.408931	2.477829	0.000000	-0.312491	0.000000	-0.006404	0.000027	0.000000	0.000000
60.369440	15.063568	21.486719	1.550304	-2.003247	2.353932	0.000000	-0.243571	0.000000	-0.006429	-0.000139	0.000000	0.000000
60.810400	13.902120	23.040661	1.093746	-1.507668	2.261219	0.000000	-0.177805	0.000000	-0.006527	-0.000306	0.000000	0.000000
61.251360	13.119792	24.125557	0.687148	-0.943506	2.197103	0.000000	-0.114059	0.000000	-0.006699	-0.000476	0.000000	0.000000
61.692320	12.680851	24.692055	0.311938	-0.336424	2.160855	0.000000	-0.051608	0.000000	-0.006948	-0.000652	0.000000	0.000000
62.134530	12.565306	24.713798	-0.016223	0.221509	2.152075	0.000000	0.004629	0.000000	-0.007277	-0.000817	0.000000	0.000000
62.431853	12.581990	24.585831	-0.039892	0.208888	2.153694	0.000000	0.004629	0.000000	-0.007520	-0.000817	0.000000	0.000000
62.765186	12.617430	24.451289	-0.066427	0.194738	2.155510	0.000000	0.004629	0.000000	-0.007792	-0.000817	0.000000	0.000000
63.098520	12.670560	24.326180	-0.092962	0.180589	2.157325	0.000000	0.004629	0.000000	-0.008064	-0.000817	0.000000	0.000000
63.433103	12.741678	24.210088	-0.119597	0.166386	2.159147	0.000000	0.004629	0.000000	-0.008338	-0.000817	0.000000	0.000000
63.730426	12.819806	24.114952	-0.109336	0.089660	2.160764	0.000000	-0.001090	0.000000	-0.008581	-0.000795	0.000000	0.000000
64.171386	13.078577	23.770350	-0.480134	0.688945	2.174361	0.000000	0.061065	0.000000	-0.008981	-0.001022	0.000000	0.000000
64.612346	13.672667	22.909151	-0.872851	1.256888	2.215590	0.000000	0.123926	0.000000	-0.009483	-0.001260	0.000000	0.000000
65.053306	14.629192	21.570542	-1.305419	1.767655	2.284925	0.000000	0.188211	0.000000	-0.010094	-0.001512	0.000000	0.000000
65.494266	15.991812	19.815422	-1.797588	2.198013	2.383162	0.000000	0.254656	0.000000	-0.010819	-0.001781	0.000000	0.000000
65.940226	17.846107	17.698701	-2.376268	2.528914	2.513031	0.000000	0.324385	0.000000	-0.011678	-0.002073	0.000000	0.000000
66.489286	20.220341	15.330998	-1.924074	1.809564	2.671443	0.000000	0.248277	0.000000	-0.012709	-0.001678	0.000000	0.000000
67.038346	22.020195	13.678160	-1.336081	1.219068	2.786575	0.000000	0.167739	0.000000	-0.013515	-0.001253	0.000000	0.000000
67.587406	23.118678	12.622473	-0.653796	0.715375	2.856374	0.000000	0.084207	0.000000	-0.014081	-0.000806	0.000000	0.000000
68.136466	23.438294	12.088754	0.074624	0.262619	2.879596	0.000000	-0.000832	0.000000	-0.014398	-0.000345	0.000000	0.000000
68.435038	23.438208	11.918950	-0.006465	0.271038	2.881961	0.000000	0.007566	0.000000	-0.014512	-0.000385	0.000000	0.000000
68.768372	23.447259	11.748265	-0.020687	0.241016	2.884611	0.000000	0.007566	0.000000	-0.014641	-0.000385	0.000000	0.000000
69.101705	23.465791	11.597594	-0.034910	0.210995	2.887261	0.000000	0.007566	0.000000	-0.014769	-0.000385	0.000000	0.000000
69.436288	23.493928	11.466486	-0.049185	0.180862	2.889921	0.000000	0.007566	0.000000	-0.014898	-0.000385	0.000000	0.000000
69.733611	23.527103	11.366824	-0.130764	0.187304	2.892295	0.000000	0.016035	0.000000	-0.015012	-0.000427	0.000000	0.000000
70.282671	23.266662	11.388676	0.602276	-0.227347	2.877681	0.000000	-0.069552	0.000000	-0.015113	0.000061	0.000000	0.000000
