#ParticleID	Turn	x[m]	xp	y[m]	yp	z[m]	dE[GeV]# s	beta_x	beta_y	alpha_x	alpha_y	D_x	D_y	D_px	D_py	orbit_x	orbit_px	orbit_y	orbit_py
0.300000	11.957643	25.319809	-0.020061	-0.021687	2.599717	0.000000	0.000517	0.000000	-0.000822	0.000716	0.000000	0.000000
0.601250	11.977322	25.336461	-0.045264	-0.033590	2.599658	0.000000	0.000517	0.000000	-0.000607	0.000716	0.000000	0.000000
0.898573	12.011634	25.359929	-0.040573	-0.107500	2.599599	0.000000	-0.005881	0.000000	-0.000394	0.000717	0.000000	0.000000
1.339533	12.201267	25.173279	-0.390857	0.529172	2.612890	0.000000	0.067596	0.000000	-0.000080	0.000711	0.000000	0.000000
1.780493	12.706504	24.433645	-0.759003	1.141769	2.658720	0.000000	0.141835	0.000000	0.000234	0.000713	0.000000	0.000000
2.221453	13.550438	23.174673	-1.161832	1.702420	2.737608	0.000000	0.217682	0.000000	0.000550	0.000723	0.000000	0.000000
2.662413	14.771633	21.453639	-1.617749	2.185613	2.850449	0.000000	0.296001	0.000000	0.000872	0.000741	0.000000	0.000000
3.108373	16.446981	19.323630	-2.151958	2.570529	3.000375	0.000000	0.378174	0.000000	0.001209	0.000768	0.000000	0.000000
3.657433	18.594588	16.930915	-1.735858	1.812944	3.182550	0.000000	0.285852	0.000000	0.001618	0.000722	0.000000	0.000000
4.206493	20.214817	15.294757	-1.197123	1.184493	3.312598	0.000000	0.188470	0.000000	0.001999	0.000664	0.000000	0.000000
4.755553	21.193192	14.298624	-0.573809	0.640413	3.388215	0.000000	0.087756	0.000000	0.002345	0.000593	0.000000	0.000000
5.304613	21.460581	13.871566	0.090053	0.141948	3.408065	0.000000	-0.014505	0.000000	0.002649	0.000512	0.000000	0.000000
5.603185	21.443697	13.772336	0.021303	0.155079	3.406178	0.000000	-0.005799	0.000000	0.002804	0.000519	0.000000	0.000000
5.936519	21.434678	13.677212	0.005752	0.130294	3.404072	0.000000	-0.005799	0.000000	0.002977	0.000519	0.000000	0.000000
6.269852	21.436028	13.598611	-0.009800	0.105509	3.401966	0.000000	-0.005799	0.000000	0.003150	0.000519	0.000000	0.000000
6.604435	21.447809	13.536332	-0.025410	0.080631	3.399852	0.000000	-0.005799	0.000000	0.003323	0.000519	0.000000	0.000000
6.901758	21.467051	13.494953	-0.093720	0.092848	3.397974	0.000000	0.002818	0.000000	0.003478	0.000528	0.000000	0.000000
7.450818	21.203858	13.654778	0.570496	-0.385640	3.371281	0.000000	-0.099009	0.000000	0.003736	0.000411	0.000000	0.000000
7.999878	20.229105	14.351984	1.194417	-0.891602	3.289140	0.000000	-0.199072	0.000000	0.003928	0.000287	0.000000	0.000000
8.548938	18.611648	15.636239	1.733963	-1.461079	3.153013	0.000000	-0.295600	0.000000	0.004050	0.000158	0.000000	0.000000
9.097998	16.465761	17.599031	2.151012	-2.134638	2.965316	0.000000	-0.386881	0.000000	0.004101	0.000026	0.000000	0.000000
9.543958	14.791492	19.347749	1.616479	-1.769814	2.810939	0.000000	-0.305656	0.000000	0.004136	0.000133	0.000000	0.000000
9.984918	13.571656	20.718088	1.160246	-1.325800	2.693214	0.000000	-0.228410	0.000000	0.004218	0.000240	0.000000	0.000000
10.425878	12.729407	21.668617	0.757028	-0.821455	2.608901	0.000000	-0.153768	0.000000	0.004348	0.000351	0.000000	0.000000
10.866838	12.226260	22.156081	0.388401	-0.279729	2.557039	0.000000	-0.080882	0.000000	0.004528	0.000465	0.000000	0.000000
11.309048	12.039067	22.157723	0.065595	0.222622	2.537015	0.000000	-0.014860	0.000000	0.004760	0.000573	0.000000	0.000000
11.606371	12.007436	22.029529	0.040792	0.208539	2.532427	0.000000	-0.014860	0.000000	0.004930	0.000573	0.000000	0.000000
12.086371	11.987495	21.840245	0.000750	0.185802	2.525019	0.000000	-0.014860	0.000000	0.005205	0.000573	0.000000	0.000000
12.566371	12.005995	21.672788	-0.039292	0.163066	2.517611	0.000000	-0.014860	0.000000	0.005481	0.000573	0.000000	0.000000
13.046371	12.062935	21.527159	-0.079333	0.140329	2.510203	0.000000	-0.014860	0.000000	0.005756	0.000573	0.000000	0.000000
13.526371	12.158316	21.403356	-0.119375	0.117593	2.502796	0.000000	-0.014860	0.000000	0.006031	0.000573	0.000000	0.000000
14.007621	12.292535	21.301143	-0.159521	0.094797	2.495369	0.000000	-0.014860	0.000000	0.006307	0.000573	0.000000	0.000000
14.304943	12.394752	21.248986	-0.155823	0.032017	2.490778	0.000000	-0.020587	0.000000	0.006478	0.000558	0.000000	0.000000
14.745903	12.691078	20.988340	-0.518435	0.556766	2.496986	0.000000	0.050006	0.000000	0.006761	0.000729	0.000000	0.000000
15.186863	13.316467	20.274307	-0.904746	1.056179	2.534346	0.000000	0.121162	0.000000	0.007121	0.000908	0.000000	0.000000
15.627823	14.299513	19.139376	-1.332412	1.507530	2.603280	0.000000	0.193687	0.000000	0.007563	0.001097	0.000000	0.000000
16.068783	15.685159	17.635185	-1.820982	1.890277	2.704570	0.000000	0.268408	0.000000	0.008091	0.001299	0.000000	0.000000
16.514743	17.560381	15.808608	-2.397710	2.187904	2.841064	0.000000	0.346662	0.000000	0.008718	0.001517	0.000000	0.000000
17.063803	19.967988	13.769881	-1.959971	1.546653	3.007085	0.000000	0.259741	0.000000	0.009471	0.001222	0.000000	0.000000
17.612863	21.815417	12.371117	-1.383707	1.015592	3.124206	0.000000	0.168232	0.000000	0.010056	0.000906	0.000000	0.000000
18.161923	22.972071	11.512673	-0.709644	0.556886	3.190357	0.000000	0.073752	0.000000	0.010463	0.000573	0.000000	0.000000
18.710983	23.356181	11.133399	0.014581	0.137857	3.204369	0.000000	-0.022027	0.000000	0.010684	0.000230	0.000000	0.000000
19.009556	23.384306	11.043590	-0.053632	0.136690	3.199980	0.000000	-0.014425	0.000000	0.010761	0.000257	0.000000	0.000000
19.342889	23.424826	10.962713	-0.067928	0.105942	3.195086	0.000000	-0.014425	0.000000	0.010846	0.000257	0.000000	0.000000
19.676223	23.474877	10.902334	-0.082224	0.075195	3.190192	0.000000	-0.014425	0.000000	0.010932	0.000257	0.000000	0.000000
20.010806	23.534990	10.862207	-0.213178	0.098150	3.185299	0.000000	0.001357	0.000000	0.011018	0.000312	0.000000	0.000000
20.308129	23.665768	10.812020	-0.282290	0.096110	3.185616	0.000000	0.008882	0.000000	0.011111	0.000339	0.000000	0.000000
20.857189	23.567772	10.926119	0.459792	-0.305112	3.164280	0.000000	-0.086171	0.000000	0.011198	-0.000022	0.000000	0.000000
21.406249	22.667713	11.490159	1.169381	-0.728073	3.091278	0.000000	-0.179697	0.000000	0.011087	-0.000383	0.000000	0.000000
21.955309	21.029212	12.544325	1.796323	-1.202908	2.967906	0.000000	-0.270040	0.000000	0.010778	-0.000737	0.000000	0.000000
22.504369	18.768098	14.163717	2.296308	-1.763448	2.796348	0.000000	-0.355604	0.000000	0.010279	-0.001079	0.000000	0.000000
22.950329	16.988080	15.618580	1.708053	-1.484575	2.655400	0.000000	-0.278559	0.000000	0.009856	-0.000817	0.000000	0.000000
23.391289	15.709045	16.780125	1.202796	-1.139163	2.549129	0.000000	-0.205166	0.000000	0.009551	-0.000567	0.000000	0.000000
23.832249	14.849887	17.612883	0.752520	-0.741907	2.474577	0.000000	-0.134104	0.000000	0.009355	-0.000323	0.000000	0.000000
24.273209	14.371325	18.078959	0.336642	-0.310887	2.430896	0.000000	-0.064567	0.000000	0.009265	-0.000083	0.000000	0.000000
24.715418	14.251597	18.156864	-0.032130	0.093648	2.417591	0.000000	-0.001160	0.000000	0.009282	0.000134	0.000000	0.000000
25.012741	14.276912	18.106088	-0.053014	0.077129	2.417206	0.000000	-0.001160	0.000000	0.009321	0.000134	0.000000	0.000000
25.346075	14.320059	18.060842	-0.076427	0.058609	2.416775	0.000000	-0.001160	0.000000	0.009366	0.000134	0.000000	0.000000
25.679408	14.378814	18.027942	-0.099840	0.040090	2.416344	0.000000	-0.001160	0.000000	0.009411	0.000134	0.000000	0.000000
26.013991	14.453194	18.007700	-0.006088	-0.124586	2.415886	0.000000	-0.020760	0.000000	0.009455	0.000057	0.000000	0.000000
26.311314	14.462893	18.086818	0.005552	-0.181628	2.409694	0.000000	-0.026127	0.000000	0.009472	0.000035	0.000000	0.000000
26.752274	14.636746	18.051080	-0.401191	0.262355	2.413200	0.000000	0.042346	0.000000	0.009542	0.000280	0.000000	0.000000
27.193234	15.176112	17.627520	-0.826274	0.694398	2.446876	0.000000	0.111299	0.000000	0.009720	0.000528	0.000000	0.000000
27.634194	16.105653	16.835412	-1.289127	1.094839	2.511105	0.000000	0.181514	0.000000	0.010009	0.000783	0.000000	0.000000
28.075154	17.467870	15.710800	-1.810911	1.445454	2.606615	0.000000	0.253788	0.000000	0.010412	0.001046	0.000000	0.000000
28.521114	19.348928	14.287781	-2.420613	1.731398	2.736110	0.000000	0.329421	0.000000	0.010940	0.001323	0.000000	0.000000
29.070174	21.740871	12.703059	-1.908646	1.171420	2.893745	0.000000	0.246033	0.000000	0.011567	0.000958	0.000000	0.000000
29.619234	23.492563	11.684180	-1.261773	0.694902	3.004523	0.000000	0.158295	0.000000	0.011989	0.000577	0.000000	0.000000
30.168294	24.480163	11.158558	-0.525716	0.267897	3.066483	0.000000	0.067758	0.000000	0.012199	0.000185	0.000000	0.000000
30.717354	24.633853	11.088747	0.247499	-0.140022	3.078528	0.000000	-0.023979	0.000000	0.012192	-0.000210	0.000000	0.000000
31.015927	24.524082	11.165055	0.177367	-0.141346	3.073564	0.000000	-0.016784	0.000000	0.012138	-0.000180	0.000000	0.000000
31.349260	24.410510	11.269437	0.163348	-0.171798	3.068030	0.000000	-0.016784	0.000000	0.012078	-0.000180	0.000000	0.000000
31.682593	24.306285	11.394119	0.149328	-0.202249	3.062495	0.000000	-0.016784	0.000000	0.012018	-0.000180	0.000000	0.000000
32.017177	24.211068	11.539684	0.135256	-0.232815	3.056940	0.000000	-0.016784	0.000000	0.011957	-0.000180	0.000000	0.000000
32.314499	24.134457	11.686153	0.066179	-0.232610	3.052010	0.000000	-0.009630	0.000000	0.011904	-0.000151	0.000000	0.000000
32.863559	23.648580	12.180183	0.813123	-0.672323	3.021985	0.000000	-0.100214	0.000000	0.011716	-0.000533	0.000000	0.000000
33.412619	22.369067	13.180463	1.502590	-1.159937	2.942828	0.000000	-0.189030	0.000000	0.011320	-0.000907	0.000000	0.000000
33.961679	20.386378	14.758253	2.085850	-1.730195	2.815939	0.000000	-0.274506	0.000000	0.010723	-0.001264	0.000000	0.000000
34.510739	17.840680	17.025952	2.521682	-2.423722	2.643561	0.000000	-0.355132	0.000000	0.009936	-0.001599	0.000000	0.000000
34.956699	15.862837	19.054704	1.927809	-2.105785	2.502169	0.000000	-0.282063	0.000000	0.009279	-0.001349	0.000000	0.000000
35.397659	14.388581	20.736421	1.427196	-1.692970	2.393707	0.000000	-0.212651	0.000000	0.008735	-0.001117	0.000000	0.000000
35.838619	13.325618	22.018512	0.991823	-1.203109	2.315203	0.000000	-0.145651	0.000000	0.008292	-0.000898	0.000000	0.000000
36.279579	12.625346	22.842638	0.601787	-0.658498	2.265764	0.000000	-0.080300	0.000000	0.007942	-0.000688	0.000000	0.000000
36.721789	12.255101	23.171604	0.266976	-0.136430	2.244808	0.000000	-0.020953	0.000000	0.007683	-0.000505	0.000000	0.000000
37.019112	12.104072	23.256617	0.240986	-0.149500	2.238729	0.000000	-0.020953	0.000000	0.007532	-0.000505	0.000000	0.000000
37.352445	11.953127	23.361168	0.211848	-0.164153	2.231912	0.000000	-0.020953	0.000000	0.007364	-0.000505	0.000000	0.000000
37.685779	11.821608	23.475488	0.182709	-0.178806	2.225096	0.000000	-0.020953	0.000000	0.007196	-0.000505	0.000000	0.000000
38.020362	11.709131	23.600060	0.153462	-0.193514	2.218255	0.000000	-0.020953	0.000000	0.007027	-0.000505	0.000000	0.000000
38.317684	11.625587	23.719052	0.154095	-0.261075	2.212173	0.000000	-0.026020	0.000000	0.006877	-0.000521	0.000000	0.000000
38.758644	11.638592	23.686444	-0.183841	0.334732	2.214853	0.000000	0.037345	0.000000	0.006685	-0.000347	0.000000	0.000000
39.199604	11.952247	23.133070	-0.530177	0.915305	2.245471	0.000000	0.101138	0.000000	0.006570	-0.000176	0.000000	0.000000
39.640564	12.580883	22.084112	-0.900741	1.454224	2.304377	0.000000	0.166086	0.000000	0.006530	-0.000007	0.000000	0.000000
40.081524	13.553234	20.587308	-1.312468	1.926964	2.392243	0.000000	0.232926	0.000000	0.006565	0.000162	0.000000	0.000000
40.527484	14.931287	18.688039	-1.788103	2.313483	2.511554	0.000000	0.302845	0.000000	0.006675	0.000334	0.000000	0.000000
41.076544	16.692402	16.553175	-1.400006	1.597312	2.657106	0.000000	0.226943	0.000000	0.006799	0.000116	0.000000	0.000000
41.625604	17.970064	15.138092	-0.912988	0.994935	2.759928	0.000000	0.147018	0.000000	0.006802	-0.000105	0.000000	0.000000
42.174664	18.673989	14.341979	-0.361465	0.463440	2.818195	0.000000	0.064482	0.000000	0.006684	-0.000323	0.000000	0.000000
42.723724	18.754439	14.108119	0.215592	-0.035038	2.830873	0.000000	-0.019202	0.000000	0.006448	-0.000536	0.000000	0.000000
43.022297	18.658219	14.114510	0.152908	-0.021255	2.827380	0.000000	-0.012213	0.000000	0.006292	-0.000520	0.000000	0.000000
43.502297	18.524064	14.151246	0.126581	-0.055278	2.821767	0.000000	-0.012213	0.000000	0.006043	-0.000520	0.000000	0.000000
43.982297	18.415184	14.220644	0.100253	-0.089301	2.816155	0.000000	-0.012213	0.000000	0.005793	-0.000520	0.000000	0.000000
44.462297	18.331578	14.322704	0.073926	-0.123324	2.810542	0.000000	-0.012213	0.000000	0.005544	-0.000520	0.000000	0.000000
44.942297	18.273246	14.457426	0.047598	-0.157347	2.804930	0.000000	-0.012213	0.000000	0.005295	-0.000520	0.000000	0.000000
45.423547	18.240362	14.625107	-0.069171	-0.118997	2.799320	0.000000	0.001657	0.000000	0.005044	-0.000495	0.000000	0.000000
45.720870	18.286376	14.701988	-0.131343	-0.102900	2.799960	0.000000	0.008669	0.000000	0.004897	-0.000482	0.000000	0.000000
46.269930	18.122446	15.099010	0.427828	-0.624414	2.782312	0.000000	-0.073929	0.000000	0.004590	-0.000636	0.000000	0.000000
46.818990	17.357449	16.089669	0.956762	-1.190406	2.719680	0.000000	-0.155226	0.000000	0.004201	-0.000778	0.000000	0.000000
47.368050	16.045449	17.744526	1.418088	-1.841195	2.613168	0.000000	-0.233782	0.000000	0.003738	-0.000907	0.000000	0.000000
47.917110	14.279160	20.181450	1.779217	-2.623138	2.464661	0.000000	-0.308205	0.000000	0.003208	-0.001019	0.000000	0.000000
48.363070	12.903564	22.347508	1.315776	-2.213337	2.343002	0.000000	-0.239553	0.000000	0.002771	-0.000942	0.000000	0.000000
48.804030	11.922865	24.081650	0.916265	-1.704203	2.252286	0.000000	-0.174028	0.000000	0.002371	-0.000876	0.000000	0.000000
49.244990	11.274811	25.330713	0.558627	-1.117527	2.189978	0.000000	-0.110475	0.000000	0.001997	-0.000819	0.000000	0.000000
49.685950	10.929781	26.037870	0.226519	-0.480005	2.155371	0.000000	-0.048172	0.000000	0.001647	-0.000772	0.000000	0.000000
50.128160	10.872177	26.170662	-0.069020	0.116202	2.148086	0.000000	0.008389	0.000000	0.001314	-0.000737	0.000000	0.000000
50.425482	10.921389	26.104986	-0.096498	0.104688	2.150799	0.000000	0.008389	0.000000	0.001095	-0.000737	0.000000	0.000000
50.758816	10.995989	26.039498	-0.127303	0.091779	2.153841	0.000000	0.008389	0.000000	0.000849	-0.000737	0.000000	0.000000
51.092149	11.091126	25.982615	-0.158108	0.078870	2.156883	0.000000	0.008389	0.000000	0.000603	-0.000737	0.000000	0.000000
51.426732	11.207046	25.934699	-0.098110	-0.144482	2.159915	0.000000	-0.009134	0.000000	0.000356	-0.000740	0.000000	0.000000
51.724055	11.273351	26.024094	-0.097286	-0.220198	2.157419	0.000000	-0.014418	0.000000	0.000136	-0.000741	0.000000	0.000000
52.165015	11.505934	25.928601	-0.432403	0.435932	2.165042	0.000000	0.047588	0.000000	-0.000190	-0.000741	0.000000	0.000000
52.605975	12.041617	25.261027	-0.787271	1.072224	2.200103	0.000000	0.110143	0.000000	-0.000519	-0.000750	0.000000	0.000000
53.046935	12.904865	24.051755	-1.178100	1.659728	2.263006	0.000000	0.173961	0.000000	-0.000853	-0.000768	0.000000	0.000000
53.487895	14.135109	22.355813	-1.622745	2.171716	2.354469	0.000000	0.239768	0.000000	-0.001198	-0.000795	0.000000	0.000000
53.933855	15.809576	20.225026	-2.145793	2.586206	2.477054	0.000000	0.308711	0.000000	-0.001560	-0.000830	0.000000	0.000000
54.482915	17.964895	17.826925	-1.756926	1.807332	2.626653	0.000000	0.233884	0.000000	-0.002000	-0.000773	0.000000	0.000000
55.031975	19.622116	16.208827	-1.243984	1.157188	2.733930	0.000000	0.154896	0.000000	-0.002405	-0.000701	0.000000	0.000000
55.581035	20.664213	15.255473	-0.643196	0.589465	2.796974	0.000000	0.073150	0.000000	-0.002768	-0.000618	0.000000	0.000000
56.130095	21.017607	14.898950	0.003006	0.063728	2.814663	0.000000	-0.009904	0.000000	-0.003082	-0.000523	0.000000	0.000000
56.428668	21.053693	14.843040	-0.067563	0.083508	2.814116	0.000000	-0.002361	0.000000	-0.003240	-0.000531	0.000000	0.000000
56.762001	21.104037	14.794906	-0.083468	0.060894	2.813506	0.000000	-0.002361	0.000000	-0.003417	-0.000531	0.000000	0.000000
57.095334	21.164984	14.761848	-0.099373	0.038280	2.812896	0.000000	-0.002361	0.000000	-0.003594	-0.000531	0.000000	0.000000
57.429918	21.236822	14.743827	-0.115337	0.015581	2.812284	0.000000	-0.002361	0.000000	-0.003772	-0.000531	0.000000	0.000000
57.727240	21.309635	14.740552	-0.187015	0.035067	2.811740	0.000000	0.005225	0.000000	-0.003929	-0.000541	0.000000	0.000000
58.276300	21.150722	14.984640	0.474457	-0.482272	2.792067	0.000000	-0.077700	0.000000	-0.004191	-0.000410	0.000000	0.000000
58.825360	20.279712	15.812204	1.102413	-1.033956	2.727104	0.000000	-0.159253	0.000000	-0.004378	-0.000271	0.000000	0.000000
59.374420	18.758125	17.282181	1.652508	-1.659276	2.618002	0.000000	-0.237986	0.000000	-0.004488	-0.000127	0.000000	0.000000
59.923480	16.693411	19.499257	2.085899	-2.402767	2.466693	0.000000	-0.312500	0.000000	-0.004518	0.000019	0.000000	0.000000
60.369440	15.076075	21.469572	1.553693	-1.996881	2.342722	0.000000	-0.243861	0.000000	-0.004535	-0.000099	0.000000	0.000000
60.810400	13.911848	23.017980	1.096639	-1.501435	2.249788	0.000000	-0.178382	0.000000	-0.004605	-0.000217	0.000000	0.000000
61.251360	13.127135	24.097571	0.689680	-0.937685	2.185301	0.000000	-0.114933	0.000000	-0.004727	-0.000337	0.000000	0.000000
61.692320	12.686091	24.659231	0.314227	-0.331278	2.148530	0.000000	-0.052789	0.000000	-0.004903	-0.000461	0.000000	0.000000
62.134530	12.568614	24.676828	-0.014670	0.226940	2.139062	0.000000	0.003261	0.000000	-0.005135	-0.000578	0.000000	0.000000
62.431853	12.584372	24.545645	-0.038331	0.214271	2.140203	0.000000	0.003261	0.000000	-0.005307	-0.000578	0.000000	0.000000
62.765186	12.618768	24.407532	-0.064858	0.200068	2.141482	0.000000	0.003261	0.000000	-0.005499	-0.000578	0.000000	0.000000
63.098520	12.670849	24.278888	-0.091385	0.185864	2.142762	0.000000	0.003261	0.000000	-0.005692	-0.000578	0.000000	0.000000
63.433103	12.740910	24.159285	-0.118011	0.171607	2.144047	0.000000	0.003261	0.000000	-0.005885	-0.000578	0.000000	0.000000
63.730426	12.818106	24.061032	-0.108468	0.096412	2.145187	0.000000	-0.002296	0.000000	-0.006057	-0.000562	0.000000	0.000000
64.171386	13.076150	23.711140	-0.479227	0.694116	2.158049	0.000000	0.059452	0.000000	-0.006339	-0.000722	0.000000	0.000000
64.612346	13.669488	22.846135	-0.871869	1.260241	2.198333	0.000000	0.121885	0.000000	-0.006694	-0.000890	0.000000	0.000000
65.053306	14.625210	21.505376	-1.304324	1.769035	2.266498	0.000000	0.185715	0.000000	-0.007126	-0.001068	0.000000	0.000000
65.494266	15.986950	19.749862	-1.796343	2.197351	2.363326	0.000000	0.251671	0.000000	-0.007638	-0.001258	0.000000	0.000000
65.940226	17.840195	17.634608	-2.374916	2.526281	2.491506	0.000000	0.320882	0.000000	-0.008245	-0.001464	0.000000	0.000000
66.489286	20.213243	15.268821	-1.922767	1.808471	2.647906	0.000000	0.245494	0.000000	-0.008973	-0.001185	0.000000	0.000000
67.038346	22.011953	13.616283	-1.334879	1.219447	2.761500	0.000000	0.165733	0.000000	-0.009543	-0.000886	0.000000	0.000000
67.587406	23.109370	12.559299	-0.652760	0.717262	2.830265	0.000000	0.083019	0.000000	-0.009943	-0.000570	0.000000	0.000000
68.136466	23.428048	12.022589	0.075434	0.266154	2.852979	0.000000	-0.001176	0.000000	-0.010166	-0.000244	0.000000	0.000000
68.435038	23.426322	11.851439	-0.003600	0.273139	2.855114	0.000000	0.006896	0.000000	-0.010248	-0.000272	0.000000	0.000000
68.768372	23.433465	11.679421	-0.017829	0.242915	2.857504	0.000000	0.006896	0.000000	-0.010338	-0.000272	0.000000	0.000000
69.101705	23.450094	11.527552	-0.032059	0.212690	2.859893	0.000000	0.006896	0.000000	-0.010429	-0.000272	0.000000	0.000000
69.436288	23.476326	11.395378	-0.046341	0.182353	2.862291	0.000000	0.006896	0.000000	-0.010520	-0.000272	0.000000	0.000000
69.733611	23.507733	11.294921	-0.125755	0.187406	2.864427	0.000000	0.015026	0.000000	-0.010601	-0.000301	0.000000	0.000000
70.282671	23.242146	11.315572	0.606592	-0.225246	2.849475	0.000000	-0.069665	0.000000	-0.010671	0.000044	0.000000	0.000000
