#ParticleID	Turn	x[m]	xp	y[m]	yp	z[m]	dE[GeV]# s	beta_x	beta_y	alpha_x	alpha_y	D_x	D_y	D_px	D_py	orbit_x	orbit_px	orbit_y	orbit_py
0.300000	11.903171	25.166945	-0.018224	-0.023969	2.608041	0.000000	0.000509	0.000000	-0.000400	0.000351	0.000000	0.000000
0.601250	11.921778	25.184994	-0.043541	-0.035946	2.608088	0.000000	0.000509	0.000000	-0.000294	0.000351	0.000000	0.000000
0.898573	11.955098	25.209884	-0.039157	-0.109573	2.608135	0.000000	-0.005899	0.000000	-0.000190	0.000351	0.000000	0.000000
1.339533	12.142847	25.026804	-0.388110	0.523179	2.621622	0.000000	0.067801	0.000000	-0.000036	0.000348	0.000000	0.000000
1.780493	12.644973	24.294090	-0.754797	1.132129	2.667747	0.000000	0.142270	0.000000	0.000118	0.000350	0.000000	0.000000
2.221453	13.484421	23.045077	-1.155972	1.689569	2.747033	0.000000	0.218355	0.000000	0.000273	0.000355	0.000000	0.000000
2.662413	14.699549	21.336592	-1.609963	2.170136	2.860382	0.000000	0.296923	0.000000	0.000431	0.000364	0.000000	0.000000
3.108373	16.366860	19.221326	-2.141856	2.553111	3.010940	0.000000	0.379360	0.000000	0.000596	0.000377	0.000000	0.000000
3.657433	18.504507	16.845391	-1.728159	1.799666	3.193868	0.000000	0.286686	0.000000	0.000797	0.000354	0.000000	0.000000
4.206493	20.117734	15.222008	-1.192383	1.174407	3.324455	0.000000	0.188932	0.000000	0.000984	0.000326	0.000000	0.000000
4.755553	21.092576	14.235551	-0.572372	0.632800	3.400387	0.000000	0.087832	0.000000	0.001154	0.000291	0.000000	0.000000
5.304613	21.360163	13.815758	0.088076	0.136266	3.420319	0.000000	-0.014821	0.000000	0.001303	0.000251	0.000000	0.000000
5.603185	21.344707	13.719741	0.018884	0.149670	3.418457	0.000000	-0.005982	0.000000	0.001379	0.000254	0.000000	0.000000
5.936519	21.337325	13.628241	0.003262	0.124829	3.416378	0.000000	-0.005982	0.000000	0.001464	0.000254	0.000000	0.000000
6.269852	21.340358	13.553301	-0.012361	0.099989	3.414299	0.000000	-0.005982	0.000000	0.001549	0.000254	0.000000	0.000000
6.604435	21.353876	13.494734	-0.028041	0.075056	3.412212	0.000000	-0.005982	0.000000	0.001634	0.000254	0.000000	0.000000
6.901758	21.374696	13.456689	-0.097020	0.087603	3.410358	0.000000	0.002800	0.000000	0.001709	0.000259	0.000000	0.000000
7.450818	21.116731	13.621693	0.564197	-0.389890	3.383673	0.000000	-0.099422	0.000000	0.001836	0.000201	0.000000	0.000000
7.999878	20.150316	14.323139	1.185563	-0.895157	3.301293	0.000000	-0.199877	0.000000	0.001930	0.000140	0.000000	0.000000
8.548938	18.543716	15.610995	1.723184	-1.464188	3.164682	0.000000	-0.296785	0.000000	0.001990	0.000077	0.000000	0.000000
9.097998	16.410425	17.576997	2.139078	-2.137516	2.976265	0.000000	-0.388427	0.000000	0.002014	0.000012	0.000000	0.000000
9.543958	14.745860	19.328711	1.606666	-1.773745	2.821279	0.000000	-0.306938	0.000000	0.002031	0.000065	0.000000	0.000000
9.984918	13.533961	20.702852	1.152036	-1.330553	2.703090	0.000000	-0.229436	0.000000	0.002071	0.000117	0.000000	0.000000
10.425878	12.698389	21.657828	0.750044	-0.826817	2.618446	0.000000	-0.154548	0.000000	0.002135	0.000172	0.000000	0.000000
10.866838	12.200965	22.150187	0.382320	-0.285459	2.566382	0.000000	-0.081423	0.000000	0.002223	0.000228	0.000000	0.000000
11.309048	12.018812	22.156979	0.060778	0.215610	2.546285	0.000000	-0.015333	0.000000	0.002337	0.000281	0.000000	0.000000
11.606371	11.990053	22.032943	0.035948	0.201567	2.541643	0.000000	-0.015333	0.000000	0.002420	0.000281	0.000000	0.000000
12.086371	11.974783	21.850321	-0.004137	0.178896	2.534148	0.000000	-0.015333	0.000000	0.002555	0.000281	0.000000	0.000000
12.566371	11.997995	21.689462	-0.044221	0.156226	2.526654	0.000000	-0.015333	0.000000	0.002690	0.000281	0.000000	0.000000
13.046371	12.059689	21.550368	-0.084306	0.133555	2.519159	0.000000	-0.015333	0.000000	0.002825	0.000281	0.000000	0.000000
13.526371	12.159863	21.433037	-0.124391	0.110884	2.511664	0.000000	-0.015333	0.000000	0.002960	0.000281	0.000000	0.000000
14.007621	12.298931	21.337249	-0.164581	0.088155	2.504150	0.000000	-0.015333	0.000000	0.003095	0.000281	0.000000	0.000000
14.304943	12.404177	21.289010	-0.159913	0.023569	2.499507	0.000000	-0.021277	0.000000	0.003179	0.000273	0.000000	0.000000
14.745903	12.704173	21.035305	-0.522848	0.549562	2.505598	0.000000	0.049534	0.000000	0.003317	0.000357	0.000000	0.000000
15.186863	13.333567	20.326990	-0.909676	1.050549	2.542973	0.000000	0.120905	0.000000	0.003494	0.000445	0.000000	0.000000
15.627823	14.321126	19.196293	-1.338075	1.503733	2.612055	0.000000	0.193649	0.000000	0.003711	0.000538	0.000000	0.000000
16.068783	15.711982	17.694660	-1.827622	1.888492	2.713630	0.000000	0.268592	0.000000	0.003969	0.000637	0.000000	0.000000
16.514743	17.593326	15.868912	-2.405529	2.188137	2.850550	0.000000	0.347065	0.000000	0.004277	0.000744	0.000000	0.000000
17.063803	20.008931	13.830711	-1.967308	1.545703	3.017066	0.000000	0.259843	0.000000	0.004646	0.000599	0.000000	0.000000
17.612863	21.863621	12.433773	-1.390086	1.013378	3.134434	0.000000	0.168021	0.000000	0.004933	0.000444	0.000000	0.000000
18.161923	23.026341	11.578591	-0.714645	0.553242	3.200576	0.000000	0.073226	0.000000	0.005132	0.000281	0.000000	0.000000
18.710983	23.414925	11.204250	0.011292	0.132518	3.214319	0.000000	-0.022864	0.000000	0.005240	0.000113	0.000000	0.000000
19.009556	23.446885	11.116596	-0.059943	0.133136	3.209850	0.000000	-0.014840	0.000000	0.005278	0.000126	0.000000	0.000000
19.342889	23.491603	11.038011	-0.074211	0.102620	3.204861	0.000000	-0.014840	0.000000	0.005320	0.000126	0.000000	0.000000
19.676223	23.545832	10.979770	-0.088478	0.072103	3.199872	0.000000	-0.014840	0.000000	0.005362	0.000126	0.000000	0.000000
20.010806	23.610123	10.941634	-0.219777	0.095683	3.194885	0.000000	0.000990	0.000000	0.005404	0.000153	0.000000	0.000000
20.308129	23.744758	10.892880	-0.292144	0.095430	3.195135	0.000000	0.008951	0.000000	0.005450	0.000167	0.000000	0.000000
20.857189	23.656132	11.008934	0.452644	-0.308030	3.173800	0.000000	-0.086395	0.000000	0.005493	-0.000010	0.000000	0.000000
21.406249	22.762303	11.577448	1.165451	-0.733433	3.100548	0.000000	-0.180208	0.000000	0.005438	-0.000188	0.000000	0.000000
21.955309	21.126431	12.638920	1.795914	-1.211085	2.976677	0.000000	-0.270828	0.000000	0.005287	-0.000361	0.000000	0.000000
22.504369	18.864109	14.268964	2.299486	-1.775011	2.804384	0.000000	-0.356649	0.000000	0.005043	-0.000529	0.000000	0.000000
22.950329	17.082380	15.732910	1.709388	-1.493610	2.662818	0.000000	-0.279430	0.000000	0.004836	-0.000401	0.000000	0.000000
23.391289	15.803175	16.901034	1.202218	-1.145177	2.556059	0.000000	-0.205861	0.000000	0.004686	-0.000278	0.000000	0.000000
23.832249	14.945485	17.737603	0.749987	-0.744633	2.481146	0.000000	-0.134634	0.000000	0.004590	-0.000158	0.000000	0.000000
24.273209	14.470113	18.204552	0.332030	-0.310205	2.437225	0.000000	-0.064939	0.000000	0.004546	-0.000040	0.000000	0.000000
24.715418	14.355434	18.280382	-0.037171	0.095374	2.423795	0.000000	-0.001668	0.000000	0.004555	0.000066	0.000000	0.000000
25.012741	14.383704	18.228548	-0.057911	0.078962	2.423280	0.000000	-0.001668	0.000000	0.004574	0.000066	0.000000	0.000000
25.346075	14.430062	18.182040	-0.081164	0.060562	2.422702	0.000000	-0.001668	0.000000	0.004596	0.000066	0.000000	0.000000
25.679408	14.491922	18.147799	-0.104416	0.042161	2.422124	0.000000	-0.001668	0.000000	0.004618	0.000066	0.000000	0.000000
26.013991	14.569307	18.126134	-0.009559	-0.123356	2.421519	0.000000	-0.021313	0.000000	0.004640	0.000028	0.000000	0.000000
26.311314	14.581050	18.204450	0.004198	-0.182661	2.415173	0.000000	-0.026973	0.000000	0.004649	0.000017	0.000000	0.000000
26.752274	14.757297	18.168226	-0.405345	0.264490	2.418368	0.000000	0.041629	0.000000	0.004683	0.000137	0.000000	0.000000
27.193234	15.301548	17.741445	-0.833411	0.699606	2.451841	0.000000	0.110703	0.000000	0.004770	0.000259	0.000000	0.000000
27.634194	16.238678	16.943527	-1.299564	1.102887	2.515970	0.000000	0.181036	0.000000	0.004912	0.000384	0.000000	0.000000
28.075154	17.611518	15.810777	-1.825107	1.455981	2.611486	0.000000	0.253426	0.000000	0.005109	0.000513	0.000000	0.000000
28.521114	19.506744	14.377629	-2.439097	1.743829	2.741085	0.000000	0.329160	0.000000	0.005368	0.000649	0.000000	0.000000
29.070174	21.916150	12.781182	-1.922481	1.180706	2.898830	0.000000	0.245625	0.000000	0.005676	0.000470	0.000000	0.000000
29.619234	23.679751	11.753613	-1.270027	0.701694	3.009540	0.000000	0.157740	0.000000	0.005883	0.000283	0.000000	0.000000
30.168294	24.672922	11.221724	-0.527836	0.272669	3.071253	0.000000	0.067062	0.000000	0.005986	0.000091	0.000000	0.000000
30.717354	24.825478	11.147628	0.251650	-0.136931	3.082875	0.000000	-0.024805	0.000000	0.005983	-0.000103	0.000000	0.000000
31.015927	24.715661	11.220982	0.177628	-0.136375	3.077776	0.000000	-0.017161	0.000000	0.005956	-0.000088	0.000000	0.000000
31.349260	24.601880	11.321985	0.163716	-0.166633	3.072085	0.000000	-0.017161	0.000000	0.005927	-0.000088	0.000000	0.000000
31.682593	24.497373	11.443160	0.149804	-0.196892	3.066394	0.000000	-0.017161	0.000000	0.005898	-0.000088	0.000000	0.000000
32.017177	24.401802	11.585076	0.135839	-0.227264	3.060682	0.000000	-0.017161	0.000000	0.005868	-0.000088	0.000000	0.000000
32.314499	24.324739	11.728230	0.063033	-0.225146	3.055607	0.000000	-0.009574	0.000000	0.005842	-0.000073	0.000000	0.000000
32.863559	23.838991	12.214465	0.816232	-0.665584	3.025497	0.000000	-0.100257	0.000000	0.005750	-0.000261	0.000000	0.000000
33.412619	22.552939	13.207436	1.511755	-1.153438	2.946104	0.000000	-0.189166	0.000000	0.005556	-0.000444	0.000000	0.000000
33.961679	20.557467	14.777876	2.100461	-1.723459	2.818835	0.000000	-0.274726	0.000000	0.005264	-0.000619	0.000000	0.000000
34.510739	17.993582	17.037651	2.540754	-2.416254	2.645944	0.000000	-0.355423	0.000000	0.004878	-0.000784	0.000000	0.000000
34.956699	16.001021	19.059078	1.942645	-2.097293	2.504120	0.000000	-0.282320	0.000000	0.004556	-0.000661	0.000000	0.000000
35.397659	14.515551	20.732838	1.438378	-1.683740	2.395294	0.000000	-0.212870	0.000000	0.004290	-0.000547	0.000000	0.000000
35.838619	13.444306	22.006540	0.999844	-1.193570	2.316486	0.000000	-0.145840	0.000000	0.004072	-0.000440	0.000000	0.000000
36.279579	12.738326	22.822229	0.607001	-0.649089	2.266800	0.000000	-0.080466	0.000000	0.003901	-0.000337	0.000000	0.000000
36.721789	12.364673	23.143107	0.271020	-0.129757	2.245646	0.000000	-0.021314	0.000000	0.003774	-0.000247	0.000000	0.000000
37.019112	12.211187	23.224151	0.245207	-0.142820	2.239382	0.000000	-0.021314	0.000000	0.003701	-0.000247	0.000000	0.000000
37.352445	12.057361	23.324246	0.216269	-0.157466	2.232360	0.000000	-0.021314	0.000000	0.003619	-0.000247	0.000000	0.000000
37.685779	11.922828	23.434105	0.187330	-0.172111	2.225338	0.000000	-0.021314	0.000000	0.003536	-0.000247	0.000000	0.000000
38.020362	11.807192	23.554194	0.158283	-0.186812	2.218289	0.000000	-0.021314	0.000000	0.003454	-0.000247	0.000000	0.000000
38.317684	11.720740	23.669173	0.160287	-0.256133	2.212026	0.000000	-0.026563	0.000000	0.003380	-0.000255	0.000000	0.000000
38.758644	11.729241	23.632820	-0.179708	0.338256	2.214368	0.000000	0.036787	0.000000	0.003287	-0.000169	0.000000	0.000000
39.199604	12.040089	23.077050	-0.527912	0.917253	2.244677	0.000000	0.100559	0.000000	0.003231	-0.000085	0.000000	0.000000
39.640564	12.667488	22.027153	-0.900238	1.454512	2.303298	0.000000	0.165476	0.000000	0.003212	-0.000002	0.000000	0.000000
40.081524	13.640107	20.530903	-1.313699	1.925585	2.390899	0.000000	0.232279	0.000000	0.003229	0.000081	0.000000	0.000000
40.527484	15.019923	18.633733	-1.791060	2.310412	2.509957	0.000000	0.302143	0.000000	0.003284	0.000165	0.000000	0.000000
41.076544	16.782307	16.501469	-1.399555	1.595808	2.655194	0.000000	0.226307	0.000000	0.003345	0.000058	0.000000	0.000000
41.625604	18.057550	15.087306	-0.909176	0.994881	2.757683	0.000000	0.146458	0.000000	0.003347	-0.000050	0.000000	0.000000
42.174664	18.755558	14.290506	-0.354570	0.464824	2.815605	0.000000	0.064009	0.000000	0.003290	-0.000158	0.000000	0.000000
42.723724	18.827019	14.054310	0.225082	-0.032122	2.827933	0.000000	-0.019577	0.000000	0.003174	-0.000263	0.000000	0.000000
43.022297	18.726077	14.058467	0.160853	-0.017577	2.824310	0.000000	-0.012387	0.000000	0.003098	-0.000255	0.000000	0.000000
43.502297	18.584280	14.091734	0.134557	-0.051730	2.818486	0.000000	-0.012387	0.000000	0.002976	-0.000255	0.000000	0.000000
43.982297	18.467727	14.157789	0.108261	-0.085884	2.812663	0.000000	-0.012387	0.000000	0.002854	-0.000255	0.000000	0.000000
44.462297	18.376418	14.256631	0.081965	-0.120038	2.806839	0.000000	-0.012387	0.000000	0.002732	-0.000255	0.000000	0.000000
44.942297	18.310354	14.388261	0.055670	-0.154191	2.801016	0.000000	-0.012387	0.000000	0.002610	-0.000255	0.000000	0.000000
45.423547	18.269686	14.552969	-0.061213	-0.116330	2.795195	0.000000	0.001462	0.000000	0.002487	-0.000242	0.000000	0.000000
45.720870	18.310946	14.628298	-0.124417	-0.099643	2.795702	0.000000	0.008618	0.000000	0.002415	-0.000236	0.000000	0.000000
46.269930	18.139124	15.020457	0.435350	-0.618786	2.777916	0.000000	-0.073833	0.000000	0.002265	-0.000312	0.000000	0.000000
46.818990	17.365902	16.003428	0.964358	-1.182005	2.715189	0.000000	-0.154980	0.000000	0.002074	-0.000382	0.000000	0.000000
47.368050	16.045912	17.647224	1.425235	-1.829419	2.608630	0.000000	-0.233384	0.000000	0.001846	-0.000446	0.000000	0.000000
47.917110	14.272411	20.068927	1.785426	-2.607143	2.460127	0.000000	-0.307656	0.000000	0.001586	-0.000501	0.000000	0.000000
48.363070	12.891590	22.221719	1.321587	-2.199805	2.338473	0.000000	-0.239127	0.000000	0.001371	-0.000463	0.000000	0.000000
48.804030	11.905946	23.945189	0.921917	-1.693699	2.247724	0.000000	-0.173721	0.000000	0.001175	-0.000430	0.000000	0.000000
49.244990	11.252959	25.186485	0.564372	-1.110531	2.185341	0.000000	-0.110288	0.000000	0.000991	-0.000402	0.000000	0.000000
49.685950	10.902789	25.889133	0.232616	-0.476834	2.150617	0.000000	-0.048108	0.000000	0.000819	-0.000379	0.000000	0.000000
50.128160	10.839588	26.020877	-0.062209	0.115227	2.143169	0.000000	0.008306	0.000000	0.000656	-0.000361	0.000000	0.000000
50.425482	10.884768	25.955800	-0.089745	0.103649	2.145746	0.000000	0.008306	0.000000	0.000549	-0.000361	0.000000	0.000000
50.758816	10.954888	25.891028	-0.120615	0.090668	2.148635	0.000000	0.008306	0.000000	0.000428	-0.000361	0.000000	0.000000
51.092149	11.045588	25.834909	-0.151486	0.077688	2.151524	0.000000	0.008306	0.000000	0.000308	-0.000361	0.000000	0.000000
51.426732	11.157099	25.787805	-0.091958	-0.144544	2.154402	0.000000	-0.009172	0.000000	0.000187	-0.000363	0.000000	0.000000
51.724055	11.219772	25.877257	-0.091339	-0.219860	2.151783	0.000000	-0.014445	0.000000	0.000079	-0.000363	0.000000	0.000000
52.165015	11.446577	25.783181	-0.425074	0.432391	2.159200	0.000000	0.047413	0.000000	-0.000081	-0.000363	0.000000	0.000000
52.605975	11.975124	25.120385	-0.778227	1.064967	2.193988	0.000000	0.109814	0.000000	-0.000242	-0.000367	0.000000	0.000000
53.046935	12.829558	23.919029	-1.166931	1.649087	2.256545	0.000000	0.173470	0.000000	-0.000405	-0.000376	0.000000	0.000000
53.487895	14.048910	22.233778	-1.608946	2.158175	2.347586	0.000000	0.239106	0.000000	-0.000574	-0.000388	0.000000	0.000000
53.933855	15.709750	20.116124	-2.128727	2.570392	2.469656	0.000000	0.307867	0.000000	-0.000750	-0.000405	0.000000	0.000000
54.482915	17.847726	17.733024	-1.742342	1.795607	2.618644	0.000000	0.233287	0.000000	-0.000966	-0.000378	0.000000	0.000000
55.031975	19.490907	16.125923	-1.232898	1.148718	2.725467	0.000000	0.154562	0.000000	-0.001164	-0.000343	0.000000	0.000000
55.581035	20.523244	15.180348	-0.636380	0.583649	2.788226	0.000000	0.073091	0.000000	-0.001341	-0.000302	0.000000	0.000000
56.130095	20.871830	14.828945	0.005081	0.060151	2.805807	0.000000	-0.009682	0.000000	-0.001495	-0.000257	0.000000	0.000000
56.428668	20.906048	14.775640	-0.064475	0.079100	2.805210	0.000000	-0.002259	0.000000	-0.001573	-0.000260	0.000000	0.000000
56.762001	20.954368	14.730474	-0.080486	0.056399	2.804544	0.000000	-0.002259	0.000000	-0.001660	-0.000260	0.000000	0.000000
57.095334	21.013362	14.700441	-0.096496	0.033699	2.803878	0.000000	-0.002259	0.000000	-0.001746	-0.000260	0.000000	0.000000
57.429918	21.083312	14.685515	-0.112567	0.010913	2.803209	0.000000	-0.002259	0.000000	-0.001834	-0.000260	0.000000	0.000000
57.727240	21.154497	14.685045	-0.183001	0.029589	2.802615	0.000000	0.005180	0.000000	-0.001911	-0.000265	0.000000	0.000000
58.276300	20.994109	14.934316	0.473255	-0.486279	2.782869	0.000000	-0.077452	0.000000	-0.002039	-0.000202	0.000000	0.000000
58.825360	20.127289	15.765635	1.096081	-1.036780	2.718029	0.000000	-0.158715	0.000000	-0.002132	-0.000134	0.000000	0.000000
59.374420	18.615264	17.238209	1.641490	-1.661125	2.609244	0.000000	-0.237164	0.000000	-0.002186	-0.000064	0.000000	0.000000
59.923480	16.564824	19.456920	2.070962	-2.403779	2.458442	0.000000	-0.311408	0.000000	-0.002202	0.000007	0.000000	0.000000
60.369440	14.959184	21.428816	1.542265	-1.999332	2.334904	0.000000	-0.242966	0.000000	-0.002211	-0.000050	0.000000	0.000000
60.810400	13.803648	22.980051	1.088228	-1.505254	2.242285	0.000000	-0.177681	0.000000	-0.002246	-0.000108	0.000000	0.000000
61.251360	13.025164	24.063586	0.683904	-0.942692	2.178005	0.000000	-0.114418	0.000000	-0.002306	-0.000166	0.000000	0.000000
61.692320	12.588168	24.630123	0.310825	-0.337242	2.141332	0.000000	-0.052457	0.000000	-0.002393	-0.000227	0.000000	0.000000
62.134530	12.472742	24.653329	-0.016846	0.221717	2.131855	0.000000	0.003558	0.000000	-0.002507	-0.000284	0.000000	0.000000
62.431853	12.489849	24.525248	-0.040691	0.209064	2.132998	0.000000	0.003558	0.000000	-0.002591	-0.000284	0.000000	0.000000
62.765186	12.525887	24.390601	-0.067423	0.194879	2.134278	0.000000	0.003558	0.000000	-0.002686	-0.000284	0.000000	0.000000
63.098520	12.579747	24.265410	-0.094156	0.180693	2.135559	0.000000	0.003558	0.000000	-0.002781	-0.000284	0.000000	0.000000
63.433103	12.651731	24.149260	-0.120989	0.166455	2.136844	0.000000	0.003558	0.000000	-0.002876	-0.000284	0.000000	0.000000
63.730426	12.730762	24.054047	-0.112747	0.093080	2.137986	0.000000	-0.001830	0.000000	-0.002960	-0.000276	0.000000	0.000000
64.171386	12.991810	23.707120	-0.481640	0.690713	2.150875	0.000000	0.059737	0.000000	-0.003099	-0.000354	0.000000	0.000000
64.612346	13.586596	22.845050	-0.872531	1.256921	2.191071	0.000000	0.121989	0.000000	-0.003273	-0.000437	0.000000	0.000000
65.053306	14.542285	21.507061	-1.303277	1.765943	2.259033	0.000000	0.185634	0.000000	-0.003485	-0.000524	0.000000	0.000000
65.494266	15.902524	19.754029	-1.793552	2.194623	2.355536	0.000000	0.251399	0.000000	-0.003736	-0.000617	0.000000	0.000000
65.940226	17.752671	17.640920	-2.370366	2.524118	2.483255	0.000000	0.320423	0.000000	-0.004033	-0.000718	0.000000	0.000000
66.489286	20.122820	15.277292	-1.921433	1.806412	2.639127	0.000000	0.245299	0.000000	-0.004390	-0.000581	0.000000	0.000000
67.038346	21.922162	13.626908	-1.336817	1.217359	2.752419	0.000000	0.165815	0.000000	-0.004669	-0.000434	0.000000	0.000000
67.587406	23.023647	12.572221	-0.657803	0.715006	2.821116	0.000000	0.083384	0.000000	-0.004866	-0.000280	0.000000	0.000000
68.136466	23.349505	12.038112	0.067658	0.263575	2.843999	0.000000	-0.000531	0.000000	-0.004976	-0.000120	0.000000	0.000000
68.435038	23.350834	11.869216	-0.008648	0.269363	2.846190	0.000000	0.007205	0.000000	-0.005016	-0.000134	0.000000	0.000000
68.768372	23.361357	11.699681	-0.022924	0.239241	2.848636	0.000000	0.007205	0.000000	-0.005060	-0.000134	0.000000	0.000000
69.101705	23.381399	11.550228	-0.037200	0.209120	2.851082	0.000000	0.007205	0.000000	-0.005105	-0.000134	0.000000	0.000000
69.436288	23.411086	11.420408	-0.051529	0.178885	2.853538	0.000000	0.007205	0.000000	-0.005149	-0.000134	0.000000	0.000000
69.733611	23.445532	11.322014	-0.128148	0.182845	2.855721	0.000000	0.014987	0.000000	-0.005189	-0.000148	0.000000	0.000000
70.282671	23.183622	11.348122	0.602333	-0.230681	2.840785	0.000000	-0.069436	0.000000	-0.005224	0.000021	0.000000	0.000000
