#ParticleID	Turn	x[m]	xp	y[m]	yp	z[m]	dE[GeV]# s	beta_x	beta_y	alpha_x	alpha_y	D_x	D_y	D_px	D_py	orbit_x	orbit_px	orbit_y	orbit_py
0.300000	11.963186	25.326385	-0.019726	-0.021724	2.598844	0.000000	0.000343	0.000000	-0.000910	0.000789	0.000000	0.000000
0.601250	11.982659	25.343058	-0.044917	-0.033624	2.598710	0.000000	0.000343	0.000000	-0.000672	0.000789	0.000000	0.000000
0.898573	12.016761	25.366545	-0.040189	-0.107546	2.598577	0.000000	-0.006056	0.000000	-0.000437	0.000790	0.000000	0.000000
1.339533	12.206114	25.179858	-0.390580	0.529301	2.611755	0.000000	0.067394	0.000000	-0.000091	0.000783	0.000000	0.000000
1.780493	12.711162	24.440034	-0.758822	1.142068	2.657459	0.000000	0.141602	0.000000	0.000254	0.000785	0.000000	0.000000
2.221453	13.554987	23.180728	-1.161738	1.702875	2.736206	0.000000	0.217415	0.000000	0.000603	0.000796	0.000000	0.000000
2.662413	14.776152	21.459229	-1.617740	2.186204	2.848889	0.000000	0.295696	0.000000	0.000958	0.000816	0.000000	0.000000
3.108373	16.451547	19.328638	-2.152035	2.571232	2.998637	0.000000	0.377827	0.000000	0.001328	0.000846	0.000000	0.000000
3.657433	18.599161	16.935253	-1.735744	1.813460	3.180598	0.000000	0.285563	0.000000	0.001779	0.000795	0.000000	0.000000
4.206493	20.219186	15.298610	-1.196823	1.184859	3.310468	0.000000	0.188247	0.000000	0.002199	0.000731	0.000000	0.000000
4.755553	21.197162	14.302141	-0.573342	0.640655	3.385949	0.000000	0.087604	0.000000	0.002579	0.000654	0.000000	0.000000
5.304613	21.463980	13.874876	0.090656	0.142084	3.405706	0.000000	-0.014583	0.000000	0.002914	0.000565	0.000000	0.000000
5.603185	21.446663	13.775613	0.022025	0.155136	3.403773	0.000000	-0.005904	0.000000	0.003085	0.000572	0.000000	0.000000
5.936519	21.437163	13.680449	0.006475	0.130356	3.401614	0.000000	-0.005904	0.000000	0.003276	0.000572	0.000000	0.000000
6.269852	21.438030	13.601805	-0.009075	0.105576	3.399455	0.000000	-0.005904	0.000000	0.003466	0.000572	0.000000	0.000000
6.604435	21.449324	13.539479	-0.024683	0.080704	3.397289	0.000000	-0.005904	0.000000	0.003658	0.000572	0.000000	0.000000
6.901758	21.468135	13.498054	-0.092826	0.092839	3.395364	0.000000	0.002680	0.000000	0.003828	0.000582	0.000000	0.000000
7.450818	21.203961	13.657942	0.571405	-0.385744	3.368592	0.000000	-0.099062	0.000000	0.004113	0.000453	0.000000	0.000000
7.999878	20.228235	14.355320	1.195279	-0.891808	3.286427	0.000000	-0.199039	0.000000	0.004324	0.000317	0.000000	0.000000
8.548938	18.609886	15.639871	1.734714	-1.461402	3.150329	0.000000	-0.295480	0.000000	0.004459	0.000174	0.000000	0.000000
9.097998	16.463249	17.603105	2.151599	-2.135103	2.962715	0.000000	-0.386677	0.000000	0.004515	0.000029	0.000000	0.000000
9.543958	14.788461	19.352202	1.617039	-1.770168	2.808410	0.000000	-0.305516	0.000000	0.004554	0.000147	0.000000	0.000000
9.984918	13.568124	20.722810	1.160816	-1.326036	2.690724	0.000000	-0.228334	0.000000	0.004645	0.000265	0.000000	0.000000
10.425878	12.725358	21.673496	0.757636	-0.821561	2.606417	0.000000	-0.153755	0.000000	0.004788	0.000387	0.000000	0.000000
10.866838	12.221651	22.160996	0.389074	-0.279699	2.554528	0.000000	-0.080932	0.000000	0.004986	0.000513	0.000000	0.000000
11.309048	12.033831	22.162548	0.066213	0.223011	2.534446	0.000000	-0.014939	0.000000	0.005242	0.000632	0.000000	0.000000
11.606371	12.001836	22.034123	0.041398	0.208929	2.529816	0.000000	-0.014939	0.000000	0.005430	0.000632	0.000000	0.000000
12.086371	11.981324	21.844464	0.001335	0.186193	2.522342	0.000000	-0.014939	0.000000	0.005733	0.000632	0.000000	0.000000
12.566371	11.999272	21.676632	-0.038727	0.163458	2.514867	0.000000	-0.014939	0.000000	0.006037	0.000632	0.000000	0.000000
13.046371	12.055680	21.530625	-0.078790	0.140723	2.507393	0.000000	-0.014939	0.000000	0.006340	0.000632	0.000000	0.000000
13.526371	12.150548	21.406444	-0.118852	0.117987	2.499919	0.000000	-0.014939	0.000000	0.006643	0.000632	0.000000	0.000000
14.007621	12.284274	21.303851	-0.159019	0.095193	2.492425	0.000000	-0.014939	0.000000	0.006948	0.000632	0.000000	0.000000
14.304943	12.386193	21.251464	-0.155549	0.032761	2.487793	0.000000	-0.020621	0.000000	0.007136	0.000615	0.000000	0.000000
14.745903	12.682204	20.990134	-0.517961	0.557562	2.493942	0.000000	0.049896	0.000000	0.007448	0.000803	0.000000	0.000000
15.186863	13.307100	20.275382	-0.904052	1.056992	2.531200	0.000000	0.120973	0.000000	0.007845	0.001000	0.000000	0.000000
15.627823	14.289454	19.139727	-1.331469	1.508322	2.599991	0.000000	0.193417	0.000000	0.008332	0.001209	0.000000	0.000000
16.068783	15.674183	17.634844	-1.819749	1.891011	2.701092	0.000000	0.268052	0.000000	0.008913	0.001431	0.000000	0.000000
16.514743	17.548230	15.807612	-2.396150	2.188564	2.837349	0.000000	0.346216	0.000000	0.009605	0.001671	0.000000	0.000000
17.063803	19.954377	13.768173	-1.958752	1.547247	3.003087	0.000000	0.259418	0.000000	0.010435	0.001347	0.000000	0.000000
17.612863	21.800753	12.368751	-1.382907	1.016165	3.120010	0.000000	0.168038	0.000000	0.011079	0.000998	0.000000	0.000000
18.161923	22.956826	11.509658	-0.709312	0.557481	3.186053	0.000000	0.073694	0.000000	0.011527	0.000632	0.000000	0.000000
18.710983	23.340860	11.129695	0.014424	0.138515	3.200049	0.000000	-0.021949	0.000000	0.011771	0.000254	0.000000	0.000000
19.009556	23.368692	11.039679	-0.053173	0.137043	3.195647	0.000000	-0.014438	0.000000	0.011856	0.000283	0.000000	0.000000
19.342889	23.408908	10.958571	-0.067477	0.106282	3.190740	0.000000	-0.014438	0.000000	0.011950	0.000283	0.000000	0.000000
19.676223	23.458661	10.897970	-0.081782	0.075520	3.185833	0.000000	-0.014438	0.000000	0.012045	0.000283	0.000000	0.000000
20.010806	23.518482	10.857630	-0.212663	0.098439	3.180927	0.000000	0.001322	0.000000	0.012140	0.000344	0.000000	0.000000
20.308129	23.648974	10.807267	-0.281120	0.096096	3.181225	0.000000	0.008754	0.000000	0.012242	0.000374	0.000000	0.000000
20.857189	23.549997	10.921315	0.460406	-0.305000	3.159847	0.000000	-0.086161	0.000000	0.012338	-0.000024	0.000000	0.000000
21.406249	22.649569	11.485170	1.169393	-0.727829	3.086900	0.000000	-0.179546	0.000000	0.012215	-0.000422	0.000000	0.000000
21.955309	21.011344	12.539006	1.795728	-1.202516	2.963676	0.000000	-0.269753	0.000000	0.011875	-0.000813	0.000000	0.000000
22.504369	18.751139	14.157899	2.295139	-1.762882	2.792358	0.000000	-0.355187	0.000000	0.011325	-0.001189	0.000000	0.000000
22.950329	16.971928	15.612344	1.707260	-1.484133	2.651613	0.000000	-0.278238	0.000000	0.010859	-0.000901	0.000000	0.000000
23.391289	15.693398	16.773588	1.202366	-1.138886	2.545490	0.000000	-0.204939	0.000000	0.010523	-0.000625	0.000000	0.000000
23.832249	14.834446	17.606191	0.752436	-0.741806	2.471036	0.000000	-0.133968	0.000000	0.010307	-0.000356	0.000000	0.000000
24.273209	14.355797	18.072263	0.336902	-0.310965	2.427404	0.000000	-0.064520	0.000000	0.010208	-0.000092	0.000000	0.000000
24.715418	14.235689	18.150304	-0.031876	0.093823	2.414100	0.000000	-0.001138	0.000000	0.010226	0.000148	0.000000	0.000000
25.012741	14.260860	18.099426	-0.052783	0.077298	2.413718	0.000000	-0.001138	0.000000	0.010270	0.000148	0.000000	0.000000
25.346075	14.303862	18.054070	-0.076222	0.058771	2.413289	0.000000	-0.001138	0.000000	0.010319	0.000148	0.000000	0.000000
25.679408	14.362489	18.021065	-0.099661	0.040244	2.412861	0.000000	-0.001138	0.000000	0.010368	0.000148	0.000000	0.000000
26.013991	14.436758	18.000722	-0.006068	-0.124383	2.412406	0.000000	-0.020709	0.000000	0.010418	0.000063	0.000000	0.000000
26.311314	14.446444	18.079731	0.005172	-0.180988	2.406226	0.000000	-0.026012	0.000000	0.010436	0.000039	0.000000	0.000000
26.752274	14.620473	18.043512	-0.401198	0.262799	2.409757	0.000000	0.042374	0.000000	0.010513	0.000309	0.000000	0.000000
27.193234	15.159696	17.619648	-0.825908	0.694627	2.443409	0.000000	0.111239	0.000000	0.010709	0.000582	0.000000	0.000000
27.634194	16.088772	16.827426	-1.288376	1.094842	2.507564	0.000000	0.181365	0.000000	0.011028	0.000863	0.000000	0.000000
28.075154	17.450185	15.702895	-1.809742	1.445229	2.602951	0.000000	0.253549	0.000000	0.011472	0.001153	0.000000	0.000000
28.521114	19.330086	14.280129	-2.419000	1.730976	2.732271	0.000000	0.329089	0.000000	0.012053	0.001458	0.000000	0.000000
29.070174	21.720660	12.695734	-1.907638	1.171197	2.889699	0.000000	0.245826	0.000000	0.012745	0.001056	0.000000	0.000000
29.619234	23.471666	11.676978	-1.261434	0.694867	3.000359	0.000000	0.158218	0.000000	0.013210	0.000636	0.000000	0.000000
30.168294	24.459304	11.151284	-0.526064	0.268046	3.062293	0.000000	0.067813	0.000000	0.013441	0.000204	0.000000	0.000000
30.717354	24.613745	11.081202	0.246492	-0.139676	3.074406	0.000000	-0.023793	0.000000	0.013433	-0.000232	0.000000	0.000000
31.015927	24.504100	11.157520	0.177113	-0.141354	3.069472	0.000000	-0.016697	0.000000	0.013374	-0.000199	0.000000	0.000000
31.349260	24.390701	11.261913	0.163083	-0.171826	3.063972	0.000000	-0.016697	0.000000	0.013307	-0.000199	0.000000	0.000000
31.682593	24.286656	11.386621	0.149053	-0.202298	3.058473	0.000000	-0.016697	0.000000	0.013241	-0.000199	0.000000	0.000000
32.017177	24.191626	11.532227	0.134971	-0.232885	3.052953	0.000000	-0.016697	0.000000	0.013175	-0.000199	0.000000	0.000000
32.314499	24.115209	11.678733	0.066612	-0.233049	3.048055	0.000000	-0.009638	0.000000	0.013116	-0.000166	0.000000	0.000000
32.863559	23.629176	12.173153	0.812931	-0.672585	3.018078	0.000000	-0.100099	0.000000	0.012908	-0.000588	0.000000	0.000000
33.412619	22.350166	13.173650	1.501783	-1.160042	2.939056	0.000000	-0.188793	0.000000	0.012472	-0.000999	0.000000	0.000000
33.961679	20.368612	14.751501	2.084477	-1.730153	2.812385	0.000000	-0.274153	0.000000	0.011814	-0.001393	0.000000	0.000000
34.510739	17.824611	17.019108	2.519830	-2.423533	2.640305	0.000000	-0.354672	0.000000	0.010947	-0.001762	0.000000	0.000000
34.956699	15.848153	19.047819	1.926372	-2.105791	2.499161	0.000000	-0.281680	0.000000	0.010223	-0.001487	0.000000	0.000000
35.397659	14.374953	20.729659	1.426131	-1.693192	2.390904	0.000000	-0.212342	0.000000	0.009624	-0.001231	0.000000	0.000000
35.838619	13.312752	22.012053	0.991083	-1.203536	2.312564	0.000000	-0.145410	0.000000	0.009135	-0.000989	0.000000	0.000000
36.279579	12.612979	22.836649	0.601342	-0.659109	2.263251	0.000000	-0.080125	0.000000	0.008750	-0.000759	0.000000	0.000000
36.721789	12.242996	23.166221	0.266548	-0.136732	2.242384	0.000000	-0.020792	0.000000	0.008464	-0.000557	0.000000	0.000000
37.019112	12.092228	23.251416	0.240538	-0.149806	2.236368	0.000000	-0.020792	0.000000	0.008298	-0.000557	0.000000	0.000000
37.352445	11.941590	23.356172	0.211377	-0.164464	2.229623	0.000000	-0.020792	0.000000	0.008113	-0.000557	0.000000	0.000000
37.685779	11.810392	23.470701	0.182216	-0.179122	2.222877	0.000000	-0.020792	0.000000	0.007927	-0.000557	0.000000	0.000000
38.020362	11.698253	23.595486	0.152946	-0.193834	2.216107	0.000000	-0.020792	0.000000	0.007741	-0.000557	0.000000	0.000000
38.317684	11.615018	23.714676	0.153340	-0.261008	2.210088	0.000000	-0.025817	0.000000	0.007575	-0.000575	0.000000	0.000000
38.758644	11.628582	23.682058	-0.184372	0.334688	2.212865	0.000000	0.037496	0.000000	0.007364	-0.000382	0.000000	0.000000
39.199604	11.942614	23.128765	-0.530508	0.915151	2.243551	0.000000	0.101241	0.000000	0.007238	-0.000194	0.000000	0.000000
39.640564	12.571465	22.079980	-0.900886	1.453967	2.302496	0.000000	0.166140	0.000000	0.007193	-0.000008	0.000000	0.000000
40.081524	13.543877	20.583430	-1.312437	1.926614	2.390373	0.000000	0.232933	0.000000	0.007231	0.000178	0.000000	0.000000
40.527484	14.921850	18.684478	-1.787908	2.313071	2.509668	0.000000	0.302806	0.000000	0.007352	0.000367	0.000000	0.000000
41.076544	16.682977	16.549980	-1.400180	1.597016	2.655205	0.000000	0.226965	0.000000	0.007488	0.000127	0.000000	0.000000
41.625604	17.961041	15.135153	-0.913517	0.994736	2.758056	0.000000	0.147099	0.000000	0.007491	-0.000116	0.000000	0.000000
42.174664	18.665726	14.339205	-0.362309	0.463325	2.816396	0.000000	0.064621	0.000000	0.007361	-0.000356	0.000000	0.000000
42.723724	18.747238	14.105426	0.214491	-0.035076	2.829188	0.000000	-0.019009	0.000000	0.007101	-0.000591	0.000000	0.000000
43.022297	18.651494	14.111967	0.152102	-0.021502	2.825754	0.000000	-0.012065	0.000000	0.006930	-0.000573	0.000000	0.000000
43.502297	18.518115	14.148943	0.125771	-0.055531	2.820238	0.000000	-0.012065	0.000000	0.006655	-0.000573	0.000000	0.000000
43.982297	18.410013	14.218587	0.099440	-0.089561	2.814722	0.000000	-0.012065	0.000000	0.006380	-0.000573	0.000000	0.000000
44.462297	18.327189	14.320899	0.073110	-0.123590	2.809205	0.000000	-0.012065	0.000000	0.006105	-0.000573	0.000000	0.000000
44.942297	18.269642	14.455880	0.046779	-0.157620	2.803689	0.000000	-0.012065	0.000000	0.005830	-0.000573	0.000000	0.000000
45.423547	18.237548	14.623827	-0.069979	-0.119282	2.798175	0.000000	0.001798	0.000000	0.005555	-0.000545	0.000000	0.000000
45.720870	18.284047	14.700876	-0.131946	-0.103365	2.798873	0.000000	0.008776	0.000000	0.005393	-0.000531	0.000000	0.000000
46.269930	18.120796	15.098404	0.427170	-0.624870	2.781324	0.000000	-0.073789	0.000000	0.005054	-0.000701	0.000000	0.000000
46.818990	17.356505	16.089581	0.956094	-1.190886	2.718814	0.000000	-0.155057	0.000000	0.004625	-0.000858	0.000000	0.000000
47.368050	16.045193	17.745003	1.417456	-1.841733	2.612447	0.000000	-0.233588	0.000000	0.004115	-0.000999	0.000000	0.000000
47.917110	14.279527	20.182579	1.778661	-2.623773	2.464102	0.000000	-0.307992	0.000000	0.003531	-0.001123	0.000000	0.000000
48.363070	12.904386	22.349219	1.315255	-2.213979	2.342578	0.000000	-0.239351	0.000000	0.003050	-0.001038	0.000000	0.000000
48.804030	11.924118	24.083930	0.915762	-1.704832	2.251988	0.000000	-0.173835	0.000000	0.002609	-0.000965	0.000000	0.000000
49.244990	11.276493	25.333535	0.558120	-1.118113	2.189800	0.000000	-0.110288	0.000000	0.002197	-0.000903	0.000000	0.000000
49.685950	10.931909	26.041182	0.225985	-0.480522	2.155309	0.000000	-0.047988	0.000000	0.001811	-0.000851	0.000000	0.000000
50.128160	10.874788	26.174392	-0.069632	0.115876	2.148139	0.000000	0.008579	0.000000	0.001444	-0.000813	0.000000	0.000000
50.425482	10.924362	26.108909	-0.097105	0.104364	2.150932	0.000000	0.008579	0.000000	0.001203	-0.000813	0.000000	0.000000
50.758816	10.999366	26.043635	-0.127906	0.091458	2.154062	0.000000	0.008579	0.000000	0.000932	-0.000813	0.000000	0.000000
51.092149	11.094904	25.986965	-0.158706	0.078552	2.157193	0.000000	0.008579	0.000000	0.000661	-0.000813	0.000000	0.000000
51.426732	11.211221	25.939261	-0.098670	-0.144834	2.160313	0.000000	-0.008946	0.000000	0.000389	-0.000816	0.000000	0.000000
51.724055	11.277857	26.028866	-0.097830	-0.220582	2.157896	0.000000	-0.014231	0.000000	0.000146	-0.000816	0.000000	0.000000
52.165015	11.510959	25.933654	-0.433065	0.435679	2.165636	0.000000	0.047788	0.000000	-0.000213	-0.000817	0.000000	0.000000
52.605975	12.047276	25.266242	-0.788080	1.072114	2.200822	0.000000	0.110360	0.000000	-0.000575	-0.000827	0.000000	0.000000
53.046935	12.911303	24.057003	-1.179093	1.659766	2.263858	0.000000	0.174199	0.000000	-0.000944	-0.000847	0.000000	0.000000
53.487895	14.142504	22.360965	-1.623966	2.171899	2.355465	0.000000	0.240030	0.000000	-0.001324	-0.000876	0.000000	0.000000
53.933855	15.818163	20.229957	-2.147296	2.586524	2.478208	0.000000	0.309000	0.000000	-0.001723	-0.000916	0.000000	0.000000
54.482915	17.975001	17.831592	-1.758221	1.807509	2.627999	0.000000	0.234133	0.000000	-0.002209	-0.000852	0.000000	0.000000
55.031975	19.633461	16.213376	-1.244983	1.157235	2.735439	0.000000	0.155100	0.000000	-0.002655	-0.000773	0.000000	0.000000
55.581035	20.676434	15.260042	-0.643830	0.589387	2.798617	0.000000	0.073303	0.000000	-0.003055	-0.000681	0.000000	0.000000
56.130095	21.030282	14.903677	0.002779	0.063518	2.816406	0.000000	-0.009805	0.000000	-0.003401	-0.000576	0.000000	0.000000
56.428668	21.066606	14.847816	-0.067960	0.083431	2.815912	0.000000	-0.002238	0.000000	-0.003575	-0.000585	0.000000	0.000000
56.762001	21.117212	14.799731	-0.083856	0.060825	2.815360	0.000000	-0.002238	0.000000	-0.003770	-0.000585	0.000000	0.000000
57.095334	21.178414	14.766717	-0.099752	0.038219	2.814809	0.000000	-0.002238	0.000000	-0.003965	-0.000585	0.000000	0.000000
57.429918	21.250504	14.748734	-0.115708	0.015527	2.814256	0.000000	-0.002238	0.000000	-0.004161	-0.000585	0.000000	0.000000
57.727240	21.323536	14.745488	-0.187600	0.035150	2.813765	0.000000	0.005377	0.000000	-0.004335	-0.000597	0.000000	0.000000
58.276300	21.164995	14.989561	0.474340	-0.482332	2.794184	0.000000	-0.077613	0.000000	-0.004623	-0.000451	0.000000	0.000000
58.825360	20.293845	15.817266	1.102773	-1.034162	2.729269	0.000000	-0.159234	0.000000	-0.004829	-0.000298	0.000000	0.000000
59.374420	18.771614	17.287545	1.653320	-1.659642	2.620169	0.000000	-0.238037	0.000000	-0.004950	-0.000140	0.000000	0.000000
59.923480	16.705798	19.505106	2.087107	-2.403316	2.468817	0.000000	-0.312619	0.000000	-0.004982	0.000021	0.000000	0.000000
60.369440	15.087528	21.475849	1.554591	-1.997296	2.344807	0.000000	-0.243928	0.000000	-0.005002	-0.000108	0.000000	0.000000
60.810400	13.922639	23.024542	1.097260	-1.501687	2.251862	0.000000	-0.178397	0.000000	-0.005078	-0.000238	0.000000	0.000000
61.251360	13.137490	24.104271	0.690051	-0.937764	2.187393	0.000000	-0.114895	0.000000	-0.005212	-0.000371	0.000000	0.000000
61.692320	12.696219	24.665919	0.314364	-0.331180	2.150668	0.000000	-0.052697	0.000000	-0.005406	-0.000508	0.000000	0.000000
62.134530	12.578716	24.683349	-0.014585	0.226922	2.141276	0.000000	0.003378	0.000000	-0.005662	-0.000636	0.000000	0.000000
62.431853	12.594419	24.552177	-0.038227	0.214256	2.142469	0.000000	0.003378	0.000000	-0.005851	-0.000636	0.000000	0.000000
62.765186	12.628738	24.414072	-0.064732	0.200056	2.143807	0.000000	0.003378	0.000000	-0.006063	-0.000636	0.000000	0.000000
63.098520	12.680728	24.285435	-0.091238	0.185857	2.145145	0.000000	0.003378	0.000000	-0.006275	-0.000636	0.000000	0.000000
63.433103	12.750683	24.165835	-0.117843	0.171604	2.146488	0.000000	0.003378	0.000000	-0.006488	-0.000636	0.000000	0.000000
63.730426	12.827770	24.067589	-0.108077	0.096040	2.147680	0.000000	-0.002215	0.000000	-0.006677	-0.000619	0.000000	0.000000
64.171386	13.085549	23.717951	-0.479043	0.693922	2.160620	0.000000	0.059597	0.000000	-0.006989	-0.000795	0.000000	0.000000
64.612346	13.678793	22.853043	-0.871881	1.260234	2.201016	0.000000	0.122096	0.000000	-0.007380	-0.000981	0.000000	0.000000
65.053306	14.634584	21.512220	-1.304532	1.769216	2.269332	0.000000	0.185996	0.000000	-0.007855	-0.001177	0.000000	0.000000
65.494266	15.996559	19.756485	-1.796752	2.197714	2.366350	0.000000	0.252026	0.000000	-0.008420	-0.001387	0.000000	0.000000
65.940226	17.850227	17.640842	-2.375522	2.526796	2.494765	0.000000	0.321315	0.000000	-0.009088	-0.001614	0.000000	0.000000
66.489286	20.223681	15.274619	-1.923021	1.808809	2.651443	0.000000	0.245819	0.000000	-0.009891	-0.001306	0.000000	0.000000
67.038346	22.022411	13.621819	-1.334771	1.219630	2.765239	0.000000	0.165943	0.000000	-0.010518	-0.000976	0.000000	0.000000
67.587406	23.119475	12.564729	-0.652303	0.717300	2.834125	0.000000	0.083108	0.000000	-0.010959	-0.000628	0.000000	0.000000
68.136466	23.437454	12.028063	0.076205	0.266049	2.856875	0.000000	-0.001210	0.000000	-0.011206	-0.000269	0.000000	0.000000
68.435038	23.435567	11.856814	-0.003355	0.273322	2.859029	0.000000	0.006935	0.000000	-0.011295	-0.000299	0.000000	0.000000
68.768372	23.442545	11.684671	-0.017578	0.243109	2.861441	0.000000	0.006935	0.000000	-0.011395	-0.000299	0.000000	0.000000
69.101705	23.459005	11.532669	-0.031802	0.212895	2.863852	0.000000	0.006935	0.000000	-0.011495	-0.000299	0.000000	0.000000
69.436288	23.485062	11.400354	-0.046079	0.182569	2.866273	0.000000	0.006935	0.000000	-0.011595	-0.000299	0.000000	0.000000
69.733611	23.516329	11.299757	-0.126036	0.187892	2.868429	0.000000	0.015140	0.000000	-0.011684	-0.000331	0.000000	0.000000
70.282671	23.250903	11.319944	0.606580	-0.224881	2.853512	0.000000	-0.069678	0.000000	-0.011762	0.000048	0.000000	0.000000
