#ParticleID	Turn	x[m]	xp	y[m]	yp	z[m]	dE[GeV]# s	beta_x	beta_y	alpha_x	alpha_y	D_x	D_y	D_px	D_py	orbit_x	orbit_px	orbit_y	orbit_py
0.300000	11.962906	25.288585	-0.017580	-0.022865	2.598828	0.000000	-0.000398	0.000000	-0.001098	0.000940	0.000000	0.000000
0.601250	11.981087	25.305952	-0.042770	-0.034783	2.598424	0.000000	-0.000398	0.000000	-0.000815	0.000940	0.000000	0.000000
0.898573	12.013911	25.330133	-0.038020	-0.108636	2.598026	0.000000	-0.006802	0.000000	-0.000535	0.000942	0.000000	0.000000
1.339533	12.201328	25.144828	-0.388290	0.527270	2.610807	0.000000	0.066628	0.000000	-0.000122	0.000933	0.000000	0.000000
1.780493	12.704288	24.407178	-0.756306	1.139190	2.656103	0.000000	0.140807	0.000000	0.000290	0.000935	0.000000	0.000000
2.221453	13.545781	23.150735	-1.158885	1.699280	2.734427	0.000000	0.216579	0.000000	0.000705	0.000948	0.000000	0.000000
2.662413	14.764263	21.432660	-1.614418	2.182057	2.846666	0.000000	0.294809	0.000000	0.001127	0.000972	0.000000	0.000000
3.108373	16.436468	19.305938	-2.148095	2.566727	2.995937	0.000000	0.376876	0.000000	0.001568	0.001007	0.000000	0.000000
3.657433	18.579907	16.916922	-1.732031	1.809942	3.177321	0.000000	0.284709	0.000000	0.002105	0.000947	0.000000	0.000000
4.206493	20.196152	15.283709	-1.193595	1.182077	3.306676	0.000000	0.187506	0.000000	0.002605	0.000871	0.000000	0.000000
4.755553	21.171003	14.289978	-0.570822	0.638410	3.381716	0.000000	0.086991	0.000000	0.003059	0.000779	0.000000	0.000000
5.304613	21.435566	13.864954	0.092293	0.140217	3.401114	0.000000	-0.015055	0.000000	0.003458	0.000674	0.000000	0.000000
5.603185	21.417078	13.766936	0.023973	0.153055	3.398990	0.000000	-0.006428	0.000000	0.003662	0.000682	0.000000	0.000000
5.936519	21.406287	13.673159	0.008400	0.128275	3.396620	0.000000	-0.006428	0.000000	0.003889	0.000682	0.000000	0.000000
6.269852	21.405878	13.595903	-0.007173	0.103495	3.394250	0.000000	-0.006428	0.000000	0.004117	0.000682	0.000000	0.000000
6.604435	21.415908	13.534969	-0.022804	0.078622	3.391871	0.000000	-0.006428	0.000000	0.004345	0.000682	0.000000	0.000000
6.901758	21.433611	13.494780	-0.090534	0.090554	3.389757	0.000000	0.002087	0.000000	0.004548	0.000694	0.000000	0.000000
7.450818	21.167598	13.657150	0.572497	-0.388002	3.362658	0.000000	-0.099470	0.000000	0.004888	0.000541	0.000000	0.000000
7.999878	20.191385	14.357074	1.195093	-0.894200	3.280281	0.000000	-0.199254	0.000000	0.005141	0.000379	0.000000	0.000000
8.548938	18.573935	15.644419	1.733263	-1.464101	3.144092	0.000000	-0.295497	0.000000	0.005302	0.000210	0.000000	0.000000
9.097998	16.429525	17.610898	2.148981	-2.138304	2.956510	0.000000	-0.386495	0.000000	0.005370	0.000037	0.000000	0.000000
9.543958	14.756695	19.362877	1.615208	-1.773348	2.802241	0.000000	-0.305489	0.000000	0.005418	0.000177	0.000000	0.000000
9.984918	13.537644	20.736251	1.159704	-1.329066	2.684513	0.000000	-0.228464	0.000000	0.005526	0.000318	0.000000	0.000000
10.425878	12.695561	21.689504	0.757194	-0.824302	2.600086	0.000000	-0.154046	0.000000	0.005698	0.000462	0.000000	0.000000
10.866838	12.191963	22.179255	0.389282	-0.282025	2.547995	0.000000	-0.081386	0.000000	0.005935	0.000612	0.000000	0.000000
11.309048	12.003689	22.182632	0.066724	0.221650	2.527626	0.000000	-0.015488	0.000000	0.006240	0.000754	0.000000	0.000000
11.606371	11.971409	22.055010	0.041845	0.207588	2.522797	0.000000	-0.015488	0.000000	0.006464	0.000754	0.000000	0.000000
12.086371	11.950518	21.866622	0.001679	0.184886	2.515001	0.000000	-0.015488	0.000000	0.006827	0.000754	0.000000	0.000000
12.566371	11.968185	21.700028	-0.038487	0.162185	2.507204	0.000000	-0.015488	0.000000	0.007189	0.000754	0.000000	0.000000
13.046371	12.024412	21.555228	-0.078653	0.139483	2.499408	0.000000	-0.015488	0.000000	0.007551	0.000754	0.000000	0.000000
13.526371	12.119199	21.432221	-0.118818	0.116781	2.491611	0.000000	-0.015488	0.000000	0.007913	0.000754	0.000000	0.000000
14.007621	12.252942	21.330772	-0.159089	0.094021	2.483794	0.000000	-0.015488	0.000000	0.008276	0.000754	0.000000	0.000000
14.304943	12.354914	21.279090	-0.156162	0.032282	2.478963	0.000000	-0.021068	0.000000	0.008500	0.000734	0.000000	0.000000
14.745903	12.651189	21.017841	-0.517889	0.557842	2.484805	0.000000	0.049220	0.000000	0.008873	0.000958	0.000000	0.000000
15.186863	13.275761	20.302496	-0.903294	1.058017	2.521641	0.000000	0.120059	0.000000	0.009347	0.001193	0.000000	0.000000
15.627823	14.257193	19.165599	-1.329994	1.510044	2.589884	0.000000	0.192252	0.000000	0.009928	0.001442	0.000000	0.000000
16.068783	15.640366	17.658882	-1.817497	1.893349	2.690308	0.000000	0.266620	0.000000	0.010621	0.001707	0.000000	0.000000
16.514743	17.512178	15.829238	-2.393056	2.191456	2.825742	0.000000	0.344502	0.000000	0.011446	0.001993	0.000000	0.000000
17.063803	19.915724	13.787013	-1.956857	1.549354	2.990495	0.000000	0.258090	0.000000	0.012435	0.001606	0.000000	0.000000
17.612863	21.760864	12.385594	-1.382327	1.017642	3.106687	0.000000	0.167125	0.000000	0.013204	0.001190	0.000000	0.000000
18.161923	22.917131	11.525146	-0.710076	0.558437	3.172266	0.000000	0.073213	0.000000	0.013739	0.000754	0.000000	0.000000
18.710983	23.302762	11.144373	0.012378	0.139021	3.186074	0.000000	-0.021986	0.000000	0.014030	0.000304	0.000000	0.000000
19.009556	23.330994	11.054399	-0.053921	0.137022	3.181582	0.000000	-0.014676	0.000000	0.014131	0.000338	0.000000	0.000000
19.342889	23.371718	10.973291	-0.068250	0.106302	3.176578	0.000000	-0.014676	0.000000	0.014243	0.000338	0.000000	0.000000
19.676223	23.421994	10.912663	-0.082578	0.075582	3.171573	0.000000	-0.014676	0.000000	0.014356	0.000338	0.000000	0.000000
20.010806	23.482355	10.872268	-0.213305	0.098615	3.166569	0.000000	0.001013	0.000000	0.014470	0.000410	0.000000	0.000000
20.308129	23.613280	10.821770	-0.280400	0.095757	3.166758	0.000000	0.008236	0.000000	0.014591	0.000446	0.000000	0.000000
20.857189	23.514149	10.936424	0.459981	-0.305765	3.145205	0.000000	-0.086213	0.000000	0.014706	-0.000029	0.000000	0.000000
21.406249	22.614762	11.501397	1.167850	-0.729076	3.072377	0.000000	-0.179133	0.000000	0.014560	-0.000503	0.000000	0.000000
21.955309	20.978709	12.556942	1.793165	-1.204338	2.949564	0.000000	-0.268883	0.000000	0.014155	-0.000968	0.000000	0.000000
22.504369	18.721672	14.178262	2.291723	-1.765412	2.778942	0.000000	-0.353876	0.000000	0.013499	-0.001417	0.000000	0.000000
22.950329	16.945014	15.634803	1.704603	-1.486111	2.638785	0.000000	-0.277257	0.000000	0.012944	-0.001073	0.000000	0.000000
23.391289	15.668449	16.797567	1.200398	-1.140266	2.533083	0.000000	-0.204280	0.000000	0.012544	-0.000745	0.000000	0.000000
23.832249	14.810919	17.631122	0.751073	-0.742522	2.458888	0.000000	-0.133622	0.000000	0.012286	-0.000425	0.000000	0.000000
24.273209	14.333206	18.097532	0.336084	-0.310984	2.415357	0.000000	-0.064482	0.000000	0.012168	-0.000109	0.000000	0.000000
24.715418	14.213612	18.175256	-0.032917	0.095316	2.401999	0.000000	-0.001266	0.000000	0.012189	0.000176	0.000000	0.000000
25.012741	14.239412	18.123485	-0.053858	0.078808	2.401570	0.000000	-0.001266	0.000000	0.012242	0.000176	0.000000	0.000000
25.346075	14.283142	18.077115	-0.077335	0.060302	2.401089	0.000000	-0.001266	0.000000	0.012301	0.000176	0.000000	0.000000
25.679408	14.342525	18.043083	-0.100812	0.041795	2.400609	0.000000	-0.001266	0.000000	0.012359	0.000176	0.000000	0.000000
26.013991	14.417577	18.021695	-0.007412	-0.122981	2.400102	0.000000	-0.020737	0.000000	0.012418	0.000076	0.000000	0.000000
26.311314	14.428051	18.099887	0.003049	-0.178712	2.393908	0.000000	-0.025895	0.000000	0.012441	0.000047	0.000000	0.000000
26.752274	14.603795	18.061419	-0.402953	0.265602	2.397407	0.000000	0.042176	0.000000	0.012532	0.000369	0.000000	0.000000
27.193234	15.144466	17.634884	-0.827377	0.697828	2.430866	0.000000	0.110724	0.000000	0.012767	0.000695	0.000000	0.000000
27.634194	16.074794	16.839692	-1.289630	1.098294	2.494666	0.000000	0.180526	0.000000	0.013147	0.001029	0.000000	0.000000
28.075154	17.437327	15.712029	-1.810847	1.448772	2.589529	0.000000	0.252374	0.000000	0.013676	0.001375	0.000000	0.000000
28.521114	19.318369	14.286018	-2.420068	1.734494	2.718148	0.000000	0.327568	0.000000	0.014370	0.001739	0.000000	0.000000
29.070174	21.710592	12.697997	-1.909260	1.174221	2.874744	0.000000	0.244769	0.000000	0.015195	0.001260	0.000000	0.000000
29.619234	23.463746	11.676053	-1.263476	0.697617	2.984874	0.000000	0.157647	0.000000	0.015750	0.000758	0.000000	0.000000
30.168294	24.453853	11.147378	-0.528369	0.270721	3.046591	0.000000	0.067740	0.000000	0.016026	0.000243	0.000000	0.000000
30.717354	24.610899	11.074308	0.244091	-0.136883	3.058802	0.000000	-0.023365	0.000000	0.016017	-0.000276	0.000000	0.000000
31.015927	24.501732	11.149393	0.176223	-0.139250	3.053938	0.000000	-0.016492	0.000000	0.015946	-0.000237	0.000000	0.000000
31.349260	24.388925	11.252385	0.162196	-0.169726	3.048519	0.000000	-0.016492	0.000000	0.015867	-0.000237	0.000000	0.000000
31.682593	24.285470	11.375695	0.148169	-0.200203	3.043101	0.000000	-0.016492	0.000000	0.015788	-0.000237	0.000000	0.000000
32.017177	24.191031	11.519899	0.134090	-0.230794	3.037662	0.000000	-0.016492	0.000000	0.015709	-0.000237	0.000000	0.000000
32.314499	24.115189	11.665139	0.067167	-0.231693	3.032840	0.000000	-0.009649	0.000000	0.015638	-0.000199	0.000000	0.000000
32.863559	23.628482	12.157852	0.813516	-0.670781	3.003028	0.000000	-0.099626	0.000000	0.015391	-0.000701	0.000000	0.000000
33.412619	22.348735	13.156102	1.502348	-1.157667	2.924474	0.000000	-0.187846	0.000000	0.014870	-0.001192	0.000000	0.000000
33.961679	20.366450	14.731008	2.084968	-1.727040	2.798566	0.000000	-0.272753	0.000000	0.014086	-0.001661	0.000000	0.000000
34.510739	17.821802	16.994768	2.520191	-2.419468	2.627528	0.000000	-0.352847	0.000000	0.013051	-0.002101	0.000000	0.000000
34.956699	15.844880	19.020107	1.926677	-2.102119	2.487255	0.000000	-0.280166	0.000000	0.012188	-0.001773	0.000000	0.000000
35.397659	14.371317	20.699013	1.426445	-1.690130	2.379709	0.000000	-0.211123	0.000000	0.011474	-0.001468	0.000000	0.000000
35.838619	13.308761	21.979059	0.991428	-1.201220	2.301933	0.000000	-0.144470	0.000000	0.010890	-0.001180	0.000000	0.000000
36.279579	12.608618	22.802001	0.601739	-0.657642	2.253047	0.000000	-0.079450	0.000000	0.010431	-0.000905	0.000000	0.000000
36.721789	12.238236	23.130662	0.266523	-0.135152	2.232475	0.000000	-0.020264	0.000000	0.010090	-0.000664	0.000000	0.000000
37.019112	12.087486	23.214922	0.240503	-0.148241	2.226648	0.000000	-0.020264	0.000000	0.009892	-0.000664	0.000000	0.000000
37.352445	11.936874	23.318640	0.211331	-0.162915	2.220115	0.000000	-0.020264	0.000000	0.009671	-0.000664	0.000000	0.000000
37.685779	11.805711	23.432142	0.182159	-0.177589	2.213581	0.000000	-0.020264	0.000000	0.009449	-0.000664	0.000000	0.000000
38.020362	11.693613	23.555907	0.152878	-0.192319	2.207024	0.000000	-0.020264	0.000000	0.009227	-0.000664	0.000000	0.000000
38.317684	11.610413	23.674217	0.152844	-0.258617	2.201194	0.000000	-0.025190	0.000000	0.009030	-0.000685	0.000000	0.000000
38.758644	11.624362	23.639965	-0.184782	0.335986	2.204237	0.000000	0.037899	0.000000	0.008778	-0.000456	0.000000	0.000000
39.199604	11.938723	23.086023	-0.530851	0.915296	2.235076	0.000000	0.101425	0.000000	0.008627	-0.000231	0.000000	0.000000
39.640564	12.567862	22.037602	-0.901179	1.452951	2.294064	0.000000	0.166109	0.000000	0.008574	-0.000010	0.000000	0.000000
40.081524	13.540538	20.542416	-1.312695	1.924480	2.381875	0.000000	0.232686	0.000000	0.008619	0.000212	0.000000	0.000000
40.527484	14.918794	18.645769	-1.788175	2.309944	2.500993	0.000000	0.302343	0.000000	0.008764	0.000438	0.000000	0.000000
41.076544	16.680338	16.514000	-1.400581	1.595066	2.646330	0.000000	0.226783	0.000000	0.008925	0.000151	0.000000	0.000000
41.625604	17.958927	15.100705	-0.914018	0.993829	2.749161	0.000000	0.147201	0.000000	0.008929	-0.000138	0.000000	0.000000
42.174664	18.664199	14.305195	-0.362870	0.463399	2.807660	0.000000	0.065005	0.000000	0.008774	-0.000425	0.000000	0.000000
42.723724	18.746318	14.070793	0.213910	-0.034015	2.820787	0.000000	-0.018350	0.000000	0.008463	-0.000704	0.000000	0.000000
43.022297	18.650559	14.077022	0.152105	-0.020991	2.817550	0.000000	-0.011515	0.000000	0.008259	-0.000683	0.000000	0.000000
43.502297	18.517178	14.113548	0.125773	-0.055104	2.812351	0.000000	-0.011515	0.000000	0.007931	-0.000683	0.000000	0.000000
43.982297	18.409075	14.182822	0.099441	-0.089218	2.807151	0.000000	-0.011515	0.000000	0.007604	-0.000683	0.000000	0.000000
44.462297	18.326251	14.284845	0.073109	-0.123331	2.801952	0.000000	-0.011515	0.000000	0.007276	-0.000683	0.000000	0.000000
44.942297	18.268706	14.419617	0.046777	-0.157444	2.796753	0.000000	-0.011515	0.000000	0.006948	-0.000683	0.000000	0.000000
45.423547	18.236615	14.587436	-0.069978	-0.119371	2.791557	0.000000	0.002316	0.000000	0.006619	-0.000650	0.000000	0.000000
45.720870	18.283120	14.664548	-0.131518	-0.103960	2.792441	0.000000	0.009213	0.000000	0.006426	-0.000634	0.000000	0.000000
46.269930	18.119375	15.062154	0.427571	-0.624408	2.775248	0.000000	-0.073153	0.000000	0.006022	-0.000836	0.000000	0.000000
46.818990	17.354621	16.052244	0.956436	-1.189334	2.713218	0.000000	-0.154234	0.000000	0.005511	-0.001023	0.000000	0.000000
47.368050	16.042917	17.705338	1.417708	-1.838983	2.607444	0.000000	-0.232596	0.000000	0.004902	-0.001191	0.000000	0.000000
47.917110	14.276967	20.139177	1.778800	-2.619630	2.459792	0.000000	-0.306851	0.000000	0.004206	-0.001339	0.000000	0.000000
48.363070	12.901645	22.302613	1.315409	-2.210925	2.338842	0.000000	-0.238311	0.000000	0.003632	-0.001237	0.000000	0.000000
48.804030	11.921189	24.035183	0.915952	-1.703017	2.248772	0.000000	-0.172884	0.000000	0.003107	-0.001150	0.000000	0.000000
49.244990	11.273346	25.283774	0.558356	-1.117619	2.187062	0.000000	-0.109414	0.000000	0.002616	-0.001077	0.000000	0.000000
49.685950	10.928503	25.991583	0.226281	-0.481372	2.153014	0.000000	-0.047178	0.000000	0.002155	-0.001015	0.000000	0.000000
50.128160	10.871066	26.126127	-0.069341	0.114062	2.146258	0.000000	0.009354	0.000000	0.001718	-0.000969	0.000000	0.000000
50.425482	10.920470	26.061728	-0.096822	0.102533	2.149328	0.000000	0.009354	0.000000	0.001430	-0.000969	0.000000	0.000000
50.758816	10.995289	25.997681	-0.127632	0.089609	2.152769	0.000000	0.009354	0.000000	0.001107	-0.000969	0.000000	0.000000
51.092149	11.090647	25.942250	-0.158442	0.076684	2.156210	0.000000	0.009354	0.000000	0.000784	-0.000969	0.000000	0.000000
51.426732	11.206791	25.895801	-0.098451	-0.146368	2.159642	0.000000	-0.008166	0.000000	0.000459	-0.000973	0.000000	0.000000
51.724055	11.273299	25.986325	-0.097638	-0.222080	2.157504	0.000000	-0.013448	0.000000	0.000170	-0.000973	0.000000	0.000000
52.165015	11.506163	25.892927	-0.432764	0.433082	2.165655	0.000000	0.048566	0.000000	-0.000259	-0.000975	0.000000	0.000000
52.605975	12.042138	25.228249	-0.787656	1.068535	2.201252	0.000000	0.111144	0.000000	-0.000691	-0.000987	0.000000	0.000000
53.046935	12.905702	24.022544	-1.178524	1.655368	2.264705	0.000000	0.174998	0.000000	-0.001131	-0.001010	0.000000	0.000000
53.487895	14.136296	22.330679	-1.623225	2.166882	2.356742	0.000000	0.240857	0.000000	-0.001584	-0.001045	0.000000	0.000000
53.933855	15.811166	20.204346	-2.146338	2.581109	2.479936	0.000000	0.309864	0.000000	-0.002060	-0.001093	0.000000	0.000000
54.482915	17.967004	17.811279	-1.757472	1.803242	2.630274	0.000000	0.234934	0.000000	-0.002640	-0.001016	0.000000	0.000000
55.031975	19.624727	16.197272	-1.244500	1.153812	2.738215	0.000000	0.155820	0.000000	-0.003173	-0.000922	0.000000	0.000000
55.581035	20.667283	15.247355	-0.643653	0.586563	2.801836	0.000000	0.073928	0.000000	-0.003649	-0.000812	0.000000	0.000000
56.130095	21.021071	14.893859	0.002634	0.061092	2.820003	0.000000	-0.009289	0.000000	-0.004061	-0.000687	0.000000	0.000000
56.428668	21.057644	14.839326	-0.068386	0.081209	2.819711	0.000000	-0.001672	0.000000	-0.004270	-0.000698	0.000000	0.000000
56.762001	21.108536	14.792724	-0.084289	0.058598	2.819386	0.000000	-0.001672	0.000000	-0.004502	-0.000698	0.000000	0.000000
57.095334	21.170030	14.761195	-0.100193	0.035987	2.819062	0.000000	-0.001672	0.000000	-0.004735	-0.000698	0.000000	0.000000
57.429918	21.242417	14.744708	-0.116156	0.013291	2.818736	0.000000	-0.001672	0.000000	-0.004968	-0.000698	0.000000	0.000000
57.727240	21.315723	14.742789	-0.188416	0.033143	2.818447	0.000000	0.006007	0.000000	-0.005176	-0.000711	0.000000	0.000000
58.276300	21.158193	14.989039	0.473269	-0.484317	2.799222	0.000000	-0.077139	0.000000	-0.005519	-0.000538	0.000000	0.000000
58.825360	20.288314	15.818965	1.101521	-1.036266	2.734561	0.000000	-0.158926	0.000000	-0.005765	-0.000355	0.000000	0.000000
59.374420	18.767524	17.291667	1.651978	-1.662012	2.625607	0.000000	-0.237899	0.000000	-0.005908	-0.000166	0.000000	0.000000
59.923480	16.703211	19.512022	2.085774	-2.406119	2.474290	0.000000	-0.312657	0.000000	-0.005947	0.000026	0.000000	0.000000
60.369440	15.086043	21.485283	1.553453	-2.000138	2.350298	0.000000	-0.243827	0.000000	-0.005970	-0.000129	0.000000	0.000000
60.810400	13.922112	23.036420	1.096240	-1.504416	2.257443	0.000000	-0.178156	0.000000	-0.006061	-0.000284	0.000000	0.000000
61.251360	13.137831	24.118446	0.689100	-0.940258	2.193138	0.000000	-0.114509	0.000000	-0.006220	-0.000442	0.000000	0.000000
61.692320	12.697377	24.682141	0.313438	-0.333328	2.156652	0.000000	-0.052162	0.000000	-0.006451	-0.000605	0.000000	0.000000
62.134530	12.580684	24.701270	-0.015212	0.224611	2.147579	0.000000	0.004000	0.000000	-0.006756	-0.000759	0.000000	0.000000
62.431853	12.596759	24.571465	-0.038851	0.211967	2.148994	0.000000	0.004000	0.000000	-0.006982	-0.000759	0.000000	0.000000
62.765186	12.631493	24.434879	-0.065353	0.197792	2.150580	0.000000	0.004000	0.000000	-0.007235	-0.000759	0.000000	0.000000
63.098520	12.683896	24.307743	-0.091855	0.183616	2.152167	0.000000	0.004000	0.000000	-0.007488	-0.000759	0.000000	0.000000
63.433103	12.754263	24.189633	-0.118456	0.169388	2.153759	0.000000	0.004000	0.000000	-0.007741	-0.000759	0.000000	0.000000
63.730426	12.831706	24.092712	-0.108309	0.093046	2.155172	0.000000	-0.001674	0.000000	-0.007967	-0.000738	0.000000	0.000000
64.171386	13.089699	23.745407	-0.479359	0.691660	2.168451	0.000000	0.060333	0.000000	-0.008338	-0.000948	0.000000	0.000000
64.612346	13.683223	22.882149	-0.872294	1.258808	2.209288	0.000000	0.123037	0.000000	-0.008805	-0.001169	0.000000	0.000000
65.053306	14.639370	21.542218	-1.305056	1.768691	2.278154	0.000000	0.187155	0.000000	-0.009371	-0.001404	0.000000	0.000000
65.494266	16.001786	19.786575	-1.797406	2.198118	2.375837	0.000000	0.253419	0.000000	-0.010045	-0.001654	0.000000	0.000000
65.940226	17.856030	17.670177	-2.376284	2.528089	2.505053	0.000000	0.322955	0.000000	-0.010842	-0.001925	0.000000	0.000000
66.489286	20.230106	15.302992	-1.923647	1.809388	2.662683	0.000000	0.247115	0.000000	-0.011799	-0.001558	0.000000	0.000000
67.038346	22.029314	13.649975	-1.335233	1.219532	2.777203	0.000000	0.166869	0.000000	-0.012548	-0.001164	0.000000	0.000000
67.587406	23.126699	12.593399	-0.652581	0.716513	2.846570	0.000000	0.083644	0.000000	-0.013073	-0.000749	0.000000	0.000000
68.136466	23.444837	12.058016	0.076123	0.264514	2.869549	0.000000	-0.001075	0.000000	-0.013367	-0.000320	0.000000	0.000000
68.435038	23.443593	11.887304	-0.004491	0.272496	2.871808	0.000000	0.007233	0.000000	-0.013474	-0.000357	0.000000	0.000000
68.768372	23.451327	11.715681	-0.018710	0.242372	2.874338	0.000000	0.007233	0.000000	-0.013593	-0.000357	0.000000	0.000000
69.101705	23.468540	11.564141	-0.032929	0.212249	2.876868	0.000000	0.007233	0.000000	-0.013712	-0.000357	0.000000	0.000000
69.436288	23.495350	11.432228	-0.047201	0.182013	2.879407	0.000000	0.007233	0.000000	-0.013831	-0.000357	0.000000	0.000000
69.733611	23.527323	11.331919	-0.128266	0.188020	2.881672	0.000000	0.015608	0.000000	-0.013937	-0.000396	0.000000	0.000000
70.282671	23.264149	11.352450	0.604730	-0.225642	2.866911	0.000000	-0.069635	0.000000	-0.014030	0.000057	0.000000	0.000000
