#ParticleID	Turn	x[m]	xp	y[m]	yp	z[m]	dE[GeV]# s	beta_x	beta_y	alpha_x	alpha_y	D_x	D_y	D_px	D_py	orbit_x	orbit_px	orbit_y	orbit_py
0.300000	11.923982	25.082227	-0.010995	-0.027435	2.604945	0.000000	-0.002325	0.000000	-0.001290	0.001078	0.000000	0.000000
0.601250	11.938218	25.102378	-0.036263	-0.039455	2.603920	0.000000	-0.002325	0.000000	-0.000965	0.001078	0.000000	0.000000
0.898573	11.967196	25.129367	-0.031675	-0.112929	2.602908	0.000000	-0.008747	0.000000	-0.000645	0.001080	0.000000	0.000000
1.339533	12.148516	24.950173	-0.380712	0.517759	2.614799	0.000000	0.064797	0.000000	-0.000171	0.001070	0.000000	0.000000
1.780493	12.644147	24.223061	-0.747152	1.124893	2.659251	0.000000	0.139068	0.000000	0.000300	0.001071	0.000000	0.000000
2.221453	13.476742	22.981104	-1.147735	1.680850	2.736766	0.000000	0.214911	0.000000	0.000775	0.001085	0.000000	0.000000
2.662413	14.684354	21.280801	-1.600767	2.160331	2.848224	0.000000	0.293191	0.000000	0.001259	0.001111	0.000000	0.000000
3.108373	16.343059	19.174565	-2.131295	2.542697	2.996721	0.000000	0.375290	0.000000	0.001763	0.001150	0.000000	0.000000
3.657433	18.469227	16.808779	-1.717479	1.791400	3.177156	0.000000	0.283111	0.000000	0.002377	0.001083	0.000000	0.000000
4.206493	20.071250	15.193526	-1.182315	1.167704	3.305570	0.000000	0.185927	0.000000	0.002949	0.000997	0.000000	0.000000
4.755553	21.035928	14.213763	-0.563607	0.627183	3.379692	0.000000	0.085462	0.000000	0.003469	0.000893	0.000000	0.000000
5.304613	21.295082	13.799713	0.094936	0.131336	3.398215	0.000000	-0.016506	0.000000	0.003927	0.000773	0.000000	0.000000
5.603185	21.274697	13.707208	0.027099	0.143807	3.395615	0.000000	-0.007922	0.000000	0.004161	0.000783	0.000000	0.000000
5.936519	21.261858	13.619610	0.011420	0.118986	3.392713	0.000000	-0.007922	0.000000	0.004422	0.000783	0.000000	0.000000
6.269852	21.259471	13.548560	-0.004260	0.094165	3.389812	0.000000	-0.007922	0.000000	0.004683	0.000783	0.000000	0.000000
6.604435	21.267587	13.493884	-0.019998	0.069250	3.386899	0.000000	-0.007922	0.000000	0.004945	0.000783	0.000000	0.000000
6.901758	21.283654	13.459277	-0.087146	0.080885	3.384312	0.000000	0.000532	0.000000	0.005178	0.000797	0.000000	0.000000
7.450818	21.016723	13.631784	0.570819	-0.396902	3.356361	0.000000	-0.100837	0.000000	0.005568	0.000622	0.000000	0.000000
7.999878	20.045108	14.341359	1.188468	-0.902967	3.273253	0.000000	-0.200407	0.000000	0.005860	0.000437	0.000000	0.000000
8.548938	18.437448	15.638559	1.722158	-1.473361	3.136469	0.000000	-0.296415	0.000000	0.006047	0.000244	0.000000	0.000000
9.097998	16.307333	17.615797	2.134176	-2.148718	2.948437	0.000000	-0.387160	0.000000	0.006127	0.000047	0.000000	0.000000
9.543958	14.646122	19.377435	1.603830	-1.784453	2.793815	0.000000	-0.306364	0.000000	0.006184	0.000207	0.000000	0.000000
9.984918	13.435789	20.760741	1.151223	-1.340361	2.675635	0.000000	-0.229561	0.000000	0.006311	0.000368	0.000000	0.000000
10.425878	12.600053	21.723861	0.751224	-0.835271	2.590646	0.000000	-0.155376	0.000000	0.006509	0.000533	0.000000	0.000000
10.866838	12.100724	22.222964	0.385552	-0.292169	2.537878	0.000000	-0.082968	0.000000	0.006782	0.000705	0.000000	0.000000
11.309048	11.914840	22.234765	0.064603	0.213115	2.516707	0.000000	-0.017260	0.000000	0.007133	0.000867	0.000000	0.000000
11.606371	11.883875	22.112193	0.039545	0.199136	2.511318	0.000000	-0.017260	0.000000	0.007391	0.000867	0.000000	0.000000
12.086371	11.865330	21.931856	-0.000910	0.176567	2.502617	0.000000	-0.017260	0.000000	0.007807	0.000867	0.000000	0.000000
12.566371	11.885621	21.773184	-0.041364	0.153999	2.493916	0.000000	-0.017260	0.000000	0.008223	0.000867	0.000000	0.000000
13.046371	11.944748	21.636178	-0.081818	0.131431	2.485215	0.000000	-0.017260	0.000000	0.008639	0.000867	0.000000	0.000000
13.526371	12.042711	21.520837	-0.122272	0.108862	2.476514	0.000000	-0.017260	0.000000	0.009055	0.000867	0.000000	0.000000
14.007621	12.179917	21.426946	-0.162831	0.086235	2.467790	0.000000	-0.017260	0.000000	0.009472	0.000867	0.000000	0.000000
14.304943	12.284160	21.379882	-0.160610	0.025025	2.462397	0.000000	-0.022728	0.000000	0.009730	0.000844	0.000000	0.000000
14.745903	12.583725	21.123784	-0.520874	0.553455	2.467358	0.000000	0.047123	0.000000	0.010159	0.001101	0.000000	0.000000
15.186863	13.210376	20.410951	-0.904955	1.056700	2.503101	0.000000	0.117500	0.000000	0.010703	0.001370	0.000000	0.000000
15.627823	14.192774	19.273812	-1.330412	1.511855	2.570027	0.000000	0.189201	0.000000	0.011369	0.001654	0.000000	0.000000
16.068783	15.575851	17.764111	-1.816696	1.898204	2.668894	0.000000	0.263039	0.000000	0.012165	0.001957	0.000000	0.000000
16.514743	17.446540	15.928757	-2.391032	2.199190	2.802494	0.000000	0.340349	0.000000	0.013110	0.002285	0.000000	0.000000
17.063803	19.849440	13.879619	-1.957456	1.554190	2.965043	0.000000	0.254721	0.000000	0.014245	0.001842	0.000000	0.000000
17.612863	21.696777	12.474273	-1.385493	1.019929	3.079509	0.000000	0.164603	0.000000	0.015127	0.001366	0.000000	0.000000
18.161923	22.857913	11.612605	-0.715572	0.558341	3.143873	0.000000	0.071586	0.000000	0.015741	0.000866	0.000000	0.000000
18.710983	23.250725	11.233228	0.004947	0.136538	3.157000	0.000000	-0.022687	0.000000	0.016076	0.000350	0.000000	0.000000
19.009556	23.282621	11.144894	-0.060144	0.134434	3.152215	0.000000	-0.015596	0.000000	0.016192	0.000389	0.000000	0.000000
19.342889	23.327507	11.065421	-0.074513	0.103984	3.146887	0.000000	-0.015596	0.000000	0.016322	0.000389	0.000000	0.000000
19.676223	23.381972	11.006248	-0.088882	0.073535	3.141558	0.000000	-0.015596	0.000000	0.016452	0.000389	0.000000	0.000000
20.010806	23.446564	10.967132	-0.219472	0.097309	3.136229	0.000000	-0.000058	0.000000	0.016582	0.000472	0.000000	0.000000
20.308129	23.581218	10.917315	-0.285354	0.094375	3.136084	0.000000	0.006937	0.000000	0.016722	0.000512	0.000000	0.000000
20.857189	23.488068	11.034963	0.454124	-0.309860	3.114073	0.000000	-0.086517	0.000000	0.016854	-0.000032	0.000000	0.000000
21.406249	22.595383	11.606065	1.161501	-0.736177	3.041371	0.000000	-0.178436	0.000000	0.016687	-0.000575	0.000000	0.000000
21.955309	20.966288	12.671314	1.786764	-1.214953	2.919266	0.000000	-0.267197	0.000000	0.016224	-0.001109	0.000000	0.000000
22.504369	18.715989	14.306606	2.285708	-1.780303	2.749920	0.000000	-0.351235	0.000000	0.015473	-0.001622	0.000000	0.000000
22.950329	16.944286	15.775111	1.699147	-1.497758	2.610848	0.000000	-0.275347	0.000000	0.014837	-0.001229	0.000000	0.000000
23.391289	15.672300	16.946575	1.195295	-1.148197	2.505884	0.000000	-0.203077	0.000000	0.014379	-0.000852	0.000000	0.000000
23.832249	14.819159	17.785368	0.746096	-0.746374	2.432101	0.000000	-0.133112	0.000000	0.014084	-0.000485	0.000000	0.000000
24.273209	14.345845	18.253317	0.331009	-0.310580	2.388659	0.000000	-0.064659	0.000000	0.013950	-0.000124	0.000000	0.000000
24.715418	14.230887	18.328770	-0.038912	0.100430	2.375068	0.000000	-0.001968	0.000000	0.013975	0.000204	0.000000	0.000000
25.012741	14.260248	18.273921	-0.059837	0.084045	2.374422	0.000000	-0.001968	0.000000	0.014036	0.000204	0.000000	0.000000
25.346075	14.307958	18.224015	-0.083296	0.065675	2.373698	0.000000	-0.001968	0.000000	0.014104	0.000204	0.000000	0.000000
25.679408	14.371308	18.186355	-0.106754	0.047305	2.372974	0.000000	-0.001968	0.000000	0.014172	0.000204	0.000000	0.000000
26.013991	14.450330	18.161237	-0.013070	-0.118466	2.372224	0.000000	-0.021213	0.000000	0.014240	0.000089	0.000000	0.000000
26.311314	14.464134	18.236728	-0.003142	-0.173517	2.365883	0.000000	-0.026203	0.000000	0.014266	0.000056	0.000000	0.000000
26.752274	14.645779	18.192046	-0.410168	0.274439	2.369073	0.000000	0.041145	0.000000	0.014372	0.000425	0.000000	0.000000
27.193234	15.193417	17.756242	-0.835948	0.709904	2.401882	0.000000	0.108957	0.000000	0.014642	0.000799	0.000000	0.000000
27.634194	16.132097	16.949145	-1.299953	1.113058	2.464683	0.000000	0.178002	0.000000	0.015078	0.001182	0.000000	0.000000
28.075154	17.504759	15.807486	-1.823400	1.465549	2.558188	0.000000	0.249062	0.000000	0.015687	0.001579	0.000000	0.000000
28.521114	19.398417	14.365783	-2.435507	1.752566	2.685055	0.000000	0.323429	0.000000	0.016484	0.001997	0.000000	0.000000
29.070174	21.806834	12.759916	-1.922855	1.188746	2.839565	0.000000	0.241731	0.000000	0.017431	0.001447	0.000000	0.000000
29.619234	23.573564	11.723448	-1.274248	0.709634	2.948266	0.000000	0.155766	0.000000	0.018068	0.000872	0.000000	0.000000
30.168294	24.573650	11.182532	-0.535545	0.281091	3.009239	0.000000	0.067052	0.000000	0.018385	0.000281	0.000000	0.000000
30.717354	24.736360	11.098631	0.241023	-0.127421	3.021404	0.000000	-0.022848	0.000000	0.018376	-0.000315	0.000000	0.000000
31.015927	24.628278	11.168396	0.174341	-0.130240	3.016624	0.000000	-0.016230	0.000000	0.018295	-0.000271	0.000000	0.000000
31.349260	24.516699	11.265341	0.160395	-0.160592	3.011304	0.000000	-0.016230	0.000000	0.018205	-0.000271	0.000000	0.000000
31.682593	24.414417	11.382520	0.146450	-0.190945	3.005985	0.000000	-0.016230	0.000000	0.018115	-0.000271	0.000000	0.000000
32.017177	24.321102	11.520487	0.132451	-0.221411	3.000645	0.000000	-0.016230	0.000000	0.018024	-0.000271	0.000000	0.000000
32.314499	24.246268	11.660087	0.066637	-0.222856	2.995914	0.000000	-0.009634	0.000000	0.017944	-0.000227	0.000000	0.000000
32.863559	23.757683	12.142821	0.817370	-0.661310	2.966469	0.000000	-0.098427	0.000000	0.017660	-0.000804	0.000000	0.000000
33.412619	22.471316	13.130047	1.510305	-1.146889	2.888965	0.000000	-0.185485	0.000000	0.017063	-0.001367	0.000000	0.000000
33.961679	20.478154	14.692103	2.096451	-1.714192	2.764770	0.000000	-0.269274	0.000000	0.016163	-0.001905	0.000000	0.000000
34.510739	17.919164	16.940272	2.534370	-2.403641	2.596077	0.000000	-0.348316	0.000000	0.014976	-0.002410	0.000000	0.000000
34.956699	15.930834	18.951656	1.937788	-2.086579	2.457764	0.000000	-0.276419	0.000000	0.013986	-0.002034	0.000000	0.000000
35.397659	14.448515	20.617308	1.435069	-1.675638	2.351805	0.000000	-0.208113	0.000000	0.013167	-0.001684	0.000000	0.000000
35.838619	13.379236	21.885309	0.997966	-1.188434	2.275283	0.000000	-0.142161	0.000000	0.012498	-0.001353	0.000000	0.000000
36.279579	12.674089	22.697959	0.606495	-0.647141	2.227330	0.000000	-0.077814	0.000000	0.011971	-0.001038	0.000000	0.000000
36.721789	12.300193	23.018509	0.269405	-0.126297	2.207386	0.000000	-0.019144	0.000000	0.011580	-0.000761	0.000000	0.000000
37.019112	12.147701	23.097513	0.243478	-0.139420	2.201920	0.000000	-0.019144	0.000000	0.011353	-0.000761	0.000000	0.000000
37.352445	11.995071	23.195363	0.214412	-0.154132	2.195793	0.000000	-0.019144	0.000000	0.011100	-0.000761	0.000000	0.000000
37.685779	11.861818	23.303022	0.185345	-0.168844	2.189665	0.000000	-0.019144	0.000000	0.010846	-0.000761	0.000000	0.000000
38.020362	11.747553	23.420947	0.156169	-0.183611	2.183515	0.000000	-0.019144	0.000000	0.010591	-0.000761	0.000000	0.000000
38.317684	11.662360	23.534107	0.155966	-0.248895	2.178046	0.000000	-0.023948	0.000000	0.010365	-0.000785	0.000000	0.000000
38.758644	11.674060	23.492946	-0.182814	0.341871	2.181542	0.000000	0.038553	0.000000	0.010077	-0.000522	0.000000	0.000000
39.199604	11.987157	22.935600	-0.529946	0.917076	2.212563	0.000000	0.101498	0.000000	0.009904	-0.000264	0.000000	0.000000
39.640564	12.615960	21.887438	-0.901298	1.450542	2.271464	0.000000	0.165603	0.000000	0.009844	-0.000009	0.000000	0.000000
40.081524	13.589213	20.396164	-1.313846	1.917991	2.358916	0.000000	0.231594	0.000000	0.009896	0.000245	0.000000	0.000000
40.527484	14.969040	18.506973	-1.790444	2.299676	2.477396	0.000000	0.300653	0.000000	0.010063	0.000504	0.000000	0.000000
41.076544	16.732073	16.384107	-1.400927	1.588953	2.621996	0.000000	0.225866	0.000000	0.010249	0.000175	0.000000	0.000000
41.625604	18.009989	14.975426	-0.912409	0.991441	2.724540	0.000000	0.147075	0.000000	0.010254	-0.000157	0.000000	0.000000
42.174664	18.712467	14.180567	-0.359418	0.464568	2.783210	0.000000	0.065671	0.000000	0.010077	-0.000487	0.000000	0.000000
42.723724	18.789865	13.942895	0.218962	-0.029204	2.796962	0.000000	-0.016906	0.000000	0.009721	-0.000808	0.000000	0.000000
43.022297	18.690813	13.946732	0.157603	-0.017068	2.794144	0.000000	-0.010209	0.000000	0.009487	-0.000783	0.000000	0.000000
43.502297	18.552147	13.979642	0.131284	-0.051495	2.789619	0.000000	-0.010209	0.000000	0.009111	-0.000783	0.000000	0.000000
43.982297	18.438748	14.045602	0.104965	-0.085921	2.785095	0.000000	-0.010209	0.000000	0.008735	-0.000783	0.000000	0.000000
44.462297	18.350614	14.144611	0.078646	-0.120348	2.780570	0.000000	-0.010209	0.000000	0.008359	-0.000783	0.000000	0.000000
44.942297	18.287747	14.276670	0.052327	-0.154775	2.776046	0.000000	-0.010209	0.000000	0.007983	-0.000783	0.000000	0.000000
45.423547	18.250308	14.442072	-0.064483	-0.117736	2.771527	0.000000	0.003523	0.000000	0.007607	-0.000746	0.000000	0.000000
45.720870	18.293545	14.518266	-0.125627	-0.103221	2.772798	0.000000	0.010311	0.000000	0.007385	-0.000727	0.000000	0.000000
46.269930	18.123146	14.912662	0.433664	-0.619257	2.756437	0.000000	-0.071434	0.000000	0.006921	-0.000959	0.000000	0.000000
46.818990	17.351741	15.894533	0.962297	-1.179406	2.695586	0.000000	-0.151927	0.000000	0.006335	-0.001173	0.000000	0.000000
47.368050	16.033863	17.533812	1.422918	-1.823570	2.591315	0.000000	-0.229744	0.000000	0.005637	-0.001367	0.000000	0.000000
47.917110	14.262660	19.947256	1.782985	-2.597637	2.445466	0.000000	-0.303507	0.000000	0.004838	-0.001537	0.000000	0.000000
48.363070	12.883638	22.093055	1.319448	-2.193497	2.326008	0.000000	-0.235318	0.000000	0.004179	-0.001420	0.000000	0.000000
48.804030	11.899572	23.812578	0.920049	-1.690942	2.237262	0.000000	-0.170204	0.000000	0.003575	-0.001320	0.000000	0.000000
49.244990	11.247994	25.053099	0.562700	-1.111447	2.176741	0.000000	-0.107014	0.000000	0.003012	-0.001235	0.000000	0.000000
49.685950	10.899115	25.758185	0.231071	-0.481382	2.143760	0.000000	-0.045030	0.000000	0.002484	-0.001164	0.000000	0.000000
50.128160	10.837144	25.895489	-0.064033	0.108633	2.137966	0.000000	0.011310	0.000000	0.001982	-0.001112	0.000000	0.000000
50.425482	10.883412	25.834345	-0.091581	0.097016	2.141659	0.000000	0.011310	0.000000	0.001652	-0.001112	0.000000	0.000000
50.758816	10.954761	25.774008	-0.122466	0.083992	2.145799	0.000000	0.011310	0.000000	0.001281	-0.001112	0.000000	0.000000
51.092149	11.046700	25.722355	-0.153351	0.070968	2.149940	0.000000	0.011310	0.000000	0.000910	-0.001112	0.000000	0.000000
51.426732	11.159463	25.679761	-0.093818	-0.150432	2.154074	0.000000	-0.006166	0.000000	0.000538	-0.001116	0.000000	0.000000
51.724055	11.223243	25.772735	-0.093227	-0.225762	2.152573	0.000000	-0.011434	0.000000	0.000207	-0.001117	0.000000	0.000000
52.165015	11.451659	25.685065	-0.427095	0.423821	2.161647	0.000000	0.050465	0.000000	-0.000286	-0.001118	0.000000	0.000000
52.605975	11.981965	25.030869	-0.780468	1.054116	2.198122	0.000000	0.112951	0.000000	-0.000781	-0.001131	0.000000	0.000000
53.046935	12.838380	23.839924	-1.169489	1.636446	2.262418	0.000000	0.176736	0.000000	-0.001285	-0.001158	0.000000	0.000000
53.487895	14.060016	22.166426	-1.611928	2.144318	2.355273	0.000000	0.242545	0.000000	-0.001804	-0.001198	0.000000	0.000000
53.933855	15.723567	20.061482	-2.132232	2.555919	2.479279	0.000000	0.311524	0.000000	-0.002350	-0.001252	0.000000	0.000000
54.482915	17.865042	17.692730	-1.745659	1.783902	2.630613	0.000000	0.236600	0.000000	-0.003014	-0.001165	0.000000	0.000000
55.031975	19.511396	16.097403	-1.235820	1.138944	2.739538	0.000000	0.157461	0.000000	-0.003625	-0.001057	0.000000	0.000000
55.581035	20.546389	15.161860	-0.638723	0.575107	2.804112	0.000000	0.075512	0.000000	-0.004172	-0.000931	0.000000	0.000000
56.130095	20.896958	14.819455	0.003464	0.052233	2.823184	0.000000	-0.007792	0.000000	-0.004644	-0.000788	0.000000	0.000000
56.428668	20.933013	14.770232	-0.067565	0.072287	2.823383	0.000000	-0.000132	0.000000	-0.004883	-0.000801	0.000000	0.000000
56.762001	20.983389	14.729603	-0.083562	0.049601	2.823606	0.000000	-0.000132	0.000000	-0.005150	-0.000801	0.000000	0.000000
57.095334	21.044429	14.704097	-0.099558	0.026915	2.823829	0.000000	-0.000132	0.000000	-0.005417	-0.000801	0.000000	0.000000
57.429918	21.116423	14.693705	-0.115615	0.004144	2.824052	0.000000	-0.000132	0.000000	-0.005685	-0.000801	0.000000	0.000000
57.727240	21.189437	14.697242	-0.187949	0.024017	2.824253	0.000000	0.007608	0.000000	-0.005923	-0.000816	0.000000	0.000000
58.276300	21.033694	14.952867	0.469515	-0.492373	2.805902	0.000000	-0.075738	0.000000	-0.006317	-0.000618	0.000000	0.000000
58.825360	20.170137	15.791306	1.093810	-1.043825	2.741985	0.000000	-0.157751	0.000000	-0.006599	-0.000409	0.000000	0.000000
59.374420	18.659754	17.272263	1.640857	-1.669611	2.633631	0.000000	-0.236973	0.000000	-0.006765	-0.000192	0.000000	0.000000
59.923480	16.609194	19.501200	2.072032	-2.414295	2.482759	0.000000	-0.311996	0.000000	-0.006810	0.000028	0.000000	0.000000
60.369440	15.002954	21.482266	1.542609	-2.009412	2.359114	0.000000	-0.242947	0.000000	-0.006837	-0.000149	0.000000	0.000000
60.810400	13.847522	23.041879	1.087755	-1.514336	2.266713	0.000000	-0.177043	0.000000	-0.006942	-0.000327	0.000000	0.000000
61.251360	13.069829	24.132759	0.682586	-0.950373	2.202976	0.000000	-0.113152	0.000000	-0.007126	-0.000508	0.000000	0.000000
61.692320	12.634357	24.705283	0.308597	-0.343179	2.167179	0.000000	-0.050544	0.000000	-0.007391	-0.000695	0.000000	0.000000
62.134530	12.521279	24.732832	-0.018482	0.214887	2.158927	0.000000	0.005821	0.000000	-0.007741	-0.000871	0.000000	0.000000
62.431853	12.539332	24.608789	-0.042235	0.202310	2.160916	0.000000	0.005821	0.000000	-0.008000	-0.000871	0.000000	0.000000
62.765186	12.576366	24.478616	-0.068866	0.188211	2.163147	0.000000	0.005821	0.000000	-0.008291	-0.000871	0.000000	0.000000
63.098520	12.631153	24.357842	-0.095496	0.174111	2.165378	0.000000	0.005821	0.000000	-0.008581	-0.000871	0.000000	0.000000
63.433103	12.704000	24.246068	-0.122227	0.159958	2.167617	0.000000	0.005821	0.000000	-0.008872	-0.000871	0.000000	0.000000
63.730426	12.783713	24.154747	-0.111992	0.082858	2.169604	0.000000	0.000053	0.000000	-0.009131	-0.000847	0.000000	0.000000
64.171386	13.044470	23.815628	-0.482026	0.683367	2.183780	0.000000	0.062442	0.000000	-0.009558	-0.001088	0.000000	0.000000
64.612346	13.639908	22.958720	-0.874064	1.252788	2.225702	0.000000	0.125553	0.000000	-0.010093	-0.001342	0.000000	0.000000
65.053306	14.597200	21.623014	-1.306007	1.765220	2.295852	0.000000	0.190109	0.000000	-0.010743	-0.001610	0.000000	0.000000
65.494266	15.960040	19.869281	-1.797576	2.197355	2.395033	0.000000	0.256846	0.000000	-0.011515	-0.001897	0.000000	0.000000
65.940226	17.814026	17.752335	-2.375629	2.530064	2.526004	0.000000	0.326893	0.000000	-0.012430	-0.002207	0.000000	0.000000
66.489286	20.188230	15.384048	-1.924768	1.809532	2.685737	0.000000	0.250346	0.000000	-0.013527	-0.001787	0.000000	0.000000
67.038346	21.989511	13.731912	-1.338066	1.217849	2.801924	0.000000	0.169330	0.000000	-0.014386	-0.001335	0.000000	0.000000
67.587406	23.090787	12.678264	-0.656937	0.712881	2.872493	0.000000	0.085291	0.000000	-0.014989	-0.000859	0.000000	0.000000
68.136466	23.414372	12.148067	0.070545	0.258671	2.896185	0.000000	-0.000275	0.000000	-0.015326	-0.000368	0.000000	0.000000
68.435038	23.416927	11.980334	-0.010925	0.267677	2.898754	0.000000	0.008225	0.000000	-0.015449	-0.000411	0.000000	0.000000
68.768372	23.428956	11.811822	-0.025161	0.237860	2.901632	0.000000	0.008225	0.000000	-0.015585	-0.000411	0.000000	0.000000
69.101705	23.450476	11.663187	-0.039398	0.208043	2.904511	0.000000	0.008225	0.000000	-0.015722	-0.000411	0.000000	0.000000
69.436288	23.481621	11.533985	-0.053688	0.178115	2.907400	0.000000	0.008225	0.000000	-0.015860	-0.000411	0.000000	0.000000
69.733611	23.517498	11.435892	-0.135708	0.185159	2.909979	0.000000	0.016803	0.000000	-0.015982	-0.000455	0.000000	0.000000
70.282671	23.262623	11.461165	0.597139	-0.231471	2.895636	0.000000	-0.069359	0.000000	-0.016089	0.000064	0.000000	0.000000
