#ParticleID	Turn	x[m]	xp	y[m]	yp	z[m]	dE[GeV]# s	beta_x	beta_y	alpha_x	alpha_y	D_x	D_y	D_px	D_py	orbit_x	orbit_px	orbit_y	orbit_py
0.300000	11.957395	25.319351	-0.020067	-0.021690	2.599756	0.000000	0.000522	0.000000	-0.000819	0.000713	0.000000	0.000000
0.601250	11.977078	25.336006	-0.045270	-0.033594	2.599698	0.000000	0.000522	0.000000	-0.000604	0.000713	0.000000	0.000000
0.898573	12.011393	25.359475	-0.040581	-0.107503	2.599641	0.000000	-0.005877	0.000000	-0.000392	0.000714	0.000000	0.000000
1.339533	12.201029	25.172833	-0.390859	0.529157	2.612936	0.000000	0.067601	0.000000	-0.000079	0.000708	0.000000	0.000000
1.780493	12.706266	24.433217	-0.759000	1.141744	2.658770	0.000000	0.141842	0.000000	0.000233	0.000710	0.000000	0.000000
2.221453	13.550195	23.174273	-1.161824	1.702384	2.737662	0.000000	0.217691	0.000000	0.000548	0.000720	0.000000	0.000000
2.662413	14.771379	21.453275	-1.617735	2.185568	2.850509	0.000000	0.296011	0.000000	0.000869	0.000738	0.000000	0.000000
3.108373	16.446710	19.323308	-2.151937	2.570478	3.000440	0.000000	0.378186	0.000000	0.001204	0.000765	0.000000	0.000000
3.657433	18.594299	16.930642	-1.735847	1.812906	3.182623	0.000000	0.285861	0.000000	0.001613	0.000720	0.000000	0.000000
4.206493	20.214520	15.294521	-1.197122	1.184465	3.312676	0.000000	0.188477	0.000000	0.001992	0.000661	0.000000	0.000000
4.755553	21.192900	14.298415	-0.573819	0.640392	3.388297	0.000000	0.087760	0.000000	0.002336	0.000591	0.000000	0.000000
5.304613	21.460304	13.871376	0.090034	0.141934	3.408150	0.000000	-0.014504	0.000000	0.002639	0.000510	0.000000	0.000000
5.603185	21.443433	13.772153	0.021280	0.155067	3.406265	0.000000	-0.005797	0.000000	0.002794	0.000517	0.000000	0.000000
5.936519	21.434431	13.677036	0.005728	0.130282	3.404160	0.000000	-0.005797	0.000000	0.002966	0.000517	0.000000	0.000000
6.269852	21.435796	13.598443	-0.009824	0.105497	3.402055	0.000000	-0.005797	0.000000	0.003138	0.000517	0.000000	0.000000
6.604435	21.447593	13.536173	-0.025434	0.080618	3.399943	0.000000	-0.005797	0.000000	0.003312	0.000517	0.000000	0.000000
6.901758	21.466849	13.494802	-0.093750	0.092839	3.398066	0.000000	0.002821	0.000000	0.003465	0.000526	0.000000	0.000000
7.450818	21.203692	13.654635	0.570460	-0.385646	3.371374	0.000000	-0.099008	0.000000	0.003723	0.000410	0.000000	0.000000
7.999878	20.228980	14.351844	1.194378	-0.891603	3.289234	0.000000	-0.199075	0.000000	0.003914	0.000286	0.000000	0.000000
8.548938	18.611568	15.636098	1.733923	-1.461076	3.153105	0.000000	-0.295605	0.000000	0.004036	0.000157	0.000000	0.000000
9.097998	16.465723	17.598885	2.150974	-2.134631	2.965404	0.000000	-0.386889	0.000000	0.004086	0.000026	0.000000	0.000000
9.543958	14.791486	19.347599	1.616446	-1.769813	2.811024	0.000000	-0.305662	0.000000	0.004121	0.000132	0.000000	0.000000
9.984918	13.571678	20.717938	1.160215	-1.325803	2.693298	0.000000	-0.228414	0.000000	0.004203	0.000239	0.000000	0.000000
10.425878	12.729456	21.668472	0.756999	-0.821463	2.608984	0.000000	-0.153770	0.000000	0.004332	0.000349	0.000000	0.000000
10.866838	12.226333	22.155944	0.388372	-0.279740	2.557122	0.000000	-0.080881	0.000000	0.004512	0.000463	0.000000	0.000000
11.309048	12.039166	22.157598	0.065569	0.222599	2.537100	0.000000	-0.014858	0.000000	0.004743	0.000571	0.000000	0.000000
11.606371	12.007550	22.029418	0.040767	0.208516	2.532512	0.000000	-0.014858	0.000000	0.004913	0.000571	0.000000	0.000000
12.086371	11.987634	21.840156	0.000726	0.185779	2.525106	0.000000	-0.014858	0.000000	0.005187	0.000571	0.000000	0.000000
12.566371	12.006157	21.672722	-0.039316	0.163043	2.517700	0.000000	-0.014858	0.000000	0.005461	0.000571	0.000000	0.000000
13.046371	12.063120	21.527114	-0.079357	0.140307	2.510294	0.000000	-0.014858	0.000000	0.005735	0.000571	0.000000	0.000000
13.526371	12.158523	21.403333	-0.119398	0.117570	2.502887	0.000000	-0.014858	0.000000	0.006009	0.000571	0.000000	0.000000
14.007621	12.292764	21.301142	-0.159544	0.094774	2.495462	0.000000	-0.014858	0.000000	0.006284	0.000571	0.000000	0.000000
14.304943	12.394995	21.248998	-0.155838	0.031982	2.490873	0.000000	-0.020587	0.000000	0.006454	0.000556	0.000000	0.000000
14.745903	12.691336	20.988383	-0.518456	0.556731	2.497082	0.000000	0.050008	0.000000	0.006737	0.000726	0.000000	0.000000
15.186863	13.316745	20.274380	-0.904773	1.056147	2.534444	0.000000	0.121166	0.000000	0.007096	0.000904	0.000000	0.000000
15.627823	14.299817	19.139475	-1.332447	1.507502	2.603382	0.000000	0.193694	0.000000	0.007536	0.001093	0.000000	0.000000
16.068783	15.685498	17.635307	-1.821027	1.890255	2.704678	0.000000	0.268418	0.000000	0.008062	0.001294	0.000000	0.000000
16.514743	17.560762	15.808749	-2.397766	2.187887	2.841179	0.000000	0.346674	0.000000	0.008687	0.001511	0.000000	0.000000
17.063803	19.968423	13.770041	-1.960017	1.546636	3.007208	0.000000	0.259750	0.000000	0.009437	0.001218	0.000000	0.000000
17.612863	21.815893	12.371296	-1.383740	1.015573	3.124334	0.000000	0.168236	0.000000	0.010020	0.000902	0.000000	0.000000
18.161923	22.972574	11.512876	-0.709662	0.556864	3.190488	0.000000	0.073753	0.000000	0.010425	0.000571	0.000000	0.000000
18.710983	23.356694	11.133629	0.014579	0.137829	3.204500	0.000000	-0.022030	0.000000	0.010645	0.000230	0.000000	0.000000
19.009556	23.384834	11.043829	-0.053656	0.136674	3.200111	0.000000	-0.014425	0.000000	0.010722	0.000256	0.000000	0.000000
19.342889	23.425370	10.962962	-0.067951	0.105927	3.195217	0.000000	-0.014425	0.000000	0.010807	0.000256	0.000000	0.000000
19.676223	23.475436	10.902593	-0.082247	0.075181	3.190324	0.000000	-0.014425	0.000000	0.010893	0.000256	0.000000	0.000000
20.010806	23.535565	10.862476	-0.213204	0.098138	3.185431	0.000000	0.001357	0.000000	0.010978	0.000311	0.000000	0.000000
20.308129	23.666358	10.812296	-0.282339	0.096110	3.185748	0.000000	0.008886	0.000000	0.011071	0.000338	0.000000	0.000000
20.857189	23.568405	10.926399	0.459763	-0.305120	3.164413	0.000000	-0.086172	0.000000	0.011158	-0.000022	0.000000	0.000000
21.406249	22.668366	11.490453	1.169373	-0.728089	3.091410	0.000000	-0.179702	0.000000	0.011047	-0.000382	0.000000	0.000000
21.955309	21.029863	12.544641	1.796338	-1.202934	2.968032	0.000000	-0.270049	0.000000	0.010740	-0.000735	0.000000	0.000000
22.504369	18.768722	14.164065	2.296344	-1.763484	2.796467	0.000000	-0.355617	0.000000	0.010242	-0.001075	0.000000	0.000000
22.950329	16.988681	15.618956	1.708077	-1.484603	2.655513	0.000000	-0.278569	0.000000	0.009821	-0.000814	0.000000	0.000000
23.391289	15.709632	16.780521	1.202807	-1.139181	2.549237	0.000000	-0.205173	0.000000	0.009517	-0.000565	0.000000	0.000000
23.832249	14.850471	17.613290	0.752518	-0.741915	2.474681	0.000000	-0.134109	0.000000	0.009321	-0.000322	0.000000	0.000000
24.273209	14.371917	18.079368	0.336626	-0.310884	2.430999	0.000000	-0.064569	0.000000	0.009232	-0.000083	0.000000	0.000000
24.715418	14.252208	18.157265	-0.032146	0.093647	2.417694	0.000000	-0.001162	0.000000	0.009248	0.000133	0.000000	0.000000
25.012741	14.277532	18.106489	-0.053029	0.077128	2.417309	0.000000	-0.001162	0.000000	0.009288	0.000133	0.000000	0.000000
25.346075	14.320689	18.061244	-0.076441	0.058609	2.416877	0.000000	-0.001162	0.000000	0.009332	0.000133	0.000000	0.000000
25.679408	14.379453	18.028344	-0.099853	0.040090	2.416445	0.000000	-0.001162	0.000000	0.009377	0.000133	0.000000	0.000000
26.013991	14.453842	18.008102	-0.006095	-0.124589	2.415987	0.000000	-0.020762	0.000000	0.009421	0.000057	0.000000	0.000000
26.311314	14.463544	18.087221	0.005560	-0.181646	2.409794	0.000000	-0.026131	0.000000	0.009438	0.000035	0.000000	0.000000
26.752274	14.637398	18.051494	-0.401198	0.262347	2.413299	0.000000	0.042344	0.000000	0.009507	0.000279	0.000000	0.000000
27.193234	15.176776	17.627936	-0.826296	0.694402	2.446976	0.000000	0.111299	0.000000	0.009685	0.000527	0.000000	0.000000
27.634194	16.106343	16.835820	-1.289167	1.094854	2.511206	0.000000	0.181517	0.000000	0.009973	0.000780	0.000000	0.000000
28.075154	17.468601	15.711191	-1.810968	1.445479	2.606720	0.000000	0.253794	0.000000	0.010374	0.001042	0.000000	0.000000
28.521114	19.349716	14.288146	-2.420690	1.731432	2.736219	0.000000	0.329429	0.000000	0.010900	0.001318	0.000000	0.000000
29.070174	21.741728	12.703395	-1.908698	1.171443	2.893860	0.000000	0.246038	0.000000	0.011525	0.000955	0.000000	0.000000
29.619234	23.493459	11.684496	-1.261797	0.694916	3.004641	0.000000	0.158296	0.000000	0.011946	0.000575	0.000000	0.000000
30.168294	24.481069	11.158864	-0.525711	0.267902	3.066601	0.000000	0.067755	0.000000	0.012155	0.000184	0.000000	0.000000
30.717354	24.634737	11.089052	0.247533	-0.140025	3.078644	0.000000	-0.023985	0.000000	0.012148	-0.000210	0.000000	0.000000
31.015927	24.524963	11.165355	0.177375	-0.141336	3.073679	0.000000	-0.016787	0.000000	0.012094	-0.000180	0.000000	0.000000
31.349260	24.411386	11.269729	0.163355	-0.171787	3.068143	0.000000	-0.016787	0.000000	0.012034	-0.000180	0.000000	0.000000
31.682593	24.307155	11.394404	0.149336	-0.202238	3.062607	0.000000	-0.016787	0.000000	0.011974	-0.000180	0.000000	0.000000
32.017177	24.211933	11.539961	0.135265	-0.232802	3.057051	0.000000	-0.016787	0.000000	0.011914	-0.000180	0.000000	0.000000
32.314499	24.135316	11.686423	0.066162	-0.232585	3.052120	0.000000	-0.009629	0.000000	0.011861	-0.000150	0.000000	0.000000
32.863559	23.649443	12.180428	0.813134	-0.672303	3.022093	0.000000	-0.100218	0.000000	0.011673	-0.000531	0.000000	0.000000
33.412619	22.369904	13.180688	1.502628	-1.159922	2.942933	0.000000	-0.189036	0.000000	0.011279	-0.000903	0.000000	0.000000
33.961679	20.387161	14.758463	2.085913	-1.730183	2.816037	0.000000	-0.274515	0.000000	0.010684	-0.001259	0.000000	0.000000
34.510739	17.841384	17.026149	2.521766	-2.423712	2.643651	0.000000	-0.355144	0.000000	0.009900	-0.001593	0.000000	0.000000
34.956699	15.863478	19.054888	1.927874	-2.105769	2.502251	0.000000	-0.282073	0.000000	0.009245	-0.001344	0.000000	0.000000
35.397659	14.389173	20.736586	1.427245	-1.692946	2.393783	0.000000	-0.212660	0.000000	0.008704	-0.001113	0.000000	0.000000
35.838619	13.326174	22.018653	0.991857	-1.203080	2.315274	0.000000	-0.145657	0.000000	0.008262	-0.000894	0.000000	0.000000
36.279579	12.625879	22.842751	0.601808	-0.658464	2.265832	0.000000	-0.080305	0.000000	0.007914	-0.000686	0.000000	0.000000
36.721789	12.255620	23.171686	0.266995	-0.136409	2.244873	0.000000	-0.020958	0.000000	0.007655	-0.000503	0.000000	0.000000
37.019112	12.104580	23.256687	0.241006	-0.149479	2.238791	0.000000	-0.020958	0.000000	0.007505	-0.000503	0.000000	0.000000
37.352445	11.953622	23.361224	0.211868	-0.164132	2.231973	0.000000	-0.020958	0.000000	0.007338	-0.000503	0.000000	0.000000
37.685779	11.822089	23.475530	0.182731	-0.178786	2.225154	0.000000	-0.020958	0.000000	0.007170	-0.000503	0.000000	0.000000
38.020362	11.709596	23.600089	0.153485	-0.193494	2.218310	0.000000	-0.020958	0.000000	0.007002	-0.000503	0.000000	0.000000
38.317684	11.626039	23.719067	0.154127	-0.261067	2.212227	0.000000	-0.026026	0.000000	0.006852	-0.000519	0.000000	0.000000
38.758644	11.639021	23.686454	-0.183820	0.334740	2.214904	0.000000	0.037340	0.000000	0.006661	-0.000345	0.000000	0.000000
39.199604	11.952660	23.133072	-0.530164	0.915312	2.245519	0.000000	0.101135	0.000000	0.006547	-0.000175	0.000000	0.000000
39.640564	12.581289	22.084109	-0.900736	1.454231	2.304424	0.000000	0.166083	0.000000	0.006507	-0.000007	0.000000	0.000000
40.081524	13.553638	20.587299	-1.312471	1.926970	2.392289	0.000000	0.232924	0.000000	0.006541	0.000161	0.000000	0.000000
40.527484	14.931696	18.688027	-1.788114	2.313488	2.511600	0.000000	0.302844	0.000000	0.006651	0.000333	0.000000	0.000000
41.076544	16.692813	16.553158	-1.400000	1.597316	2.657152	0.000000	0.226942	0.000000	0.006774	0.000115	0.000000	0.000000
41.625604	17.970459	15.138071	-0.912967	0.994940	2.759972	0.000000	0.147015	0.000000	0.006777	-0.000104	0.000000	0.000000
42.174664	18.674353	14.341953	-0.361430	0.463445	2.818237	0.000000	0.064478	0.000000	0.006660	-0.000322	0.000000	0.000000
42.723724	18.754759	14.108086	0.215638	-0.035031	2.830911	0.000000	-0.019208	0.000000	0.006424	-0.000534	0.000000	0.000000
43.022297	18.658517	14.114469	0.152944	-0.021242	2.827416	0.000000	-0.012217	0.000000	0.006270	-0.000518	0.000000	0.000000
43.502297	18.524327	14.151193	0.126617	-0.055265	2.821801	0.000000	-0.012217	0.000000	0.006021	-0.000518	0.000000	0.000000
43.982297	18.415412	14.220578	0.100289	-0.089288	2.816185	0.000000	-0.012217	0.000000	0.005773	-0.000518	0.000000	0.000000
44.462297	18.331772	14.322626	0.073962	-0.123311	2.810570	0.000000	-0.012217	0.000000	0.005524	-0.000518	0.000000	0.000000
44.942297	18.273405	14.457335	0.047635	-0.157334	2.804954	0.000000	-0.012217	0.000000	0.005276	-0.000518	0.000000	0.000000
45.423547	18.240485	14.625004	-0.069134	-0.118984	2.799342	0.000000	0.001653	0.000000	0.005026	-0.000493	0.000000	0.000000
45.720870	18.286478	14.701878	-0.131314	-0.102882	2.799981	0.000000	0.008666	0.000000	0.004880	-0.000480	0.000000	0.000000
46.269930	18.122516	15.098877	0.427859	-0.624391	2.782330	0.000000	-0.073933	0.000000	0.004574	-0.000634	0.000000	0.000000
46.818990	17.357485	16.089509	0.956793	-1.190378	2.719694	0.000000	-0.155230	0.000000	0.004186	-0.000776	0.000000	0.000000
47.368050	16.045453	17.744331	1.418118	-1.841159	2.613178	0.000000	-0.233786	0.000000	0.003724	-0.000904	0.000000	0.000000
47.917110	14.279135	20.181209	1.779243	-2.623091	2.464667	0.000000	-0.308210	0.000000	0.003197	-0.001016	0.000000	0.000000
48.363070	12.903517	22.347228	1.315800	-2.213295	2.343004	0.000000	-0.239557	0.000000	0.002761	-0.000939	0.000000	0.000000
48.804030	11.922798	24.081335	0.916289	-1.704167	2.252285	0.000000	-0.174032	0.000000	0.002362	-0.000873	0.000000	0.000000
49.244990	11.274723	25.330369	0.558651	-1.117499	2.189973	0.000000	-0.110480	0.000000	0.001990	-0.000816	0.000000	0.000000
49.685950	10.929672	26.037505	0.226545	-0.479986	2.155363	0.000000	-0.048177	0.000000	0.001641	-0.000770	0.000000	0.000000
50.128160	10.872045	26.170284	-0.068992	0.116209	2.148076	0.000000	0.008383	0.000000	0.001309	-0.000735	0.000000	0.000000
50.425482	10.921240	26.104605	-0.096469	0.104694	2.150787	0.000000	0.008383	0.000000	0.001091	-0.000735	0.000000	0.000000
50.758816	10.995822	26.039112	-0.127275	0.091785	2.153826	0.000000	0.008383	0.000000	0.000846	-0.000735	0.000000	0.000000
51.092149	11.090940	25.982225	-0.158080	0.078876	2.156865	0.000000	0.008383	0.000000	0.000601	-0.000735	0.000000	0.000000
51.426732	11.206841	25.934305	-0.098084	-0.144473	2.159894	0.000000	-0.009139	0.000000	0.000355	-0.000738	0.000000	0.000000
51.724055	11.273131	26.023696	-0.097261	-0.220187	2.157396	0.000000	-0.014423	0.000000	0.000136	-0.000738	0.000000	0.000000
52.165015	11.505690	25.928198	-0.432373	0.435932	2.165015	0.000000	0.047582	0.000000	-0.000189	-0.000739	0.000000	0.000000
52.605975	12.041343	25.260629	-0.787233	1.072213	2.200073	0.000000	0.110137	0.000000	-0.000517	-0.000748	0.000000	0.000000
53.046935	12.904554	24.051371	-1.178053	1.659707	2.262971	0.000000	0.173954	0.000000	-0.000850	-0.000765	0.000000	0.000000
53.487895	14.134753	22.355451	-1.622687	2.171686	2.354430	0.000000	0.239760	0.000000	-0.001193	-0.000792	0.000000	0.000000
53.933855	15.809163	20.224695	-2.145722	2.586168	2.477010	0.000000	0.308702	0.000000	-0.001554	-0.000827	0.000000	0.000000
54.482915	17.964410	17.826629	-1.756865	1.807306	2.626603	0.000000	0.233877	0.000000	-0.001993	-0.000770	0.000000	0.000000
55.031975	19.621573	16.208555	-1.243938	1.157171	2.733875	0.000000	0.154890	0.000000	-0.002397	-0.000699	0.000000	0.000000
55.581035	20.663629	15.255214	-0.643167	0.589456	2.796915	0.000000	0.073146	0.000000	-0.002758	-0.000615	0.000000	0.000000
56.130095	21.017002	14.898697	0.003015	0.063726	2.814601	0.000000	-0.009906	0.000000	-0.003070	-0.000521	0.000000	0.000000
56.428668	21.053078	14.842791	-0.067547	0.083501	2.814053	0.000000	-0.002364	0.000000	-0.003228	-0.000529	0.000000	0.000000
56.762001	21.103411	14.794661	-0.083453	0.060887	2.813441	0.000000	-0.002364	0.000000	-0.003405	-0.000529	0.000000	0.000000
57.095334	21.164348	14.761608	-0.099358	0.038273	2.812829	0.000000	-0.002364	0.000000	-0.003581	-0.000529	0.000000	0.000000
57.429918	21.236176	14.743592	-0.115323	0.015574	2.812215	0.000000	-0.002364	0.000000	-0.003758	-0.000529	0.000000	0.000000
57.727240	21.308980	14.740321	-0.186992	0.035054	2.811670	0.000000	0.005220	0.000000	-0.003915	-0.000539	0.000000	0.000000
58.276300	21.150055	14.984419	0.474457	-0.482278	2.791994	0.000000	-0.077702	0.000000	-0.004176	-0.000408	0.000000	0.000000
58.825360	20.279058	15.811987	1.102391	-1.033956	2.727031	0.000000	-0.159252	0.000000	-0.004362	-0.000270	0.000000	0.000000
59.374420	18.757505	17.281961	1.652466	-1.659270	2.617929	0.000000	-0.237983	0.000000	-0.004471	-0.000127	0.000000	0.000000
59.923480	16.692847	19.499028	2.085839	-2.402754	2.466622	0.000000	-0.312495	0.000000	-0.004501	0.000018	0.000000	0.000000
60.369440	15.075558	21.469335	1.553648	-1.996875	2.342653	0.000000	-0.243857	0.000000	-0.004519	-0.000099	0.000000	0.000000
60.810400	13.911364	23.017741	1.096607	-1.501436	2.249720	0.000000	-0.178381	0.000000	-0.004588	-0.000216	0.000000	0.000000
61.251360	13.126674	24.097336	0.689659	-0.937693	2.185233	0.000000	-0.114933	0.000000	-0.004710	-0.000336	0.000000	0.000000
61.692320	12.685643	24.659006	0.314217	-0.331292	2.148461	0.000000	-0.052791	0.000000	-0.004885	-0.000459	0.000000	0.000000
62.134530	12.568171	24.676617	-0.014676	0.226931	2.138990	0.000000	0.003259	0.000000	-0.005116	-0.000575	0.000000	0.000000
62.431853	12.583934	24.545440	-0.038338	0.214262	2.140130	0.000000	0.003259	0.000000	-0.005287	-0.000575	0.000000	0.000000
62.765186	12.618335	24.407334	-0.064866	0.200058	2.141409	0.000000	0.003259	0.000000	-0.005479	-0.000575	0.000000	0.000000
63.098520	12.670422	24.278696	-0.091394	0.185854	2.142687	0.000000	0.003259	0.000000	-0.005671	-0.000575	0.000000	0.000000
63.433103	12.740489	24.159099	-0.118021	0.171597	2.143969	0.000000	0.003259	0.000000	-0.005863	-0.000575	0.000000	0.000000
63.730426	12.817691	24.060852	-0.108486	0.096416	2.145108	0.000000	-0.002297	0.000000	-0.006035	-0.000560	0.000000	0.000000
64.171386	13.075748	23.710959	-0.479237	0.694115	2.157969	0.000000	0.059449	0.000000	-0.006316	-0.000719	0.000000	0.000000
64.612346	13.669092	22.845957	-0.871870	1.260236	2.198249	0.000000	0.121879	0.000000	-0.006670	-0.000887	0.000000	0.000000
65.053306	14.624812	21.505204	-1.304317	1.769024	2.266410	0.000000	0.185707	0.000000	-0.007100	-0.001064	0.000000	0.000000
65.494266	15.986544	19.749700	-1.796327	2.197337	2.363233	0.000000	0.251661	0.000000	-0.007611	-0.001254	0.000000	0.000000
65.940226	17.839772	17.634460	-2.374892	2.526264	2.491405	0.000000	0.320870	0.000000	-0.008215	-0.001459	0.000000	0.000000
66.489286	20.212804	15.268688	-1.922758	1.808458	2.647797	0.000000	0.245485	0.000000	-0.008941	-0.001181	0.000000	0.000000
67.038346	22.011515	13.616161	-1.334886	1.219439	2.761385	0.000000	0.165728	0.000000	-0.009508	-0.000882	0.000000	0.000000
67.587406	23.108950	12.559183	-0.652782	0.717257	2.830148	0.000000	0.083017	0.000000	-0.009907	-0.000568	0.000000	0.000000
68.136466	23.427659	12.022477	0.075399	0.266152	2.852860	0.000000	-0.001174	0.000000	-0.010130	-0.000243	0.000000	0.000000
68.435038	23.425943	11.851334	-0.003616	0.273127	2.854996	0.000000	0.006896	0.000000	-0.010210	-0.000271	0.000000	0.000000
68.768372	23.433097	11.679323	-0.017846	0.242903	2.857385	0.000000	0.006896	0.000000	-0.010301	-0.000271	0.000000	0.000000
69.101705	23.449737	11.527463	-0.032075	0.212679	2.859773	0.000000	0.006896	0.000000	-0.010391	-0.000271	0.000000	0.000000
69.436288	23.475979	11.395296	-0.046358	0.182341	2.862171	0.000000	0.006896	0.000000	-0.010482	-0.000271	0.000000	0.000000
69.733611	23.507396	11.294847	-0.125752	0.187385	2.864307	0.000000	0.015023	0.000000	-0.010562	-0.000300	0.000000	0.000000
70.282671	23.241811	11.315521	0.606585	-0.225266	2.849354	0.000000	-0.069664	0.000000	-0.010633	0.000044	0.000000	0.000000
