#ParticleID	Turn	x[m]	xp	y[m]	yp	z[m]	dE[GeV]# s	beta_x	beta_y	alpha_x	alpha_y	D_x	D_y	D_px	D_py	orbit_x	orbit_px	orbit_y	orbit_py
0.300000	11.964591	25.325387	-0.019485	-0.021814	2.598616	0.000000	0.000245	0.000000	-0.000945	0.000818	0.000000	0.000000
0.601250	11.983919	25.342116	-0.044673	-0.033715	2.598444	0.000000	0.000245	0.000000	-0.000699	0.000818	0.000000	0.000000
0.898573	12.017875	25.365657	-0.039934	-0.107636	2.598274	0.000000	-0.006154	0.000000	-0.000456	0.000819	0.000000	0.000000
1.339533	12.207016	25.179059	-0.390344	0.529190	2.611394	0.000000	0.067287	0.000000	-0.000096	0.000812	0.000000	0.000000
1.780493	12.711865	24.439341	-0.758594	1.141940	2.657036	0.000000	0.141485	0.000000	0.000262	0.000814	0.000000	0.000000
2.221453	13.555494	23.180152	-1.161509	1.702736	2.735716	0.000000	0.217287	0.000000	0.000623	0.000826	0.000000	0.000000
2.662413	14.776457	21.458778	-1.617498	2.186060	2.848328	0.000000	0.295554	0.000000	0.000992	0.000847	0.000000	0.000000
3.108373	16.451636	19.328312	-2.151772	2.571092	2.997995	0.000000	0.377669	0.000000	0.001376	0.000877	0.000000	0.000000
3.657433	18.598950	16.935065	-1.735447	1.813342	3.179860	0.000000	0.285428	0.000000	0.001844	0.000825	0.000000	0.000000
4.206493	20.218651	15.298541	-1.196513	1.184755	3.309648	0.000000	0.188137	0.000000	0.002279	0.000758	0.000000	0.000000
4.755553	21.196299	14.302181	-0.573040	0.640557	3.385062	0.000000	0.087521	0.000000	0.002674	0.000678	0.000000	0.000000
5.304613	21.462807	13.875022	0.090929	0.141986	3.404769	0.000000	-0.014637	0.000000	0.003022	0.000586	0.000000	0.000000
5.603185	21.445296	13.775840	0.022351	0.155002	3.402810	0.000000	-0.005968	0.000000	0.003199	0.000594	0.000000	0.000000
5.936519	21.435579	13.680765	0.006800	0.130224	3.400623	0.000000	-0.005968	0.000000	0.003397	0.000594	0.000000	0.000000
6.269852	21.436229	13.602208	-0.008751	0.105446	3.398435	0.000000	-0.005968	0.000000	0.003594	0.000594	0.000000	0.000000
6.604435	21.447308	13.539969	-0.024361	0.080574	3.396240	0.000000	-0.005968	0.000000	0.003793	0.000594	0.000000	0.000000
6.901758	21.465928	13.498621	-0.092432	0.092674	3.394290	0.000000	0.002602	0.000000	0.003970	0.000604	0.000000	0.000000
7.450818	21.201369	13.658701	0.571718	-0.385931	3.367475	0.000000	-0.099105	0.000000	0.004265	0.000470	0.000000	0.000000
7.999878	20.225359	14.356304	1.195487	-0.892031	3.285288	0.000000	-0.199046	0.000000	0.004485	0.000329	0.000000	0.000000
8.548938	18.606844	15.641131	1.734803	-1.461678	3.149191	0.000000	-0.295450	0.000000	0.004625	0.000181	0.000000	0.000000
9.097998	16.460175	17.604710	2.151561	-2.135451	2.961601	0.000000	-0.386611	0.000000	0.004683	0.000030	0.000000	0.000000
9.543958	14.785395	19.354110	1.617052	-1.770486	2.807317	0.000000	-0.305478	0.000000	0.004723	0.000152	0.000000	0.000000
9.984918	13.565022	20.724984	1.160883	-1.326312	2.689638	0.000000	-0.228323	0.000000	0.004818	0.000275	0.000000	0.000000
10.425878	12.722171	21.675893	0.757761	-0.821783	2.605325	0.000000	-0.153772	0.000000	0.004967	0.000401	0.000000	0.000000
10.866838	12.218328	22.163563	0.389262	-0.279857	2.553415	0.000000	-0.080977	0.000000	0.005172	0.000532	0.000000	0.000000
11.309048	12.030315	22.165222	0.066409	0.223015	2.533296	0.000000	-0.014999	0.000000	0.005438	0.000656	0.000000	0.000000
11.606371	11.998206	22.036794	0.041586	0.208934	2.528642	0.000000	-0.014999	0.000000	0.005633	0.000656	0.000000	0.000000
12.086371	11.977520	21.847129	0.001511	0.186201	2.521127	0.000000	-0.014999	0.000000	0.005947	0.000656	0.000000	0.000000
12.566371	11.995306	21.679288	-0.038565	0.163468	2.513613	0.000000	-0.014999	0.000000	0.006262	0.000656	0.000000	0.000000
13.046371	12.051564	21.533270	-0.078640	0.140736	2.506099	0.000000	-0.014999	0.000000	0.006577	0.000656	0.000000	0.000000
13.526371	12.146294	21.409075	-0.118715	0.118003	2.498584	0.000000	-0.014999	0.000000	0.006892	0.000656	0.000000	0.000000
14.007621	12.279894	21.306466	-0.158895	0.095211	2.491050	0.000000	-0.014999	0.000000	0.007207	0.000656	0.000000	0.000000
14.304943	12.381740	21.254070	-0.155522	0.032918	2.486394	0.000000	-0.020661	0.000000	0.007402	0.000638	0.000000	0.000000
14.745903	12.677689	20.992568	-0.517834	0.557787	2.492505	0.000000	0.049820	0.000000	0.007726	0.000833	0.000000	0.000000
15.186863	13.302434	20.277588	-0.903819	1.057275	2.529707	0.000000	0.120859	0.000000	0.008139	0.001038	0.000000	0.000000
15.627823	14.284544	19.141659	-1.331120	1.508648	2.598422	0.000000	0.193264	0.000000	0.008644	0.001254	0.000000	0.000000
16.068783	15.668925	17.636467	-1.819270	1.891366	2.699426	0.000000	0.267858	0.000000	0.009247	0.001485	0.000000	0.000000
16.514743	17.542508	15.808894	-2.395526	2.188940	2.835563	0.000000	0.345979	0.000000	0.009964	0.001734	0.000000	0.000000
17.063803	19.948091	13.769073	-1.958301	1.547550	3.001158	0.000000	0.259240	0.000000	0.010825	0.001397	0.000000	0.000000
17.612863	21.794107	12.369340	-1.382659	1.016418	3.117978	0.000000	0.167923	0.000000	0.011494	0.001036	0.000000	0.000000
18.161923	22.950044	11.509983	-0.709281	0.557702	3.183960	0.000000	0.073644	0.000000	0.011959	0.000656	0.000000	0.000000
18.710983	23.334174	11.129784	0.014237	0.138721	3.197938	0.000000	-0.021931	0.000000	0.012212	0.000264	0.000000	0.000000
19.009556	23.361959	11.039718	-0.053109	0.137132	3.193527	0.000000	-0.014458	0.000000	0.012300	0.000294	0.000000	0.000000
19.342889	23.402134	10.958550	-0.067417	0.106371	3.188609	0.000000	-0.014458	0.000000	0.012398	0.000294	0.000000	0.000000
19.676223	23.451848	10.897890	-0.081725	0.075609	3.183692	0.000000	-0.014458	0.000000	0.012496	0.000294	0.000000	0.000000
20.010806	23.511632	10.857492	-0.212577	0.098526	3.178776	0.000000	0.001291	0.000000	0.012595	0.000356	0.000000	0.000000
20.308129	23.642082	10.807073	-0.280768	0.096069	3.179061	0.000000	0.008683	0.000000	0.012701	0.000388	0.000000	0.000000
20.857189	23.542842	10.921151	0.460532	-0.305026	3.157661	0.000000	-0.086162	0.000000	0.012800	-0.000025	0.000000	0.000000
21.406249	22.642396	11.485038	1.169284	-0.727855	3.084736	0.000000	-0.179478	0.000000	0.012673	-0.000438	0.000000	0.000000
21.955309	21.004400	12.538910	1.795389	-1.202545	2.961579	0.000000	-0.269617	0.000000	0.012320	-0.000843	0.000000	0.000000
22.504369	18.744657	14.157847	2.294592	-1.762916	2.790372	0.000000	-0.354986	0.000000	0.011750	-0.001233	0.000000	0.000000
22.950329	16.965838	15.612334	1.706864	-1.484160	2.649721	0.000000	-0.278085	0.000000	0.011266	-0.000934	0.000000	0.000000
23.391289	15.687580	16.773608	1.202113	-1.138913	2.543667	0.000000	-0.204833	0.000000	0.010918	-0.000648	0.000000	0.000000
23.832249	14.828784	17.606238	0.752316	-0.741831	2.469257	0.000000	-0.133908	0.000000	0.010693	-0.000370	0.000000	0.000000
24.273209	14.350180	18.072333	0.336909	-0.310987	2.425645	0.000000	-0.064505	0.000000	0.010591	-0.000095	0.000000	0.000000
24.715418	14.230013	18.150388	-0.031886	0.093974	2.412337	0.000000	-0.001141	0.000000	0.010609	0.000153	0.000000	0.000000
25.012741	14.255192	18.099420	-0.052802	0.077449	2.411952	0.000000	-0.001141	0.000000	0.010655	0.000153	0.000000	0.000000
25.346075	14.298209	18.053963	-0.076250	0.058921	2.411520	0.000000	-0.001141	0.000000	0.010706	0.000153	0.000000	0.000000
25.679408	14.356859	18.020858	-0.099698	0.040394	2.411089	0.000000	-0.001141	0.000000	0.010757	0.000153	0.000000	0.000000
26.013991	14.431156	18.000415	-0.006160	-0.124231	2.410632	0.000000	-0.020698	0.000000	0.010808	0.000065	0.000000	0.000000
26.311314	14.440895	18.079337	0.004922	-0.180662	2.404454	0.000000	-0.025974	0.000000	0.010827	0.000040	0.000000	0.000000
26.752274	14.615093	18.042834	-0.401326	0.263114	2.407989	0.000000	0.042367	0.000000	0.010907	0.000321	0.000000	0.000000
27.193234	15.154384	17.618702	-0.825921	0.694914	2.441621	0.000000	0.111187	0.000000	0.011111	0.000604	0.000000	0.000000
27.634194	16.083431	16.826238	-1.288273	1.095089	2.505732	0.000000	0.181267	0.000000	0.011441	0.000895	0.000000	0.000000
28.075154	17.444718	15.701506	-1.809522	1.445423	2.601050	0.000000	0.253403	0.000000	0.011902	0.001196	0.000000	0.000000
28.521114	19.324404	14.278574	-2.418662	1.731118	2.730274	0.000000	0.328896	0.000000	0.012505	0.001513	0.000000	0.000000
29.070174	21.714745	12.694005	-1.907497	1.171355	2.887589	0.000000	0.245697	0.000000	0.013223	0.001096	0.000000	0.000000
29.619234	23.465730	11.675054	-1.261494	0.695053	2.998182	0.000000	0.158157	0.000000	0.013705	0.000659	0.000000	0.000000
30.168294	24.453556	11.149130	-0.526319	0.268275	3.060094	0.000000	0.067821	0.000000	0.013945	0.000211	0.000000	0.000000
30.717354	24.608377	11.078764	0.246060	-0.139387	3.072231	0.000000	-0.023714	0.000000	0.013937	-0.000240	0.000000	0.000000
31.015927	24.498799	11.154997	0.176983	-0.141206	3.067309	0.000000	-0.016660	0.000000	0.013875	-0.000206	0.000000	0.000000
31.349260	24.385488	11.259294	0.162951	-0.171684	3.061825	0.000000	-0.016660	0.000000	0.013807	-0.000206	0.000000	0.000000
31.682593	24.281532	11.383909	0.148919	-0.202162	3.056340	0.000000	-0.016660	0.000000	0.013738	-0.000206	0.000000	0.000000
32.017177	24.186593	11.529425	0.134834	-0.232754	3.050835	0.000000	-0.016660	0.000000	0.013669	-0.000206	0.000000	0.000000
32.314499	24.110267	11.675851	0.066762	-0.233066	3.045951	0.000000	-0.009641	0.000000	0.013608	-0.000173	0.000000	0.000000
32.863559	23.624148	12.170250	0.812923	-0.672524	3.015998	0.000000	-0.100035	0.000000	0.013392	-0.000610	0.000000	0.000000
33.412619	22.345215	13.170643	1.501615	-1.159900	2.937043	0.000000	-0.188664	0.000000	0.012940	-0.001037	0.000000	0.000000
33.961679	20.363900	14.748300	2.084159	-1.729920	2.810483	0.000000	-0.273963	0.000000	0.012257	-0.001445	0.000000	0.000000
34.510739	17.820289	17.015609	2.519380	-2.423195	2.638555	0.000000	-0.354423	0.000000	0.011357	-0.001828	0.000000	0.000000
34.956699	15.844154	19.044070	1.926025	-2.105531	2.497537	0.000000	-0.281473	0.000000	0.010606	-0.001543	0.000000	0.000000
35.397659	14.371199	20.725733	1.425879	-1.693031	2.389384	0.000000	-0.212175	0.000000	0.009985	-0.001277	0.000000	0.000000
35.838619	13.309168	22.008038	0.990917	-1.203481	2.311125	0.000000	-0.145281	0.000000	0.009477	-0.001026	0.000000	0.000000
36.279579	12.609498	22.832638	0.601255	-0.659163	2.261875	0.000000	-0.080031	0.000000	0.009078	-0.000787	0.000000	0.000000
36.721789	12.239554	23.162301	0.266436	-0.136697	2.241053	0.000000	-0.020713	0.000000	0.008781	-0.000578	0.000000	0.000000
37.019112	12.088854	23.247475	0.240419	-0.149774	2.235066	0.000000	-0.020713	0.000000	0.008609	-0.000578	0.000000	0.000000
37.352445	11.938297	23.352211	0.211252	-0.164434	2.228354	0.000000	-0.020713	0.000000	0.008416	-0.000578	0.000000	0.000000
37.685779	11.807185	23.466720	0.182084	-0.179094	2.221643	0.000000	-0.020713	0.000000	0.008224	-0.000578	0.000000	0.000000
38.020362	11.695136	23.591488	0.152808	-0.193809	2.214905	0.000000	-0.020713	0.000000	0.008030	-0.000578	0.000000	0.000000
38.317684	11.611984	23.710666	0.153110	-0.260820	2.208917	0.000000	-0.025720	0.000000	0.007859	-0.000596	0.000000	0.000000
38.758644	11.625719	23.677929	-0.184539	0.334769	2.211738	0.000000	0.037564	0.000000	0.007640	-0.000396	0.000000	0.000000
39.199604	11.939873	23.124612	-0.530618	0.915122	2.242452	0.000000	0.101280	0.000000	0.007508	-0.000201	0.000000	0.000000
39.640564	12.568800	22.075896	-0.900946	1.453828	2.301410	0.000000	0.166152	0.000000	0.007462	-0.000008	0.000000	0.000000
40.081524	13.541247	20.579509	-1.312449	1.926372	2.389285	0.000000	0.232917	0.000000	0.007501	0.000185	0.000000	0.000000
40.527484	14.919223	18.680803	-1.787879	2.312742	2.508563	0.000000	0.302763	0.000000	0.007627	0.000381	0.000000	0.000000
41.076544	16.680385	16.546594	-1.400255	1.596801	2.654082	0.000000	0.226957	0.000000	0.007768	0.000132	0.000000	0.000000
41.625604	17.958591	15.131942	-0.913690	0.994620	2.756939	0.000000	0.147127	0.000000	0.007771	-0.000120	0.000000	0.000000
42.174664	18.663514	14.336067	-0.362567	0.463301	2.815309	0.000000	0.064684	0.000000	0.007637	-0.000370	0.000000	0.000000
42.723724	18.745343	14.102265	0.214167	-0.035010	2.828154	0.000000	-0.018912	0.000000	0.007366	-0.000613	0.000000	0.000000
43.022297	18.649720	14.108822	0.151895	-0.021529	2.824750	0.000000	-0.011988	0.000000	0.007189	-0.000594	0.000000	0.000000
43.502297	18.516540	14.145827	0.125563	-0.055566	2.819281	0.000000	-0.011988	0.000000	0.006904	-0.000594	0.000000	0.000000
43.982297	18.408638	14.215509	0.099232	-0.089603	2.813812	0.000000	-0.011988	0.000000	0.006618	-0.000594	0.000000	0.000000
44.462297	18.326014	14.317865	0.072900	-0.123640	2.808343	0.000000	-0.011988	0.000000	0.006333	-0.000594	0.000000	0.000000
44.942297	18.268669	14.452898	0.046569	-0.157677	2.802874	0.000000	-0.011988	0.000000	0.006048	-0.000594	0.000000	0.000000
45.423547	18.236778	14.620904	-0.070186	-0.119362	2.797408	0.000000	0.001872	0.000000	0.005762	-0.000566	0.000000	0.000000
45.720870	18.283402	14.698001	-0.132070	-0.103528	2.798134	0.000000	0.008835	0.000000	0.005594	-0.000551	0.000000	0.000000
46.269930	18.120289	15.095665	0.427031	-0.624954	2.780635	0.000000	-0.073708	0.000000	0.005242	-0.000727	0.000000	0.000000
46.818990	17.356146	16.086897	0.955949	-1.190899	2.718191	0.000000	-0.154955	0.000000	0.004798	-0.000890	0.000000	0.000000
47.368050	16.044981	17.742298	1.417313	-1.841676	2.611903	0.000000	-0.233467	0.000000	0.004268	-0.001037	0.000000	0.000000
47.917110	14.279453	20.179776	1.778531	-2.623641	2.463651	0.000000	-0.307856	0.000000	0.003663	-0.001165	0.000000	0.000000
48.363070	12.904413	22.346337	1.315134	-2.213927	2.342202	0.000000	-0.239225	0.000000	0.003163	-0.001077	0.000000	0.000000
48.804030	11.924242	24.081042	0.915648	-1.704864	2.251681	0.000000	-0.173717	0.000000	0.002706	-0.001001	0.000000	0.000000
49.244990	11.276710	25.330714	0.558007	-1.118229	2.189559	0.000000	-0.110177	0.000000	0.002279	-0.000937	0.000000	0.000000
49.685950	10.932221	26.038500	0.225870	-0.480716	2.155130	0.000000	-0.047883	0.000000	0.001878	-0.000883	0.000000	0.000000
50.128160	10.875200	26.171912	-0.069768	0.115663	2.148018	0.000000	0.008684	0.000000	0.001497	-0.000843	0.000000	0.000000
50.425482	10.924856	26.106556	-0.097240	0.104151	2.150851	0.000000	0.008684	0.000000	0.001247	-0.000843	0.000000	0.000000
50.758816	10.999949	26.041425	-0.128040	0.091244	2.154026	0.000000	0.008684	0.000000	0.000966	-0.000843	0.000000	0.000000
51.092149	11.095576	25.984897	-0.158840	0.078337	2.157202	0.000000	0.008684	0.000000	0.000685	-0.000843	0.000000	0.000000
51.426732	11.211983	25.937337	-0.098797	-0.145034	2.160368	0.000000	-0.008843	0.000000	0.000402	-0.000846	0.000000	0.000000
51.724055	11.278694	26.027061	-0.097955	-0.220788	2.157990	0.000000	-0.014127	0.000000	0.000151	-0.000847	0.000000	0.000000
52.165015	11.511911	25.932052	-0.433213	0.435429	2.165790	0.000000	0.047895	0.000000	-0.000223	-0.000848	0.000000	0.000000
52.605975	12.048367	25.264876	-0.788256	1.071830	2.201037	0.000000	0.110472	0.000000	-0.000598	-0.000858	0.000000	0.000000
53.046935	12.912560	24.055898	-1.179306	1.659462	2.264137	0.000000	0.174317	0.000000	-0.000981	-0.000879	0.000000	0.000000
53.487895	14.143962	22.360132	-1.624226	2.171589	2.355812	0.000000	0.240156	0.000000	-0.001375	-0.000909	0.000000	0.000000
53.933855	15.819871	20.229400	-2.147612	2.586220	2.478628	0.000000	0.309136	0.000000	-0.001789	-0.000950	0.000000	0.000000
54.482915	17.977026	17.831344	-1.758500	1.807250	2.628507	0.000000	0.234254	0.000000	-0.002293	-0.000884	0.000000	0.000000
55.031975	19.635750	16.213399	-1.245204	1.157004	2.736025	0.000000	0.155203	0.000000	-0.002757	-0.000802	0.000000	0.000000
55.581035	20.678917	15.260313	-0.643980	0.589165	2.799269	0.000000	0.073387	0.000000	-0.003172	-0.000706	0.000000	0.000000
56.130095	21.032877	14.904194	0.002712	0.063291	2.817111	0.000000	-0.009743	0.000000	-0.003530	-0.000598	0.000000	0.000000
56.428668	21.069279	14.848440	-0.068092	0.083253	2.816645	0.000000	-0.002166	0.000000	-0.003711	-0.000607	0.000000	0.000000
56.762001	21.119972	14.800473	-0.083986	0.060648	2.816125	0.000000	-0.002166	0.000000	-0.003913	-0.000607	0.000000	0.000000
57.095334	21.181260	14.767575	-0.099880	0.038044	2.815605	0.000000	-0.002166	0.000000	-0.004116	-0.000607	0.000000	0.000000
57.429918	21.253435	14.749709	-0.115834	0.015354	2.815083	0.000000	-0.002166	0.000000	-0.004319	-0.000607	0.000000	0.000000
57.727240	21.326543	14.746565	-0.187807	0.035028	2.814621	0.000000	0.005462	0.000000	-0.004499	-0.000619	0.000000	0.000000
58.276300	21.168169	14.990789	0.474235	-0.482488	2.795088	0.000000	-0.077557	0.000000	-0.004798	-0.000468	0.000000	0.000000
58.825360	20.297073	15.818688	1.102776	-1.034365	2.730203	0.000000	-0.159208	0.000000	-0.005012	-0.000309	0.000000	0.000000
59.374420	18.774780	17.289217	1.653433	-1.659904	2.621114	0.000000	-0.238040	0.000000	-0.005137	-0.000145	0.000000	0.000000
59.923480	16.708787	19.507102	2.087322	-2.403657	2.469754	0.000000	-0.312653	0.000000	-0.005171	0.000022	0.000000	0.000000
60.369440	15.090357	21.478133	1.554740	-1.997605	2.345735	0.000000	-0.243938	0.000000	-0.005191	-0.000112	0.000000	0.000000
60.810400	13.925366	23.027073	1.097347	-1.501946	2.252794	0.000000	-0.178383	0.000000	-0.005270	-0.000247	0.000000	0.000000
61.251360	13.140167	24.107002	0.690078	-0.937961	2.188341	0.000000	-0.114857	0.000000	-0.005409	-0.000385	0.000000	0.000000
61.692320	12.698897	24.668792	0.314333	-0.331308	2.151645	0.000000	-0.052635	0.000000	-0.005610	-0.000527	0.000000	0.000000
62.134530	12.581445	24.686300	-0.014607	0.226752	2.142295	0.000000	0.003452	0.000000	-0.005876	-0.000660	0.000000	0.000000
62.431853	12.597159	24.555227	-0.038244	0.214089	2.143518	0.000000	0.003452	0.000000	-0.006072	-0.000660	0.000000	0.000000
62.765186	12.631488	24.417234	-0.064744	0.199892	2.144889	0.000000	0.003452	0.000000	-0.006292	-0.000660	0.000000	0.000000
63.098520	12.683484	24.288705	-0.091244	0.185695	2.146260	0.000000	0.003452	0.000000	-0.006512	-0.000660	0.000000	0.000000
63.433103	12.753441	24.169211	-0.117843	0.171445	2.147636	0.000000	0.003452	0.000000	-0.006733	-0.000660	0.000000	0.000000
63.730426	12.830525	24.071062	-0.107993	0.095731	2.148857	0.000000	-0.002156	0.000000	-0.006929	-0.000643	0.000000	0.000000
64.171386	13.088250	23.721655	-0.479017	0.693711	2.161841	0.000000	0.059686	0.000000	-0.007252	-0.000825	0.000000	0.000000
64.612346	13.681489	22.856890	-0.871913	1.260131	2.202297	0.000000	0.122217	0.000000	-0.007658	-0.001017	0.000000	0.000000
65.053306	14.637323	21.516114	-1.304621	1.769225	2.270691	0.000000	0.186151	0.000000	-0.008151	-0.001221	0.000000	0.000000
65.494266	15.999388	19.760329	-1.796903	2.197835	2.367805	0.000000	0.252217	0.000000	-0.008737	-0.001439	0.000000	0.000000
65.940226	17.853205	17.644533	-2.375730	2.527020	2.496338	0.000000	0.321543	0.000000	-0.009431	-0.001674	0.000000	0.000000
66.489286	20.226805	15.278129	-1.923129	1.808937	2.653156	0.000000	0.245995	0.000000	-0.010264	-0.001355	0.000000	0.000000
67.038346	22.025573	13.625247	-1.334775	1.219670	2.767055	0.000000	0.166063	0.000000	-0.010915	-0.001012	0.000000	0.000000
67.587406	23.122567	12.568166	-0.652205	0.717254	2.836006	0.000000	0.083169	0.000000	-0.011372	-0.000651	0.000000	0.000000
68.136466	23.440379	12.031603	0.076397	0.265913	2.858782	0.000000	-0.001209	0.000000	-0.011628	-0.000279	0.000000	0.000000
68.435038	23.438496	11.860367	-0.003373	0.273310	2.860949	0.000000	0.006966	0.000000	-0.011720	-0.000311	0.000000	0.000000
68.768372	23.445485	11.688228	-0.017595	0.243106	2.863374	0.000000	0.006966	0.000000	-0.011824	-0.000311	0.000000	0.000000
69.101705	23.461956	11.536226	-0.031816	0.212902	2.865800	0.000000	0.006966	0.000000	-0.011928	-0.000311	0.000000	0.000000
69.436288	23.488022	11.403902	-0.046091	0.182585	2.868235	0.000000	0.006966	0.000000	-0.012031	-0.000311	0.000000	0.000000
69.733611	23.519304	11.303291	-0.126268	0.188027	2.870404	0.000000	0.015203	0.000000	-0.012124	-0.000344	0.000000	0.000000
70.282671	23.254081	11.323382	0.606444	-0.224841	2.855507	0.000000	-0.069678	0.000000	-0.012205	0.000050	0.000000	0.000000
