#ParticleID	Turn	x[m]	xp	y[m]	yp	z[m]	dE[GeV]# s	beta_x	beta_y	alpha_x	alpha_y	D_x	D_y	D_px	D_py	orbit_x	orbit_px	orbit_y	orbit_py
0.300000	11.919867	25.062829	-0.010454	-0.027841	2.605602	0.000000	-0.002476	0.000000	-0.001297	0.001082	0.000000	0.000000
0.601250	11.933780	25.083227	-0.035729	-0.039870	2.604530	0.000000	-0.002476	0.000000	-0.000971	0.001082	0.000000	0.000000
0.898573	11.962443	25.110466	-0.031160	-0.113309	2.603472	0.000000	-0.008900	0.000000	-0.000649	0.001084	0.000000	0.000000
1.339533	12.143258	24.931825	-0.380076	0.516887	2.615297	0.000000	0.064658	0.000000	-0.000174	0.001073	0.000000	0.000000
1.780493	12.638264	24.205685	-0.746365	1.123570	2.659689	0.000000	0.138940	0.000000	0.000299	0.001075	0.000000	0.000000
2.221453	13.470086	22.965073	-1.146762	1.679134	2.737149	0.000000	0.214794	0.000000	0.000776	0.001089	0.000000	0.000000
2.662413	14.676742	21.266428	-1.599562	2.158301	2.848555	0.000000	0.293083	0.000000	0.001261	0.001115	0.000000	0.000000
3.108373	16.334248	19.162109	-2.129802	2.540445	2.997005	0.000000	0.375190	0.000000	0.001767	0.001154	0.000000	0.000000
3.657433	18.458889	16.798499	-1.716207	1.789666	3.177380	0.000000	0.283003	0.000000	0.002383	0.001087	0.000000	0.000000
4.206493	20.059681	15.184923	-1.181355	1.166364	3.305731	0.000000	0.185813	0.000000	0.002957	0.001000	0.000000	0.000000
4.755553	21.023510	14.206461	-0.563027	0.626141	3.379788	0.000000	0.085343	0.000000	0.003478	0.000896	0.000000	0.000000
5.304613	21.282257	13.793426	0.095095	0.130518	3.398243	0.000000	-0.016626	0.000000	0.003938	0.000776	0.000000	0.000000
5.603185	21.261756	13.701422	0.027288	0.142965	3.395606	0.000000	-0.008043	0.000000	0.004173	0.000786	0.000000	0.000000
5.936519	21.248794	13.614388	0.011598	0.118139	3.392663	0.000000	-0.008043	0.000000	0.004435	0.000786	0.000000	0.000000
6.269852	21.246292	13.543903	-0.004091	0.093314	3.389720	0.000000	-0.008043	0.000000	0.004697	0.000786	0.000000	0.000000
6.604435	21.254299	13.489798	-0.019839	0.068395	3.386766	0.000000	-0.008043	0.000000	0.004960	0.000786	0.000000	0.000000
6.901758	21.270274	13.455701	-0.086954	0.080013	3.384142	0.000000	0.000409	0.000000	0.005194	0.000799	0.000000	0.000000
7.450818	21.003380	13.629117	0.570561	-0.397695	3.356123	0.000000	-0.100954	0.000000	0.005585	0.000625	0.000000	0.000000
7.999878	20.032289	14.339545	1.187779	-0.903736	3.272953	0.000000	-0.200515	0.000000	0.005878	0.000439	0.000000	0.000000
8.548938	18.425602	15.637601	1.721085	-1.474161	3.136112	0.000000	-0.296512	0.000000	0.006066	0.000246	0.000000	0.000000
9.097998	16.296840	17.615761	2.132797	-2.149606	2.948030	0.000000	-0.387245	0.000000	0.006147	0.000048	0.000000	0.000000
9.543958	14.636719	19.378229	1.602756	-1.785417	2.793367	0.000000	-0.306460	0.000000	0.006204	0.000208	0.000000	0.000000
9.984918	13.427217	20.762403	1.150404	-1.341356	2.675141	0.000000	-0.229669	0.000000	0.006331	0.000369	0.000000	0.000000
10.425878	12.592106	21.726398	0.750622	-0.836253	2.590101	0.000000	-0.155498	0.000000	0.006530	0.000535	0.000000	0.000000
10.866838	12.093222	22.226344	0.385140	-0.293091	2.537275	0.000000	-0.083104	0.000000	0.006804	0.000707	0.000000	0.000000
11.309048	11.907626	22.238919	0.064339	0.212295	2.516039	0.000000	-0.017410	0.000000	0.007156	0.000870	0.000000	0.000000
11.606371	11.876822	22.116833	0.039266	0.198323	2.510604	0.000000	-0.017410	0.000000	0.007415	0.000870	0.000000	0.000000
12.086371	11.858555	21.937270	-0.001211	0.175766	2.501830	0.000000	-0.017410	0.000000	0.007832	0.000870	0.000000	0.000000
12.566371	11.879147	21.779362	-0.041688	0.153210	2.493056	0.000000	-0.017410	0.000000	0.008250	0.000870	0.000000	0.000000
13.046371	11.938597	21.643107	-0.082166	0.130653	2.484282	0.000000	-0.017410	0.000000	0.008668	0.000870	0.000000	0.000000
13.526371	12.036905	21.528507	-0.122643	0.108097	2.475507	0.000000	-0.017410	0.000000	0.009086	0.000870	0.000000	0.000000
14.007621	12.174479	21.435348	-0.163225	0.085481	2.466710	0.000000	-0.017410	0.000000	0.009504	0.000870	0.000000	0.000000
14.304943	12.278961	21.388731	-0.161040	0.024277	2.461272	0.000000	-0.022873	0.000000	0.009763	0.000847	0.000000	0.000000
14.745903	12.578858	21.133183	-0.521200	0.552961	2.466161	0.000000	0.046948	0.000000	0.010193	0.001105	0.000000	0.000000
15.186863	13.205757	20.420664	-0.905191	1.056482	2.501818	0.000000	0.117293	0.000000	0.010739	0.001374	0.000000	0.000000
15.627823	14.188329	19.283591	-1.330570	1.511924	2.568643	0.000000	0.188959	0.000000	0.011408	0.001660	0.000000	0.000000
16.068783	15.571516	17.773703	-1.816783	1.898556	2.667393	0.000000	0.262761	0.000000	0.012206	0.001964	0.000000	0.000000
16.514743	17.442255	15.937912	-2.391052	2.199812	2.800857	0.000000	0.340030	0.000000	0.013155	0.002293	0.000000	0.000000
17.063803	19.845286	13.888233	-1.957666	1.554557	2.963242	0.000000	0.254458	0.000000	0.014294	0.001849	0.000000	0.000000
17.612863	21.692955	12.482611	-1.385878	1.020066	3.077577	0.000000	0.164400	0.000000	0.015179	0.001371	0.000000	0.000000
18.161923	22.854599	11.620912	-0.716104	0.558259	3.141845	0.000000	0.071448	0.000000	0.015795	0.000869	0.000000	0.000000
18.710983	23.248060	11.241748	0.004306	0.136230	3.154913	0.000000	-0.022759	0.000000	0.016131	0.000352	0.000000	0.000000
19.009556	23.280316	11.153588	-0.060751	0.134154	3.150103	0.000000	-0.015677	0.000000	0.016248	0.000391	0.000000	0.000000
19.342889	23.325608	11.074293	-0.075122	0.103730	3.144747	0.000000	-0.015677	0.000000	0.016378	0.000391	0.000000	0.000000
19.676223	23.380479	11.015281	-0.089493	0.073307	3.139391	0.000000	-0.015677	0.000000	0.016508	0.000391	0.000000	0.000000
20.010806	23.445482	10.976308	-0.220080	0.097152	3.134034	0.000000	-0.000150	0.000000	0.016639	0.000473	0.000000	0.000000
20.308129	23.580500	10.926576	-0.285932	0.094248	3.133862	0.000000	0.006835	0.000000	0.016780	0.000514	0.000000	0.000000
20.857189	23.487995	11.044506	0.453536	-0.310249	3.111814	0.000000	-0.086546	0.000000	0.016913	-0.000032	0.000000	0.000000
21.406249	22.595941	11.616192	1.160944	-0.736856	3.039117	0.000000	-0.178392	0.000000	0.016745	-0.000577	0.000000	0.000000
21.955309	20.967419	12.682368	1.786278	-1.215970	2.917057	0.000000	-0.267081	0.000000	0.016280	-0.001112	0.000000	0.000000
22.504369	18.717596	14.318997	2.285327	-1.781732	2.747797	0.000000	-0.351049	0.000000	0.015527	-0.001628	0.000000	0.000000
22.950329	16.946226	15.788646	1.698768	-1.498877	2.608797	0.000000	-0.275214	0.000000	0.014889	-0.001233	0.000000	0.000000
23.391289	15.674577	16.960943	1.194903	-1.148958	2.503883	0.000000	-0.202997	0.000000	0.014429	-0.000855	0.000000	0.000000
23.832249	14.821795	17.800237	0.745671	-0.746743	2.430124	0.000000	-0.133083	0.000000	0.014133	-0.000487	0.000000	0.000000
24.273209	14.348875	18.268332	0.330533	-0.310539	2.386684	0.000000	-0.064680	0.000000	0.013999	-0.000124	0.000000	0.000000
24.715418	14.234371	18.343567	-0.039472	0.100869	2.373072	0.000000	-0.002033	0.000000	0.014024	0.000205	0.000000	0.000000
25.012741	14.264063	18.288454	-0.060392	0.084495	2.372406	0.000000	-0.002033	0.000000	0.014085	0.000205	0.000000	0.000000
25.346075	14.312142	18.238242	-0.083846	0.066139	2.371660	0.000000	-0.002033	0.000000	0.014153	0.000205	0.000000	0.000000
25.679408	14.375858	18.200269	-0.107300	0.047782	2.370914	0.000000	-0.002033	0.000000	0.014221	0.000205	0.000000	0.000000
26.013991	14.455243	18.174828	-0.013572	-0.118086	2.370141	0.000000	-0.021262	0.000000	0.014290	0.000089	0.000000	0.000000
26.311314	14.469343	18.250089	-0.003644	-0.173129	2.363786	0.000000	-0.026244	0.000000	0.014316	0.000056	0.000000	0.000000
26.752274	14.651490	18.204906	-0.410806	0.275183	2.366945	0.000000	0.041049	0.000000	0.014423	0.000427	0.000000	0.000000
27.193234	15.199762	17.768299	-0.836753	0.710971	2.399699	0.000000	0.108805	0.000000	0.014693	0.000802	0.000000	0.000000
27.634194	16.139240	16.960136	-1.300960	1.114399	2.462419	0.000000	0.177793	0.000000	0.015132	0.001187	0.000000	0.000000
28.075154	17.512898	15.817194	-1.824656	1.467103	2.555817	0.000000	0.248794	0.000000	0.015742	0.001585	0.000000	0.000000
28.521114	19.407816	14.374033	-2.437074	1.754263	2.682548	0.000000	0.323098	0.000000	0.016542	0.002004	0.000000	0.000000
29.070174	21.817837	12.766502	-1.924184	1.190094	2.836895	0.000000	0.241483	0.000000	0.017492	0.001452	0.000000	0.000000
29.619234	23.585855	11.728699	-1.275245	0.710730	2.945482	0.000000	0.155607	0.000000	0.018132	0.000875	0.000000	0.000000
30.168294	24.586823	11.186682	-0.536139	0.282012	3.006391	0.000000	0.066983	0.000000	0.018451	0.000282	0.000000	0.000000
30.717354	24.749943	11.101835	0.240874	-0.126609	3.018544	0.000000	-0.022824	0.000000	0.018441	-0.000316	0.000000	0.000000
31.015927	24.641941	11.171118	0.174209	-0.129426	3.013768	0.000000	-0.016216	0.000000	0.018360	-0.000271	0.000000	0.000000
31.349260	24.530447	11.267515	0.160271	-0.159765	3.008453	0.000000	-0.016216	0.000000	0.018270	-0.000271	0.000000	0.000000
31.682593	24.428246	11.384138	0.146334	-0.190103	3.003138	0.000000	-0.016216	0.000000	0.018179	-0.000271	0.000000	0.000000
32.017177	24.335005	11.521537	0.132344	-0.220556	2.997803	0.000000	-0.016216	0.000000	0.018088	-0.000271	0.000000	0.000000
32.314499	24.260234	11.660625	0.066544	-0.222006	2.993077	0.000000	-0.009632	0.000000	0.018008	-0.000228	0.000000	0.000000
32.863559	23.771494	12.142412	0.817741	-0.660427	2.963658	0.000000	-0.098333	0.000000	0.017723	-0.000807	0.000000	0.000000
33.412619	22.484473	13.128623	1.511114	-1.145910	2.886233	0.000000	-0.185302	0.000000	0.017124	-0.001372	0.000000	0.000000
33.961679	20.490202	14.689520	2.097640	-1.713048	2.762165	0.000000	-0.269005	0.000000	0.016221	-0.001912	0.000000	0.000000
34.510739	17.929729	16.936308	2.535856	-2.402250	2.593647	0.000000	-0.347965	0.000000	0.015030	-0.002418	0.000000	0.000000
34.956699	15.940218	18.946448	1.938951	-2.085188	2.455480	0.000000	-0.276129	0.000000	0.014036	-0.002041	0.000000	0.000000
35.397659	14.456991	20.610899	1.435966	-1.674312	2.349639	0.000000	-0.207881	0.000000	0.013214	-0.001690	0.000000	0.000000
35.838619	13.387021	21.877782	0.998639	-1.187233	2.273209	0.000000	-0.141983	0.000000	0.012542	-0.001358	0.000000	0.000000
36.279579	12.681366	22.689449	0.606974	-0.646121	2.225325	0.000000	-0.077688	0.000000	0.012014	-0.001041	0.000000	0.000000
36.721789	12.307123	23.009193	0.269715	-0.125458	2.205427	0.000000	-0.019063	0.000000	0.011621	-0.000764	0.000000	0.000000
37.019112	12.154443	23.087699	0.243799	-0.138584	2.199986	0.000000	-0.019063	0.000000	0.011394	-0.000764	0.000000	0.000000
37.352445	12.001595	23.184993	0.214744	-0.153299	2.193886	0.000000	-0.019063	0.000000	0.011140	-0.000764	0.000000	0.000000
37.685779	11.868118	23.292097	0.185689	-0.168014	2.187786	0.000000	-0.019063	0.000000	0.010885	-0.000764	0.000000	0.000000
38.020362	11.753618	23.409468	0.156525	-0.182784	2.181664	0.000000	-0.019063	0.000000	0.010630	-0.000764	0.000000	0.000000
38.317684	11.668209	23.522137	0.156335	-0.248023	2.176220	0.000000	-0.023861	0.000000	0.010403	-0.000788	0.000000	0.000000
38.758644	11.679642	23.480349	-0.182574	0.342414	2.179745	0.000000	0.038593	0.000000	0.010114	-0.000523	0.000000	0.000000
39.199604	11.992579	22.922679	-0.529824	0.917265	2.210774	0.000000	0.101492	0.000000	0.009940	-0.000265	0.000000	0.000000
39.640564	12.621324	21.874510	-0.901288	1.450369	2.269663	0.000000	0.165551	0.000000	0.009880	-0.000009	0.000000	0.000000
40.081524	13.594619	20.383546	-1.313948	1.917463	2.357082	0.000000	0.231495	0.000000	0.009932	0.000246	0.000000	0.000000
40.527484	14.974590	18.494976	-1.790664	2.298816	2.475506	0.000000	0.300506	0.000000	0.010100	0.000506	0.000000	0.000000
41.076544	16.737750	16.372852	-1.400933	1.588450	2.620041	0.000000	0.225782	0.000000	0.010287	0.000176	0.000000	0.000000
41.625604	18.015556	14.964545	-0.912201	0.991258	2.722557	0.000000	0.147054	0.000000	0.010292	-0.000158	0.000000	0.000000
42.174664	18.717694	14.169716	-0.359010	0.464694	2.781234	0.000000	0.065714	0.000000	0.010114	-0.000488	0.000000	0.000000
42.723724	18.794546	13.931734	0.219540	-0.028761	2.795028	0.000000	-0.016799	0.000000	0.009757	-0.000810	0.000000	0.000000
43.022297	18.695145	13.935334	0.158187	-0.016680	2.792240	0.000000	-0.010110	0.000000	0.009522	-0.000786	0.000000	0.000000
43.502297	18.555918	13.967885	0.131869	-0.051134	2.787764	0.000000	-0.010110	0.000000	0.009145	-0.000786	0.000000	0.000000
43.982297	18.441956	14.033512	0.105552	-0.085589	2.783289	0.000000	-0.010110	0.000000	0.008768	-0.000786	0.000000	0.000000
44.462297	18.353259	14.132215	0.079234	-0.120043	2.778814	0.000000	-0.010110	0.000000	0.008391	-0.000786	0.000000	0.000000
44.942297	18.289827	14.263994	0.052916	-0.154497	2.774338	0.000000	-0.010110	0.000000	0.008013	-0.000786	0.000000	0.000000
45.423547	18.251819	14.429144	-0.063899	-0.117551	2.769868	0.000000	0.003614	0.000000	0.007635	-0.000748	0.000000	0.000000
45.720870	18.294709	14.505233	-0.125032	-0.103095	2.771167	0.000000	0.010396	0.000000	0.007413	-0.000729	0.000000	0.000000
46.269930	18.123640	14.899275	0.434282	-0.618735	2.754869	0.000000	-0.071297	0.000000	0.006948	-0.000962	0.000000	0.000000
46.818990	17.351562	15.880340	0.962894	-1.178451	2.694109	0.000000	-0.151740	0.000000	0.006359	-0.001178	0.000000	0.000000
47.368050	16.033058	17.518304	1.423452	-1.822115	2.589956	0.000000	-0.229511	0.000000	0.005658	-0.001372	0.000000	0.000000
47.917110	14.261319	19.929829	1.783417	-2.595577	2.444248	0.000000	-0.303233	0.000000	0.004857	-0.001543	0.000000	0.000000
48.363070	12.881918	22.073967	1.319865	-2.191847	2.324909	0.000000	-0.235074	0.000000	0.004195	-0.001425	0.000000	0.000000
48.804030	11.897484	23.792244	0.920469	-1.689776	2.236266	0.000000	-0.169987	0.000000	0.003590	-0.001325	0.000000	0.000000
49.244990	11.245526	25.031971	0.563143	-1.110818	2.175837	0.000000	-0.106821	0.000000	0.003025	-0.001240	0.000000	0.000000
49.685950	10.896238	25.736751	0.231557	-0.481319	2.142939	0.000000	-0.044860	0.000000	0.002494	-0.001169	0.000000	0.000000
50.128160	10.833810	25.874252	-0.063492	0.108185	2.137217	0.000000	0.011462	0.000000	0.001991	-0.001116	0.000000	0.000000
50.425482	10.879758	25.813377	-0.091047	0.096560	2.140956	0.000000	0.011462	0.000000	0.001659	-0.001116	0.000000	0.000000
50.758816	10.950754	25.753348	-0.121939	0.083526	2.145149	0.000000	0.011462	0.000000	0.001287	-0.001116	0.000000	0.000000
51.092149	11.042344	25.702009	-0.152831	0.070492	2.149341	0.000000	0.011462	0.000000	0.000915	-0.001116	0.000000	0.000000
51.426732	11.154762	25.659735	-0.093344	-0.150754	2.153528	0.000000	-0.006009	0.000000	0.000542	-0.001120	0.000000	0.000000
51.724055	11.218262	25.752904	-0.092774	-0.226046	2.152074	0.000000	-0.011276	0.000000	0.000209	-0.001121	0.000000	0.000000
52.165015	11.446225	25.665715	-0.426517	0.423018	2.161217	0.000000	0.050611	0.000000	-0.000285	-0.001122	0.000000	0.000000
52.605975	11.975957	25.012444	-0.779739	1.052830	2.197756	0.000000	0.113087	0.000000	-0.000782	-0.001135	0.000000	0.000000
53.046935	12.831649	23.822825	-1.168574	1.634736	2.262112	0.000000	0.176863	0.000000	-0.001288	-0.001162	0.000000	0.000000
53.487895	14.052381	22.150994	-1.610786	2.142262	2.355023	0.000000	0.242666	0.000000	-0.001809	-0.001202	0.000000	0.000000
53.933855	15.714791	20.048004	-2.130808	2.553610	2.479083	0.000000	0.311639	0.000000	-0.002356	-0.001256	0.000000	0.000000
54.482915	17.854818	17.681477	-1.744464	1.782137	2.630484	0.000000	0.236720	0.000000	-0.003023	-0.001169	0.000000	0.000000
55.031975	19.500024	16.087849	-1.234938	1.137597	2.739477	0.000000	0.157584	0.000000	-0.003636	-0.001061	0.000000	0.000000
55.581035	20.534249	15.153599	-0.638215	0.574083	2.804121	0.000000	0.075635	0.000000	-0.004184	-0.000934	0.000000	0.000000
56.130095	20.884484	14.812176	0.003560	0.051459	2.823262	0.000000	-0.007670	0.000000	-0.004659	-0.000791	0.000000	0.000000
56.428668	20.920468	14.763426	-0.067450	0.071491	2.823498	0.000000	-0.000008	0.000000	-0.004898	-0.000803	0.000000	0.000000
56.762001	20.970770	14.723330	-0.083456	0.048797	2.823763	0.000000	-0.000008	0.000000	-0.005166	-0.000803	0.000000	0.000000
57.095334	21.031743	14.698363	-0.099462	0.026103	2.824028	0.000000	-0.000008	0.000000	-0.005434	-0.000803	0.000000	0.000000
57.429918	21.103675	14.688517	-0.115528	0.003325	2.824294	0.000000	-0.000008	0.000000	-0.005703	-0.000803	0.000000	0.000000
57.727240	21.176640	14.692543	-0.187844	0.023183	2.824532	0.000000	0.007733	0.000000	-0.005942	-0.000819	0.000000	0.000000
58.276300	21.021017	14.949016	0.469192	-0.493094	2.806249	0.000000	-0.075623	0.000000	-0.006337	-0.000620	0.000000	0.000000
58.825360	20.158040	15.788209	1.093081	-1.044485	2.742393	0.000000	-0.157648	0.000000	-0.006621	-0.000410	0.000000	0.000000
59.374420	18.648657	17.269877	1.639775	-1.670255	2.634092	0.000000	-0.236884	0.000000	-0.006787	-0.000193	0.000000	0.000000
59.923480	16.599446	19.499534	2.070672	-2.414970	2.483265	0.000000	-0.311922	0.000000	-0.006832	0.000027	0.000000	0.000000
60.369440	14.994284	21.481256	1.541541	-2.010203	2.359656	0.000000	-0.242860	0.000000	-0.006860	-0.000150	0.000000	0.000000
60.810400	13.839684	23.041603	1.086929	-1.515204	2.267297	0.000000	-0.176942	0.000000	-0.006965	-0.000328	0.000000	0.000000
61.251360	13.062628	24.133268	0.681963	-0.951279	2.203609	0.000000	-0.113035	0.000000	-0.007150	-0.000510	0.000000	0.000000
61.692320	12.627626	24.706593	0.308149	-0.344083	2.167868	0.000000	-0.050410	0.000000	-0.007416	-0.000698	0.000000	0.000000
62.134530	12.514876	24.734924	-0.018786	0.214009	2.159681	0.000000	0.005970	0.000000	-0.007767	-0.000874	0.000000	0.000000
62.431853	12.533113	24.611402	-0.042552	0.201438	2.161716	0.000000	0.005970	0.000000	-0.008027	-0.000874	0.000000	0.000000
62.765186	12.570362	24.481808	-0.069196	0.187344	2.163997	0.000000	0.005970	0.000000	-0.008319	-0.000874	0.000000	0.000000
63.098520	12.625375	24.361610	-0.095841	0.173251	2.166278	0.000000	0.005970	0.000000	-0.008610	-0.000874	0.000000	0.000000
63.433103	12.698456	24.250409	-0.122585	0.159105	2.168568	0.000000	0.005970	0.000000	-0.008902	-0.000874	0.000000	0.000000
63.730426	12.778385	24.159596	-0.112368	0.081979	2.170601	0.000000	0.000198	0.000000	-0.009162	-0.000851	0.000000	0.000000
64.171386	13.039423	23.821187	-0.482289	0.682639	2.184849	0.000000	0.062613	0.000000	-0.009590	-0.001092	0.000000	0.000000
64.612346	13.635047	22.964843	-0.874227	1.252243	2.226854	0.000000	0.125754	0.000000	-0.010127	-0.001346	0.000000	0.000000
65.053306	14.592440	21.629528	-1.306076	1.764884	2.297101	0.000000	0.190340	0.000000	-0.010780	-0.001616	0.000000	0.000000
65.494266	15.955299	19.875994	-1.797555	2.197243	2.396394	0.000000	0.257111	0.000000	-0.011555	-0.001904	0.000000	0.000000
65.940226	17.809225	17.759046	-2.375515	2.530182	2.527494	0.000000	0.327195	0.000000	-0.012472	-0.002215	0.000000	0.000000
66.489286	20.183408	15.390711	-1.924851	1.809505	2.687382	0.000000	0.250597	0.000000	-0.013574	-0.001793	0.000000	0.000000
67.038346	21.984883	13.738686	-1.338340	1.217674	2.803694	0.000000	0.169526	0.000000	-0.014435	-0.001340	0.000000	0.000000
67.587406	23.086554	12.685317	-0.657383	0.712546	2.874357	0.000000	0.085428	0.000000	-0.015040	-0.000862	0.000000	0.000000
68.136466	23.410707	12.155587	0.069959	0.258152	2.898109	0.000000	-0.000199	0.000000	-0.015379	-0.000369	0.000000	0.000000
68.435038	23.413620	11.988137	-0.011527	0.267217	2.900703	0.000000	0.008309	0.000000	-0.015502	-0.000412	0.000000	0.000000
68.768372	23.426051	11.819923	-0.025766	0.237426	2.903610	0.000000	0.008309	0.000000	-0.015639	-0.000412	0.000000	0.000000
69.101705	23.447975	11.671569	-0.040005	0.207635	2.906517	0.000000	0.008309	0.000000	-0.015777	-0.000412	0.000000	0.000000
69.436288	23.479527	11.542631	-0.054297	0.177733	2.909435	0.000000	0.008309	0.000000	-0.015915	-0.000412	0.000000	0.000000
69.733611	23.515767	11.444757	-0.136340	0.184839	2.912040	0.000000	0.016896	0.000000	-0.016037	-0.000457	0.000000	0.000000
70.282671	23.261612	11.470518	0.596467	-0.232046	2.897730	0.000000	-0.069332	0.000000	-0.016145	0.000064	0.000000	0.000000
