#ParticleID	Turn	x[m]	xp	y[m]	yp	z[m]	dE[GeV]# s	beta_x	beta_y	alpha_x	alpha_y	D_x	D_y	D_px	D_py	orbit_x	orbit_px	orbit_y	orbit_py
0.300000	11.939820	25.159255	-0.013239	-0.025796	2.602424	0.000000	-0.001688	0.000000	-0.001250	0.001053	0.000000	0.000000
0.601250	11.955398	25.178406	-0.038474	-0.037777	2.601599	0.000000	-0.001688	0.000000	-0.000933	0.001053	0.000000	0.000000
0.898573	11.985682	25.204387	-0.033815	-0.111393	2.600784	0.000000	-0.008104	0.000000	-0.000620	0.001055	0.000000	0.000000
1.339533	12.169089	25.022969	-0.383330	0.521246	2.612957	0.000000	0.065389	0.000000	-0.000158	0.001045	0.000000	0.000000
1.780493	12.667279	24.291975	-0.750367	1.130174	2.657671	0.000000	0.139616	0.000000	0.000303	0.001046	0.000000	0.000000
2.221453	13.503022	23.044657	-1.151694	1.687683	2.735430	0.000000	0.215422	0.000000	0.000767	0.001060	0.000000	0.000000
2.662413	14.714515	21.337756	-1.605650	2.168405	2.847116	0.000000	0.293670	0.000000	0.001240	0.001086	0.000000	0.000000
3.108373	16.378068	19.223897	-2.137335	2.551645	2.995832	0.000000	0.375743	0.000000	0.001732	0.001125	0.000000	0.000000
3.657433	18.510419	16.849464	-1.722648	1.798296	3.176536	0.000000	0.283588	0.000000	0.002332	0.001059	0.000000	0.000000
4.206493	20.117462	15.227536	-1.186248	1.173038	3.305229	0.000000	0.186421	0.000000	0.002891	0.000974	0.000000	0.000000
4.755553	21.085642	14.242596	-0.566028	0.631336	3.379636	0.000000	0.085962	0.000000	0.003399	0.000872	0.000000	0.000000
5.304613	21.346534	13.824496	0.094198	0.134602	3.398443	0.000000	-0.016008	0.000000	0.003846	0.000755	0.000000	0.000000
5.603185	21.326680	13.729981	0.026228	0.147180	3.396000	0.000000	-0.007417	0.000000	0.004074	0.000765	0.000000	0.000000
5.936519	21.314408	13.640129	0.010588	0.122376	3.393272	0.000000	-0.007417	0.000000	0.004329	0.000765	0.000000	0.000000
6.269852	21.312563	13.566812	-0.005053	0.097573	3.390545	0.000000	-0.007417	0.000000	0.004584	0.000765	0.000000	0.000000
6.604435	21.321197	13.509850	-0.020752	0.072676	3.387807	0.000000	-0.007417	0.000000	0.004840	0.000765	0.000000	0.000000
6.901758	21.337701	13.473201	-0.088053	0.084391	3.385376	0.000000	0.001047	0.000000	0.005067	0.000778	0.000000	0.000000
7.450818	21.070763	13.642050	0.571731	-0.393706	3.357706	0.000000	-0.100361	0.000000	0.005448	0.000607	0.000000	0.000000
7.999878	20.097169	14.348179	1.191134	-0.899852	3.274855	0.000000	-0.199978	0.000000	0.005732	0.000426	0.000000	0.000000
8.548938	18.485699	15.641899	1.726390	-1.470106	3.138296	0.000000	-0.296041	0.000000	0.005915	0.000237	0.000000	0.000000
9.097998	16.350211	17.615377	2.139676	-2.145091	2.950456	0.000000	-0.386848	0.000000	0.005992	0.000044	0.000000	0.000000
9.543958	14.684663	19.373632	1.608095	-1.780537	2.795987	0.000000	-0.305998	0.000000	0.006047	0.000201	0.000000	0.000000
9.984918	13.471037	20.753420	1.154455	-1.336336	2.677984	0.000000	-0.229137	0.000000	0.006170	0.000358	0.000000	0.000000
10.425878	12.632851	21.713007	0.753570	-0.831320	2.593201	0.000000	-0.154890	0.000000	0.006363	0.000520	0.000000	0.000000
10.866838	12.131800	22.208723	0.387119	-0.288472	2.540670	0.000000	-0.082413	0.000000	0.006629	0.000687	0.000000	0.000000
11.309048	11.944845	22.217432	0.065578	0.216349	2.519769	0.000000	-0.016647	0.000000	0.006971	0.000846	0.000000	0.000000
11.606371	11.913281	22.092946	0.040580	0.202340	2.514568	0.000000	-0.016647	0.000000	0.007223	0.000846	0.000000	0.000000
12.086371	11.893697	21.909555	0.000222	0.179724	2.506171	0.000000	-0.016647	0.000000	0.007629	0.000846	0.000000	0.000000
12.566371	11.912855	21.747875	-0.040135	0.157108	2.497775	0.000000	-0.016647	0.000000	0.008035	0.000846	0.000000	0.000000
13.046371	11.970757	21.607906	-0.080493	0.134492	2.489379	0.000000	-0.016647	0.000000	0.008441	0.000846	0.000000	0.000000
13.526371	12.067402	21.489649	-0.120851	0.111877	2.480982	0.000000	-0.016647	0.000000	0.008847	0.000846	0.000000	0.000000
14.007621	12.203193	21.392880	-0.161313	0.089202	2.472564	0.000000	-0.016647	0.000000	0.009254	0.000846	0.000000	0.000000
14.304943	12.306518	21.344059	-0.158915	0.027919	2.467360	0.000000	-0.022139	0.000000	0.009506	0.000824	0.000000	0.000000
14.745903	12.604789	21.085854	-0.519633	0.555323	2.472619	0.000000	0.047844	0.000000	0.009924	0.001074	0.000000	0.000000
15.186863	13.230516	20.371860	-0.904110	1.057457	2.508723	0.000000	0.118360	0.000000	0.010455	0.001337	0.000000	0.000000
15.627823	14.212319	19.234563	-1.329924	1.511467	2.576076	0.000000	0.190211	0.000000	0.011105	0.001615	0.000000	0.000000
16.068783	15.595101	17.725710	-1.816542	1.896689	2.675442	0.000000	0.264212	0.000000	0.011882	0.001911	0.000000	0.000000
16.514743	17.465771	15.892207	-2.391198	2.196603	2.809624	0.000000	0.341698	0.000000	0.012806	0.002232	0.000000	0.000000
17.063803	19.868375	13.845339	-1.956802	1.552636	2.972873	0.000000	0.255828	0.000000	0.013914	0.001799	0.000000	0.000000
17.612863	21.714542	12.441195	-1.384067	1.019295	3.087896	0.000000	0.165448	0.000000	0.014775	0.001334	0.000000	0.000000
18.161923	22.873718	11.579745	-0.713477	0.558583	3.152662	0.000000	0.072154	0.000000	0.015374	0.000845	0.000000	0.000000
18.710983	23.263921	11.199620	0.007561	0.137671	3.166030	0.000000	-0.022407	0.000000	0.015701	0.000342	0.000000	0.000000
19.009556	23.294402	11.110617	-0.057757	0.135501	3.161347	0.000000	-0.015268	0.000000	0.015814	0.000380	0.000000	0.000000
19.342889	23.337692	11.030467	-0.072114	0.104949	3.156131	0.000000	-0.015268	0.000000	0.015941	0.000380	0.000000	0.000000
19.676223	23.390554	10.970685	-0.086472	0.074397	3.150915	0.000000	-0.015268	0.000000	0.016067	0.000380	0.000000	0.000000
20.010806	23.453530	10.931026	-0.217084	0.097889	3.145699	0.000000	0.000318	0.000000	0.016194	0.000460	0.000000	0.000000
20.308129	23.586750	10.880896	-0.283182	0.094880	3.145669	0.000000	0.007363	0.000000	0.016331	0.000500	0.000000	0.000000
20.857189	23.491129	10.997429	0.456422	-0.308324	3.123810	0.000000	-0.086403	0.000000	0.016460	-0.000032	0.000000	0.000000
21.406249	22.595932	11.566227	1.163763	-0.733499	3.051081	0.000000	-0.178636	0.000000	0.016297	-0.000562	0.000000	0.000000
21.955309	20.964461	12.627818	1.788832	-1.210942	2.928771	0.000000	-0.267708	0.000000	0.015844	-0.001083	0.000000	0.000000
22.504369	18.712086	14.257837	2.287438	-1.774672	2.759045	0.000000	-0.352047	0.000000	0.015110	-0.001585	0.000000	0.000000
22.950329	16.938902	15.721831	1.700811	-1.493351	2.619650	0.000000	-0.275927	0.000000	0.014489	-0.001201	0.000000	0.000000
23.391289	15.665464	16.890010	1.196961	-1.145199	2.514471	0.000000	-0.203434	0.000000	0.014041	-0.000833	0.000000	0.000000
23.832249	14.810834	17.726829	0.747838	-0.744923	2.440573	0.000000	-0.133249	0.000000	0.013753	-0.000475	0.000000	0.000000
24.273209	14.335923	18.194205	0.332907	-0.310741	2.397115	0.000000	-0.064578	0.000000	0.013622	-0.000122	0.000000	0.000000
24.715418	14.219183	18.270520	-0.036681	0.098639	2.383609	0.000000	-0.001706	0.000000	0.013646	0.000199	0.000000	0.000000
25.012741	14.247220	18.216751	-0.057619	0.082207	2.383043	0.000000	-0.001706	0.000000	0.013705	0.000199	0.000000	0.000000
25.346075	14.293458	18.168087	-0.081093	0.063785	2.382408	0.000000	-0.001706	0.000000	0.013771	0.000199	0.000000	0.000000
25.679408	14.355345	18.131704	-0.104568	0.045363	2.381773	0.000000	-0.001706	0.000000	0.013837	0.000199	0.000000	0.000000
26.013991	14.432909	18.107902	-0.011040	-0.120028	2.381112	0.000000	-0.021023	0.000000	0.013904	0.000086	0.000000	0.000000
26.311314	14.445517	18.184332	-0.001054	-0.175176	2.374829	0.000000	-0.026052	0.000000	0.013929	0.000054	0.000000	0.000000
26.752274	14.625107	18.141738	-0.407583	0.271383	2.378139	0.000000	0.041527	0.000000	0.014032	0.000414	0.000000	0.000000
27.193234	15.170198	17.709197	-0.832749	0.705592	2.411175	0.000000	0.109575	0.000000	0.014296	0.000780	0.000000	0.000000
27.634194	16.105722	16.906393	-1.295992	1.107685	2.474312	0.000000	0.178864	0.000000	0.014722	0.001154	0.000000	0.000000
28.075154	17.474473	15.769858	-1.818494	1.459361	2.568266	0.000000	0.250178	0.000000	0.015315	0.001541	0.000000	0.000000
28.521114	19.363208	14.333958	-2.429412	1.745835	2.695707	0.000000	0.324812	0.000000	0.016093	0.001949	0.000000	0.000000
29.070174	21.765341	12.734705	-1.917630	1.183380	2.850900	0.000000	0.242758	0.000000	0.017017	0.001412	0.000000	0.000000
29.619234	23.526962	11.703567	-1.270267	0.705249	2.960078	0.000000	0.156420	0.000000	0.017640	0.000850	0.000000	0.000000
30.168294	24.523481	11.167078	-0.533090	0.277375	3.021311	0.000000	0.067319	0.000000	0.017949	0.000274	0.000000	0.000000
30.717354	24.684418	11.087015	0.241776	-0.130734	3.033516	0.000000	-0.022972	0.000000	0.017939	-0.000308	0.000000	0.000000
31.015927	24.575994	11.158713	0.174920	-0.133510	3.028715	0.000000	-0.016294	0.000000	0.017860	-0.000265	0.000000	0.000000
31.349260	24.464039	11.257855	0.160942	-0.163914	3.023372	0.000000	-0.016294	0.000000	0.017772	-0.000265	0.000000	0.000000
31.682593	24.361404	11.377266	0.146964	-0.194319	3.018029	0.000000	-0.016294	0.000000	0.017684	-0.000265	0.000000	0.000000
32.017177	24.267756	11.517509	0.132933	-0.224837	3.012665	0.000000	-0.016294	0.000000	0.017595	-0.000265	0.000000	0.000000
32.314499	24.192633	11.659166	0.066960	-0.226211	3.007913	0.000000	-0.009642	0.000000	0.017517	-0.000222	0.000000	0.000000
32.863559	23.704685	12.145648	0.815906	-0.664828	2.978351	0.000000	-0.098820	0.000000	0.017240	-0.000785	0.000000	0.000000
33.412619	22.420883	13.136935	1.507160	-1.150819	2.900513	0.000000	-0.186258	0.000000	0.016657	-0.001335	0.000000	0.000000
33.961679	20.432027	14.703650	2.091849	-1.718814	2.775774	0.000000	-0.270411	0.000000	0.015778	-0.001860	0.000000	0.000000
34.510739	17.878776	16.957411	2.528640	-2.409282	2.606335	0.000000	-0.349796	0.000000	0.014619	-0.002353	0.000000	0.000000
34.956699	15.895020	18.973816	1.933302	-2.092189	2.467398	0.000000	-0.277643	0.000000	0.013652	-0.001986	0.000000	0.000000
35.397659	14.416212	20.644296	1.431602	-1.680950	2.360935	0.000000	-0.209096	0.000000	0.012853	-0.001644	0.000000	0.000000
35.838619	13.349613	21.916755	0.995359	-1.193205	2.284015	0.000000	-0.142913	0.000000	0.012199	-0.001321	0.000000	0.000000
36.279579	12.646440	22.733292	0.604627	-0.651156	2.235767	0.000000	-0.078345	0.000000	0.011685	-0.001014	0.000000	0.000000
36.721789	12.273903	23.056991	0.268218	-0.129618	2.215627	0.000000	-0.019494	0.000000	0.011303	-0.000743	0.000000	0.000000
37.019112	12.122129	23.137967	0.242251	-0.142730	2.210052	0.000000	-0.019494	0.000000	0.011081	-0.000743	0.000000	0.000000
37.352445	11.970332	23.238020	0.213139	-0.157430	2.203802	0.000000	-0.019494	0.000000	0.010834	-0.000743	0.000000	0.000000
37.685779	11.837943	23.347873	0.184028	-0.172129	2.197552	0.000000	-0.019494	0.000000	0.010586	-0.000743	0.000000	0.000000
38.020362	11.724574	23.467993	0.154807	-0.186884	2.191278	0.000000	-0.019494	0.000000	0.010337	-0.000743	0.000000	0.000000
38.317684	11.640205	23.583092	0.154586	-0.252404	2.185700	0.000000	-0.024328	0.000000	0.010116	-0.000767	0.000000	0.000000
38.758644	11.652906	23.544442	-0.183706	0.339708	2.189066	0.000000	0.038368	0.000000	0.009835	-0.000510	0.000000	0.000000
39.199604	11.966590	22.988374	-0.530390	0.916357	2.220044	0.000000	0.101506	0.000000	0.009666	-0.000258	0.000000	0.000000
39.640564	12.595592	21.940199	-0.901314	1.451299	2.278990	0.000000	0.165804	0.000000	0.009607	-0.000010	0.000000	0.000000
40.081524	13.568667	20.447621	-1.313433	1.920191	2.366575	0.000000	0.231991	0.000000	0.009657	0.000238	0.000000	0.000000
40.527484	14.947915	18.555866	-1.789577	2.303221	2.485280	0.000000	0.301251	0.000000	0.009820	0.000491	0.000000	0.000000
41.076544	16.710431	16.429931	-1.400872	1.591041	2.630141	0.000000	0.226204	0.000000	0.010001	0.000170	0.000000	0.000000
41.625604	17.988733	15.019691	-0.913172	0.992218	2.732799	0.000000	0.147148	0.000000	0.010006	-0.000154	0.000000	0.000000
42.174664	18.692476	14.224671	-0.360945	0.464090	2.791432	0.000000	0.065477	0.000000	0.009833	-0.000476	0.000000	0.000000
42.723724	18.771927	13.988225	0.216779	-0.030970	2.804997	0.000000	-0.017362	0.000000	0.009485	-0.000789	0.000000	0.000000
43.022297	18.674218	13.992986	0.155357	-0.018584	2.802047	0.000000	-0.010631	0.000000	0.009257	-0.000765	0.000000	0.000000
43.502297	18.537710	14.027298	0.129033	-0.052898	2.797312	0.000000	-0.010631	0.000000	0.008889	-0.000765	0.000000	0.000000
43.982297	18.426474	14.094551	0.102708	-0.087213	2.792576	0.000000	-0.010631	0.000000	0.008522	-0.000765	0.000000	0.000000
44.462297	18.340510	14.194747	0.076384	-0.121528	2.787840	0.000000	-0.010631	0.000000	0.008155	-0.000765	0.000000	0.000000
44.942297	18.279817	14.327885	0.050060	-0.155843	2.783104	0.000000	-0.010631	0.000000	0.007788	-0.000765	0.000000	0.000000
45.423547	18.244562	14.494261	-0.066727	-0.118433	2.778374	0.000000	0.003135	0.000000	0.007420	-0.000728	0.000000	0.000000
45.720870	18.289135	14.570849	-0.127945	-0.103655	2.779524	0.000000	0.009951	0.000000	0.007203	-0.000710	0.000000	0.000000
46.269930	18.121351	14.966588	0.431259	-0.621284	2.762896	0.000000	-0.072007	0.000000	0.006751	-0.000936	0.000000	0.000000
46.818990	17.352566	15.951618	0.959976	-1.183170	2.701661	0.000000	-0.152703	0.000000	0.006179	-0.001145	0.000000	0.000000
47.368050	16.037125	17.596098	1.420846	-1.829341	2.596896	0.000000	-0.230708	0.000000	0.005497	-0.001335	0.000000	0.000000
47.917110	14.268004	20.017157	1.781309	-2.605824	2.450451	0.000000	-0.304642	0.000000	0.004717	-0.001500	0.000000	0.000000
48.363070	12.890452	22.169547	1.317834	-2.200033	2.330499	0.000000	-0.236331	0.000000	0.004074	-0.001386	0.000000	0.000000
48.804030	11.907818	23.893993	0.918418	-1.695534	2.241318	0.000000	-0.171106	0.000000	0.003485	-0.001289	0.000000	0.000000
49.244990	11.257718	25.137626	0.560978	-1.113886	2.180408	0.000000	-0.107817	0.000000	0.002936	-0.001206	0.000000	0.000000
49.685950	10.910430	25.843868	0.229179	-0.481558	2.147081	0.000000	-0.045743	0.000000	0.002419	-0.001137	0.000000	0.000000
50.128160	10.850244	25.980317	-0.066137	0.110486	2.140978	0.000000	0.010668	0.000000	0.001930	-0.001085	0.000000	0.000000
50.425482	10.897755	25.918061	-0.093660	0.098902	2.144472	0.000000	0.010668	0.000000	0.001607	-0.001085	0.000000	0.000000
50.758816	10.970480	25.856455	-0.124516	0.085915	2.148390	0.000000	0.010668	0.000000	0.001245	-0.001085	0.000000	0.000000
51.092149	11.063776	25.803508	-0.155371	0.072928	2.152308	0.000000	0.010668	0.000000	0.000883	-0.001085	0.000000	0.000000
51.426732	11.177881	25.759591	-0.095660	-0.149082	2.156219	0.000000	-0.006825	0.000000	0.000520	-0.001090	0.000000	0.000000
51.724055	11.242746	25.851750	-0.094984	-0.224561	2.154514	0.000000	-0.012098	0.000000	0.000196	-0.001090	0.000000	0.000000
52.165015	11.472925	25.762102	-0.429343	0.427088	2.163294	0.000000	0.049847	0.000000	-0.000284	-0.001091	0.000000	0.000000
52.605975	12.005471	25.104165	-0.783310	1.059301	2.199494	0.000000	0.112372	0.000000	-0.000768	-0.001105	0.000000	0.000000
53.046935	12.864704	23.907885	-1.173054	1.643313	2.263531	0.000000	0.176189	0.000000	-0.001261	-0.001131	0.000000	0.000000
53.487895	14.089867	22.227700	-1.616381	2.152555	2.356139	0.000000	0.242024	0.000000	-0.001768	-0.001170	0.000000	0.000000
53.933855	15.757870	20.114930	-2.137785	2.565155	2.479905	0.000000	0.311022	0.000000	-0.002301	-0.001223	0.000000	0.000000
54.482915	17.904993	17.737278	-1.750319	1.790970	2.630944	0.000000	0.236083	0.000000	-0.002950	-0.001138	0.000000	0.000000
55.031975	19.555828	16.135142	-1.239256	1.144349	2.739569	0.000000	0.156937	0.000000	-0.003546	-0.001033	0.000000	0.000000
55.581035	20.593814	15.194396	-0.640691	0.579233	2.803844	0.000000	0.074991	0.000000	-0.004080	-0.000909	0.000000	0.000000
56.130095	20.945676	14.848024	0.003102	0.055374	2.822623	0.000000	-0.008299	0.000000	-0.004542	-0.000769	0.000000	0.000000
56.428668	20.981990	14.796892	-0.067981	0.075496	2.822662	0.000000	-0.000646	0.000000	-0.004775	-0.000781	0.000000	0.000000
56.762001	21.032631	14.754113	-0.083941	0.052841	2.822707	0.000000	-0.000646	0.000000	-0.005035	-0.000781	0.000000	0.000000
57.095334	21.093912	14.726437	-0.099901	0.030185	2.822752	0.000000	-0.000646	0.000000	-0.005296	-0.000781	0.000000	0.000000
57.429918	21.166122	14.713847	-0.115921	0.007444	2.822797	0.000000	-0.000646	0.000000	-0.005557	-0.000781	0.000000	0.000000
57.727240	21.239308	14.715414	-0.188300	0.027356	2.822839	0.000000	0.007081	0.000000	-0.005790	-0.000797	0.000000	0.000000
58.276300	21.083036	14.967632	0.470832	-0.489469	2.804203	0.000000	-0.076215	0.000000	-0.006175	-0.000603	0.000000	0.000000
58.825360	20.217155	15.803027	1.096703	-1.041149	2.740034	0.000000	-0.158169	0.000000	-0.006450	-0.000399	0.000000	0.000000
59.374420	18.702819	17.281086	1.645120	-1.666972	2.631464	0.000000	-0.237324	0.000000	-0.006611	-0.000187	0.000000	0.000000
59.923480	16.646956	19.507067	2.077364	-2.411507	2.480417	0.000000	-0.312274	0.000000	-0.006655	0.000028	0.000000	0.000000
60.369440	15.036484	21.485439	1.546800	-2.006180	2.356633	0.000000	-0.243287	0.000000	-0.006681	-0.000145	0.000000	0.000000
60.810400	13.877780	23.042067	1.091009	-1.510815	2.264065	0.000000	-0.177450	0.000000	-0.006783	-0.000319	0.000000	0.000000
61.251360	13.097575	24.129776	0.685052	-0.946723	2.200128	0.000000	-0.113629	0.000000	-0.006962	-0.000496	0.000000	0.000000
61.692320	12.660233	24.699087	0.310388	-0.339567	2.164098	0.000000	-0.051097	0.000000	-0.007221	-0.000679	0.000000	0.000000
62.134530	12.545843	24.723520	-0.017270	0.218413	2.155575	0.000000	0.005203	0.000000	-0.007563	-0.000850	0.000000	0.000000
62.431853	12.563161	24.597388	-0.040976	0.205814	2.157375	0.000000	0.005203	0.000000	-0.007815	-0.000850	0.000000	0.000000
62.765186	12.599337	24.464887	-0.067554	0.191688	2.159393	0.000000	0.005203	0.000000	-0.008099	-0.000850	0.000000	0.000000
63.098520	12.653232	24.341804	-0.094131	0.177562	2.161410	0.000000	0.005203	0.000000	-0.008382	-0.000850	0.000000	0.000000
63.433103	12.725147	24.227729	-0.120808	0.163384	2.163436	0.000000	0.005203	0.000000	-0.008666	-0.000850	0.000000	0.000000
63.730426	12.804003	24.134376	-0.110531	0.086435	2.165233	0.000000	-0.000544	0.000000	-0.008919	-0.000827	0.000000	0.000000
64.171386	13.063670	23.792367	-0.480994	0.686315	2.179111	0.000000	0.061729	0.000000	-0.009335	-0.001062	0.000000	0.000000
64.612346	13.658375	22.933186	-0.873415	1.254972	2.220680	0.000000	0.124716	0.000000	-0.009858	-0.001310	0.000000	0.000000
65.053306	14.615262	21.595924	-1.305712	1.766541	2.290416	0.000000	0.189137	0.000000	-0.010492	-0.001572	0.000000	0.000000
65.494266	15.978004	19.841424	-1.797621	2.197752	2.389121	0.000000	0.255729	0.000000	-0.011246	-0.001852	0.000000	0.000000
65.940226	17.832196	17.724547	-2.376028	2.529518	2.519537	0.000000	0.325617	0.000000	-0.012139	-0.002155	0.000000	0.000000
66.489286	20.206450	15.356515	-1.924419	1.809593	2.678605	0.000000	0.249289	0.000000	-0.013211	-0.001745	0.000000	0.000000
67.038346	22.006964	13.703970	-1.336990	1.218523	2.794257	0.000000	0.168512	0.000000	-0.014049	-0.001303	0.000000	0.000000
67.587406	23.106705	12.649220	-0.655208	0.714217	2.864433	0.000000	0.084727	0.000000	-0.014638	-0.000839	0.000000	0.000000
68.136466	23.428094	12.117149	0.072806	0.260764	2.887880	0.000000	-0.000575	0.000000	-0.014967	-0.000359	0.000000	0.000000
68.435038	23.429227	11.948299	-0.008528	0.269494	2.890343	0.000000	0.007880	0.000000	-0.015087	-0.000401	0.000000	0.000000
68.768372	23.439655	11.778610	-0.022756	0.239570	2.893103	0.000000	0.007880	0.000000	-0.015220	-0.000401	0.000000	0.000000
69.101705	23.459569	11.628872	-0.036984	0.209646	2.895863	0.000000	0.007880	0.000000	-0.015354	-0.000401	0.000000	0.000000
69.436288	23.489096	11.498633	-0.051266	0.179610	2.898634	0.000000	0.007880	0.000000	-0.015488	-0.000401	0.000000	0.000000
69.733611	23.523523	11.399684	-0.133120	0.186368	2.901106	0.000000	0.016409	0.000000	-0.015607	-0.000444	0.000000	0.000000
70.282671	23.265718	11.423070	0.599858	-0.229221	2.886623	0.000000	-0.069464	0.000000	-0.015711	0.000063	0.000000	0.000000
