#ParticleID	Turn	x[m]	xp	y[m]	yp	z[m]	dE[GeV]# s	beta_x	beta_y	alpha_x	alpha_y	D_x	D_y	D_px	D_py	orbit_x	orbit_px	orbit_y	orbit_py
0.300000	11.888537	25.119461	-0.017377	-0.024754	2.610260	0.000000	0.000400	0.000000	-0.000311	0.000273	0.000000	0.000000
0.601250	11.906642	25.137990	-0.042724	-0.036754	2.610298	0.000000	0.000400	0.000000	-0.000229	0.000273	0.000000	0.000000
0.898573	11.939486	25.163367	-0.038421	-0.110293	2.610336	0.000000	-0.006010	0.000000	-0.000148	0.000274	0.000000	0.000000
1.339533	12.126410	24.981462	-0.386997	0.521246	2.623819	0.000000	0.067747	0.000000	-0.000028	0.000271	0.000000	0.000000
1.780493	12.627359	24.250959	-0.753257	1.129069	2.669965	0.000000	0.142272	0.000000	0.000092	0.000272	0.000000	0.000000
2.221453	13.465221	23.005093	-1.153933	1.685522	2.749298	0.000000	0.218415	0.000000	0.000213	0.000276	0.000000	0.000000
2.662413	14.678281	21.300548	-1.607332	2.165285	2.862721	0.000000	0.297043	0.000000	0.000336	0.000283	0.000000	0.000000
3.108373	16.342915	19.189891	-2.138502	2.547674	3.013380	0.000000	0.379541	0.000000	0.000464	0.000293	0.000000	0.000000
3.657433	18.477206	16.819199	-1.725487	1.795508	3.196428	0.000000	0.286786	0.000000	0.000621	0.000276	0.000000	0.000000
4.206493	20.087935	15.199822	-1.190584	1.171234	3.327087	0.000000	0.188949	0.000000	0.000766	0.000253	0.000000	0.000000
4.755553	21.061317	14.216418	-0.571575	0.630385	3.403041	0.000000	0.087765	0.000000	0.000898	0.000226	0.000000	0.000000
5.304613	21.328588	13.798944	0.087813	0.134437	3.422943	0.000000	-0.014973	0.000000	0.001014	0.000195	0.000000	0.000000
5.603185	21.313328	13.703990	0.018546	0.147881	3.421061	0.000000	-0.006105	0.000000	0.001074	0.000198	0.000000	0.000000
5.936519	21.306179	13.613688	0.002901	0.123026	3.418960	0.000000	-0.006105	0.000000	0.001140	0.000198	0.000000	0.000000
6.269852	21.309460	13.539956	-0.012744	0.098170	3.416859	0.000000	-0.006105	0.000000	0.001206	0.000198	0.000000	0.000000
6.604435	21.323242	13.482612	-0.028448	0.073221	3.414750	0.000000	-0.006105	0.000000	0.001272	0.000198	0.000000	0.000000
6.901758	21.344308	13.445662	-0.097547	0.085827	3.412876	0.000000	0.002712	0.000000	0.001331	0.000202	0.000000	0.000000
7.450818	21.087462	13.612453	0.562671	-0.391389	3.386146	0.000000	-0.099590	0.000000	0.001429	0.000157	0.000000	0.000000
7.999878	20.123219	14.315437	1.183145	-0.896484	3.303673	0.000000	-0.200123	0.000000	0.001503	0.000109	0.000000	0.000000
8.548938	18.519692	15.604691	1.720045	-1.465437	3.166920	0.000000	-0.297104	0.000000	0.001549	0.000060	0.000000	0.000000
9.097998	16.390154	17.572050	2.135442	-2.138774	2.978315	0.000000	-0.388815	0.000000	0.001568	0.000009	0.000000	0.000000
9.543958	14.728518	19.325009	1.603728	-1.775291	2.823172	0.000000	-0.307277	0.000000	0.001581	0.000050	0.000000	0.000000
9.984918	13.518965	20.700600	1.149644	-1.332304	2.704853	0.000000	-0.229729	0.000000	0.001613	0.000091	0.000000	0.000000
10.425878	12.685303	21.657176	0.748088	-0.828695	2.620103	0.000000	-0.154798	0.000000	0.001662	0.000134	0.000000	0.000000
10.866838	12.189442	22.151212	0.380710	-0.287379	2.567958	0.000000	-0.081632	0.000000	0.001731	0.000177	0.000000	0.000000
11.309048	12.008578	22.159691	0.059563	0.213480	2.547802	0.000000	-0.015537	0.000000	0.001819	0.000219	0.000000	0.000000
11.606371	11.980547	22.036917	0.034715	0.199452	2.543117	0.000000	-0.015537	0.000000	0.001884	0.000219	0.000000	0.000000
12.086371	11.966475	21.856314	-0.005398	0.176803	2.535554	0.000000	-0.015537	0.000000	0.001989	0.000219	0.000000	0.000000
12.566371	11.990911	21.697454	-0.045511	0.154155	2.527991	0.000000	-0.015537	0.000000	0.002094	0.000219	0.000000	0.000000
13.046371	12.053856	21.560336	-0.085624	0.131507	2.520428	0.000000	-0.015537	0.000000	0.002199	0.000219	0.000000	0.000000
13.526371	12.155309	21.444960	-0.125737	0.108859	2.512865	0.000000	-0.015537	0.000000	0.002304	0.000219	0.000000	0.000000
14.007621	12.295686	21.351111	-0.165955	0.086152	2.505282	0.000000	-0.015537	0.000000	0.002409	0.000219	0.000000	0.000000
14.304943	12.401756	21.304056	-0.161106	0.021174	2.500598	0.000000	-0.021525	0.000000	0.002474	0.000213	0.000000	0.000000
14.745903	12.702776	21.052274	-0.524018	0.547619	2.506614	0.000000	0.049311	0.000000	0.002583	0.000278	0.000000	0.000000
15.186863	13.333190	20.345448	-0.910876	1.049147	2.543933	0.000000	0.120706	0.000000	0.002720	0.000346	0.000000	0.000000
15.627823	14.321809	19.215736	-1.339358	1.502937	2.612978	0.000000	0.193473	0.000000	0.002889	0.000419	0.000000	0.000000
16.068783	15.713812	17.714542	-1.829042	1.888340	2.714534	0.000000	0.268438	0.000000	0.003090	0.000496	0.000000	0.000000
16.514743	17.596439	15.888669	-2.407130	2.188620	2.851453	0.000000	0.346930	0.000000	0.003329	0.000579	0.000000	0.000000
17.063803	20.013767	13.850210	-1.968970	1.545746	3.017964	0.000000	0.259682	0.000000	0.003617	0.000466	0.000000	0.000000
17.612863	21.870201	12.453486	-1.391702	1.012980	3.135296	0.000000	0.167834	0.000000	0.003840	0.000346	0.000000	0.000000
18.161923	23.034572	11.599010	-0.716106	0.552373	3.201369	0.000000	0.073015	0.000000	0.003995	0.000219	0.000000	0.000000
18.710983	23.424608	11.225915	0.010085	0.131114	3.215014	0.000000	-0.023095	0.000000	0.004079	0.000088	0.000000	0.000000
19.009556	23.457674	11.138868	-0.061782	0.132145	3.210510	0.000000	-0.014985	0.000000	0.004109	0.000098	0.000000	0.000000
19.342889	23.503616	11.060920	-0.076046	0.101697	3.205482	0.000000	-0.014985	0.000000	0.004141	0.000098	0.000000	0.000000
19.676223	23.559068	11.003271	-0.090310	0.071250	3.200454	0.000000	-0.014985	0.000000	0.004174	0.000098	0.000000	0.000000
20.010806	23.624584	10.965683	-0.221677	0.095018	3.195427	0.000000	0.000847	0.000000	0.004207	0.000119	0.000000	0.000000
20.308129	23.760341	10.917309	-0.294730	0.095180	3.195644	0.000000	0.008896	0.000000	0.004242	0.000130	0.000000	0.000000
20.857189	23.674266	11.034006	0.450603	-0.308961	3.174285	0.000000	-0.086462	0.000000	0.004276	-0.000008	0.000000	0.000000
21.406249	22.782333	11.603935	1.164102	-0.735111	3.100983	0.000000	-0.180287	0.000000	0.004234	-0.000146	0.000000	0.000000
21.955309	21.147564	12.667694	1.795356	-1.213628	2.977036	0.000000	-0.270916	0.000000	0.004116	-0.000281	0.000000	0.000000
22.504369	18.885465	14.301057	2.299767	-1.778597	2.804644	0.000000	-0.356744	0.000000	0.003926	-0.000411	0.000000	0.000000
22.950329	17.103707	15.767841	1.709294	-1.496417	2.662993	0.000000	-0.279525	0.000000	0.003765	-0.000312	0.000000	0.000000
23.391289	15.824797	16.938025	1.201716	-1.147062	2.556163	0.000000	-0.205954	0.000000	0.003648	-0.000216	0.000000	0.000000
23.832249	14.967761	17.775806	0.749052	-0.745512	2.481188	0.000000	-0.134728	0.000000	0.003574	-0.000123	0.000000	0.000000
24.273209	14.493432	18.243064	0.330616	-0.310038	2.437217	0.000000	-0.065034	0.000000	0.003540	-0.000031	0.000000	0.000000
24.715418	14.380236	18.318289	-0.038728	0.096056	2.423747	0.000000	-0.001824	0.000000	0.003546	0.000051	0.000000	0.000000
25.012741	14.409422	18.266040	-0.059435	0.079676	2.423190	0.000000	-0.001824	0.000000	0.003561	0.000051	0.000000	0.000000
25.346075	14.456783	18.219045	-0.082649	0.061311	2.422564	0.000000	-0.001824	0.000000	0.003578	0.000051	0.000000	0.000000
25.679408	14.519621	18.184292	-0.105864	0.042946	2.421939	0.000000	-0.001824	0.000000	0.003595	0.000051	0.000000	0.000000
26.013991	14.597962	18.162090	-0.010738	-0.122827	2.421288	0.000000	-0.021467	0.000000	0.003613	0.000022	0.000000	0.000000
26.311314	14.610398	18.240076	0.003484	-0.182626	2.414898	0.000000	-0.027184	0.000000	0.003619	0.000013	0.000000	0.000000
26.752274	14.787577	18.203399	-0.406765	0.265482	2.418005	0.000000	0.041407	0.000000	0.003646	0.000107	0.000000	0.000000
27.193234	15.333398	17.775342	-0.835601	0.701510	2.451396	0.000000	0.110469	0.000000	0.003714	0.000202	0.000000	0.000000
27.634194	16.272805	16.975384	-1.302622	1.105617	2.515448	0.000000	0.180787	0.000000	0.003824	0.000299	0.000000	0.000000
28.075154	17.648731	15.839923	-1.829169	1.459415	2.610891	0.000000	0.253162	0.000000	0.003978	0.000400	0.000000	0.000000
28.521114	19.548019	14.403490	-2.444324	1.747790	2.740420	0.000000	0.328873	0.000000	0.004180	0.000505	0.000000	0.000000
29.070174	21.962464	12.803262	-1.926528	1.183721	2.898077	0.000000	0.245365	0.000000	0.004419	0.000366	0.000000	0.000000
29.619234	23.729668	11.772821	-1.272617	0.703974	3.008694	0.000000	0.157509	0.000000	0.004581	0.000220	0.000000	0.000000
30.168294	24.724762	11.238766	-0.528792	0.274375	3.070309	0.000000	0.066863	0.000000	0.004661	0.000071	0.000000	0.000000
30.717354	24.877435	11.163055	0.252393	-0.135678	3.081831	0.000000	-0.024968	0.000000	0.004658	-0.000080	0.000000	0.000000
31.015927	24.767697	11.235423	0.177526	-0.134707	3.076705	0.000000	-0.017234	0.000000	0.004638	-0.000068	0.000000	0.000000
31.349260	24.653974	11.335297	0.163644	-0.164913	3.070983	0.000000	-0.017234	0.000000	0.004615	-0.000068	0.000000	0.000000
31.682593	24.549505	11.455308	0.149761	-0.195120	3.065261	0.000000	-0.017234	0.000000	0.004592	-0.000068	0.000000	0.000000
32.017177	24.453952	11.596020	0.135827	-0.225439	3.059518	0.000000	-0.017234	0.000000	0.004569	-0.000068	0.000000	0.000000
32.314499	24.376880	11.738080	0.062208	-0.222906	3.054415	0.000000	-0.009561	0.000000	0.004549	-0.000057	0.000000	0.000000
32.863559	23.891116	12.221938	0.817126	-0.663488	3.024304	0.000000	-0.100202	0.000000	0.004477	-0.000203	0.000000	0.000000
33.412619	22.603212	13.212599	1.514310	-1.151334	2.944913	0.000000	-0.189069	0.000000	0.004326	-0.000346	0.000000	0.000000
33.961679	20.604170	14.780629	2.104504	-1.721196	2.817649	0.000000	-0.274587	0.000000	0.004099	-0.000482	0.000000	0.000000
34.510739	18.035238	17.037721	2.546009	-2.413667	2.644766	0.000000	-0.355242	0.000000	0.003798	-0.000610	0.000000	0.000000
34.956699	16.038593	19.056695	1.946731	-2.094473	2.502949	0.000000	-0.282175	0.000000	0.003548	-0.000515	0.000000	0.000000
35.397659	14.550019	20.727880	1.441463	-1.680796	2.394125	0.000000	-0.212757	0.000000	0.003340	-0.000426	0.000000	0.000000
35.838619	13.476477	21.998963	1.002064	-1.190637	2.315314	0.000000	-0.145759	0.000000	0.003171	-0.000342	0.000000	0.000000
36.279579	12.768905	22.812111	0.608455	-0.646302	2.265621	0.000000	-0.080416	0.000000	0.003038	-0.000262	0.000000	0.000000
36.721789	12.394292	23.130637	0.272088	-0.127687	2.244454	0.000000	-0.021337	0.000000	0.002939	-0.000192	0.000000	0.000000
37.019112	12.240156	23.210450	0.246323	-0.140750	2.238167	0.000000	-0.021337	0.000000	0.002882	-0.000192	0.000000	0.000000
37.352445	12.085569	23.309165	0.217438	-0.155396	2.231119	0.000000	-0.021337	0.000000	0.002818	-0.000192	0.000000	0.000000
37.685779	11.950239	23.417645	0.188553	-0.170042	2.224070	0.000000	-0.021337	0.000000	0.002754	-0.000192	0.000000	0.000000
38.020362	11.833766	23.536350	0.159559	-0.184743	2.216995	0.000000	-0.021337	0.000000	0.002690	-0.000192	0.000000	0.000000
38.317684	11.746543	23.650095	0.161879	-0.254416	2.210708	0.000000	-0.026623	0.000000	0.002633	-0.000198	0.000000	0.000000
38.758644	11.753899	23.612460	-0.178677	0.339438	2.212997	0.000000	0.036692	0.000000	0.002560	-0.000132	0.000000	0.000000
39.199604	12.064069	23.055910	-0.527397	0.917846	2.243243	0.000000	0.100426	0.000000	0.002517	-0.000066	0.000000	0.000000
39.640564	12.691225	22.005770	-0.900213	1.454490	2.301792	0.000000	0.165305	0.000000	0.002502	-0.000001	0.000000	0.000000
40.081524	13.664026	20.509826	-1.314163	1.924951	2.389311	0.000000	0.232066	0.000000	0.002515	0.000063	0.000000	0.000000
40.527484	15.044456	18.613513	-1.792020	2.309175	2.508274	0.000000	0.301884	0.000000	0.002558	0.000129	0.000000	0.000000
41.076544	16.807361	16.482301	-1.399583	1.595159	2.653396	0.000000	0.226106	0.000000	0.002606	0.000045	0.000000	0.000000
41.625604	18.082107	15.068567	-0.908274	0.994771	2.755791	0.000000	0.146318	0.000000	0.002608	-0.000039	0.000000	0.000000
42.174664	18.778640	14.271606	-0.352803	0.465243	2.813641	0.000000	0.063934	0.000000	0.002564	-0.000123	0.000000	0.000000
42.723724	18.847753	14.034650	0.227589	-0.031143	2.825921	0.000000	-0.019586	0.000000	0.002474	-0.000204	0.000000	0.000000
43.022297	18.745521	14.038136	0.163020	-0.016472	2.822291	0.000000	-0.012357	0.000000	0.002414	-0.000198	0.000000	0.000000
43.502297	18.601640	14.070366	0.136733	-0.050674	2.816454	0.000000	-0.012357	0.000000	0.002319	-0.000198	0.000000	0.000000
43.982297	18.482993	14.135429	0.110447	-0.084875	2.810618	0.000000	-0.012357	0.000000	0.002224	-0.000198	0.000000	0.000000
44.462297	18.389582	14.233326	0.084160	-0.119077	2.804782	0.000000	-0.012357	0.000000	0.002129	-0.000198	0.000000	0.000000
44.942297	18.321406	14.364057	0.057873	-0.153279	2.798946	0.000000	-0.012357	0.000000	0.002034	-0.000198	0.000000	0.000000
45.423547	18.278613	14.527911	-0.059044	-0.115590	2.793112	0.000000	0.001482	0.000000	0.001939	-0.000188	0.000000	0.000000
45.720870	18.318578	14.602811	-0.122471	-0.098818	2.793609	0.000000	0.008666	0.000000	0.001883	-0.000184	0.000000	0.000000
46.269930	18.144518	14.993627	0.437490	-0.617156	2.775836	0.000000	-0.073717	0.000000	0.001766	-0.000243	0.000000	0.000000
46.818990	17.368934	15.974309	0.966542	-1.179455	2.713152	0.000000	-0.154796	0.000000	0.001617	-0.000297	0.000000	0.000000
47.368050	16.046623	17.614708	1.427313	-1.825766	2.606665	0.000000	-0.233134	0.000000	0.001440	-0.000347	0.000000	0.000000
47.917110	14.270999	20.031666	1.787253	-2.602125	2.458262	0.000000	-0.307342	0.000000	0.001237	-0.000390	0.000000	0.000000
48.363070	12.888637	22.180329	1.323284	-2.195622	2.336692	0.000000	-0.238862	0.000000	0.001070	-0.000360	0.000000	0.000000
48.804030	11.901547	23.900537	0.923556	-1.690529	2.246007	0.000000	-0.173501	0.000000	0.000917	-0.000335	0.000000	0.000000
49.244990	11.247128	25.139535	0.566027	-1.108518	2.183673	0.000000	-0.110113	0.000000	0.000774	-0.000313	0.000000	0.000000
49.685950	10.895477	25.840951	0.234361	-0.476070	2.148980	0.000000	-0.047975	0.000000	0.000640	-0.000295	0.000000	0.000000
50.128160	10.830676	25.972588	-0.060281	0.114709	2.141546	0.000000	0.008393	0.000000	0.000513	-0.000281	0.000000	0.000000
50.425482	10.874714	25.907825	-0.087833	0.103111	2.144125	0.000000	0.008393	0.000000	0.000429	-0.000281	0.000000	0.000000
50.758816	10.943566	25.843419	-0.118721	0.090108	2.147016	0.000000	0.008393	0.000000	0.000336	-0.000281	0.000000	0.000000
51.092149	11.033009	25.787681	-0.149610	0.077105	2.149908	0.000000	0.008393	0.000000	0.000242	-0.000281	0.000000	0.000000
51.426732	11.143271	25.740974	-0.090213	-0.144770	2.152788	0.000000	-0.009072	0.000000	0.000148	-0.000282	0.000000	0.000000
51.724055	11.204913	25.830567	-0.089651	-0.219973	2.150175	0.000000	-0.014341	0.000000	0.000064	-0.000283	0.000000	0.000000
52.165015	11.430079	25.737136	-0.423002	0.431048	2.157594	0.000000	0.047475	0.000000	-0.000061	-0.000283	0.000000	0.000000
52.605975	11.956608	25.076046	-0.775677	1.062456	2.192366	0.000000	0.109835	0.000000	-0.000186	-0.000286	0.000000	0.000000
53.046935	12.808555	23.877379	-1.163788	1.645522	2.254888	0.000000	0.173448	0.000000	-0.000313	-0.000292	0.000000	0.000000
53.487895	14.024838	22.195676	-1.605066	2.153717	2.345873	0.000000	0.239041	0.000000	-0.000444	-0.000302	0.000000	0.000000
53.933855	15.681841	20.082320	-2.123930	2.565248	2.467866	0.000000	0.307757	0.000000	-0.000581	-0.000315	0.000000	0.000000
54.482915	17.814929	17.704123	-1.738237	1.791758	2.616764	0.000000	0.233235	0.000000	-0.000749	-0.000294	0.000000	0.000000
55.031975	19.454147	16.100662	-1.229773	1.145889	2.723533	0.000000	0.154572	0.000000	-0.000903	-0.000267	0.000000	0.000000
55.581035	20.483720	15.157724	-0.634453	0.581640	2.786277	0.000000	0.073163	0.000000	-0.001041	-0.000235	0.000000	0.000000
56.130095	20.830936	14.808143	0.005675	0.058819	2.803882	0.000000	-0.009548	0.000000	-0.001161	-0.000200	0.000000	0.000000
56.428668	20.864652	14.755745	-0.063648	0.077571	2.803301	0.000000	-0.002151	0.000000	-0.001221	-0.000203	0.000000	0.000000
56.762001	20.912431	14.711607	-0.079689	0.054845	2.802651	0.000000	-0.002151	0.000000	-0.001289	-0.000203	0.000000	0.000000
57.095334	20.970904	14.682619	-0.095729	0.032119	2.802002	0.000000	-0.002151	0.000000	-0.001356	-0.000203	0.000000	0.000000
57.429918	21.040350	14.668758	-0.111830	0.009307	2.801350	0.000000	-0.002151	0.000000	-0.001424	-0.000203	0.000000	0.000000
57.727240	21.111105	14.669250	-0.181981	0.027796	2.800771	0.000000	0.005258	0.000000	-0.001484	-0.000207	0.000000	0.000000
58.276300	20.950411	14.920256	0.472816	-0.487661	2.781057	0.000000	-0.077317	0.000000	-0.001584	-0.000157	0.000000	0.000000
58.825360	20.084872	15.752919	1.094214	-1.037850	2.716287	0.000000	-0.158523	0.000000	-0.001656	-0.000104	0.000000	0.000000
59.374420	18.575622	17.226542	1.638326	-1.661960	2.607610	0.000000	-0.236919	0.000000	-0.001699	-0.000050	0.000000	0.000000
59.923480	16.529259	19.446085	2.066722	-2.404441	2.456953	0.000000	-0.311113	0.000000	-0.001711	0.000005	0.000000	0.000000
60.369440	14.926944	21.418763	1.539009	-2.000400	2.333536	0.000000	-0.242705	0.000000	-0.001719	-0.000039	0.000000	0.000000
60.810400	13.773895	22.971117	1.085812	-1.506687	2.241016	0.000000	-0.177453	0.000000	-0.001746	-0.000084	0.000000	0.000000
61.251360	12.997212	24.056060	0.682219	-0.944425	2.176816	0.000000	-0.114222	0.000000	-0.001793	-0.000130	0.000000	0.000000
61.692320	12.561414	24.624232	0.309794	-0.339194	2.140205	0.000000	-0.052289	0.000000	-0.001861	-0.000177	0.000000	0.000000
62.134530	12.446637	24.649232	-0.017496	0.219937	2.130772	0.000000	0.003728	0.000000	-0.001949	-0.000221	0.000000	0.000000
62.431853	12.464145	24.522207	-0.041391	0.207292	2.131946	0.000000	0.003728	0.000000	-0.002015	-0.000221	0.000000	0.000000
62.765186	12.500668	24.388738	-0.068180	0.193114	2.133262	0.000000	0.003728	0.000000	-0.002089	-0.000221	0.000000	0.000000
63.098520	12.555051	24.264721	-0.094969	0.178937	2.134579	0.000000	0.003728	0.000000	-0.002163	-0.000221	0.000000	0.000000
63.433103	12.627598	24.149743	-0.121859	0.164707	2.135900	0.000000	0.003728	0.000000	-0.002236	-0.000221	0.000000	0.000000
63.730426	12.707163	24.055565	-0.113918	0.091719	2.137074	0.000000	-0.001626	0.000000	-0.002302	-0.000215	0.000000	0.000000
64.171386	12.969032	23.709803	-0.482306	0.689433	2.150019	0.000000	0.059920	0.000000	-0.002410	-0.000276	0.000000	0.000000
64.612346	13.564216	22.848796	-0.872724	1.255780	2.190254	0.000000	0.122151	0.000000	-0.002546	-0.000340	0.000000	0.000000
65.053306	14.519900	21.511718	-1.303008	1.764993	2.258238	0.000000	0.185777	0.000000	-0.002711	-0.000408	0.000000	0.000000
65.494266	15.879735	19.759405	-1.792811	2.193905	2.354747	0.000000	0.251523	0.000000	-0.002906	-0.000480	0.000000	0.000000
65.940226	17.729050	17.646798	-2.369143	2.523684	2.482455	0.000000	0.320531	0.000000	-0.003138	-0.000558	0.000000	0.000000
66.489286	20.098405	15.283651	-1.921084	1.805908	2.638318	0.000000	0.245430	0.000000	-0.003416	-0.000452	0.000000	0.000000
67.038346	21.897916	13.633850	-1.337358	1.216752	2.751630	0.000000	0.165969	0.000000	-0.003633	-0.000338	0.000000	0.000000
67.587406	23.000511	12.579888	-0.659190	0.714256	2.820377	0.000000	0.083560	0.000000	-0.003786	-0.000218	0.000000	0.000000
68.136466	23.328333	12.046696	0.065527	0.262629	2.843340	0.000000	-0.000336	0.000000	-0.003871	-0.000094	0.000000	0.000000
68.435038	23.330581	11.878509	-0.010181	0.268188	2.845559	0.000000	0.007332	0.000000	-0.003903	-0.000104	0.000000	0.000000
68.768372	23.342131	11.709744	-0.024470	0.238108	2.848038	0.000000	0.007332	0.000000	-0.003937	-0.000104	0.000000	0.000000
69.101705	23.363208	11.561031	-0.038759	0.208028	2.850517	0.000000	0.007332	0.000000	-0.003972	-0.000104	0.000000	0.000000
69.436288	23.393943	11.431928	-0.053102	0.177835	2.853005	0.000000	0.007332	0.000000	-0.004007	-0.000104	0.000000	0.000000
69.733611	23.429320	11.334151	-0.129112	0.181591	2.855216	0.000000	0.015042	0.000000	-0.004038	-0.000115	0.000000	0.000000
70.282671	23.168742	11.361832	0.600887	-0.232306	2.840307	0.000000	-0.069368	0.000000	-0.004065	0.000016	0.000000	0.000000
