#ParticleID	Turn	x[m]	xp	y[m]	yp	z[m]	dE[GeV]# s	beta_x	beta_y	alpha_x	alpha_y	D_x	D_y	D_px	D_py	orbit_x	orbit_px	orbit_y	orbit_py
0.300000	11.964287	25.299688	-0.018040	-0.022585	2.598622	0.000000	-0.000252	0.000000	-0.001071	0.000919	0.000000	0.000000
0.601250	11.982744	25.316884	-0.043227	-0.034498	2.598269	0.000000	-0.000252	0.000000	-0.000794	0.000919	0.000000	0.000000
0.898573	12.015840	25.340894	-0.038475	-0.108372	2.597920	0.000000	-0.006655	0.000000	-0.000521	0.000921	0.000000	0.000000
1.339533	12.203677	25.155231	-0.388800	0.527814	2.610774	0.000000	0.066773	0.000000	-0.000117	0.000912	0.000000	0.000000
1.780493	12.707117	24.416987	-0.756896	1.139988	2.656143	0.000000	0.140952	0.000000	0.000286	0.000915	0.000000	0.000000
2.221453	13.549170	23.159742	-1.159579	1.700296	2.734540	0.000000	0.216727	0.000000	0.000691	0.000927	0.000000	0.000000
2.662413	14.768319	21.440691	-1.615251	2.183244	2.846854	0.000000	0.294960	0.000000	0.001105	0.000950	0.000000	0.000000
3.108373	16.441337	19.312854	-2.149104	2.568032	2.996203	0.000000	0.377033	0.000000	0.001536	0.000984	0.000000	0.000000
3.657433	18.585826	16.922576	-1.732937	1.810953	3.177682	0.000000	0.284856	0.000000	0.002061	0.000926	0.000000	0.000000
4.206493	20.202973	15.288382	-1.194335	1.182866	3.307125	0.000000	0.187640	0.000000	0.002550	0.000852	0.000000	0.000000
4.755553	21.178514	14.293880	-0.571345	0.639035	3.382243	0.000000	0.087109	0.000000	0.002993	0.000762	0.000000	0.000000
5.304613	21.443509	13.868240	0.092024	0.140721	3.401710	0.000000	-0.014954	0.000000	0.003384	0.000658	0.000000	0.000000
5.603185	21.425214	13.769900	0.023654	0.153594	3.399623	0.000000	-0.006320	0.000000	0.003583	0.000667	0.000000	0.000000
5.936519	21.414633	13.675763	0.008088	0.128816	3.397294	0.000000	-0.006320	0.000000	0.003805	0.000667	0.000000	0.000000
6.269852	21.414430	13.598146	-0.007479	0.104037	3.394965	0.000000	-0.006320	0.000000	0.004028	0.000667	0.000000	0.000000
6.604435	21.424663	13.536849	-0.023104	0.079166	3.392627	0.000000	-0.006320	0.000000	0.004251	0.000667	0.000000	0.000000
6.901758	21.442542	13.496337	-0.090899	0.091129	3.390550	0.000000	0.002204	0.000000	0.004449	0.000679	0.000000	0.000000
7.450818	21.176760	13.658094	0.572437	-0.387456	3.363515	0.000000	-0.099380	0.000000	0.004781	0.000529	0.000000	0.000000
7.999878	20.200440	14.357415	1.195343	-0.893644	3.281186	0.000000	-0.199192	0.000000	0.005028	0.000370	0.000000	0.000000
8.548938	18.582553	15.644124	1.733805	-1.463495	3.145027	0.000000	-0.295464	0.000000	0.005186	0.000205	0.000000	0.000000
9.097998	16.437406	17.609886	2.149777	-2.137604	2.957456	0.000000	-0.386492	0.000000	0.005252	0.000035	0.000000	0.000000
9.543958	14.763962	19.361226	1.615801	-1.772628	2.803196	0.000000	-0.305462	0.000000	0.005299	0.000172	0.000000	0.000000
9.984918	13.544469	20.733965	1.160118	-1.328355	2.685488	0.000000	-0.228413	0.000000	0.005405	0.000310	0.000000	0.000000
10.425878	12.702092	21.686606	0.757448	-0.823634	2.601093	0.000000	-0.153969	0.000000	0.005573	0.000452	0.000000	0.000000
10.866838	12.198335	22.175796	0.389389	-0.281430	2.549047	0.000000	-0.081283	0.000000	0.005804	0.000598	0.000000	0.000000
11.309048	12.010027	22.178691	0.066742	0.222086	2.528736	0.000000	-0.015368	0.000000	0.006102	0.000737	0.000000	0.000000
11.606371	11.977732	22.050811	0.041876	0.208019	2.523948	0.000000	-0.015368	0.000000	0.006322	0.000737	0.000000	0.000000
12.086371	11.956801	21.862013	0.001731	0.185309	2.516217	0.000000	-0.015368	0.000000	0.006676	0.000737	0.000000	0.000000
12.566371	11.974409	21.695017	-0.038414	0.162599	2.508486	0.000000	-0.015368	0.000000	0.007030	0.000737	0.000000	0.000000
13.046371	12.030555	21.549822	-0.078558	0.139890	2.500755	0.000000	-0.015368	0.000000	0.007383	0.000737	0.000000	0.000000
13.526371	12.125241	21.426429	-0.118703	0.117180	2.493024	0.000000	-0.015368	0.000000	0.007737	0.000737	0.000000	0.000000
14.007621	12.258862	21.324601	-0.158952	0.094411	2.485273	0.000000	-0.015368	0.000000	0.008092	0.000737	0.000000	0.000000
14.304943	12.360751	21.272686	-0.155942	0.032580	2.480482	0.000000	-0.020963	0.000000	0.008312	0.000718	0.000000	0.000000
14.745903	12.656884	21.011254	-0.517794	0.557960	2.486388	0.000000	0.049365	0.000000	0.008676	0.000937	0.000000	0.000000
15.186863	13.281421	20.295888	-0.903319	1.057951	2.523306	0.000000	0.120245	0.000000	0.009139	0.001166	0.000000	0.000000
15.627823	14.262920	19.159135	-1.330141	1.509796	2.591654	0.000000	0.192482	0.000000	0.009707	0.001409	0.000000	0.000000
16.068783	15.646266	17.652717	-1.817771	1.892932	2.692205	0.000000	0.266897	0.000000	0.010385	0.001668	0.000000	0.000000
16.514743	17.518361	15.823528	-2.393463	2.190880	2.827790	0.000000	0.344829	0.000000	0.011191	0.001948	0.000000	0.000000
17.063803	19.922214	13.781839	-1.957043	1.548962	2.992724	0.000000	0.258349	0.000000	0.012158	0.001570	0.000000	0.000000
17.612863	21.767414	12.380770	-1.382283	1.017404	3.109054	0.000000	0.167310	0.000000	0.012910	0.001164	0.000000	0.000000
18.161923	22.923494	11.520511	-0.709805	0.558336	3.174724	0.000000	0.073321	0.000000	0.013433	0.000737	0.000000	0.000000
18.710983	23.308705	11.139778	0.012856	0.139049	3.188576	0.000000	-0.021958	0.000000	0.013717	0.000297	0.000000	0.000000
19.009556	23.336767	11.049745	-0.053625	0.137111	3.184104	0.000000	-0.014619	0.000000	0.013816	0.000331	0.000000	0.000000
19.342889	23.377291	10.968583	-0.067949	0.106377	3.179121	0.000000	-0.014619	0.000000	0.013926	0.000331	0.000000	0.000000
19.676223	23.427366	10.907909	-0.082274	0.075644	3.174138	0.000000	-0.014619	0.000000	0.014036	0.000331	0.000000	0.000000
20.010806	23.487523	10.867478	-0.213023	0.098639	3.169156	0.000000	0.001083	0.000000	0.014147	0.000401	0.000000	0.000000
20.308129	23.618271	10.816972	-0.280305	0.095839	3.169368	0.000000	0.008336	0.000000	0.014266	0.000436	0.000000	0.000000
20.857189	23.518948	10.931460	0.460231	-0.305546	3.147850	0.000000	-0.086197	0.000000	0.014378	-0.000028	0.000000	0.000000
21.406249	22.619214	11.496107	1.168239	-0.728703	3.075004	0.000000	-0.179202	0.000000	0.014235	-0.000492	0.000000	0.000000
21.955309	20.982683	12.551142	1.793667	-1.203784	2.952123	0.000000	-0.269034	0.000000	0.013839	-0.000947	0.000000	0.000000
22.504369	18.725067	14.171730	2.292304	-1.764638	2.781382	0.000000	-0.354108	0.000000	0.013198	-0.001385	0.000000	0.000000
22.950329	16.947959	15.627642	1.705082	-1.485506	2.641125	0.000000	-0.277429	0.000000	0.012655	-0.001050	0.000000	0.000000
23.391289	15.671021	16.789950	1.200789	-1.139851	2.535352	0.000000	-0.204392	0.000000	0.012264	-0.000728	0.000000	0.000000
23.832249	14.813183	17.623227	0.751394	-0.742317	2.461115	0.000000	-0.133677	0.000000	0.012012	-0.000415	0.000000	0.000000
24.273209	14.335216	18.089552	0.336350	-0.310998	2.417570	0.000000	-0.064480	0.000000	0.011897	-0.000107	0.000000	0.000000
24.715418	14.215404	18.167388	-0.032596	0.094980	2.404226	0.000000	-0.001228	0.000000	0.011917	0.000172	0.000000	0.000000
25.012741	14.241012	18.115819	-0.053534	0.078466	2.403809	0.000000	-0.001228	0.000000	0.011969	0.000172	0.000000	0.000000
25.346075	14.284526	18.069679	-0.077007	0.059953	2.403342	0.000000	-0.001228	0.000000	0.012026	0.000172	0.000000	0.000000
25.679408	14.343689	18.035882	-0.100481	0.041440	2.402875	0.000000	-0.001228	0.000000	0.012084	0.000172	0.000000	0.000000
26.013991	14.418519	18.014734	-0.007070	-0.123288	2.402382	0.000000	-0.020718	0.000000	0.012141	0.000074	0.000000	0.000000
26.311314	14.428792	18.093107	0.003493	-0.179136	2.396195	0.000000	-0.025897	0.000000	0.012163	0.000046	0.000000	0.000000
26.752274	14.604146	18.055094	-0.402513	0.264999	2.399708	0.000000	0.042233	0.000000	0.012253	0.000361	0.000000	0.000000
27.193234	15.144421	17.629162	-0.826922	0.697074	2.433210	0.000000	0.110840	0.000000	0.012482	0.000679	0.000000	0.000000
27.634194	16.074324	16.834693	-1.289138	1.097422	2.497082	0.000000	0.180703	0.000000	0.012853	0.001006	0.000000	0.000000
28.075154	17.436386	15.707842	-1.810294	1.447823	2.592049	0.000000	0.252614	0.000000	0.013371	0.001344	0.000000	0.000000
28.521114	19.316868	14.282711	-2.419419	1.733505	2.720803	0.000000	0.327873	0.000000	0.014049	0.001700	0.000000	0.000000
29.070174	21.708354	12.695684	-1.908615	1.173404	2.877560	0.000000	0.244987	0.000000	0.014855	0.001232	0.000000	0.000000
29.619234	23.460806	11.674575	-1.262883	0.696913	2.987796	0.000000	0.157773	0.000000	0.015398	0.000741	0.000000	0.000000
30.168294	24.450302	11.146637	-0.527872	0.270081	3.049562	0.000000	0.067771	0.000000	0.015667	0.000238	0.000000	0.000000
30.717354	24.606870	11.074257	0.244456	-0.137507	3.061764	0.000000	-0.023429	0.000000	0.015658	-0.000270	0.000000	0.000000
31.015927	24.497613	11.149657	0.176386	-0.139783	3.056889	0.000000	-0.016523	0.000000	0.015589	-0.000232	0.000000	0.000000
31.349260	24.384700	11.253006	0.162355	-0.170264	3.051459	0.000000	-0.016523	0.000000	0.015512	-0.000232	0.000000	0.000000
31.682593	24.281139	11.376675	0.148325	-0.200744	3.046028	0.000000	-0.016523	0.000000	0.015435	-0.000232	0.000000	0.000000
32.017177	24.186597	11.521243	0.134243	-0.231339	3.040577	0.000000	-0.016523	0.000000	0.015357	-0.000232	0.000000	0.000000
32.314499	24.110657	11.666811	0.067127	-0.232140	3.035744	0.000000	-0.009648	0.000000	0.015289	-0.000194	0.000000	0.000000
32.863559	23.624085	12.160049	0.813322	-0.671299	3.005901	0.000000	-0.099718	0.000000	0.015047	-0.000686	0.000000	0.000000
33.412619	22.344644	13.158919	1.502014	-1.158292	2.927261	0.000000	-0.188029	0.000000	0.014538	-0.001165	0.000000	0.000000
33.961679	20.362812	14.734583	2.084519	-1.727817	2.801212	0.000000	-0.273023	0.000000	0.013771	-0.001624	0.000000	0.000000
34.510739	17.818729	16.999294	2.519663	-2.420451	2.629982	0.000000	-0.353198	0.000000	0.012759	-0.002054	0.000000	0.000000
34.956699	15.842250	19.025476	1.926261	-2.103048	2.489548	0.000000	-0.280457	0.000000	0.011915	-0.001734	0.000000	0.000000
35.397659	14.369029	20.705152	1.426113	-1.690957	2.381871	0.000000	-0.211358	0.000000	0.011217	-0.001435	0.000000	0.000000
35.838619	13.306743	21.985865	0.991166	-1.201907	2.303991	0.000000	-0.144650	0.000000	0.010647	-0.001154	0.000000	0.000000
36.279579	12.606811	22.809336	0.601533	-0.658158	2.255027	0.000000	-0.079579	0.000000	0.010198	-0.000885	0.000000	0.000000
36.721789	12.236593	23.138371	0.266427	-0.135623	2.234402	0.000000	-0.020359	0.000000	0.009864	-0.000649	0.000000	0.000000
37.019112	12.085900	23.222910	0.240405	-0.148709	2.228542	0.000000	-0.020359	0.000000	0.009671	-0.000649	0.000000	0.000000
37.352445	11.935355	23.326939	0.211230	-0.163380	2.221972	0.000000	-0.020359	0.000000	0.009455	-0.000649	0.000000	0.000000
37.685779	11.804260	23.440750	0.182056	-0.178051	2.215402	0.000000	-0.020359	0.000000	0.009238	-0.000649	0.000000	0.000000
38.020362	11.692231	23.564823	0.152772	-0.192777	2.208808	0.000000	-0.020359	0.000000	0.009021	-0.000649	0.000000	0.000000
38.317684	11.609097	23.683402	0.152790	-0.259205	2.202945	0.000000	-0.025300	0.000000	0.008828	-0.000670	0.000000	0.000000
38.758644	11.623082	23.649561	-0.184806	0.335648	2.205944	0.000000	0.037833	0.000000	0.008582	-0.000446	0.000000	0.000000
39.199604	11.937450	23.095802	-0.530844	0.915224	2.236760	0.000000	0.101403	0.000000	0.008434	-0.000226	0.000000	0.000000
39.640564	12.566569	22.047329	-0.901142	1.453147	2.295747	0.000000	0.166130	0.000000	0.008382	-0.000009	0.000000	0.000000
40.081524	13.539194	20.551859	-1.312626	1.924937	2.383577	0.000000	0.232750	0.000000	0.008426	0.000207	0.000000	0.000000
40.527484	14.917364	18.654705	-1.788065	2.310637	2.502736	0.000000	0.302451	0.000000	0.008568	0.000428	0.000000	0.000000
41.076544	16.678810	16.522332	-1.400524	1.595489	2.648120	0.000000	0.226834	0.000000	0.008726	0.000148	0.000000	0.000000
41.625604	17.957364	15.108711	-0.914018	0.994011	2.750963	0.000000	0.147194	0.000000	0.008729	-0.000135	0.000000	0.000000
42.174664	18.662669	14.313128	-0.362929	0.463353	2.809439	0.000000	0.064941	0.000000	0.008578	-0.000416	0.000000	0.000000
42.723724	18.744886	14.078902	0.213797	-0.034291	2.822509	0.000000	-0.018471	0.000000	0.008274	-0.000689	0.000000	0.000000
43.022297	18.649243	14.085245	0.151914	-0.021178	2.819236	0.000000	-0.011619	0.000000	0.008075	-0.000668	0.000000	0.000000
43.502297	18.516045	14.121941	0.125581	-0.055272	2.813980	0.000000	-0.011619	0.000000	0.007754	-0.000668	0.000000	0.000000
43.982297	18.408127	14.191367	0.099249	-0.089365	2.808723	0.000000	-0.011619	0.000000	0.007434	-0.000668	0.000000	0.000000
44.462297	18.325487	14.293523	0.072917	-0.123459	2.803466	0.000000	-0.011619	0.000000	0.007113	-0.000668	0.000000	0.000000
44.942297	18.268126	14.428408	0.046584	-0.157552	2.798210	0.000000	-0.011619	0.000000	0.006792	-0.000668	0.000000	0.000000
45.423547	18.236220	14.596322	-0.070169	-0.119416	2.792957	0.000000	0.002219	0.000000	0.006471	-0.000636	0.000000	0.000000
45.720870	18.282838	14.673458	-0.131768	-0.103920	2.793807	0.000000	0.009128	0.000000	0.006282	-0.000620	0.000000	0.000000
46.269930	18.119377	15.071163	0.427316	-0.624632	2.776548	0.000000	-0.073280	0.000000	0.005887	-0.000817	0.000000	0.000000
46.818990	17.354905	16.061650	0.956194	-1.189839	2.714426	0.000000	-0.154402	0.000000	0.005388	-0.001000	0.000000	0.000000
47.368050	16.043459	17.715464	1.417499	-1.839804	2.608536	0.000000	-0.232800	0.000000	0.004792	-0.001165	0.000000	0.000000
47.917110	14.277724	20.150401	1.778638	-2.620826	2.460748	0.000000	-0.307088	0.000000	0.004112	-0.001309	0.000000	0.000000
48.363070	12.902551	22.314783	1.315250	-2.211847	2.339685	0.000000	-0.238526	0.000000	0.003551	-0.001209	0.000000	0.000000
48.804030	11.922242	24.048027	0.915787	-1.703623	2.249513	0.000000	-0.173078	0.000000	0.003037	-0.001125	0.000000	0.000000
49.244990	11.274554	25.297002	0.558179	-1.117882	2.187711	0.000000	-0.109590	0.000000	0.002558	-0.001052	0.000000	0.000000
49.685950	10.929879	26.004886	0.226082	-0.481279	2.153579	0.000000	-0.047339	0.000000	0.002107	-0.000992	0.000000	0.000000
50.128160	10.872635	26.139191	-0.069557	0.114443	2.146746	0.000000	0.009204	0.000000	0.001680	-0.000948	0.000000	0.000000
50.425482	10.922167	26.074564	-0.097036	0.102920	2.149764	0.000000	0.009204	0.000000	0.001398	-0.000948	0.000000	0.000000
50.758816	10.997126	26.010258	-0.127842	0.090000	2.153148	0.000000	0.009204	0.000000	0.001082	-0.000948	0.000000	0.000000
51.092149	11.092623	25.954564	-0.158648	0.077081	2.156531	0.000000	0.009204	0.000000	0.000766	-0.000948	0.000000	0.000000
51.426732	11.208904	25.907848	-0.098636	-0.146064	2.159906	0.000000	-0.008319	0.000000	0.000449	-0.000951	0.000000	0.000000
51.724055	11.275521	25.998189	-0.097813	-0.221793	2.157716	0.000000	-0.013602	0.000000	0.000166	-0.000952	0.000000	0.000000
52.165015	11.508566	25.904399	-0.432995	0.433678	2.165791	0.000000	0.048417	0.000000	-0.000253	-0.000953	0.000000	0.000000
52.605975	12.044776	25.239068	-0.787952	1.069413	2.201314	0.000000	0.110998	0.000000	-0.000675	-0.000965	0.000000	0.000000
53.046935	12.908639	24.032479	-1.178900	1.656487	2.264693	0.000000	0.174853	0.000000	-0.001106	-0.000988	0.000000	0.000000
53.487895	14.139611	22.339538	-1.623699	2.168192	2.356655	0.000000	0.240710	0.000000	-0.001548	-0.001022	0.000000	0.000000
53.933855	15.814960	20.211972	-2.146933	2.582551	2.479773	0.000000	0.309715	0.000000	-0.002014	-0.001068	0.000000	0.000000
54.482915	17.971406	17.817505	-1.757965	1.804361	2.630018	0.000000	0.234791	0.000000	-0.002581	-0.000994	0.000000	0.000000
55.031975	19.629605	16.202408	-1.244856	1.154688	2.737872	0.000000	0.155687	0.000000	-0.003102	-0.000902	0.000000	0.000000
55.581035	20.672471	15.251632	-0.643846	0.587257	2.801413	0.000000	0.073806	0.000000	-0.003568	-0.000794	0.000000	0.000000
56.130095	21.026379	14.897450	0.002619	0.061655	2.819508	0.000000	-0.009396	0.000000	-0.003970	-0.000671	0.000000	0.000000
56.428668	21.062944	14.842592	-0.068371	0.081752	2.819177	0.000000	-0.001786	0.000000	-0.004174	-0.000682	0.000000	0.000000
56.762001	21.113824	14.795627	-0.084270	0.059144	2.818809	0.000000	-0.001786	0.000000	-0.004401	-0.000682	0.000000	0.000000
57.095334	21.175304	14.763733	-0.100170	0.036536	2.818441	0.000000	-0.001786	0.000000	-0.004629	-0.000682	0.000000	0.000000
57.429918	21.247674	14.746877	-0.116129	0.013844	2.818072	0.000000	-0.001786	0.000000	-0.004857	-0.000682	0.000000	0.000000
57.727240	21.320962	14.744629	-0.188346	0.033670	2.817745	0.000000	0.005884	0.000000	-0.005060	-0.000695	0.000000	0.000000
58.276300	21.163263	14.990325	0.473513	-0.483829	2.798451	0.000000	-0.077238	0.000000	-0.005395	-0.000526	0.000000	0.000000
58.825360	20.293030	15.819723	1.101922	-1.035782	2.733738	0.000000	-0.158999	0.000000	-0.005636	-0.000347	0.000000	0.000000
59.374420	18.771724	17.291882	1.652508	-1.661498	2.624747	0.000000	-0.237946	0.000000	-0.005776	-0.000163	0.000000	0.000000
59.923480	16.706772	19.511644	2.086395	-2.405539	2.473412	0.000000	-0.312675	0.000000	-0.005814	0.000025	0.000000	0.000000
60.369440	15.089106	21.484368	1.553952	-1.999516	2.349405	0.000000	-0.243869	0.000000	-0.005836	-0.000126	0.000000	0.000000
60.810400	13.924777	23.034954	1.096644	-1.503785	2.256525	0.000000	-0.178220	0.000000	-0.005925	-0.000277	0.000000	0.000000
61.251360	13.140174	24.116432	0.689427	-0.939645	2.192183	0.000000	-0.114597	0.000000	-0.006081	-0.000432	0.000000	0.000000
61.692320	12.699460	24.679605	0.313705	-0.332761	2.155648	0.000000	-0.052275	0.000000	-0.006307	-0.000592	0.000000	0.000000
62.134530	12.582557	24.698265	-0.015033	0.225191	2.146512	0.000000	0.003871	0.000000	-0.006605	-0.000742	0.000000	0.000000
62.431853	12.598523	24.568118	-0.038668	0.212542	2.147884	0.000000	0.003871	0.000000	-0.006825	-0.000742	0.000000	0.000000
62.765186	12.633135	24.431150	-0.065166	0.198361	2.149421	0.000000	0.003871	0.000000	-0.007073	-0.000742	0.000000	0.000000
63.098520	12.685411	24.303636	-0.091663	0.184181	2.150959	0.000000	0.003871	0.000000	-0.007320	-0.000742	0.000000	0.000000
63.433103	12.755648	24.185151	-0.118261	0.169947	2.152502	0.000000	0.003871	0.000000	-0.007568	-0.000742	0.000000	0.000000
63.730426	12.832976	24.087896	-0.108157	0.093714	2.153871	0.000000	-0.001792	0.000000	-0.007788	-0.000722	0.000000	0.000000
64.171386	13.090851	23.740062	-0.479234	0.692185	2.167083	0.000000	0.060181	0.000000	-0.008152	-0.000927	0.000000	0.000000
64.612346	13.684280	22.876412	-0.872191	1.259165	2.207836	0.000000	0.122850	0.000000	-0.008608	-0.001143	0.000000	0.000000
65.053306	14.640352	21.536241	-1.304970	1.768865	2.276598	0.000000	0.186929	0.000000	-0.009162	-0.001372	0.000000	0.000000
65.494266	16.002709	19.780524	-1.797335	2.198100	2.374158	0.000000	0.253152	0.000000	-0.009820	-0.001617	0.000000	0.000000
65.940226	17.856905	17.664226	-2.376231	2.527882	2.503228	0.000000	0.322643	0.000000	-0.010599	-0.001882	0.000000	0.000000
66.489286	20.230915	15.297183	-1.923546	1.809320	2.660684	0.000000	0.246865	0.000000	-0.011535	-0.001523	0.000000	0.000000
67.038346	22.030005	13.644160	-1.335089	1.219599	2.775068	0.000000	0.166685	0.000000	-0.012267	-0.001138	0.000000	0.000000
67.587406	23.127223	12.587430	-0.652402	0.716721	2.844342	0.000000	0.083530	0.000000	-0.012780	-0.000732	0.000000	0.000000
68.136466	23.445156	12.051735	0.076325	0.264877	2.867272	0.000000	-0.001117	0.000000	-0.013068	-0.000313	0.000000	0.000000
68.435038	23.443712	11.880864	-0.004147	0.272747	2.869509	0.000000	0.007167	0.000000	-0.013172	-0.000349	0.000000	0.000000
68.768372	23.451216	11.709080	-0.018365	0.242604	2.872015	0.000000	0.007167	0.000000	-0.013288	-0.000349	0.000000	0.000000
69.101705	23.468199	11.557392	-0.032584	0.212460	2.874520	0.000000	0.007167	0.000000	-0.013405	-0.000349	0.000000	0.000000
69.436288	23.494778	11.425344	-0.046856	0.182204	2.877035	0.000000	0.007167	0.000000	-0.013521	-0.000349	0.000000	0.000000
69.733611	23.526540	11.324929	-0.127770	0.188103	2.879277	0.000000	0.015517	0.000000	-0.013625	-0.000387	0.000000	0.000000
70.282671	23.262837	11.345264	0.605193	-0.225363	2.864484	0.000000	-0.069649	0.000000	-0.013716	0.000056	0.000000	0.000000
