#ParticleID	Turn	x[m]	xp	y[m]	yp	z[m]	dE[GeV]# s	beta_x	beta_y	alpha_x	alpha_y	D_x	D_y	D_px	D_py	orbit_x	orbit_px	orbit_y	orbit_py
0.300000	11.937130	25.145811	-0.012834	-0.026086	2.602851	0.000000	-0.001804	0.000000	-0.001259	0.001059	0.000000	0.000000
0.601250	11.952466	25.165140	-0.038075	-0.038074	2.601988	0.000000	-0.001804	0.000000	-0.000940	0.001059	0.000000	0.000000
0.898573	11.982514	25.191298	-0.033428	-0.111665	2.601137	0.000000	-0.008221	0.000000	-0.000625	0.001060	0.000000	0.000000
1.339533	12.165546	25.010272	-0.382861	0.520634	2.613259	0.000000	0.065281	0.000000	-0.000160	0.001050	0.000000	0.000000
1.780493	12.663278	24.279959	-0.749793	1.129249	2.657924	0.000000	0.139514	0.000000	0.000303	0.001052	0.000000	0.000000
2.221453	13.498461	23.033579	-1.150991	1.686487	2.735637	0.000000	0.215326	0.000000	0.000769	0.001066	0.000000	0.000000
2.662413	14.709265	21.327831	-1.604785	2.166993	2.847280	0.000000	0.293579	0.000000	0.001245	0.001092	0.000000	0.000000
3.108373	16.371960	19.215304	-2.136266	2.550082	2.995953	0.000000	0.375655	0.000000	0.001740	0.001131	0.000000	0.000000
3.657433	18.503215	16.842382	-1.721729	1.797091	3.176605	0.000000	0.283498	0.000000	0.002343	0.001064	0.000000	0.000000
4.206493	20.109364	15.221620	-1.185545	1.172105	3.305245	0.000000	0.186329	0.000000	0.002905	0.000979	0.000000	0.000000
4.755553	21.076915	14.237586	-0.565589	0.630609	3.379599	0.000000	0.085870	0.000000	0.003416	0.000877	0.000000	0.000000
5.304613	21.337487	13.820196	0.094342	0.134030	3.398354	0.000000	-0.016098	0.000000	0.003866	0.000759	0.000000	0.000000
5.603185	21.317529	13.726034	0.026398	0.146587	3.395882	0.000000	-0.007509	0.000000	0.004095	0.000769	0.000000	0.000000
5.936519	21.305147	13.636578	0.010750	0.121780	3.393123	0.000000	-0.007509	0.000000	0.004352	0.000769	0.000000	0.000000
6.269852	21.303195	13.563660	-0.004897	0.096974	3.390364	0.000000	-0.007509	0.000000	0.004608	0.000769	0.000000	0.000000
6.604435	21.311727	13.507100	-0.020603	0.072074	3.387594	0.000000	-0.007509	0.000000	0.004865	0.000769	0.000000	0.000000
6.901758	21.328145	13.470810	-0.087873	0.083773	3.385134	0.000000	0.000953	0.000000	0.005094	0.000782	0.000000	0.000000
7.450818	21.061188	13.640304	0.571588	-0.394271	3.357413	0.000000	-0.100446	0.000000	0.005477	0.000611	0.000000	0.000000
7.999878	20.087924	14.347043	1.190680	-0.900405	3.274516	0.000000	-0.200053	0.000000	0.005763	0.000429	0.000000	0.000000
8.548938	18.477111	15.641382	1.725656	-1.470685	3.137919	0.000000	-0.296104	0.000000	0.005946	0.000239	0.000000	0.000000
9.097998	16.342559	17.615530	2.138714	-2.145738	2.950047	0.000000	-0.386899	0.000000	0.006024	0.000045	0.000000	0.000000
9.543958	14.677769	19.374389	1.607351	-1.781233	2.795552	0.000000	-0.306060	0.000000	0.006079	0.000202	0.000000	0.000000
9.984918	13.464716	20.754800	1.153894	-1.337049	2.677518	0.000000	-0.229210	0.000000	0.006203	0.000360	0.000000	0.000000
10.425878	12.626953	21.715013	0.753167	-0.832018	2.592699	0.000000	-0.154975	0.000000	0.006398	0.000523	0.000000	0.000000
10.866838	12.126196	22.211326	0.386855	-0.289122	2.540125	0.000000	-0.082512	0.000000	0.006665	0.000691	0.000000	0.000000
11.309048	11.939417	22.220577	0.065418	0.215788	2.519176	0.000000	-0.016756	0.000000	0.007009	0.000851	0.000000	0.000000
11.606371	11.907952	22.096423	0.040409	0.201784	2.513941	0.000000	-0.016756	0.000000	0.007262	0.000851	0.000000	0.000000
12.086371	11.888539	21.913562	0.000034	0.179177	2.505489	0.000000	-0.016756	0.000000	0.007671	0.000851	0.000000	0.000000
12.566371	11.907887	21.752404	-0.040341	0.156569	2.497038	0.000000	-0.016756	0.000000	0.008079	0.000851	0.000000	0.000000
13.046371	11.965994	21.612949	-0.080716	0.133962	2.488586	0.000000	-0.016756	0.000000	0.008488	0.000851	0.000000	0.000000
13.526371	12.062862	21.495198	-0.121091	0.111354	2.480135	0.000000	-0.016756	0.000000	0.008896	0.000851	0.000000	0.000000
14.007621	12.198893	21.398927	-0.161571	0.088688	2.471661	0.000000	-0.016756	0.000000	0.009306	0.000851	0.000000	0.000000
14.304943	12.302374	21.350410	-0.159209	0.027425	2.466423	0.000000	-0.022244	0.000000	0.009559	0.000828	0.000000	0.000000
14.745903	12.600867	21.092562	-0.519842	0.555011	2.471629	0.000000	0.047714	0.000000	0.009979	0.001080	0.000000	0.000000
15.186863	13.226747	20.378759	-0.904245	1.057340	2.507666	0.000000	0.118204	0.000000	0.010513	0.001345	0.000000	0.000000
15.627823	14.208639	19.241474	-1.329989	1.511552	2.574941	0.000000	0.190027	0.000000	0.011167	0.001624	0.000000	0.000000
16.068783	15.591453	17.732458	-1.816542	1.896971	2.674215	0.000000	0.263998	0.000000	0.011948	0.001922	0.000000	0.000000
16.514743	17.462100	15.898617	-2.391134	2.197072	2.808289	0.000000	0.341451	0.000000	0.012877	0.002244	0.000000	0.000000
17.063803	19.864724	13.851335	-1.956891	1.552922	2.971409	0.000000	0.255626	0.000000	0.013991	0.001809	0.000000	0.000000
17.612863	21.711074	12.446966	-1.384301	1.019419	3.086330	0.000000	0.165295	0.000000	0.014858	0.001341	0.000000	0.000000
18.161923	22.870584	11.585464	-0.713841	0.558552	3.151023	0.000000	0.072053	0.000000	0.015460	0.000850	0.000000	0.000000
18.710983	23.261247	11.205456	0.007095	0.137485	3.164348	0.000000	-0.022455	0.000000	0.015788	0.000344	0.000000	0.000000
19.009556	23.291972	11.116566	-0.058170	0.135321	3.159647	0.000000	-0.015326	0.000000	0.015902	0.000382	0.000000	0.000000
19.342889	23.335539	11.036530	-0.072530	0.104786	3.154411	0.000000	-0.015326	0.000000	0.016030	0.000382	0.000000	0.000000
19.676223	23.388679	10.976851	-0.086889	0.074252	3.149175	0.000000	-0.015326	0.000000	0.016157	0.000382	0.000000	0.000000
20.010806	23.451935	10.937283	-0.217497	0.097793	3.143938	0.000000	0.000251	0.000000	0.016285	0.000463	0.000000	0.000000
20.308129	23.585403	10.887204	-0.283543	0.094791	3.143888	0.000000	0.007285	0.000000	0.016423	0.000503	0.000000	0.000000
20.857189	23.490200	11.003931	0.456026	-0.308591	3.122001	0.000000	-0.086423	0.000000	0.016552	-0.000032	0.000000	0.000000
21.406249	22.595442	11.573130	1.163361	-0.733964	3.049278	0.000000	-0.178597	0.000000	0.016388	-0.000566	0.000000	0.000000
21.955309	20.964400	12.635356	1.788451	-1.211638	2.927007	0.000000	-0.267612	0.000000	0.015933	-0.001089	0.000000	0.000000
22.504369	18.712414	14.266292	2.287105	-1.775649	2.757353	0.000000	-0.351895	0.000000	0.015195	-0.001594	0.000000	0.000000
22.950329	16.939510	15.731069	1.700498	-1.494115	2.618020	0.000000	-0.275818	0.000000	0.014571	-0.001207	0.000000	0.000000
23.391289	15.666341	16.899819	1.196655	-1.145719	2.512881	0.000000	-0.203366	0.000000	0.014120	-0.000838	0.000000	0.000000
23.832249	14.811980	17.736981	0.747527	-0.745175	2.439005	0.000000	-0.133222	0.000000	0.013831	-0.000477	0.000000	0.000000
24.273209	14.337352	18.204456	0.332575	-0.310713	2.395552	0.000000	-0.064591	0.000000	0.013698	-0.000122	0.000000	0.000000
24.715418	14.220920	18.280622	-0.037072	0.098958	2.382030	0.000000	-0.001752	0.000000	0.013723	0.000200	0.000000	0.000000
25.012741	14.249189	18.226660	-0.058008	0.082535	2.381450	0.000000	-0.001752	0.000000	0.013782	0.000200	0.000000	0.000000
25.346075	14.295685	18.177774	-0.081480	0.064122	2.380800	0.000000	-0.001752	0.000000	0.013849	0.000200	0.000000	0.000000
25.679408	14.357829	18.141164	-0.104952	0.045709	2.380149	0.000000	-0.001752	0.000000	0.013915	0.000200	0.000000	0.000000
26.013991	14.435649	18.117128	-0.011400	-0.119748	2.379472	0.000000	-0.021056	0.000000	0.013982	0.000086	0.000000	0.000000
26.311314	14.448469	18.193390	-0.001432	-0.174870	2.373179	0.000000	-0.026076	0.000000	0.014008	0.000054	0.000000	0.000000
26.752274	14.628427	18.150418	-0.408041	0.271931	2.376468	0.000000	0.041460	0.000000	0.014112	0.000417	0.000000	0.000000
27.193234	15.173965	17.717297	-0.833308	0.706355	2.409464	0.000000	0.109465	0.000000	0.014376	0.000784	0.000000	0.000000
27.634194	16.110038	16.913735	-1.296677	1.108630	2.472540	0.000000	0.178708	0.000000	0.014805	0.001160	0.000000	0.000000
28.075154	17.479465	15.776300	-1.819338	1.460444	2.566412	0.000000	0.249976	0.000000	0.015402	0.001550	0.000000	0.000000
28.521114	19.369047	14.339386	-2.430457	1.747009	2.693748	0.000000	0.324561	0.000000	0.016184	0.001960	0.000000	0.000000
29.070174	21.772265	12.738977	-1.918534	1.184319	2.848817	0.000000	0.242573	0.000000	0.017114	0.001420	0.000000	0.000000
29.619234	23.534776	11.706903	-1.270965	0.706020	2.957909	0.000000	0.156303	0.000000	0.017739	0.000855	0.000000	0.000000
30.168294	24.531927	11.169634	-0.533532	0.278032	3.019095	0.000000	0.067273	0.000000	0.018050	0.000275	0.000000	0.000000
30.717354	24.693194	11.088890	0.241622	-0.130143	3.031294	0.000000	-0.022946	0.000000	0.018041	-0.000309	0.000000	0.000000
31.015927	24.584833	11.160248	0.174812	-0.132934	3.026498	0.000000	-0.016281	0.000000	0.017962	-0.000266	0.000000	0.000000
31.349260	24.472949	11.259002	0.160839	-0.163330	3.021160	0.000000	-0.016281	0.000000	0.017873	-0.000266	0.000000	0.000000
31.682593	24.370381	11.378020	0.146866	-0.193725	3.015821	0.000000	-0.016281	0.000000	0.017784	-0.000266	0.000000	0.000000
32.017177	24.276795	11.517863	0.132841	-0.224235	3.010463	0.000000	-0.016281	0.000000	0.017695	-0.000266	0.000000	0.000000
32.314499	24.201728	11.659158	0.066911	-0.225629	3.005715	0.000000	-0.009641	0.000000	0.017616	-0.000223	0.000000	0.000000
32.863559	23.713666	12.144988	0.816160	-0.664213	2.976174	0.000000	-0.098749	0.000000	0.017338	-0.000790	0.000000	0.000000
33.412619	22.429421	13.135562	1.507699	-1.150127	2.898398	0.000000	-0.186116	0.000000	0.016751	-0.001342	0.000000	0.000000
33.961679	20.439828	14.701456	2.092634	-1.717996	2.773759	0.000000	-0.270203	0.000000	0.015868	-0.001871	0.000000	0.000000
34.510739	17.885597	16.954227	2.529615	-2.408281	2.604458	0.000000	-0.349526	0.000000	0.014702	-0.002366	0.000000	0.000000
34.956699	15.901061	18.969744	1.934066	-2.091198	2.465636	0.000000	-0.277419	0.000000	0.013730	-0.001997	0.000000	0.000000
35.397659	14.421653	20.639374	1.432193	-1.680017	2.359266	0.000000	-0.208916	0.000000	0.012926	-0.001654	0.000000	0.000000
35.838619	13.354597	21.911052	0.995805	-1.192372	2.282420	0.000000	-0.142776	0.000000	0.012269	-0.001329	0.000000	0.000000
36.279579	12.651084	22.726913	0.604948	-0.650461	2.234227	0.000000	-0.078248	0.000000	0.011751	-0.001019	0.000000	0.000000
36.721789	12.278313	23.050071	0.268419	-0.129040	2.214123	0.000000	-0.019429	0.000000	0.011367	-0.000748	0.000000	0.000000
37.019112	12.126418	23.130702	0.242459	-0.142153	2.208569	0.000000	-0.019429	0.000000	0.011145	-0.000748	0.000000	0.000000
37.352445	11.974480	23.230372	0.213354	-0.156855	2.202342	0.000000	-0.019429	0.000000	0.010895	-0.000748	0.000000	0.000000
37.685779	11.841945	23.339843	0.184250	-0.171557	2.196115	0.000000	-0.019429	0.000000	0.010646	-0.000748	0.000000	0.000000
38.020362	11.728425	23.459581	0.155037	-0.186315	2.189864	0.000000	-0.019429	0.000000	0.010396	-0.000748	0.000000	0.000000
38.317684	11.643916	23.574343	0.154814	-0.251785	2.184307	0.000000	-0.024257	0.000000	0.010174	-0.000771	0.000000	0.000000
38.758644	11.656452	23.535251	-0.183559	0.340087	2.187697	0.000000	0.038404	0.000000	0.009891	-0.000513	0.000000	0.000000
39.199604	11.970040	22.978961	-0.530318	0.916478	2.218684	0.000000	0.101507	0.000000	0.009721	-0.000260	0.000000	0.000000
39.640564	12.599012	21.930794	-0.901315	1.451158	2.277623	0.000000	0.165770	0.000000	0.009662	-0.000010	0.000000	0.000000
40.081524	13.572120	20.438453	-1.313506	1.919794	2.365185	0.000000	0.231921	0.000000	0.009712	0.000240	0.000000	0.000000
40.527484	14.951469	18.547159	-1.789727	2.302585	2.483850	0.000000	0.301144	0.000000	0.009876	0.000494	0.000000	0.000000
41.076544	16.714078	16.421776	-1.400886	1.590665	2.628665	0.000000	0.226145	0.000000	0.010059	0.000171	0.000000	0.000000
41.625604	17.992321	15.011817	-0.913048	0.992075	2.731303	0.000000	0.147136	0.000000	0.010063	-0.000155	0.000000	0.000000
42.174664	18.695855	14.216831	-0.360692	0.464171	2.789944	0.000000	0.065514	0.000000	0.009889	-0.000478	0.000000	0.000000
42.723724	18.774964	13.980172	0.217143	-0.030661	2.803544	0.000000	-0.017278	0.000000	0.009540	-0.000793	0.000000	0.000000
43.022297	18.677027	13.984774	0.155738	-0.018322	2.800619	0.000000	-0.010553	0.000000	0.009310	-0.000769	0.000000	0.000000
43.502297	18.540153	14.018844	0.129415	-0.052657	2.795923	0.000000	-0.010553	0.000000	0.008941	-0.000769	0.000000	0.000000
43.982297	18.428550	14.085875	0.103091	-0.086992	2.791226	0.000000	-0.010553	0.000000	0.008571	-0.000769	0.000000	0.000000
44.462297	18.342218	14.185868	0.076768	-0.121326	2.786530	0.000000	-0.010553	0.000000	0.008202	-0.000769	0.000000	0.000000
44.942297	18.281155	14.318821	0.050445	-0.155661	2.781833	0.000000	-0.010553	0.000000	0.007833	-0.000769	0.000000	0.000000
45.423547	18.245529	14.485032	-0.066346	-0.118317	2.777142	0.000000	0.003206	0.000000	0.007463	-0.000732	0.000000	0.000000
45.720870	18.289876	14.561555	-0.127547	-0.103589	2.778315	0.000000	0.010017	0.000000	0.007245	-0.000714	0.000000	0.000000
46.269930	18.121643	14.957067	0.431672	-0.620937	2.761736	0.000000	-0.071903	0.000000	0.006790	-0.000941	0.000000	0.000000
46.818990	17.352408	15.941552	0.960374	-1.182517	2.700571	0.000000	-0.152562	0.000000	0.006215	-0.001152	0.000000	0.000000
47.368050	16.036549	17.585127	1.421201	-1.828335	2.595896	0.000000	-0.230534	0.000000	0.005529	-0.001342	0.000000	0.000000
47.917110	14.267071	20.004857	1.781595	-2.604394	2.449559	0.000000	-0.304438	0.000000	0.004745	-0.001509	0.000000	0.000000
48.363070	12.889267	22.156098	1.318110	-2.198894	2.329698	0.000000	-0.236148	0.000000	0.004098	-0.001394	0.000000	0.000000
48.804030	11.906388	23.879688	0.918697	-1.694738	2.240595	0.000000	-0.170943	0.000000	0.003506	-0.001296	0.000000	0.000000
49.244990	11.256034	25.122783	0.561273	-1.113468	2.179757	0.000000	-0.107672	0.000000	0.002953	-0.001213	0.000000	0.000000
49.685950	10.908473	25.828831	0.229504	-0.481538	2.146493	0.000000	-0.045614	0.000000	0.002434	-0.001143	0.000000	0.000000
50.128160	10.847980	25.965440	-0.065777	0.110152	2.140447	0.000000	0.010785	0.000000	0.001941	-0.001092	0.000000	0.000000
50.425482	10.895278	25.903384	-0.093304	0.098562	2.143978	0.000000	0.010785	0.000000	0.001617	-0.001092	0.000000	0.000000
50.758816	10.967768	25.842007	-0.124164	0.085569	2.147937	0.000000	0.010785	0.000000	0.001253	-0.001092	0.000000	0.000000
51.092149	11.060831	25.789292	-0.155025	0.072576	2.151896	0.000000	0.010785	0.000000	0.000889	-0.001092	0.000000	0.000000
51.426732	11.174706	25.745612	-0.095345	-0.149327	2.155848	0.000000	-0.006704	0.000000	0.000524	-0.001096	0.000000	0.000000
51.724055	11.239386	25.837920	-0.094683	-0.224781	2.154180	0.000000	-0.011977	0.000000	0.000198	-0.001096	0.000000	0.000000
52.165015	11.469262	25.748627	-0.428958	0.426507	2.163015	0.000000	0.049960	0.000000	-0.000285	-0.001097	0.000000	0.000000
52.605975	12.001424	25.091352	-0.782822	1.058385	2.199266	0.000000	0.112479	0.000000	-0.000772	-0.001111	0.000000	0.000000
53.046935	12.860173	23.896013	-1.172442	1.642104	2.263352	0.000000	0.176290	0.000000	-0.001267	-0.001137	0.000000	0.000000
53.487895	14.084729	22.217005	-1.615616	2.151107	2.356006	0.000000	0.242121	0.000000	-0.001777	-0.001177	0.000000	0.000000
53.933855	15.751967	20.105610	-2.136831	2.563533	2.479818	0.000000	0.311117	0.000000	-0.002313	-0.001230	0.000000	0.000000
54.482915	17.898120	17.729522	-1.749519	1.789728	2.630913	0.000000	0.236179	0.000000	-0.002965	-0.001144	0.000000	0.000000
55.031975	19.548185	16.128583	-1.238667	1.143397	2.739594	0.000000	0.157034	0.000000	-0.003565	-0.001038	0.000000	0.000000
55.581035	20.585658	15.188754	-0.640355	0.578504	2.803924	0.000000	0.075086	0.000000	-0.004102	-0.000914	0.000000	0.000000
56.130095	20.937299	14.843085	0.003162	0.054816	2.822757	0.000000	-0.008207	0.000000	-0.004566	-0.000774	0.000000	0.000000
56.428668	20.973571	14.792290	-0.067915	0.074929	2.822825	0.000000	-0.000553	0.000000	-0.004801	-0.000786	0.000000	0.000000
56.762001	21.024170	14.749891	-0.083881	0.052268	2.822903	0.000000	-0.000553	0.000000	-0.005063	-0.000786	0.000000	0.000000
57.095334	21.085412	14.722599	-0.099847	0.029608	2.822981	0.000000	-0.000553	0.000000	-0.005325	-0.000786	0.000000	0.000000
57.429918	21.157589	14.710397	-0.115873	0.006862	2.823058	0.000000	-0.000553	0.000000	-0.005588	-0.000786	0.000000	0.000000
57.727240	21.230748	14.712311	-0.188248	0.026770	2.823129	0.000000	0.007177	0.000000	-0.005821	-0.000801	0.000000	0.000000
58.276300	21.074576	14.965129	0.470597	-0.489982	2.804545	0.000000	-0.076129	0.000000	-0.006208	-0.000607	0.000000	0.000000
58.825360	20.209104	15.801063	1.096198	-1.041624	2.740421	0.000000	-0.158095	0.000000	-0.006485	-0.000401	0.000000	0.000000
59.374420	18.695454	17.279638	1.644382	-1.667444	2.631890	0.000000	-0.237263	0.000000	-0.006647	-0.000188	0.000000	0.000000
59.923480	16.640508	19.506149	2.076444	-2.412009	2.480873	0.000000	-0.312228	0.000000	-0.006691	0.000028	0.000000	0.000000
60.369440	15.030767	21.485004	1.546076	-2.006758	2.357113	0.000000	-0.243228	0.000000	-0.006718	-0.000146	0.000000	0.000000
60.810400	13.872629	23.042163	1.090446	-1.511440	2.264574	0.000000	-0.177378	0.000000	-0.006820	-0.000321	0.000000	0.000000
61.251360	13.092859	24.130433	0.684623	-0.947367	2.200673	0.000000	-0.113544	0.000000	-0.007001	-0.000499	0.000000	0.000000
61.692320	12.655844	24.700309	0.310074	-0.340201	2.164685	0.000000	-0.050998	0.000000	-0.007261	-0.000682	0.000000	0.000000
62.134530	12.541685	24.725288	-0.017482	0.217792	2.156212	0.000000	0.005315	0.000000	-0.007605	-0.000855	0.000000	0.000000
62.431853	12.559131	24.599524	-0.041196	0.205197	2.158046	0.000000	0.005315	0.000000	-0.007859	-0.000855	0.000000	0.000000
62.765186	12.595457	24.467433	-0.067783	0.191076	2.160102	0.000000	0.005315	0.000000	-0.008144	-0.000855	0.000000	0.000000
63.098520	12.649508	24.344756	-0.094369	0.176955	2.162159	0.000000	0.005315	0.000000	-0.008429	-0.000855	0.000000	0.000000
63.433103	12.721585	24.231086	-0.121055	0.162781	2.164223	0.000000	0.005315	0.000000	-0.008715	-0.000855	0.000000	0.000000
63.730426	12.800590	24.138091	-0.110781	0.085798	2.166055	0.000000	-0.000437	0.000000	-0.008969	-0.000832	0.000000	0.000000
64.171386	13.060444	23.796596	-0.481172	0.685792	2.179987	0.000000	0.061858	0.000000	-0.009387	-0.001068	0.000000	0.000000
64.612346	13.655276	22.937817	-0.873529	1.254587	2.221621	0.000000	0.124868	0.000000	-0.009913	-0.001317	0.000000	0.000000
65.053306	14.612234	21.600828	-1.305766	1.766312	2.291433	0.000000	0.189315	0.000000	-0.010551	-0.001581	0.000000	0.000000
65.494266	15.974997	19.846458	-1.797619	2.197690	2.390226	0.000000	0.255933	0.000000	-0.011309	-0.001863	0.000000	0.000000
65.940226	17.829158	17.729561	-2.375966	2.529624	2.520744	0.000000	0.325851	0.000000	-0.012207	-0.002167	0.000000	0.000000
66.489286	20.203408	15.361475	-1.924483	1.809590	2.679935	0.000000	0.249482	0.000000	-0.013285	-0.001755	0.000000	0.000000
67.038346	22.004056	13.708996	-1.337177	1.218409	2.795686	0.000000	0.168661	0.000000	-0.014128	-0.001311	0.000000	0.000000
67.587406	23.104060	12.654438	-0.655504	0.713983	2.865933	0.000000	0.084828	0.000000	-0.014720	-0.000843	0.000000	0.000000
68.136466	23.425823	12.122698	0.072421	0.260394	2.889425	0.000000	-0.000523	0.000000	-0.015051	-0.000361	0.000000	0.000000
68.435038	23.427204	11.954042	-0.008947	0.269178	2.891907	0.000000	0.007942	0.000000	-0.015171	-0.000403	0.000000	0.000000
68.768372	23.437912	11.784558	-0.023176	0.239273	2.894688	0.000000	0.007942	0.000000	-0.015306	-0.000403	0.000000	0.000000
69.101705	23.458106	11.635011	-0.037406	0.209368	2.897470	0.000000	0.007942	0.000000	-0.015440	-0.000403	0.000000	0.000000
69.436288	23.487916	11.504952	-0.051689	0.179351	2.900261	0.000000	0.007942	0.000000	-0.015575	-0.000403	0.000000	0.000000
69.733611	23.522596	11.406150	-0.133583	0.186165	2.902753	0.000000	0.016481	0.000000	-0.015694	-0.000446	0.000000	0.000000
70.282671	23.265313	11.429858	0.599376	-0.229609	2.888296	0.000000	-0.069445	0.000000	-0.015800	0.000064	0.000000	0.000000
