#ParticleID	Turn	x[m]	xp	y[m]	yp	z[m]	dE[GeV]# s	beta_x	beta_y	alpha_x	alpha_y	D_x	D_y	D_px	D_py	orbit_x	orbit_px	orbit_y	orbit_py
0.300000	11.873763	25.070224	-0.016456	-0.025573	2.612500	0.000000	0.000276	0.000000	-0.000224	0.000197	0.000000	0.000000
0.601250	11.891323	25.089254	-0.041834	-0.037597	2.612524	0.000000	0.000276	0.000000	-0.000165	0.000197	0.000000	0.000000
0.898573	11.923646	25.115139	-0.037611	-0.111045	2.612547	0.000000	-0.006137	0.000000	-0.000106	0.000197	0.000000	0.000000
1.339533	12.109680	24.934456	-0.385805	0.519235	2.626019	0.000000	0.067676	0.000000	-0.000020	0.000196	0.000000	0.000000
1.780493	12.609376	24.206250	-0.751627	1.125891	2.672179	0.000000	0.142259	0.000000	0.000066	0.000196	0.000000	0.000000
2.221453	13.445568	22.963652	-1.151790	1.681320	2.751551	0.000000	0.218459	0.000000	0.000153	0.000199	0.000000	0.000000
2.662413	14.656461	21.263197	-1.604577	2.160251	2.865038	0.000000	0.297146	0.000000	0.000242	0.000204	0.000000	0.000000
3.108373	16.318296	19.157323	-2.135000	2.542033	3.015792	0.000000	0.379704	0.000000	0.000335	0.000212	0.000000	0.000000
3.657433	18.449075	16.792069	-1.722680	1.791195	3.198949	0.000000	0.286871	0.000000	0.000448	0.000199	0.000000	0.000000
4.206493	20.057170	15.176849	-1.188672	1.167940	3.329670	0.000000	0.188952	0.000000	0.000553	0.000183	0.000000	0.000000
4.755553	21.028986	14.196617	-0.570696	0.627875	3.405637	0.000000	0.087684	0.000000	0.000648	0.000163	0.000000	0.000000
5.304613	21.295871	13.781553	0.087595	0.132533	3.425504	0.000000	-0.015136	0.000000	0.000731	0.000141	0.000000	0.000000
5.603185	21.280777	13.687709	0.018259	0.146015	3.423597	0.000000	-0.006241	0.000000	0.000774	0.000143	0.000000	0.000000
5.936519	21.273827	13.598657	0.002590	0.121143	3.421470	0.000000	-0.006241	0.000000	0.000822	0.000143	0.000000	0.000000
6.269852	21.277323	13.526186	-0.013078	0.096271	3.419342	0.000000	-0.006241	0.000000	0.000869	0.000143	0.000000	0.000000
6.604435	21.291337	13.470118	-0.028806	0.071306	3.417206	0.000000	-0.006241	0.000000	0.000917	0.000143	0.000000	0.000000
6.901758	21.312622	13.434312	-0.098019	0.083967	3.415308	0.000000	0.002611	0.000000	0.000959	0.000145	0.000000	0.000000
7.450818	21.056859	13.602976	0.561154	-0.392964	3.388528	0.000000	-0.099768	0.000000	0.001030	0.000113	0.000000	0.000000
7.999878	20.094803	14.307582	1.180690	-0.897886	3.305956	0.000000	-0.200375	0.000000	0.001083	0.000079	0.000000	0.000000
8.548938	18.494412	15.598319	1.716827	-1.466765	3.169059	0.000000	-0.297427	0.000000	0.001117	0.000043	0.000000	0.000000
9.097998	16.368734	17.567127	2.131690	-2.140122	2.980264	0.000000	-0.389203	0.000000	0.001130	0.000007	0.000000	0.000000
9.543958	14.710117	19.321415	1.600703	-1.776933	2.824963	0.000000	-0.307619	0.000000	0.001140	0.000036	0.000000	0.000000
9.984918	13.502974	20.698543	1.147192	-1.334154	2.706512	0.000000	-0.230027	0.000000	0.001163	0.000066	0.000000	0.000000
10.425878	12.671265	21.656806	0.746095	-0.830669	2.621654	0.000000	-0.155056	0.000000	0.001198	0.000096	0.000000	0.000000
10.866838	12.176989	22.152602	0.379086	-0.289388	2.569421	0.000000	-0.081852	0.000000	0.001248	0.000128	0.000000	0.000000
11.309048	11.997419	22.162841	0.058347	0.211276	2.549200	0.000000	-0.015755	0.000000	0.001311	0.000158	0.000000	0.000000
11.606371	11.970117	22.041373	0.033480	0.197262	2.544469	0.000000	-0.015755	0.000000	0.001358	0.000158	0.000000	0.000000
12.086371	11.957246	21.862862	-0.006665	0.174637	2.536830	0.000000	-0.015755	0.000000	0.001434	0.000158	0.000000	0.000000
12.566371	11.982913	21.706070	-0.046809	0.152013	2.529192	0.000000	-0.015755	0.000000	0.001510	0.000158	0.000000	0.000000
13.046371	12.047120	21.570998	-0.086954	0.129388	2.521554	0.000000	-0.015755	0.000000	0.001585	0.000158	0.000000	0.000000
13.526371	12.149866	21.457645	-0.127099	0.106763	2.513916	0.000000	-0.015755	0.000000	0.001661	0.000158	0.000000	0.000000
14.007621	12.291568	21.365802	-0.167348	0.084080	2.506258	0.000000	-0.015755	0.000000	0.001737	0.000158	0.000000	0.000000
14.304943	12.398474	21.319973	-0.162326	0.018715	2.501526	0.000000	-0.021786	0.000000	0.001784	0.000153	0.000000	0.000000
14.745903	12.700534	21.070159	-0.525197	0.545637	2.507462	0.000000	0.049072	0.000000	0.001862	0.000200	0.000000	0.000000
15.186863	13.331968	20.364843	-0.912067	1.047733	2.544716	0.000000	0.120487	0.000000	0.001961	0.000250	0.000000	0.000000
15.627823	14.321632	19.236116	-1.340613	1.502155	2.613713	0.000000	0.193272	0.000000	0.002082	0.000302	0.000000	0.000000
16.068783	15.714748	17.735336	-1.830415	1.888228	2.715237	0.000000	0.268254	0.000000	0.002227	0.000357	0.000000	0.000000
16.514743	17.598610	15.909289	-2.408661	2.189170	2.852139	0.000000	0.346759	0.000000	0.002400	0.000417	0.000000	0.000000
17.063803	20.017604	13.870513	-1.970596	1.545828	3.018626	0.000000	0.259492	0.000000	0.002607	0.000336	0.000000	0.000000
17.612863	21.875762	12.473972	-1.393316	1.012599	3.135906	0.000000	0.167627	0.000000	0.002768	0.000249	0.000000	0.000000
18.161923	23.041805	11.620193	-0.717602	0.551500	3.201902	0.000000	0.072793	0.000000	0.002880	0.000158	0.000000	0.000000
18.710983	23.433349	11.248361	0.008809	0.129686	3.215443	0.000000	-0.023330	0.000000	0.002941	0.000063	0.000000	0.000000
19.009556	23.467550	11.161938	-0.063672	0.131127	3.210902	0.000000	-0.015137	0.000000	0.002962	0.000071	0.000000	0.000000
19.342889	23.514752	11.084646	-0.077933	0.100750	3.205833	0.000000	-0.015137	0.000000	0.002985	0.000071	0.000000	0.000000
19.676223	23.571462	11.027605	-0.092195	0.070373	3.200764	0.000000	-0.015137	0.000000	0.003009	0.000071	0.000000	0.000000
20.010806	23.638238	10.990579	-0.223627	0.094336	3.195695	0.000000	0.000696	0.000000	0.003033	0.000086	0.000000	0.000000
20.308129	23.775150	10.942595	-0.297349	0.094910	3.195877	0.000000	0.008831	0.000000	0.003058	0.000094	0.000000	0.000000
20.857189	23.691675	11.059970	0.448504	-0.309937	3.174490	0.000000	-0.086532	0.000000	0.003082	-0.000006	0.000000	0.000000
21.406249	22.801713	11.631377	1.162674	-0.736862	3.101139	0.000000	-0.180359	0.000000	0.003052	-0.000105	0.000000	0.000000
21.955309	21.168141	12.697520	1.794704	-1.216277	2.977123	0.000000	-0.270989	0.000000	0.002967	-0.000203	0.000000	0.000000
22.504369	18.906371	14.334341	2.299945	-1.782330	2.804643	0.000000	-0.356815	0.000000	0.002830	-0.000297	0.000000	0.000000
22.950329	17.124663	15.804086	1.709114	-1.499343	2.662918	0.000000	-0.279602	0.000000	0.002714	-0.000225	0.000000	0.000000
23.391289	15.846120	16.976419	1.201141	-1.149032	2.556023	0.000000	-0.206036	0.000000	0.002630	-0.000156	0.000000	0.000000
23.832249	14.989798	17.815470	0.748052	-0.746438	2.480993	0.000000	-0.134816	0.000000	0.002576	-0.000089	0.000000	0.000000
24.273209	14.516565	18.283060	0.329144	-0.309879	2.436973	0.000000	-0.065130	0.000000	0.002552	-0.000023	0.000000	0.000000
24.715418	14.404902	18.357667	-0.040346	0.096777	2.423460	0.000000	-0.001984	0.000000	0.002556	0.000037	0.000000	0.000000
25.012741	14.435041	18.304980	-0.061020	0.080429	2.422859	0.000000	-0.001984	0.000000	0.002568	0.000037	0.000000	0.000000
25.346075	14.483447	18.257469	-0.084198	0.062101	2.422185	0.000000	-0.001984	0.000000	0.002580	0.000037	0.000000	0.000000
25.679408	14.547305	18.222178	-0.107376	0.043774	2.421512	0.000000	-0.001984	0.000000	0.002592	0.000037	0.000000	0.000000
26.013991	14.626645	18.199410	-0.011980	-0.122265	2.420811	0.000000	-0.021623	0.000000	0.002605	0.000016	0.000000	0.000000
26.311314	14.639811	18.277048	0.002699	-0.182551	2.414377	0.000000	-0.027396	0.000000	0.002609	0.000010	0.000000	0.000000
26.752274	14.817986	18.239866	-0.408260	0.266550	2.417395	0.000000	0.041179	0.000000	0.002629	0.000077	0.000000	0.000000
27.193234	15.365445	17.810452	-0.837873	0.703522	2.450698	0.000000	0.110222	0.000000	0.002678	0.000146	0.000000	0.000000
27.634194	16.307207	17.008347	-1.305773	1.108483	2.514665	0.000000	0.180519	0.000000	0.002757	0.000216	0.000000	0.000000
28.075154	17.686307	15.870046	-1.833339	1.463005	2.610025	0.000000	0.252870	0.000000	0.002868	0.000288	0.000000	0.000000
28.521114	19.589766	14.430179	-2.449679	1.751923	2.739469	0.000000	0.328552	0.000000	0.003014	0.000364	0.000000	0.000000
29.070174	22.009389	12.826002	-1.930695	1.186871	2.897021	0.000000	0.245079	0.000000	0.003186	0.000264	0.000000	0.000000
29.619234	23.780322	11.792555	-1.275312	0.706364	3.007533	0.000000	0.157263	0.000000	0.003303	0.000159	0.000000	0.000000
30.168294	24.777444	11.256224	-0.529831	0.276174	3.069045	0.000000	0.066660	0.000000	0.003360	0.000051	0.000000	0.000000
30.717354	24.930307	11.178804	0.253082	-0.134344	3.080467	0.000000	-0.025124	0.000000	0.003358	-0.000058	0.000000	0.000000
31.015927	24.820669	11.250143	0.177385	-0.132964	3.075315	0.000000	-0.017304	0.000000	0.003344	-0.000049	0.000000	0.000000
31.349260	24.707030	11.348837	0.163533	-0.163117	3.069563	0.000000	-0.017304	0.000000	0.003327	-0.000049	0.000000	0.000000
31.682593	24.602625	11.467632	0.149681	-0.193270	3.063811	0.000000	-0.017304	0.000000	0.003311	-0.000049	0.000000	0.000000
32.017177	24.507116	11.607089	0.135777	-0.223537	3.058038	0.000000	-0.017304	0.000000	0.003294	-0.000049	0.000000	0.000000
32.314499	24.430058	11.748007	0.061359	-0.220595	3.052908	0.000000	-0.009549	0.000000	0.003280	-0.000041	0.000000	0.000000
32.863559	23.944286	12.229412	0.818031	-0.661320	3.022800	0.000000	-0.100137	0.000000	0.003228	-0.000146	0.000000	0.000000
33.412619	22.654496	13.217681	1.516911	-1.149153	2.943420	0.000000	-0.188952	0.000000	0.003120	-0.000249	0.000000	0.000000
33.961679	20.651816	14.783210	2.108623	-1.718844	2.816175	0.000000	-0.274419	0.000000	0.002955	-0.000348	0.000000	0.000000
34.510739	18.077739	17.037512	2.551367	-2.410973	2.643320	0.000000	-0.355024	0.000000	0.002739	-0.000440	0.000000	0.000000
34.956699	16.076926	19.053939	1.950895	-2.091544	2.501526	0.000000	-0.281999	0.000000	0.002558	-0.000371	0.000000	0.000000
35.397659	14.585187	20.722454	1.444604	-1.677747	2.392717	0.000000	-0.212619	0.000000	0.002409	-0.000307	0.000000	0.000000
35.838619	13.509305	21.990830	1.004323	-1.187609	2.313914	0.000000	-0.145658	0.000000	0.002287	-0.000247	0.000000	0.000000
36.279579	12.800115	22.801357	0.609932	-0.643433	2.264221	0.000000	-0.080353	0.000000	0.002191	-0.000189	0.000000	0.000000
36.721789	12.424529	23.117465	0.273160	-0.125538	2.243047	0.000000	-0.021352	0.000000	0.002120	-0.000138	0.000000	0.000000
37.019112	12.269741	23.196000	0.247444	-0.138602	2.236740	0.000000	-0.021352	0.000000	0.002079	-0.000138	0.000000	0.000000
37.352445	12.114388	23.293284	0.218614	-0.153249	2.229669	0.000000	-0.021352	0.000000	0.002033	-0.000138	0.000000	0.000000
37.685779	11.978256	23.400332	0.189783	-0.167895	2.222598	0.000000	-0.021352	0.000000	0.001987	-0.000138	0.000000	0.000000
38.020362	11.860942	23.517600	0.160845	-0.182596	2.215500	0.000000	-0.021352	0.000000	0.001940	-0.000138	0.000000	0.000000
38.317684	11.772941	23.630067	0.163479	-0.252611	2.209193	0.000000	-0.026672	0.000000	0.001899	-0.000143	0.000000	0.000000
38.758644	11.779150	23.591082	-0.177653	0.340682	2.211431	0.000000	0.036602	0.000000	0.001847	-0.000095	0.000000	0.000000
39.199604	12.088654	23.033709	-0.526902	0.918473	2.241616	0.000000	0.100294	0.000000	0.001815	-0.000048	0.000000	0.000000
39.640564	12.715593	21.983312	-0.900224	1.454471	2.300093	0.000000	0.165128	0.000000	0.001805	-0.000001	0.000000	0.000000
40.081524	13.688615	20.487684	-1.314679	1.924289	2.387526	0.000000	0.231844	0.000000	0.001815	0.000046	0.000000	0.000000
40.527484	15.069716	18.592265	-1.793052	2.307881	2.506389	0.000000	0.301611	0.000000	0.001846	0.000093	0.000000	0.000000
41.076544	16.833209	16.462152	-1.399660	1.594481	2.651390	0.000000	0.225898	0.000000	0.001880	0.000033	0.000000	0.000000
41.625604	18.107498	15.048864	-0.907393	0.994658	2.753688	0.000000	0.146178	0.000000	0.001882	-0.000028	0.000000	0.000000
42.174664	18.802564	14.251731	-0.351029	0.465687	2.811469	0.000000	0.063865	0.000000	0.001850	-0.000088	0.000000	0.000000
42.723724	18.869306	14.013972	0.230131	-0.030113	2.823706	0.000000	-0.019582	0.000000	0.001785	-0.000147	0.000000	0.000000
43.022297	18.765761	14.016763	0.165225	-0.015324	2.820072	0.000000	-0.012315	0.000000	0.001742	-0.000143	0.000000	0.000000
43.502297	18.619758	14.047914	0.138948	-0.049576	2.814229	0.000000	-0.012315	0.000000	0.001674	-0.000143	0.000000	0.000000
43.982297	18.498981	14.111949	0.112671	-0.083829	2.808386	0.000000	-0.012315	0.000000	0.001605	-0.000143	0.000000	0.000000
44.462297	18.403429	14.208866	0.086394	-0.118082	2.802543	0.000000	-0.012315	0.000000	0.001537	-0.000143	0.000000	0.000000
44.942297	18.333103	14.338666	0.060118	-0.152335	2.796700	0.000000	-0.012315	0.000000	0.001468	-0.000143	0.000000	0.000000
45.423547	18.288145	14.501636	-0.056837	-0.114826	2.790859	0.000000	0.001512	0.000000	0.001400	-0.000136	0.000000	0.000000
45.720870	18.326794	14.576092	-0.120485	-0.097978	2.791349	0.000000	0.008722	0.000000	0.001359	-0.000132	0.000000	0.000000
46.269930	18.150440	14.965529	0.439689	-0.615475	2.773596	0.000000	-0.073586	0.000000	0.001275	-0.000175	0.000000	0.000000
46.818990	17.372421	15.943845	0.968800	-1.176812	2.710964	0.000000	-0.154592	0.000000	0.001168	-0.000215	0.000000	0.000000
47.368050	16.047701	17.580721	1.429473	-1.821973	2.604561	0.000000	-0.232860	0.000000	0.001040	-0.000250	0.000000	0.000000
47.917110	14.269862	19.992749	1.789166	-2.596911	2.456274	0.000000	-0.307001	0.000000	0.000894	-0.000282	0.000000	0.000000
48.363070	12.885887	22.137125	1.325054	-2.191280	2.334801	0.000000	-0.238573	0.000000	0.000773	-0.000260	0.000000	0.000000
48.804030	11.897290	23.853951	0.925258	-1.687246	2.244192	0.000000	-0.173260	0.000000	0.000663	-0.000241	0.000000	0.000000
49.244990	11.241387	25.090573	0.567738	-1.106444	2.181915	0.000000	-0.109918	0.000000	0.000560	-0.000226	0.000000	0.000000
49.685950	10.888207	25.790728	0.236159	-0.475299	2.147263	0.000000	-0.047825	0.000000	0.000463	-0.000213	0.000000	0.000000
50.128160	10.821758	25.922275	-0.058301	0.114151	2.139851	0.000000	0.008496	0.000000	0.000372	-0.000203	0.000000	0.000000
50.425482	10.864623	25.857850	-0.085869	0.102532	2.142437	0.000000	0.008496	0.000000	0.000311	-0.000203	0.000000	0.000000
50.758816	10.932171	25.793838	-0.116776	0.089505	2.145337	0.000000	0.008496	0.000000	0.000244	-0.000203	0.000000	0.000000
51.092149	11.020324	25.738510	-0.147682	0.076479	2.148237	0.000000	0.008496	0.000000	0.000176	-0.000203	0.000000	0.000000
51.426732	11.129302	25.692229	-0.088417	-0.145024	2.151125	0.000000	-0.008955	0.000000	0.000108	-0.000204	0.000000	0.000000
51.724055	11.189884	25.781980	-0.087913	-0.220112	2.148523	0.000000	-0.014221	0.000000	0.000048	-0.000204	0.000000	0.000000
52.165015	11.413362	25.689238	-0.420875	0.429629	2.155952	0.000000	0.047552	0.000000	-0.000042	-0.000204	0.000000	0.000000
52.605975	11.937821	25.029941	-0.773064	1.059822	2.190715	0.000000	0.109870	0.000000	-0.000132	-0.000206	0.000000	0.000000
53.046935	12.787220	23.834090	-1.160571	1.641793	2.253208	0.000000	0.173441	0.000000	-0.000224	-0.000210	0.000000	0.000000
53.487895	14.000363	22.156095	-1.601099	2.149063	2.344145	0.000000	0.238989	0.000000	-0.000318	-0.000217	0.000000	0.000000
53.933855	15.653443	20.047223	-2.119028	2.559882	2.466069	0.000000	0.307660	0.000000	-0.000417	-0.000227	0.000000	0.000000
54.482915	17.781533	17.674142	-1.734037	1.787739	2.614885	0.000000	0.233198	0.000000	-0.000538	-0.000211	0.000000	0.000000
55.031975	19.416690	16.074484	-1.226570	1.142932	2.721608	0.000000	0.154595	0.000000	-0.000649	-0.000192	0.000000	0.000000
55.581035	20.443426	15.134307	-0.632470	0.579532	2.784345	0.000000	0.073248	0.000000	-0.000748	-0.000170	0.000000	0.000000
56.130095	20.789224	14.786643	0.006299	0.057412	2.801982	0.000000	-0.009402	0.000000	-0.000834	-0.000144	0.000000	0.000000
56.428668	20.822423	14.735195	-0.062794	0.075967	2.801419	0.000000	-0.002029	0.000000	-0.000878	-0.000146	0.000000	0.000000
56.762001	20.869643	14.692134	-0.078865	0.053215	2.800792	0.000000	-0.002029	0.000000	-0.000927	-0.000146	0.000000	0.000000
57.095334	20.927577	14.664242	-0.094937	0.030463	2.800164	0.000000	-0.002029	0.000000	-0.000975	-0.000146	0.000000	0.000000
57.429918	20.996503	14.651498	-0.111069	0.007625	2.799534	0.000000	-0.002029	0.000000	-0.001024	-0.000146	0.000000	0.000000
57.727240	21.066812	14.652997	-0.180939	0.025927	2.798974	0.000000	0.005349	0.000000	-0.001068	-0.000149	0.000000	0.000000
58.276300	20.905807	14.905815	0.472367	-0.489107	2.779298	0.000000	-0.077169	0.000000	-0.001140	-0.000113	0.000000	0.000000
58.825360	20.041575	15.739888	1.092307	-1.038979	2.714605	0.000000	-0.158320	0.000000	-0.001192	-0.000075	0.000000	0.000000
59.374420	18.535160	17.214625	1.635094	-1.662851	2.606041	0.000000	-0.236665	0.000000	-0.001223	-0.000036	0.000000	0.000000
59.923480	16.492962	19.435061	2.062391	-2.405160	2.455532	0.000000	-0.310812	0.000000	-0.001232	0.000003	0.000000	0.000000
60.369440	14.894043	21.408580	1.535684	-2.001538	2.332240	0.000000	-0.242437	0.000000	-0.001237	-0.000029	0.000000	0.000000
60.810400	13.743534	22.962117	1.083344	-1.508199	2.239824	0.000000	-0.177216	0.000000	-0.001257	-0.000061	0.000000	0.000000
61.251360	12.968691	24.048542	0.680497	-0.946241	2.175709	0.000000	-0.114013	0.000000	-0.001291	-0.000094	0.000000	0.000000
61.692320	12.534116	24.618423	0.308739	-0.341231	2.139165	0.000000	-0.052108	0.000000	-0.001340	-0.000128	0.000000	0.000000
62.134530	12.420002	24.645288	-0.018154	0.218070	2.129782	0.000000	0.003913	0.000000	-0.001404	-0.000159	0.000000	0.000000
62.431853	12.437917	24.519371	-0.042101	0.205432	2.130993	0.000000	0.003913	0.000000	-0.001451	-0.000159	0.000000	0.000000
62.765186	12.474933	24.387140	-0.068948	0.191263	2.132351	0.000000	0.003913	0.000000	-0.001504	-0.000159	0.000000	0.000000
63.098520	12.529847	24.264353	-0.095795	0.177095	2.133708	0.000000	0.003913	0.000000	-0.001557	-0.000159	0.000000	0.000000
63.433103	12.602966	24.150606	-0.122743	0.162874	2.135071	0.000000	0.003913	0.000000	-0.001611	-0.000159	0.000000	0.000000
63.730426	12.683074	24.057513	-0.115102	0.090265	2.136282	0.000000	-0.001407	0.000000	-0.001658	-0.000155	0.000000	0.000000
64.171386	12.945770	23.712994	-0.482974	0.688074	2.149290	0.000000	0.060120	0.000000	-0.001736	-0.000199	0.000000	0.000000
64.612346	13.541348	22.853112	-0.872909	1.254577	2.189573	0.000000	0.122334	0.000000	-0.001834	-0.000245	0.000000	0.000000
65.053306	14.497014	21.516992	-1.302719	1.764000	2.257590	0.000000	0.185944	0.000000	-0.001953	-0.000294	0.000000	0.000000
65.494266	15.856422	19.765425	-1.792038	2.193166	2.354118	0.000000	0.251675	0.000000	-0.002094	-0.000346	0.000000	0.000000
65.940226	17.704869	17.653325	-2.367873	2.523252	2.481830	0.000000	0.320670	0.000000	-0.002260	-0.000403	0.000000	0.000000
66.489286	20.073389	15.290664	-1.920707	1.805394	2.637702	0.000000	0.245588	0.000000	-0.002461	-0.000326	0.000000	0.000000
67.038346	21.873050	13.641465	-1.337894	1.216122	2.751048	0.000000	0.166144	0.000000	-0.002617	-0.000244	0.000000	0.000000
67.587406	22.976760	12.588262	-0.660594	0.713467	2.819855	0.000000	0.083749	0.000000	-0.002728	-0.000157	0.000000	0.000000
68.136466	23.306577	12.056040	0.063358	0.261626	2.842903	0.000000	-0.000133	0.000000	-0.002789	-0.000068	0.000000	0.000000
68.435038	23.309771	11.888593	-0.011762	0.266965	2.845154	0.000000	0.007467	0.000000	-0.002812	-0.000075	0.000000	0.000000
68.768372	23.322379	11.720629	-0.026064	0.236929	2.847668	0.000000	0.007467	0.000000	-0.002837	-0.000075	0.000000	0.000000
69.101705	23.344522	11.572688	-0.040366	0.206892	2.850182	0.000000	0.007467	0.000000	-0.002862	-0.000075	0.000000	0.000000
69.436288	23.376337	11.444330	-0.054722	0.176743	2.852706	0.000000	0.007467	0.000000	-0.002887	-0.000075	0.000000	0.000000
69.733611	23.412676	11.347194	-0.130132	0.180304	2.854949	0.000000	0.015107	0.000000	-0.002910	-0.000083	0.000000	0.000000
70.282671	23.153498	11.376496	0.599372	-0.233990	2.840069	0.000000	-0.069298	0.000000	-0.002929	0.000012	0.000000	0.000000
