#ParticleID	Turn	x[m]	xp	y[m]	yp	z[m]	dE[GeV]# s	beta_x	beta_y	alpha_x	alpha_y	D_x	D_y	D_px	D_py	orbit_x	orbit_px	orbit_y	orbit_py
0.300000	11.908895	25.011973	-0.009070	-0.028895	2.607361	0.000000	-0.002861	0.000000	-0.001309	0.001088	0.000000	0.000000
0.601250	11.921980	25.033013	-0.034368	-0.040949	2.606172	0.000000	-0.002861	0.000000	-0.000982	0.001088	0.000000	0.000000
0.898573	11.949841	25.060901	-0.029850	-0.114294	2.604997	0.000000	-0.009289	0.000000	-0.000658	0.001090	0.000000	0.000000
1.339533	12.129364	24.883704	-0.378444	0.514612	2.616657	0.000000	0.064306	0.000000	-0.000180	0.001079	0.000000	0.000000
1.780493	12.622763	24.160104	-0.744337	1.120108	2.660898	0.000000	0.138622	0.000000	0.000295	0.001080	0.000000	0.000000
2.221453	13.452590	22.923013	-1.144245	1.674643	2.738222	0.000000	0.214505	0.000000	0.000774	0.001094	0.000000	0.000000
2.662413	14.656771	21.228709	-1.596442	2.152985	2.849505	0.000000	0.292820	0.000000	0.001262	0.001121	0.000000	0.000000
3.108373	16.311171	19.129412	-2.125929	2.534546	2.997840	0.000000	0.374950	0.000000	0.001770	0.001160	0.000000	0.000000
3.657433	18.431860	16.771501	-1.712922	1.785123	3.178074	0.000000	0.282738	0.000000	0.002390	0.001092	0.000000	0.000000
4.206493	20.029476	15.162321	-1.178888	1.162854	3.306271	0.000000	0.185528	0.000000	0.002966	0.001006	0.000000	0.000000
4.755553	20.991129	14.187263	-0.561553	0.623415	3.380164	0.000000	0.085044	0.000000	0.003491	0.000901	0.000000	0.000000
5.304613	21.248854	13.776883	0.095472	0.128380	3.398450	0.000000	-0.016935	0.000000	0.003953	0.000780	0.000000	0.000000
5.603185	21.228081	13.686187	0.027734	0.140769	3.395719	0.000000	-0.008353	0.000000	0.004189	0.000791	0.000000	0.000000
5.936519	21.214830	13.600620	0.012019	0.115931	3.392671	0.000000	-0.008353	0.000000	0.004452	0.000791	0.000000	0.000000
6.269852	21.212055	13.531612	-0.003695	0.091093	3.389623	0.000000	-0.008353	0.000000	0.004716	0.000791	0.000000	0.000000
6.604435	21.219805	13.478998	-0.019469	0.066162	3.386564	0.000000	-0.008353	0.000000	0.004981	0.000791	0.000000	0.000000
6.901758	21.235567	13.446231	-0.086509	0.077739	3.383847	0.000000	0.000097	0.000000	0.005216	0.000804	0.000000	0.000000
7.450818	20.968827	13.622013	0.569841	-0.399755	3.355658	0.000000	-0.101253	0.000000	0.005609	0.000629	0.000000	0.000000
7.999878	19.999147	14.334655	1.185944	-0.905730	3.272326	0.000000	-0.200797	0.000000	0.005904	0.000442	0.000000	0.000000
8.548938	18.395030	15.634929	1.718266	-1.476230	3.135334	0.000000	-0.296771	0.000000	0.006093	0.000248	0.000000	0.000000
9.097998	16.269817	17.615472	2.129192	-2.151899	2.947116	0.000000	-0.387477	0.000000	0.006175	0.000049	0.000000	0.000000
9.543958	14.612546	19.380084	1.599944	-1.787913	2.792343	0.000000	-0.306717	0.000000	0.006232	0.000210	0.000000	0.000000
9.984918	13.405225	20.766507	1.148251	-1.343940	2.673997	0.000000	-0.229954	0.000000	0.006361	0.000372	0.000000	0.000000
10.425878	12.571760	21.732777	0.749030	-0.838807	2.588823	0.000000	-0.155814	0.000000	0.006561	0.000539	0.000000	0.000000
10.866838	12.074061	22.234920	0.384035	-0.295499	2.535849	0.000000	-0.083455	0.000000	0.006837	0.000711	0.000000	0.000000
11.309048	11.889247	22.249519	0.063618	0.210136	2.514447	0.000000	-0.017794	0.000000	0.007191	0.000875	0.000000	0.000000
11.606371	11.858882	22.128711	0.038509	0.196183	2.508897	0.000000	-0.017794	0.000000	0.007451	0.000875	0.000000	0.000000
12.086371	11.841370	21.951188	-0.002027	0.173657	2.499936	0.000000	-0.017794	0.000000	0.007871	0.000875	0.000000	0.000000
12.566371	11.862773	21.795290	-0.042563	0.151131	2.490975	0.000000	-0.017794	0.000000	0.008292	0.000875	0.000000	0.000000
13.046371	11.923091	21.661017	-0.083099	0.128604	2.482013	0.000000	-0.017794	0.000000	0.008712	0.000875	0.000000	0.000000
13.526371	12.022323	21.548369	-0.123635	0.106078	2.473052	0.000000	-0.017794	0.000000	0.009132	0.000875	0.000000	0.000000
14.007621	12.160881	21.457138	-0.164277	0.083493	2.464068	0.000000	-0.017794	0.000000	0.009553	0.000875	0.000000	0.000000
14.304943	12.265998	21.411698	-0.162171	0.022285	2.458514	0.000000	-0.023248	0.000000	0.009813	0.000852	0.000000	0.000000
14.745903	12.566778	21.157622	-0.522073	0.551629	2.463219	0.000000	0.046500	0.000000	0.010246	0.001111	0.000000	0.000000
15.186863	13.194349	20.445963	-0.905846	1.055870	2.498658	0.000000	0.116766	0.000000	0.010795	0.001382	0.000000	0.000000
15.627823	14.177416	19.309100	-1.331036	1.512060	2.565229	0.000000	0.188348	0.000000	0.011467	0.001669	0.000000	0.000000
16.068783	15.560942	17.798761	-1.817083	1.899434	2.663685	0.000000	0.262058	0.000000	0.012270	0.001975	0.000000	0.000000
16.514743	17.431887	15.961862	-2.391200	2.201399	2.796808	0.000000	0.339227	0.000000	0.013224	0.002306	0.000000	0.000000
17.063803	19.835347	13.910810	-1.958286	1.555480	2.958783	0.000000	0.253792	0.000000	0.014369	0.001859	0.000000	0.000000
17.612863	21.683942	12.504504	-1.386925	1.020393	3.072789	0.000000	0.163884	0.000000	0.015259	0.001379	0.000000	0.000000
18.161923	22.846942	11.642761	-0.717503	0.558012	3.136813	0.000000	0.071090	0.000000	0.015879	0.000874	0.000000	0.000000
18.710983	23.242091	11.264189	0.002653	0.135392	3.149728	0.000000	-0.022951	0.000000	0.016217	0.000354	0.000000	0.000000
19.009556	23.275298	11.176497	-0.062349	0.133403	3.144855	0.000000	-0.015887	0.000000	0.016334	0.000393	0.000000	0.000000
19.342889	23.321656	11.097680	-0.076726	0.103048	3.139428	0.000000	-0.015887	0.000000	0.016465	0.000393	0.000000	0.000000
19.676223	23.377599	11.039099	-0.091103	0.072693	3.134001	0.000000	-0.015887	0.000000	0.016596	0.000393	0.000000	0.000000
20.010806	23.443680	11.000514	-0.221687	0.096727	3.128573	0.000000	-0.000387	0.000000	0.016728	0.000476	0.000000	0.000000
20.308129	23.579658	10.951015	-0.287497	0.093917	3.128330	0.000000	0.006579	0.000000	0.016870	0.000517	0.000000	0.000000
20.857189	23.488877	11.069685	0.451980	-0.311273	3.106190	0.000000	-0.086621	0.000000	0.017003	-0.000032	0.000000	0.000000
21.406249	22.598475	11.642906	1.159508	-0.738644	3.033502	0.000000	-0.178285	0.000000	0.016835	-0.000580	0.000000	0.000000
21.955309	20.971416	12.711524	1.785061	-1.218651	2.911552	0.000000	-0.266795	0.000000	0.016368	-0.001118	0.000000	0.000000
22.504369	18.722763	14.351674	2.284415	-1.785497	2.742501	0.000000	-0.350588	0.000000	0.015610	-0.001636	0.000000	0.000000
22.950329	16.952206	15.824335	1.697838	-1.501827	2.603680	0.000000	-0.274888	0.000000	0.014969	-0.001239	0.000000	0.000000
23.391289	15.681397	16.998828	1.193914	-1.150965	2.498882	0.000000	-0.202801	0.000000	0.014507	-0.000859	0.000000	0.000000
23.832249	14.829528	17.839442	0.744578	-0.747716	2.425183	0.000000	-0.133015	0.000000	0.014210	-0.000489	0.000000	0.000000
24.273209	14.357636	18.307921	0.329286	-0.310433	2.381745	0.000000	-0.064740	0.000000	0.014075	-0.000125	0.000000	0.000000
24.715418	14.244324	18.382581	-0.040936	0.102001	2.368079	0.000000	-0.002206	0.000000	0.014100	0.000206	0.000000	0.000000
25.012741	14.274883	18.326786	-0.061844	0.085659	2.367361	0.000000	-0.002206	0.000000	0.014161	0.000206	0.000000	0.000000
25.346075	14.323926	18.275787	-0.085284	0.067337	2.366557	0.000000	-0.002206	0.000000	0.014230	0.000206	0.000000	0.000000
25.679408	14.388595	18.237004	-0.108724	0.049015	2.365753	0.000000	-0.002206	0.000000	0.014299	0.000206	0.000000	0.000000
26.013991	14.468929	18.210727	-0.014871	-0.117110	2.364923	0.000000	-0.021391	0.000000	0.014368	0.000090	0.000000	0.000000
26.311314	14.483795	18.285398	-0.004923	-0.172154	2.358529	0.000000	-0.026358	0.000000	0.014395	0.000057	0.000000	0.000000
26.752274	14.667230	18.238934	-0.412460	0.277100	2.361606	0.000000	0.040798	0.000000	0.014502	0.000430	0.000000	0.000000
27.193234	15.217156	17.800252	-0.838858	0.713742	2.394218	0.000000	0.108415	0.000000	0.014774	0.000807	0.000000	0.000000
27.634194	16.158727	16.989312	-1.303614	1.117897	2.456732	0.000000	0.177259	0.000000	0.015215	0.001194	0.000000	0.000000
28.075154	17.535015	15.843019	-1.827979	1.471170	2.549857	0.000000	0.248110	0.000000	0.015829	0.001594	0.000000	0.000000
28.521114	19.433266	14.396037	-2.441228	1.758717	2.676244	0.000000	0.322255	0.000000	0.016634	0.002015	0.000000	0.000000
29.070174	21.847525	12.784145	-1.927688	1.193625	2.830180	0.000000	0.240851	0.000000	0.017589	0.001461	0.000000	0.000000
29.619234	23.618923	11.742850	-1.277849	0.713589	2.938478	0.000000	0.155197	0.000000	0.018233	0.000880	0.000000	0.000000
30.168294	24.622172	11.197966	-0.537659	0.284404	2.999223	0.000000	0.066803	0.000000	0.018553	0.000284	0.000000	0.000000
30.717354	24.786315	11.110668	0.240545	-0.124513	3.011340	0.000000	-0.022772	0.000000	0.018544	-0.000317	0.000000	0.000000
31.015927	24.678511	11.178696	0.173882	-0.127305	3.006573	0.000000	-0.016188	0.000000	0.018463	-0.000273	0.000000	0.000000
31.349260	24.567228	11.273667	0.159966	-0.157607	3.001268	0.000000	-0.016188	0.000000	0.018372	-0.000273	0.000000	0.000000
31.682593	24.465222	11.388839	0.146051	-0.187909	2.995963	0.000000	-0.016188	0.000000	0.018281	-0.000273	0.000000	0.000000
32.017177	24.372163	11.524758	0.132083	-0.218324	2.990638	0.000000	-0.016188	0.000000	0.018190	-0.000273	0.000000	0.000000
32.314499	24.297544	11.662507	0.066280	-0.219766	2.985921	0.000000	-0.009626	0.000000	0.018109	-0.000229	0.000000	0.000000
32.863559	23.808409	12.141809	0.818717	-0.658114	2.956571	0.000000	-0.098096	0.000000	0.017823	-0.000811	0.000000	0.000000
33.412619	22.519657	13.125366	1.513261	-1.143360	2.879340	0.000000	-0.184839	0.000000	0.017220	-0.001379	0.000000	0.000000
33.961679	20.522445	14.683252	2.100806	-1.710078	2.755593	0.000000	-0.268324	0.000000	0.016312	-0.001923	0.000000	0.000000
34.510739	17.958028	16.926456	2.539815	-2.398650	2.587511	0.000000	-0.347078	0.000000	0.015115	-0.002432	0.000000	0.000000
34.956699	15.965371	18.933370	1.942049	-2.081574	2.449710	0.000000	-0.275397	0.000000	0.014115	-0.002053	0.000000	0.000000
35.397659	14.479729	20.594691	1.438354	-1.670854	2.344164	0.000000	-0.207293	0.000000	0.013289	-0.001699	0.000000	0.000000
35.838619	13.407922	21.858651	1.000427	-1.184087	2.267966	0.000000	-0.141533	0.000000	0.012614	-0.001365	0.000000	0.000000
36.279579	12.700921	22.667735	0.608243	-0.643430	2.220253	0.000000	-0.077371	0.000000	0.012082	-0.001047	0.000000	0.000000
36.721789	12.325763	22.985346	0.270544	-0.123255	2.200469	0.000000	-0.018861	0.000000	0.011687	-0.000768	0.000000	0.000000
37.019112	12.172582	23.062544	0.244657	-0.136387	2.195089	0.000000	-0.018861	0.000000	0.011459	-0.000768	0.000000	0.000000
37.352445	12.019152	23.158376	0.215634	-0.151109	2.189058	0.000000	-0.018861	0.000000	0.011203	-0.000768	0.000000	0.000000
37.685779	11.885070	23.264023	0.186610	-0.165832	2.183027	0.000000	-0.018861	0.000000	0.010948	-0.000768	0.000000	0.000000
38.020362	11.769944	23.379937	0.157479	-0.180609	2.176973	0.000000	-0.018861	0.000000	0.010691	-0.000768	0.000000	0.000000
38.317684	11.683959	23.491315	0.157334	-0.245754	2.171590	0.000000	-0.023646	0.000000	0.010463	-0.000792	0.000000	0.000000
38.758644	11.694665	23.447894	-0.181921	0.343835	2.175186	0.000000	0.038690	0.000000	0.010172	-0.000526	0.000000	0.000000
39.199604	12.007169	22.889369	-0.529488	0.917773	2.206232	0.000000	0.101472	0.000000	0.009998	-0.000266	0.000000	0.000000
39.640564	12.635752	21.841163	-0.901254	1.449940	2.265086	0.000000	0.165413	0.000000	0.009937	-0.000009	0.000000	0.000000
40.081524	13.609149	20.350983	-1.314214	1.916118	2.352418	0.000000	0.231238	0.000000	0.009990	0.000248	0.000000	0.000000
40.527484	14.989500	18.464001	-1.791246	2.296611	2.470699	0.000000	0.300127	0.000000	0.010159	0.000509	0.000000	0.000000
41.076544	16.752987	16.343781	-1.400940	1.587165	2.615068	0.000000	0.225560	0.000000	0.010348	0.000177	0.000000	0.000000
41.625604	18.030484	14.936423	-0.911633	0.990802	2.717507	0.000000	0.146995	0.000000	0.010353	-0.000158	0.000000	0.000000
42.174664	18.731698	14.141658	-0.357907	0.465033	2.776197	0.000000	0.065818	0.000000	0.010175	-0.000491	0.000000	0.000000
42.723724	18.807077	13.902858	0.221101	-0.027601	2.790094	0.000000	-0.016534	0.000000	0.009816	-0.000815	0.000000	0.000000
43.022297	18.706746	13.905832	0.159745	-0.015652	2.787382	0.000000	-0.009859	0.000000	0.009580	-0.000790	0.000000	0.000000
43.502297	18.566021	13.937431	0.133431	-0.050179	2.783029	0.000000	-0.009859	0.000000	0.009200	-0.000790	0.000000	0.000000
43.982297	18.450558	14.002175	0.107117	-0.084705	2.778676	0.000000	-0.009859	0.000000	0.008821	-0.000790	0.000000	0.000000
44.462297	18.360356	14.100065	0.080803	-0.119232	2.774322	0.000000	-0.009859	0.000000	0.008442	-0.000790	0.000000	0.000000
44.942297	18.295415	14.231100	0.054489	-0.153758	2.769969	0.000000	-0.009859	0.000000	0.008063	-0.000790	0.000000	0.000000
45.423547	18.255892	14.395573	-0.062343	-0.117050	2.765621	0.000000	0.003843	0.000000	0.007682	-0.000752	0.000000	0.000000
45.720870	18.297855	14.471377	-0.123457	-0.102739	2.766990	0.000000	0.010612	0.000000	0.007459	-0.000733	0.000000	0.000000
46.269930	18.125010	14.864469	0.435919	-0.617350	2.750850	0.000000	-0.070948	0.000000	0.006991	-0.000967	0.000000	0.000000
46.818990	17.351152	15.843407	0.964477	-1.175937	2.690319	0.000000	-0.151265	0.000000	0.006400	-0.001184	0.000000	0.000000
47.368050	16.030987	17.477913	1.424870	-1.818294	2.586464	0.000000	-0.228918	0.000000	0.005694	-0.001380	0.000000	0.000000
47.917110	14.257825	19.884408	1.784570	-2.590178	2.441116	0.000000	-0.302533	0.000000	0.004888	-0.001552	0.000000	0.000000
48.363070	12.877418	22.024189	1.320973	-2.187516	2.322075	0.000000	-0.234451	0.000000	0.004223	-0.001434	0.000000	0.000000
48.804030	11.892006	23.739189	0.921585	-1.686706	2.233695	0.000000	-0.169433	0.000000	0.003614	-0.001333	0.000000	0.000000
49.244990	11.239040	24.976819	0.564318	-1.109148	2.173499	0.000000	-0.106331	0.000000	0.003046	-0.001247	0.000000	0.000000
49.685950	10.888669	25.680774	0.232845	-0.481126	2.140807	0.000000	-0.044427	0.000000	0.002512	-0.001175	0.000000	0.000000
50.128160	10.825029	25.818764	-0.062058	0.107037	2.135267	0.000000	0.011847	0.000000	0.002006	-0.001122	0.000000	0.000000
50.425482	10.870130	25.758578	-0.089630	0.095390	2.139123	0.000000	0.011847	0.000000	0.001672	-0.001122	0.000000	0.000000
50.758816	10.940187	25.699337	-0.120541	0.082331	2.143446	0.000000	0.011847	0.000000	0.001299	-0.001122	0.000000	0.000000
51.092149	11.030851	25.648803	-0.151453	0.069273	2.147769	0.000000	0.011847	0.000000	0.000925	-0.001122	0.000000	0.000000
51.426732	11.142354	25.607352	-0.092086	-0.151574	2.152086	0.000000	-0.005612	0.000000	0.000549	-0.001126	0.000000	0.000000
51.724055	11.205113	25.701017	-0.091574	-0.226763	2.150753	0.000000	-0.010875	0.000000	0.000214	-0.001127	0.000000	0.000000
52.165015	11.431875	25.615065	-0.424986	0.420941	2.160068	0.000000	0.050980	0.000000	-0.000282	-0.001128	0.000000	0.000000
52.605975	11.960084	24.964191	-0.777805	1.049490	2.196765	0.000000	0.113428	0.000000	-0.000782	-0.001141	0.000000	0.000000
53.046935	12.813862	23.778022	-1.166151	1.630283	2.261269	0.000000	0.177181	0.000000	-0.001290	-0.001168	0.000000	0.000000
53.487895	14.032201	22.110535	-1.607763	2.136899	2.354318	0.000000	0.242963	0.000000	-0.001814	-0.001208	0.000000	0.000000
53.933855	15.691594	20.012647	-2.127041	2.547581	2.478511	0.000000	0.311920	0.000000	-0.002364	-0.001262	0.000000	0.000000
54.482915	17.827790	17.651924	-1.741300	1.777532	2.630073	0.000000	0.237017	0.000000	-0.003034	-0.001175	0.000000	0.000000
55.031975	19.469956	16.062724	-1.232599	1.134089	2.739236	0.000000	0.157891	0.000000	-0.003650	-0.001066	0.000000	0.000000
55.581035	20.502144	15.131843	-0.636869	0.571421	2.804053	0.000000	0.075948	0.000000	-0.004202	-0.000939	0.000000	0.000000
56.130095	20.851491	14.792967	0.003819	0.049454	2.823368	0.000000	-0.007358	0.000000	-0.004678	-0.000795	0.000000	0.000000
56.428668	20.887278	14.745446	-0.067133	0.069422	2.823700	0.000000	0.000305	0.000000	-0.004920	-0.000808	0.000000	0.000000
56.762001	20.937377	14.706737	-0.083163	0.046707	2.824071	0.000000	0.000305	0.000000	-0.005189	-0.000808	0.000000	0.000000
57.095334	20.998163	14.683170	-0.099194	0.023992	2.824442	0.000000	0.000305	0.000000	-0.005458	-0.000808	0.000000	0.000000
57.429918	21.069924	14.674744	-0.115285	0.001192	2.824814	0.000000	0.000305	0.000000	-0.005729	-0.000808	0.000000	0.000000
57.727240	21.142751	14.680044	-0.187542	0.021005	2.825147	0.000000	0.008050	0.000000	-0.005969	-0.000824	0.000000	0.000000
58.276300	20.987420	14.938729	0.468360	-0.494970	2.807034	0.000000	-0.075329	0.000000	-0.006367	-0.000624	0.000000	0.000000
58.825360	20.125955	15.779877	1.091174	-1.046192	2.743334	0.000000	-0.157382	0.000000	-0.006652	-0.000413	0.000000	0.000000
59.374420	18.619199	17.263383	1.636927	-1.671916	2.635172	0.000000	-0.236650	0.000000	-0.006819	-0.000195	0.000000	0.000000
59.923480	16.573543	19.494891	2.067085	-2.416703	2.484464	0.000000	-0.311725	0.000000	-0.006865	0.000027	0.000000	0.000000
60.369440	14.971225	21.478302	1.538728	-2.012243	2.360950	0.000000	-0.242631	0.000000	-0.006893	-0.000152	0.000000	0.000000
60.810400	13.818817	23.040547	1.084754	-1.517455	2.268701	0.000000	-0.176678	0.000000	-0.006999	-0.000331	0.000000	0.000000
61.251360	13.043434	24.134252	0.680327	-0.953639	2.205138	0.000000	-0.112734	0.000000	-0.007185	-0.000514	0.000000	0.000000
61.692320	12.609665	24.709666	0.306977	-0.346444	2.169541	0.000000	-0.050068	0.000000	-0.007453	-0.000702	0.000000	0.000000
62.134530	12.497765	24.740046	-0.019580	0.211720	2.161517	0.000000	0.006352	0.000000	-0.007807	-0.000879	0.000000	0.000000
62.431853	12.516484	24.617881	-0.043379	0.199164	2.163666	0.000000	0.006352	0.000000	-0.008068	-0.000879	0.000000	0.000000
62.765186	12.554298	24.489798	-0.070061	0.185086	2.166077	0.000000	0.006352	0.000000	-0.008361	-0.000879	0.000000	0.000000
63.098520	12.609899	24.371100	-0.096743	0.171009	2.168487	0.000000	0.006352	0.000000	-0.008654	-0.000879	0.000000	0.000000
63.433103	12.683597	24.261394	-0.123525	0.156879	2.170906	0.000000	0.006352	0.000000	-0.008948	-0.000879	0.000000	0.000000
63.730426	12.764094	24.171900	-0.113366	0.079708	2.173053	0.000000	0.000570	0.000000	-0.009209	-0.000855	0.000000	0.000000
64.171386	13.025875	23.835333	-0.482985	0.680751	2.187482	0.000000	0.063051	0.000000	-0.009640	-0.001098	0.000000	0.000000
64.612346	13.621990	22.980453	-0.874652	1.250824	2.229699	0.000000	0.126262	0.000000	-0.010180	-0.001354	0.000000	0.000000
65.053306	14.579644	21.646159	-1.306251	1.763999	2.300190	0.000000	0.190925	0.000000	-0.010836	-0.001625	0.000000	0.000000
65.494266	15.942548	19.893155	-1.797486	2.196932	2.399763	0.000000	0.257779	0.000000	-0.011615	-0.001914	0.000000	0.000000
65.940226	17.796300	17.776220	-2.375197	2.530463	2.531185	0.000000	0.327954	0.000000	-0.012538	-0.002227	0.000000	0.000000
66.489286	20.170417	15.407782	-1.925059	1.809415	2.691462	0.000000	0.251230	0.000000	-0.013645	-0.001803	0.000000	0.000000
67.038346	21.972401	13.756063	-1.339061	1.217208	2.808089	0.000000	0.170022	0.000000	-0.014511	-0.001347	0.000000	0.000000
67.587406	23.075120	12.703428	-0.658566	0.711669	2.878988	0.000000	0.085778	0.000000	-0.015120	-0.000867	0.000000	0.000000
68.136466	23.400787	12.174913	0.068398	0.256803	2.902892	0.000000	-0.000001	0.000000	-0.015460	-0.000372	0.000000	0.000000
68.435038	23.404638	12.008206	-0.013103	0.266005	2.905552	0.000000	0.008527	0.000000	-0.015584	-0.000415	0.000000	0.000000
68.768372	23.418122	11.840777	-0.027348	0.236282	2.908532	0.000000	0.008527	0.000000	-0.015722	-0.000415	0.000000	0.000000
69.101705	23.441102	11.693163	-0.041593	0.206559	2.911513	0.000000	0.008527	0.000000	-0.015861	-0.000415	0.000000	0.000000
69.436288	23.473718	11.564922	-0.055891	0.176725	2.914504	0.000000	0.008527	0.000000	-0.015999	-0.000415	0.000000	0.000000
69.733611	23.510910	11.467629	-0.137965	0.183978	2.917174	0.000000	0.017134	0.000000	-0.016123	-0.000460	0.000000	0.000000
70.282671	23.258613	11.494690	0.594727	-0.233568	2.902949	0.000000	-0.069263	0.000000	-0.016231	0.000064	0.000000	0.000000
