#ParticleID	Turn	x[m]	xp	y[m]	yp	z[m]	dE[GeV]# s	beta_x	beta_y	alpha_x	alpha_y	D_x	D_y	D_px	D_py	orbit_x	orbit_px	orbit_y	orbit_py
0.300000	11.927319	25.241436	-0.019421	-0.022768	2.604373	0.000000	0.000633	0.000000	-0.000558	0.000489	0.000000	0.000000
0.601250	11.946631	25.258751	-0.044688	-0.034709	2.604417	0.000000	0.000633	0.000000	-0.000411	0.000489	0.000000	0.000000
0.898573	11.980619	25.282894	-0.040171	-0.108474	2.604460	0.000000	-0.005770	0.000000	-0.000265	0.000489	0.000000	0.000000
1.339533	12.169547	25.097997	-0.389734	0.526185	2.617924	0.000000	0.067835	0.000000	-0.000051	0.000485	0.000000	0.000000
1.780493	12.673423	24.361840	-0.757107	1.136904	2.663985	0.000000	0.142207	0.000000	0.000163	0.000487	0.000000	0.000000
2.221453	13.515273	23.107911	-1.159074	1.695897	2.743163	0.000000	0.218194	0.000000	0.000379	0.000494	0.000000	0.000000
2.662413	14.733564	21.393260	-1.614001	2.177728	2.856360	0.000000	0.296661	0.000000	0.000600	0.000506	0.000000	0.000000
3.108373	16.405000	19.270775	-2.147028	2.561630	3.006716	0.000000	0.378991	0.000000	0.000830	0.000525	0.000000	0.000000
3.657433	18.547800	16.886628	-1.732227	1.806174	3.189405	0.000000	0.286457	0.000000	0.001109	0.000493	0.000000	0.000000
4.206493	20.164799	15.256977	-1.195055	1.179368	3.319837	0.000000	0.188849	0.000000	0.001370	0.000453	0.000000	0.000000
4.755553	21.141761	14.265749	-0.573456	0.636568	3.395701	0.000000	0.087899	0.000000	0.001606	0.000405	0.000000	0.000000
5.304613	21.409662	13.842345	0.088661	0.139109	3.415655	0.000000	-0.014604	0.000000	0.001813	0.000350	0.000000	0.000000
5.603185	21.393779	13.744688	0.019613	0.152428	3.413813	0.000000	-0.005816	0.000000	0.001919	0.000354	0.000000	0.000000
5.936519	21.385899	13.651342	0.004027	0.127612	3.411756	0.000000	-0.005816	0.000000	0.002037	0.000354	0.000000	0.000000
6.269852	21.388410	13.574539	-0.011560	0.102797	3.409699	0.000000	-0.005816	0.000000	0.002155	0.000354	0.000000	0.000000
6.604435	21.401381	13.514084	-0.027206	0.077889	3.407634	0.000000	-0.005816	0.000000	0.002274	0.000354	0.000000	0.000000
6.901758	21.421696	13.474347	-0.095956	0.090324	3.405800	0.000000	0.002904	0.000000	0.002379	0.000361	0.000000	0.000000
7.450818	21.161733	13.636628	0.566802	-0.387619	3.379163	0.000000	-0.099174	0.000000	0.002556	0.000281	0.000000	0.000000
7.999878	20.191703	14.335760	1.189525	-0.893175	3.296923	0.000000	-0.199487	0.000000	0.002687	0.000196	0.000000	0.000000
8.548938	18.580128	15.621547	1.728220	-1.462354	3.160540	0.000000	-0.296259	0.000000	0.002770	0.000107	0.000000	0.000000
9.097998	16.440858	17.585581	2.144831	-2.135703	2.972435	0.000000	-0.387775	0.000000	0.002804	0.000017	0.000000	0.000000
9.543958	14.771646	19.335481	1.611340	-1.771465	2.817712	0.000000	-0.306377	0.000000	0.002828	0.000090	0.000000	0.000000
9.984918	13.556000	20.707467	1.155874	-1.327929	2.699734	0.000000	-0.228962	0.000000	0.002884	0.000164	0.000000	0.000000
10.425878	12.717346	21.660032	0.753221	-0.823968	2.615256	0.000000	-0.154157	0.000000	0.002972	0.000239	0.000000	0.000000
10.866838	12.217362	22.149831	0.384983	-0.282513	2.563313	0.000000	-0.081111	0.000000	0.003095	0.000317	0.000000	0.000000
11.309048	12.033052	22.154019	0.062824	0.218969	2.543295	0.000000	-0.015035	0.000000	0.003253	0.000391	0.000000	0.000000
11.606371	12.003069	22.027992	0.038017	0.204905	2.538708	0.000000	-0.015035	0.000000	0.003370	0.000391	0.000000	0.000000
12.086371	11.985796	21.842182	-0.002030	0.182200	2.531303	0.000000	-0.015035	0.000000	0.003558	0.000391	0.000000	0.000000
12.566371	12.006967	21.678169	-0.042078	0.159494	2.523899	0.000000	-0.015035	0.000000	0.003745	0.000391	0.000000	0.000000
13.046371	12.066585	21.535953	-0.082125	0.136789	2.516494	0.000000	-0.015035	0.000000	0.003933	0.000391	0.000000	0.000000
13.526371	12.164648	21.415534	-0.122173	0.114084	2.509090	0.000000	-0.015035	0.000000	0.004121	0.000391	0.000000	0.000000
14.007621	12.301563	21.316684	-0.162325	0.091319	2.501666	0.000000	-0.015035	0.000000	0.004309	0.000391	0.000000	0.000000
14.304943	12.405457	21.266575	-0.157998	0.027425	2.497078	0.000000	-0.020899	0.000000	0.004426	0.000381	0.000000	0.000000
14.745903	12.703784	21.009753	-0.520909	0.552737	2.503270	0.000000	0.049852	0.000000	0.004619	0.000497	0.000000	0.000000
15.186863	13.331465	20.298979	-0.907628	1.052898	2.540706	0.000000	0.121167	0.000000	0.004865	0.000620	0.000000	0.000000
15.627823	14.317190	19.166592	-1.335828	1.505148	2.609811	0.000000	0.193855	0.000000	0.005167	0.000749	0.000000	0.000000
16.068783	15.706016	17.664117	-1.825079	1.888907	2.711369	0.000000	0.268743	0.000000	0.005527	0.000887	0.000000	0.000000
16.514743	17.585043	15.838395	-2.402613	2.187558	2.848233	0.000000	0.347164	0.000000	0.005955	0.001036	0.000000	0.000000
17.063803	19.997570	13.800415	-1.964396	1.545783	3.014688	0.000000	0.260013	0.000000	0.006469	0.000834	0.000000	0.000000
17.612863	21.849269	12.402986	-1.387367	1.014128	3.132065	0.000000	0.168263	0.000000	0.006869	0.000618	0.000000	0.000000
18.161923	23.009274	11.546565	-0.712300	0.554718	3.198286	0.000000	0.073537	0.000000	0.007146	0.000391	0.000000	0.000000
18.710983	23.395601	11.170148	0.013105	0.134826	3.212178	0.000000	-0.022487	0.000000	0.007297	0.000157	0.000000	0.000000
19.009556	23.425784	11.081518	-0.057001	0.134735	3.207759	0.000000	-0.014617	0.000000	0.007350	0.000176	0.000000	0.000000
19.342889	23.468543	11.001904	-0.071276	0.104109	3.202828	0.000000	-0.014617	0.000000	0.007408	0.000176	0.000000	0.000000
19.676223	23.520819	10.942707	-0.085552	0.073483	3.197897	0.000000	-0.014617	0.000000	0.007467	0.000176	0.000000	0.000000
20.010806	23.583154	10.903685	-0.216725	0.096765	3.192967	0.000000	0.001202	0.000000	0.007525	0.000213	0.000000	0.000000
20.308129	23.715993	10.854309	-0.287869	0.095799	3.193264	0.000000	0.009004	0.000000	0.007589	0.000232	0.000000	0.000000
20.857189	23.623203	10.969378	0.455921	-0.306588	3.171957	0.000000	-0.086288	0.000000	0.007649	-0.000015	0.000000	0.000000
21.406249	22.726393	11.535695	1.167495	-0.730818	3.098796	0.000000	-0.180049	0.000000	0.007573	-0.000261	0.000000	0.000000
21.955309	21.088941	12.593602	1.796572	-1.207112	2.975080	0.000000	-0.270620	0.000000	0.007362	-0.000503	0.000000	0.000000
22.504369	18.826570	14.218463	2.298696	-1.769402	2.803000	0.000000	-0.356399	0.000000	0.007021	-0.000736	0.000000	0.000000
22.950329	17.045135	15.677982	1.709282	-1.489224	2.661612	0.000000	-0.279203	0.000000	0.006733	-0.000558	0.000000	0.000000
23.391289	15.765640	16.842896	1.202842	-1.142242	2.555002	0.000000	-0.205660	0.000000	0.006525	-0.000387	0.000000	0.000000
23.832249	14.907029	17.677590	0.751375	-0.743280	2.480206	0.000000	-0.134456	0.000000	0.006391	-0.000221	0.000000	0.000000
24.273209	14.430054	18.144080	0.334247	-0.310494	2.436376	0.000000	-0.064780	0.000000	0.006330	-0.000057	0.000000	0.000000
24.715418	14.313017	18.220881	-0.034731	0.094365	2.423010	0.000000	-0.001423	0.000000	0.006341	0.000092	0.000000	0.000000
25.012741	14.339854	18.169663	-0.055529	0.077902	2.422560	0.000000	-0.001423	0.000000	0.006368	0.000092	0.000000	0.000000
25.346075	14.384645	18.123881	-0.078846	0.059445	2.422055	0.000000	-0.001423	0.000000	0.006399	0.000092	0.000000	0.000000
25.679408	14.444981	18.090403	-0.102163	0.040988	2.421550	0.000000	-0.001423	0.000000	0.006429	0.000092	0.000000	0.000000
26.013991	14.520882	18.069541	-0.007764	-0.124127	2.421019	0.000000	-0.021063	0.000000	0.006460	0.000039	0.000000	0.000000
26.311314	14.531569	18.148342	0.005177	-0.182565	2.414743	0.000000	-0.026617	0.000000	0.006471	0.000024	0.000000	0.000000
26.752274	14.706445	18.112701	-0.403181	0.263078	2.418082	0.000000	0.041979	0.000000	0.006519	0.000191	0.000000	0.000000
27.193234	15.248261	17.687799	-0.829966	0.696749	2.451675	0.000000	0.111051	0.000000	0.006640	0.000361	0.000000	0.000000
27.634194	16.181783	16.892970	-1.294685	1.098713	2.515906	0.000000	0.181384	0.000000	0.006838	0.000535	0.000000	0.000000
28.075154	17.549686	15.764383	-1.818577	1.450679	2.611504	0.000000	0.253777	0.000000	0.007113	0.000715	0.000000	0.000000
28.521114	19.438387	14.336313	-2.430661	1.737675	2.741170	0.000000	0.329523	0.000000	0.007474	0.000904	0.000000	0.000000
29.070174	21.839713	12.745720	-1.916021	1.176045	2.899000	0.000000	0.245978	0.000000	0.007902	0.000655	0.000000	0.000000
29.619234	23.597622	11.722570	-1.265982	0.698199	3.009826	0.000000	0.158079	0.000000	0.008190	0.000394	0.000000	0.000000
30.168294	24.587870	11.193978	-0.526480	0.270094	3.071683	0.000000	0.067382	0.000000	0.008333	0.000126	0.000000	0.000000
30.717354	24.740469	11.122288	0.250226	-0.138769	3.083477	0.000000	-0.024508	0.000000	0.008329	-0.000144	0.000000	0.000000
31.015927	24.630578	11.197161	0.177690	-0.138938	3.078427	0.000000	-0.017026	0.000000	0.008292	-0.000123	0.000000	0.000000
31.349260	24.516771	11.299902	0.163730	-0.169282	3.072793	0.000000	-0.017026	0.000000	0.008251	-0.000123	0.000000	0.000000
31.682593	24.412271	11.422871	0.149769	-0.199626	3.067158	0.000000	-0.017026	0.000000	0.008210	-0.000123	0.000000	0.000000
32.017177	24.316739	11.566645	0.135756	-0.230084	3.061502	0.000000	-0.017026	0.000000	0.008169	-0.000123	0.000000	0.000000
32.314499	24.239762	11.711488	0.064378	-0.228698	3.056480	0.000000	-0.009596	0.000000	0.008132	-0.000102	0.000000	0.000000
32.863559	23.754033	12.201476	0.814778	-0.668879	3.026381	0.000000	-0.100314	0.000000	0.008004	-0.000364	0.000000	0.000000
33.412619	22.470990	13.198064	1.507597	-1.156713	2.947017	0.000000	-0.189258	0.000000	0.007734	-0.000619	0.000000	0.000000
33.961679	20.481318	14.772246	2.093878	-1.726952	2.819794	0.000000	-0.274855	0.000000	0.007327	-0.000863	0.000000	0.000000
34.510739	17.925640	17.036156	2.532193	-2.420219	2.646962	0.000000	-0.355589	0.000000	0.006789	-0.001091	0.000000	0.000000
34.956699	15.939717	19.061375	1.935986	-2.101658	2.505190	0.000000	-0.282451	0.000000	0.006341	-0.000921	0.000000	0.000000
35.397659	14.459300	20.739146	1.433350	-1.688341	2.396411	0.000000	-0.212970	0.000000	0.005970	-0.000762	0.000000	0.000000
35.838619	13.391795	22.016962	0.996225	-1.198195	2.317647	0.000000	-0.145908	0.000000	0.005667	-0.000612	0.000000	0.000000
36.279579	12.688406	22.836680	0.604630	-0.653525	2.268002	0.000000	-0.080501	0.000000	0.005429	-0.000469	0.000000	0.000000
36.721789	12.316317	23.161319	0.269244	-0.133002	2.246888	0.000000	-0.021238	0.000000	0.005252	-0.000344	0.000000	0.000000
37.019112	12.163910	23.244292	0.243354	-0.146066	2.240676	0.000000	-0.021238	0.000000	0.005149	-0.000344	0.000000	0.000000
37.352445	12.011350	23.346551	0.214327	-0.160712	2.233711	0.000000	-0.021238	0.000000	0.005035	-0.000344	0.000000	0.000000
37.685779	11.878140	23.458575	0.185301	-0.175359	2.226747	0.000000	-0.021238	0.000000	0.004920	-0.000344	0.000000	0.000000
38.020362	11.763891	23.580837	0.156166	-0.190060	2.219756	0.000000	-0.021238	0.000000	0.004805	-0.000344	0.000000	0.000000
38.317684	11.678718	23.697755	0.157627	-0.258741	2.213543	0.000000	-0.026422	0.000000	0.004702	-0.000356	0.000000	0.000000
38.758644	11.689143	23.663355	-0.181455	0.336452	2.215992	0.000000	0.036971	0.000000	0.004572	-0.000236	0.000000	0.000000
39.199604	12.001159	23.108780	-0.528827	0.916334	2.246414	0.000000	0.100788	0.000000	0.004494	-0.000119	0.000000	0.000000
39.640564	12.629024	22.059269	-0.900364	1.454518	2.305155	0.000000	0.165754	0.000000	0.004467	-0.000004	0.000000	0.000000
40.081524	13.601430	20.562578	-1.313043	1.926514	2.392885	0.000000	0.232608	0.000000	0.004491	0.000112	0.000000	0.000000
40.527484	14.980347	18.664129	-1.789616	2.312256	2.512085	0.000000	0.302532	0.000000	0.004567	0.000229	0.000000	0.000000
41.076544	16.742015	16.530296	-1.399623	1.596768	2.657495	0.000000	0.226621	0.000000	0.004652	0.000080	0.000000	0.000000
41.625604	18.018188	15.115501	-0.910746	0.995029	2.760136	0.000000	0.146691	0.000000	0.004654	-0.000071	0.000000	0.000000
42.174664	18.718698	14.318961	-0.357528	0.464174	2.818187	0.000000	0.064158	0.000000	0.004574	-0.000220	0.000000	0.000000
42.723724	18.794054	14.083930	0.220945	-0.033615	2.830616	0.000000	-0.019517	0.000000	0.004413	-0.000366	0.000000	0.000000
43.022297	18.695219	14.089144	0.157312	-0.019318	2.827019	0.000000	-0.012398	0.000000	0.004307	-0.000355	0.000000	0.000000
43.502297	18.556828	14.124049	0.131002	-0.053399	2.821238	0.000000	-0.012398	0.000000	0.004137	-0.000355	0.000000	0.000000
43.982297	18.443695	14.191671	0.104691	-0.087481	2.815457	0.000000	-0.012398	0.000000	0.003967	-0.000355	0.000000	0.000000
44.462297	18.355821	14.292012	0.078381	-0.121562	2.809676	0.000000	-0.012398	0.000000	0.003796	-0.000355	0.000000	0.000000
44.942297	18.293204	14.425071	0.052071	-0.155644	2.803895	0.000000	-0.012398	0.000000	0.003626	-0.000355	0.000000	0.000000
45.423547	18.256007	14.591142	-0.064759	-0.117521	2.798117	0.000000	0.001465	0.000000	0.003455	-0.000338	0.000000	0.000000
45.720870	18.299384	14.667162	-0.127571	-0.101013	2.798653	0.000000	0.008570	0.000000	0.003355	-0.000329	0.000000	0.000000
46.269930	18.131170	15.061494	0.431910	-0.621388	2.780871	0.000000	-0.073979	0.000000	0.003145	-0.000434	0.000000	0.000000
46.818990	17.361727	16.048091	0.960870	-1.186025	2.718108	0.000000	-0.155223	0.000000	0.002880	-0.000532	0.000000	0.000000
47.368050	16.045424	17.697224	1.421942	-1.835145	2.611474	0.000000	-0.233723	0.000000	0.002563	-0.000620	0.000000	0.000000
47.917110	14.275266	20.126357	1.782554	-2.614984	2.462856	0.000000	-0.308087	0.000000	0.002201	-0.000697	0.000000	0.000000
48.363070	12.896869	22.285616	1.318907	-2.206368	2.341107	0.000000	-0.239486	0.000000	0.001902	-0.000644	0.000000	0.000000
48.804030	11.913511	24.014218	0.919316	-1.698705	2.250288	0.000000	-0.174012	0.000000	0.001628	-0.000598	0.000000	0.000000
49.244990	11.262797	25.259164	0.561734	-1.113752	2.187861	0.000000	-0.110513	0.000000	0.001373	-0.000560	0.000000	0.000000
49.685950	10.914989	25.963811	0.229822	-0.478123	2.153117	0.000000	-0.048268	0.000000	0.001134	-0.000527	0.000000	0.000000
50.128160	10.854356	26.095814	-0.065313	0.115951	2.145675	0.000000	0.008218	0.000000	0.000907	-0.000503	0.000000	0.000000
50.425482	10.901373	26.030297	-0.092822	0.104404	2.148267	0.000000	0.008218	0.000000	0.000757	-0.000503	0.000000	0.000000
50.758816	10.973535	25.965010	-0.123663	0.091459	2.151174	0.000000	0.008218	0.000000	0.000589	-0.000503	0.000000	0.000000
51.092149	11.066257	25.908352	-0.154503	0.078514	2.154081	0.000000	0.008218	0.000000	0.000422	-0.000503	0.000000	0.000000
51.426732	11.179776	25.860685	-0.094762	-0.144275	2.156977	0.000000	-0.009281	0.000000	0.000253	-0.000505	0.000000	0.000000
51.724055	11.244104	25.949967	-0.094048	-0.219773	2.154368	0.000000	-0.014559	0.000000	0.000103	-0.000506	0.000000	0.000000
52.165015	11.473545	25.854966	-0.428411	0.434394	2.161810	0.000000	0.047365	0.000000	-0.000120	-0.000506	0.000000	0.000000
52.605975	12.005346	25.189590	-0.782343	1.068796	2.196654	0.000000	0.109835	0.000000	-0.000344	-0.000512	0.000000	0.000000
53.046935	12.863796	23.984117	-1.172014	1.654566	2.259297	0.000000	0.173560	0.000000	-0.000572	-0.000524	0.000000	0.000000
53.487895	14.088110	22.293399	-1.615225	2.165055	2.350457	0.000000	0.239268	0.000000	-0.000807	-0.000541	0.000000	0.000000
53.933855	15.755158	20.169103	-2.136494	2.578356	2.472684	0.000000	0.308105	0.000000	-0.001053	-0.000566	0.000000	0.000000
54.482915	17.901038	17.778423	-1.748979	1.801553	2.621856	0.000000	0.233424	0.000000	-0.001354	-0.000527	0.000000	0.000000
55.031975	19.550618	16.165712	-1.237941	1.153067	2.728800	0.000000	0.154595	0.000000	-0.001630	-0.000478	0.000000	0.000000
55.581035	20.587403	15.216098	-0.639477	0.586711	2.791615	0.000000	0.073017	0.000000	-0.001877	-0.000421	0.000000	0.000000
56.130095	20.938178	14.861938	0.004144	0.062145	2.809183	0.000000	-0.009864	0.000000	-0.002091	-0.000357	0.000000	0.000000
56.428668	20.973208	14.807254	-0.065815	0.081431	2.808576	0.000000	-0.002396	0.000000	-0.002200	-0.000363	0.000000	0.000000
56.762001	21.022405	14.760520	-0.081777	0.058770	2.807898	0.000000	-0.002396	0.000000	-0.002320	-0.000363	0.000000	0.000000
57.095334	21.082244	14.728893	-0.097739	0.036109	2.807220	0.000000	-0.002396	0.000000	-0.002441	-0.000363	0.000000	0.000000
57.429918	21.153009	14.712341	-0.113761	0.013364	2.806539	0.000000	-0.002396	0.000000	-0.002563	-0.000363	0.000000	0.000000
57.727240	21.224894	14.710401	-0.184687	0.032363	2.805935	0.000000	0.005098	0.000000	-0.002671	-0.000370	0.000000	0.000000
58.276300	21.065032	14.957004	0.473936	-0.484169	2.786163	0.000000	-0.077640	0.000000	-0.002849	-0.000280	0.000000	0.000000
58.825360	20.196169	15.786289	1.099080	-1.035183	2.721227	0.000000	-0.159006	0.000000	-0.002977	-0.000186	0.000000	0.000000
59.374420	18.679675	17.257318	1.646597	-1.659923	2.612276	0.000000	-0.237554	0.000000	-0.003053	-0.000088	0.000000	0.000000
59.923480	16.622649	19.474857	2.077820	-2.402886	2.461242	0.000000	-0.311891	0.000000	-0.003074	0.000011	0.000000	0.000000
60.369440	15.011631	21.445648	1.547527	-1.997785	2.337508	0.000000	-0.243382	0.000000	-0.003087	-0.000069	0.000000	0.000000
60.810400	13.852080	22.995230	1.092126	-1.503110	2.244733	0.000000	-0.178034	0.000000	-0.003135	-0.000149	0.000000	0.000000
61.251360	13.070693	24.076633	0.686615	-0.940051	2.180334	0.000000	-0.114711	0.000000	-0.003218	-0.000231	0.000000	0.000000
61.692320	12.631777	24.640657	0.312472	-0.334225	2.143578	0.000000	-0.052693	0.000000	-0.003339	-0.000315	0.000000	0.000000
62.134530	12.515324	24.661076	-0.015798	0.224436	2.134053	0.000000	0.003324	0.000000	-0.003498	-0.000395	0.000000	0.000000
62.431853	12.531783	24.531381	-0.039561	0.211773	2.135159	0.000000	0.003324	0.000000	-0.003615	-0.000395	0.000000	0.000000
62.765186	12.567038	24.394932	-0.066201	0.197575	2.136399	0.000000	0.003324	0.000000	-0.003747	-0.000395	0.000000	0.000000
63.098520	12.620052	24.267948	-0.092842	0.183378	2.137638	0.000000	0.003324	0.000000	-0.003878	-0.000395	0.000000	0.000000
63.433103	12.691126	24.150006	-0.119583	0.169127	2.138883	0.000000	0.003324	0.000000	-0.004010	-0.000395	0.000000	0.000000
63.730426	12.769294	24.053212	-0.110823	0.095067	2.139988	0.000000	-0.002126	0.000000	-0.004128	-0.000385	0.000000	0.000000
64.171386	13.028989	23.704570	-0.480539	0.692616	2.152810	0.000000	0.059490	0.000000	-0.004321	-0.000493	0.000000	0.000000
64.612346	13.623111	22.840906	-0.872202	1.258654	2.192973	0.000000	0.121790	0.000000	-0.004564	-0.000608	0.000000	0.000000
65.053306	14.578790	21.501518	-1.303700	1.767429	2.260936	0.000000	0.185482	0.000000	-0.004858	-0.000729	0.000000	0.000000
65.494266	15.939668	19.747345	-1.794742	2.195796	2.357477	0.000000	0.251295	0.000000	-0.005208	-0.000859	0.000000	0.000000
65.940226	17.791152	17.633384	-2.372336	2.524894	2.485271	0.000000	0.320362	0.000000	-0.005622	-0.001000	0.000000	0.000000
66.489286	20.162559	15.268928	-1.921980	1.807253	2.641224	0.000000	0.245176	0.000000	-0.006119	-0.000809	0.000000	0.000000
67.038346	21.961592	13.617602	-1.335917	1.218321	2.754533	0.000000	0.165629	0.000000	-0.006508	-0.000605	0.000000	0.000000
67.587406	23.061245	12.561790	-0.655531	0.716154	2.823183	0.000000	0.083134	0.000000	-0.006781	-0.000389	0.000000	0.000000
68.136466	23.383890	12.026297	0.071136	0.264989	2.845953	0.000000	-0.000841	0.000000	-0.006935	-0.000167	0.000000	0.000000
68.435038	23.383756	11.856298	-0.006216	0.271197	2.848102	0.000000	0.007019	0.000000	-0.006990	-0.000186	0.000000	0.000000
68.768372	23.392652	11.685561	-0.020472	0.241015	2.850504	0.000000	0.007019	0.000000	-0.007052	-0.000186	0.000000	0.000000
69.101705	23.411052	11.534945	-0.034727	0.210833	2.852905	0.000000	0.007019	0.000000	-0.007114	-0.000186	0.000000	0.000000
69.436288	23.439078	11.403999	-0.049036	0.180537	2.855316	0.000000	0.007019	0.000000	-0.007176	-0.000186	0.000000	0.000000
69.733611	23.472054	11.304631	-0.126724	0.184876	2.857460	0.000000	0.014929	0.000000	-0.007231	-0.000205	0.000000	0.000000
70.282671	23.208133	11.328229	0.604547	-0.228114	2.842493	0.000000	-0.069545	0.000000	-0.007280	0.000030	0.000000	0.000000
