#ParticleID	Turn	x[m]	xp	y[m]	yp	z[m]	dE[GeV]# s	beta_x	beta_y	alpha_x	alpha_y	D_x	D_y	D_px	D_py	orbit_x	orbit_px	orbit_y	orbit_py
0.300000	11.873108	25.068015	-0.016414	-0.025610	2.612599	0.000000	0.000270	0.000000	-0.000221	0.000194	0.000000	0.000000
0.601250	11.890643	25.087067	-0.041793	-0.037635	2.612622	0.000000	0.000270	0.000000	-0.000162	0.000194	0.000000	0.000000
0.898573	11.922943	25.112975	-0.037574	-0.111079	2.612645	0.000000	-0.006143	0.000000	-0.000105	0.000194	0.000000	0.000000
1.339533	12.108936	24.932348	-0.385751	0.519145	2.626116	0.000000	0.067673	0.000000	-0.000020	0.000192	0.000000	0.000000
1.780493	12.608576	24.204245	-0.751553	1.125748	2.672276	0.000000	0.142258	0.000000	0.000065	0.000193	0.000000	0.000000
2.221453	13.444693	22.961793	-1.151693	1.681132	2.751650	0.000000	0.218461	0.000000	0.000151	0.000196	0.000000	0.000000
2.662413	14.655488	21.261521	-1.604453	2.160026	2.865140	0.000000	0.297150	0.000000	0.000238	0.000201	0.000000	0.000000
3.108373	16.317197	19.155862	-2.134842	2.541780	3.015898	0.000000	0.379711	0.000000	0.000329	0.000208	0.000000	0.000000
3.657433	18.447818	16.790852	-1.722553	1.791001	3.199060	0.000000	0.286874	0.000000	0.000440	0.000196	0.000000	0.000000
4.206493	20.055794	15.175819	-1.188585	1.167792	3.329784	0.000000	0.188952	0.000000	0.000543	0.000180	0.000000	0.000000
4.755553	21.027539	14.195729	-0.570656	0.627763	3.405751	0.000000	0.087680	0.000000	0.000637	0.000160	0.000000	0.000000
5.304613	21.294406	13.780773	0.087586	0.132448	3.425616	0.000000	-0.015144	0.000000	0.000719	0.000139	0.000000	0.000000
5.603185	21.279318	13.686980	0.018247	0.145931	3.423708	0.000000	-0.006247	0.000000	0.000761	0.000140	0.000000	0.000000
5.936519	21.272376	13.597984	0.002578	0.121058	3.421579	0.000000	-0.006247	0.000000	0.000808	0.000140	0.000000	0.000000
6.269852	21.275881	13.525569	-0.013092	0.096185	3.419450	0.000000	-0.006247	0.000000	0.000854	0.000140	0.000000	0.000000
6.604435	21.289905	13.469558	-0.028821	0.071219	3.417313	0.000000	-0.006247	0.000000	0.000901	0.000140	0.000000	0.000000
6.901758	21.311199	13.433804	-0.098039	0.083883	3.415414	0.000000	0.002606	0.000000	0.000943	0.000143	0.000000	0.000000
7.450818	21.055483	13.602553	0.561087	-0.393035	3.388631	0.000000	-0.099776	0.000000	0.001013	0.000111	0.000000	0.000000
7.999878	20.093524	14.307232	1.180581	-0.897950	3.306056	0.000000	-0.200387	0.000000	0.001065	0.000077	0.000000	0.000000
8.548938	18.493272	15.598036	1.716683	-1.466825	3.169152	0.000000	-0.297442	0.000000	0.001098	0.000042	0.000000	0.000000
9.097998	16.367767	17.566909	2.131522	-2.140183	2.980349	0.000000	-0.389220	0.000000	0.001111	0.000007	0.000000	0.000000
9.543958	14.709285	19.321258	1.600568	-1.777008	2.825041	0.000000	-0.307634	0.000000	0.001121	0.000036	0.000000	0.000000
9.984918	13.502249	20.698456	1.147083	-1.334237	2.706584	0.000000	-0.230041	0.000000	0.001143	0.000065	0.000000	0.000000
10.425878	12.670627	21.656795	0.746006	-0.830758	2.621720	0.000000	-0.155068	0.000000	0.001178	0.000095	0.000000	0.000000
10.866838	12.176422	22.152670	0.379014	-0.289479	2.569484	0.000000	-0.081862	0.000000	0.001226	0.000126	0.000000	0.000000
11.309048	11.996909	22.162988	0.058293	0.211177	2.549260	0.000000	-0.015765	0.000000	0.001289	0.000155	0.000000	0.000000
11.606371	11.969639	22.041579	0.033426	0.197164	2.544526	0.000000	-0.015765	0.000000	0.001335	0.000155	0.000000	0.000000
12.086371	11.956821	21.863162	-0.006721	0.174540	2.536885	0.000000	-0.015765	0.000000	0.001410	0.000155	0.000000	0.000000
12.566371	11.982543	21.706462	-0.046867	0.151916	2.529243	0.000000	-0.015765	0.000000	0.001484	0.000155	0.000000	0.000000
13.046371	12.046806	21.571482	-0.087013	0.129293	2.521601	0.000000	-0.015765	0.000000	0.001558	0.000155	0.000000	0.000000
13.526371	12.149608	21.458220	-0.127159	0.106669	2.513960	0.000000	-0.015765	0.000000	0.001633	0.000155	0.000000	0.000000
14.007621	12.291370	21.366467	-0.167410	0.083987	2.506298	0.000000	-0.015765	0.000000	0.001707	0.000155	0.000000	0.000000
14.304943	12.398312	21.320693	-0.162380	0.018605	2.501565	0.000000	-0.021798	0.000000	0.001754	0.000151	0.000000	0.000000
14.745903	12.700418	21.070967	-0.525249	0.545549	2.507496	0.000000	0.049061	0.000000	0.001830	0.000197	0.000000	0.000000
15.186863	13.331898	20.365718	-0.912120	1.047670	2.544748	0.000000	0.120477	0.000000	0.001927	0.000245	0.000000	0.000000
15.627823	14.321607	19.237035	-1.340667	1.502121	2.613742	0.000000	0.193262	0.000000	0.002047	0.000297	0.000000	0.000000
16.068783	15.714772	17.736272	-1.830475	1.888224	2.715265	0.000000	0.268246	0.000000	0.002190	0.000351	0.000000	0.000000
16.514743	17.598687	15.910217	-2.408727	2.189195	2.852166	0.000000	0.346751	0.000000	0.002359	0.000410	0.000000	0.000000
17.063803	20.017754	13.871425	-1.970667	1.545833	3.018651	0.000000	0.259483	0.000000	0.002563	0.000330	0.000000	0.000000
17.612863	21.875987	12.474893	-1.393388	1.012583	3.135929	0.000000	0.167618	0.000000	0.002721	0.000245	0.000000	0.000000
18.161923	23.042104	11.621144	-0.717669	0.551461	3.201921	0.000000	0.072783	0.000000	0.002831	0.000155	0.000000	0.000000
18.710983	23.433717	11.249368	0.008752	0.129622	3.215458	0.000000	-0.023340	0.000000	0.002891	0.000062	0.000000	0.000000
19.009556	23.467968	11.162973	-0.063756	0.131081	3.210915	0.000000	-0.015144	0.000000	0.002911	0.000070	0.000000	0.000000
19.342889	23.515226	11.085710	-0.078018	0.100707	3.205844	0.000000	-0.015144	0.000000	0.002935	0.000070	0.000000	0.000000
19.676223	23.571992	11.028697	-0.092279	0.070334	3.200773	0.000000	-0.015144	0.000000	0.002958	0.000070	0.000000	0.000000
20.010806	23.638824	10.991696	-0.223714	0.094306	3.195702	0.000000	0.000689	0.000000	0.002981	0.000084	0.000000	0.000000
20.308129	23.775788	10.943729	-0.297465	0.094898	3.195883	0.000000	0.008828	0.000000	0.003006	0.000092	0.000000	0.000000
20.857189	23.692429	11.061135	0.448411	-0.309981	3.174495	0.000000	-0.086535	0.000000	0.003030	-0.000006	0.000000	0.000000
21.406249	22.802556	11.632609	1.162609	-0.736941	3.101141	0.000000	-0.180362	0.000000	0.003000	-0.000103	0.000000	0.000000
21.955309	21.169039	12.698859	1.794673	-1.216396	2.977123	0.000000	-0.270992	0.000000	0.002917	-0.000199	0.000000	0.000000
22.504369	18.907285	14.335836	2.299951	-1.782498	2.804639	0.000000	-0.356817	0.000000	0.002782	-0.000292	0.000000	0.000000
22.950329	17.125582	15.805713	1.709104	-1.499475	2.662911	0.000000	-0.279605	0.000000	0.002668	-0.000221	0.000000	0.000000
23.391289	15.847056	16.978144	1.201114	-1.149121	2.556013	0.000000	-0.206040	0.000000	0.002585	-0.000153	0.000000	0.000000
23.832249	14.990766	17.817251	0.748006	-0.746479	2.480980	0.000000	-0.134819	0.000000	0.002533	-0.000087	0.000000	0.000000
24.273209	14.517583	18.284856	0.329077	-0.309872	2.436958	0.000000	-0.065134	0.000000	0.002508	-0.000022	0.000000	0.000000
24.715418	14.405989	18.359436	-0.040419	0.096810	2.423443	0.000000	-0.001991	0.000000	0.002513	0.000036	0.000000	0.000000
25.012741	14.436170	18.306729	-0.061092	0.080463	2.422840	0.000000	-0.001991	0.000000	0.002524	0.000036	0.000000	0.000000
25.346075	14.484624	18.259195	-0.084268	0.062137	2.422165	0.000000	-0.001991	0.000000	0.002536	0.000036	0.000000	0.000000
25.679408	14.548528	18.223879	-0.107444	0.043811	2.421489	0.000000	-0.001991	0.000000	0.002548	0.000036	0.000000	0.000000
26.013991	14.627913	18.201086	-0.012036	-0.122240	2.420786	0.000000	-0.021630	0.000000	0.002560	0.000016	0.000000	0.000000
26.311314	14.641111	18.278709	0.002663	-0.182547	2.414350	0.000000	-0.027406	0.000000	0.002565	0.000010	0.000000	0.000000
26.752274	14.819331	18.241503	-0.408327	0.266598	2.417364	0.000000	0.041168	0.000000	0.002584	0.000076	0.000000	0.000000
27.193234	15.366865	17.812028	-0.837975	0.703613	2.450663	0.000000	0.110211	0.000000	0.002632	0.000143	0.000000	0.000000
27.634194	16.308732	17.009826	-1.305914	1.108612	2.514626	0.000000	0.180507	0.000000	0.002710	0.000212	0.000000	0.000000
28.075154	17.687973	15.871397	-1.833525	1.463167	2.609982	0.000000	0.252857	0.000000	0.002819	0.000283	0.000000	0.000000
28.521114	19.591619	14.431375	-2.449918	1.752109	2.739422	0.000000	0.328537	0.000000	0.002962	0.000358	0.000000	0.000000
29.070174	22.011473	12.827021	-1.930882	1.187013	2.896970	0.000000	0.245066	0.000000	0.003132	0.000260	0.000000	0.000000
29.619234	23.782573	11.793438	-1.275433	0.706472	3.007477	0.000000	0.157252	0.000000	0.003247	0.000156	0.000000	0.000000
30.168294	24.779787	11.257004	-0.529878	0.276255	3.068984	0.000000	0.066651	0.000000	0.003303	0.000050	0.000000	0.000000
30.717354	24.932660	11.179507	0.253111	-0.134283	3.080402	0.000000	-0.025131	0.000000	0.003301	-0.000057	0.000000	0.000000
31.015927	24.823027	11.250799	0.177378	-0.132886	3.075248	0.000000	-0.017307	0.000000	0.003287	-0.000048	0.000000	0.000000
31.349260	24.709392	11.349440	0.163527	-0.163037	3.069495	0.000000	-0.017307	0.000000	0.003271	-0.000048	0.000000	0.000000
31.682593	24.604990	11.468182	0.149676	-0.193187	3.063742	0.000000	-0.017307	0.000000	0.003255	-0.000048	0.000000	0.000000
32.017177	24.509484	11.607582	0.135774	-0.223451	3.057968	0.000000	-0.017307	0.000000	0.003238	-0.000048	0.000000	0.000000
32.314499	24.432427	11.748448	0.061321	-0.220491	3.052837	0.000000	-0.009548	0.000000	0.003224	-0.000040	0.000000	0.000000
32.863559	23.946655	12.229743	0.818071	-0.661223	3.022728	0.000000	-0.100134	0.000000	0.003173	-0.000144	0.000000	0.000000
33.412619	22.656781	13.217905	1.517026	-1.149055	2.943349	0.000000	-0.188947	0.000000	0.003067	-0.000245	0.000000	0.000000
33.961679	20.653939	14.783322	2.108806	-1.718738	2.816105	0.000000	-0.274411	0.000000	0.002905	-0.000342	0.000000	0.000000
34.510739	18.079633	17.037499	2.551605	-2.410852	2.643252	0.000000	-0.355014	0.000000	0.002692	-0.000432	0.000000	0.000000
34.956699	16.078634	19.053811	1.951080	-2.091413	2.501459	0.000000	-0.281990	0.000000	0.002515	-0.000365	0.000000	0.000000
35.397659	14.586755	20.722207	1.444744	-1.677610	2.392650	0.000000	-0.212613	0.000000	0.002368	-0.000302	0.000000	0.000000
35.838619	13.510769	21.990462	1.004423	-1.187473	2.313848	0.000000	-0.145653	0.000000	0.002248	-0.000242	0.000000	0.000000
36.279579	12.801507	22.800871	0.609998	-0.643304	2.264156	0.000000	-0.080350	0.000000	0.002154	-0.000186	0.000000	0.000000
36.721789	12.425877	23.116871	0.273208	-0.125442	2.242982	0.000000	-0.021352	0.000000	0.002084	-0.000136	0.000000	0.000000
37.019112	12.271061	23.195349	0.247494	-0.138506	2.236674	0.000000	-0.021352	0.000000	0.002044	-0.000136	0.000000	0.000000
37.352445	12.115674	23.292568	0.218666	-0.153152	2.229601	0.000000	-0.021352	0.000000	0.001998	-0.000136	0.000000	0.000000
37.685779	11.979506	23.399552	0.189838	-0.167799	2.222529	0.000000	-0.021352	0.000000	0.001953	-0.000136	0.000000	0.000000
38.020362	11.862155	23.516756	0.160902	-0.182500	2.215431	0.000000	-0.021352	0.000000	0.001907	-0.000136	0.000000	0.000000
38.317684	11.774119	23.629165	0.163549	-0.252529	2.209123	0.000000	-0.026674	0.000000	0.001867	-0.000141	0.000000	0.000000
38.758644	11.780278	23.590119	-0.177608	0.340738	2.211359	0.000000	0.036598	0.000000	0.001815	-0.000093	0.000000	0.000000
39.199604	12.089753	23.032710	-0.526880	0.918501	2.241541	0.000000	0.100288	0.000000	0.001785	-0.000047	0.000000	0.000000
39.640564	12.716684	21.982300	-0.900226	1.454470	2.300014	0.000000	0.165120	0.000000	0.001774	-0.000001	0.000000	0.000000
40.081524	13.689715	20.486686	-1.314703	1.924259	2.387444	0.000000	0.231834	0.000000	0.001784	0.000045	0.000000	0.000000
40.527484	15.070848	18.591308	-1.793100	2.307822	2.506303	0.000000	0.301599	0.000000	0.001814	0.000092	0.000000	0.000000
41.076544	16.834368	16.461244	-1.399664	1.594450	2.651298	0.000000	0.225888	0.000000	0.001849	0.000032	0.000000	0.000000
41.625604	18.108638	15.047976	-0.907355	0.994653	2.753592	0.000000	0.146172	0.000000	0.001850	-0.000028	0.000000	0.000000
42.174664	18.803639	14.250835	-0.350951	0.465707	2.811369	0.000000	0.063862	0.000000	0.001818	-0.000087	0.000000	0.000000
42.723724	18.870277	14.013040	0.230244	-0.030066	2.823605	0.000000	-0.019582	0.000000	0.001755	-0.000145	0.000000	0.000000
43.022297	18.766673	14.015799	0.165323	-0.015272	2.819970	0.000000	-0.012314	0.000000	0.001713	-0.000140	0.000000	0.000000
43.502297	18.620576	14.046903	0.139047	-0.049527	2.814127	0.000000	-0.012314	0.000000	0.001645	-0.000140	0.000000	0.000000
43.982297	18.499704	14.110891	0.112770	-0.083782	2.808284	0.000000	-0.012314	0.000000	0.001578	-0.000140	0.000000	0.000000
44.462297	18.404057	14.207764	0.086494	-0.118037	2.802441	0.000000	-0.012314	0.000000	0.001511	-0.000140	0.000000	0.000000
44.942297	18.333635	14.337522	0.060218	-0.152292	2.796598	0.000000	-0.012314	0.000000	0.001443	-0.000140	0.000000	0.000000
45.423547	18.288581	14.500452	-0.056739	-0.114792	2.790757	0.000000	0.001514	0.000000	0.001376	-0.000133	0.000000	0.000000
45.720870	18.327170	14.574889	-0.120396	-0.097940	2.791246	0.000000	0.008725	0.000000	0.001336	-0.000130	0.000000	0.000000
46.269930	18.150714	14.964264	0.439787	-0.615400	2.773495	0.000000	-0.073580	0.000000	0.001253	-0.000172	0.000000	0.000000
46.818990	17.372587	15.942473	0.968902	-1.176694	2.710865	0.000000	-0.154583	0.000000	0.001148	-0.000211	0.000000	0.000000
47.368050	16.047758	17.579192	1.429570	-1.821803	2.604466	0.000000	-0.232847	0.000000	0.001022	-0.000246	0.000000	0.000000
47.917110	14.269820	19.990998	1.789253	-2.596677	2.456184	0.000000	-0.306985	0.000000	0.000879	-0.000277	0.000000	0.000000
48.363070	12.885771	22.135182	1.325134	-2.191085	2.334715	0.000000	-0.238559	0.000000	0.000760	-0.000256	0.000000	0.000000
48.804030	11.897107	23.851856	0.925335	-1.687099	2.244110	0.000000	-0.173249	0.000000	0.000651	-0.000237	0.000000	0.000000
49.244990	11.241137	25.088372	0.567815	-1.106351	2.181836	0.000000	-0.109909	0.000000	0.000550	-0.000222	0.000000	0.000000
49.685950	10.887888	25.788470	0.236240	-0.475264	2.147185	0.000000	-0.047818	0.000000	0.000455	-0.000209	0.000000	0.000000
50.128160	10.821366	25.920013	-0.058212	0.114126	2.139775	0.000000	0.008501	0.000000	0.000365	-0.000199	0.000000	0.000000
50.425482	10.864178	25.855604	-0.085781	0.102506	2.142362	0.000000	0.008501	0.000000	0.000306	-0.000199	0.000000	0.000000
50.758816	10.931668	25.791610	-0.116689	0.089478	2.145262	0.000000	0.008501	0.000000	0.000240	-0.000199	0.000000	0.000000
51.092149	11.019763	25.736300	-0.147596	0.076450	2.148162	0.000000	0.008501	0.000000	0.000173	-0.000199	0.000000	0.000000
51.426732	11.128684	25.690038	-0.088337	-0.145036	2.151051	0.000000	-0.008949	0.000000	0.000107	-0.000200	0.000000	0.000000
51.724055	11.189218	25.779797	-0.087835	-0.220118	2.148450	0.000000	-0.014216	0.000000	0.000047	-0.000200	0.000000	0.000000
52.165015	11.412621	25.687086	-0.420780	0.429565	2.155879	0.000000	0.047556	0.000000	-0.000041	-0.000200	0.000000	0.000000
52.605975	11.936987	25.027871	-0.772948	1.059703	2.190641	0.000000	0.109871	0.000000	-0.000130	-0.000202	0.000000	0.000000
53.046935	12.786273	23.832146	-1.160428	1.641625	2.253133	0.000000	0.173440	0.000000	-0.000220	-0.000207	0.000000	0.000000
53.487895	13.999276	22.154318	-1.600922	2.148854	2.344068	0.000000	0.238987	0.000000	-0.000313	-0.000214	0.000000	0.000000
53.933855	15.652181	20.045647	-2.118809	2.559640	2.465989	0.000000	0.307656	0.000000	-0.000410	-0.000223	0.000000	0.000000
54.482915	17.780047	17.672797	-1.733850	1.787558	2.614801	0.000000	0.233196	0.000000	-0.000528	-0.000208	0.000000	0.000000
55.031975	19.415024	16.073310	-1.226427	1.142798	2.721523	0.000000	0.154597	0.000000	-0.000638	-0.000189	0.000000	0.000000
55.581035	20.441633	15.133257	-0.632382	0.579437	2.784260	0.000000	0.073252	0.000000	-0.000735	-0.000167	0.000000	0.000000
56.130095	20.787367	14.785679	0.006327	0.057348	2.801898	0.000000	-0.009395	0.000000	-0.000820	-0.000142	0.000000	0.000000
56.428668	20.820542	14.734274	-0.062756	0.075895	2.801337	0.000000	-0.002024	0.000000	-0.000863	-0.000144	0.000000	0.000000
56.762001	20.867737	14.691262	-0.078828	0.053141	2.800710	0.000000	-0.002024	0.000000	-0.000911	-0.000144	0.000000	0.000000
57.095334	20.925647	14.663419	-0.094901	0.030388	2.800083	0.000000	-0.002024	0.000000	-0.000959	-0.000144	0.000000	0.000000
57.429918	20.994550	14.650725	-0.111034	0.007550	2.799454	0.000000	-0.002024	0.000000	-0.001007	-0.000144	0.000000	0.000000
57.727240	21.064839	14.652270	-0.180892	0.025843	2.798895	0.000000	0.005353	0.000000	-0.001050	-0.000146	0.000000	0.000000
58.276300	20.903820	14.905169	0.472347	-0.489173	2.779221	0.000000	-0.077162	0.000000	-0.001121	-0.000111	0.000000	0.000000
58.825360	20.039646	15.739306	1.092222	-1.039030	2.714531	0.000000	-0.158311	0.000000	-0.001172	-0.000074	0.000000	0.000000
59.374420	18.533357	17.214093	1.634950	-1.662891	2.605973	0.000000	-0.236653	0.000000	-0.001202	-0.000036	0.000000	0.000000
59.923480	16.491344	19.434570	2.062198	-2.405193	2.455470	0.000000	-0.310799	0.000000	-0.001211	0.000003	0.000000	0.000000
60.369440	14.892577	21.408126	1.535536	-2.001590	2.332184	0.000000	-0.242425	0.000000	-0.001216	-0.000028	0.000000	0.000000
60.810400	13.742181	22.961718	1.083234	-1.508267	2.239772	0.000000	-0.177206	0.000000	-0.001235	-0.000060	0.000000	0.000000
61.251360	12.967420	24.048209	0.680421	-0.946323	2.175661	0.000000	-0.114004	0.000000	-0.001269	-0.000092	0.000000	0.000000
61.692320	12.532899	24.618167	0.308692	-0.341323	2.139120	0.000000	-0.052100	0.000000	-0.001317	-0.000125	0.000000	0.000000
62.134530	12.418814	24.645116	-0.018183	0.217986	2.129740	0.000000	0.003922	0.000000	-0.001380	-0.000157	0.000000	0.000000
62.431853	12.436747	24.519249	-0.042132	0.205348	2.130952	0.000000	0.003922	0.000000	-0.001426	-0.000157	0.000000	0.000000
62.765186	12.473785	24.387073	-0.068982	0.191180	2.132312	0.000000	0.003922	0.000000	-0.001479	-0.000157	0.000000	0.000000
63.098520	12.528723	24.264342	-0.095832	0.177012	2.133671	0.000000	0.003922	0.000000	-0.001531	-0.000157	0.000000	0.000000
63.433103	12.601868	24.150650	-0.122782	0.162791	2.135036	0.000000	0.003922	0.000000	-0.001583	-0.000157	0.000000	0.000000
63.730426	12.681999	24.057607	-0.115154	0.090199	2.136249	0.000000	-0.001397	0.000000	-0.001630	-0.000153	0.000000	0.000000
64.171386	12.944732	23.713144	-0.483003	0.688013	2.149260	0.000000	0.060129	0.000000	-0.001707	-0.000196	0.000000	0.000000
64.612346	13.540328	22.853313	-0.872916	1.254523	2.189545	0.000000	0.122343	0.000000	-0.001803	-0.000241	0.000000	0.000000
65.053306	14.495992	21.517236	-1.302705	1.763956	2.257564	0.000000	0.185952	0.000000	-0.001920	-0.000289	0.000000	0.000000
65.494266	15.855380	19.765702	-1.792003	2.193133	2.354093	0.000000	0.251682	0.000000	-0.002058	-0.000340	0.000000	0.000000
65.940226	17.703788	17.653625	-2.367815	2.523233	2.481805	0.000000	0.320677	0.000000	-0.002222	-0.000396	0.000000	0.000000
66.489286	20.072270	15.290986	-1.920690	1.805371	2.637677	0.000000	0.245595	0.000000	-0.002419	-0.000320	0.000000	0.000000
67.038346	21.871937	13.641814	-1.337917	1.216094	2.751025	0.000000	0.166152	0.000000	-0.002573	-0.000240	0.000000	0.000000
67.587406	22.975697	12.588645	-0.660656	0.713431	2.819836	0.000000	0.083758	0.000000	-0.002681	-0.000154	0.000000	0.000000
68.136466	23.305602	12.056467	0.063261	0.261581	2.842887	0.000000	-0.000124	0.000000	-0.002742	-0.000067	0.000000	0.000000
68.435038	23.308838	11.889053	-0.011832	0.266910	2.845140	0.000000	0.007473	0.000000	-0.002764	-0.000074	0.000000	0.000000
68.768372	23.321494	11.721125	-0.026135	0.236876	2.847656	0.000000	0.007473	0.000000	-0.002789	-0.000074	0.000000	0.000000
69.101705	23.343685	11.573219	-0.040438	0.206841	2.850171	0.000000	0.007473	0.000000	-0.002813	-0.000074	0.000000	0.000000
69.436288	23.375548	11.444895	-0.054794	0.176694	2.852696	0.000000	0.007473	0.000000	-0.002838	-0.000074	0.000000	0.000000
69.733611	23.411930	11.347787	-0.130178	0.180246	2.854941	0.000000	0.015110	0.000000	-0.002860	-0.000081	0.000000	0.000000
70.282671	23.152815	11.377162	0.599304	-0.234066	2.840062	0.000000	-0.069295	0.000000	-0.002879	0.000012	0.000000	0.000000
