#ParticleID	Turn	x[m]	xp	y[m]	yp	z[m]	dE[GeV]# s	beta_x	beta_y	alpha_x	alpha_y	D_x	D_y	D_px	D_py	orbit_x	orbit_px	orbit_y	orbit_py
0.300000	11.960505	25.272141	-0.016949	-0.023262	2.599192	0.000000	-0.000594	0.000000	-0.001129	0.000965	0.000000	0.000000
0.601250	11.978307	25.289749	-0.042144	-0.035189	2.598722	0.000000	-0.000594	0.000000	-0.000839	0.000965	0.000000	0.000000
0.898573	12.010760	25.314174	-0.037402	-0.109012	2.598259	0.000000	-0.006999	0.000000	-0.000552	0.000966	0.000000	0.000000
1.339533	12.197598	25.129385	-0.387583	0.526481	2.610944	0.000000	0.066436	0.000000	-0.000128	0.000957	0.000000	0.000000
1.780493	12.699889	24.392601	-0.755480	1.138022	2.656145	0.000000	0.140617	0.000000	0.000294	0.000960	0.000000	0.000000
2.221453	13.540590	23.137335	-1.157900	1.697788	2.734375	0.000000	0.216389	0.000000	0.000720	0.000973	0.000000	0.000000
2.662413	14.758122	21.420694	-1.613231	2.180307	2.846520	0.000000	0.294616	0.000000	0.001153	0.000997	0.000000	0.000000
3.108373	16.429163	19.295617	-2.146650	2.564802	2.995693	0.000000	0.376679	0.000000	0.001605	0.001032	0.000000	0.000000
3.657433	18.571103	16.908465	-1.730747	1.808451	3.176958	0.000000	0.284521	0.000000	0.002156	0.000972	0.000000	0.000000
4.206493	20.186077	15.276698	-1.192562	1.180915	3.306201	0.000000	0.187331	0.000000	0.002669	0.000893	0.000000	0.000000
4.755553	21.159973	14.284099	-0.570112	0.637496	3.381138	0.000000	0.086833	0.000000	0.003134	0.000799	0.000000	0.000000
5.304613	21.423965	13.859974	0.092629	0.139485	3.400445	0.000000	-0.015193	0.000000	0.003544	0.000691	0.000000	0.000000
5.603185	21.405236	13.762420	0.024372	0.152277	3.398272	0.000000	-0.006574	0.000000	0.003753	0.000700	0.000000	0.000000
5.936519	21.394182	13.669162	0.008790	0.127495	3.395847	0.000000	-0.006574	0.000000	0.003987	0.000700	0.000000	0.000000
6.269852	21.393515	13.592427	-0.006791	0.102712	3.393423	0.000000	-0.006574	0.000000	0.004220	0.000700	0.000000	0.000000
6.604435	21.403293	13.532018	-0.022432	0.077837	3.390989	0.000000	-0.006574	0.000000	0.004454	0.000700	0.000000	0.000000
6.901758	21.420778	13.492296	-0.090083	0.089729	3.388827	0.000000	0.001930	0.000000	0.004663	0.000712	0.000000	0.000000
7.450818	21.154513	13.655539	0.572511	-0.388777	3.361641	0.000000	-0.099596	0.000000	0.005011	0.000555	0.000000	0.000000
7.999878	20.178528	14.356314	1.194669	-0.894981	3.279198	0.000000	-0.199346	0.000000	0.005271	0.000389	0.000000	0.000000
8.548938	18.561771	15.644548	1.732431	-1.464944	3.142963	0.000000	-0.295554	0.000000	0.005437	0.000215	0.000000	0.000000
9.097998	16.418470	17.612017	2.147798	-2.139269	2.955357	0.000000	-0.386515	0.000000	0.005507	0.000038	0.000000	0.000000
9.543958	14.746558	19.364883	1.614319	-1.774353	2.801071	0.000000	-0.305538	0.000000	0.005555	0.000182	0.000000	0.000000
9.984918	13.528175	20.739148	1.159068	-1.330066	2.683312	0.000000	-0.228544	0.000000	0.005667	0.000326	0.000000	0.000000
10.425878	12.686551	21.693266	0.756783	-0.825252	2.598838	0.000000	-0.154157	0.000000	0.005844	0.000475	0.000000	0.000000
10.866838	12.183226	22.183817	0.389077	-0.282882	2.546685	0.000000	-0.081530	0.000000	0.006087	0.000628	0.000000	0.000000
11.309048	11.995048	22.187894	0.066650	0.220993	2.526237	0.000000	-0.015654	0.000000	0.006400	0.000774	0.000000	0.000000
11.606371	11.962817	22.060660	0.041753	0.206938	2.521353	0.000000	-0.015654	0.000000	0.006630	0.000774	0.000000	0.000000
12.086371	11.942027	21.872891	0.001559	0.184248	2.513468	0.000000	-0.015654	0.000000	0.007002	0.000774	0.000000	0.000000
12.566371	11.959824	21.706904	-0.038635	0.161558	2.505582	0.000000	-0.015654	0.000000	0.007373	0.000774	0.000000	0.000000
13.046371	12.016208	21.562699	-0.078830	0.138868	2.497697	0.000000	-0.015654	0.000000	0.007745	0.000774	0.000000	0.000000
13.526371	12.111178	21.440276	-0.119024	0.116178	2.489812	0.000000	-0.015654	0.000000	0.008117	0.000774	0.000000	0.000000
14.007621	12.245132	21.339403	-0.159323	0.093429	2.481906	0.000000	-0.015654	0.000000	0.008489	0.000774	0.000000	0.000000
14.304943	12.347248	21.288072	-0.156497	0.031797	2.477019	0.000000	-0.021215	0.000000	0.008719	0.000754	0.000000	0.000000
14.745903	12.643750	21.027140	-0.518061	0.557610	2.482776	0.000000	0.049022	0.000000	0.009102	0.000983	0.000000	0.000000
15.186863	13.268413	20.311882	-0.903311	1.058048	2.519500	0.000000	0.119807	0.000000	0.009588	0.001224	0.000000	0.000000
15.627823	14.249802	19.174838	-1.329859	1.510337	2.587606	0.000000	0.191943	0.000000	0.010184	0.001479	0.000000	0.000000
16.068783	15.632799	17.667746	-1.817204	1.893890	2.687864	0.000000	0.266251	0.000000	0.010896	0.001751	0.000000	0.000000
16.514743	17.504300	15.837502	-2.392597	2.192228	2.823099	0.000000	0.344069	0.000000	0.011742	0.002045	0.000000	0.000000
17.063803	19.907524	13.794566	-1.956686	1.549869	2.987614	0.000000	0.257745	0.000000	0.012757	0.001648	0.000000	0.000000
17.612863	21.752660	12.392698	-1.382455	1.017937	3.103624	0.000000	0.166875	0.000000	0.013546	0.001222	0.000000	0.000000
18.161923	22.909242	11.532031	-0.710490	0.558534	3.169080	0.000000	0.073064	0.000000	0.014095	0.000774	0.000000	0.000000
18.710983	23.295478	11.151254	0.011708	0.138927	3.182827	0.000000	-0.022032	0.000000	0.014393	0.000312	0.000000	0.000000
19.009556	23.323976	11.061382	-0.054380	0.136866	3.178308	0.000000	-0.014757	0.000000	0.014497	0.000347	0.000000	0.000000
19.342889	23.365007	10.980371	-0.068714	0.106167	3.173273	0.000000	-0.014757	0.000000	0.014613	0.000347	0.000000	0.000000
19.676223	23.415594	10.919827	-0.083047	0.075467	3.168239	0.000000	-0.014757	0.000000	0.014728	0.000347	0.000000	0.000000
20.010806	23.476271	10.879502	-0.213749	0.098557	3.163205	0.000000	0.000916	0.000000	0.014845	0.000421	0.000000	0.000000
20.308129	23.607469	10.829029	-0.280625	0.095640	3.163362	0.000000	0.008102	0.000000	0.014970	0.000457	0.000000	0.000000
20.857189	23.508687	10.943925	0.459577	-0.306090	3.141763	0.000000	-0.086237	0.000000	0.015087	-0.000030	0.000000	0.000000
21.406249	22.609822	11.509381	1.167295	-0.729632	3.068955	0.000000	-0.179047	0.000000	0.014937	-0.000516	0.000000	0.000000
21.955309	20.974430	12.565687	1.792497	-1.205164	2.946229	0.000000	-0.268688	0.000000	0.014522	-0.000993	0.000000	0.000000
22.504369	18.718147	14.188098	2.290987	-1.766569	2.775758	0.000000	-0.353577	0.000000	0.013849	-0.001453	0.000000	0.000000
22.950329	16.942067	15.645576	1.703983	-1.487015	2.635730	0.000000	-0.277037	0.000000	0.013280	-0.001101	0.000000	0.000000
23.391289	15.665994	16.809020	1.199874	-1.140884	2.530117	0.000000	-0.204137	0.000000	0.012869	-0.000764	0.000000	0.000000
23.832249	14.808885	17.642986	0.750622	-0.742826	2.455975	0.000000	-0.133554	0.000000	0.012605	-0.000436	0.000000	0.000000
24.273209	14.331543	18.109523	0.335686	-0.310960	2.412460	0.000000	-0.064489	0.000000	0.012484	-0.000112	0.000000	0.000000
24.715418	14.212287	18.187075	-0.033394	0.095783	2.399082	0.000000	-0.001322	0.000000	0.012506	0.000181	0.000000	0.000000
25.012741	14.238371	18.135023	-0.054337	0.079285	2.398635	0.000000	-0.001322	0.000000	0.012560	0.000181	0.000000	0.000000
25.346075	14.282423	18.088332	-0.077817	0.060789	2.398134	0.000000	-0.001322	0.000000	0.012620	0.000181	0.000000	0.000000
25.679408	14.342128	18.053971	-0.101297	0.042293	2.397633	0.000000	-0.001322	0.000000	0.012680	0.000181	0.000000	0.000000
26.013991	14.417506	18.032247	-0.007901	-0.122559	2.397106	0.000000	-0.020769	0.000000	0.012741	0.000078	0.000000	0.000000
26.311314	14.428267	18.110189	0.002445	-0.178156	2.390902	0.000000	-0.025901	0.000000	0.012764	0.000048	0.000000	0.000000
26.752274	14.604553	18.071107	-0.403579	0.266432	2.394379	0.000000	0.042093	0.000000	0.012858	0.000379	0.000000	0.000000
27.193234	15.145804	17.643732	-0.828056	0.698893	2.427778	0.000000	0.110563	0.000000	0.013099	0.000713	0.000000	0.000000
27.634194	16.076773	16.847510	-1.290392	1.099546	2.491480	0.000000	0.180284	0.000000	0.013488	0.001056	0.000000	0.000000
28.075154	17.440040	15.718676	-1.811728	1.450153	2.586205	0.000000	0.252049	0.000000	0.014032	0.001411	0.000000	0.000000
28.521114	19.321971	14.291381	-2.421119	1.735949	2.714644	0.000000	0.327156	0.000000	0.014744	0.001784	0.000000	0.000000
29.070174	21.715354	12.701907	-1.910259	1.175412	2.871025	0.000000	0.244473	0.000000	0.015590	0.001293	0.000000	0.000000
29.619234	23.469561	11.678753	-1.264349	0.698629	2.981013	0.000000	0.157473	0.000000	0.016160	0.000778	0.000000	0.000000
30.168294	24.460540	11.149028	-0.529052	0.271629	3.042662	0.000000	0.067691	0.000000	0.016443	0.000250	0.000000	0.000000
30.717354	24.618209	11.074988	0.243647	-0.136016	3.054881	0.000000	-0.023288	0.000000	0.016434	-0.000283	0.000000	0.000000
31.015927	24.509159	11.149622	0.176012	-0.138484	3.050029	0.000000	-0.016454	0.000000	0.016361	-0.000243	0.000000	0.000000
31.349260	24.396492	11.252101	0.161990	-0.168953	3.044625	0.000000	-0.016454	0.000000	0.016280	-0.000243	0.000000	0.000000
31.682593	24.293173	11.374893	0.147968	-0.199423	3.039221	0.000000	-0.016454	0.000000	0.016199	-0.000243	0.000000	0.000000
32.017177	24.198866	11.518573	0.133894	-0.230007	3.033797	0.000000	-0.016454	0.000000	0.016118	-0.000243	0.000000	0.000000
32.314499	24.123148	11.663338	0.067191	-0.231017	3.028989	0.000000	-0.009649	0.000000	0.016046	-0.000204	0.000000	0.000000
32.863559	23.636258	12.155269	0.813810	-0.670018	2.999216	0.000000	-0.099503	0.000000	0.015792	-0.000720	0.000000	0.000000
33.412619	22.356033	13.152614	1.502889	-1.156762	2.920775	0.000000	-0.187603	0.000000	0.015257	-0.001223	0.000000	0.000000
33.961679	20.373012	14.726430	2.085715	-1.725931	2.795052	0.000000	-0.272393	0.000000	0.014453	-0.001704	0.000000	0.000000
34.510739	17.827426	16.988836	2.521089	-2.418076	2.624267	0.000000	-0.352378	0.000000	0.013391	-0.002156	0.000000	0.000000
34.956699	15.849762	19.012972	1.927383	-2.100788	2.484206	0.000000	-0.279778	0.000000	0.012505	-0.001820	0.000000	0.000000
35.397659	14.375630	20.690764	1.427001	-1.688928	2.376831	0.000000	-0.210811	0.000000	0.011772	-0.001507	0.000000	0.000000
35.838619	13.312629	21.969833	0.991861	-1.200202	2.299191	0.000000	-0.144230	0.000000	0.011174	-0.001211	0.000000	0.000000
36.279579	12.612143	22.791979	0.602069	-0.656854	2.250406	0.000000	-0.079279	0.000000	0.010703	-0.000929	0.000000	0.000000
36.721789	12.241508	23.120056	0.266695	-0.134453	2.229904	0.000000	-0.020140	0.000000	0.010352	-0.000681	0.000000	0.000000
37.019112	12.090654	23.203900	0.240679	-0.147545	2.224119	0.000000	-0.020140	0.000000	0.010150	-0.000681	0.000000	0.000000
37.352445	11.939923	23.307157	0.211512	-0.162224	2.217633	0.000000	-0.020140	0.000000	0.009923	-0.000681	0.000000	0.000000
37.685779	11.808637	23.420198	0.182346	-0.176902	2.211146	0.000000	-0.020140	0.000000	0.009695	-0.000681	0.000000	0.000000
38.020362	11.696412	23.543504	0.153070	-0.191635	2.204636	0.000000	-0.020140	0.000000	0.009467	-0.000681	0.000000	0.000000
38.317684	11.613096	23.661411	0.152980	-0.257779	2.198848	0.000000	-0.025049	0.000000	0.009265	-0.000703	0.000000	0.000000
38.758644	11.626950	23.626572	-0.184707	0.336475	2.201946	0.000000	0.037981	0.000000	0.009007	-0.000468	0.000000	0.000000
39.199604	11.941270	23.072359	-0.530833	0.915415	2.232813	0.000000	0.101449	0.000000	0.008852	-0.000237	0.000000	0.000000
39.640564	12.570421	22.023997	-0.901219	1.452692	2.291801	0.000000	0.166075	0.000000	0.008797	-0.000010	0.000000	0.000000
40.081524	13.543161	20.529198	-1.312795	1.923856	2.379583	0.000000	0.232594	0.000000	0.008843	0.000218	0.000000	0.000000
40.527484	14.921545	18.633251	-1.788344	2.308986	2.498643	0.000000	0.302192	0.000000	0.008992	0.000449	0.000000	0.000000
41.076544	16.683227	16.502315	-1.400647	1.594485	2.643915	0.000000	0.226708	0.000000	0.009158	0.000155	0.000000	0.000000
41.625604	17.961832	15.089466	-0.913974	0.993584	2.746726	0.000000	0.147204	0.000000	0.009161	-0.000142	0.000000	0.000000
42.174664	18.666998	14.294046	-0.362721	0.463474	2.805253	0.000000	0.065087	0.000000	0.009003	-0.000436	0.000000	0.000000
42.723724	18.748894	14.059383	0.214155	-0.033614	2.818453	0.000000	-0.018193	0.000000	0.008684	-0.000723	0.000000	0.000000
43.022297	18.652933	14.065436	0.152440	-0.020703	2.815262	0.000000	-0.011378	0.000000	0.008475	-0.000701	0.000000	0.000000
43.502297	18.519230	14.101698	0.126108	-0.054844	2.810138	0.000000	-0.011378	0.000000	0.008138	-0.000701	0.000000	0.000000
43.982297	18.410805	14.170736	0.099777	-0.088984	2.805013	0.000000	-0.011378	0.000000	0.007802	-0.000701	0.000000	0.000000
44.462297	18.327658	14.272549	0.073446	-0.123125	2.799888	0.000000	-0.011378	0.000000	0.007465	-0.000701	0.000000	0.000000
44.942297	18.269789	14.407136	0.047115	-0.157266	2.794763	0.000000	-0.011378	0.000000	0.007129	-0.000701	0.000000	0.000000
45.423547	18.237371	14.574798	-0.069643	-0.119283	2.789642	0.000000	0.002444	0.000000	0.006792	-0.000667	0.000000	0.000000
45.720870	18.283678	14.651862	-0.131114	-0.103981	2.790569	0.000000	0.009326	0.000000	0.006593	-0.000650	0.000000	0.000000
46.269930	18.119475	15.049285	0.427986	-0.624050	2.773465	0.000000	-0.072981	0.000000	0.006179	-0.000857	0.000000	0.000000
46.818990	17.354266	16.038766	0.956830	-1.188572	2.711557	0.000000	-0.154007	0.000000	0.005654	-0.001049	0.000000	0.000000
47.368050	16.042143	17.690780	1.418055	-1.837763	2.605936	0.000000	-0.232318	0.000000	0.005030	-0.001222	0.000000	0.000000
47.917110	14.275839	20.122994	1.779072	-2.617865	2.458468	0.000000	-0.306527	0.000000	0.004316	-0.001374	0.000000	0.000000
48.363070	12.900271	22.285028	1.315673	-2.209551	2.337669	0.000000	-0.238020	0.000000	0.003727	-0.001269	0.000000	0.000000
48.804030	11.919573	24.016584	0.916223	-1.702097	2.247734	0.000000	-0.172621	0.000000	0.003188	-0.001180	0.000000	0.000000
49.244990	11.271478	25.264582	0.558647	-1.117196	2.186147	0.000000	-0.109175	0.000000	0.002684	-0.001105	0.000000	0.000000
49.685950	10.926360	25.972245	0.226605	-0.481464	2.152211	0.000000	-0.046962	0.000000	0.002212	-0.001041	0.000000	0.000000
50.128160	10.868613	26.107098	-0.068985	0.113541	2.145557	0.000000	0.009555	0.000000	0.001763	-0.000994	0.000000	0.000000
50.425482	10.917807	26.043012	-0.096472	0.102006	2.148694	0.000000	0.009555	0.000000	0.001467	-0.000994	0.000000	0.000000
50.758816	10.992394	25.979319	-0.127287	0.089073	2.152210	0.000000	0.009555	0.000000	0.001136	-0.000994	0.000000	0.000000
51.092149	11.087524	25.924248	-0.158102	0.076140	2.155727	0.000000	0.009555	0.000000	0.000804	-0.000994	0.000000	0.000000
51.426732	11.203443	25.878165	-0.098144	-0.146777	2.159234	0.000000	-0.007962	0.000000	0.000471	-0.000998	0.000000	0.000000
51.724055	11.269770	25.968935	-0.097347	-0.222462	2.157164	0.000000	-0.013243	0.000000	0.000175	-0.000999	0.000000	0.000000
52.165015	11.502335	25.876075	-0.432385	0.432247	2.165414	0.000000	0.048764	0.000000	-0.000266	-0.001000	0.000000	0.000000
52.605975	12.037927	25.212320	-0.787171	1.067285	2.201109	0.000000	0.111337	0.000000	-0.000709	-0.001012	0.000000	0.000000
53.046935	12.901005	24.007880	-1.177911	1.653760	2.264657	0.000000	0.175189	0.000000	-0.001160	-0.001037	0.000000	0.000000
53.487895	14.130987	22.317565	-1.622456	2.164989	2.356789	0.000000	0.241047	0.000000	-0.001625	-0.001072	0.000000	0.000000
53.933855	15.805081	20.193019	-2.145374	2.579015	2.480080	0.000000	0.310057	0.000000	-0.002114	-0.001121	0.000000	0.000000
54.482915	17.959935	17.801980	-1.756670	1.801623	2.630537	0.000000	0.235120	0.000000	-0.002708	-0.001043	0.000000	0.000000
55.031975	19.616883	16.189545	-1.243917	1.152552	2.738591	0.000000	0.155996	0.000000	-0.003255	-0.000946	0.000000	0.000000
55.581035	20.658931	15.240857	-0.643331	0.585572	2.802317	0.000000	0.074090	0.000000	-0.003744	-0.000833	0.000000	0.000000
56.130095	21.012513	14.888335	0.002672	0.060301	2.820578	0.000000	-0.009143	0.000000	-0.004167	-0.000705	0.000000	0.000000
56.428668	21.049080	14.834262	-0.068379	0.080436	2.820338	0.000000	-0.001519	0.000000	-0.004381	-0.000716	0.000000	0.000000
56.762001	21.099969	14.788177	-0.084289	0.057820	2.820070	0.000000	-0.001519	0.000000	-0.004619	-0.000716	0.000000	0.000000
57.095334	21.161465	14.757170	-0.100199	0.035204	2.819802	0.000000	-0.001519	0.000000	-0.004858	-0.000716	0.000000	0.000000
57.429918	21.233858	14.741208	-0.116169	0.012503	2.819534	0.000000	-0.001519	0.000000	-0.005097	-0.000716	0.000000	0.000000
57.727240	21.307174	14.739758	-0.188471	0.032380	2.819296	0.000000	0.006170	0.000000	-0.005310	-0.000730	0.000000	0.000000
58.276300	21.149857	14.986803	0.472928	-0.485013	2.800162	0.000000	-0.077004	0.000000	-0.005663	-0.000552	0.000000	0.000000
58.825360	20.280498	15.817477	1.100919	-1.036944	2.735573	0.000000	-0.158822	0.000000	-0.005915	-0.000365	0.000000	0.000000
59.374420	18.760494	17.290932	1.651158	-1.662721	2.626671	0.000000	-0.237829	0.000000	-0.006062	-0.000171	0.000000	0.000000
59.923480	16.697179	19.512099	2.084794	-2.406907	2.475385	0.000000	-0.312621	0.000000	-0.006102	0.000026	0.000000	0.000000
60.369440	15.080796	21.486096	1.552671	-2.000996	2.351415	0.000000	-0.243764	0.000000	-0.006125	-0.000132	0.000000	0.000000
60.810400	13.917484	23.038002	1.095614	-1.505302	2.258598	0.000000	-0.178063	0.000000	-0.006218	-0.000291	0.000000	0.000000
61.251360	13.133696	24.120803	0.688603	-0.941130	2.194344	0.000000	-0.114386	0.000000	-0.006382	-0.000454	0.000000	0.000000
61.692320	12.693631	24.685245	0.313046	-0.334147	2.157925	0.000000	-0.052007	0.000000	-0.006619	-0.000621	0.000000	0.000000
62.134530	12.577244	24.705061	-0.015476	0.223781	2.148936	0.000000	0.004177	0.000000	-0.006932	-0.000778	0.000000	0.000000
62.431853	12.593478	24.575747	-0.039122	0.211144	2.150409	0.000000	0.004177	0.000000	-0.007164	-0.000778	0.000000	0.000000
62.765186	12.628395	24.439707	-0.065631	0.196976	2.152061	0.000000	0.004177	0.000000	-0.007423	-0.000778	0.000000	0.000000
63.098520	12.680986	24.313113	-0.092140	0.182807	2.153712	0.000000	0.004177	0.000000	-0.007682	-0.000778	0.000000	0.000000
63.433103	12.751546	24.195543	-0.118749	0.168586	2.155370	0.000000	0.004177	0.000000	-0.007943	-0.000778	0.000000	0.000000
63.730426	12.829165	24.099098	-0.108556	0.092116	2.156841	0.000000	-0.001512	0.000000	-0.008174	-0.000758	0.000000	0.000000
64.171386	13.087346	23.752533	-0.479553	0.690921	2.170211	0.000000	0.060539	0.000000	-0.008555	-0.000973	0.000000	0.000000
64.612346	13.681014	22.889832	-0.872442	1.258294	2.211161	0.000000	0.123290	0.000000	-0.009034	-0.001200	0.000000	0.000000
65.053306	14.637265	21.550250	-1.305165	1.768426	2.280162	0.000000	0.187457	0.000000	-0.009615	-0.001440	0.000000	0.000000
65.494266	15.999749	19.794732	-1.797480	2.198114	2.378007	0.000000	0.253775	0.000000	-0.010306	-0.001697	0.000000	0.000000
65.940226	17.854033	17.678221	-2.376317	2.528344	2.507414	0.000000	0.323368	0.000000	-0.011124	-0.001975	0.000000	0.000000
66.489286	20.228175	15.310868	-1.923775	1.809458	2.665273	0.000000	0.247449	0.000000	-0.012107	-0.001598	0.000000	0.000000
67.038346	22.027554	13.657881	-1.335451	1.219420	2.779970	0.000000	0.167116	0.000000	-0.012874	-0.001194	0.000000	0.000000
67.587406	23.125207	12.601535	-0.652874	0.716212	2.849461	0.000000	0.083801	0.000000	-0.013414	-0.000768	0.000000	0.000000
68.136466	23.443692	12.066599	0.075774	0.264001	2.872508	0.000000	-0.001012	0.000000	-0.013715	-0.000329	0.000000	0.000000
68.435038	23.442747	11.896123	-0.005003	0.272119	2.874796	0.000000	0.007325	0.000000	-0.013824	-0.000366	0.000000	0.000000
68.768372	23.450822	11.724742	-0.019222	0.242024	2.877360	0.000000	0.007325	0.000000	-0.013947	-0.000366	0.000000	0.000000
69.101705	23.468377	11.573424	-0.033442	0.211929	2.879924	0.000000	0.007325	0.000000	-0.014069	-0.000366	0.000000	0.000000
69.436288	23.495530	11.441715	-0.047715	0.181721	2.882497	0.000000	0.007325	0.000000	-0.014191	-0.000366	0.000000	0.000000
69.733611	23.527816	11.341569	-0.128954	0.187863	2.884792	0.000000	0.015730	0.000000	-0.014300	-0.000406	0.000000	0.000000
70.282671	23.265386	11.362421	0.604071	-0.226071	2.870072	0.000000	-0.069614	0.000000	-0.014396	0.000059	0.000000	0.000000
