#ParticleID	Turn	x[m]	xp	y[m]	yp	z[m]	dE[GeV]# s	beta_x	beta_y	alpha_x	alpha_y	D_x	D_y	D_px	D_py	orbit_x	orbit_px	orbit_y	orbit_py
0.300000	11.901392	25.161252	-0.018125	-0.024062	2.608311	0.000000	0.000496	0.000000	-0.000389	0.000341	0.000000	0.000000
0.601250	11.919940	25.179359	-0.043446	-0.036042	2.608357	0.000000	0.000496	0.000000	-0.000286	0.000341	0.000000	0.000000
0.898573	11.953205	25.204306	-0.039072	-0.109659	2.608403	0.000000	-0.005911	0.000000	-0.000185	0.000342	0.000000	0.000000
1.339533	12.140857	25.021366	-0.387979	0.522948	2.621891	0.000000	0.067796	0.000000	-0.000035	0.000339	0.000000	0.000000
1.780493	12.642844	24.288917	-0.754615	1.131763	2.668018	0.000000	0.142271	0.000000	0.000115	0.000340	0.000000	0.000000
2.221453	13.482105	23.040281	-1.155730	1.689085	2.747311	0.000000	0.218363	0.000000	0.000266	0.000345	0.000000	0.000000
2.662413	14.696986	21.332268	-1.609650	2.169555	2.860670	0.000000	0.296939	0.000000	0.000420	0.000354	0.000000	0.000000
3.108373	16.363978	19.217554	-2.141456	2.552459	3.011241	0.000000	0.379383	0.000000	0.000580	0.000367	0.000000	0.000000
3.657433	18.501225	16.842247	-1.727842	1.799168	3.194184	0.000000	0.286699	0.000000	0.000776	0.000345	0.000000	0.000000
4.206493	20.114155	15.219345	-1.192170	1.174027	3.324781	0.000000	0.188935	0.000000	0.000957	0.000317	0.000000	0.000000
4.755553	21.088826	14.233253	-0.572280	0.632511	3.400716	0.000000	0.087825	0.000000	0.001122	0.000283	0.000000	0.000000
5.304613	21.356379	13.813737	0.088041	0.136048	3.420645	0.000000	-0.014838	0.000000	0.001267	0.000244	0.000000	0.000000
5.603185	21.340950	13.717847	0.018839	0.149456	3.418780	0.000000	-0.005996	0.000000	0.001341	0.000248	0.000000	0.000000
5.936519	21.333598	13.626490	0.003214	0.124614	3.416699	0.000000	-0.005996	0.000000	0.001424	0.000248	0.000000	0.000000
6.269852	21.336664	13.551694	-0.012411	0.099772	3.414618	0.000000	-0.005996	0.000000	0.001506	0.000248	0.000000	0.000000
6.604435	21.350216	13.493273	-0.028094	0.074837	3.412529	0.000000	-0.005996	0.000000	0.001589	0.000248	0.000000	0.000000
6.901758	21.371068	13.455359	-0.097088	0.087392	3.410673	0.000000	0.002791	0.000000	0.001662	0.000252	0.000000	0.000000
7.450818	21.113242	13.620575	0.564010	-0.390068	3.383982	0.000000	-0.099442	0.000000	0.001786	0.000196	0.000000	0.000000
7.999878	20.147092	14.322203	1.185270	-0.895314	3.301591	0.000000	-0.199907	0.000000	0.001877	0.000137	0.000000	0.000000
8.548938	18.540864	15.610224	1.722805	-1.464335	3.164963	0.000000	-0.296824	0.000000	0.001935	0.000075	0.000000	0.000000
9.097998	16.408025	17.576385	2.138641	-2.137663	2.976523	0.000000	-0.388475	0.000000	0.001959	0.000012	0.000000	0.000000
9.543958	14.743812	19.328245	1.606313	-1.773927	2.821518	0.000000	-0.306980	0.000000	0.001976	0.000063	0.000000	0.000000
9.984918	13.532196	20.702557	1.151748	-1.330760	2.703313	0.000000	-0.229472	0.000000	0.002015	0.000114	0.000000	0.000000
10.425878	12.696854	21.657723	0.749807	-0.827040	2.618656	0.000000	-0.154578	0.000000	0.002076	0.000167	0.000000	0.000000
10.866838	12.199619	22.150281	0.382124	-0.285688	2.566583	0.000000	-0.081448	0.000000	0.002162	0.000222	0.000000	0.000000
11.309048	12.017624	22.157275	0.060629	0.215354	2.546480	0.000000	-0.015357	0.000000	0.002273	0.000273	0.000000	0.000000
11.606371	11.988954	22.033390	0.035798	0.201313	2.541832	0.000000	-0.015357	0.000000	0.002354	0.000273	0.000000	0.000000
12.086371	11.973830	21.851010	-0.004290	0.178645	2.534330	0.000000	-0.015357	0.000000	0.002485	0.000273	0.000000	0.000000
12.566371	11.997192	21.690392	-0.044379	0.155977	2.526827	0.000000	-0.015357	0.000000	0.002616	0.000273	0.000000	0.000000
13.046371	12.059037	21.551534	-0.084467	0.133309	2.519325	0.000000	-0.015357	0.000000	0.002747	0.000273	0.000000	0.000000
13.526371	12.159368	21.434438	-0.124555	0.110641	2.511822	0.000000	-0.015357	0.000000	0.002879	0.000273	0.000000	0.000000
14.007621	12.298594	21.338884	-0.164747	0.087914	2.504300	0.000000	-0.015357	0.000000	0.003010	0.000273	0.000000	0.000000
14.304943	12.403940	21.290787	-0.160057	0.023280	2.499653	0.000000	-0.021306	0.000000	0.003091	0.000266	0.000000	0.000000
14.745903	12.704060	21.037314	-0.522991	0.549326	2.505735	0.000000	0.049508	0.000000	0.003226	0.000347	0.000000	0.000000
15.186863	13.333579	20.329180	-0.909824	1.050377	2.543103	0.000000	0.120882	0.000000	0.003398	0.000433	0.000000	0.000000
15.627823	14.321268	19.198604	-1.338234	1.503634	2.612182	0.000000	0.193629	0.000000	0.003609	0.000523	0.000000	0.000000
16.068783	15.712267	17.697027	-1.827799	1.888470	2.713755	0.000000	0.268576	0.000000	0.003860	0.000619	0.000000	0.000000
16.514743	17.593771	15.871268	-2.405730	2.188191	2.850676	0.000000	0.347051	0.000000	0.004159	0.000723	0.000000	0.000000
17.063803	20.009591	13.833040	-1.967514	1.545705	3.017194	0.000000	0.259825	0.000000	0.004518	0.000583	0.000000	0.000000
17.612863	21.864496	12.436131	-1.390284	1.013328	3.134558	0.000000	0.168000	0.000000	0.004797	0.000432	0.000000	0.000000
18.161923	23.027415	11.581037	-0.714821	0.553136	3.200692	0.000000	0.073201	0.000000	0.004991	0.000273	0.000000	0.000000
18.710983	23.416173	11.206848	0.011149	0.132347	3.214424	0.000000	-0.022892	0.000000	0.005096	0.000110	0.000000	0.000000
19.009556	23.448267	11.119267	-0.060164	0.133017	3.209951	0.000000	-0.014857	0.000000	0.005133	0.000123	0.000000	0.000000
19.342889	23.493132	11.040759	-0.074432	0.102508	3.204957	0.000000	-0.014857	0.000000	0.005174	0.000123	0.000000	0.000000
19.676223	23.547509	10.982589	-0.088699	0.072000	3.199964	0.000000	-0.014857	0.000000	0.005215	0.000123	0.000000	0.000000
20.010806	23.611947	10.944520	-0.220006	0.095603	3.194972	0.000000	0.000973	0.000000	0.005256	0.000149	0.000000	0.000000
20.308129	23.746717	10.895812	-0.292458	0.095400	3.195218	0.000000	0.008945	0.000000	0.005300	0.000162	0.000000	0.000000
20.857189	23.658400	11.011943	0.452398	-0.308141	3.173881	0.000000	-0.086403	0.000000	0.005342	-0.000010	0.000000	0.000000
21.406249	22.764798	11.580626	1.165291	-0.733634	3.100622	0.000000	-0.180219	0.000000	0.005289	-0.000182	0.000000	0.000000
21.955309	21.129055	12.642372	1.795852	-1.211389	2.976742	0.000000	-0.270840	0.000000	0.005142	-0.000351	0.000000	0.000000
22.504369	18.866754	14.272812	2.299527	-1.775440	2.804436	0.000000	-0.356662	0.000000	0.004904	-0.000514	0.000000	0.000000
22.950329	17.085016	15.737098	1.709382	-1.493946	2.662858	0.000000	-0.279443	0.000000	0.004703	-0.000390	0.000000	0.000000
23.391289	15.805842	16.905468	1.202161	-1.145402	2.556090	0.000000	-0.205873	0.000000	0.004557	-0.000270	0.000000	0.000000
23.832249	14.948229	17.742182	0.749877	-0.744738	2.481169	0.000000	-0.134646	0.000000	0.004464	-0.000154	0.000000	0.000000
24.273209	14.472981	18.209167	0.331861	-0.310184	2.437242	0.000000	-0.064951	0.000000	0.004422	-0.000039	0.000000	0.000000
24.715418	14.358479	18.284925	-0.037358	0.095455	2.423807	0.000000	-0.001687	0.000000	0.004429	0.000064	0.000000	0.000000
25.012741	14.386859	18.233042	-0.058094	0.079046	2.423287	0.000000	-0.001687	0.000000	0.004448	0.000064	0.000000	0.000000
25.346075	14.433338	18.186477	-0.081341	0.060650	2.422703	0.000000	-0.001687	0.000000	0.004470	0.000064	0.000000	0.000000
25.679408	14.495314	18.152175	-0.104589	0.042254	2.422119	0.000000	-0.001687	0.000000	0.004491	0.000064	0.000000	0.000000
26.013991	14.572814	18.130446	-0.009699	-0.123294	2.421509	0.000000	-0.021332	0.000000	0.004513	0.000028	0.000000	0.000000
26.311314	14.584639	18.208723	0.004115	-0.182660	2.415158	0.000000	-0.026998	0.000000	0.004521	0.000017	0.000000	0.000000
26.752274	14.760996	18.172448	-0.405513	0.264606	2.418343	0.000000	0.041602	0.000000	0.004554	0.000134	0.000000	0.000000
27.193234	15.305434	17.745517	-0.833674	0.699831	2.451805	0.000000	0.110676	0.000000	0.004639	0.000252	0.000000	0.000000
27.634194	16.242837	16.947356	-1.299932	1.103211	2.515926	0.000000	0.181007	0.000000	0.004777	0.000374	0.000000	0.000000
28.075154	17.616049	15.814283	-1.825597	1.456390	2.611433	0.000000	0.253396	0.000000	0.004969	0.000499	0.000000	0.000000
28.521114	19.511766	14.380744	-2.439728	1.744302	2.741025	0.000000	0.329128	0.000000	0.005221	0.000631	0.000000	0.000000
29.070174	21.921779	12.783845	-1.922968	1.181066	2.898761	0.000000	0.245595	0.000000	0.005520	0.000457	0.000000	0.000000
29.619234	23.685813	11.755934	-1.270337	0.701965	3.009460	0.000000	0.157713	0.000000	0.005722	0.000275	0.000000	0.000000
30.168294	24.679211	11.223788	-0.527948	0.272871	3.071161	0.000000	0.067038	0.000000	0.005822	0.000088	0.000000	0.000000
30.717354	24.831777	11.149500	0.251745	-0.136784	3.082771	0.000000	-0.024826	0.000000	0.005818	-0.000100	0.000000	0.000000
31.015927	24.721969	11.222737	0.177618	-0.136176	3.077669	0.000000	-0.017170	0.000000	0.005793	-0.000086	0.000000	0.000000
31.349260	24.608192	11.323605	0.163710	-0.166428	3.071974	0.000000	-0.017170	0.000000	0.005764	-0.000086	0.000000	0.000000
31.682593	24.503689	11.444642	0.149801	-0.196681	3.066279	0.000000	-0.017170	0.000000	0.005736	-0.000086	0.000000	0.000000
32.017177	24.408118	11.586414	0.135840	-0.227046	3.060563	0.000000	-0.017170	0.000000	0.005707	-0.000086	0.000000	0.000000
32.314499	24.331053	11.729438	0.062934	-0.224877	3.055485	0.000000	-0.009572	0.000000	0.005682	-0.000071	0.000000	0.000000
32.863559	23.845303	12.215387	0.816340	-0.665333	3.025374	0.000000	-0.100251	0.000000	0.005592	-0.000254	0.000000	0.000000
33.412619	22.559027	13.208081	1.512065	-1.153186	2.945981	0.000000	-0.189155	0.000000	0.005404	-0.000432	0.000000	0.000000
33.961679	20.563122	14.778233	2.100950	-1.723189	2.818711	0.000000	-0.274711	0.000000	0.005119	-0.000602	0.000000	0.000000
34.510739	17.998627	17.037689	2.541390	-2.415946	2.645820	0.000000	-0.355403	0.000000	0.004744	-0.000762	0.000000	0.000000
34.956699	16.005572	19.058822	1.943140	-2.096957	2.503996	0.000000	-0.282304	0.000000	0.004431	-0.000643	0.000000	0.000000
35.397659	14.519726	20.732274	1.438752	-1.683388	2.395169	0.000000	-0.212858	0.000000	0.004172	-0.000532	0.000000	0.000000
35.838619	13.448203	22.005662	1.000113	-1.193218	2.316360	0.000000	-0.145831	0.000000	0.003961	-0.000427	0.000000	0.000000
36.279579	12.742030	22.821046	0.607177	-0.648753	2.266672	0.000000	-0.080461	0.000000	0.003794	-0.000328	0.000000	0.000000
36.721789	12.368260	23.141641	0.271150	-0.129509	2.245516	0.000000	-0.021317	0.000000	0.003671	-0.000240	0.000000	0.000000
37.019112	12.214695	23.222537	0.245343	-0.142572	2.239249	0.000000	-0.021317	0.000000	0.003599	-0.000240	0.000000	0.000000
37.352445	12.060777	23.322467	0.216411	-0.157218	2.232224	0.000000	-0.021317	0.000000	0.003519	-0.000240	0.000000	0.000000
37.685779	11.926146	23.432160	0.187479	-0.171863	2.225198	0.000000	-0.021317	0.000000	0.003439	-0.000240	0.000000	0.000000
38.020362	11.810408	23.552084	0.158438	-0.186564	2.218146	0.000000	-0.021317	0.000000	0.003359	-0.000240	0.000000	0.000000
38.317684	11.723863	23.666915	0.160481	-0.255929	2.211879	0.000000	-0.026571	0.000000	0.003288	-0.000248	0.000000	0.000000
38.758644	11.732223	23.630409	-0.179581	0.338397	2.214215	0.000000	0.036775	0.000000	0.003197	-0.000164	0.000000	0.000000
39.199604	12.042988	23.074546	-0.527848	0.917324	2.244516	0.000000	0.100542	0.000000	0.003142	-0.000083	0.000000	0.000000
39.640564	12.670356	22.024620	-0.900233	1.454510	2.303128	0.000000	0.165456	0.000000	0.003124	-0.000002	0.000000	0.000000
40.081524	13.642995	20.528406	-1.313753	1.925510	2.390719	0.000000	0.232254	0.000000	0.003140	0.000079	0.000000	0.000000
40.527484	15.022883	18.631337	-1.791174	2.310266	2.509766	0.000000	0.302113	0.000000	0.003194	0.000161	0.000000	0.000000
41.076544	16.785327	16.499198	-1.399555	1.595732	2.654989	0.000000	0.226283	0.000000	0.003254	0.000056	0.000000	0.000000
41.625604	18.060507	15.085085	-0.909065	0.994868	2.757467	0.000000	0.146441	0.000000	0.003256	-0.000049	0.000000	0.000000
42.174664	18.758334	14.288266	-0.354354	0.464874	2.815380	0.000000	0.064000	0.000000	0.003200	-0.000154	0.000000	0.000000
42.723724	18.829510	14.051979	0.225386	-0.032005	2.827701	0.000000	-0.019579	0.000000	0.003087	-0.000255	0.000000	0.000000
43.022297	18.728411	14.056055	0.161116	-0.017444	2.824077	0.000000	-0.012384	0.000000	0.003014	-0.000248	0.000000	0.000000
43.502297	18.586362	14.089198	0.134821	-0.051603	2.818252	0.000000	-0.012384	0.000000	0.002895	-0.000248	0.000000	0.000000
43.982297	18.469555	14.155134	0.108526	-0.085763	2.812427	0.000000	-0.012384	0.000000	0.002776	-0.000248	0.000000	0.000000
44.462297	18.377991	14.253863	0.082231	-0.119922	2.806601	0.000000	-0.012384	0.000000	0.002657	-0.000248	0.000000	0.000000
44.942297	18.311671	14.385384	0.055937	-0.154082	2.800776	0.000000	-0.012384	0.000000	0.002538	-0.000248	0.000000	0.000000
45.423547	18.270745	14.549989	-0.060950	-0.116240	2.794952	0.000000	0.001464	0.000000	0.002419	-0.000236	0.000000	0.000000
45.720870	18.311848	14.625267	-0.124182	-0.099543	2.795458	0.000000	0.008623	0.000000	0.002349	-0.000229	0.000000	0.000000
46.269930	18.139756	15.017263	0.435608	-0.618590	2.777673	0.000000	-0.073820	0.000000	0.002203	-0.000303	0.000000	0.000000
46.818990	17.366250	15.999959	0.964621	-1.181699	2.714950	0.000000	-0.154959	0.000000	0.002017	-0.000372	0.000000	0.000000
47.368050	16.045981	17.643347	1.425484	-1.828981	2.608399	0.000000	-0.233355	0.000000	0.001796	-0.000433	0.000000	0.000000
47.917110	14.272225	20.064482	1.785644	-2.606542	2.459907	0.000000	-0.307619	0.000000	0.001543	-0.000487	0.000000	0.000000
48.363070	12.891220	22.216780	1.321790	-2.199303	2.338263	0.000000	-0.239097	0.000000	0.001334	-0.000450	0.000000	0.000000
48.804030	11.905403	23.939858	0.922114	-1.693319	2.247521	0.000000	-0.173696	0.000000	0.001143	-0.000418	0.000000	0.000000
49.244990	11.252244	25.180878	0.564571	-1.110288	2.185143	0.000000	-0.110268	0.000000	0.000964	-0.000391	0.000000	0.000000
49.685950	10.901895	25.883376	0.232826	-0.476741	2.150423	0.000000	-0.048093	0.000000	0.000797	-0.000368	0.000000	0.000000
50.128160	10.838502	26.015105	-0.061977	0.115167	2.142975	0.000000	0.008316	0.000000	0.000638	-0.000351	0.000000	0.000000
50.425482	10.883544	25.950065	-0.089514	0.103586	2.145552	0.000000	0.008316	0.000000	0.000534	-0.000351	0.000000	0.000000
50.758816	10.953511	25.885335	-0.120387	0.090603	2.148441	0.000000	0.008316	0.000000	0.000417	-0.000351	0.000000	0.000000
51.092149	11.044060	25.829261	-0.151260	0.077620	2.151330	0.000000	0.008316	0.000000	0.000300	-0.000351	0.000000	0.000000
51.426732	11.155419	25.782203	-0.091748	-0.144569	2.154208	0.000000	-0.009161	0.000000	0.000182	-0.000353	0.000000	0.000000
51.724055	11.217968	25.871671	-0.091135	-0.219872	2.151589	0.000000	-0.014433	0.000000	0.000077	-0.000353	0.000000	0.000000
52.165015	11.444576	25.777671	-0.424824	0.432232	2.159006	0.000000	0.047419	0.000000	-0.000078	-0.000353	0.000000	0.000000
52.605975	11.972880	25.115077	-0.777919	1.064669	2.193791	0.000000	0.109816	0.000000	-0.000235	-0.000357	0.000000	0.000000
53.046935	12.827013	23.914042	-1.166552	1.648662	2.256344	0.000000	0.173466	0.000000	-0.000394	-0.000365	0.000000	0.000000
53.487895	14.045994	22.229213	-1.608477	2.157643	2.347377	0.000000	0.239097	0.000000	-0.000557	-0.000377	0.000000	0.000000
53.933855	15.706371	20.112073	-2.128147	2.569778	2.469438	0.000000	0.307852	0.000000	-0.000729	-0.000394	0.000000	0.000000
54.482915	17.843756	17.729558	-1.741846	1.795148	2.618414	0.000000	0.233279	0.000000	-0.000939	-0.000367	0.000000	0.000000
55.031975	19.486458	16.122891	-1.232521	1.148381	2.725229	0.000000	0.154563	0.000000	-0.001131	-0.000334	0.000000	0.000000
55.581035	20.518461	15.177630	-0.636147	0.583410	2.787986	0.000000	0.073099	0.000000	-0.001304	-0.000294	0.000000	0.000000
56.130095	20.866883	14.826443	0.005152	0.059993	2.805569	0.000000	-0.009666	0.000000	-0.001453	-0.000249	0.000000	0.000000
56.428668	20.901040	14.773247	-0.064375	0.078918	2.804974	0.000000	-0.002247	0.000000	-0.001529	-0.000253	0.000000	0.000000
56.762001	20.949295	14.728202	-0.080390	0.056215	2.804309	0.000000	-0.002247	0.000000	-0.001613	-0.000253	0.000000	0.000000
57.095334	21.008226	14.698294	-0.096404	0.033511	2.803645	0.000000	-0.002247	0.000000	-0.001698	-0.000253	0.000000	0.000000
57.429918	21.078115	14.683494	-0.112478	0.010722	2.802978	0.000000	-0.002247	0.000000	-0.001783	-0.000253	0.000000	0.000000
57.727240	21.149249	14.683138	-0.182877	0.029375	2.802385	0.000000	0.005189	0.000000	-0.001858	-0.000258	0.000000	0.000000
58.276300	20.988822	14.932617	0.473202	-0.486443	2.782643	0.000000	-0.077437	0.000000	-0.001983	-0.000196	0.000000	0.000000
58.825360	20.122157	15.764095	1.095856	-1.036907	2.717811	0.000000	-0.158692	0.000000	-0.002073	-0.000130	0.000000	0.000000
59.374420	18.610468	17.236793	1.641108	-1.661222	2.609039	0.000000	-0.237135	0.000000	-0.002125	-0.000062	0.000000	0.000000
59.923480	16.560520	19.455600	2.070450	-2.403855	2.458254	0.000000	-0.311373	0.000000	-0.002141	0.000007	0.000000	0.000000
60.369440	14.955281	21.427587	1.541871	-1.999457	2.334731	0.000000	-0.242934	0.000000	-0.002150	-0.000049	0.000000	0.000000
60.810400	13.800046	22.978955	1.087936	-1.505423	2.242124	0.000000	-0.177654	0.000000	-0.002184	-0.000105	0.000000	0.000000
61.251360	13.021780	24.062656	0.683701	-0.942898	2.177853	0.000000	-0.114395	0.000000	-0.002243	-0.000162	0.000000	0.000000
61.692320	12.584929	24.629387	0.310701	-0.337475	2.141187	0.000000	-0.052438	0.000000	-0.002327	-0.000221	0.000000	0.000000
62.134530	12.469581	24.652809	-0.016925	0.221505	2.131715	0.000000	0.003578	0.000000	-0.002438	-0.000276	0.000000	0.000000
62.431853	12.486736	24.524853	-0.040775	0.208853	2.132861	0.000000	0.003578	0.000000	-0.002520	-0.000276	0.000000	0.000000
62.765186	12.522833	24.390346	-0.067515	0.194669	2.134146	0.000000	0.003578	0.000000	-0.002612	-0.000276	0.000000	0.000000
63.098520	12.576756	24.265295	-0.094254	0.180484	2.135430	0.000000	0.003578	0.000000	-0.002704	-0.000276	0.000000	0.000000
63.433103	12.648808	24.149285	-0.121094	0.166247	2.136720	0.000000	0.003578	0.000000	-0.002796	-0.000276	0.000000	0.000000
63.730426	12.727904	24.054194	-0.112889	0.092920	2.137865	0.000000	-0.001806	0.000000	-0.002878	-0.000269	0.000000	0.000000
64.171386	12.989052	23.707405	-0.481721	0.690562	2.150761	0.000000	0.059758	0.000000	-0.003013	-0.000345	0.000000	0.000000
64.612346	13.583886	22.845461	-0.872555	1.256785	2.190960	0.000000	0.122007	0.000000	-0.003183	-0.000425	0.000000	0.000000
65.053306	14.539575	21.507581	-1.303245	1.765829	2.258924	0.000000	0.185650	0.000000	-0.003389	-0.000509	0.000000	0.000000
65.494266	15.899765	19.754636	-1.793463	2.194536	2.355427	0.000000	0.251412	0.000000	-0.003633	-0.000600	0.000000	0.000000
65.940226	17.749812	17.641588	-2.370219	2.524064	2.483144	0.000000	0.320434	0.000000	-0.003922	-0.000698	0.000000	0.000000
66.489286	20.119867	15.278019	-1.921392	1.806350	2.639014	0.000000	0.245313	0.000000	-0.004269	-0.000565	0.000000	0.000000
67.038346	21.919230	13.627706	-1.336883	1.217286	2.752306	0.000000	0.165833	0.000000	-0.004541	-0.000422	0.000000	0.000000
67.587406	23.020850	12.573106	-0.657972	0.714916	2.821009	0.000000	0.083404	0.000000	-0.004732	-0.000272	0.000000	0.000000
68.136466	23.346946	12.039105	0.067400	0.263463	2.843902	0.000000	-0.000508	0.000000	-0.004839	-0.000117	0.000000	0.000000
68.435038	23.348385	11.870294	-0.008832	0.269222	2.846095	0.000000	0.007220	0.000000	-0.004877	-0.000130	0.000000	0.000000
68.768372	23.359032	11.700852	-0.023110	0.239105	2.848545	0.000000	0.007220	0.000000	-0.004921	-0.000130	0.000000	0.000000
69.101705	23.379198	11.551487	-0.037387	0.208989	2.850995	0.000000	0.007220	0.000000	-0.004964	-0.000130	0.000000	0.000000
69.436288	23.409011	11.421753	-0.051718	0.178759	2.853455	0.000000	0.007220	0.000000	-0.005008	-0.000130	0.000000	0.000000
69.733611	23.443569	11.323433	-0.128262	0.182694	2.855641	0.000000	0.014993	0.000000	-0.005046	-0.000144	0.000000	0.000000
70.282671	23.181818	11.349731	0.602161	-0.230876	2.840708	0.000000	-0.069428	0.000000	-0.005080	0.000021	0.000000	0.000000
