#ParticleID	Turn	x[m]	xp	y[m]	yp	z[m]	dE[GeV]# s	beta_x	beta_y	alpha_x	alpha_y	D_x	D_y	D_px	D_py	orbit_x	orbit_px	orbit_y	orbit_py
0.300000	11.955853	25.316382	-0.020093	-0.021715	2.599996	0.000000	0.000547	0.000000	-0.000801	0.000698	0.000000	0.000000
0.601250	11.975553	25.333052	-0.045300	-0.033620	2.599951	0.000000	0.000547	0.000000	-0.000591	0.000698	0.000000	0.000000
0.898573	12.009888	25.356538	-0.040620	-0.107524	2.599906	0.000000	-0.005852	0.000000	-0.000383	0.000698	0.000000	0.000000
1.339533	12.199541	25.169948	-0.390865	0.529059	2.613220	0.000000	0.067634	0.000000	-0.000077	0.000693	0.000000	0.000000
1.780493	12.704766	24.430451	-0.758972	1.141573	2.659077	0.000000	0.141882	0.000000	0.000229	0.000694	0.000000	0.000000
2.221453	13.548652	23.171687	-1.161761	1.702148	2.737995	0.000000	0.217739	0.000000	0.000537	0.000704	0.000000	0.000000
2.662413	14.769762	21.450922	-1.617635	2.185278	2.850872	0.000000	0.296069	0.000000	0.000851	0.000722	0.000000	0.000000
3.108373	16.444981	19.321234	-2.151794	2.570146	3.000838	0.000000	0.378253	0.000000	0.001179	0.000749	0.000000	0.000000
3.657433	18.592440	16.928887	-1.735763	1.812656	3.183062	0.000000	0.285915	0.000000	0.001578	0.000704	0.000000	0.000000
4.206493	20.212600	15.293005	-1.197106	1.184278	3.313148	0.000000	0.188516	0.000000	0.001949	0.000647	0.000000	0.000000
4.755553	21.190993	14.297074	-0.573870	0.640256	3.388794	0.000000	0.087784	0.000000	0.002286	0.000578	0.000000	0.000000
5.304613	21.458486	13.870162	0.089917	0.141839	3.408662	0.000000	-0.014496	0.000000	0.002582	0.000499	0.000000	0.000000
5.603185	21.441698	13.770986	0.021140	0.154988	3.406783	0.000000	-0.005784	0.000000	0.002733	0.000506	0.000000	0.000000
5.936519	21.432789	13.675922	0.005587	0.130201	3.404687	0.000000	-0.005784	0.000000	0.002902	0.000506	0.000000	0.000000
6.269852	21.434249	13.597384	-0.009966	0.105414	3.402590	0.000000	-0.005784	0.000000	0.003071	0.000506	0.000000	0.000000
6.604435	21.446141	13.535169	-0.025577	0.080534	3.400486	0.000000	-0.005784	0.000000	0.003240	0.000506	0.000000	0.000000
6.901758	21.465483	13.493848	-0.093927	0.092771	3.398616	0.000000	0.002841	0.000000	0.003390	0.000515	0.000000	0.000000
7.450818	21.202540	13.653740	0.570242	-0.385686	3.371936	0.000000	-0.099006	0.000000	0.003642	0.000401	0.000000	0.000000
7.999878	20.228082	14.350980	1.194134	-0.891620	3.289796	0.000000	-0.199090	0.000000	0.003829	0.000280	0.000000	0.000000
8.548938	18.610945	15.635238	1.733670	-1.461070	3.153657	0.000000	-0.295639	0.000000	0.003948	0.000154	0.000000	0.000000
9.097998	16.465376	17.598002	2.150731	-2.134601	2.965934	0.000000	-0.386940	0.000000	0.003997	0.000025	0.000000	0.000000
9.543958	14.791343	19.346700	1.616234	-1.769812	2.811535	0.000000	-0.305700	0.000000	0.004032	0.000129	0.000000	0.000000
9.984918	13.571714	20.717050	1.160023	-1.325831	2.693797	0.000000	-0.228439	0.000000	0.004112	0.000234	0.000000	0.000000
10.425878	12.729656	21.667618	0.756818	-0.821517	2.609478	0.000000	-0.153782	0.000000	0.004238	0.000342	0.000000	0.000000
10.866838	12.226692	22.155149	0.388193	-0.279820	2.557617	0.000000	-0.080881	0.000000	0.004414	0.000453	0.000000	0.000000
11.309048	12.039684	22.156884	0.065414	0.222450	2.537602	0.000000	-0.014853	0.000000	0.004640	0.000559	0.000000	0.000000
11.606371	12.008160	22.028793	0.040613	0.208367	2.533020	0.000000	-0.014853	0.000000	0.004806	0.000559	0.000000	0.000000
12.086371	11.988390	21.839673	0.000574	0.185631	2.525623	0.000000	-0.014853	0.000000	0.005074	0.000559	0.000000	0.000000
12.566371	12.007057	21.672380	-0.039464	0.162896	2.518225	0.000000	-0.014853	0.000000	0.005342	0.000559	0.000000	0.000000
13.046371	12.064162	21.526913	-0.079503	0.140160	2.510827	0.000000	-0.014853	0.000000	0.005610	0.000559	0.000000	0.000000
13.526371	12.159703	21.403273	-0.119542	0.117424	2.503430	0.000000	-0.014853	0.000000	0.005879	0.000559	0.000000	0.000000
14.007621	12.294081	21.301222	-0.159685	0.094629	2.496013	0.000000	-0.014853	0.000000	0.006148	0.000559	0.000000	0.000000
14.304943	12.396397	21.249163	-0.155932	0.031762	2.491429	0.000000	-0.020592	0.000000	0.006314	0.000544	0.000000	0.000000
14.745903	12.692833	20.988739	-0.518584	0.556520	2.497645	0.000000	0.050018	0.000000	0.006590	0.000710	0.000000	0.000000
15.186863	13.318369	20.274917	-0.904941	1.055954	2.535023	0.000000	0.121190	0.000000	0.006941	0.000885	0.000000	0.000000
15.627823	14.301603	19.140174	-1.332663	1.507336	2.603984	0.000000	0.193734	0.000000	0.007372	0.001069	0.000000	0.000000
16.068783	15.687489	17.636141	-1.821298	1.890124	2.705312	0.000000	0.268473	0.000000	0.007886	0.001266	0.000000	0.000000
16.514743	17.563009	15.809689	-2.398102	2.187793	2.841853	0.000000	0.346745	0.000000	0.008497	0.001478	0.000000	0.000000
17.063803	19.970993	13.771093	-1.960295	1.546537	3.007930	0.000000	0.259799	0.000000	0.009231	0.001191	0.000000	0.000000
17.612863	21.818715	12.372468	-1.383943	1.015460	3.125089	0.000000	0.168262	0.000000	0.009802	0.000883	0.000000	0.000000
18.161923	22.975563	11.514186	-0.709777	0.556729	3.191258	0.000000	0.073755	0.000000	0.010198	0.000559	0.000000	0.000000
18.710983	23.359753	11.135105	0.014560	0.137663	3.205269	0.000000	-0.022053	0.000000	0.010413	0.000225	0.000000	0.000000
19.009556	23.387986	11.045363	-0.053807	0.136576	3.200881	0.000000	-0.014429	0.000000	0.010488	0.000251	0.000000	0.000000
19.342889	23.428622	10.964560	-0.068100	0.105834	3.195988	0.000000	-0.014429	0.000000	0.010572	0.000251	0.000000	0.000000
19.676223	23.478787	10.904251	-0.082394	0.075093	3.191095	0.000000	-0.014429	0.000000	0.010655	0.000251	0.000000	0.000000
20.010806	23.539014	10.864190	-0.213366	0.098064	3.186203	0.000000	0.001358	0.000000	0.010739	0.000304	0.000000	0.000000
20.308129	23.669899	10.814055	-0.282642	0.096104	3.186522	0.000000	0.008906	0.000000	0.010829	0.000331	0.000000	0.000000
20.857189	23.572214	10.928191	0.459579	-0.305174	3.165193	0.000000	-0.086177	0.000000	0.010914	-0.000022	0.000000	0.000000
21.406249	22.672310	11.492329	1.169321	-0.728194	3.092178	0.000000	-0.179731	0.000000	0.010806	-0.000373	0.000000	0.000000
21.955309	21.033799	12.546660	1.796423	-1.203097	2.968773	0.000000	-0.270102	0.000000	0.010505	-0.000719	0.000000	0.000000
22.504369	18.772505	14.166296	2.296561	-1.763717	2.797162	0.000000	-0.355692	0.000000	0.010019	-0.001051	0.000000	0.000000
22.950329	16.992320	15.621366	1.708214	-1.484785	2.656170	0.000000	-0.278628	0.000000	0.009607	-0.000797	0.000000	0.000000
23.391289	15.713192	16.783061	1.202865	-1.139299	2.549865	0.000000	-0.205216	0.000000	0.009309	-0.000553	0.000000	0.000000
23.832249	14.854019	17.615902	0.752498	-0.741964	2.475291	0.000000	-0.134136	0.000000	0.009118	-0.000315	0.000000	0.000000
24.273209	14.375519	18.081991	0.336528	-0.310863	2.431598	0.000000	-0.064581	0.000000	0.009031	-0.000081	0.000000	0.000000
24.715418	14.255931	18.159839	-0.032248	0.093644	2.418291	0.000000	-0.001172	0.000000	0.009047	0.000131	0.000000	0.000000
25.012741	14.281315	18.109065	-0.053126	0.077128	2.417904	0.000000	-0.001172	0.000000	0.009085	0.000131	0.000000	0.000000
25.346075	14.324534	18.063818	-0.076533	0.058611	2.417470	0.000000	-0.001172	0.000000	0.009129	0.000131	0.000000	0.000000
25.679408	14.383358	18.030916	-0.099939	0.040095	2.417035	0.000000	-0.001172	0.000000	0.009172	0.000131	0.000000	0.000000
26.013991	14.457802	18.010670	-0.006142	-0.124602	2.416575	0.000000	-0.020777	0.000000	0.009216	0.000056	0.000000	0.000000
26.311314	14.467532	18.089794	0.005599	-0.181754	2.410378	0.000000	-0.026159	0.000000	0.009233	0.000034	0.000000	0.000000
26.752274	14.641390	18.054132	-0.401251	0.262310	2.413876	0.000000	0.042331	0.000000	0.009300	0.000273	0.000000	0.000000
27.193234	15.180854	17.630576	-0.826443	0.694436	2.447553	0.000000	0.111300	0.000000	0.009474	0.000515	0.000000	0.000000
27.634194	16.110588	16.838401	-1.289414	1.094959	2.511793	0.000000	0.181532	0.000000	0.009755	0.000763	0.000000	0.000000
28.075154	17.473104	15.713654	-1.811327	1.445649	2.607325	0.000000	0.253824	0.000000	0.010148	0.001020	0.000000	0.000000
28.521114	19.354574	14.290440	-2.421170	1.731656	2.736851	0.000000	0.329475	0.000000	0.010663	0.001290	0.000000	0.000000
29.070174	21.747017	12.705488	-1.909027	1.171596	2.894524	0.000000	0.246063	0.000000	0.011274	0.000934	0.000000	0.000000
29.619234	23.499005	11.686458	-1.261954	0.695010	3.005321	0.000000	0.158300	0.000000	0.011686	0.000562	0.000000	0.000000
30.168294	24.486681	11.160754	-0.525686	0.267942	3.067282	0.000000	0.067738	0.000000	0.011890	0.000180	0.000000	0.000000
30.717354	24.640222	11.090926	0.247738	-0.140035	3.079309	0.000000	-0.024023	0.000000	0.011883	-0.000205	0.000000	0.000000
31.015927	24.530427	11.167189	0.177417	-0.141270	3.074338	0.000000	-0.016804	0.000000	0.011830	-0.000176	0.000000	0.000000
31.349260	24.416822	11.271517	0.163401	-0.171715	3.068795	0.000000	-0.016804	0.000000	0.011772	-0.000176	0.000000	0.000000
31.682593	24.312560	11.396142	0.149384	-0.202160	3.063252	0.000000	-0.016804	0.000000	0.011713	-0.000176	0.000000	0.000000
32.017177	24.217304	11.541645	0.135316	-0.232719	3.057688	0.000000	-0.016804	0.000000	0.011654	-0.000176	0.000000	0.000000
32.314499	24.140652	11.688058	0.066058	-0.232422	3.052750	0.000000	-0.009627	0.000000	0.011602	-0.000147	0.000000	0.000000
32.863559	23.654802	12.181902	0.813204	-0.672175	3.022716	0.000000	-0.100235	0.000000	0.011419	-0.000520	0.000000	0.000000
33.412619	22.375102	13.182034	1.502869	-1.159820	2.943532	0.000000	-0.189073	0.000000	0.011033	-0.000884	0.000000	0.000000
33.961679	20.392023	14.759702	2.086309	-1.730099	2.816599	0.000000	-0.274570	0.000000	0.010451	-0.001232	0.000000	0.000000
34.510739	17.845756	17.027296	2.522290	-2.423640	2.644162	0.000000	-0.355216	0.000000	0.009684	-0.001558	0.000000	0.000000
34.956699	15.867452	19.055942	1.928282	-2.105655	2.502720	0.000000	-0.282133	0.000000	0.009044	-0.001315	0.000000	0.000000
35.397659	14.392844	20.737517	1.427550	-1.692791	2.394218	0.000000	-0.212708	0.000000	0.008514	-0.001089	0.000000	0.000000
35.838619	13.329623	22.019427	0.992072	-1.202891	2.315680	0.000000	-0.145695	0.000000	0.008082	-0.000875	0.000000	0.000000
36.279579	12.629178	22.843345	0.601943	-0.658250	2.266216	0.000000	-0.080333	0.000000	0.007741	-0.000671	0.000000	0.000000
36.721789	12.258836	23.172084	0.267113	-0.136278	2.245242	0.000000	-0.020987	0.000000	0.007488	-0.000492	0.000000	0.000000
37.019112	12.107724	23.257007	0.241128	-0.149347	2.239148	0.000000	-0.020987	0.000000	0.007342	-0.000492	0.000000	0.000000
37.352445	11.956682	23.361456	0.211997	-0.163999	2.232317	0.000000	-0.020987	0.000000	0.007178	-0.000492	0.000000	0.000000
37.685779	11.825061	23.475673	0.182866	-0.178652	2.225485	0.000000	-0.020987	0.000000	0.007014	-0.000492	0.000000	0.000000
38.020362	11.712477	23.600141	0.153625	-0.193359	2.218628	0.000000	-0.020987	0.000000	0.006849	-0.000492	0.000000	0.000000
38.317684	11.628835	23.719038	0.154320	-0.261013	2.212533	0.000000	-0.026063	0.000000	0.006703	-0.000508	0.000000	0.000000
38.758644	11.641675	23.686378	-0.183686	0.334791	2.215191	0.000000	0.037310	0.000000	0.006517	-0.000338	0.000000	0.000000
39.199604	11.955220	23.132954	-0.530084	0.915359	2.245792	0.000000	0.101112	0.000000	0.006405	-0.000171	0.000000	0.000000
39.640564	12.583800	22.083955	-0.900705	1.454270	2.304687	0.000000	0.166067	0.000000	0.006365	-0.000006	0.000000	0.000000
40.081524	13.556141	20.587116	-1.312489	1.927001	2.392547	0.000000	0.232915	0.000000	0.006399	0.000158	0.000000	0.000000
40.527484	14.934231	18.687827	-1.788178	2.313506	2.511857	0.000000	0.302841	0.000000	0.006507	0.000325	0.000000	0.000000
41.076544	16.695359	16.552941	-1.399965	1.597338	2.657407	0.000000	0.226930	0.000000	0.006627	0.000113	0.000000	0.000000
41.625604	17.972913	15.137829	-0.912837	0.994967	2.760219	0.000000	0.146995	0.000000	0.006630	-0.000102	0.000000	0.000000
42.174664	18.676615	14.341680	-0.361213	0.463479	2.818469	0.000000	0.064451	0.000000	0.006515	-0.000315	0.000000	0.000000
42.723724	18.756745	14.107772	0.215925	-0.034989	2.831121	0.000000	-0.019242	0.000000	0.006285	-0.000522	0.000000	0.000000
43.022297	18.660371	14.114104	0.153168	-0.021158	2.827616	0.000000	-0.012241	0.000000	0.006134	-0.000506	0.000000	0.000000
43.502297	18.525966	14.150748	0.126841	-0.055182	2.821983	0.000000	-0.012241	0.000000	0.005891	-0.000506	0.000000	0.000000
43.982297	18.416835	14.220054	0.100515	-0.089206	2.816351	0.000000	-0.012241	0.000000	0.005648	-0.000506	0.000000	0.000000
44.462297	18.332978	14.322023	0.074188	-0.123230	2.810718	0.000000	-0.012241	0.000000	0.005404	-0.000506	0.000000	0.000000
44.942297	18.274394	14.456655	0.047862	-0.157253	2.805086	0.000000	-0.012241	0.000000	0.005161	-0.000506	0.000000	0.000000
45.423547	18.241256	14.624247	-0.068910	-0.118908	2.799456	0.000000	0.001629	0.000000	0.004918	-0.000482	0.000000	0.000000
45.720870	18.287114	14.701075	-0.131134	-0.102771	2.800085	0.000000	0.008649	0.000000	0.004774	-0.000470	0.000000	0.000000
46.269930	18.122948	15.097937	0.428054	-0.624251	2.782418	0.000000	-0.073952	0.000000	0.004475	-0.000620	0.000000	0.000000
46.818990	17.357706	16.088393	0.956989	-1.190198	2.719763	0.000000	-0.155252	0.000000	0.004096	-0.000759	0.000000	0.000000
47.368050	16.045470	17.742987	1.418302	-1.840927	2.613225	0.000000	-0.233809	0.000000	0.003644	-0.000884	0.000000	0.000000
47.917110	14.278969	20.179571	1.779403	-2.622789	2.464690	0.000000	-0.308234	0.000000	0.003128	-0.000994	0.000000	0.000000
48.363070	12.903218	22.345331	1.315950	-2.213024	2.343007	0.000000	-0.239581	0.000000	0.002702	-0.000918	0.000000	0.000000
48.804030	11.922372	24.079215	0.916435	-1.703938	2.252269	0.000000	-0.174056	0.000000	0.002312	-0.000853	0.000000	0.000000
49.244990	11.274171	25.328069	0.558800	-1.117322	2.189939	0.000000	-0.110505	0.000000	0.001948	-0.000799	0.000000	0.000000
49.685950	10.928988	26.035075	0.226703	-0.479869	2.155310	0.000000	-0.048203	0.000000	0.001606	-0.000753	0.000000	0.000000
50.128160	10.871216	26.167779	-0.068813	0.116243	2.148003	0.000000	0.008354	0.000000	0.001282	-0.000719	0.000000	0.000000
50.425482	10.920306	26.102080	-0.096292	0.104727	2.150701	0.000000	0.008354	0.000000	0.001068	-0.000719	0.000000	0.000000
50.758816	10.994769	26.036565	-0.127099	0.091817	2.153725	0.000000	0.008354	0.000000	0.000828	-0.000719	0.000000	0.000000
51.092149	11.089771	25.979657	-0.157906	0.078907	2.156749	0.000000	0.008354	0.000000	0.000589	-0.000719	0.000000	0.000000
51.426732	11.205555	25.931717	-0.097922	-0.144423	2.159763	0.000000	-0.009167	0.000000	0.000348	-0.000722	0.000000	0.000000
51.724055	11.271749	26.021078	-0.097103	-0.220127	2.157252	0.000000	-0.014451	0.000000	0.000134	-0.000722	0.000000	0.000000
52.165015	11.504156	25.925557	-0.432179	0.435922	2.164851	0.000000	0.047550	0.000000	-0.000184	-0.000723	0.000000	0.000000
52.605975	12.039622	25.258027	-0.786995	1.072134	2.199886	0.000000	0.110100	0.000000	-0.000505	-0.000731	0.000000	0.000000
53.046935	12.902604	24.048868	-1.177760	1.659563	2.262761	0.000000	0.173912	0.000000	-0.000831	-0.000749	0.000000	0.000000
53.487895	14.132518	22.353102	-1.622326	2.171482	2.354193	0.000000	0.239713	0.000000	-0.001166	-0.000774	0.000000	0.000000
53.933855	15.806573	20.222550	-2.145276	2.585915	2.476742	0.000000	0.308648	0.000000	-0.001519	-0.000809	0.000000	0.000000
54.482915	17.961369	17.824719	-1.756483	1.807126	2.626300	0.000000	0.233832	0.000000	-0.001948	-0.000753	0.000000	0.000000
55.031975	19.618164	16.206806	-1.243645	1.157053	2.733541	0.000000	0.154856	0.000000	-0.002343	-0.000683	0.000000	0.000000
55.581035	20.659964	15.253564	-0.642985	0.589391	2.796558	0.000000	0.073123	0.000000	-0.002697	-0.000602	0.000000	0.000000
56.130095	21.013208	14.897091	0.003074	0.063710	2.814228	0.000000	-0.009918	0.000000	-0.003002	-0.000510	0.000000	0.000000
56.428668	21.049225	14.841212	-0.067449	0.083455	2.813671	0.000000	-0.002381	0.000000	-0.003157	-0.000517	0.000000	0.000000
56.762001	21.099494	14.793114	-0.083357	0.060838	2.813050	0.000000	-0.002381	0.000000	-0.003329	-0.000517	0.000000	0.000000
57.095334	21.160369	14.760094	-0.099265	0.038222	2.812429	0.000000	-0.002381	0.000000	-0.003502	-0.000517	0.000000	0.000000
57.429918	21.232136	14.742113	-0.115233	0.015521	2.811805	0.000000	-0.002381	0.000000	-0.003675	-0.000517	0.000000	0.000000
57.727240	21.304887	14.738875	-0.186855	0.034970	2.811252	0.000000	0.005197	0.000000	-0.003829	-0.000528	0.000000	0.000000
58.276300	21.145889	14.983043	0.474458	-0.482322	2.791561	0.000000	-0.077711	0.000000	-0.004083	-0.000399	0.000000	0.000000
58.825360	20.274968	15.810641	1.102254	-1.033964	2.726592	0.000000	-0.159248	0.000000	-0.004266	-0.000264	0.000000	0.000000
59.374420	18.753637	17.280605	1.652201	-1.659242	2.617494	0.000000	-0.237965	0.000000	-0.004373	-0.000124	0.000000	0.000000
59.923480	16.689331	19.497623	2.085464	-2.402688	2.466200	0.000000	-0.312463	0.000000	-0.004402	0.000018	0.000000	0.000000
60.369440	15.072334	21.467889	1.553364	-1.996847	2.342243	0.000000	-0.243836	0.000000	-0.004419	-0.000096	0.000000	0.000000
60.810400	13.908353	23.016292	1.096404	-1.501450	2.249315	0.000000	-0.178370	0.000000	-0.004487	-0.000211	0.000000	0.000000
61.251360	13.123810	24.095918	0.689528	-0.937747	2.184829	0.000000	-0.114932	0.000000	-0.004606	-0.000328	0.000000	0.000000
61.692320	12.682867	24.657654	0.314151	-0.331385	2.148051	0.000000	-0.052800	0.000000	-0.004777	-0.000449	0.000000	0.000000
62.134530	12.565426	24.675363	-0.014719	0.226866	2.138569	0.000000	0.003246	0.000000	-0.005004	-0.000563	0.000000	0.000000
62.431853	12.581215	24.544226	-0.038386	0.214196	2.139702	0.000000	0.003246	0.000000	-0.005171	-0.000563	0.000000	0.000000
62.765186	12.615650	24.406163	-0.064919	0.199992	2.140971	0.000000	0.003246	0.000000	-0.005359	-0.000563	0.000000	0.000000
63.098520	12.667774	24.277569	-0.091453	0.185788	2.142241	0.000000	0.003246	0.000000	-0.005546	-0.000563	0.000000	0.000000
63.433103	12.737883	24.158016	-0.118086	0.171531	2.143515	0.000000	0.003246	0.000000	-0.005735	-0.000563	0.000000	0.000000
63.730426	12.815125	24.059808	-0.108601	0.096427	2.144646	0.000000	-0.002303	0.000000	-0.005902	-0.000548	0.000000	0.000000
64.171386	13.073262	23.709915	-0.479297	0.694100	2.157496	0.000000	0.059431	0.000000	-0.006178	-0.000704	0.000000	0.000000
64.612346	13.666640	22.844937	-0.871878	1.260194	2.197758	0.000000	0.121850	0.000000	-0.006524	-0.000867	0.000000	0.000000
65.053306	14.622350	21.504228	-1.304274	1.768959	2.265894	0.000000	0.185665	0.000000	-0.006944	-0.001041	0.000000	0.000000
65.494266	15.984029	19.748789	-1.796232	2.197250	2.362685	0.000000	0.251605	0.000000	-0.007444	-0.001227	0.000000	0.000000
65.940226	17.837156	17.633632	-2.374745	2.526162	2.490816	0.000000	0.320800	0.000000	-0.008035	-0.001427	0.000000	0.000000
66.489286	20.210094	15.267951	-1.922705	1.808383	2.647160	0.000000	0.245434	0.000000	-0.008745	-0.001155	0.000000	0.000000
67.038346	22.008811	13.615489	-1.334929	1.219385	2.760715	0.000000	0.165698	0.000000	-0.009300	-0.000863	0.000000	0.000000
67.587406	23.106353	12.558556	-0.652916	0.717223	2.829459	0.000000	0.083009	0.000000	-0.009690	-0.000555	0.000000	0.000000
68.136466	23.425261	12.021877	0.075183	0.266134	2.852168	0.000000	-0.001161	0.000000	-0.009908	-0.000238	0.000000	0.000000
68.435038	23.423608	11.850777	-0.003719	0.273052	2.854301	0.000000	0.006894	0.000000	-0.009987	-0.000265	0.000000	0.000000
68.768372	23.430831	11.678817	-0.017950	0.242827	2.856688	0.000000	0.006894	0.000000	-0.010075	-0.000265	0.000000	0.000000
69.101705	23.447541	11.527008	-0.032181	0.212602	2.859074	0.000000	0.006894	0.000000	-0.010164	-0.000265	0.000000	0.000000
69.436288	23.473855	11.394892	-0.046465	0.182264	2.861469	0.000000	0.006894	0.000000	-0.010252	-0.000265	0.000000	0.000000
69.733611	23.505333	11.294489	-0.125742	0.187254	2.863602	0.000000	0.015006	0.000000	-0.010331	-0.000293	0.000000	0.000000
70.282671	23.239773	11.315303	0.606531	-0.225390	2.848644	0.000000	-0.069659	0.000000	-0.010400	0.000043	0.000000	0.000000
