#ParticleID	Turn	x[m]	xp	y[m]	yp	z[m]	dE[GeV]# s	beta_x	beta_y	alpha_x	alpha_y	D_x	D_y	D_px	D_py	orbit_x	orbit_px	orbit_y	orbit_py
0.300000	11.934457	25.262135	-0.019702	-0.022447	2.603285	0.000000	0.000648	0.000000	-0.000610	0.000534	0.000000	0.000000
0.601250	11.953935	25.279254	-0.044954	-0.034378	2.603320	0.000000	0.000648	0.000000	-0.000449	0.000534	0.000000	0.000000
0.898573	11.988076	25.303198	-0.040398	-0.108181	2.603354	0.000000	-0.005753	0.000000	-0.000290	0.000534	0.000000	0.000000
1.339533	12.177288	25.117808	-0.390138	0.527007	2.616800	0.000000	0.067823	0.000000	-0.000056	0.000530	0.000000	0.000000
1.780493	12.681611	24.380704	-0.757705	1.138219	2.662830	0.000000	0.142166	0.000000	0.000178	0.000531	0.000000	0.000000
2.221453	13.524092	23.125419	-1.159895	1.697645	2.741964	0.000000	0.218122	0.000000	0.000414	0.000539	0.000000	0.000000
2.662413	14.743229	21.409063	-1.615083	2.179830	2.855103	0.000000	0.296557	0.000000	0.000654	0.000553	0.000000	0.000000
3.108373	16.415778	19.284576	-2.148426	2.563993	3.005385	0.000000	0.378854	0.000000	0.000905	0.000573	0.000000	0.000000
3.657433	18.559961	16.898153	-1.733306	1.807976	3.187987	0.000000	0.286364	0.000000	0.001211	0.000539	0.000000	0.000000
4.206493	20.177949	15.266767	-1.195737	1.180740	3.318358	0.000000	0.188803	0.000000	0.001495	0.000495	0.000000	0.000000
4.755553	21.155433	14.274222	-0.573692	0.637606	3.394189	0.000000	0.087900	0.000000	0.001753	0.000442	0.000000	0.000000
5.304613	21.423351	13.849825	0.088888	0.139887	3.414139	0.000000	-0.014554	0.000000	0.001979	0.000382	0.000000	0.000000
5.603185	21.407304	13.751725	0.019893	0.153174	3.412297	0.000000	-0.005782	0.000000	0.002095	0.000387	0.000000	0.000000
5.936519	21.399234	13.657878	0.004316	0.128366	3.410241	0.000000	-0.005782	0.000000	0.002224	0.000387	0.000000	0.000000
6.269852	21.401549	13.580570	-0.011261	0.103558	3.408184	0.000000	-0.005782	0.000000	0.002353	0.000387	0.000000	0.000000
6.604435	21.414316	13.519604	-0.026897	0.078657	3.406120	0.000000	-0.005782	0.000000	0.002482	0.000387	0.000000	0.000000
6.901758	21.434446	13.479407	-0.095568	0.091053	3.404286	0.000000	0.002917	0.000000	0.002597	0.000394	0.000000	0.000000
7.450818	21.173833	13.640964	0.567605	-0.387021	3.377655	0.000000	-0.099112	0.000000	0.002790	0.000306	0.000000	0.000000
7.999878	20.202721	14.339493	1.190687	-0.892664	3.295450	0.000000	-0.199378	0.000000	0.002933	0.000214	0.000000	0.000000
8.548938	18.589708	15.624756	1.729659	-1.461896	3.159132	0.000000	-0.296104	0.000000	0.003024	0.000117	0.000000	0.000000
9.097998	16.448746	17.588308	2.146443	-2.135266	2.971121	0.000000	-0.387576	0.000000	0.003061	0.000019	0.000000	0.000000
9.543958	14.778226	19.337762	1.612660	-1.770890	2.816476	0.000000	-0.306210	0.000000	0.003087	0.000098	0.000000	0.000000
9.984918	13.561517	20.709198	1.156970	-1.327250	2.698560	0.000000	-0.228825	0.000000	0.003148	0.000179	0.000000	0.000000
10.425878	12.721976	21.661133	0.754144	-0.823215	2.614127	0.000000	-0.154050	0.000000	0.003245	0.000261	0.000000	0.000000
10.866838	12.221241	22.150249	0.385775	-0.281720	2.562215	0.000000	-0.081031	0.000000	0.003379	0.000346	0.000000	0.000000
11.309048	12.036279	22.153731	0.063445	0.219912	2.542211	0.000000	-0.014963	0.000000	0.003551	0.000427	0.000000	0.000000
11.606371	12.005926	22.027144	0.038643	0.205842	2.537635	0.000000	-0.014963	0.000000	0.003679	0.000427	0.000000	0.000000
12.086371	11.988048	21.840439	-0.001397	0.183127	2.530248	0.000000	-0.014963	0.000000	0.003884	0.000427	0.000000	0.000000
12.566371	12.008608	21.675540	-0.041437	0.160412	2.522861	0.000000	-0.014963	0.000000	0.004089	0.000427	0.000000	0.000000
13.046371	12.067607	21.532448	-0.081477	0.137698	2.515474	0.000000	-0.014963	0.000000	0.004294	0.000427	0.000000	0.000000
13.526371	12.165044	21.411161	-0.121517	0.114983	2.508087	0.000000	-0.014963	0.000000	0.004499	0.000427	0.000000	0.000000
14.007621	12.301324	21.311449	-0.161661	0.092209	2.500680	0.000000	-0.014963	0.000000	0.004704	0.000427	0.000000	0.000000
14.304943	12.404820	21.260815	-0.157450	0.028538	2.496104	0.000000	-0.020800	0.000000	0.004832	0.000416	0.000000	0.000000
14.745903	12.702662	21.003084	-0.520333	0.553673	2.502317	0.000000	0.049927	0.000000	0.005043	0.000543	0.000000	0.000000
15.186863	13.329825	20.291574	-0.906997	1.053614	2.539759	0.000000	0.121218	0.000000	0.005311	0.000676	0.000000	0.000000
15.627823	14.314977	19.158657	-1.335115	1.505612	2.608855	0.000000	0.193882	0.000000	0.005640	0.000818	0.000000	0.000000
16.068783	15.703150	17.655882	-1.824253	1.889096	2.710388	0.000000	0.268746	0.000000	0.006034	0.000968	0.000000	0.000000
16.514743	17.581419	15.830099	-2.401649	2.187473	2.847212	0.000000	0.347144	0.000000	0.006502	0.001131	0.000000	0.000000
17.063803	19.992949	13.792103	-1.963471	1.545867	3.013621	0.000000	0.260025	0.000000	0.007063	0.000911	0.000000	0.000000
17.612863	21.843721	12.394474	-1.386543	1.014389	3.130980	0.000000	0.168307	0.000000	0.007499	0.000675	0.000000	0.000000
18.161923	23.002929	11.537653	-0.711631	0.555176	3.197210	0.000000	0.073615	0.000000	0.007802	0.000427	0.000000	0.000000
18.710983	23.388640	11.160606	0.013575	0.135514	3.211141	0.000000	-0.022377	0.000000	0.007967	0.000172	0.000000	0.000000
19.009556	23.418313	11.071694	-0.056160	0.135199	3.206734	0.000000	-0.014559	0.000000	0.008024	0.000192	0.000000	0.000000
19.342889	23.460513	10.991780	-0.070439	0.104542	3.201817	0.000000	-0.014559	0.000000	0.008088	0.000192	0.000000	0.000000
19.676223	23.512232	10.932304	-0.084718	0.073885	3.196901	0.000000	-0.014559	0.000000	0.008152	0.000192	0.000000	0.000000
20.010806	23.574010	10.893024	-0.215849	0.097084	3.191985	0.000000	0.001256	0.000000	0.008216	0.000232	0.000000	0.000000
20.308129	23.706336	10.843463	-0.286593	0.095893	3.192293	0.000000	0.009005	0.000000	0.008285	0.000253	0.000000	0.000000
20.857189	23.612323	10.958266	0.456864	-0.306193	3.170989	0.000000	-0.086257	0.000000	0.008350	-0.000016	0.000000	0.000000
21.406249	22.714677	11.523978	1.168039	-0.730094	3.097859	0.000000	-0.179990	0.000000	0.008267	-0.000285	0.000000	0.000000
21.955309	21.076839	12.580899	1.796674	-1.206010	2.974199	0.000000	-0.270534	0.000000	0.008038	-0.000550	0.000000	0.000000
22.504369	18.814566	14.204322	2.298346	-1.767844	2.802203	0.000000	-0.356287	0.000000	0.007665	-0.000804	0.000000	0.000000
22.950329	17.033306	15.662615	1.709158	-1.488006	2.660885	0.000000	-0.279108	0.000000	0.007350	-0.000609	0.000000	0.000000
23.391289	15.753797	16.826642	1.202955	-1.141431	2.554330	0.000000	-0.205581	0.000000	0.007123	-0.000423	0.000000	0.000000
23.832249	14.894966	17.660820	0.751732	-0.742911	2.479577	0.000000	-0.134393	0.000000	0.006977	-0.000241	0.000000	0.000000
24.273209	14.417556	18.127190	0.334867	-0.310584	2.435776	0.000000	-0.064732	0.000000	0.006910	-0.000062	0.000000	0.000000
24.715418	14.299848	18.204269	-0.034051	0.094110	2.422427	0.000000	-0.001354	0.000000	0.006922	0.000100	0.000000	0.000000
25.012741	14.326286	18.153206	-0.054867	0.077633	2.421995	0.000000	-0.001354	0.000000	0.006952	0.000100	0.000000	0.000000
25.346075	14.370643	18.107609	-0.078205	0.059160	2.421511	0.000000	-0.001354	0.000000	0.006985	0.000100	0.000000	0.000000
25.679408	14.430559	18.074326	-0.101542	0.040687	2.421026	0.000000	-0.001354	0.000000	0.007019	0.000100	0.000000	0.000000
26.013991	14.506050	18.053670	-0.007284	-0.124315	2.420515	0.000000	-0.020990	0.000000	0.007052	0.000043	0.000000	0.000000
26.311314	14.516455	18.132592	0.005395	-0.182473	2.414260	0.000000	-0.026508	0.000000	0.007065	0.000026	0.000000	0.000000
26.752274	14.690985	18.097056	-0.402604	0.262745	2.417639	0.000000	0.042077	0.000000	0.007116	0.000209	0.000000	0.000000
27.193234	15.232134	17.672626	-0.829004	0.696008	2.451264	0.000000	0.111138	0.000000	0.007249	0.000394	0.000000	0.000000
27.634194	16.164640	16.878613	-1.293295	1.097596	2.515514	0.000000	0.181462	0.000000	0.007465	0.000584	0.000000	0.000000
28.075154	17.531131	15.751148	-1.816698	1.449236	2.611121	0.000000	0.253847	0.000000	0.007765	0.000780	0.000000	0.000000
28.521114	19.417956	14.324464	-2.428222	1.735984	2.740786	0.000000	0.329586	0.000000	0.008159	0.000987	0.000000	0.000000
29.070174	21.816965	12.735472	-1.914179	1.174775	2.898619	0.000000	0.246051	0.000000	0.008626	0.000715	0.000000	0.000000
29.619234	23.573274	11.713517	-1.264863	0.697259	3.009463	0.000000	0.158162	0.000000	0.008941	0.000430	0.000000	0.000000
30.168294	24.562746	11.185800	-0.526159	0.269419	3.071357	0.000000	0.067475	0.000000	0.009097	0.000138	0.000000	0.000000
30.717354	24.715444	11.114727	0.249728	-0.139226	3.083204	0.000000	-0.024408	0.000000	0.009092	-0.000157	0.000000	0.000000
31.015927	24.605550	11.190010	0.177673	-0.139628	3.078170	0.000000	-0.016981	0.000000	0.009052	-0.000134	0.000000	0.000000
31.349260	24.491759	11.293219	0.163698	-0.169997	3.072555	0.000000	-0.016981	0.000000	0.009007	-0.000134	0.000000	0.000000
31.682593	24.387285	11.416673	0.149724	-0.200367	3.066939	0.000000	-0.016981	0.000000	0.008962	-0.000134	0.000000	0.000000
32.017177	24.291788	11.560951	0.135697	-0.230850	3.061303	0.000000	-0.016981	0.000000	0.008918	-0.000134	0.000000	0.000000
32.314499	24.214859	11.706252	0.064779	-0.229700	3.056297	0.000000	-0.009603	0.000000	0.008878	-0.000112	0.000000	0.000000
32.863559	23.729126	12.197291	0.814360	-0.669795	3.026206	0.000000	-0.100318	0.000000	0.008738	-0.000397	0.000000	0.000000
33.412619	22.446953	13.194878	1.506387	-1.157608	2.946865	0.000000	-0.189258	0.000000	0.008443	-0.000676	0.000000	0.000000
33.961679	20.458968	14.770078	2.091956	-1.727893	2.819677	0.000000	-0.274852	0.000000	0.007998	-0.000942	0.000000	0.000000
34.510739	17.905683	17.035099	2.529690	-2.421274	2.646892	0.000000	-0.355586	0.000000	0.007411	-0.001192	0.000000	0.000000
34.956699	15.921695	19.061340	1.934038	-2.102839	2.505160	0.000000	-0.282446	0.000000	0.006922	-0.001006	0.000000	0.000000
35.397659	14.442752	20.740208	1.431881	-1.689607	2.396415	0.000000	-0.212965	0.000000	0.006517	-0.000833	0.000000	0.000000
35.838619	13.376337	22.019166	0.995168	-1.199486	2.317680	0.000000	-0.145901	0.000000	0.006186	-0.000669	0.000000	0.000000
36.279579	12.673703	22.840019	0.603940	-0.654783	2.268060	0.000000	-0.080492	0.000000	0.005926	-0.000513	0.000000	0.000000
36.721789	12.302068	23.165733	0.268716	-0.133904	2.246966	0.000000	-0.021201	0.000000	0.005732	-0.000376	0.000000	0.000000
37.019112	12.149982	23.249242	0.242802	-0.146969	2.240775	0.000000	-0.021201	0.000000	0.005621	-0.000376	0.000000	0.000000
37.352445	11.997798	23.352104	0.213750	-0.161616	2.233833	0.000000	-0.021201	0.000000	0.005495	-0.000376	0.000000	0.000000
37.685779	11.864982	23.464730	0.184697	-0.176263	2.226891	0.000000	-0.021201	0.000000	0.005370	-0.000376	0.000000	0.000000
38.020362	11.751146	23.587598	0.155536	-0.190965	2.219923	0.000000	-0.021201	0.000000	0.005244	-0.000376	0.000000	0.000000
38.317684	11.666352	23.705057	0.156826	-0.259432	2.213731	0.000000	-0.026363	0.000000	0.005132	-0.000388	0.000000	0.000000
38.758644	11.677360	23.671177	-0.181989	0.335967	2.216219	0.000000	0.037036	0.000000	0.004990	-0.000258	0.000000	0.000000
39.199604	11.989737	23.116927	-0.529117	0.916077	2.246679	0.000000	0.100860	0.000000	0.004904	-0.000130	0.000000	0.000000
39.640564	12.617759	22.067530	-0.900424	1.454501	2.305456	0.000000	0.165834	0.000000	0.004875	-0.000004	0.000000	0.000000
40.081524	13.590124	20.570739	-1.312877	1.926736	2.393222	0.000000	0.232697	0.000000	0.004901	0.000122	0.000000	0.000000
40.527484	14.968806	18.671971	-1.789224	2.312718	2.512458	0.000000	0.302633	0.000000	0.004984	0.000250	0.000000	0.000000
41.076544	16.730300	16.537745	-1.399675	1.597003	2.657913	0.000000	0.226708	0.000000	0.005076	0.000087	0.000000	0.000000
41.625604	18.006779	15.122800	-0.911236	0.995054	2.760598	0.000000	0.146763	0.000000	0.005079	-0.000078	0.000000	0.000000
42.174664	18.708053	14.326340	-0.358420	0.463992	2.818691	0.000000	0.064213	0.000000	0.004991	-0.000241	0.000000	0.000000
42.723724	18.784574	14.091626	0.219714	-0.034015	2.831159	0.000000	-0.019481	0.000000	0.004815	-0.000400	0.000000	0.000000
43.022297	18.686357	14.097138	0.156272	-0.019808	2.827576	0.000000	-0.012386	0.000000	0.004700	-0.000387	0.000000	0.000000
43.502297	18.548966	14.132503	0.129958	-0.053871	2.821817	0.000000	-0.012386	0.000000	0.004514	-0.000387	0.000000	0.000000
43.982297	18.436838	14.200570	0.103643	-0.087934	2.816057	0.000000	-0.012386	0.000000	0.004328	-0.000387	0.000000	0.000000
44.462297	18.349971	14.301336	0.077329	-0.121996	2.810298	0.000000	-0.012386	0.000000	0.004142	-0.000387	0.000000	0.000000
44.942297	18.288367	14.434803	0.051014	-0.156059	2.804539	0.000000	-0.012386	0.000000	0.003956	-0.000387	0.000000	0.000000
45.423547	18.252188	14.601264	-0.065800	-0.117867	2.798782	0.000000	0.001481	0.000000	0.003770	-0.000369	0.000000	0.000000
45.720870	18.296188	14.677486	-0.128485	-0.101427	2.799332	0.000000	0.008569	0.000000	0.003660	-0.000359	0.000000	0.000000
46.269930	18.129017	15.072452	0.430918	-0.622132	2.781561	0.000000	-0.074004	0.000000	0.003431	-0.000474	0.000000	0.000000
46.818990	17.360658	16.060074	0.959870	-1.187153	2.718802	0.000000	-0.155271	0.000000	0.003141	-0.000581	0.000000	0.000000
47.368050	16.045409	17.710698	1.421002	-1.836737	2.612163	0.000000	-0.233794	0.000000	0.002796	-0.000677	0.000000	0.000000
47.917110	14.276200	20.141890	1.781739	-2.617154	2.463531	0.000000	-0.308180	0.000000	0.002400	-0.000761	0.000000	0.000000
48.363070	12.898490	22.302944	1.318143	-2.208194	2.341770	0.000000	-0.239561	0.000000	0.002074	-0.000703	0.000000	0.000000
48.804030	11.915782	24.032982	0.918573	-1.700113	2.250946	0.000000	-0.174070	0.000000	0.001776	-0.000653	0.000000	0.000000
49.244990	11.265718	25.278962	0.560978	-1.114675	2.188519	0.000000	-0.110554	0.000000	0.001497	-0.000611	0.000000	0.000000
49.685950	10.918589	25.984196	0.229018	-0.478521	2.153783	0.000000	-0.048291	0.000000	0.001236	-0.000576	0.000000	0.000000
50.128160	10.858693	26.116310	-0.066210	0.116113	2.146354	0.000000	0.008214	0.000000	0.000988	-0.000550	0.000000	0.000000
50.425482	10.906242	26.050694	-0.093711	0.104575	2.148959	0.000000	0.008214	0.000000	0.000824	-0.000550	0.000000	0.000000
50.758816	10.978993	25.985290	-0.124543	0.091639	2.151880	0.000000	0.008214	0.000000	0.000641	-0.000550	0.000000	0.000000
51.092149	11.072299	25.928509	-0.155375	0.078704	2.154801	0.000000	0.008214	0.000000	0.000458	-0.000550	0.000000	0.000000
51.426732	11.186399	25.880712	-0.095571	-0.144237	2.157711	0.000000	-0.009291	0.000000	0.000274	-0.000552	0.000000	0.000000
51.724055	11.251205	25.969969	-0.094831	-0.219789	2.155113	0.000000	-0.014570	0.000000	0.000110	-0.000552	0.000000	0.000000
52.165015	11.481407	25.874748	-0.429376	0.434907	2.162574	0.000000	0.047373	0.000000	-0.000133	-0.000552	0.000000	0.000000
52.605975	12.014148	25.208695	-0.783535	1.069812	2.197445	0.000000	0.109863	0.000000	-0.000378	-0.000559	0.000000	0.000000
53.046935	12.873761	24.002119	-1.173487	1.656041	2.260126	0.000000	0.173609	0.000000	-0.000627	-0.000572	0.000000	0.000000
53.487895	14.099513	22.309925	-1.617045	2.166920	2.351334	0.000000	0.239339	0.000000	-0.000884	-0.000591	0.000000	0.000000
53.933855	15.768359	20.183824	-2.138746	2.580526	2.473619	0.000000	0.308199	0.000000	-0.001153	-0.000618	0.000000	0.000000
54.482915	17.916528	17.791082	-1.750902	1.803166	2.622861	0.000000	0.233487	0.000000	-0.001481	-0.000575	0.000000	0.000000
55.031975	19.567960	16.176854	-1.239402	1.154240	2.729855	0.000000	0.154625	0.000000	-0.001783	-0.000522	0.000000	0.000000
55.581035	20.606031	15.226158	-0.640373	0.587525	2.792699	0.000000	0.073012	0.000000	-0.002053	-0.000460	0.000000	0.000000
56.130095	20.957437	14.871274	0.003875	0.062658	2.810274	0.000000	-0.009903	0.000000	-0.002286	-0.000390	0.000000	0.000000
56.428668	20.992706	14.816224	-0.066211	0.082049	2.809669	0.000000	-0.002420	0.000000	-0.002405	-0.000396	0.000000	0.000000
56.762001	21.042163	14.769074	-0.082159	0.059400	2.808994	0.000000	-0.002420	0.000000	-0.002537	-0.000396	0.000000	0.000000
57.095334	21.102252	14.737024	-0.098108	0.036751	2.808319	0.000000	-0.002420	0.000000	-0.002668	-0.000396	0.000000	0.000000
57.429918	21.173258	14.720038	-0.114115	0.014016	2.807642	0.000000	-0.002420	0.000000	-0.002801	-0.000396	0.000000	0.000000
57.727240	21.245351	14.717706	-0.185197	0.033117	2.807040	0.000000	0.005092	0.000000	-0.002919	-0.000404	0.000000	0.000000
58.276300	21.085663	14.963590	0.474113	-0.483607	2.787271	0.000000	-0.077681	0.000000	-0.003114	-0.000306	0.000000	0.000000
58.825360	20.216227	15.792342	1.099933	-1.034773	2.722314	0.000000	-0.159082	0.000000	-0.003254	-0.000203	0.000000	0.000000
59.374420	18.698453	17.262985	1.648065	-1.659636	2.613319	0.000000	-0.237664	0.000000	-0.003336	-0.000096	0.000000	0.000000
59.923480	16.639531	19.480258	2.079801	-2.402700	2.462218	0.000000	-0.312033	0.000000	-0.003359	0.000012	0.000000	0.000000
60.369440	15.026961	21.450793	1.549045	-1.997411	2.338427	0.000000	-0.243501	0.000000	-0.003372	-0.000075	0.000000	0.000000
60.810400	13.866253	22.999960	1.093247	-1.502559	2.245609	0.000000	-0.178130	0.000000	-0.003425	-0.000162	0.000000	0.000000
61.251360	13.084035	24.080803	0.687390	-0.939349	2.181180	0.000000	-0.114786	0.000000	-0.003516	-0.000252	0.000000	0.000000
61.692320	12.644573	24.644151	0.312935	-0.333405	2.144406	0.000000	-0.052746	0.000000	-0.003647	-0.000344	0.000000	0.000000
62.134530	12.527836	24.663804	-0.015501	0.225162	2.134877	0.000000	0.003274	0.000000	-0.003821	-0.000431	0.000000	0.000000
62.431853	12.544112	24.533678	-0.039240	0.212496	2.135978	0.000000	0.003274	0.000000	-0.003949	-0.000431	0.000000	0.000000
62.765186	12.579143	24.396747	-0.065854	0.198296	2.137213	0.000000	0.003274	0.000000	-0.004092	-0.000431	0.000000	0.000000
63.098520	12.631917	24.269284	-0.092468	0.184096	2.138448	0.000000	0.003274	0.000000	-0.004236	-0.000431	0.000000	0.000000
63.433103	12.702731	24.150862	-0.119181	0.169842	2.139688	0.000000	0.003274	0.000000	-0.004380	-0.000431	0.000000	0.000000
63.730426	12.780652	24.053646	-0.110259	0.095559	2.140788	0.000000	-0.002197	0.000000	-0.004508	-0.000420	0.000000	0.000000
64.171386	13.039951	23.704572	-0.480218	0.693103	2.153601	0.000000	0.059439	0.000000	-0.004719	-0.000539	0.000000	0.000000
64.612346	13.633877	22.840494	-0.872108	1.259114	2.193767	0.000000	0.121758	0.000000	-0.004984	-0.000664	0.000000	0.000000
65.053306	14.589554	21.500728	-1.303827	1.767842	2.261746	0.000000	0.185471	0.000000	-0.005306	-0.000796	0.000000	0.000000
65.494266	15.950620	19.746229	-1.795095	2.196144	2.358316	0.000000	0.251304	0.000000	-0.005688	-0.000938	0.000000	0.000000
65.940226	17.802499	17.632003	-2.372917	2.525151	2.486156	0.000000	0.320391	0.000000	-0.006140	-0.001091	0.000000	0.000000
66.489286	20.174274	15.267284	-1.922143	1.807511	2.642160	0.000000	0.245177	0.000000	-0.006683	-0.000884	0.000000	0.000000
67.038346	21.973216	13.615680	-1.335655	1.218596	2.755495	0.000000	0.165600	0.000000	-0.007107	-0.000660	0.000000	0.000000
67.587406	23.072330	12.559559	-0.654866	0.716463	2.824144	0.000000	0.083076	0.000000	-0.007406	-0.000425	0.000000	0.000000
68.136466	23.394032	12.023702	0.072155	0.265354	2.846888	0.000000	-0.000928	0.000000	-0.007573	-0.000183	0.000000	0.000000
68.435038	23.393486	11.853399	-0.005534	0.271706	2.849028	0.000000	0.006973	0.000000	-0.007633	-0.000203	0.000000	0.000000
68.768372	23.401925	11.682327	-0.019783	0.241509	2.851420	0.000000	0.006973	0.000000	-0.007701	-0.000203	0.000000	0.000000
69.101705	23.419864	11.531387	-0.034033	0.211311	2.853812	0.000000	0.006973	0.000000	-0.007769	-0.000203	0.000000	0.000000
69.436288	23.447423	11.400126	-0.048336	0.181001	2.856213	0.000000	0.006973	0.000000	-0.007836	-0.000203	0.000000	0.000000
69.733611	23.479988	11.300483	-0.126368	0.185469	2.858349	0.000000	0.014925	0.000000	-0.007897	-0.000224	0.000000	0.000000
70.282671	23.215543	11.323362	0.605140	-0.227389	2.843376	0.000000	-0.069575	0.000000	-0.007950	0.000032	0.000000	0.000000
