#ParticleID	Turn	x[m]	xp	y[m]	yp	z[m]	dE[GeV]# s	beta_x	beta_y	alpha_x	alpha_y	D_x	D_y	D_px	D_py	orbit_x	orbit_px	orbit_y	orbit_py
0.300000	11.962183	25.325983	-0.019832	-0.021693	2.599004	0.000000	0.000390	0.000000	-0.000890	0.000772	0.000000	0.000000
0.601250	11.981721	25.342638	-0.045026	-0.033593	2.598889	0.000000	0.000390	0.000000	-0.000657	0.000772	0.000000	0.000000
0.898573	12.015889	25.366106	-0.040305	-0.107515	2.598775	0.000000	-0.006008	0.000000	-0.000428	0.000773	0.000000	0.000000
1.339533	12.205333	25.179397	-0.390679	0.529320	2.611982	0.000000	0.067446	0.000000	-0.000088	0.000767	0.000000	0.000000
1.780493	12.710460	24.439563	-0.758908	1.142075	2.657717	0.000000	0.141661	0.000000	0.000250	0.000769	0.000000	0.000000
2.221453	13.554355	23.180257	-1.161816	1.702868	2.736499	0.000000	0.217481	0.000000	0.000591	0.000779	0.000000	0.000000
2.662413	14.775581	21.458770	-1.617812	2.186183	2.849221	0.000000	0.295770	0.000000	0.000939	0.000799	0.000000	0.000000
3.108373	16.451036	19.328204	-2.152105	2.571199	2.999010	0.000000	0.377910	0.000000	0.001301	0.000828	0.000000	0.000000
3.657433	18.598737	16.934849	-1.735843	1.813440	3.181023	0.000000	0.285634	0.000000	0.001743	0.000779	0.000000	0.000000
4.206493	20.218880	15.298222	-1.196946	1.184851	3.310936	0.000000	0.188303	0.000000	0.002154	0.000716	0.000000	0.000000
4.755553	21.196994	14.301756	-0.573480	0.640658	3.386451	0.000000	0.087644	0.000000	0.002527	0.000640	0.000000	0.000000
5.304613	21.463964	13.874482	0.090512	0.142098	3.406233	0.000000	-0.014559	0.000000	0.002855	0.000553	0.000000	0.000000
5.603185	21.446751	13.775199	0.021853	0.155169	3.404311	0.000000	-0.005874	0.000000	0.003022	0.000560	0.000000	0.000000
5.936519	21.437366	13.680013	0.006303	0.130389	3.402167	0.000000	-0.005874	0.000000	0.003208	0.000560	0.000000	0.000000
6.269852	21.438347	13.601348	-0.009247	0.105608	3.400022	0.000000	-0.005874	0.000000	0.003395	0.000560	0.000000	0.000000
6.604435	21.449757	13.539000	-0.024855	0.080734	3.397869	0.000000	-0.005874	0.000000	0.003583	0.000560	0.000000	0.000000
6.901758	21.468670	13.497559	-0.093038	0.092889	3.395957	0.000000	0.002717	0.000000	0.003749	0.000570	0.000000	0.000000
7.450818	21.204713	13.657382	0.571217	-0.385677	3.369207	0.000000	-0.099044	0.000000	0.004028	0.000444	0.000000	0.000000
7.999878	20.229175	14.354675	1.195126	-0.891720	3.287050	0.000000	-0.199041	0.000000	0.004235	0.000310	0.000000	0.000000
8.548938	18.610969	15.639114	1.734608	-1.461286	3.150949	0.000000	-0.295502	0.000000	0.004367	0.000171	0.000000	0.000000
9.097998	16.464420	17.602199	2.151548	-2.134951	2.963319	0.000000	-0.386718	0.000000	0.004422	0.000028	0.000000	0.000000
9.543958	14.789686	19.351166	1.616976	-1.770037	2.809000	0.000000	-0.305542	0.000000	0.004460	0.000143	0.000000	0.000000
9.984918	13.569413	20.721667	1.160736	-1.325929	2.691308	0.000000	-0.228345	0.000000	0.004549	0.000259	0.000000	0.000000
10.425878	12.726726	21.672271	0.757535	-0.821484	2.607003	0.000000	-0.153751	0.000000	0.004689	0.000379	0.000000	0.000000
10.866838	12.223118	22.159717	0.388948	-0.279655	2.555123	0.000000	-0.080913	0.000000	0.004883	0.000502	0.000000	0.000000
11.309048	12.035423	22.161248	0.066090	0.222969	2.535057	0.000000	-0.014913	0.000000	0.005133	0.000619	0.000000	0.000000
11.606371	12.003500	22.032847	0.041278	0.208886	2.530439	0.000000	-0.014913	0.000000	0.005317	0.000619	0.000000	0.000000
12.086371	11.983100	21.843230	0.001222	0.186150	2.522983	0.000000	-0.014913	0.000000	0.005614	0.000619	0.000000	0.000000
12.566371	12.001154	21.675440	-0.038835	0.163413	2.515528	0.000000	-0.014913	0.000000	0.005911	0.000619	0.000000	0.000000
13.046371	12.057663	21.529476	-0.078891	0.140677	2.508072	0.000000	-0.014913	0.000000	0.006208	0.000619	0.000000	0.000000
13.526371	12.152626	21.405340	-0.118948	0.117941	2.500617	0.000000	-0.014913	0.000000	0.006505	0.000619	0.000000	0.000000
14.007621	12.286441	21.302792	-0.159109	0.095145	2.493142	0.000000	-0.014913	0.000000	0.006803	0.000619	0.000000	0.000000
14.304943	12.388414	21.250432	-0.155586	0.032636	2.488522	0.000000	-0.020605	0.000000	0.006987	0.000602	0.000000	0.000000
14.745903	12.684476	20.989224	-0.518049	0.557411	2.494688	0.000000	0.049930	0.000000	0.007293	0.000786	0.000000	0.000000
15.186863	13.309469	20.274615	-0.904194	1.056822	2.531974	0.000000	0.121026	0.000000	0.007682	0.000979	0.000000	0.000000
15.627823	14.291969	19.139119	-1.331672	1.508141	2.600802	0.000000	0.193491	0.000000	0.008158	0.001184	0.000000	0.000000
16.068783	15.676898	17.634400	-1.820022	1.890828	2.701952	0.000000	0.268147	0.000000	0.008728	0.001401	0.000000	0.000000
16.514743	17.551206	15.807338	-2.396500	2.188383	2.838268	0.000000	0.346333	0.000000	0.009405	0.001636	0.000000	0.000000
17.063803	19.957674	13.768087	-1.959014	1.547095	3.004078	0.000000	0.259504	0.000000	0.010217	0.001319	0.000000	0.000000
17.612863	21.804267	12.368827	-1.383065	1.016030	3.121053	0.000000	0.168093	0.000000	0.010849	0.000977	0.000000	0.000000
18.161923	22.960443	11.509881	-0.709356	0.557352	3.187125	0.000000	0.073714	0.000000	0.011287	0.000618	0.000000	0.000000
18.710983	23.344457	11.130060	0.014496	0.138385	3.201128	0.000000	-0.021962	0.000000	0.011526	0.000249	0.000000	0.000000
19.009556	23.372333	11.040081	-0.053240	0.136979	3.196731	0.000000	-0.014430	0.000000	0.011609	0.000277	0.000000	0.000000
19.342889	23.412594	10.959014	-0.067543	0.106219	3.191828	0.000000	-0.014430	0.000000	0.011701	0.000277	0.000000	0.000000
19.676223	23.462390	10.898455	-0.081845	0.075460	3.186925	0.000000	-0.014430	0.000000	0.011794	0.000277	0.000000	0.000000
20.010806	23.522253	10.858155	-0.212743	0.098383	3.182024	0.000000	0.001335	0.000000	0.011887	0.000336	0.000000	0.000000
20.308129	23.652788	10.807827	-0.281348	0.096106	3.182328	0.000000	0.008788	0.000000	0.011987	0.000366	0.000000	0.000000
20.857189	23.553992	10.921871	0.460303	-0.305005	3.160961	0.000000	-0.086162	0.000000	0.012081	-0.000024	0.000000	0.000000
21.406249	22.653608	11.485737	1.169424	-0.727847	3.088002	0.000000	-0.179582	0.000000	0.011960	-0.000413	0.000000	0.000000
21.955309	21.015287	12.539596	1.795891	-1.202549	2.964742	0.000000	-0.269824	0.000000	0.011628	-0.000796	0.000000	0.000000
22.504369	18.754849	14.158529	2.295425	-1.762932	2.793365	0.000000	-0.355290	0.000000	0.011089	-0.001164	0.000000	0.000000
22.950329	16.975436	15.613007	1.707461	-1.484172	2.652571	0.000000	-0.278317	0.000000	0.010633	-0.000882	0.000000	0.000000
23.391289	15.696773	16.774274	1.202486	-1.138907	2.546413	0.000000	-0.204994	0.000000	0.010304	-0.000612	0.000000	0.000000
23.832249	14.837753	17.606885	0.752481	-0.741809	2.471936	0.000000	-0.134000	0.000000	0.010092	-0.000349	0.000000	0.000000
24.273209	14.359099	18.072950	0.336872	-0.310951	2.428293	0.000000	-0.064529	0.000000	0.009996	-0.000090	0.000000	0.000000
24.715418	14.239050	18.150974	-0.031900	0.093760	2.414989	0.000000	-0.001139	0.000000	0.010013	0.000144	0.000000	0.000000
25.012741	14.264233	18.100133	-0.052802	0.077235	2.414607	0.000000	-0.001139	0.000000	0.010056	0.000144	0.000000	0.000000
25.346075	14.307246	18.054818	-0.076236	0.058709	2.414179	0.000000	-0.001139	0.000000	0.010104	0.000144	0.000000	0.000000
25.679408	14.365881	18.021854	-0.099669	0.040183	2.413751	0.000000	-0.001139	0.000000	0.010152	0.000144	0.000000	0.000000
26.013991	14.440153	18.001552	-0.006043	-0.124450	2.413298	0.000000	-0.020718	0.000000	0.010200	0.000062	0.000000	0.000000
26.311314	14.449824	18.080597	0.005286	-0.181153	2.407116	0.000000	-0.026035	0.000000	0.010219	0.000038	0.000000	0.000000
26.752274	14.623785	18.044513	-0.401159	0.262660	2.410643	0.000000	0.042373	0.000000	0.010294	0.000302	0.000000	0.000000
27.193234	15.163003	17.620760	-0.825944	0.694518	2.444303	0.000000	0.111261	0.000000	0.010486	0.000570	0.000000	0.000000
27.634194	16.092137	16.828621	-1.288486	1.094769	2.508479	0.000000	0.181410	0.000000	0.010798	0.000845	0.000000	0.000000
28.075154	17.453672	15.704142	-1.809931	1.445195	2.603900	0.000000	0.253617	0.000000	0.011232	0.001129	0.000000	0.000000
28.521114	19.333759	14.281398	-2.419270	1.730979	2.733266	0.000000	0.329182	0.000000	0.011802	0.001427	0.000000	0.000000
29.070174	21.724547	12.697019	-1.907787	1.171174	2.890749	0.000000	0.245886	0.000000	0.012479	0.001034	0.000000	0.000000
29.619234	23.475632	11.678308	-1.261452	0.694815	3.001442	0.000000	0.158244	0.000000	0.012935	0.000622	0.000000	0.000000
30.168294	24.463211	11.152690	-0.525951	0.267963	3.063385	0.000000	0.067804	0.000000	0.013160	0.000199	0.000000	0.000000
30.717354	24.617460	11.082720	0.246726	-0.139797	3.075483	0.000000	-0.023836	0.000000	0.013153	-0.000227	0.000000	0.000000
31.015927	24.507782	11.159062	0.177179	-0.141397	3.070542	0.000000	-0.016717	0.000000	0.013095	-0.000195	0.000000	0.000000
31.349260	24.394339	11.263483	0.163150	-0.171865	3.065035	0.000000	-0.016717	0.000000	0.013030	-0.000195	0.000000	0.000000
31.682593	24.290248	11.388216	0.149122	-0.202333	3.059527	0.000000	-0.016717	0.000000	0.012965	-0.000195	0.000000	0.000000
32.017177	24.195171	11.533843	0.135042	-0.232916	3.053999	0.000000	-0.016717	0.000000	0.012900	-0.000195	0.000000	0.000000
32.314499	24.118707	11.680369	0.066522	-0.232998	3.049094	0.000000	-0.009636	0.000000	0.012842	-0.000163	0.000000	0.000000
32.863559	23.632716	12.174754	0.812954	-0.672575	3.019105	0.000000	-0.100130	0.000000	0.012639	-0.000576	0.000000	0.000000
33.412619	22.353630	13.175259	1.501918	-1.160073	2.940048	0.000000	-0.188856	0.000000	0.012212	-0.000978	0.000000	0.000000
33.961679	20.371884	14.753160	2.084716	-1.730226	2.813322	0.000000	-0.274247	0.000000	0.011568	-0.001364	0.000000	0.000000
34.510739	17.827588	17.020865	2.520159	-2.423653	2.641166	0.000000	-0.354794	0.000000	0.010719	-0.001725	0.000000	0.000000
34.956699	15.850889	19.049655	1.926627	-2.105867	2.499958	0.000000	-0.281781	0.000000	0.010010	-0.001456	0.000000	0.000000
35.397659	14.377504	20.731534	1.426318	-1.693216	2.391649	0.000000	-0.212424	0.000000	0.009423	-0.001205	0.000000	0.000000
35.838619	13.315172	22.013923	0.991210	-1.203507	2.313267	0.000000	-0.145474	0.000000	0.008945	-0.000969	0.000000	0.000000
36.279579	12.615316	22.838468	0.601414	-0.659029	2.263922	0.000000	-0.080171	0.000000	0.008567	-0.000743	0.000000	0.000000
36.721789	12.245293	23.167949	0.266627	-0.136710	2.243033	0.000000	-0.020833	0.000000	0.008287	-0.000545	0.000000	0.000000
37.019112	12.094477	23.253130	0.240620	-0.149783	2.237001	0.000000	-0.020833	0.000000	0.008125	-0.000545	0.000000	0.000000
37.352445	11.943783	23.357871	0.211464	-0.164440	2.230239	0.000000	-0.020833	0.000000	0.007944	-0.000545	0.000000	0.000000
37.685779	11.812526	23.472383	0.182307	-0.179096	2.223476	0.000000	-0.020833	0.000000	0.007762	-0.000545	0.000000	0.000000
38.020362	11.700324	23.597151	0.153041	-0.193808	2.216688	0.000000	-0.020833	0.000000	0.007580	-0.000545	0.000000	0.000000
38.317684	11.617032	23.716323	0.153488	-0.261070	2.210654	0.000000	-0.025867	0.000000	0.007418	-0.000563	0.000000	0.000000
38.758644	11.630486	23.683742	-0.184267	0.334669	2.213408	0.000000	0.037460	0.000000	0.007211	-0.000374	0.000000	0.000000
39.199604	11.944443	23.130448	-0.530440	0.915176	2.244078	0.000000	0.101218	0.000000	0.007087	-0.000190	0.000000	0.000000
39.640564	12.573248	22.081623	-0.900853	1.454035	2.303015	0.000000	0.166131	0.000000	0.007044	-0.000008	0.000000	0.000000
40.081524	13.545642	20.584998	-1.312436	1.926723	2.390891	0.000000	0.232937	0.000000	0.007080	0.000175	0.000000	0.000000
40.527484	14.923624	18.685940	-1.787937	2.313212	2.510193	0.000000	0.302823	0.000000	0.007200	0.000360	0.000000	0.000000
41.076544	16.684739	16.551318	-1.400139	1.597111	2.655737	0.000000	0.226965	0.000000	0.007333	0.000124	0.000000	0.000000
41.625604	17.962718	15.136413	-0.913410	0.994792	2.758583	0.000000	0.147082	0.000000	0.007336	-0.000113	0.000000	0.000000
42.174664	18.667251	14.340425	-0.362144	0.463344	2.816907	0.000000	0.064588	0.000000	0.007209	-0.000349	0.000000	0.000000
42.723724	18.748558	14.106645	0.214703	-0.035091	2.829671	0.000000	-0.019058	0.000000	0.006954	-0.000578	0.000000	0.000000
43.022297	18.652727	14.113165	0.152248	-0.021468	2.826222	0.000000	-0.012104	0.000000	0.006786	-0.000561	0.000000	0.000000
43.502297	18.519207	14.150107	0.125918	-0.055494	2.820682	0.000000	-0.012104	0.000000	0.006517	-0.000561	0.000000	0.000000
43.982297	18.410964	14.219714	0.099588	-0.089521	2.815141	0.000000	-0.012104	0.000000	0.006248	-0.000561	0.000000	0.000000
44.462297	18.327998	14.321986	0.073258	-0.123547	2.809601	0.000000	-0.012104	0.000000	0.005979	-0.000561	0.000000	0.000000
44.942297	18.270308	14.456924	0.046928	-0.157574	2.804060	0.000000	-0.012104	0.000000	0.005709	-0.000561	0.000000	0.000000
45.423547	18.238070	14.624826	-0.069832	-0.119228	2.798523	0.000000	0.001762	0.000000	0.005440	-0.000534	0.000000	0.000000
45.720870	18.284481	14.701843	-0.131846	-0.103268	2.799206	0.000000	0.008748	0.000000	0.005281	-0.000520	0.000000	0.000000
46.269930	18.121117	15.099277	0.427281	-0.624797	2.781631	0.000000	-0.073828	0.000000	0.004949	-0.000686	0.000000	0.000000
46.818990	17.356708	16.090383	0.956208	-1.190831	2.719089	0.000000	-0.155105	0.000000	0.004530	-0.000840	0.000000	0.000000
47.368050	16.045280	17.745751	1.417565	-1.841693	2.612683	0.000000	-0.233644	0.000000	0.004030	-0.000978	0.000000	0.000000
47.917110	14.279509	20.183287	1.778758	-2.623745	2.464294	0.000000	-0.308055	0.000000	0.003458	-0.001100	0.000000	0.000000
48.363070	12.904289	22.349889	1.315345	-2.213927	2.342734	0.000000	-0.239410	0.000000	0.002987	-0.001016	0.000000	0.000000
48.804030	11.923947	24.084542	0.915849	-1.704756	2.252110	0.000000	-0.173890	0.000000	0.002555	-0.000945	0.000000	0.000000
49.244990	11.276249	25.334069	0.558206	-1.118017	2.189890	0.000000	-0.110340	0.000000	0.002152	-0.000884	0.000000	0.000000
49.685950	10.931590	26.041624	0.226076	-0.480410	2.155369	0.000000	-0.048038	0.000000	0.001774	-0.000833	0.000000	0.000000
50.128160	10.874388	26.174730	-0.069527	0.115974	2.148169	0.000000	0.008528	0.000000	0.001415	-0.000796	0.000000	0.000000
50.425482	10.923900	26.109189	-0.097001	0.104462	2.150941	0.000000	0.008528	0.000000	0.001178	-0.000796	0.000000	0.000000
50.758816	10.998835	26.043850	-0.127802	0.091555	2.154049	0.000000	0.008528	0.000000	0.000913	-0.000796	0.000000	0.000000
51.092149	11.094304	25.987115	-0.158604	0.078649	2.157157	0.000000	0.008528	0.000000	0.000648	-0.000796	0.000000	0.000000
51.426732	11.210553	25.939347	-0.098573	-0.144738	2.160255	0.000000	-0.008997	0.000000	0.000382	-0.000799	0.000000	0.000000
51.724055	11.277131	26.028894	-0.097735	-0.220481	2.157818	0.000000	-0.014281	0.000000	0.000144	-0.000799	0.000000	0.000000
52.165015	11.510144	25.933593	-0.432951	0.435780	2.165528	0.000000	0.047735	0.000000	-0.000208	-0.000800	0.000000	0.000000
52.605975	12.046354	25.266094	-0.787942	1.072209	2.200682	0.000000	0.110304	0.000000	-0.000563	-0.000810	0.000000	0.000000
53.046935	12.910249	24.056775	-1.178924	1.659852	2.263685	0.000000	0.174139	0.000000	-0.000924	-0.000829	0.000000	0.000000
53.487895	14.141289	22.360666	-1.623760	2.171971	2.355257	0.000000	0.239965	0.000000	-0.001295	-0.000858	0.000000	0.000000
53.933855	15.816748	20.229599	-2.147043	2.586580	2.477962	0.000000	0.308929	0.000000	-0.001686	-0.000896	0.000000	0.000000
54.482915	17.973331	17.831171	-1.758002	1.807567	2.627706	0.000000	0.234071	0.000000	-0.002162	-0.000834	0.000000	0.000000
55.031975	19.631582	16.212888	-1.244812	1.157299	2.735106	0.000000	0.155048	0.000000	-0.002599	-0.000757	0.000000	0.000000
55.581035	20.674405	15.259478	-0.643719	0.589460	2.798250	0.000000	0.073262	0.000000	-0.002990	-0.000666	0.000000	0.000000
56.130095	21.028172	14.903025	0.002823	0.063607	2.816013	0.000000	-0.009834	0.000000	-0.003329	-0.000564	0.000000	0.000000
56.428668	21.064448	14.847127	-0.067880	0.083492	2.815505	0.000000	-0.002273	0.000000	-0.003500	-0.000573	0.000000	0.000000
56.762001	21.115000	14.799002	-0.083777	0.060884	2.814939	0.000000	-0.002273	0.000000	-0.003691	-0.000573	0.000000	0.000000
57.095334	21.176151	14.765948	-0.099674	0.038277	2.814372	0.000000	-0.002273	0.000000	-0.003881	-0.000573	0.000000	0.000000
57.429918	21.248188	14.747927	-0.115631	0.015584	2.813804	0.000000	-0.002273	0.000000	-0.004073	-0.000573	0.000000	0.000000
57.727240	21.321175	14.744648	-0.187477	0.035177	2.813299	0.000000	0.005336	0.000000	-0.004243	-0.000584	0.000000	0.000000
58.276300	21.162546	14.988678	0.474384	-0.482279	2.793693	0.000000	-0.077639	0.000000	-0.004526	-0.000442	0.000000	0.000000
58.825360	20.291395	15.816310	1.102733	-1.034080	2.728764	0.000000	-0.159244	0.000000	-0.004727	-0.000292	0.000000	0.000000
59.374420	18.769251	17.286483	1.653201	-1.659525	2.619661	0.000000	-0.238030	0.000000	-0.004845	-0.000137	0.000000	0.000000
59.923480	16.703603	19.503898	2.086916	-2.403158	2.468316	0.000000	-0.312597	0.000000	-0.004877	0.000020	0.000000	0.000000
60.369440	15.085480	21.474510	1.554452	-1.997161	2.344312	0.000000	-0.243917	0.000000	-0.004896	-0.000106	0.000000	0.000000
60.810400	13.920691	23.023100	1.097169	-1.501584	2.251367	0.000000	-0.178399	0.000000	-0.004971	-0.000233	0.000000	0.000000
61.251360	13.135603	24.102756	0.690003	-0.937697	2.186892	0.000000	-0.114910	0.000000	-0.005103	-0.000363	0.000000	0.000000
61.692320	12.694357	24.664363	0.314358	-0.331153	2.150153	0.000000	-0.052725	0.000000	-0.005292	-0.000497	0.000000	0.000000
62.134530	12.576842	24.681787	-0.014587	0.226974	2.140741	0.000000	0.003344	0.000000	-0.005543	-0.000623	0.000000	0.000000
62.431853	12.592546	24.550584	-0.038233	0.214307	2.141920	0.000000	0.003344	0.000000	-0.005728	-0.000623	0.000000	0.000000
62.765186	12.626871	24.412447	-0.064742	0.200106	2.143242	0.000000	0.003344	0.000000	-0.005936	-0.000623	0.000000	0.000000
63.098520	12.678870	24.283776	-0.091252	0.185905	2.144564	0.000000	0.003344	0.000000	-0.006143	-0.000623	0.000000	0.000000
63.433103	12.748835	24.164144	-0.117861	0.171651	2.145892	0.000000	0.003344	0.000000	-0.006352	-0.000623	0.000000	0.000000
63.730426	12.825935	24.065869	-0.108144	0.096171	2.147070	0.000000	-0.002241	0.000000	-0.006537	-0.000606	0.000000	0.000000
64.171386	13.083757	23.716136	-0.479070	0.694005	2.159988	0.000000	0.059555	0.000000	-0.006842	-0.000779	0.000000	0.000000
64.612346	13.677013	22.851176	-0.871870	1.260266	2.200355	0.000000	0.122038	0.000000	-0.007225	-0.000960	0.000000	0.000000
65.053306	14.632784	21.510345	-1.304484	1.769194	2.268632	0.000000	0.185920	0.000000	-0.007691	-0.001152	0.000000	0.000000
65.494266	15.994708	19.754649	-1.796665	2.197639	2.365601	0.000000	0.251932	0.000000	-0.008244	-0.001358	0.000000	0.000000
65.940226	17.848288	17.639092	-2.375397	2.526675	2.493956	0.000000	0.321201	0.000000	-0.008898	-0.001580	0.000000	0.000000
66.489286	20.221656	15.272969	-1.922962	1.808735	2.650564	0.000000	0.245732	0.000000	-0.009684	-0.001279	0.000000	0.000000
67.038346	22.020373	13.620221	-1.334781	1.219599	2.764308	0.000000	0.165885	0.000000	-0.010298	-0.000955	0.000000	0.000000
67.587406	23.117494	12.563139	-0.652380	0.717310	2.833162	0.000000	0.083081	0.000000	-0.010730	-0.000615	0.000000	0.000000
68.136466	23.435598	12.026439	0.076066	0.266100	2.855900	0.000000	-0.001207	0.000000	-0.010971	-0.000263	0.000000	0.000000
68.435038	23.433726	11.855196	-0.003375	0.273306	2.858049	0.000000	0.006921	0.000000	-0.011059	-0.000293	0.000000	0.000000
68.768372	23.440718	11.683065	-0.017600	0.243089	2.860454	0.000000	0.006921	0.000000	-0.011157	-0.000293	0.000000	0.000000
69.101705	23.457193	11.531078	-0.031825	0.212872	2.862859	0.000000	0.006921	0.000000	-0.011254	-0.000293	0.000000	0.000000
69.436288	23.483266	11.398779	-0.046103	0.182541	2.865273	0.000000	0.006921	0.000000	-0.011352	-0.000293	0.000000	0.000000
69.733611	23.514543	11.298202	-0.125938	0.187801	2.867423	0.000000	0.015110	0.000000	-0.011440	-0.000325	0.000000	0.000000
70.282671	23.249041	11.318466	0.606622	-0.224931	2.852497	0.000000	-0.069676	0.000000	-0.011516	0.000047	0.000000	0.000000
