#ParticleID	Turn	x[m]	xp	y[m]	yp	z[m]	dE[GeV]# s	beta_x	beta_y	alpha_x	alpha_y	D_x	D_y	D_px	D_py	orbit_x	orbit_px	orbit_y	orbit_py
0.300000	11.962382	25.284579	-0.017418	-0.022964	2.598907	0.000000	-0.000449	0.000000	-0.001107	0.000947	0.000000	0.000000
0.601250	11.980465	25.302006	-0.042609	-0.034885	2.598486	0.000000	-0.000449	0.000000	-0.000821	0.000947	0.000000	0.000000
0.898573	12.013194	25.326249	-0.037861	-0.108731	2.598071	0.000000	-0.006853	0.000000	-0.000540	0.000949	0.000000	0.000000
1.339533	12.200463	25.141071	-0.388110	0.527075	2.610826	0.000000	0.066578	0.000000	-0.000124	0.000940	0.000000	0.000000
1.780493	12.703254	24.403634	-0.756098	1.138903	2.656097	0.000000	0.140757	0.000000	0.000291	0.000942	0.000000	0.000000
2.221453	13.544547	23.147480	-1.158638	1.698915	2.734396	0.000000	0.216529	0.000000	0.000709	0.000955	0.000000	0.000000
2.662413	14.762792	21.429755	-1.614122	2.181629	2.846610	0.000000	0.294757	0.000000	0.001135	0.000979	0.000000	0.000000
3.108373	16.434707	19.303435	-2.147736	2.566257	2.995854	0.000000	0.376823	0.000000	0.001579	0.001014	0.000000	0.000000
3.657433	18.577772	16.914874	-1.731709	1.809577	3.177205	0.000000	0.284658	0.000000	0.002120	0.000954	0.000000	0.000000
4.206493	20.193698	15.282015	-1.193333	1.181792	3.306531	0.000000	0.187460	0.000000	0.002624	0.000877	0.000000	0.000000
4.755553	21.168305	14.288561	-0.570639	0.638186	3.381543	0.000000	0.086950	0.000000	0.003081	0.000785	0.000000	0.000000
5.304613	21.432719	13.863758	0.092385	0.140037	3.400917	0.000000	-0.015090	0.000000	0.003483	0.000679	0.000000	0.000000
5.603185	21.414165	13.765855	0.024082	0.152862	3.398780	0.000000	-0.006466	0.000000	0.003688	0.000688	0.000000	0.000000
5.936519	21.403302	13.672207	0.008507	0.128082	3.396396	0.000000	-0.006466	0.000000	0.003917	0.000688	0.000000	0.000000
6.269852	21.402822	13.595079	-0.007068	0.103301	3.394011	0.000000	-0.006466	0.000000	0.004147	0.000688	0.000000	0.000000
6.604435	21.412783	13.534276	-0.022701	0.078428	3.391618	0.000000	-0.006466	0.000000	0.004377	0.000688	0.000000	0.000000
6.901758	21.430426	13.494202	-0.090410	0.090349	3.389492	0.000000	0.002046	0.000000	0.004581	0.000699	0.000000	0.000000
7.450818	21.164337	13.656790	0.572512	-0.388196	3.362370	0.000000	-0.099502	0.000000	0.004923	0.000545	0.000000	0.000000
7.999878	20.188168	14.356928	1.194999	-0.894397	3.279976	0.000000	-0.199277	0.000000	0.005178	0.000382	0.000000	0.000000
8.548938	18.570879	15.644498	1.733065	-1.464315	3.143777	0.000000	-0.295510	0.000000	0.005341	0.000211	0.000000	0.000000
9.097998	16.426736	17.611229	2.148694	-2.138550	2.956189	0.000000	-0.386497	0.000000	0.005409	0.000037	0.000000	0.000000
9.543958	14.754128	19.363433	1.614994	-1.773603	2.801917	0.000000	-0.305499	0.000000	0.005457	0.000178	0.000000	0.000000
9.984918	13.535237	20.737033	1.159553	-1.329318	2.684182	0.000000	-0.228483	0.000000	0.005567	0.000320	0.000000	0.000000
10.425878	12.693261	21.690503	0.757099	-0.824540	2.599743	0.000000	-0.154073	0.000000	0.005740	0.000466	0.000000	0.000000
10.866838	12.189725	22.180453	0.389240	-0.282238	2.547637	0.000000	-0.081423	0.000000	0.005979	0.000617	0.000000	0.000000
11.309048	12.001466	22.184003	0.066714	0.221491	2.527248	0.000000	-0.015530	0.000000	0.006286	0.000760	0.000000	0.000000
11.606371	11.969194	22.056475	0.041830	0.207431	2.522404	0.000000	-0.015530	0.000000	0.006512	0.000760	0.000000	0.000000
12.086371	11.948320	21.868236	0.001657	0.184733	2.514585	0.000000	-0.015530	0.000000	0.006877	0.000760	0.000000	0.000000
12.566371	11.966013	21.701788	-0.038516	0.162034	2.506765	0.000000	-0.015530	0.000000	0.007242	0.000760	0.000000	0.000000
13.046371	12.022272	21.557131	-0.078690	0.139335	2.498946	0.000000	-0.015530	0.000000	0.007607	0.000760	0.000000	0.000000
13.526371	12.117097	21.434264	-0.118863	0.116636	2.491127	0.000000	-0.015530	0.000000	0.007971	0.000760	0.000000	0.000000
14.007621	12.250886	21.332954	-0.159141	0.093879	2.483287	0.000000	-0.015530	0.000000	0.008337	0.000760	0.000000	0.000000
14.304943	12.352890	21.281356	-0.156241	0.032171	2.478441	0.000000	-0.021105	0.000000	0.008563	0.000740	0.000000	0.000000
14.745903	12.649218	21.020177	-0.517925	0.557795	2.484261	0.000000	0.049169	0.000000	0.008939	0.000966	0.000000	0.000000
15.186863	13.273805	20.304844	-0.903289	1.058036	2.521068	0.000000	0.119993	0.000000	0.009416	0.001202	0.000000	0.000000
15.627823	14.255217	19.167902	-1.329948	1.510127	2.589275	0.000000	0.192172	0.000000	0.010001	0.001452	0.000000	0.000000
16.068783	15.638334	17.661082	-1.817408	1.893493	2.689656	0.000000	0.266524	0.000000	0.010700	0.001719	0.000000	0.000000
16.514743	17.510053	15.831280	-2.392921	2.191656	2.825037	0.000000	0.344389	0.000000	0.011530	0.002008	0.000000	0.000000
17.063803	19.913499	13.788870	-1.956798	1.549490	2.989727	0.000000	0.258000	0.000000	0.012527	0.001618	0.000000	0.000000
17.612863	21.758623	12.387330	-1.382348	1.017723	3.105871	0.000000	0.167060	0.000000	0.013302	0.001199	0.000000	0.000000
18.161923	22.914961	11.526820	-0.710175	0.558468	3.171418	0.000000	0.073175	0.000000	0.013841	0.000760	0.000000	0.000000
18.710983	23.300742	11.146036	0.012209	0.139006	3.185211	0.000000	-0.021996	0.000000	0.014134	0.000306	0.000000	0.000000
19.009556	23.329036	11.056086	-0.054029	0.136988	3.180712	0.000000	-0.014696	0.000000	0.014236	0.000341	0.000000	0.000000
19.342889	23.369833	10.974999	-0.068360	0.106273	3.175700	0.000000	-0.014696	0.000000	0.014349	0.000341	0.000000	0.000000
19.676223	23.420182	10.914388	-0.082690	0.075558	3.170687	0.000000	-0.014696	0.000000	0.014463	0.000341	0.000000	0.000000
20.010806	23.480619	10.874008	-0.213409	0.098604	3.165676	0.000000	0.000988	0.000000	0.014577	0.000413	0.000000	0.000000
20.308129	23.611608	10.823514	-0.280441	0.095728	3.165857	0.000000	0.008201	0.000000	0.014700	0.000449	0.000000	0.000000
20.857189	23.512551	10.938227	0.459888	-0.305845	3.144292	0.000000	-0.086219	0.000000	0.014815	-0.000029	0.000000	0.000000
21.406249	22.613290	11.503318	1.167711	-0.729211	3.071469	0.000000	-0.179110	0.000000	0.014668	-0.000507	0.000000	0.000000
21.955309	20.977407	12.559048	1.792990	-1.204538	2.948680	0.000000	-0.268830	0.000000	0.014260	-0.000976	0.000000	0.000000
22.504369	18.720571	14.180633	2.291524	-1.765692	2.778099	0.000000	-0.353796	0.000000	0.013600	-0.001427	0.000000	0.000000
22.950329	16.944068	15.637401	1.704438	-1.486330	2.637977	0.000000	-0.277198	0.000000	0.013041	-0.001081	0.000000	0.000000
23.391289	15.667632	16.800330	1.200261	-1.140416	2.532298	0.000000	-0.204241	0.000000	0.012637	-0.000750	0.000000	0.000000
23.832249	14.810210	17.633985	0.750959	-0.742597	2.458118	0.000000	-0.133604	0.000000	0.012377	-0.000428	0.000000	0.000000
24.273209	14.332589	18.100427	0.335988	-0.310979	2.414592	0.000000	-0.064483	0.000000	0.012259	-0.000110	0.000000	0.000000
24.715418	14.213074	18.178110	-0.033033	0.095434	2.401229	0.000000	-0.001280	0.000000	0.012280	0.000178	0.000000	0.000000
25.012741	14.238943	18.126268	-0.053974	0.078929	2.400795	0.000000	-0.001280	0.000000	0.012333	0.000178	0.000000	0.000000
25.346075	14.282753	18.079816	-0.077453	0.060425	2.400310	0.000000	-0.001280	0.000000	0.012392	0.000178	0.000000	0.000000
25.679408	14.342214	18.045701	-0.100931	0.041921	2.399824	0.000000	-0.001280	0.000000	0.012451	0.000178	0.000000	0.000000
26.013991	14.417346	18.024229	-0.007534	-0.122874	2.399312	0.000000	-0.020745	0.000000	0.012511	0.000076	0.000000	0.000000
26.311314	14.427891	18.102357	0.002893	-0.178566	2.393116	0.000000	-0.025895	0.000000	0.012533	0.000047	0.000000	0.000000
26.752274	14.603773	18.063730	-0.403109	0.265814	2.396609	0.000000	0.042156	0.000000	0.012626	0.000372	0.000000	0.000000
27.193234	15.144587	17.636982	-0.827542	0.698096	2.430053	0.000000	0.110683	0.000000	0.012862	0.000700	0.000000	0.000000
27.634194	16.075069	16.841532	-1.289811	1.098606	2.493828	0.000000	0.180464	0.000000	0.013245	0.001037	0.000000	0.000000
28.075154	17.437774	15.713579	-1.811051	1.449113	2.588655	0.000000	0.252290	0.000000	0.013778	0.001385	0.000000	0.000000
28.521114	19.319023	14.287252	-2.420309	1.734851	2.717227	0.000000	0.327461	0.000000	0.014478	0.001752	0.000000	0.000000
29.070174	21.711518	12.698874	-1.909496	1.174515	2.873767	0.000000	0.244692	0.000000	0.015308	0.001269	0.000000	0.000000
29.619234	23.464925	11.676631	-1.263690	0.697868	2.983860	0.000000	0.157603	0.000000	0.015868	0.000764	0.000000	0.000000
30.168294	24.455251	11.147694	-0.528544	0.270949	3.045560	0.000000	0.067728	0.000000	0.016145	0.000245	0.000000	0.000000
30.717354	24.612462	11.074379	0.243967	-0.136663	3.057774	0.000000	-0.023344	0.000000	0.016136	-0.000278	0.000000	0.000000
31.015927	24.503326	11.149352	0.176167	-0.139059	3.052913	0.000000	-0.016481	0.000000	0.016065	-0.000239	0.000000	0.000000
31.349260	24.390556	11.252216	0.162141	-0.169534	3.047498	0.000000	-0.016481	0.000000	0.015985	-0.000239	0.000000	0.000000
31.682593	24.287138	11.375398	0.148115	-0.200010	3.042084	0.000000	-0.016481	0.000000	0.015906	-0.000239	0.000000	0.000000
32.017177	24.192734	11.519472	0.134037	-0.230599	3.036650	0.000000	-0.016481	0.000000	0.015826	-0.000239	0.000000	0.000000
32.314499	24.116925	11.664594	0.067178	-0.231531	3.031831	0.000000	-0.009649	0.000000	0.015755	-0.000200	0.000000	0.000000
32.863559	23.630172	12.157117	0.813586	-0.670595	3.002029	0.000000	-0.099594	0.000000	0.015506	-0.000707	0.000000	0.000000
33.412619	22.350312	13.155145	1.502472	-1.157443	2.923505	0.000000	-0.187783	0.000000	0.014981	-0.001201	0.000000	0.000000
33.961679	20.367859	14.729781	2.085136	-1.726763	2.797646	0.000000	-0.272659	0.000000	0.014191	-0.001673	0.000000	0.000000
34.510739	17.822999	16.993203	2.520391	-2.419119	2.626675	0.000000	-0.352724	0.000000	0.013149	-0.002116	0.000000	0.000000
34.956699	15.845910	19.018242	1.926834	-2.101788	2.486458	0.000000	-0.280065	0.000000	0.012279	-0.001787	0.000000	0.000000
35.397659	14.372219	20.696872	1.426569	-1.689834	2.378957	0.000000	-0.211042	0.000000	0.011559	-0.001479	0.000000	0.000000
35.838619	13.309563	21.976679	0.991526	-1.200972	2.301217	0.000000	-0.144407	0.000000	0.010972	-0.001189	0.000000	0.000000
36.279579	12.609341	22.799429	0.601815	-0.657454	2.252357	0.000000	-0.079405	0.000000	0.010509	-0.000912	0.000000	0.000000
36.721789	12.238899	23.127952	0.266560	-0.134982	2.231804	0.000000	-0.020231	0.000000	0.010165	-0.000669	0.000000	0.000000
37.019112	12.088127	23.212111	0.240541	-0.148072	2.225988	0.000000	-0.020231	0.000000	0.009966	-0.000669	0.000000	0.000000
37.352445	11.937490	23.315717	0.211370	-0.162747	2.219468	0.000000	-0.020231	0.000000	0.009743	-0.000669	0.000000	0.000000
37.685779	11.806300	23.429107	0.182199	-0.177422	2.212947	0.000000	-0.020231	0.000000	0.009520	-0.000669	0.000000	0.000000
38.020362	11.694175	23.552761	0.152919	-0.192153	2.206402	0.000000	-0.020231	0.000000	0.009296	-0.000669	0.000000	0.000000
38.317684	11.610950	23.670973	0.152868	-0.258408	2.200583	0.000000	-0.025153	0.000000	0.009097	-0.000690	0.000000	0.000000
38.758644	11.624883	23.636576	-0.184771	0.336107	2.203641	0.000000	0.037922	0.000000	0.008844	-0.000459	0.000000	0.000000
39.199604	11.939239	23.082567	-0.530851	0.915324	2.234488	0.000000	0.101433	0.000000	0.008691	-0.000233	0.000000	0.000000
39.640564	12.568384	22.034163	-0.901192	1.452883	2.293477	0.000000	0.166102	0.000000	0.008638	-0.000010	0.000000	0.000000
40.081524	13.541077	20.539077	-1.312720	1.924320	2.381280	0.000000	0.232663	0.000000	0.008683	0.000214	0.000000	0.000000
40.527484	14.919365	18.642608	-1.788215	2.309700	2.500384	0.000000	0.302305	0.000000	0.008829	0.000441	0.000000	0.000000
41.076544	16.680944	16.511051	-1.400600	1.594917	2.645705	0.000000	0.226764	0.000000	0.008992	0.000152	0.000000	0.000000
41.625604	17.959543	15.097870	-0.914014	0.993765	2.748531	0.000000	0.147203	0.000000	0.008995	-0.000139	0.000000	0.000000
42.174664	18.664798	14.302385	-0.362844	0.463416	2.807038	0.000000	0.065027	0.000000	0.008839	-0.000428	0.000000	0.000000
42.723724	18.746875	14.067919	0.213957	-0.033916	2.820185	0.000000	-0.018309	0.000000	0.008526	-0.000710	0.000000	0.000000
43.022297	18.651072	14.074106	0.152178	-0.020923	2.816960	0.000000	-0.011479	0.000000	0.008321	-0.000688	0.000000	0.000000
43.502297	18.517621	14.110570	0.125846	-0.055043	2.811780	0.000000	-0.011479	0.000000	0.007991	-0.000688	0.000000	0.000000
43.982297	18.409448	14.179789	0.099514	-0.089163	2.806601	0.000000	-0.011479	0.000000	0.007660	-0.000688	0.000000	0.000000
44.462297	18.326553	14.281763	0.073182	-0.123283	2.801421	0.000000	-0.011479	0.000000	0.007330	-0.000688	0.000000	0.000000
44.942297	18.268937	14.416492	0.046851	-0.157403	2.796242	0.000000	-0.011479	0.000000	0.007000	-0.000688	0.000000	0.000000
45.423547	18.236775	14.584275	-0.069905	-0.119353	2.791066	0.000000	0.002350	0.000000	0.006668	-0.000655	0.000000	0.000000
45.720870	18.283237	14.661378	-0.131425	-0.103971	2.791961	0.000000	0.009242	0.000000	0.006474	-0.000639	0.000000	0.000000
46.269930	18.119386	15.058944	0.427666	-0.624324	2.774792	0.000000	-0.073108	0.000000	0.006067	-0.000842	0.000000	0.000000
46.818990	17.354528	16.048890	0.956526	-1.189151	2.712794	0.000000	-0.154175	0.000000	0.005552	-0.001030	0.000000	0.000000
47.368050	16.042727	17.701722	1.417787	-1.838686	2.607059	0.000000	-0.232524	0.000000	0.004939	-0.001200	0.000000	0.000000
47.917110	14.276696	20.135166	1.778862	-2.619199	2.459456	0.000000	-0.306767	0.000000	0.004238	-0.001349	0.000000	0.000000
48.363070	12.901318	22.298261	1.315468	-2.210591	2.338545	0.000000	-0.238236	0.000000	0.003660	-0.001246	0.000000	0.000000
48.804030	11.920807	24.030585	0.916013	-1.702796	2.248510	0.000000	-0.172816	0.000000	0.003130	-0.001159	0.000000	0.000000
49.244990	11.272906	25.279036	0.558423	-1.117522	2.186832	0.000000	-0.109352	0.000000	0.002636	-0.001085	0.000000	0.000000
49.685950	10.928000	25.986815	0.226355	-0.481401	2.152813	0.000000	-0.047122	0.000000	0.002171	-0.001023	0.000000	0.000000
50.128160	10.870492	26.121441	-0.069260	0.113928	2.146084	0.000000	0.009407	0.000000	0.001731	-0.000976	0.000000	0.000000
50.425482	10.919848	26.057123	-0.096743	0.102398	2.149171	0.000000	0.009407	0.000000	0.001440	-0.000976	0.000000	0.000000
50.758816	10.994614	25.993166	-0.127554	0.089471	2.152633	0.000000	0.009407	0.000000	0.001115	-0.000976	0.000000	0.000000
51.092149	11.089920	25.937827	-0.158365	0.076545	2.156094	0.000000	0.009407	0.000000	0.000789	-0.000976	0.000000	0.000000
51.426732	11.206013	25.891472	-0.098381	-0.146474	2.159546	0.000000	-0.008113	0.000000	0.000463	-0.000980	0.000000	0.000000
51.724055	11.272480	25.982060	-0.097572	-0.222180	2.157425	0.000000	-0.013395	0.000000	0.000171	-0.000981	0.000000	0.000000
52.165015	11.505276	25.888800	-0.432678	0.432871	2.165602	0.000000	0.048618	0.000000	-0.000261	-0.000982	0.000000	0.000000
52.605975	12.041163	25.224353	-0.787545	1.068222	2.201225	0.000000	0.111195	0.000000	-0.000696	-0.000994	0.000000	0.000000
53.046935	12.904615	24.018964	-1.178384	1.654968	2.264704	0.000000	0.175049	0.000000	-0.001139	-0.001018	0.000000	0.000000
53.487895	14.135069	22.327483	-1.623049	2.166413	2.356766	0.000000	0.240907	0.000000	-0.001596	-0.001053	0.000000	0.000000
53.933855	15.809761	20.201592	-2.146117	2.580592	2.479986	0.000000	0.309916	0.000000	-0.002075	-0.001101	0.000000	0.000000
54.482915	17.965373	17.809026	-1.757289	1.802841	2.630357	0.000000	0.234984	0.000000	-0.002660	-0.001024	0.000000	0.000000
55.031975	19.622918	16.195408	-1.244368	1.153499	2.738328	0.000000	0.155867	0.000000	-0.003197	-0.000929	0.000000	0.000000
55.581035	20.665359	15.245797	-0.643581	0.586315	2.801977	0.000000	0.073970	0.000000	-0.003677	-0.000818	0.000000	0.000000
56.130095	21.019100	14.892546	0.002641	0.060892	2.820168	0.000000	-0.009251	0.000000	-0.004092	-0.000692	0.000000	0.000000
56.428668	21.055674	14.838128	-0.068389	0.081015	2.819890	0.000000	-0.001633	0.000000	-0.004302	-0.000703	0.000000	0.000000
56.762001	21.106569	14.791655	-0.084294	0.058403	2.819580	0.000000	-0.001633	0.000000	-0.004536	-0.000703	0.000000	0.000000
57.095334	21.168066	14.760257	-0.100199	0.035791	2.819270	0.000000	-0.001633	0.000000	-0.004770	-0.000703	0.000000	0.000000
57.429918	21.240458	14.743900	-0.116164	0.013094	2.818959	0.000000	-0.001633	0.000000	-0.005005	-0.000703	0.000000	0.000000
57.727240	21.313769	14.742099	-0.188437	0.032954	2.818684	0.000000	0.006049	0.000000	-0.005214	-0.000717	0.000000	0.000000
58.276300	21.156296	14.988546	0.473183	-0.484491	2.799482	0.000000	-0.077104	0.000000	-0.005560	-0.000542	0.000000	0.000000
58.825360	20.286545	15.818660	1.101375	-1.036438	2.734840	0.000000	-0.158899	0.000000	-0.005808	-0.000358	0.000000	0.000000
59.374420	18.765942	17.291553	1.651784	-1.662193	2.625899	0.000000	-0.237882	0.000000	-0.005952	-0.000168	0.000000	0.000000
59.923480	16.701863	19.512117	2.085545	-2.406322	2.474590	0.000000	-0.312649	0.000000	-0.005991	0.000026	0.000000	0.000000
60.369440	15.084879	21.485566	1.553270	-2.000357	2.350602	0.000000	-0.243812	0.000000	-0.006014	-0.000130	0.000000	0.000000
60.810400	13.921094	23.036898	1.096092	-1.504640	2.257757	0.000000	-0.178133	0.000000	-0.006106	-0.000286	0.000000	0.000000
61.251360	13.136929	24.119119	0.688981	-0.940476	2.193465	0.000000	-0.114478	0.000000	-0.006267	-0.000445	0.000000	0.000000
61.692320	12.696569	24.682999	0.313343	-0.333530	2.156996	0.000000	-0.052122	0.000000	-0.006499	-0.000610	0.000000	0.000000
62.134530	12.579953	24.702297	-0.015277	0.224405	2.147945	0.000000	0.004046	0.000000	-0.006807	-0.000764	0.000000	0.000000
62.431853	12.596066	24.572614	-0.038917	0.211762	2.149375	0.000000	0.004046	0.000000	-0.007034	-0.000764	0.000000	0.000000
62.765186	12.630845	24.436164	-0.065420	0.197589	2.150978	0.000000	0.004046	0.000000	-0.007289	-0.000764	0.000000	0.000000
63.098520	12.683293	24.309163	-0.091924	0.183415	2.152582	0.000000	0.004046	0.000000	-0.007543	-0.000764	0.000000	0.000000
63.433103	12.753706	24.191187	-0.118526	0.169189	2.154191	0.000000	0.004046	0.000000	-0.007799	-0.000764	0.000000	0.000000
63.730426	12.831192	24.094384	-0.108365	0.092810	2.155619	0.000000	-0.001633	0.000000	-0.008026	-0.000744	0.000000	0.000000
64.171386	13.089227	23.747267	-0.479404	0.691474	2.168921	0.000000	0.060386	0.000000	-0.008401	-0.000956	0.000000	0.000000
64.612346	13.682786	22.884149	-0.872330	1.258680	2.209788	0.000000	0.123103	0.000000	-0.008871	-0.001178	0.000000	0.000000
65.053306	14.638959	21.544303	-1.305085	1.768628	2.278690	0.000000	0.187234	0.000000	-0.009441	-0.001414	0.000000	0.000000
65.494266	16.001394	19.788688	-1.797429	2.198122	2.376415	0.000000	0.253512	0.000000	-0.010120	-0.001666	0.000000	0.000000
65.940226	17.855653	17.672257	-2.376299	2.528159	2.505682	0.000000	0.323063	0.000000	-0.010923	-0.001939	0.000000	0.000000
66.489286	20.229749	15.305025	-1.923681	1.809410	2.663373	0.000000	0.247203	0.000000	-0.011888	-0.001570	0.000000	0.000000
67.038346	22.029000	13.652012	-1.335285	1.219506	2.777939	0.000000	0.166933	0.000000	-0.012641	-0.001172	0.000000	0.000000
67.587406	23.126446	12.595491	-0.652648	0.716439	2.847339	0.000000	0.083685	0.000000	-0.013171	-0.000754	0.000000	0.000000
68.136466	23.444661	12.060221	0.076046	0.264386	2.870335	0.000000	-0.001060	0.000000	-0.013467	-0.000323	0.000000	0.000000
68.435038	23.443490	11.889566	-0.004616	0.272404	2.872601	0.000000	0.007256	0.000000	-0.013574	-0.000360	0.000000	0.000000
68.768372	23.451307	11.718002	-0.018834	0.242288	2.875140	0.000000	0.007256	0.000000	-0.013694	-0.000360	0.000000	0.000000
69.101705	23.468603	11.566515	-0.033053	0.212172	2.877679	0.000000	0.007256	0.000000	-0.013814	-0.000360	0.000000	0.000000
69.436288	23.495496	11.434651	-0.047326	0.181943	2.880227	0.000000	0.007256	0.000000	-0.013935	-0.000360	0.000000	0.000000
69.733611	23.527545	11.334380	-0.128441	0.187987	2.882499	0.000000	0.015640	0.000000	-0.014042	-0.000399	0.000000	0.000000
70.282671	23.264558	11.354985	0.604566	-0.225744	2.867749	0.000000	-0.069630	0.000000	-0.014135	0.000058	0.000000	0.000000
