#ParticleID	Turn	x[m]	xp	y[m]	yp	z[m]	dE[GeV]# s	beta_x	beta_y	alpha_x	alpha_y	D_x	D_y	D_px	D_py	orbit_x	orbit_px	orbit_y	orbit_py
0.300000	11.924433	25.084366	-0.011055	-0.027391	2.604873	0.000000	-0.002308	0.000000	-0.001289	0.001078	0.000000	0.000000
0.601250	11.938705	25.104490	-0.036322	-0.039409	2.603853	0.000000	-0.002308	0.000000	-0.000965	0.001078	0.000000	0.000000
0.898573	11.967718	25.131451	-0.031732	-0.112887	2.602846	0.000000	-0.008730	0.000000	-0.000644	0.001080	0.000000	0.000000
1.339533	12.149094	24.952195	-0.380783	0.517855	2.614744	0.000000	0.064813	0.000000	-0.000171	0.001069	0.000000	0.000000
1.780493	12.644794	24.224976	-0.747239	1.125040	2.659203	0.000000	0.139082	0.000000	0.000301	0.001071	0.000000	0.000000
2.221453	13.477476	22.982871	-1.147843	1.681039	2.736725	0.000000	0.214924	0.000000	0.000775	0.001085	0.000000	0.000000
2.662413	14.685194	21.282385	-1.600900	2.160554	2.848188	0.000000	0.293203	0.000000	0.001259	0.001111	0.000000	0.000000
3.108373	16.344031	19.175937	-2.131461	2.542945	2.996691	0.000000	0.375301	0.000000	0.001763	0.001150	0.000000	0.000000
3.657433	18.470367	16.809912	-1.717620	1.791591	3.177132	0.000000	0.283123	0.000000	0.002377	0.001083	0.000000	0.000000
4.206493	20.072527	15.194473	-1.182421	1.167852	3.305553	0.000000	0.185940	0.000000	0.002948	0.000997	0.000000	0.000000
4.755553	21.037299	14.214567	-0.563672	0.627298	3.379683	0.000000	0.085475	0.000000	0.003468	0.000893	0.000000	0.000000
5.304613	21.296499	13.800405	0.094918	0.131426	3.398213	0.000000	-0.016492	0.000000	0.003926	0.000773	0.000000	0.000000
5.603185	21.276127	13.707845	0.027078	0.143900	3.395618	0.000000	-0.007908	0.000000	0.004160	0.000783	0.000000	0.000000
5.936519	21.263302	13.620185	0.011399	0.119079	3.392721	0.000000	-0.007908	0.000000	0.004421	0.000783	0.000000	0.000000
6.269852	21.260928	13.549072	-0.004279	0.094259	3.389824	0.000000	-0.007908	0.000000	0.004682	0.000783	0.000000	0.000000
6.604435	21.269057	13.494333	-0.020017	0.069345	3.386916	0.000000	-0.007908	0.000000	0.004944	0.000783	0.000000	0.000000
6.901758	21.285135	13.459670	-0.087167	0.080982	3.384333	0.000000	0.000545	0.000000	0.005176	0.000796	0.000000	0.000000
7.450818	21.018200	13.632076	0.570847	-0.396814	3.356389	0.000000	-0.100824	0.000000	0.005566	0.000622	0.000000	0.000000
7.999878	20.046527	14.341557	1.188544	-0.902882	3.273289	0.000000	-0.200395	0.000000	0.005858	0.000437	0.000000	0.000000
8.548938	18.438760	15.638662	1.722276	-1.473272	3.136510	0.000000	-0.296404	0.000000	0.006045	0.000244	0.000000	0.000000
9.097998	16.308496	17.615798	2.134328	-2.148620	2.948484	0.000000	-0.387151	0.000000	0.006125	0.000047	0.000000	0.000000
9.543958	14.647165	19.377344	1.603948	-1.784347	2.793866	0.000000	-0.306353	0.000000	0.006182	0.000207	0.000000	0.000000
9.984918	13.436740	20.760554	1.151313	-1.340251	2.675691	0.000000	-0.229549	0.000000	0.006308	0.000368	0.000000	0.000000
10.425878	12.600936	21.723577	0.751290	-0.835163	2.590708	0.000000	-0.155363	0.000000	0.006506	0.000533	0.000000	0.000000
10.866838	12.101558	22.222587	0.385597	-0.292067	2.537947	0.000000	-0.082953	0.000000	0.006779	0.000704	0.000000	0.000000
11.309048	11.915642	22.234303	0.064631	0.213205	2.516783	0.000000	-0.017244	0.000000	0.007130	0.000867	0.000000	0.000000
11.606371	11.884659	22.111678	0.039575	0.199225	2.511398	0.000000	-0.017244	0.000000	0.007387	0.000867	0.000000	0.000000
12.086371	11.866084	21.931255	-0.000877	0.176656	2.502706	0.000000	-0.017244	0.000000	0.007803	0.000867	0.000000	0.000000
12.566371	11.886342	21.772499	-0.041328	0.154086	2.494013	0.000000	-0.017244	0.000000	0.008219	0.000867	0.000000	0.000000
13.046371	11.945434	21.635410	-0.081780	0.131516	2.485320	0.000000	-0.017244	0.000000	0.008635	0.000867	0.000000	0.000000
13.526371	12.043360	21.519987	-0.122231	0.108947	2.476627	0.000000	-0.017244	0.000000	0.009051	0.000867	0.000000	0.000000
14.007621	12.180525	21.426016	-0.162788	0.086318	2.467911	0.000000	-0.017244	0.000000	0.009468	0.000867	0.000000	0.000000
14.304943	12.284742	21.378903	-0.160562	0.025107	2.462523	0.000000	-0.022712	0.000000	0.009726	0.000844	0.000000	0.000000
14.745903	12.584271	21.122745	-0.520839	0.553509	2.467493	0.000000	0.047142	0.000000	0.010154	0.001100	0.000000	0.000000
15.186863	13.210895	20.409877	-0.904930	1.056724	2.503245	0.000000	0.117523	0.000000	0.010698	0.001369	0.000000	0.000000
15.627823	14.193274	19.272732	-1.330395	1.511847	2.570183	0.000000	0.189227	0.000000	0.011364	0.001653	0.000000	0.000000
16.068783	15.576340	17.763052	-1.816688	1.898165	2.669063	0.000000	0.263070	0.000000	0.012159	0.001957	0.000000	0.000000
16.514743	17.447024	15.927747	-2.391031	2.199121	2.802678	0.000000	0.340385	0.000000	0.013104	0.002284	0.000000	0.000000
17.063803	19.849910	13.878669	-1.957434	1.554150	2.965245	0.000000	0.254751	0.000000	0.014239	0.001841	0.000000	0.000000
17.612863	21.697212	12.473354	-1.385451	1.019914	3.079726	0.000000	0.164626	0.000000	0.015121	0.001366	0.000000	0.000000
18.161923	22.858292	11.611690	-0.715514	0.558350	3.144100	0.000000	0.071602	0.000000	0.015734	0.000866	0.000000	0.000000
18.710983	23.251032	11.232290	0.005018	0.136571	3.157234	0.000000	-0.022679	0.000000	0.016069	0.000350	0.000000	0.000000
19.009556	23.282889	11.143936	-0.060078	0.134464	3.152452	0.000000	-0.015587	0.000000	0.016185	0.000389	0.000000	0.000000
19.342889	23.327730	11.064444	-0.074446	0.104012	3.147126	0.000000	-0.015587	0.000000	0.016315	0.000389	0.000000	0.000000
19.676223	23.382150	11.005254	-0.088814	0.073559	3.141801	0.000000	-0.015587	0.000000	0.016445	0.000389	0.000000	0.000000
20.010806	23.446697	10.966122	-0.219405	0.097326	3.136475	0.000000	-0.000047	0.000000	0.016575	0.000471	0.000000	0.000000
20.308129	23.581311	10.916296	-0.285291	0.094389	3.136333	0.000000	0.006948	0.000000	0.016715	0.000512	0.000000	0.000000
20.857189	23.488090	11.033912	0.454188	-0.309817	3.114326	0.000000	-0.086514	0.000000	0.016847	-0.000032	0.000000	0.000000
21.406249	22.595335	11.604950	1.161562	-0.736102	3.041623	0.000000	-0.178441	0.000000	0.016680	-0.000575	0.000000	0.000000
21.955309	20.966177	12.670097	1.786818	-1.214841	2.919513	0.000000	-0.267211	0.000000	0.016217	-0.001108	0.000000	0.000000
22.504369	18.715825	14.305242	2.285751	-1.780145	2.750157	0.000000	-0.351256	0.000000	0.015466	-0.001622	0.000000	0.000000
22.950329	16.944084	15.773621	1.699189	-1.497635	2.611077	0.000000	-0.275362	0.000000	0.014831	-0.001229	0.000000	0.000000
23.391289	15.672060	16.944994	1.195339	-1.148113	2.506108	0.000000	-0.203086	0.000000	0.014373	-0.000852	0.000000	0.000000
23.832249	14.818880	17.783732	0.746143	-0.746334	2.432322	0.000000	-0.133115	0.000000	0.014078	-0.000485	0.000000	0.000000
24.273209	14.345521	18.251665	0.331062	-0.310584	2.388880	0.000000	-0.064656	0.000000	0.013944	-0.000124	0.000000	0.000000
24.715418	14.230514	18.327141	-0.038851	0.100381	2.375291	0.000000	-0.001960	0.000000	0.013969	0.000204	0.000000	0.000000
25.012741	14.259838	18.272322	-0.059776	0.083995	2.374647	0.000000	-0.001960	0.000000	0.014029	0.000204	0.000000	0.000000
25.346075	14.307508	18.222449	-0.083235	0.065624	2.373926	0.000000	-0.001960	0.000000	0.014097	0.000204	0.000000	0.000000
25.679408	14.370817	18.184824	-0.106694	0.047252	2.373205	0.000000	-0.001960	0.000000	0.014165	0.000204	0.000000	0.000000
26.013991	14.449799	18.159742	-0.013015	-0.118508	2.372456	0.000000	-0.021207	0.000000	0.014233	0.000088	0.000000	0.000000
26.311314	14.463570	18.235258	-0.003086	-0.173561	2.366118	0.000000	-0.026198	0.000000	0.014260	0.000056	0.000000	0.000000
26.752274	14.645160	18.190633	-0.410097	0.274356	2.369311	0.000000	0.041155	0.000000	0.014366	0.000425	0.000000	0.000000
27.193234	15.192727	17.754917	-0.835860	0.709786	2.402126	0.000000	0.108974	0.000000	0.014635	0.000799	0.000000	0.000000
27.634194	16.131320	16.947938	-1.299842	1.112910	2.464936	0.000000	0.178025	0.000000	0.015072	0.001182	0.000000	0.000000
28.075154	17.503872	15.806420	-1.823262	1.465378	2.558453	0.000000	0.249092	0.000000	0.015680	0.001578	0.000000	0.000000
28.521114	19.397392	14.364879	-2.435335	1.752379	2.685335	0.000000	0.323466	0.000000	0.016476	0.001996	0.000000	0.000000
29.070174	21.805632	12.759195	-1.922709	1.188597	2.839863	0.000000	0.241758	0.000000	0.017423	0.001446	0.000000	0.000000
29.619234	23.572219	11.722874	-1.274138	0.709513	2.948577	0.000000	0.155784	0.000000	0.018060	0.000871	0.000000	0.000000
30.168294	24.572209	11.182080	-0.535479	0.280989	3.009557	0.000000	0.067059	0.000000	0.018377	0.000281	0.000000	0.000000
30.717354	24.734873	11.098284	0.241040	-0.127511	3.021723	0.000000	-0.022851	0.000000	0.018368	-0.000315	0.000000	0.000000
31.015927	24.626782	11.168102	0.174356	-0.130330	3.016943	0.000000	-0.016231	0.000000	0.018287	-0.000270	0.000000	0.000000
31.349260	24.515193	11.265107	0.160409	-0.160684	3.011623	0.000000	-0.016231	0.000000	0.018197	-0.000270	0.000000	0.000000
31.682593	24.412902	11.382347	0.146463	-0.191038	3.006302	0.000000	-0.016231	0.000000	0.018107	-0.000270	0.000000	0.000000
32.017177	24.319578	11.520377	0.132463	-0.221505	3.000962	0.000000	-0.016231	0.000000	0.018016	-0.000270	0.000000	0.000000
32.314499	24.244737	11.660034	0.066647	-0.222950	2.996231	0.000000	-0.009635	0.000000	0.017936	-0.000227	0.000000	0.000000
32.863559	23.756169	12.142872	0.817329	-0.661408	2.966783	0.000000	-0.098437	0.000000	0.017652	-0.000804	0.000000	0.000000
33.412619	22.469875	13.130211	1.510216	-1.146997	2.889270	0.000000	-0.185506	0.000000	0.017055	-0.001366	0.000000	0.000000
33.961679	20.476834	14.692394	2.096320	-1.714319	2.765061	0.000000	-0.269304	0.000000	0.016156	-0.001905	0.000000	0.000000
34.510739	17.918006	16.940717	2.534207	-2.403795	2.596348	0.000000	-0.348355	0.000000	0.014970	-0.002409	0.000000	0.000000
34.956699	15.929807	18.952238	1.937660	-2.086733	2.458019	0.000000	-0.276451	0.000000	0.013980	-0.002033	0.000000	0.000000
35.397659	14.447587	20.618023	1.434970	-1.675785	2.352047	0.000000	-0.208139	0.000000	0.013161	-0.001683	0.000000	0.000000
35.838619	13.378385	21.886147	0.997893	-1.188566	2.275514	0.000000	-0.142181	0.000000	0.012492	-0.001353	0.000000	0.000000
36.279579	12.673293	22.698906	0.606442	-0.647253	2.227553	0.000000	-0.077828	0.000000	0.011966	-0.001037	0.000000	0.000000
36.721789	12.299435	23.019544	0.269371	-0.126389	2.207604	0.000000	-0.019153	0.000000	0.011574	-0.000761	0.000000	0.000000
37.019112	12.146964	23.098602	0.243443	-0.139512	2.202136	0.000000	-0.019153	0.000000	0.011348	-0.000761	0.000000	0.000000
37.352445	11.994357	23.196514	0.214375	-0.154224	2.196005	0.000000	-0.019153	0.000000	0.011095	-0.000761	0.000000	0.000000
37.685779	11.861130	23.304234	0.185307	-0.168935	2.189875	0.000000	-0.019153	0.000000	0.010841	-0.000761	0.000000	0.000000
38.020362	11.746890	23.422221	0.156130	-0.183702	2.183721	0.000000	-0.019153	0.000000	0.010587	-0.000761	0.000000	0.000000
38.317684	11.661720	23.535434	0.155926	-0.248992	2.178249	0.000000	-0.023958	0.000000	0.010360	-0.000785	0.000000	0.000000
38.758644	11.673450	23.494342	-0.182840	0.341811	2.181742	0.000000	0.038548	0.000000	0.010073	-0.000521	0.000000	0.000000
39.199604	11.986564	22.937032	-0.529959	0.917055	2.212762	0.000000	0.101499	0.000000	0.009900	-0.000264	0.000000	0.000000
39.640564	12.615373	21.888871	-0.901299	1.450562	2.271664	0.000000	0.165608	0.000000	0.009839	-0.000009	0.000000	0.000000
40.081524	13.588622	20.397562	-1.313834	1.918050	2.359121	0.000000	0.231605	0.000000	0.009891	0.000245	0.000000	0.000000
40.527484	14.968432	18.508303	-1.790420	2.299771	2.477606	0.000000	0.300669	0.000000	0.010058	0.000504	0.000000	0.000000
41.076544	16.731452	16.385354	-1.400926	1.589009	2.622213	0.000000	0.225876	0.000000	0.010245	0.000175	0.000000	0.000000
41.625604	18.009380	14.976631	-0.912432	0.991461	2.724761	0.000000	0.147077	0.000000	0.010249	-0.000157	0.000000	0.000000
42.174664	18.711895	14.181768	-0.359463	0.464554	2.783430	0.000000	0.065666	0.000000	0.010072	-0.000487	0.000000	0.000000
42.723724	18.789352	13.944131	0.218898	-0.029253	2.797177	0.000000	-0.016918	0.000000	0.009717	-0.000807	0.000000	0.000000
43.022297	18.690338	13.947994	0.157539	-0.017110	2.794355	0.000000	-0.010220	0.000000	0.009483	-0.000783	0.000000	0.000000
43.502297	18.551734	13.980943	0.131220	-0.051534	2.789825	0.000000	-0.010220	0.000000	0.009107	-0.000783	0.000000	0.000000
43.982297	18.438396	14.046939	0.104901	-0.085958	2.785295	0.000000	-0.010220	0.000000	0.008731	-0.000783	0.000000	0.000000
44.462297	18.350325	14.145982	0.078581	-0.120381	2.780766	0.000000	-0.010220	0.000000	0.008356	-0.000783	0.000000	0.000000
44.942297	18.287520	14.278072	0.052262	-0.154805	2.776236	0.000000	-0.010220	0.000000	0.007980	-0.000783	0.000000	0.000000
45.423547	18.250143	14.443502	-0.064547	-0.117756	2.771711	0.000000	0.003512	0.000000	0.007603	-0.000745	0.000000	0.000000
45.720870	18.293418	14.519708	-0.125692	-0.103235	2.772979	0.000000	0.010301	0.000000	0.007381	-0.000727	0.000000	0.000000
46.269930	18.123093	14.914142	0.433597	-0.619314	2.756611	0.000000	-0.071449	0.000000	0.006918	-0.000958	0.000000	0.000000
46.818990	17.351762	15.896102	0.962231	-1.179511	2.695750	0.000000	-0.151948	0.000000	0.006332	-0.001173	0.000000	0.000000
47.368050	16.033952	17.535525	1.422860	-1.823731	2.591466	0.000000	-0.229770	0.000000	0.005634	-0.001367	0.000000	0.000000
47.917110	14.262808	19.949181	1.782937	-2.597864	2.445601	0.000000	-0.303538	0.000000	0.004836	-0.001536	0.000000	0.000000
48.363070	12.883827	22.095163	1.319403	-2.193678	2.326130	0.000000	-0.235345	0.000000	0.004177	-0.001420	0.000000	0.000000
48.804030	11.899802	23.814823	0.920003	-1.691070	2.237372	0.000000	-0.170228	0.000000	0.003574	-0.001320	0.000000	0.000000
49.244990	11.248265	25.055432	0.562651	-1.111516	2.176841	0.000000	-0.107036	0.000000	0.003011	-0.001235	0.000000	0.000000
49.685950	10.899431	25.760551	0.231018	-0.481389	2.143851	0.000000	-0.045049	0.000000	0.002483	-0.001164	0.000000	0.000000
50.128160	10.837511	25.897833	-0.064093	0.108683	2.138049	0.000000	0.011293	0.000000	0.001981	-0.001111	0.000000	0.000000
50.425482	10.883814	25.836659	-0.091640	0.097067	2.141737	0.000000	0.011293	0.000000	0.001651	-0.001111	0.000000	0.000000
50.758816	10.955202	25.776288	-0.122524	0.084044	2.145871	0.000000	0.011293	0.000000	0.001280	-0.001111	0.000000	0.000000
51.092149	11.047179	25.724600	-0.153408	0.071021	2.150006	0.000000	0.011293	0.000000	0.000910	-0.001111	0.000000	0.000000
51.426732	11.159980	25.681970	-0.093870	-0.150396	2.154134	0.000000	-0.006183	0.000000	0.000538	-0.001116	0.000000	0.000000
51.724055	11.223791	25.774922	-0.093276	-0.225730	2.152627	0.000000	-0.011452	0.000000	0.000206	-0.001116	0.000000	0.000000
52.165015	11.452256	25.687199	-0.427159	0.423910	2.161694	0.000000	0.050449	0.000000	-0.000286	-0.001117	0.000000	0.000000
52.605975	11.982626	25.032901	-0.780548	1.054258	2.198162	0.000000	0.112936	0.000000	-0.000781	-0.001131	0.000000	0.000000
53.046935	12.839120	23.841809	-1.169589	1.636635	2.262451	0.000000	0.176721	0.000000	-0.001285	-0.001158	0.000000	0.000000
53.487895	14.060855	22.168128	-1.612053	2.144545	2.355300	0.000000	0.242532	0.000000	-0.001804	-0.001197	0.000000	0.000000
53.933855	15.724532	20.062967	-2.132388	2.556174	2.479300	0.000000	0.311512	0.000000	-0.002349	-0.001251	0.000000	0.000000
54.482915	17.866166	17.693970	-1.745791	1.784097	2.630627	0.000000	0.236587	0.000000	-0.003013	-0.001164	0.000000	0.000000
55.031975	19.512646	16.098456	-1.235917	1.139093	2.739544	0.000000	0.157447	0.000000	-0.003624	-0.001057	0.000000	0.000000
55.581035	20.547724	15.162770	-0.638778	0.575220	2.804110	0.000000	0.075498	0.000000	-0.004170	-0.000931	0.000000	0.000000
56.130095	20.898329	14.820256	0.003453	0.052319	2.823174	0.000000	-0.007806	0.000000	-0.004642	-0.000788	0.000000	0.000000
56.428668	20.934392	14.770980	-0.067578	0.072375	2.823369	0.000000	-0.000145	0.000000	-0.004881	-0.000800	0.000000	0.000000
56.762001	20.984776	14.730292	-0.083573	0.049690	2.823587	0.000000	-0.000145	0.000000	-0.005148	-0.000800	0.000000	0.000000
57.095334	21.045824	14.704727	-0.099569	0.027005	2.823805	0.000000	-0.000145	0.000000	-0.005415	-0.000800	0.000000	0.000000
57.429918	21.117824	14.694275	-0.115624	0.004235	2.824024	0.000000	-0.000145	0.000000	-0.005683	-0.000800	0.000000	0.000000
57.727240	21.190843	14.697758	-0.187960	0.024109	2.824220	0.000000	0.007594	0.000000	-0.005920	-0.000816	0.000000	0.000000
58.276300	21.035087	14.953288	0.469550	-0.492294	2.805862	0.000000	-0.075751	0.000000	-0.006315	-0.000618	0.000000	0.000000
58.825360	20.171466	15.791644	1.093890	-1.043752	2.741938	0.000000	-0.157763	0.000000	-0.006597	-0.000409	0.000000	0.000000
59.374420	18.660972	17.272523	1.640976	-1.669539	2.633578	0.000000	-0.236983	0.000000	-0.006762	-0.000192	0.000000	0.000000
59.923480	16.610265	19.501380	2.072181	-2.414220	2.482701	0.000000	-0.312004	0.000000	-0.006807	0.000028	0.000000	0.000000
60.369440	15.003906	21.482374	1.542726	-2.009325	2.359053	0.000000	-0.242956	0.000000	-0.006834	-0.000149	0.000000	0.000000
60.810400	13.848382	23.041905	1.087846	-1.514240	2.266647	0.000000	-0.177054	0.000000	-0.006939	-0.000327	0.000000	0.000000
61.251360	13.070619	24.132698	0.682655	-0.950273	2.202904	0.000000	-0.113165	0.000000	-0.007123	-0.000508	0.000000	0.000000
61.692320	12.635095	24.705133	0.308646	-0.343079	2.167101	0.000000	-0.050559	0.000000	-0.007388	-0.000695	0.000000	0.000000
62.134530	12.521981	24.732596	-0.018448	0.214984	2.158842	0.000000	0.005805	0.000000	-0.007738	-0.000870	0.000000	0.000000
62.431853	12.540014	24.608496	-0.042201	0.202407	2.160827	0.000000	0.005805	0.000000	-0.007997	-0.000870	0.000000	0.000000
62.765186	12.577024	24.478258	-0.068830	0.188306	2.163052	0.000000	0.005805	0.000000	-0.008287	-0.000870	0.000000	0.000000
63.098520	12.631786	24.357421	-0.095458	0.174206	2.165277	0.000000	0.005805	0.000000	-0.008577	-0.000870	0.000000	0.000000
63.433103	12.704607	24.245583	-0.122187	0.160053	2.167510	0.000000	0.005805	0.000000	-0.008869	-0.000870	0.000000	0.000000
63.730426	12.784296	24.154207	-0.111951	0.082955	2.169492	0.000000	0.000037	0.000000	-0.009127	-0.000847	0.000000	0.000000
64.171386	13.045023	23.815009	-0.481997	0.683448	2.183661	0.000000	0.062423	0.000000	-0.009553	-0.001088	0.000000	0.000000
64.612346	13.640439	22.958039	-0.874046	1.252848	2.225573	0.000000	0.125531	0.000000	-0.010088	-0.001341	0.000000	0.000000
65.053306	14.597721	21.622290	-1.305999	1.765257	2.295712	0.000000	0.190083	0.000000	-0.010738	-0.001609	0.000000	0.000000
65.494266	15.960558	19.868534	-1.797578	2.197367	2.394881	0.000000	0.256817	0.000000	-0.011510	-0.001896	0.000000	0.000000
65.940226	17.814551	17.751590	-2.375641	2.530051	2.525837	0.000000	0.326860	0.000000	-0.012424	-0.002206	0.000000	0.000000
66.489286	20.188757	15.383308	-1.924759	1.809535	2.685553	0.000000	0.250318	0.000000	-0.013522	-0.001786	0.000000	0.000000
67.038346	21.990017	13.731160	-1.338036	1.217868	2.801725	0.000000	0.169308	0.000000	-0.014379	-0.001334	0.000000	0.000000
67.587406	23.091249	12.677481	-0.656888	0.712918	2.872284	0.000000	0.085276	0.000000	-0.014982	-0.000859	0.000000	0.000000
68.136466	23.414772	12.147232	0.070609	0.258729	2.895970	0.000000	-0.000283	0.000000	-0.015319	-0.000368	0.000000	0.000000
68.435038	23.417288	11.979469	-0.010859	0.267728	2.898535	0.000000	0.008216	0.000000	-0.015442	-0.000410	0.000000	0.000000
68.768372	23.429272	11.810923	-0.025095	0.237908	2.901411	0.000000	0.008216	0.000000	-0.015579	-0.000410	0.000000	0.000000
69.101705	23.450747	11.662258	-0.039331	0.208088	2.904286	0.000000	0.008216	0.000000	-0.015715	-0.000410	0.000000	0.000000
69.436288	23.481847	11.533027	-0.053621	0.178156	2.907172	0.000000	0.008216	0.000000	-0.015853	-0.000410	0.000000	0.000000
69.733611	23.517684	11.434910	-0.135638	0.185194	2.909748	0.000000	0.016792	0.000000	-0.015975	-0.000455	0.000000	0.000000
70.282671	23.262729	11.460129	0.597213	-0.231407	2.895401	0.000000	-0.069362	0.000000	-0.016082	0.000064	0.000000	0.000000
