#ParticleID	Turn	x[m]	xp	y[m]	yp	z[m]	dE[GeV]# s	beta_x	beta_y	alpha_x	alpha_y	D_x	D_y	D_px	D_py	orbit_x	orbit_px	orbit_y	orbit_py
0.300000	11.872454	25.065804	-0.016372	-0.025646	2.612699	0.000000	0.000264	0.000000	-0.000217	0.000190	0.000000	0.000000
0.601250	11.889964	25.084879	-0.041753	-0.037673	2.612721	0.000000	0.000264	0.000000	-0.000159	0.000190	0.000000	0.000000
0.898573	11.922240	25.110810	-0.037537	-0.111113	2.612743	0.000000	-0.006149	0.000000	-0.000103	0.000190	0.000000	0.000000
1.339533	12.108192	24.930237	-0.385697	0.519054	2.626214	0.000000	0.067669	0.000000	-0.000019	0.000189	0.000000	0.000000
1.780493	12.607776	24.202237	-0.751479	1.125605	2.672374	0.000000	0.142257	0.000000	0.000064	0.000189	0.000000	0.000000
2.221453	13.443817	22.959932	-1.151596	1.680943	2.751749	0.000000	0.218463	0.000000	0.000148	0.000192	0.000000	0.000000
2.662413	14.654514	21.259844	-1.604328	2.159799	2.865242	0.000000	0.297154	0.000000	0.000234	0.000197	0.000000	0.000000
3.108373	16.316097	19.154400	-2.134685	2.541526	3.016004	0.000000	0.379718	0.000000	0.000323	0.000204	0.000000	0.000000
3.657433	18.446560	16.789635	-1.722426	1.790807	3.199171	0.000000	0.286878	0.000000	0.000432	0.000192	0.000000	0.000000
4.206493	20.054418	15.174788	-1.188499	1.167644	3.329897	0.000000	0.188951	0.000000	0.000534	0.000176	0.000000	0.000000
4.755553	21.026091	14.194840	-0.570616	0.627650	3.405865	0.000000	0.087677	0.000000	0.000626	0.000158	0.000000	0.000000
5.304613	21.292939	13.779993	0.087577	0.132362	3.425728	0.000000	-0.015151	0.000000	0.000706	0.000136	0.000000	0.000000
5.603185	21.277858	13.686250	0.018236	0.145847	3.423819	0.000000	-0.006253	0.000000	0.000748	0.000138	0.000000	0.000000
5.936519	21.270925	13.597310	0.002565	0.120973	3.421689	0.000000	-0.006253	0.000000	0.000794	0.000138	0.000000	0.000000
6.269852	21.274438	13.524952	-0.013106	0.096100	3.419558	0.000000	-0.006253	0.000000	0.000840	0.000138	0.000000	0.000000
6.604435	21.288471	13.468998	-0.028836	0.071133	3.417420	0.000000	-0.006253	0.000000	0.000886	0.000138	0.000000	0.000000
6.901758	21.309775	13.433296	-0.098059	0.083799	3.415520	0.000000	0.002601	0.000000	0.000927	0.000140	0.000000	0.000000
7.450818	21.054106	13.602129	0.561020	-0.393106	3.388735	0.000000	-0.099784	0.000000	0.000995	0.000109	0.000000	0.000000
7.999878	20.092244	14.306882	1.180472	-0.898013	3.306155	0.000000	-0.200398	0.000000	0.001046	0.000076	0.000000	0.000000
8.548938	18.492131	15.597753	1.716540	-1.466886	3.169244	0.000000	-0.297456	0.000000	0.001079	0.000042	0.000000	0.000000
9.097998	16.366799	17.566692	2.131355	-2.140245	2.980433	0.000000	-0.389237	0.000000	0.001092	0.000007	0.000000	0.000000
9.543958	14.708451	19.321101	1.600433	-1.777082	2.825118	0.000000	-0.307650	0.000000	0.001101	0.000035	0.000000	0.000000
9.984918	13.501524	20.698368	1.146973	-1.334321	2.706655	0.000000	-0.230054	0.000000	0.001123	0.000064	0.000000	0.000000
10.425878	12.669988	21.656784	0.745917	-0.830847	2.621787	0.000000	-0.155079	0.000000	0.001158	0.000093	0.000000	0.000000
10.866838	12.175854	22.152738	0.378942	-0.289569	2.569547	0.000000	-0.081872	0.000000	0.001205	0.000124	0.000000	0.000000
11.309048	11.996398	22.163136	0.058239	0.211078	2.549319	0.000000	-0.015775	0.000000	0.001267	0.000152	0.000000	0.000000
11.606371	11.969160	22.041786	0.033371	0.197065	2.544584	0.000000	-0.015775	0.000000	0.001312	0.000152	0.000000	0.000000
12.086371	11.956395	21.863462	-0.006777	0.174443	2.536939	0.000000	-0.015775	0.000000	0.001385	0.000152	0.000000	0.000000
12.566371	11.982172	21.706855	-0.046924	0.151820	2.529294	0.000000	-0.015775	0.000000	0.001458	0.000152	0.000000	0.000000
13.046371	12.046490	21.571967	-0.087072	0.129198	2.521649	0.000000	-0.015775	0.000000	0.001531	0.000152	0.000000	0.000000
13.526371	12.149350	21.458796	-0.127220	0.106575	2.514003	0.000000	-0.015775	0.000000	0.001605	0.000152	0.000000	0.000000
14.007621	12.291171	21.367132	-0.167472	0.083894	2.506338	0.000000	-0.015775	0.000000	0.001678	0.000152	0.000000	0.000000
14.304943	12.398150	21.321414	-0.162434	0.018495	2.501603	0.000000	-0.021809	0.000000	0.001723	0.000148	0.000000	0.000000
14.745903	12.700302	21.071775	-0.525302	0.545461	2.507531	0.000000	0.049051	0.000000	0.001798	0.000194	0.000000	0.000000
15.186863	13.331827	20.366594	-0.912172	1.047607	2.544779	0.000000	0.120467	0.000000	0.001894	0.000241	0.000000	0.000000
15.627823	14.321582	19.237955	-1.340722	1.502087	2.613772	0.000000	0.193253	0.000000	0.002011	0.000291	0.000000	0.000000
16.068783	15.714795	17.737209	-1.830534	1.888219	2.715292	0.000000	0.268237	0.000000	0.002152	0.000345	0.000000	0.000000
16.514743	17.598764	15.911145	-2.408793	2.189221	2.852193	0.000000	0.346743	0.000000	0.002318	0.000403	0.000000	0.000000
17.063803	20.017902	13.872339	-1.970738	1.545837	3.018676	0.000000	0.259474	0.000000	0.002519	0.000325	0.000000	0.000000
17.612863	21.876212	12.475814	-1.393459	1.012566	3.135952	0.000000	0.167608	0.000000	0.002674	0.000241	0.000000	0.000000
18.161923	23.042403	11.622096	-0.717736	0.551423	3.201940	0.000000	0.072773	0.000000	0.002782	0.000152	0.000000	0.000000
18.710983	23.434083	11.250376	0.008694	0.129559	3.215473	0.000000	-0.023351	0.000000	0.002841	0.000061	0.000000	0.000000
19.009556	23.468385	11.164009	-0.063841	0.131035	3.210928	0.000000	-0.015151	0.000000	0.002861	0.000068	0.000000	0.000000
19.342889	23.515700	11.086776	-0.078102	0.100665	3.205855	0.000000	-0.015151	0.000000	0.002884	0.000068	0.000000	0.000000
19.676223	23.572521	11.029789	-0.092363	0.070294	3.200782	0.000000	-0.015151	0.000000	0.002907	0.000068	0.000000	0.000000
20.010806	23.639410	10.992814	-0.223801	0.094275	3.195710	0.000000	0.000683	0.000000	0.002930	0.000083	0.000000	0.000000
20.308129	23.776425	10.944864	-0.297582	0.094885	3.195888	0.000000	0.008824	0.000000	0.002954	0.000091	0.000000	0.000000
20.857189	23.693182	11.062301	0.448317	-0.310025	3.174499	0.000000	-0.086538	0.000000	0.002978	-0.000006	0.000000	0.000000
21.406249	22.803398	11.633842	1.162544	-0.737020	3.101143	0.000000	-0.180365	0.000000	0.002948	-0.000102	0.000000	0.000000
21.955309	21.169936	12.700199	1.794643	-1.216515	2.977122	0.000000	-0.270994	0.000000	0.002866	-0.000196	0.000000	0.000000
22.504369	18.908199	14.337331	2.299957	-1.782666	2.804634	0.000000	-0.356820	0.000000	0.002734	-0.000286	0.000000	0.000000
22.950329	17.126499	15.807343	1.709094	-1.499606	2.662904	0.000000	-0.279608	0.000000	0.002622	-0.000217	0.000000	0.000000
23.391289	15.847991	16.979870	1.201087	-1.149210	2.556003	0.000000	-0.206043	0.000000	0.002541	-0.000150	0.000000	0.000000
23.832249	14.991734	17.819035	0.747961	-0.746521	2.480968	0.000000	-0.134823	0.000000	0.002489	-0.000086	0.000000	0.000000
24.273209	14.518601	18.286655	0.329011	-0.309865	2.436943	0.000000	-0.065138	0.000000	0.002465	-0.000022	0.000000	0.000000
24.715418	14.407076	18.361207	-0.040492	0.096842	2.423426	0.000000	-0.001998	0.000000	0.002470	0.000036	0.000000	0.000000
25.012741	14.437300	18.308480	-0.061163	0.080497	2.422822	0.000000	-0.001998	0.000000	0.002480	0.000036	0.000000	0.000000
25.346075	14.485800	18.260923	-0.084338	0.062173	2.422144	0.000000	-0.001998	0.000000	0.002492	0.000036	0.000000	0.000000
25.679408	14.549750	18.225583	-0.107512	0.043848	2.421466	0.000000	-0.001998	0.000000	0.002504	0.000036	0.000000	0.000000
26.013991	14.629180	18.202764	-0.012093	-0.122215	2.420761	0.000000	-0.021637	0.000000	0.002516	0.000015	0.000000	0.000000
26.311314	14.642412	18.280371	0.002627	-0.182543	2.414323	0.000000	-0.027415	0.000000	0.002521	0.000009	0.000000	0.000000
26.752274	14.820677	18.243142	-0.408395	0.266647	2.417333	0.000000	0.041158	0.000000	0.002539	0.000075	0.000000	0.000000
27.193234	15.368284	17.813606	-0.838077	0.703704	2.450628	0.000000	0.110199	0.000000	0.002587	0.000141	0.000000	0.000000
27.634194	16.310257	17.011307	-1.306055	1.108741	2.514587	0.000000	0.180495	0.000000	0.002663	0.000208	0.000000	0.000000
28.075154	17.689641	15.872750	-1.833711	1.463328	2.609939	0.000000	0.252843	0.000000	0.002771	0.000278	0.000000	0.000000
28.521114	19.593472	14.432572	-2.450158	1.752295	2.739376	0.000000	0.328523	0.000000	0.002911	0.000352	0.000000	0.000000
29.070174	22.013558	12.828041	-1.931068	1.187155	2.896918	0.000000	0.245053	0.000000	0.003078	0.000255	0.000000	0.000000
29.619234	23.784826	11.794322	-1.275554	0.706579	3.007420	0.000000	0.157241	0.000000	0.003190	0.000153	0.000000	0.000000
30.168294	24.782131	11.257785	-0.529926	0.276336	3.068923	0.000000	0.066642	0.000000	0.003246	0.000049	0.000000	0.000000
30.717354	24.935014	11.180211	0.253140	-0.134223	3.080336	0.000000	-0.025138	0.000000	0.003244	-0.000056	0.000000	0.000000
31.015927	24.825386	11.251457	0.177371	-0.132807	3.075181	0.000000	-0.017310	0.000000	0.003230	-0.000048	0.000000	0.000000
31.349260	24.711755	11.350045	0.163522	-0.162956	3.069427	0.000000	-0.017310	0.000000	0.003214	-0.000048	0.000000	0.000000
31.682593	24.607357	11.468731	0.149672	-0.193104	3.063673	0.000000	-0.017310	0.000000	0.003198	-0.000048	0.000000	0.000000
32.017177	24.511853	11.608075	0.135771	-0.223365	3.057897	0.000000	-0.017310	0.000000	0.003182	-0.000048	0.000000	0.000000
32.314499	24.434798	11.748890	0.061283	-0.220388	3.052765	0.000000	-0.009548	0.000000	0.003168	-0.000039	0.000000	0.000000
32.863559	23.949026	12.230075	0.818111	-0.661125	3.022656	0.000000	-0.100131	0.000000	0.003119	-0.000141	0.000000	0.000000
33.412619	22.659068	13.218130	1.517142	-1.148957	2.943277	0.000000	-0.188941	0.000000	0.003014	-0.000241	0.000000	0.000000
33.961679	20.656064	14.783434	2.108990	-1.718633	2.816035	0.000000	-0.274403	0.000000	0.002855	-0.000336	0.000000	0.000000
34.510739	18.081528	17.037486	2.551844	-2.410731	2.643183	0.000000	-0.355003	0.000000	0.002646	-0.000425	0.000000	0.000000
34.956699	16.080344	19.053684	1.951266	-2.091281	2.501392	0.000000	-0.281982	0.000000	0.002471	-0.000358	0.000000	0.000000
35.397659	14.588324	20.721960	1.444884	-1.677473	2.392584	0.000000	-0.212606	0.000000	0.002327	-0.000297	0.000000	0.000000
35.838619	13.512234	21.990094	1.004523	-1.187337	2.313782	0.000000	-0.145649	0.000000	0.002209	-0.000238	0.000000	0.000000
36.279579	12.802900	22.800385	0.610063	-0.643176	2.264090	0.000000	-0.080347	0.000000	0.002117	-0.000182	0.000000	0.000000
36.721789	12.427227	23.116277	0.273255	-0.125345	2.242916	0.000000	-0.021353	0.000000	0.002048	-0.000134	0.000000	0.000000
37.019112	12.272382	23.194698	0.247543	-0.138409	2.236607	0.000000	-0.021353	0.000000	0.002008	-0.000134	0.000000	0.000000
37.352445	12.116961	23.291853	0.218718	-0.153056	2.229534	0.000000	-0.021353	0.000000	0.001964	-0.000134	0.000000	0.000000
37.685779	11.980758	23.398772	0.189892	-0.167702	2.222461	0.000000	-0.021353	0.000000	0.001919	-0.000134	0.000000	0.000000
38.020362	11.863369	23.515911	0.160958	-0.182403	2.215361	0.000000	-0.021353	0.000000	0.001874	-0.000134	0.000000	0.000000
38.317684	11.775299	23.628263	0.163620	-0.252448	2.209052	0.000000	-0.026676	0.000000	0.001835	-0.000138	0.000000	0.000000
38.758644	11.781408	23.589156	-0.177563	0.340794	2.211286	0.000000	0.036594	0.000000	0.001784	-0.000091	0.000000	0.000000
39.199604	12.090853	23.031709	-0.526859	0.918529	2.241466	0.000000	0.100282	0.000000	0.001754	-0.000046	0.000000	0.000000
39.640564	12.717775	21.981288	-0.900227	1.454470	2.299936	0.000000	0.165113	0.000000	0.001744	-0.000001	0.000000	0.000000
40.081524	13.690818	20.485688	-1.314727	1.924230	2.387362	0.000000	0.231824	0.000000	0.001753	0.000044	0.000000	0.000000
40.527484	15.071981	18.590350	-1.793147	2.307764	2.506216	0.000000	0.301586	0.000000	0.001783	0.000090	0.000000	0.000000
41.076544	16.835529	16.460335	-1.399669	1.594420	2.651206	0.000000	0.225879	0.000000	0.001817	0.000032	0.000000	0.000000
41.625604	18.109780	15.047087	-0.907317	0.994648	2.753495	0.000000	0.146166	0.000000	0.001818	-0.000027	0.000000	0.000000
42.174664	18.804717	14.249939	-0.350872	0.465727	2.811270	0.000000	0.063859	0.000000	0.001787	-0.000085	0.000000	0.000000
42.723724	18.871249	14.012107	0.230357	-0.030020	2.823503	0.000000	-0.019582	0.000000	0.001724	-0.000142	0.000000	0.000000
43.022297	18.767587	14.014835	0.165421	-0.015220	2.819869	0.000000	-0.012312	0.000000	0.001683	-0.000138	0.000000	0.000000
43.502297	18.621395	14.045890	0.139145	-0.049478	2.814025	0.000000	-0.012312	0.000000	0.001617	-0.000138	0.000000	0.000000
43.982297	18.500428	14.109832	0.112869	-0.083735	2.808182	0.000000	-0.012312	0.000000	0.001551	-0.000138	0.000000	0.000000
44.462297	18.404686	14.206661	0.086593	-0.117992	2.802339	0.000000	-0.012312	0.000000	0.001485	-0.000138	0.000000	0.000000
44.942297	18.334168	14.336377	0.060318	-0.152250	2.796495	0.000000	-0.012312	0.000000	0.001418	-0.000138	0.000000	0.000000
45.423547	18.289018	14.499267	-0.056641	-0.114758	2.790654	0.000000	0.001515	0.000000	0.001352	-0.000131	0.000000	0.000000
45.720870	18.327549	14.573684	-0.120308	-0.097903	2.791143	0.000000	0.008727	0.000000	0.001313	-0.000128	0.000000	0.000000
46.269930	18.150990	14.962997	0.439886	-0.615324	2.773393	0.000000	-0.073574	0.000000	0.001232	-0.000169	0.000000	0.000000
46.818990	17.372753	15.941101	0.969003	-1.176575	2.710765	0.000000	-0.154574	0.000000	0.001128	-0.000207	0.000000	0.000000
47.368050	16.047816	17.577661	1.429668	-1.821632	2.604371	0.000000	-0.232835	0.000000	0.001005	-0.000242	0.000000	0.000000
47.917110	14.269778	19.989246	1.789339	-2.596442	2.456094	0.000000	-0.306970	0.000000	0.000863	-0.000272	0.000000	0.000000
48.363070	12.885656	22.133237	1.325214	-2.190890	2.334630	0.000000	-0.238546	0.000000	0.000747	-0.000251	0.000000	0.000000
48.804030	11.896924	23.849759	0.925412	-1.686952	2.244028	0.000000	-0.173238	0.000000	0.000640	-0.000233	0.000000	0.000000
49.244990	11.240887	25.086168	0.567892	-1.106258	2.181757	0.000000	-0.109900	0.000000	0.000541	-0.000218	0.000000	0.000000
49.685950	10.887570	25.786210	0.236320	-0.475230	2.147108	0.000000	-0.047811	0.000000	0.000447	-0.000205	0.000000	0.000000
50.128160	10.820973	25.917749	-0.058124	0.114100	2.139698	0.000000	0.008506	0.000000	0.000359	-0.000196	0.000000	0.000000
50.425482	10.863733	25.853355	-0.085693	0.102479	2.142286	0.000000	0.008506	0.000000	0.000301	-0.000196	0.000000	0.000000
50.758816	10.931165	25.789379	-0.116601	0.089451	2.145186	0.000000	0.008506	0.000000	0.000236	-0.000196	0.000000	0.000000
51.092149	11.019202	25.734088	-0.147510	0.076422	2.148087	0.000000	0.008506	0.000000	0.000170	-0.000196	0.000000	0.000000
51.426732	11.128065	25.687845	-0.088256	-0.145048	2.150977	0.000000	-0.008944	0.000000	0.000105	-0.000197	0.000000	0.000000
51.724055	11.188552	25.777611	-0.087757	-0.220125	2.148376	0.000000	-0.014210	0.000000	0.000046	-0.000197	0.000000	0.000000
52.165015	11.411879	25.684932	-0.420685	0.429501	2.155806	0.000000	0.047560	0.000000	-0.000040	-0.000197	0.000000	0.000000
52.605975	11.936153	25.025797	-0.772831	1.059584	2.190568	0.000000	0.109873	0.000000	-0.000127	-0.000199	0.000000	0.000000
53.046935	12.785325	23.830199	-1.160284	1.641457	2.253059	0.000000	0.173440	0.000000	-0.000216	-0.000203	0.000000	0.000000
53.487895	13.998188	22.152539	-1.600745	2.148644	2.343991	0.000000	0.238985	0.000000	-0.000307	-0.000210	0.000000	0.000000
53.933855	15.650918	20.044070	-2.118591	2.559399	2.465909	0.000000	0.307652	0.000000	-0.000403	-0.000219	0.000000	0.000000
54.482915	17.778562	17.671450	-1.733663	1.787377	2.614718	0.000000	0.233195	0.000000	-0.000519	-0.000204	0.000000	0.000000
55.031975	19.413357	16.072134	-1.226284	1.142665	2.721438	0.000000	0.154598	0.000000	-0.000626	-0.000186	0.000000	0.000000
55.581035	20.439839	15.132206	-0.632293	0.579342	2.784175	0.000000	0.073256	0.000000	-0.000723	-0.000164	0.000000	0.000000
56.130095	20.785509	14.784714	0.006356	0.057285	2.801814	0.000000	-0.009388	0.000000	-0.000806	-0.000139	0.000000	0.000000
56.428668	20.818661	14.733352	-0.062717	0.075822	2.801254	0.000000	-0.002018	0.000000	-0.000848	-0.000141	0.000000	0.000000
56.762001	20.865831	14.690389	-0.078791	0.053068	2.800628	0.000000	-0.002018	0.000000	-0.000895	-0.000141	0.000000	0.000000
57.095334	20.923716	14.662595	-0.094866	0.030313	2.800002	0.000000	-0.002018	0.000000	-0.000942	-0.000141	0.000000	0.000000
57.429918	20.992596	14.649952	-0.111000	0.007474	2.799374	0.000000	-0.002018	0.000000	-0.000989	-0.000141	0.000000	0.000000
57.727240	21.062865	14.651542	-0.180846	0.025759	2.798816	0.000000	0.005358	0.000000	-0.001031	-0.000144	0.000000	0.000000
58.276300	20.901831	14.904522	0.472328	-0.489238	2.779144	0.000000	-0.077156	0.000000	-0.001101	-0.000109	0.000000	0.000000
58.825360	20.037716	15.738723	1.092137	-1.039081	2.714458	0.000000	-0.158302	0.000000	-0.001151	-0.000073	0.000000	0.000000
59.374420	18.531553	17.213560	1.634806	-1.662932	2.605904	0.000000	-0.236642	0.000000	-0.001181	-0.000035	0.000000	0.000000
59.923480	16.489726	19.434078	2.062005	-2.405226	2.455408	0.000000	-0.310785	0.000000	-0.001190	0.000003	0.000000	0.000000
60.369440	14.891110	21.407673	1.535388	-2.001642	2.332128	0.000000	-0.242413	0.000000	-0.001195	-0.000028	0.000000	0.000000
60.810400	13.740826	22.961318	1.083124	-1.508336	2.239721	0.000000	-0.177195	0.000000	-0.001214	-0.000059	0.000000	0.000000
61.251360	12.966147	24.047876	0.680344	-0.946404	2.175613	0.000000	-0.113994	0.000000	-0.001247	-0.000090	0.000000	0.000000
61.692320	12.531682	24.617911	0.308645	-0.341414	2.139076	0.000000	-0.052091	0.000000	-0.001294	-0.000123	0.000000	0.000000
62.134530	12.417626	24.644944	-0.018212	0.217901	2.129697	0.000000	0.003930	0.000000	-0.001356	-0.000154	0.000000	0.000000
62.431853	12.435577	24.519127	-0.042163	0.205264	2.130912	0.000000	0.003930	0.000000	-0.001402	-0.000154	0.000000	0.000000
62.765186	12.472637	24.387007	-0.069016	0.191097	2.132273	0.000000	0.003930	0.000000	-0.001453	-0.000154	0.000000	0.000000
63.098520	12.527598	24.264332	-0.095868	0.176929	2.133635	0.000000	0.003930	0.000000	-0.001504	-0.000154	0.000000	0.000000
63.433103	12.600768	24.150695	-0.122821	0.162708	2.135001	0.000000	0.003930	0.000000	-0.001556	-0.000154	0.000000	0.000000
63.730426	12.680924	24.057700	-0.115207	0.090133	2.136216	0.000000	-0.001387	0.000000	-0.001602	-0.000150	0.000000	0.000000
64.171386	12.943693	23.713294	-0.483033	0.687951	2.149229	0.000000	0.060138	0.000000	-0.001677	-0.000192	0.000000	0.000000
64.612346	13.539306	22.853514	-0.872924	1.254469	2.189517	0.000000	0.122351	0.000000	-0.001772	-0.000237	0.000000	0.000000
65.053306	14.494969	21.517480	-1.302692	1.763911	2.257538	0.000000	0.185960	0.000000	-0.001886	-0.000284	0.000000	0.000000
65.494266	15.854337	19.765980	-1.791968	2.193100	2.354068	0.000000	0.251689	0.000000	-0.002022	-0.000334	0.000000	0.000000
65.940226	17.702706	17.653926	-2.367758	2.523214	2.481780	0.000000	0.320684	0.000000	-0.002184	-0.000389	0.000000	0.000000
66.489286	20.071150	15.291308	-1.920672	1.805348	2.637653	0.000000	0.245602	0.000000	-0.002377	-0.000315	0.000000	0.000000
67.038346	21.870823	13.642163	-1.337941	1.216065	2.751003	0.000000	0.166160	0.000000	-0.002528	-0.000235	0.000000	0.000000
67.587406	22.974632	12.589029	-0.660719	0.713395	2.819816	0.000000	0.083766	0.000000	-0.002635	-0.000152	0.000000	0.000000
68.136466	23.304626	12.056894	0.063165	0.261536	2.842871	0.000000	-0.000115	0.000000	-0.002695	-0.000065	0.000000	0.000000
68.435038	23.307904	11.889514	-0.011903	0.266855	2.845126	0.000000	0.007479	0.000000	-0.002716	-0.000073	0.000000	0.000000
68.768372	23.320607	11.721621	-0.026206	0.236822	2.847643	0.000000	0.007479	0.000000	-0.002740	-0.000073	0.000000	0.000000
69.101705	23.342846	11.573751	-0.040510	0.206790	2.850160	0.000000	0.007479	0.000000	-0.002765	-0.000073	0.000000	0.000000
69.436288	23.374757	11.445460	-0.054867	0.176645	2.852687	0.000000	0.007479	0.000000	-0.002789	-0.000073	0.000000	0.000000
69.733611	23.411182	11.348381	-0.130224	0.180189	2.854933	0.000000	0.015113	0.000000	-0.002811	-0.000080	0.000000	0.000000
70.282671	23.152130	11.377829	0.599236	-0.234141	2.840056	0.000000	-0.069292	0.000000	-0.002829	0.000011	0.000000	0.000000
