#ParticleID	Turn	x[m]	xp	y[m]	yp	z[m]	dE[GeV]# s	beta_x	beta_y	alpha_x	alpha_y	D_x	D_y	D_px	D_py	orbit_x	orbit_px	orbit_y	orbit_py
0.300000	11.958754	25.321679	-0.020026	-0.021677	2.599543	0.000000	0.000493	0.000000	-0.000837	0.000728	0.000000	0.000000
0.601250	11.978411	25.338326	-0.045227	-0.033580	2.599472	0.000000	0.000493	0.000000	-0.000618	0.000728	0.000000	0.000000
0.898573	12.012701	25.361786	-0.040529	-0.107493	2.599403	0.000000	-0.005905	0.000000	-0.000401	0.000729	0.000000	0.000000
1.339533	12.202306	25.175108	-0.390836	0.529228	2.612677	0.000000	0.067566	0.000000	-0.000081	0.000723	0.000000	0.000000
1.780493	12.707537	24.435404	-0.759004	1.141872	2.658488	0.000000	0.141800	0.000000	0.000237	0.000725	0.000000	0.000000
2.221453	13.551484	23.176323	-1.161856	1.702564	2.737354	0.000000	0.217641	0.000000	0.000559	0.000735	0.000000	0.000000
2.662413	14.772713	21.455146	-1.617797	2.185792	2.850170	0.000000	0.295953	0.000000	0.000887	0.000754	0.000000	0.000000
3.108373	16.448118	19.324963	-2.152032	2.570736	3.000067	0.000000	0.378119	0.000000	0.001229	0.000781	0.000000	0.000000
3.657433	18.595789	16.932049	-1.735891	1.813099	3.182208	0.000000	0.285807	0.000000	0.001646	0.000735	0.000000	0.000000
4.206493	20.216034	15.295744	-1.197112	1.184607	3.312228	0.000000	0.188437	0.000000	0.002033	0.000675	0.000000	0.000000
4.755553	21.194376	14.299503	-0.573753	0.640494	3.387824	0.000000	0.087735	0.000000	0.002385	0.000603	0.000000	0.000000
5.304613	21.461685	13.872371	0.090149	0.142003	3.407661	0.000000	-0.014514	0.000000	0.002694	0.000521	0.000000	0.000000
5.603185	21.444731	13.773115	0.021418	0.155121	3.405768	0.000000	-0.005812	0.000000	0.002851	0.000528	0.000000	0.000000
5.936519	21.435636	13.677963	0.005867	0.130337	3.403654	0.000000	-0.005812	0.000000	0.003027	0.000528	0.000000	0.000000
6.269852	21.436908	13.599332	-0.009684	0.105553	3.401541	0.000000	-0.005812	0.000000	0.003204	0.000528	0.000000	0.000000
6.604435	21.448611	13.537023	-0.025293	0.080676	3.399419	0.000000	-0.005812	0.000000	0.003380	0.000528	0.000000	0.000000
6.901758	21.467783	13.495617	-0.093576	0.092880	3.397535	0.000000	0.002799	0.000000	0.003537	0.000537	0.000000	0.000000
7.450818	21.204422	13.655418	0.570661	-0.385627	3.370830	0.000000	-0.099013	0.000000	0.003800	0.000418	0.000000	0.000000
7.999878	20.229482	14.352620	1.194592	-0.891607	3.288688	0.000000	-0.199063	0.000000	0.003995	0.000292	0.000000	0.000000
8.548938	18.611833	15.636892	1.734135	-1.461103	3.152568	0.000000	-0.295576	0.000000	0.004120	0.000161	0.000000	0.000000
9.097998	16.465762	17.599724	2.151168	-2.134683	2.964887	0.000000	-0.386843	0.000000	0.004171	0.000026	0.000000	0.000000
9.543958	14.791360	19.348475	1.616618	-1.769837	2.810524	0.000000	-0.305628	0.000000	0.004207	0.000135	0.000000	0.000000
9.984918	13.571405	20.718826	1.160376	-1.325802	2.692807	0.000000	-0.228393	0.000000	0.004290	0.000244	0.000000	0.000000
10.425878	12.729043	21.669348	0.757157	-0.821435	2.608498	0.000000	-0.153761	0.000000	0.004423	0.000357	0.000000	0.000000
10.866838	12.225782	22.156786	0.388533	-0.279688	2.556633	0.000000	-0.080885	0.000000	0.004606	0.000473	0.000000	0.000000
11.309048	12.038471	22.158383	0.065711	0.222720	2.536602	0.000000	-0.014867	0.000000	0.004842	0.000583	0.000000	0.000000
11.606371	12.006771	22.030131	0.040906	0.208637	2.532008	0.000000	-0.014867	0.000000	0.005015	0.000583	0.000000	0.000000
12.086371	11.986722	21.840754	0.000862	0.185900	2.524592	0.000000	-0.014867	0.000000	0.005295	0.000583	0.000000	0.000000
12.566371	12.005116	21.673203	-0.039182	0.163163	2.517175	0.000000	-0.014867	0.000000	0.005575	0.000583	0.000000	0.000000
13.046371	12.061953	21.527481	-0.079227	0.140426	2.509759	0.000000	-0.014867	0.000000	0.005855	0.000583	0.000000	0.000000
13.526371	12.157232	21.403585	-0.119271	0.117689	2.502343	0.000000	-0.014867	0.000000	0.006135	0.000583	0.000000	0.000000
14.007621	12.291352	21.301279	-0.159420	0.094893	2.494907	0.000000	-0.014867	0.000000	0.006416	0.000583	0.000000	0.000000
14.304943	12.393509	21.249066	-0.155759	0.032173	2.490311	0.000000	-0.020587	0.000000	0.006589	0.000568	0.000000	0.000000
14.745903	12.689768	20.988282	-0.518341	0.556920	2.496512	0.000000	0.049994	0.000000	0.006877	0.000741	0.000000	0.000000
15.186863	13.315064	20.274114	-0.904619	1.056326	2.533858	0.000000	0.121137	0.000000	0.007244	0.000923	0.000000	0.000000
15.627823	14.297985	19.139057	-1.332246	1.507662	2.602771	0.000000	0.193650	0.000000	0.007693	0.001116	0.000000	0.000000
16.068783	15.683472	17.634756	-1.820770	1.890388	2.704034	0.000000	0.268358	0.000000	0.008230	0.001321	0.000000	0.000000
16.514743	17.558493	15.808084	-2.397445	2.187992	2.840492	0.000000	0.346598	0.000000	0.008868	0.001543	0.000000	0.000000
17.063803	19.965847	13.769257	-1.959756	1.546740	3.006470	0.000000	0.259696	0.000000	0.009634	0.001243	0.000000	0.000000
17.612863	21.813084	12.370391	-1.383556	1.015684	3.123563	0.000000	0.168207	0.000000	0.010230	0.000921	0.000000	0.000000
18.161923	22.969620	11.511838	-0.709566	0.556991	3.189699	0.000000	0.073748	0.000000	0.010643	0.000583	0.000000	0.000000
18.710983	23.353691	11.132439	0.014580	0.137981	3.203710	0.000000	-0.022010	0.000000	0.010868	0.000235	0.000000	0.000000
19.009556	23.381751	11.042588	-0.053529	0.136760	3.199320	0.000000	-0.014424	0.000000	0.010946	0.000262	0.000000	0.000000
19.342889	23.422203	10.961664	-0.067826	0.106010	3.194425	0.000000	-0.014424	0.000000	0.011033	0.000262	0.000000	0.000000
19.676223	23.472186	10.901242	-0.082123	0.075259	3.189530	0.000000	-0.014424	0.000000	0.011120	0.000262	0.000000	0.000000
20.010806	23.532233	10.861074	-0.213065	0.098205	3.184636	0.000000	0.001355	0.000000	0.011208	0.000317	0.000000	0.000000
20.308129	23.662948	10.810853	-0.282067	0.096112	3.184951	0.000000	0.008864	0.000000	0.011302	0.000345	0.000000	0.000000
20.857189	23.564757	10.924933	0.459921	-0.305078	3.163609	0.000000	-0.086169	0.000000	0.011391	-0.000022	0.000000	0.000000
21.406249	22.664608	11.488921	1.169407	-0.728006	3.090616	0.000000	-0.179673	0.000000	0.011278	-0.000390	0.000000	0.000000
21.955309	21.026129	12.542996	1.796243	-1.202803	2.967267	0.000000	-0.269995	0.000000	0.010964	-0.000750	0.000000	0.000000
22.504369	18.765148	14.162252	2.296126	-1.763297	2.795747	0.000000	-0.355540	0.000000	0.010456	-0.001097	0.000000	0.000000
22.950329	16.985254	15.617001	1.707935	-1.484458	2.654832	0.000000	-0.278509	0.000000	0.010026	-0.000832	0.000000	0.000000
23.391289	15.706290	16.778464	1.202740	-1.139088	2.548584	0.000000	-0.205130	0.000000	0.009716	-0.000577	0.000000	0.000000
23.832249	14.847151	17.611177	0.752524	-0.741877	2.474047	0.000000	-0.134082	0.000000	0.009516	-0.000329	0.000000	0.000000
24.273209	14.368557	18.077248	0.336706	-0.310903	2.430375	0.000000	-0.064558	0.000000	0.009425	-0.000085	0.000000	0.000000
24.715418	14.248745	18.155185	-0.032063	0.093660	2.417071	0.000000	-0.001154	0.000000	0.009442	0.000136	0.000000	0.000000
25.012741	14.274021	18.104402	-0.052951	0.077140	2.416687	0.000000	-0.001154	0.000000	0.009482	0.000136	0.000000	0.000000
25.346075	14.317128	18.059149	-0.076369	0.058619	2.416257	0.000000	-0.001154	0.000000	0.009527	0.000136	0.000000	0.000000
25.679408	14.375847	18.026244	-0.099787	0.040097	2.415827	0.000000	-0.001154	0.000000	0.009573	0.000136	0.000000	0.000000
26.013991	14.450192	18.005997	-0.006063	-0.124567	2.415371	0.000000	-0.020749	0.000000	0.009618	0.000058	0.000000	0.000000
26.311314	14.459876	18.085105	0.005508	-0.181534	2.409181	0.000000	-0.026105	0.000000	0.009636	0.000036	0.000000	0.000000
26.752274	14.633739	18.049305	-0.401166	0.262402	2.412693	0.000000	0.042355	0.000000	0.009706	0.000285	0.000000	0.000000
27.193234	15.173055	17.625723	-0.826178	0.694396	2.446367	0.000000	0.111295	0.000000	0.009888	0.000538	0.000000	0.000000
27.634194	16.102484	16.833636	-1.288958	1.094789	2.510587	0.000000	0.181496	0.000000	0.010181	0.000796	0.000000	0.000000
28.075154	17.464523	15.709087	-1.810661	1.445356	2.606080	0.000000	0.253757	0.000000	0.010591	0.001064	0.000000	0.000000
28.521114	19.345332	14.286166	-2.420274	1.731262	2.735550	0.000000	0.329377	0.000000	0.011128	0.001346	0.000000	0.000000
29.070174	21.736977	12.701564	-1.908420	1.171330	2.893156	0.000000	0.246007	0.000000	0.011767	0.000975	0.000000	0.000000
29.619234	23.488499	11.682756	-1.261674	0.694855	3.003918	0.000000	0.158288	0.000000	0.012196	0.000587	0.000000	0.000000
30.168294	24.476070	11.157164	-0.525751	0.267887	3.065876	0.000000	0.067770	0.000000	0.012409	0.000188	0.000000	0.000000
30.717354	24.629871	11.087343	0.247333	-0.139994	3.077933	0.000000	-0.023948	0.000000	0.012402	-0.000214	0.000000	0.000000
31.015927	24.520118	11.163672	0.177330	-0.141379	3.072974	0.000000	-0.016769	0.000000	0.012347	-0.000183	0.000000	0.000000
31.349260	24.406571	11.268076	0.163309	-0.171834	3.067446	0.000000	-0.016769	0.000000	0.012286	-0.000183	0.000000	0.000000
31.682593	24.302373	11.392784	0.149287	-0.202290	3.061917	0.000000	-0.016769	0.000000	0.012225	-0.000183	0.000000	0.000000
32.017177	24.207184	11.538378	0.135212	-0.232860	3.056368	0.000000	-0.016769	0.000000	0.012163	-0.000183	0.000000	0.000000
32.314499	24.130603	11.684874	0.066258	-0.232718	3.051443	0.000000	-0.009631	0.000000	0.012109	-0.000153	0.000000	0.000000
32.863559	23.644705	12.179007	0.813076	-0.672402	3.021425	0.000000	-0.100198	0.000000	0.011918	-0.000543	0.000000	0.000000
33.412619	22.365302	13.179364	1.502421	-1.159994	2.942288	0.000000	-0.188996	0.000000	0.011515	-0.000922	0.000000	0.000000
33.961679	20.382850	14.757211	2.085568	-1.730233	2.815432	0.000000	-0.274456	0.000000	0.010908	-0.001286	0.000000	0.000000
34.510739	17.837501	17.024949	2.521306	-2.423745	2.643098	0.000000	-0.355066	0.000000	0.010107	-0.001626	0.000000	0.000000
34.956699	15.859943	19.053743	1.927517	-2.105841	2.501742	0.000000	-0.282008	0.000000	0.009439	-0.001373	0.000000	0.000000
35.397659	14.385903	20.735528	1.426979	-1.693060	2.393312	0.000000	-0.212607	0.000000	0.008886	-0.001136	0.000000	0.000000
35.838619	13.323098	22.017715	0.991670	-1.203229	2.314832	0.000000	-0.145617	0.000000	0.008434	-0.000913	0.000000	0.000000
36.279579	12.622931	22.841960	0.601692	-0.658642	2.265412	0.000000	-0.080275	0.000000	0.008079	-0.000700	0.000000	0.000000
36.721789	12.252744	23.171060	0.266891	-0.136513	2.244469	0.000000	-0.020929	0.000000	0.007815	-0.000514	0.000000	0.000000
37.019112	12.101767	23.256123	0.240897	-0.149584	2.238400	0.000000	-0.020929	0.000000	0.007662	-0.000514	0.000000	0.000000
37.352445	11.950883	23.360731	0.211755	-0.164238	2.231594	0.000000	-0.020929	0.000000	0.007491	-0.000514	0.000000	0.000000
37.685779	11.819427	23.475107	0.182612	-0.178892	2.224789	0.000000	-0.020929	0.000000	0.007320	-0.000514	0.000000	0.000000
38.020362	11.707017	23.599737	0.153360	-0.193601	2.217959	0.000000	-0.020929	0.000000	0.007148	-0.000514	0.000000	0.000000
38.317684	11.623534	23.718781	0.153952	-0.261097	2.211887	0.000000	-0.025988	0.000000	0.006995	-0.000530	0.000000	0.000000
38.758644	11.636645	23.686196	-0.183941	0.334704	2.214583	0.000000	0.037369	0.000000	0.006800	-0.000353	0.000000	0.000000
39.199604	11.950370	23.132847	-0.530238	0.915273	2.245212	0.000000	0.101156	0.000000	0.006683	-0.000179	0.000000	0.000000
39.640564	12.579045	22.083918	-0.900765	1.454188	2.304125	0.000000	0.166097	0.000000	0.006643	-0.000007	0.000000	0.000000
40.081524	13.551403	20.587144	-1.312457	1.926926	2.391994	0.000000	0.232931	0.000000	0.006677	0.000165	0.000000	0.000000
40.527484	14.929434	18.687904	-1.788059	2.313448	2.511304	0.000000	0.302844	0.000000	0.006790	0.000340	0.000000	0.000000
41.076544	16.690544	16.553072	-1.400034	1.597282	2.656856	0.000000	0.226950	0.000000	0.006915	0.000117	0.000000	0.000000
41.625604	17.968278	15.138017	-0.913086	0.994909	2.759685	0.000000	0.147033	0.000000	0.006918	-0.000107	0.000000	0.000000
42.174664	18.672346	14.341930	-0.361625	0.463416	2.817964	0.000000	0.064504	0.000000	0.006799	-0.000329	0.000000	0.000000
42.723724	18.753000	14.108095	0.215380	-0.035061	2.830660	0.000000	-0.019173	0.000000	0.006558	-0.000545	0.000000	0.000000
43.022297	18.656875	14.114520	0.152747	-0.021312	2.827176	0.000000	-0.012191	0.000000	0.006400	-0.000529	0.000000	0.000000
43.502297	18.522875	14.151311	0.126419	-0.055335	2.821578	0.000000	-0.012191	0.000000	0.006147	-0.000529	0.000000	0.000000
43.982297	18.414151	14.220763	0.100090	-0.089358	2.815980	0.000000	-0.012191	0.000000	0.005893	-0.000529	0.000000	0.000000
44.462297	18.330701	14.322878	0.073762	-0.123381	2.810382	0.000000	-0.012191	0.000000	0.005639	-0.000529	0.000000	0.000000
44.942297	18.272527	14.457654	0.047434	-0.157404	2.804784	0.000000	-0.012191	0.000000	0.005385	-0.000529	0.000000	0.000000
45.423547	18.239801	14.625390	-0.069332	-0.119052	2.799189	0.000000	0.001678	0.000000	0.005131	-0.000503	0.000000	0.000000
45.720870	18.285912	14.702303	-0.131470	-0.102984	2.799838	0.000000	0.008684	0.000000	0.004981	-0.000491	0.000000	0.000000
46.269930	18.122126	15.099425	0.427690	-0.624511	2.782204	0.000000	-0.073910	0.000000	0.004669	-0.000647	0.000000	0.000000
46.818990	17.357277	16.090204	0.956622	-1.190525	2.719589	0.000000	-0.155204	0.000000	0.004273	-0.000792	0.000000	0.000000
47.368050	16.045422	17.745208	1.417957	-1.841343	2.613098	0.000000	-0.233758	0.000000	0.003802	-0.000923	0.000000	0.000000
47.917110	14.279263	20.182317	1.779103	-2.623326	2.464613	0.000000	-0.308179	0.000000	0.003263	-0.001037	0.000000	0.000000
48.363070	12.903762	22.348539	1.315668	-2.213510	2.342973	0.000000	-0.239528	0.000000	0.002818	-0.000958	0.000000	0.000000
48.804030	11.923153	24.082826	0.916161	-1.704355	2.252274	0.000000	-0.174003	0.000000	0.002411	-0.000891	0.000000	0.000000
49.244990	11.275188	25.332012	0.558522	-1.117651	2.189983	0.000000	-0.110451	0.000000	0.002031	-0.000833	0.000000	0.000000
49.685950	10.930252	26.039265	0.226408	-0.480095	2.155393	0.000000	-0.048147	0.000000	0.001675	-0.000786	0.000000	0.000000
50.128160	10.872749	26.172120	-0.069147	0.116164	2.148125	0.000000	0.008415	0.000000	0.001336	-0.000750	0.000000	0.000000
50.425482	10.922037	26.106467	-0.096624	0.104650	2.150850	0.000000	0.008415	0.000000	0.001113	-0.000750	0.000000	0.000000
50.758816	10.996721	26.041003	-0.127428	0.091742	2.153905	0.000000	0.008415	0.000000	0.000863	-0.000750	0.000000	0.000000
51.092149	11.091941	25.984144	-0.158232	0.078834	2.156960	0.000000	0.008415	0.000000	0.000613	-0.000750	0.000000	0.000000
51.426732	11.207943	25.936252	-0.098226	-0.144530	2.160005	0.000000	-0.009108	0.000000	0.000362	-0.000753	0.000000	0.000000
51.724055	11.274316	26.025675	-0.097398	-0.220252	2.157521	0.000000	-0.014392	0.000000	0.000138	-0.000753	0.000000	0.000000
52.165015	11.507008	25.930211	-0.432541	0.435920	2.165161	0.000000	0.047616	0.000000	-0.000194	-0.000754	0.000000	0.000000
52.605975	12.042823	25.262629	-0.787439	1.072255	2.200241	0.000000	0.110175	0.000000	-0.000528	-0.000763	0.000000	0.000000
53.046935	12.906234	24.053312	-1.178307	1.659801	2.263164	0.000000	0.173997	0.000000	-0.000869	-0.000781	0.000000	0.000000
53.487895	14.136679	22.357288	-1.623001	2.171827	2.354650	0.000000	0.239808	0.000000	-0.001219	-0.000808	0.000000	0.000000
53.933855	15.811396	20.226388	-2.146108	2.586350	2.477260	0.000000	0.308756	0.000000	-0.001587	-0.000845	0.000000	0.000000
54.482915	17.967035	17.828156	-1.757197	1.807431	2.626890	0.000000	0.233922	0.000000	-0.002036	-0.000786	0.000000	0.000000
55.031975	19.624515	16.209973	-1.244192	1.157248	2.734191	0.000000	0.154926	0.000000	-0.002448	-0.000713	0.000000	0.000000
55.581035	20.666795	15.256571	-0.643327	0.589491	2.797256	0.000000	0.073171	0.000000	-0.002817	-0.000628	0.000000	0.000000
56.130095	21.020281	14.900038	0.002962	0.063722	2.814959	0.000000	-0.009892	0.000000	-0.003136	-0.000532	0.000000	0.000000
56.428668	21.056411	14.844118	-0.067637	0.083525	2.814420	0.000000	-0.002345	0.000000	-0.003297	-0.000540	0.000000	0.000000
56.762001	21.106803	14.795972	-0.083540	0.060913	2.813818	0.000000	-0.002345	0.000000	-0.003477	-0.000540	0.000000	0.000000
57.095334	21.167797	14.762900	-0.099443	0.038301	2.813217	0.000000	-0.002345	0.000000	-0.003657	-0.000540	0.000000	0.000000
57.429918	21.239682	14.744865	-0.115405	0.015604	2.812613	0.000000	-0.002345	0.000000	-0.003838	-0.000540	0.000000	0.000000
57.727240	21.312535	14.741576	-0.187120	0.035113	2.812077	0.000000	0.005246	0.000000	-0.003998	-0.000551	0.000000	0.000000
58.276300	21.153682	14.985628	0.474449	-0.482254	2.792417	0.000000	-0.077689	0.000000	-0.004264	-0.000417	0.000000	0.000000
58.825360	20.282626	15.813188	1.102503	-1.033966	2.727460	0.000000	-0.159254	0.000000	-0.004454	-0.000276	0.000000	0.000000
59.374420	18.760889	17.283188	1.652690	-1.659313	2.618356	0.000000	-0.237998	0.000000	-0.004566	-0.000129	0.000000	0.000000
59.923480	16.695933	19.500319	2.086160	-2.402834	2.467037	0.000000	-0.312524	0.000000	-0.004596	0.000019	0.000000	0.000000
60.369440	15.078393	21.470682	1.553889	-1.996921	2.343059	0.000000	-0.243876	0.000000	-0.004614	-0.000100	0.000000	0.000000
60.810400	13.914020	23.019111	1.096778	-1.501445	2.250121	0.000000	-0.178389	0.000000	-0.004685	-0.000220	0.000000	0.000000
61.251360	13.129207	24.098695	0.689768	-0.937664	2.185636	0.000000	-0.114931	0.000000	-0.004809	-0.000343	0.000000	0.000000
61.692320	12.688105	24.660322	0.314268	-0.331227	2.148870	0.000000	-0.052779	0.000000	-0.004988	-0.000469	0.000000	0.000000
62.134530	12.570611	24.677860	-0.014644	0.226971	2.139412	0.000000	0.003275	0.000000	-0.005224	-0.000587	0.000000	0.000000
62.431853	12.586353	24.546660	-0.038301	0.214302	2.140561	0.000000	0.003275	0.000000	-0.005399	-0.000587	0.000000	0.000000
62.765186	12.620728	24.408526	-0.064824	0.200099	2.141848	0.000000	0.003275	0.000000	-0.005595	-0.000587	0.000000	0.000000
63.098520	12.672785	24.279861	-0.091347	0.185895	2.143136	0.000000	0.003275	0.000000	-0.005790	-0.000587	0.000000	0.000000
63.433103	12.742819	24.160236	-0.117969	0.171639	2.144428	0.000000	0.003275	0.000000	-0.005987	-0.000587	0.000000	0.000000
63.730426	12.819988	24.061965	-0.108387	0.096382	2.145576	0.000000	-0.002287	0.000000	-0.006162	-0.000572	0.000000	0.000000
64.171386	13.077976	23.712090	-0.479186	0.694111	2.158449	0.000000	0.059470	0.000000	-0.006449	-0.000734	0.000000	0.000000
64.612346	13.671292	22.847081	-0.871866	1.260261	2.198748	0.000000	0.121913	0.000000	-0.006811	-0.000905	0.000000	0.000000
65.053306	14.627023	21.506296	-1.304359	1.769078	2.266936	0.000000	0.185754	0.000000	-0.007249	-0.001087	0.000000	0.000000
65.494266	15.988804	19.750737	-1.796416	2.197417	2.363792	0.000000	0.251721	0.000000	-0.007771	-0.001280	0.000000	0.000000
65.940226	17.842127	17.635417	-2.375027	2.526364	2.492007	0.000000	0.320944	0.000000	-0.008388	-0.001490	0.000000	0.000000
66.489286	20.215248	15.269557	-1.922809	1.808529	2.648449	0.000000	0.245540	0.000000	-0.009129	-0.001206	0.000000	0.000000
67.038346	22.013956	13.616971	-1.334851	1.219485	2.762072	0.000000	0.165761	0.000000	-0.009708	-0.000901	0.000000	0.000000
67.587406	23.111298	12.559959	-0.652665	0.717281	2.830855	0.000000	0.083029	0.000000	-0.010115	-0.000580	0.000000	0.000000
68.136466	23.429834	12.023239	0.075590	0.266155	2.853572	0.000000	-0.001185	0.000000	-0.010342	-0.000248	0.000000	0.000000
68.435038	23.428066	11.852062	-0.003534	0.273188	2.855710	0.000000	0.006899	0.000000	-0.010425	-0.000277	0.000000	0.000000
68.768372	23.435165	11.680011	-0.017762	0.242964	2.858102	0.000000	0.006899	0.000000	-0.010517	-0.000277	0.000000	0.000000
69.101705	23.451749	11.528109	-0.031991	0.212741	2.860494	0.000000	0.006899	0.000000	-0.010609	-0.000277	0.000000	0.000000
69.436288	23.477935	11.395900	-0.046272	0.182404	2.862895	0.000000	0.006899	0.000000	-0.010702	-0.000277	0.000000	0.000000
69.733611	23.509304	11.295412	-0.125778	0.187501	2.865033	0.000000	0.015042	0.000000	-0.010784	-0.000306	0.000000	0.000000
70.282671	23.243715	11.315965	0.606618	-0.225162	2.850086	0.000000	-0.069668	0.000000	-0.010856	0.000045	0.000000	0.000000
