#ParticleID	Turn	x[m]	xp	y[m]	yp	z[m]	dE[GeV]# s	beta_x	beta_y	alpha_x	alpha_y	D_x	D_y	D_px	D_py	orbit_x	orbit_px	orbit_y	orbit_py
0.300000	11.964489	25.301411	-0.018113	-0.022541	2.598592	0.000000	-0.000229	0.000000	-0.001066	0.000916	0.000000	0.000000
0.601250	11.982990	25.318580	-0.043300	-0.034454	2.598247	0.000000	-0.000229	0.000000	-0.000791	0.000916	0.000000	0.000000
0.898573	12.016129	25.342564	-0.038547	-0.108330	2.597907	0.000000	-0.006631	0.000000	-0.000518	0.000917	0.000000	0.000000
1.339533	12.204033	25.156845	-0.388881	0.527899	2.610772	0.000000	0.066797	0.000000	-0.000116	0.000909	0.000000	0.000000
1.780493	12.707549	24.418508	-0.756988	1.140112	2.656153	0.000000	0.140976	0.000000	0.000285	0.000911	0.000000	0.000000
2.221453	13.549690	23.161138	-1.159689	1.700454	2.734562	0.000000	0.216751	0.000000	0.000689	0.000924	0.000000	0.000000
2.662413	14.768943	21.441936	-1.615381	2.183428	2.846889	0.000000	0.294985	0.000000	0.001101	0.000947	0.000000	0.000000
3.108373	16.442088	19.313926	-2.149262	2.568234	2.996250	0.000000	0.377059	0.000000	0.001530	0.000981	0.000000	0.000000
3.657433	18.586742	16.923452	-1.733079	1.811110	3.177744	0.000000	0.284880	0.000000	0.002054	0.000923	0.000000	0.000000
4.206493	20.204031	15.289105	-1.194452	1.182989	3.307202	0.000000	0.187662	0.000000	0.002541	0.000848	0.000000	0.000000
4.755553	21.179682	14.294483	-0.571428	0.639132	3.382333	0.000000	0.087128	0.000000	0.002982	0.000759	0.000000	0.000000
5.304613	21.444746	13.868747	0.091980	0.140800	3.401810	0.000000	-0.014938	0.000000	0.003371	0.000656	0.000000	0.000000
5.603185	21.426482	13.770357	0.023602	0.153678	3.399729	0.000000	-0.006303	0.000000	0.003570	0.000665	0.000000	0.000000
5.936519	21.415935	13.676164	0.008037	0.128900	3.397407	0.000000	-0.006303	0.000000	0.003791	0.000665	0.000000	0.000000
6.269852	21.415766	13.598490	-0.007529	0.104122	3.395084	0.000000	-0.006303	0.000000	0.004013	0.000665	0.000000	0.000000
6.604435	21.426032	13.537137	-0.023153	0.079251	3.392753	0.000000	-0.006303	0.000000	0.004235	0.000665	0.000000	0.000000
6.901758	21.443940	13.496574	-0.090959	0.091219	3.390682	0.000000	0.002223	0.000000	0.004433	0.000676	0.000000	0.000000
7.450818	21.178197	13.658235	0.572426	-0.387370	3.363657	0.000000	-0.099365	0.000000	0.004764	0.000527	0.000000	0.000000
7.999878	20.201862	14.357461	1.195380	-0.893556	3.281336	0.000000	-0.199182	0.000000	0.005010	0.000369	0.000000	0.000000
8.548938	18.583909	15.644070	1.733888	-1.463400	3.145181	0.000000	-0.295459	0.000000	0.005167	0.000204	0.000000	0.000000
9.097998	16.438649	17.609719	2.149900	-2.137494	2.957612	0.000000	-0.386492	0.000000	0.005233	0.000035	0.000000	0.000000
9.543958	14.765110	19.360958	1.615892	-1.772514	2.803353	0.000000	-0.305458	0.000000	0.005279	0.000172	0.000000	0.000000
9.984918	13.545549	20.733597	1.160182	-1.328244	2.685648	0.000000	-0.228405	0.000000	0.005385	0.000309	0.000000	0.000000
10.425878	12.703127	21.686142	0.757487	-0.823529	2.601258	0.000000	-0.153957	0.000000	0.005552	0.000450	0.000000	0.000000
10.866838	12.199346	22.175244	0.389404	-0.281337	2.549219	0.000000	-0.081267	0.000000	0.005782	0.000596	0.000000	0.000000
11.309048	12.011035	22.178063	0.066743	0.222153	2.528918	0.000000	-0.015350	0.000000	0.006080	0.000735	0.000000	0.000000
11.606371	11.978739	22.050143	0.041879	0.208086	2.524136	0.000000	-0.015350	0.000000	0.006298	0.000735	0.000000	0.000000
12.086371	11.957803	21.861283	0.001738	0.185374	2.516415	0.000000	-0.015350	0.000000	0.006650	0.000735	0.000000	0.000000
12.566371	11.975403	21.694224	-0.038404	0.162663	2.508695	0.000000	-0.015350	0.000000	0.007003	0.000735	0.000000	0.000000
13.046371	12.031538	21.548969	-0.078545	0.139952	2.500975	0.000000	-0.015350	0.000000	0.007356	0.000735	0.000000	0.000000
13.526371	12.126209	21.425516	-0.118686	0.117241	2.493254	0.000000	-0.015350	0.000000	0.007708	0.000735	0.000000	0.000000
14.007621	12.259813	21.323630	-0.158932	0.094471	2.485514	0.000000	-0.015350	0.000000	0.008062	0.000735	0.000000	0.000000
14.304943	12.361689	21.271679	-0.155909	0.032624	2.480729	0.000000	-0.020946	0.000000	0.008280	0.000715	0.000000	0.000000
14.745903	12.657801	21.010221	-0.517781	0.557977	2.486645	0.000000	0.049388	0.000000	0.008643	0.000933	0.000000	0.000000
15.186863	13.282333	20.294853	-0.903325	1.057938	2.523577	0.000000	0.120274	0.000000	0.009105	0.001162	0.000000	0.000000
15.627823	14.263845	19.158124	-1.330166	1.509755	2.591941	0.000000	0.192519	0.000000	0.009670	0.001404	0.000000	0.000000
16.068783	15.647221	17.651755	-1.817817	1.892864	2.692512	0.000000	0.266942	0.000000	0.010345	0.001662	0.000000	0.000000
16.514743	17.519363	15.822638	-2.393531	2.190789	2.828121	0.000000	0.344882	0.000000	0.011148	0.001941	0.000000	0.000000
17.063803	19.923268	13.781035	-1.957076	1.548899	2.993085	0.000000	0.258390	0.000000	0.012112	0.001564	0.000000	0.000000
17.612863	21.768480	12.380022	-1.382278	1.017365	3.109437	0.000000	0.167339	0.000000	0.012861	0.001159	0.000000	0.000000
18.161923	22.924532	11.519794	-0.709763	0.558318	3.175122	0.000000	0.073338	0.000000	0.013382	0.000734	0.000000	0.000000
18.710983	23.309678	11.139070	0.012931	0.139052	3.188981	0.000000	-0.021954	0.000000	0.013665	0.000296	0.000000	0.000000
19.009556	23.337714	11.049028	-0.053579	0.137124	3.184512	0.000000	-0.014610	0.000000	0.013763	0.000329	0.000000	0.000000
19.342889	23.378208	10.967858	-0.067903	0.106388	3.179532	0.000000	-0.014610	0.000000	0.013873	0.000329	0.000000	0.000000
19.676223	23.428252	10.907177	-0.082227	0.075652	3.174552	0.000000	-0.014610	0.000000	0.013983	0.000329	0.000000	0.000000
20.010806	23.488377	10.866741	-0.212980	0.098642	3.169573	0.000000	0.001094	0.000000	0.014093	0.000399	0.000000	0.000000
20.308129	23.619099	10.816234	-0.280294	0.095852	3.169789	0.000000	0.008352	0.000000	0.014212	0.000434	0.000000	0.000000
20.857189	23.519748	10.930697	0.460269	-0.305512	3.148277	0.000000	-0.086195	0.000000	0.014324	-0.000028	0.000000	0.000000
21.406249	22.619961	11.495293	1.168300	-0.728645	3.075428	0.000000	-0.179213	0.000000	0.014181	-0.000490	0.000000	0.000000
21.955309	20.983355	12.550248	1.793747	-1.203698	2.952536	0.000000	-0.269059	0.000000	0.013787	-0.000943	0.000000	0.000000
22.504369	18.725645	14.170723	2.292398	-1.764518	2.781775	0.000000	-0.354146	0.000000	0.013148	-0.001380	0.000000	0.000000
22.950329	16.948465	15.626538	1.705159	-1.485413	2.641502	0.000000	-0.277456	0.000000	0.012607	-0.001046	0.000000	0.000000
23.391289	15.671467	16.788775	1.200852	-1.139787	2.535718	0.000000	-0.204411	0.000000	0.012217	-0.000726	0.000000	0.000000
23.832249	14.813580	17.622009	0.751445	-0.742285	2.461474	0.000000	-0.133686	0.000000	0.011966	-0.000414	0.000000	0.000000
24.273209	14.335574	18.088320	0.336391	-0.311000	2.417927	0.000000	-0.064480	0.000000	0.011852	-0.000107	0.000000	0.000000
24.715418	14.215729	18.166174	-0.032547	0.094927	2.404584	0.000000	-0.001222	0.000000	0.011872	0.000172	0.000000	0.000000
25.012741	14.241307	18.114636	-0.053484	0.078412	2.404170	0.000000	-0.001222	0.000000	0.011923	0.000172	0.000000	0.000000
25.346075	14.284788	18.068533	-0.076957	0.059898	2.403705	0.000000	-0.001222	0.000000	0.011980	0.000172	0.000000	0.000000
25.679408	14.343917	18.034772	-0.100430	0.041384	2.403240	0.000000	-0.001222	0.000000	0.012038	0.000172	0.000000	0.000000
26.013991	14.418712	18.013663	-0.007017	-0.123336	2.402750	0.000000	-0.020715	0.000000	0.012095	0.000074	0.000000	0.000000
26.311314	14.428953	18.092064	0.003563	-0.179204	2.396564	0.000000	-0.025898	0.000000	0.012117	0.000046	0.000000	0.000000
26.752274	14.604246	18.054123	-0.402445	0.264903	2.400078	0.000000	0.042242	0.000000	0.012206	0.000359	0.000000	0.000000
27.193234	15.144459	17.628286	-0.826852	0.696955	2.433587	0.000000	0.110858	0.000000	0.012434	0.000677	0.000000	0.000000
27.634194	16.074297	16.833932	-1.289063	1.097286	2.497471	0.000000	0.180731	0.000000	0.012804	0.001002	0.000000	0.000000
28.075154	17.436287	15.707207	-1.810210	1.447675	2.592454	0.000000	0.252652	0.000000	0.013320	0.001339	0.000000	0.000000
28.521114	19.316685	14.282213	-2.419321	1.733351	2.721230	0.000000	0.327922	0.000000	0.013996	0.001693	0.000000	0.000000
29.070174	21.708059	12.695341	-1.908517	1.173277	2.878013	0.000000	0.245021	0.000000	0.014799	0.001227	0.000000	0.000000
29.619234	23.460403	11.674363	-1.262791	0.696803	2.988266	0.000000	0.157793	0.000000	0.015339	0.000738	0.000000	0.000000
30.168294	24.449803	11.146541	-0.527793	0.269980	3.050039	0.000000	0.067776	0.000000	0.015607	0.000237	0.000000	0.000000
30.717354	24.606295	11.074269	0.244516	-0.137605	3.062240	0.000000	-0.023439	0.000000	0.015599	-0.000269	0.000000	0.000000
31.015927	24.497023	11.149718	0.176412	-0.139867	3.057363	0.000000	-0.016528	0.000000	0.015530	-0.000231	0.000000	0.000000
31.349260	24.384092	11.253123	0.162381	-0.170348	3.051931	0.000000	-0.016528	0.000000	0.015453	-0.000231	0.000000	0.000000
31.682593	24.280515	11.376849	0.148350	-0.200829	3.046498	0.000000	-0.016528	0.000000	0.015376	-0.000231	0.000000	0.000000
32.017177	24.185956	11.521473	0.134267	-0.231424	3.041046	0.000000	-0.016528	0.000000	0.015299	-0.000231	0.000000	0.000000
32.314499	24.110000	11.667093	0.067120	-0.232209	3.036210	0.000000	-0.009648	0.000000	0.015230	-0.000193	0.000000	0.000000
32.863559	23.623450	12.160411	0.813292	-0.671380	3.006362	0.000000	-0.099733	0.000000	0.014989	-0.000683	0.000000	0.000000
33.412619	22.344056	13.159377	1.501964	-1.158390	2.927708	0.000000	-0.188059	0.000000	0.014482	-0.001161	0.000000	0.000000
33.961679	20.362292	14.735160	2.084452	-1.727938	2.801637	0.000000	-0.273066	0.000000	0.013718	-0.001618	0.000000	0.000000
34.510739	17.818292	17.000020	2.519585	-2.420605	2.630376	0.000000	-0.353255	0.000000	0.012711	-0.002046	0.000000	0.000000
34.956699	15.841879	19.026334	1.926199	-2.103194	2.489916	0.000000	-0.280504	0.000000	0.011870	-0.001727	0.000000	0.000000
35.397659	14.368708	20.706131	1.426064	-1.691085	2.382217	0.000000	-0.211395	0.000000	0.011174	-0.001430	0.000000	0.000000
35.838619	13.306462	21.986946	0.991127	-1.202013	2.304321	0.000000	-0.144679	0.000000	0.010606	-0.001149	0.000000	0.000000
36.279579	12.606563	22.810499	0.601502	-0.658237	2.255344	0.000000	-0.079599	0.000000	0.010159	-0.000881	0.000000	0.000000
36.721789	12.236370	23.139591	0.266414	-0.135696	2.234711	0.000000	-0.020374	0.000000	0.009826	-0.000647	0.000000	0.000000
37.019112	12.085685	23.224173	0.240391	-0.148782	2.228846	0.000000	-0.020374	0.000000	0.009634	-0.000647	0.000000	0.000000
37.352445	11.935150	23.328251	0.211216	-0.163452	2.222270	0.000000	-0.020374	0.000000	0.009419	-0.000647	0.000000	0.000000
37.685779	11.804064	23.442109	0.182041	-0.178123	2.215694	0.000000	-0.020374	0.000000	0.009203	-0.000647	0.000000	0.000000
38.020362	11.692046	23.566230	0.152757	-0.192848	2.209093	0.000000	-0.020374	0.000000	0.008987	-0.000647	0.000000	0.000000
38.317684	11.608920	23.684851	0.152783	-0.259297	2.203225	0.000000	-0.025318	0.000000	0.008794	-0.000667	0.000000	0.000000
38.758644	11.622909	23.651074	-0.184808	0.335595	2.206217	0.000000	0.037823	0.000000	0.008550	-0.000444	0.000000	0.000000
39.199604	11.937278	23.097344	-0.530842	0.915213	2.237030	0.000000	0.101399	0.000000	0.008402	-0.000225	0.000000	0.000000
39.640564	12.566393	22.048863	-0.901136	1.453178	2.296016	0.000000	0.166133	0.000000	0.008350	-0.000009	0.000000	0.000000
40.081524	13.539011	20.553347	-1.312615	1.925009	2.383849	0.000000	0.232760	0.000000	0.008394	0.000207	0.000000	0.000000
40.527484	14.917167	18.656113	-1.788049	2.310746	2.503014	0.000000	0.302468	0.000000	0.008535	0.000426	0.000000	0.000000
41.076544	16.678597	16.523645	-1.400515	1.595555	2.648406	0.000000	0.226842	0.000000	0.008693	0.000147	0.000000	0.000000
41.625604	17.957145	15.109972	-0.914017	0.994040	2.751250	0.000000	0.147193	0.000000	0.008696	-0.000135	0.000000	0.000000
42.174664	18.662453	14.314378	-0.362936	0.463346	2.809723	0.000000	0.064931	0.000000	0.008545	-0.000414	0.000000	0.000000
42.723724	18.744683	14.080180	0.213782	-0.034335	2.822783	0.000000	-0.018490	0.000000	0.008243	-0.000686	0.000000	0.000000
43.022297	18.649057	14.086540	0.151886	-0.021207	2.819505	0.000000	-0.011636	0.000000	0.008044	-0.000665	0.000000	0.000000
43.502297	18.515886	14.123262	0.125554	-0.055298	2.814239	0.000000	-0.011636	0.000000	0.007725	-0.000665	0.000000	0.000000
43.982297	18.407994	14.192711	0.099221	-0.089388	2.808973	0.000000	-0.011636	0.000000	0.007405	-0.000665	0.000000	0.000000
44.462297	18.325381	14.294887	0.072889	-0.123478	2.803707	0.000000	-0.011636	0.000000	0.007086	-0.000665	0.000000	0.000000
44.942297	18.268047	14.429790	0.046557	-0.157569	2.798441	0.000000	-0.011636	0.000000	0.006767	-0.000665	0.000000	0.000000
45.423547	18.236167	14.597718	-0.070196	-0.119422	2.793179	0.000000	0.002203	0.000000	0.006446	-0.000633	0.000000	0.000000
45.720870	18.282802	14.674857	-0.131806	-0.103912	2.794024	0.000000	0.009115	0.000000	0.006258	-0.000617	0.000000	0.000000
46.269930	18.119383	15.072577	0.427278	-0.624666	2.776754	0.000000	-0.073300	0.000000	0.005865	-0.000814	0.000000	0.000000
46.818990	17.354953	16.063124	0.956159	-1.189917	2.714617	0.000000	-0.154428	0.000000	0.005367	-0.000996	0.000000	0.000000
47.368050	16.043546	17.717050	1.417468	-1.839932	2.608709	0.000000	-0.232833	0.000000	0.004774	-0.001160	0.000000	0.000000
47.917110	14.277842	20.152157	1.778614	-2.621012	2.460899	0.000000	-0.307126	0.000000	0.004097	-0.001304	0.000000	0.000000
48.363070	12.902692	22.316686	1.315227	-2.211990	2.339818	0.000000	-0.238560	0.000000	0.003538	-0.001205	0.000000	0.000000
48.804030	11.922404	24.050035	0.915763	-1.703717	2.249630	0.000000	-0.173109	0.000000	0.003026	-0.001120	0.000000	0.000000
49.244990	11.274739	25.299068	0.558152	-1.117922	2.187813	0.000000	-0.109618	0.000000	0.002548	-0.001048	0.000000	0.000000
49.685950	10.930090	26.006963	0.226052	-0.481263	2.153668	0.000000	-0.047364	0.000000	0.002099	-0.000989	0.000000	0.000000
50.128160	10.872874	26.141230	-0.069590	0.114504	2.146822	0.000000	0.009180	0.000000	0.001673	-0.000944	0.000000	0.000000
50.425482	10.922425	26.076567	-0.097067	0.102981	2.149832	0.000000	0.009180	0.000000	0.001393	-0.000944	0.000000	0.000000
50.758816	10.997405	26.012219	-0.127873	0.090063	2.153206	0.000000	0.009180	0.000000	0.001078	-0.000944	0.000000	0.000000
51.092149	11.092923	25.956483	-0.158679	0.077144	2.156581	0.000000	0.009180	0.000000	0.000763	-0.000944	0.000000	0.000000
51.426732	11.209224	25.909725	-0.098664	-0.146015	2.159946	0.000000	-0.008343	0.000000	0.000447	-0.000948	0.000000	0.000000
51.724055	11.275857	26.000037	-0.097839	-0.221747	2.157747	0.000000	-0.013626	0.000000	0.000166	-0.000948	0.000000	0.000000
52.165015	11.508929	25.906185	-0.433029	0.433772	2.165810	0.000000	0.048393	0.000000	-0.000252	-0.000949	0.000000	0.000000
52.605975	12.045174	25.240752	-0.787996	1.069550	2.201321	0.000000	0.110974	0.000000	-0.000673	-0.000961	0.000000	0.000000
53.046935	12.909081	24.034024	-1.178956	1.656662	2.264689	0.000000	0.174829	0.000000	-0.001101	-0.000984	0.000000	0.000000
53.487895	14.140110	22.340914	-1.623769	2.168397	2.356639	0.000000	0.240686	0.000000	-0.001542	-0.001018	0.000000	0.000000
53.933855	15.815530	20.213156	-2.147022	2.582776	2.479744	0.000000	0.309690	0.000000	-0.002006	-0.001064	0.000000	0.000000
54.482915	17.972068	17.818470	-1.758039	1.804536	2.629974	0.000000	0.234768	0.000000	-0.002571	-0.000990	0.000000	0.000000
55.031975	19.630338	16.203202	-1.244909	1.154825	2.737814	0.000000	0.155665	0.000000	-0.003090	-0.000898	0.000000	0.000000
55.581035	20.673250	15.252292	-0.643874	0.587367	2.801341	0.000000	0.073787	0.000000	-0.003554	-0.000791	0.000000	0.000000
56.130095	21.027175	14.898001	0.002618	0.061744	2.819425	0.000000	-0.009413	0.000000	-0.003955	-0.000669	0.000000	0.000000
56.428668	21.063739	14.843093	-0.068367	0.081838	2.819088	0.000000	-0.001804	0.000000	-0.004158	-0.000679	0.000000	0.000000
56.762001	21.114616	14.796070	-0.084266	0.059230	2.818713	0.000000	-0.001804	0.000000	-0.004384	-0.000679	0.000000	0.000000
57.095334	21.176093	14.764119	-0.100165	0.036623	2.818339	0.000000	-0.001804	0.000000	-0.004611	-0.000679	0.000000	0.000000
57.429918	21.248460	14.747205	-0.116123	0.013930	2.817962	0.000000	-0.001804	0.000000	-0.004838	-0.000679	0.000000	0.000000
57.727240	21.321744	14.744906	-0.188334	0.033752	2.817629	0.000000	0.005864	0.000000	-0.005040	-0.000693	0.000000	0.000000
58.276300	21.164018	14.990516	0.473551	-0.483753	2.798324	0.000000	-0.077254	0.000000	-0.005375	-0.000524	0.000000	0.000000
58.825360	20.293730	15.819830	1.101984	-1.035706	2.733602	0.000000	-0.159011	0.000000	-0.005614	-0.000346	0.000000	0.000000
59.374420	18.772344	17.291904	1.652589	-1.661417	2.624606	0.000000	-0.237953	0.000000	-0.005754	-0.000162	0.000000	0.000000
59.923480	16.707295	19.511572	2.086489	-2.405447	2.473268	0.000000	-0.312678	0.000000	-0.005791	0.000025	0.000000	0.000000
60.369440	15.089554	21.484211	1.554027	-1.999418	2.349259	0.000000	-0.243875	0.000000	-0.005814	-0.000125	0.000000	0.000000
60.810400	13.925164	23.034710	1.096705	-1.503686	2.256376	0.000000	-0.178230	0.000000	-0.005902	-0.000276	0.000000	0.000000
61.251360	13.140512	24.116102	0.689478	-0.939549	2.192028	0.000000	-0.114611	0.000000	-0.006058	-0.000431	0.000000	0.000000
61.692320	12.699758	24.679194	0.313746	-0.332673	2.155484	0.000000	-0.052293	0.000000	-0.006282	-0.000590	0.000000	0.000000
62.134530	12.582821	24.697781	-0.015005	0.225281	2.146339	0.000000	0.003850	0.000000	-0.006580	-0.000739	0.000000	0.000000
62.431853	12.598771	24.567579	-0.038640	0.212632	2.147703	0.000000	0.003850	0.000000	-0.006799	-0.000739	0.000000	0.000000
62.765186	12.633363	24.430552	-0.065137	0.198451	2.149233	0.000000	0.003850	0.000000	-0.007046	-0.000739	0.000000	0.000000
63.098520	12.685620	24.302979	-0.091634	0.184269	2.150762	0.000000	0.003850	0.000000	-0.007292	-0.000739	0.000000	0.000000
63.433103	12.755837	24.184435	-0.118230	0.170034	2.152298	0.000000	0.003850	0.000000	-0.007539	-0.000739	0.000000	0.000000
63.730426	12.833147	24.087128	-0.108135	0.093820	2.153660	0.000000	-0.001811	0.000000	-0.007759	-0.000719	0.000000	0.000000
64.171386	13.091004	23.739210	-0.479215	0.692268	2.166861	0.000000	0.060157	0.000000	-0.008120	-0.000924	0.000000	0.000000
64.612346	13.684419	22.875497	-0.872174	1.259222	2.207601	0.000000	0.122820	0.000000	-0.008575	-0.001139	0.000000	0.000000
65.053306	14.640479	21.535289	-1.304956	1.768892	2.276346	0.000000	0.186893	0.000000	-0.009127	-0.001367	0.000000	0.000000
65.494266	16.002826	19.779561	-1.797322	2.198096	2.373887	0.000000	0.253109	0.000000	-0.009782	-0.001611	0.000000	0.000000
65.940226	17.857013	17.663280	-2.376220	2.527848	2.502932	0.000000	0.322593	0.000000	-0.010559	-0.001874	0.000000	0.000000
66.489286	20.231012	15.296259	-1.923529	1.809309	2.660360	0.000000	0.246825	0.000000	-0.011491	-0.001517	0.000000	0.000000
67.038346	22.030083	13.643236	-1.335066	1.219609	2.774723	0.000000	0.166655	0.000000	-0.012220	-0.001133	0.000000	0.000000
67.587406	23.127276	12.586482	-0.652375	0.716753	2.843982	0.000000	0.083512	0.000000	-0.012732	-0.000729	0.000000	0.000000
68.136466	23.445178	12.050737	0.076355	0.264934	2.866904	0.000000	-0.001124	0.000000	-0.013018	-0.000312	0.000000	0.000000
68.435038	23.443703	11.879841	-0.004093	0.272786	2.869138	0.000000	0.007156	0.000000	-0.013122	-0.000348	0.000000	0.000000
68.768372	23.451171	11.708033	-0.018312	0.242640	2.871639	0.000000	0.007156	0.000000	-0.013238	-0.000348	0.000000	0.000000
69.101705	23.468119	11.556322	-0.032531	0.212493	2.874141	0.000000	0.007156	0.000000	-0.013353	-0.000348	0.000000	0.000000
69.436288	23.494663	11.424253	-0.046803	0.182233	2.876651	0.000000	0.007156	0.000000	-0.013470	-0.000348	0.000000	0.000000
69.733611	23.526392	11.323822	-0.127692	0.188114	2.878890	0.000000	0.015503	0.000000	-0.013573	-0.000385	0.000000	0.000000
70.282671	23.262605	11.344127	0.605265	-0.225321	2.864093	0.000000	-0.069651	0.000000	-0.013664	0.000056	0.000000	0.000000
