#ParticleID	Turn	x[m]	xp	y[m]	yp	z[m]	dE[GeV]# s	beta_x	beta_y	alpha_x	alpha_y	D_x	D_y	D_px	D_py	orbit_x	orbit_px	orbit_y	orbit_py
0.300000	11.859854	25.022798	-0.015542	-0.026363	2.614613	0.000000	0.000150	0.000000	-0.000143	0.000126	0.000000	0.000000
0.601250	11.876872	25.042312	-0.040949	-0.038411	2.614620	0.000000	0.000150	0.000000	-0.000105	0.000126	0.000000	0.000000
0.898573	11.908677	25.068688	-0.036802	-0.111771	2.614627	0.000000	-0.006266	0.000000	-0.000068	0.000126	0.000000	0.000000
1.339533	12.093830	24.889184	-0.384633	0.517296	2.628084	0.000000	0.067601	0.000000	-0.000013	0.000125	0.000000	0.000000
1.780493	12.592303	24.163192	-0.750038	1.122828	2.674252	0.000000	0.142237	0.000000	0.000042	0.000125	0.000000	0.000000
2.221453	13.426871	22.923743	-1.149710	1.677272	2.753657	0.000000	0.218491	0.000000	0.000098	0.000127	0.000000	0.000000
2.662413	14.635665	21.227228	-1.601911	2.155402	2.867201	0.000000	0.297233	0.000000	0.000155	0.000131	0.000000	0.000000
3.108373	16.294797	19.125962	-2.131618	2.536599	3.018038	0.000000	0.379848	0.000000	0.000214	0.000135	0.000000	0.000000
3.657433	18.422179	16.765948	-1.719957	1.787038	3.201293	0.000000	0.286941	0.000000	0.000286	0.000127	0.000000	0.000000
4.206493	20.027713	15.154734	-1.186803	1.164765	3.332067	0.000000	0.188946	0.000000	0.000353	0.000117	0.000000	0.000000
4.755553	20.997987	14.177558	-0.569816	0.625456	3.408041	0.000000	0.087601	0.000000	0.000414	0.000104	0.000000	0.000000
5.304613	21.264460	13.764819	0.087424	0.130696	3.427870	0.000000	-0.015296	0.000000	0.000468	0.000090	0.000000	0.000000
5.603185	21.249499	13.672049	0.018026	0.144210	3.425939	0.000000	-0.006375	0.000000	0.000495	0.000091	0.000000	0.000000
5.936519	21.242712	13.584205	0.002334	0.119322	3.423784	0.000000	-0.006375	0.000000	0.000526	0.000091	0.000000	0.000000
6.269852	21.246387	13.512953	-0.013357	0.094435	3.421629	0.000000	-0.006375	0.000000	0.000556	0.000091	0.000000	0.000000
6.604435	21.260595	13.458119	-0.029108	0.069454	3.419465	0.000000	-0.006375	0.000000	0.000587	0.000091	0.000000	0.000000
6.901758	21.282066	13.423418	-0.098424	0.082165	3.417543	0.000000	0.002509	0.000000	0.000614	0.000093	0.000000	0.000000
7.450818	21.027292	13.593901	0.559740	-0.394494	3.390712	0.000000	-0.099941	0.000000	0.000659	0.000072	0.000000	0.000000
7.999878	20.067294	14.300084	1.178368	-0.899253	3.308045	0.000000	-0.200616	0.000000	0.000693	0.000050	0.000000	0.000000
8.548938	18.469882	15.592269	1.713760	-1.468064	3.171010	0.000000	-0.297732	0.000000	0.000714	0.000028	0.000000	0.000000
9.097998	16.347893	17.562496	2.128098	-2.141445	2.982037	0.000000	-0.389567	0.000000	0.000723	0.000004	0.000000	0.000000
9.543958	14.692163	19.318087	1.597812	-1.778538	2.826587	0.000000	-0.307942	0.000000	0.000729	0.000023	0.000000	0.000000
9.984918	13.487320	20.696714	1.144854	-1.335955	2.708011	0.000000	-0.230311	0.000000	0.000744	0.000042	0.000000	0.000000
10.425878	12.657469	21.656618	0.744203	-0.832587	2.623049	0.000000	-0.155303	0.000000	0.000766	0.000062	0.000000	0.000000
10.866838	12.164695	22.154121	0.377553	-0.291335	2.570733	0.000000	-0.082065	0.000000	0.000798	0.000082	0.000000	0.000000
11.309048	11.986340	22.166064	0.057209	0.209154	2.550447	0.000000	-0.015967	0.000000	0.000839	0.000101	0.000000	0.000000
11.606371	11.959720	22.045855	0.032322	0.195154	2.545670	0.000000	-0.015967	0.000000	0.000869	0.000101	0.000000	0.000000
12.086371	11.947975	21.869356	-0.007854	0.172552	2.537957	0.000000	-0.015967	0.000000	0.000917	0.000101	0.000000	0.000000
12.566371	11.974800	21.714555	-0.048031	0.149950	2.530245	0.000000	-0.015967	0.000000	0.000966	0.000101	0.000000	0.000000
13.046371	12.040195	21.581453	-0.088208	0.127348	2.522532	0.000000	-0.015967	0.000000	0.001014	0.000101	0.000000	0.000000
13.526371	12.144159	21.470048	-0.128384	0.104746	2.514820	0.000000	-0.015967	0.000000	0.001062	0.000101	0.000000	0.000000
14.007621	12.287114	21.380136	-0.168665	0.082085	2.507087	0.000000	-0.015967	0.000000	0.001111	0.000101	0.000000	0.000000
14.304943	12.394809	21.335488	-0.163485	0.016360	2.502310	0.000000	-0.022037	0.000000	0.001141	0.000098	0.000000	0.000000
14.745903	12.697852	21.087556	-0.526305	0.543746	2.508165	0.000000	0.048839	0.000000	0.001191	0.000128	0.000000	0.000000
15.186863	13.330240	20.383678	-0.913174	1.046392	2.545355	0.000000	0.120270	0.000000	0.001254	0.000160	0.000000	0.000000
15.627823	14.320869	19.255880	-1.341766	1.501426	2.614300	0.000000	0.193069	0.000000	0.001332	0.000193	0.000000	0.000000
16.068783	15.715003	17.755475	-1.831665	1.888145	2.715787	0.000000	0.268065	0.000000	0.001425	0.000229	0.000000	0.000000
16.514743	17.599984	15.929235	-2.410043	2.189726	2.852665	0.000000	0.346579	0.000000	0.001535	0.000267	0.000000	0.000000
17.063803	20.020495	13.890127	-1.972091	1.545929	3.019119	0.000000	0.259298	0.000000	0.001668	0.000215	0.000000	0.000000
17.612863	21.880250	12.493741	-1.394825	1.012250	3.136343	0.000000	0.167421	0.000000	0.001770	0.000159	0.000000	0.000000
18.161923	23.047869	11.640616	-0.719025	0.550674	3.202260	0.000000	0.072577	0.000000	0.001842	0.000101	0.000000	0.000000
18.710983	23.440864	11.269984	0.007570	0.128323	3.215702	0.000000	-0.023553	0.000000	0.001881	0.000040	0.000000	0.000000
19.009556	23.476149	11.184162	-0.065480	0.130148	3.211125	0.000000	-0.015284	0.000000	0.001894	0.000045	0.000000	0.000000
19.342889	23.524555	11.107500	-0.079739	0.099839	3.206016	0.000000	-0.015284	0.000000	0.001909	0.000045	0.000000	0.000000
19.676223	23.582468	11.051043	-0.093999	0.069530	3.200906	0.000000	-0.015284	0.000000	0.001925	0.000045	0.000000	0.000000
20.010806	23.650451	11.014558	-0.225490	0.093681	3.195797	0.000000	0.000550	0.000000	0.001940	0.000055	0.000000	0.000000
20.308129	23.788468	10.966947	-0.299831	0.094642	3.195944	0.000000	0.008763	0.000000	0.001956	0.000060	0.000000	0.000000
20.857189	23.707471	11.084984	0.446492	-0.310886	3.174529	0.000000	-0.086598	0.000000	0.001972	-0.000004	0.000000	0.000000
21.406249	22.819416	11.657827	1.161275	-0.738559	3.101133	0.000000	-0.180422	0.000000	0.001952	-0.000067	0.000000	0.000000
21.955309	21.187038	12.726280	1.794022	-1.218841	2.977056	0.000000	-0.271048	0.000000	0.001898	-0.000130	0.000000	0.000000
22.504369	18.925657	14.366449	2.300036	-1.785943	2.804500	0.000000	-0.356867	0.000000	0.001810	-0.000190	0.000000	0.000000
22.950329	17.144057	15.839061	1.708881	-1.502176	2.662712	0.000000	-0.279665	0.000000	0.001736	-0.000144	0.000000	0.000000
23.391289	15.865909	17.013478	1.200545	-1.150944	2.555760	0.000000	-0.206107	0.000000	0.001682	-0.000100	0.000000	0.000000
23.832249	15.010302	17.853764	0.747065	-0.747342	2.480679	0.000000	-0.134895	0.000000	0.001648	-0.000057	0.000000	0.000000
24.273209	14.538139	18.321684	0.327718	-0.309735	2.436613	0.000000	-0.065220	0.000000	0.001632	-0.000014	0.000000	0.000000
24.715418	14.427953	18.395703	-0.041910	0.097477	2.423060	0.000000	-0.002136	0.000000	0.001635	0.000024	0.000000	0.000000
25.012741	14.459012	18.342590	-0.062553	0.081161	2.422417	0.000000	-0.002136	0.000000	0.001642	0.000024	0.000000	0.000000
25.346075	14.508429	18.294580	-0.085697	0.062869	2.421697	0.000000	-0.002136	0.000000	0.001650	0.000024	0.000000	0.000000
25.679408	14.573275	18.258765	-0.108841	0.044576	2.420977	0.000000	-0.002136	0.000000	0.001658	0.000024	0.000000	0.000000
26.013991	14.653583	18.235449	-0.013192	-0.121719	2.420230	0.000000	-0.021771	0.000000	0.001666	0.000010	0.000000	0.000000
26.311314	14.667460	18.312750	0.001913	-0.182460	2.413754	0.000000	-0.027596	0.000000	0.001669	0.000006	0.000000	0.000000
26.752274	14.846614	18.275063	-0.409714	0.267599	2.416686	0.000000	0.040960	0.000000	0.001681	0.000049	0.000000	0.000000
27.193234	15.395659	17.844323	-0.840062	0.705482	2.449904	0.000000	0.109982	0.000000	0.001713	0.000093	0.000000	0.000000
27.634194	16.339683	17.040130	-1.308793	1.111266	2.513788	0.000000	0.180256	0.000000	0.001764	0.000138	0.000000	0.000000
28.075154	17.721823	15.899074	-1.837326	1.466485	2.609063	0.000000	0.252581	0.000000	0.001835	0.000184	0.000000	0.000000
28.521114	19.629271	14.455876	-2.454793	1.755925	2.738420	0.000000	0.328232	0.000000	0.001928	0.000233	0.000000	0.000000
29.070174	22.053849	12.847875	-1.934690	1.189924	2.895864	0.000000	0.244798	0.000000	0.002038	0.000169	0.000000	0.000000
29.619234	23.828367	11.811512	-1.277914	0.708683	3.006271	0.000000	0.157025	0.000000	0.002113	0.000102	0.000000	0.000000
30.168294	24.827465	11.272968	-0.530862	0.277923	3.067683	0.000000	0.066467	0.000000	0.002150	0.000033	0.000000	0.000000
30.717354	24.980559	11.193883	0.253691	-0.133040	3.079012	0.000000	-0.025268	0.000000	0.002148	-0.000037	0.000000	0.000000
31.015927	24.871031	11.264227	0.177222	-0.131279	3.073835	0.000000	-0.017369	0.000000	0.002139	-0.000031	0.000000	0.000000
31.349260	24.757491	11.361780	0.163398	-0.161381	3.068056	0.000000	-0.017369	0.000000	0.002129	-0.000031	0.000000	0.000000
31.682593	24.653167	11.479402	0.149575	-0.191483	3.062276	0.000000	-0.017369	0.000000	0.002118	-0.000031	0.000000	0.000000
32.017177	24.557719	11.617646	0.135699	-0.221699	3.056475	0.000000	-0.017369	0.000000	0.002107	-0.000031	0.000000	0.000000
32.314499	24.480695	11.757459	0.060537	-0.218376	3.051321	0.000000	-0.009538	0.000000	0.002098	-0.000026	0.000000	0.000000
32.863559	23.994930	12.236508	0.818880	-0.659237	3.021216	0.000000	-0.100072	0.000000	0.002065	-0.000094	0.000000	0.000000
33.412619	22.703357	13.222480	1.519375	-1.147056	2.941851	0.000000	-0.188832	0.000000	0.001996	-0.000159	0.000000	0.000000
33.961679	20.697223	14.785606	2.112536	-1.716582	2.814632	0.000000	-0.274246	0.000000	0.001891	-0.000222	0.000000	0.000000
34.510739	18.118251	17.037225	2.556462	-2.408381	2.641814	0.000000	-0.354798	0.000000	0.001752	-0.000281	0.000000	0.000000
34.956699	16.113472	19.051205	1.954853	-2.088728	2.500050	0.000000	-0.281816	0.000000	0.001637	-0.000237	0.000000	0.000000
35.397659	14.618727	20.717156	1.447588	-1.674818	2.391262	0.000000	-0.212476	0.000000	0.001541	-0.000196	0.000000	0.000000
35.838619	13.540624	21.982934	1.006465	-1.184702	2.312472	0.000000	-0.145554	0.000000	0.001463	-0.000158	0.000000	0.000000
36.279579	12.829900	22.790947	0.611329	-0.640682	2.262784	0.000000	-0.080287	0.000000	0.001402	-0.000121	0.000000	0.000000
36.721789	12.453397	23.104737	0.274165	-0.123466	2.241607	0.000000	-0.021361	0.000000	0.001357	-0.000088	0.000000	0.000000
37.019112	12.297998	23.182040	0.248496	-0.136531	2.235282	0.000000	-0.021361	0.000000	0.001330	-0.000088	0.000000	0.000000
37.352445	12.141927	23.277943	0.219717	-0.151178	2.228191	0.000000	-0.021361	0.000000	0.001301	-0.000088	0.000000	0.000000
37.685779	12.005042	23.383611	0.190939	-0.165825	2.221100	0.000000	-0.021361	0.000000	0.001271	-0.000088	0.000000	0.000000
38.020362	11.886937	23.499494	0.162053	-0.180527	2.213983	0.000000	-0.021361	0.000000	0.001242	-0.000088	0.000000	0.000000
38.317684	11.798204	23.610729	0.164982	-0.250855	2.207658	0.000000	-0.026712	0.000000	0.001215	-0.000091	0.000000	0.000000
38.758644	11.803342	23.570430	-0.176702	0.341895	2.209851	0.000000	0.036520	0.000000	0.001182	-0.000061	0.000000	0.000000
39.199604	12.112234	23.012254	-0.526459	0.919089	2.239980	0.000000	0.100170	0.000000	0.001162	-0.000030	0.000000	0.000000
39.640564	12.738994	21.961597	-0.900269	1.454463	2.298387	0.000000	0.164960	0.000000	0.001155	-0.000000	0.000000	0.000000
40.081524	13.712258	20.466266	-1.315212	1.923658	2.385739	0.000000	0.231629	0.000000	0.001162	0.000029	0.000000	0.000000
40.527484	15.094042	18.571703	-1.794087	2.306638	2.504505	0.000000	0.301346	0.000000	0.001181	0.000060	0.000000	0.000000
41.076544	16.858148	16.442642	-1.399778	1.593833	2.649388	0.000000	0.225697	0.000000	0.001204	0.000021	0.000000	0.000000
41.625604	18.132047	15.029776	-0.906591	0.994557	2.751594	0.000000	0.146045	0.000000	0.001205	-0.000018	0.000000	0.000000
42.174664	18.825749	14.232468	-0.349363	0.466124	2.809309	0.000000	0.063803	0.000000	0.001184	-0.000057	0.000000	0.000000
42.723724	18.890252	13.993924	0.232541	-0.029107	2.821510	0.000000	-0.019572	0.000000	0.001143	-0.000094	0.000000	0.000000
43.022297	18.785458	13.996041	0.167320	-0.014213	2.817873	0.000000	-0.012271	0.000000	0.001115	-0.000091	0.000000	0.000000
43.502297	18.637439	14.026150	0.141053	-0.048515	2.812026	0.000000	-0.012271	0.000000	0.001072	-0.000091	0.000000	0.000000
43.982297	18.514637	14.089190	0.114786	-0.082818	2.806180	0.000000	-0.012271	0.000000	0.001028	-0.000091	0.000000	0.000000
44.462297	18.417051	14.185160	0.088519	-0.117120	2.800334	0.000000	-0.012271	0.000000	0.000984	-0.000091	0.000000	0.000000
44.942297	18.344681	14.314061	0.062252	-0.151422	2.794487	0.000000	-0.012271	0.000000	0.000940	-0.000091	0.000000	0.000000
45.423547	18.297664	14.476176	-0.054740	-0.114090	2.788643	0.000000	0.001545	0.000000	0.000896	-0.000087	0.000000	0.000000
45.720870	18.335061	14.550205	-0.118594	-0.097175	2.789128	0.000000	0.008780	0.000000	0.000870	-0.000085	0.000000	0.000000
46.269930	18.156517	14.938319	0.441796	-0.613858	2.771398	0.000000	-0.073456	0.000000	0.000816	-0.000112	0.000000	0.000000
46.818990	17.376156	15.914355	0.970978	-1.174265	2.708821	0.000000	-0.154391	0.000000	0.000748	-0.000137	0.000000	0.000000
47.368050	16.049105	17.547835	1.431569	-1.818314	2.602504	0.000000	-0.232589	0.000000	0.000666	-0.000160	0.000000	0.000000
47.917110	14.269108	19.955107	1.791036	-2.591879	2.454334	0.000000	-0.306664	0.000000	0.000573	-0.000180	0.000000	0.000000
48.363070	12.883557	22.095347	1.326778	-2.187093	2.332958	0.000000	-0.238286	0.000000	0.000495	-0.000166	0.000000	0.000000
48.804030	11.893496	23.808913	0.926910	-1.684084	2.242427	0.000000	-0.173020	0.000000	0.000425	-0.000155	0.000000	0.000000
49.244990	11.236155	25.043249	0.569391	-1.104450	2.180210	0.000000	-0.109723	0.000000	0.000359	-0.000144	0.000000	0.000000
49.685950	10.881502	25.742195	0.237889	-0.474564	2.145600	0.000000	-0.047674	0.000000	0.000297	-0.000136	0.000000	0.000000
50.128160	10.813470	25.873665	-0.056403	0.113604	2.138213	0.000000	0.008602	0.000000	0.000239	-0.000130	0.000000	0.000000
50.425482	10.855211	25.809571	-0.083986	0.101965	2.140810	0.000000	0.008602	0.000000	0.000200	-0.000130	0.000000	0.000000
50.758816	10.921510	25.745944	-0.114910	0.088915	2.143720	0.000000	0.008602	0.000000	0.000157	-0.000130	0.000000	0.000000
51.092149	11.008425	25.691017	-0.145834	0.075866	2.146631	0.000000	0.008602	0.000000	0.000114	-0.000130	0.000000	0.000000
51.426732	11.116172	25.645153	-0.086692	-0.145278	2.149530	0.000000	-0.008836	0.000000	0.000070	-0.000130	0.000000	0.000000
51.724055	11.175735	25.735062	-0.086242	-0.220256	2.146942	0.000000	-0.014100	0.000000	0.000032	-0.000130	0.000000	0.000000
52.165015	11.397594	25.642994	-0.418837	0.428250	2.154384	0.000000	0.047633	0.000000	-0.000026	-0.000130	0.000000	0.000000
52.605975	11.920072	24.985438	-0.770567	1.057269	2.189141	0.000000	0.109910	0.000000	-0.000083	-0.000132	0.000000	0.000000
53.046935	12.767038	23.792313	-1.157501	1.638184	2.251612	0.000000	0.173440	0.000000	-0.000142	-0.000135	0.000000	0.000000
53.487895	13.977186	22.117906	-1.597317	2.144562	2.342506	0.000000	0.238947	0.000000	-0.000202	-0.000139	0.000000	0.000000
53.933855	15.626527	20.013370	-2.114357	2.554695	2.464367	0.000000	0.307575	0.000000	-0.000266	-0.000145	0.000000	0.000000
54.482915	17.749849	17.645236	-1.730030	1.783852	2.613110	0.000000	0.233168	0.000000	-0.000343	-0.000135	0.000000	0.000000
55.031975	19.381129	16.049258	-1.223507	1.140068	2.719796	0.000000	0.154624	0.000000	-0.000414	-0.000123	0.000000	0.000000
55.581035	20.405145	15.111755	-0.630566	0.577489	2.782530	0.000000	0.073334	0.000000	-0.000477	-0.000108	0.000000	0.000000
56.130095	20.749573	14.765951	0.006912	0.056043	2.800200	0.000000	-0.009257	0.000000	-0.000532	-0.000092	0.000000	0.000000
56.428668	20.782269	14.715425	-0.061966	0.074413	2.799658	0.000000	-0.001908	0.000000	-0.000560	-0.000094	0.000000	0.000000
56.762001	20.828947	14.673408	-0.078067	0.051636	2.799053	0.000000	-0.001908	0.000000	-0.000591	-0.000094	0.000000	0.000000
57.095334	20.886359	14.646577	-0.094168	0.028858	2.798448	0.000000	-0.001908	0.000000	-0.000623	-0.000094	0.000000	0.000000
57.429918	20.954780	14.634915	-0.110329	0.005996	2.797841	0.000000	-0.001908	0.000000	-0.000654	-0.000094	0.000000	0.000000
57.727240	21.024657	14.637391	-0.179937	0.024122	2.797301	0.000000	0.005442	0.000000	-0.000682	-0.000095	0.000000	0.000000
58.276300	20.863344	14.891959	0.471949	-0.490508	2.777666	0.000000	-0.077024	0.000000	-0.000728	-0.000072	0.000000	0.000000
58.825360	20.000347	15.727401	1.090499	-1.040075	2.713048	0.000000	-0.158124	0.000000	-0.000761	-0.000048	0.000000	0.000000
59.374420	18.496623	17.203220	1.632024	-1.663722	2.604594	0.000000	-0.236421	0.000000	-0.000781	-0.000023	0.000000	0.000000
59.923480	16.458383	19.424533	2.058273	-2.405869	2.454227	0.000000	-0.310525	0.000000	-0.000787	0.000002	0.000000	0.000000
60.369440	14.862694	21.398874	1.532523	-2.002650	2.331054	0.000000	-0.242179	0.000000	-0.000790	-0.000018	0.000000	0.000000
60.810400	13.714598	22.953564	1.081000	-1.509669	2.238737	0.000000	-0.176987	0.000000	-0.000803	-0.000039	0.000000	0.000000
61.251360	12.941502	24.041425	0.678863	-0.948000	2.174705	0.000000	-0.113811	0.000000	-0.000825	-0.000060	0.000000	0.000000
61.692320	12.508087	24.612961	0.307741	-0.343200	2.138228	0.000000	-0.051930	0.000000	-0.000856	-0.000082	0.000000	0.000000
62.134530	12.394599	24.641627	-0.018770	0.216257	2.128896	0.000000	0.004096	0.000000	-0.000897	-0.000102	0.000000	0.000000
62.431853	12.412895	24.516786	-0.042766	0.203627	2.130145	0.000000	0.004096	0.000000	-0.000927	-0.000102	0.000000	0.000000
62.765186	12.450374	24.385755	-0.069669	0.189467	2.131544	0.000000	0.004096	0.000000	-0.000961	-0.000102	0.000000	0.000000
63.098520	12.505788	24.264163	-0.096572	0.175307	2.132943	0.000000	0.004096	0.000000	-0.000995	-0.000102	0.000000	0.000000
63.433103	12.579446	24.151609	-0.123576	0.161094	2.134348	0.000000	0.004096	0.000000	-0.001029	-0.000102	0.000000	0.000000
63.730426	12.660064	24.059571	-0.116216	0.088839	2.135596	0.000000	-0.001193	0.000000	-0.001060	-0.000099	0.000000	0.000000
64.171386	12.923535	23.716269	-0.483595	0.686745	2.148668	0.000000	0.060318	0.000000	-0.001110	-0.000127	0.000000	0.000000
64.612346	13.519475	22.857486	-0.873067	1.253405	2.189001	0.000000	0.122518	0.000000	-0.001172	-0.000157	0.000000	0.000000
65.053306	14.475106	21.522298	-1.302423	1.763037	2.257056	0.000000	0.186114	0.000000	-0.001248	-0.000188	0.000000	0.000000
65.494266	15.834085	19.771454	-1.791277	2.192455	2.353608	0.000000	0.251833	0.000000	-0.001338	-0.000221	0.000000	0.000000
65.940226	17.681683	17.659840	-2.366632	2.522843	2.481331	0.000000	0.320819	0.000000	-0.001445	-0.000257	0.000000	0.000000
66.489286	20.049373	15.297643	-1.920322	1.804900	2.637220	0.000000	0.245750	0.000000	-0.001573	-0.000209	0.000000	0.000000
67.038346	21.849149	13.649025	-1.338383	1.215512	2.750606	0.000000	0.166319	0.000000	-0.001673	-0.000156	0.000000	0.000000
67.587406	22.953902	12.596561	-0.661918	0.712698	2.819476	0.000000	0.083935	0.000000	-0.001744	-0.000101	0.000000	0.000000
68.136466	23.285608	12.065286	0.061296	0.260646	2.842606	0.000000	0.000061	0.000000	-0.001783	-0.000043	0.000000	0.000000
68.435038	23.289703	11.898556	-0.013272	0.265780	2.844889	0.000000	0.007598	0.000000	-0.001798	-0.000048	0.000000	0.000000
68.768372	23.303323	11.731367	-0.027587	0.235787	2.847438	0.000000	0.007598	0.000000	-0.001814	-0.000048	0.000000	0.000000
69.101705	23.326487	11.584174	-0.041902	0.205793	2.849987	0.000000	0.007598	0.000000	-0.001830	-0.000048	0.000000	0.000000
69.436288	23.359334	11.456536	-0.056271	0.175687	2.852545	0.000000	0.007598	0.000000	-0.001846	-0.000048	0.000000	0.000000
69.733611	23.396594	11.360018	-0.131119	0.179068	2.854819	0.000000	0.015173	0.000000	-0.001860	-0.000053	0.000000	0.000000
70.282671	23.138772	11.390883	0.597906	-0.235616	2.839969	0.000000	-0.069231	0.000000	-0.001873	0.000007	0.000000	0.000000
