#ParticleID	Turn	x[m]	xp	y[m]	yp	z[m]	dE[GeV]# s	beta_x	beta_y	alpha_x	alpha_y	D_x	D_y	D_px	D_py	orbit_x	orbit_px	orbit_y	orbit_py
0.300000	11.951095	25.217485	-0.015059	-0.024518	2.600650	0.000000	-0.001160	0.000000	-0.001202	0.001019	0.000000	0.000000
0.601250	11.967764	25.235858	-0.040272	-0.036471	2.599993	0.000000	-0.001160	0.000000	-0.000895	0.001019	0.000000	0.000000
0.898573	11.999110	25.261054	-0.035566	-0.110194	2.599345	0.000000	-0.007570	0.000000	-0.000592	0.001021	0.000000	0.000000
1.339533	12.184205	25.077921	-0.385433	0.523919	2.611761	0.000000	0.065889	0.000000	-0.000145	0.001011	0.000000	0.000000
1.780493	12.684434	24.343964	-0.752918	1.134198	2.656702	0.000000	0.140087	0.000000	0.000301	0.001013	0.000000	0.000000
2.221453	13.522661	23.092566	-1.154809	1.692875	2.734679	0.000000	0.215871	0.000000	0.000751	0.001027	0.000000	0.000000
2.662413	14.737194	21.380657	-1.609472	2.174529	2.846573	0.000000	0.294102	0.000000	0.001208	0.001052	0.000000	0.000000
3.108373	16.404530	19.261022	-2.142044	2.558422	2.995493	0.000000	0.376164	0.000000	0.001685	0.001089	0.000000	0.000000
3.657433	18.541717	16.880038	-1.726714	1.803523	3.176449	0.000000	0.284016	0.000000	0.002267	0.001025	0.000000	0.000000
4.206493	20.152728	15.253048	-1.189386	1.177088	3.305394	0.000000	0.186848	0.000000	0.002808	0.000943	0.000000	0.000000
4.755553	21.123729	14.264174	-0.568016	0.634496	3.380048	0.000000	0.086380	0.000000	0.003300	0.000844	0.000000	0.000000
5.304613	21.386097	13.842987	0.093500	0.137099	3.399094	0.000000	-0.015607	0.000000	0.003733	0.000730	0.000000	0.000000
5.603185	21.366744	13.746925	0.025402	0.149774	3.396781	0.000000	-0.007006	0.000000	0.003954	0.000740	0.000000	0.000000
5.936519	21.355013	13.655340	0.009792	0.124982	3.394199	0.000000	-0.007006	0.000000	0.004200	0.000740	0.000000	0.000000
6.269852	21.353689	13.580283	-0.005819	0.100190	3.391617	0.000000	-0.007006	0.000000	0.004447	0.000740	0.000000	0.000000
6.604435	21.362826	13.521565	-0.021488	0.075305	3.389025	0.000000	-0.007006	0.000000	0.004694	0.000740	0.000000	0.000000
6.901758	21.379759	13.483350	-0.088941	0.087098	3.386724	0.000000	0.001473	0.000000	0.004914	0.000752	0.000000	0.000000
7.450818	21.113011	13.649363	0.572262	-0.391220	3.359287	0.000000	-0.099981	0.000000	0.005283	0.000587	0.000000	0.000000
7.999878	20.138064	14.352801	1.193047	-0.897411	3.276639	0.000000	-0.199652	0.000000	0.005557	0.000412	0.000000	0.000000
8.548938	18.523793	15.643782	1.729550	-1.467534	3.140250	0.000000	-0.295775	0.000000	0.005733	0.000229	0.000000	0.000000
9.097998	16.384251	17.614275	2.143861	-2.142205	2.952541	0.000000	-0.386647	0.000000	0.005808	0.000042	0.000000	0.000000
9.543958	14.715415	19.369851	1.611319	-1.777450	2.798176	0.000000	-0.305743	0.000000	0.005860	0.000193	0.000000	0.000000
9.984918	13.499314	20.746875	1.156868	-1.333188	2.680303	0.000000	-0.228824	0.000000	0.005979	0.000346	0.000000	0.000000
10.425878	12.659316	21.703710	0.755283	-0.828255	2.595677	0.000000	-0.154516	0.000000	0.006166	0.000502	0.000000	0.000000
10.866838	12.157033	22.196809	0.388209	-0.285629	2.543334	0.000000	-0.081973	0.000000	0.006423	0.000665	0.000000	0.000000
11.309048	11.969365	22.203153	0.066214	0.218765	2.522654	0.000000	-0.016155	0.000000	0.006754	0.000818	0.000000	0.000000
11.606371	11.937409	22.077237	0.041265	0.204733	2.517607	0.000000	-0.016155	0.000000	0.006997	0.000818	0.000000	0.000000
12.086371	11.917128	21.891567	0.000987	0.182080	2.509460	0.000000	-0.016155	0.000000	0.007390	0.000818	0.000000	0.000000
12.566371	11.935515	21.727643	-0.039292	0.159427	2.501312	0.000000	-0.016155	0.000000	0.007783	0.000818	0.000000	0.000000
13.046371	11.992568	21.585467	-0.079570	0.136774	2.493165	0.000000	-0.016155	0.000000	0.008175	0.000818	0.000000	0.000000
13.526371	12.088289	21.465038	-0.119848	0.114120	2.485018	0.000000	-0.016155	0.000000	0.008568	0.000818	0.000000	0.000000
14.007621	12.223078	21.366127	-0.160231	0.091408	2.476849	0.000000	-0.016155	0.000000	0.008962	0.000818	0.000000	0.000000
14.304943	12.325746	21.315997	-0.157651	0.030000	2.471799	0.000000	-0.021676	0.000000	0.009205	0.000797	0.000000	0.000000
14.745903	12.623074	21.056304	-0.518765	0.556605	2.477302	0.000000	0.048424	0.000000	0.009610	0.001039	0.000000	0.000000
15.186863	13.248186	20.341559	-0.903598	1.057880	2.513705	0.000000	0.119064	0.000000	0.010124	0.001294	0.000000	0.000000
15.627823	14.229671	19.204281	-1.329743	1.511013	2.581418	0.000000	0.191048	0.000000	0.010753	0.001563	0.000000	0.000000
16.068783	15.612417	17.696218	-1.816682	1.895379	2.681207	0.000000	0.265191	0.000000	0.011505	0.001850	0.000000	0.000000
16.514743	17.483321	15.864270	-2.391658	2.194481	2.815887	0.000000	0.342831	0.000000	0.012399	0.002160	0.000000	0.000000
17.063803	19.886007	13.819292	-1.956551	1.551321	2.979734	0.000000	0.256751	0.000000	0.013471	0.001741	0.000000	0.000000
17.612863	21.731486	12.416203	-1.383126	1.018693	3.095227	0.000000	0.166142	0.000000	0.014305	0.001291	0.000000	0.000000
18.161923	22.889259	11.555052	-0.711916	0.558649	3.160326	0.000000	0.072606	0.000000	0.014885	0.000818	0.000000	0.000000
18.710983	23.277446	11.174490	0.009631	0.138410	3.173885	0.000000	-0.022205	0.000000	0.015200	0.000330	0.000000	0.000000
19.009556	23.306881	11.085014	-0.055984	0.136249	3.169282	0.000000	-0.015011	0.000000	0.015310	0.000367	0.000000	0.000000
19.342889	23.348986	11.004391	-0.070330	0.105620	3.164156	0.000000	-0.015011	0.000000	0.015432	0.000367	0.000000	0.000000
19.676223	23.400655	10.944187	-0.084677	0.074992	3.159031	0.000000	-0.015011	0.000000	0.015555	0.000367	0.000000	0.000000
20.010806	23.462427	10.904156	-0.215324	0.098274	3.153905	0.000000	0.000616	0.000000	0.015678	0.000445	0.000000	0.000000
20.308129	23.594584	10.853824	-0.281717	0.095266	3.153967	0.000000	0.007718	0.000000	0.015810	0.000483	0.000000	0.000000
20.857189	23.497222	10.969515	0.458102	-0.307170	3.132234	0.000000	-0.086317	0.000000	0.015934	-0.000031	0.000000	0.000000
21.406249	22.600125	11.536585	1.165540	-0.731494	3.059473	0.000000	-0.178821	0.000000	0.015776	-0.000545	0.000000	0.000000
21.955309	20.966726	12.595437	1.790583	-1.207943	2.936975	0.000000	-0.268161	0.000000	0.015338	-0.001049	0.000000	0.000000
22.504369	18.712528	14.221511	2.289042	-1.770465	2.766908	0.000000	-0.352758	0.000000	0.014627	-0.001535	0.000000	0.000000
22.950329	16.938012	15.682127	1.702283	-1.490060	2.627223	0.000000	-0.276441	0.000000	0.014026	-0.001163	0.000000	0.000000
23.391289	15.663327	16.847851	1.198359	-1.142960	2.521846	0.000000	-0.203755	0.000000	0.013592	-0.000807	0.000000	0.000000
23.832249	14.807482	17.683193	0.749225	-0.743838	2.447839	0.000000	-0.133383	0.000000	0.013313	-0.000460	0.000000	0.000000
24.273209	14.331336	18.150138	0.334344	-0.310860	2.404361	0.000000	-0.064526	0.000000	0.013186	-0.000118	0.000000	0.000000
24.715418	14.213272	18.227099	-0.034986	0.097218	2.390919	0.000000	-0.001508	0.000000	0.013209	0.000192	0.000000	0.000000
25.012741	14.240304	18.174184	-0.055930	0.080752	2.390414	0.000000	-0.001508	0.000000	0.013266	0.000192	0.000000	0.000000
25.346075	14.285418	18.126503	-0.079411	0.062291	2.389847	0.000000	-0.001508	0.000000	0.013330	0.000192	0.000000	0.000000
25.679408	14.346186	18.091130	-0.102892	0.043830	2.389281	0.000000	-0.001508	0.000000	0.013394	0.000192	0.000000	0.000000
26.013991	14.422631	18.068366	-0.009456	-0.121279	2.388688	0.000000	-0.020887	0.000000	0.013458	0.000083	0.000000	0.000000
26.311314	14.434307	18.145546	0.000653	-0.176589	2.382447	0.000000	-0.025958	0.000000	0.013482	0.000052	0.000000	0.000000
26.752274	14.612256	18.104660	-0.405564	0.268938	2.385845	0.000000	0.041818	0.000000	0.013582	0.000401	0.000000	0.000000
27.193234	15.155388	17.674695	-0.830325	0.702225	2.419062	0.000000	0.110067	0.000000	0.013837	0.000754	0.000000	0.000000
27.634194	16.088542	16.875217	-1.293051	1.103551	2.482474	0.000000	0.179561	0.000000	0.014249	0.001116	0.000000	0.000000
28.075154	17.454403	15.742607	-1.814901	1.454648	2.576800	0.000000	0.251089	0.000000	0.014823	0.001491	0.000000	0.000000
28.521114	19.339528	14.311118	-2.424981	1.740746	2.704720	0.000000	0.325949	0.000000	0.015576	0.001885	0.000000	0.000000
29.070174	21.737037	12.716884	-1.913757	1.179298	2.860484	0.000000	0.243596	0.000000	0.016470	0.001366	0.000000	0.000000
29.619234	23.494811	11.689821	-1.267229	0.701882	2.970055	0.000000	0.156942	0.000000	0.017072	0.000823	0.000000	0.000000
30.168294	24.488539	11.156755	-0.531105	0.274481	3.031495	0.000000	0.067516	0.000000	0.017371	0.000265	0.000000	0.000000
30.717354	24.647941	11.079707	0.242567	-0.133361	3.043717	0.000000	-0.023104	0.000000	0.017361	-0.000298	0.000000	0.000000
31.015927	24.539222	11.152896	0.175429	-0.136034	3.038895	0.000000	-0.016362	0.000000	0.017285	-0.000256	0.000000	0.000000
31.349260	24.426937	11.253732	0.161427	-0.166475	3.033526	0.000000	-0.016362	0.000000	0.017199	-0.000256	0.000000	0.000000
31.682593	24.323986	11.374862	0.147425	-0.196915	3.028158	0.000000	-0.016362	0.000000	0.017114	-0.000256	0.000000	0.000000
32.017177	24.230036	11.516855	0.133371	-0.227470	3.022769	0.000000	-0.016362	0.000000	0.017028	-0.000256	0.000000	0.000000
32.314499	24.154644	11.660093	0.067136	-0.228715	3.017993	0.000000	-0.009647	0.000000	0.016952	-0.000215	0.000000	0.000000
32.863559	23.667214	12.149397	0.814813	-0.667498	2.988331	0.000000	-0.099149	0.000000	0.016684	-0.000760	0.000000	0.000000
33.412619	22.385300	13.143786	1.504876	-1.153845	2.910208	0.000000	-0.186903	0.000000	0.016119	-0.001292	0.000000	0.000000
33.961679	20.399567	14.714106	2.088540	-1.722410	2.785004	0.000000	-0.271362	0.000000	0.015269	-0.001801	0.000000	0.000000
34.510739	17.850447	16.972228	2.524545	-2.413704	2.614927	0.000000	-0.351035	0.000000	0.014148	-0.002277	0.000000	0.000000
34.956699	15.869978	18.992541	1.930094	-2.096543	2.475458	0.000000	-0.278667	0.000000	0.013212	-0.001922	0.000000	0.000000
35.397659	14.393693	20.666741	1.429115	-1.685024	2.368564	0.000000	-0.209918	0.000000	0.012438	-0.001592	0.000000	0.000000
35.838619	13.329028	21.942595	0.993478	-1.196815	2.291304	0.000000	-0.143544	0.000000	0.011805	-0.001279	0.000000	0.000000
36.279579	12.627290	22.762046	0.603265	-0.654138	2.242803	0.000000	-0.078792	0.000000	0.011307	-0.000981	0.000000	0.000000
36.721789	12.255756	23.088058	0.267381	-0.132118	2.222493	0.000000	-0.019797	0.000000	0.010937	-0.000720	0.000000	0.000000
37.019112	12.104488	23.170517	0.241387	-0.145220	2.216821	0.000000	-0.019797	0.000000	0.010723	-0.000720	0.000000	0.000000
37.352445	11.953277	23.272227	0.212244	-0.159910	2.210462	0.000000	-0.019797	0.000000	0.010483	-0.000720	0.000000	0.000000
37.685779	11.821495	23.383730	0.183102	-0.174599	2.204103	0.000000	-0.019797	0.000000	0.010244	-0.000720	0.000000	0.000000
38.020362	11.708757	23.505499	0.153850	-0.189344	2.197721	0.000000	-0.019797	0.000000	0.010003	-0.000720	0.000000	0.000000
38.317684	11.624967	23.622054	0.153660	-0.255121	2.192045	0.000000	-0.024662	0.000000	0.009789	-0.000743	0.000000	0.000000
38.758644	11.638336	23.585338	-0.184294	0.338057	2.195290	0.000000	0.038195	0.000000	0.009516	-0.000494	0.000000	0.000000
39.199604	11.952400	23.030228	-0.530667	0.915849	2.226222	0.000000	0.101493	0.000000	0.009353	-0.000250	0.000000	0.000000
39.640564	12.581513	21.981991	-0.901292	1.451958	2.285195	0.000000	0.165950	0.000000	0.009295	-0.000010	0.000000	0.000000
40.081524	13.554432	20.488333	-1.313112	1.921987	2.372882	0.000000	0.232297	0.000000	0.009344	0.000230	0.000000	0.000000
40.527484	14.933238	18.594509	-1.788932	2.306071	2.491764	0.000000	0.301721	0.000000	0.009501	0.000475	0.000000	0.000000
41.076544	16.695341	16.466104	-1.400790	1.592734	2.636831	0.000000	0.226463	0.000000	0.009677	0.000164	0.000000	0.000000
41.625604	17.973861	15.054587	-0.913660	0.992875	2.739571	0.000000	0.147188	0.000000	0.009681	-0.000150	0.000000	0.000000
42.174664	18.678439	14.259394	-0.361969	0.463756	2.798161	0.000000	0.065300	0.000000	0.009513	-0.000461	0.000000	0.000000
42.723724	18.759284	14.023868	0.215290	-0.032319	2.811558	0.000000	-0.017754	0.000000	0.009176	-0.000763	0.000000	0.000000
43.022297	18.662528	14.029309	0.153763	-0.019698	2.808496	0.000000	-0.010987	0.000000	0.008955	-0.000740	0.000000	0.000000
43.502297	18.527553	14.064648	0.127435	-0.053926	2.803577	0.000000	-0.010987	0.000000	0.008600	-0.000740	0.000000	0.000000
43.982297	18.417853	14.132846	0.101107	-0.088153	2.798659	0.000000	-0.010987	0.000000	0.008244	-0.000740	0.000000	0.000000
44.462297	18.333427	14.233902	0.074779	-0.122380	2.793740	0.000000	-0.010987	0.000000	0.007889	-0.000740	0.000000	0.000000
44.942297	18.274277	14.367817	0.048451	-0.156608	2.788822	0.000000	-0.010987	0.000000	0.007534	-0.000740	0.000000	0.000000
45.423547	18.240572	14.534886	-0.068320	-0.118909	2.783908	0.000000	0.002806	0.000000	0.007177	-0.000705	0.000000	0.000000
45.720870	18.286093	14.611742	-0.129635	-0.103892	2.784954	0.000000	0.009650	0.000000	0.006968	-0.000687	0.000000	0.000000
46.269930	18.120218	15.008413	0.429510	-0.622756	2.768100	0.000000	-0.072479	0.000000	0.006530	-0.000906	0.000000	0.000000
46.818990	17.353341	15.995779	0.958292	-1.185982	2.706542	0.000000	-0.153338	0.000000	0.005976	-0.001108	0.000000	0.000000
47.368050	16.039673	17.644165	1.419348	-1.833692	2.601365	0.000000	-0.231494	0.000000	0.005316	-0.001291	0.000000	0.000000
47.917110	14.272061	20.070978	1.780104	-2.612025	2.454426	0.000000	-0.305565	0.000000	0.004562	-0.001451	0.000000	0.000000
48.363070	12.895572	22.228345	1.316671	-2.204955	2.334066	0.000000	-0.237156	0.000000	0.003940	-0.001341	0.000000	0.000000
48.804030	11.913976	23.956482	0.917239	-1.698957	2.244522	0.000000	-0.171844	0.000000	0.003370	-0.001247	0.000000	0.000000
49.244990	11.264948	25.202410	0.559729	-1.115653	2.183287	0.000000	-0.108477	0.000000	0.002838	-0.001167	0.000000	0.000000
49.685950	10.918820	25.909447	0.227803	-0.481589	2.149669	0.000000	-0.046333	0.000000	0.002338	-0.001100	0.000000	0.000000
50.128160	10.859935	26.045150	-0.067664	0.111985	2.143304	0.000000	0.010133	0.000000	0.001864	-0.001051	0.000000	0.000000
50.425482	10.908348	25.981996	-0.095167	0.100426	2.146629	0.000000	0.010133	0.000000	0.001552	-0.001051	0.000000	0.000000
50.758816	10.982071	25.919365	-0.126002	0.087467	2.150357	0.000000	0.010133	0.000000	0.001202	-0.001051	0.000000	0.000000
51.092149	11.076351	25.865373	-0.156836	0.074508	2.154085	0.000000	0.010133	0.000000	0.000851	-0.001051	0.000000	0.000000
51.426732	11.191429	25.820390	-0.096994	-0.147967	2.157805	0.000000	-0.007372	0.000000	0.000500	-0.001055	0.000000	0.000000
51.724055	11.257079	25.911877	-0.096254	-0.223556	2.155927	0.000000	-0.012650	0.000000	0.000186	-0.001055	0.000000	0.000000
52.165015	11.488537	25.820644	-0.430974	0.429665	2.164456	0.000000	0.049329	0.000000	-0.000279	-0.001056	0.000000	0.000000
52.605975	12.022712	25.159782	-0.785376	1.063332	2.200419	0.000000	0.111880	0.000000	-0.000747	-0.001070	0.000000	0.000000
53.046935	12.883999	23.959370	-1.175651	1.648615	2.264228	0.000000	0.175718	0.000000	-0.001224	-0.001095	0.000000	0.000000
53.487895	14.111734	22.274035	-1.619626	2.158886	2.356617	0.000000	0.241568	0.000000	-0.001714	-0.001133	0.000000	0.000000
53.933855	15.782986	20.155261	-2.141836	2.572230	2.480166	0.000000	0.310577	0.000000	-0.002231	-0.001184	0.000000	0.000000
54.482915	17.934233	17.770782	-1.753713	1.796398	2.630939	0.000000	0.235632	0.000000	-0.002859	-0.001102	0.000000	0.000000
55.031975	19.588333	16.163407	-1.241753	1.148515	2.739299	0.000000	0.156491	0.000000	-0.003437	-0.001000	0.000000	0.000000
55.581035	20.628494	15.218637	-0.642113	0.582436	2.803316	0.000000	0.074558	0.000000	-0.003953	-0.000880	0.000000	0.000000
56.130095	20.981287	14.869170	0.002856	0.057841	2.821847	0.000000	-0.008712	0.000000	-0.004400	-0.000745	0.000000	0.000000
56.428668	21.017761	14.816554	-0.068236	0.077990	2.821753	0.000000	-0.001070	0.000000	-0.004626	-0.000756	0.000000	0.000000
56.762001	21.068563	14.772105	-0.084169	0.055356	2.821649	0.000000	-0.001070	0.000000	-0.004878	-0.000756	0.000000	0.000000
57.095334	21.129987	14.742746	-0.100103	0.032722	2.821544	0.000000	-0.001070	0.000000	-0.005130	-0.000756	0.000000	0.000000
57.429918	21.202323	14.728451	-0.116096	0.010003	2.821439	0.000000	-0.001070	0.000000	-0.005383	-0.000756	0.000000	0.000000
57.727240	21.275605	14.728492	-0.188468	0.029918	2.821347	0.000000	0.006643	0.000000	-0.005608	-0.000771	0.000000	0.000000
58.276300	21.118855	14.978083	0.471877	-0.487216	2.802473	0.000000	-0.076601	0.000000	-0.005980	-0.000584	0.000000	0.000000
58.825360	20.251194	15.811102	1.098887	-1.039045	2.738098	0.000000	-0.158497	0.000000	-0.006246	-0.000385	0.000000	0.000000
59.374420	18.733898	17.286869	1.648290	-1.664868	2.629360	0.000000	-0.237587	0.000000	-0.006402	-0.000181	0.000000	0.000000
59.923480	16.674109	19.510477	2.081294	-2.409253	2.478186	0.000000	-0.312467	0.000000	-0.006444	0.000028	0.000000	0.000000
60.369440	15.060514	21.486692	1.549898	-2.003610	2.354302	0.000000	-0.243538	0.000000	-0.006469	-0.000140	0.000000	0.000000
60.810400	13.899385	23.040964	1.093428	-1.508053	2.261606	0.000000	-0.177762	0.000000	-0.006568	-0.000308	0.000000	0.000000
61.251360	13.117304	24.126201	0.686902	-0.943895	2.197512	0.000000	-0.114007	0.000000	-0.006741	-0.000479	0.000000	0.000000
61.692320	12.678552	24.693039	0.311753	-0.336801	2.161292	0.000000	-0.051544	0.000000	-0.006991	-0.000656	0.000000	0.000000
62.134530	12.563146	24.715103	-0.016348	0.221135	2.152544	0.000000	0.004701	0.000000	-0.007322	-0.000822	0.000000	0.000000
62.431853	12.579906	24.587358	-0.040020	0.208517	2.154186	0.000000	0.004701	0.000000	-0.007567	-0.000822	0.000000	0.000000
62.765186	12.615433	24.453062	-0.066560	0.194370	2.156027	0.000000	0.004701	0.000000	-0.007841	-0.000822	0.000000	0.000000
63.098520	12.668653	24.328198	-0.093100	0.180224	2.157868	0.000000	0.004701	0.000000	-0.008115	-0.000822	0.000000	0.000000
63.433103	12.739866	24.212349	-0.119739	0.166024	2.159716	0.000000	0.004701	0.000000	-0.008390	-0.000822	0.000000	0.000000
63.730426	12.818078	24.117428	-0.109472	0.089263	2.161356	0.000000	-0.001022	0.000000	-0.008635	-0.000800	0.000000	0.000000
64.171386	13.076952	23.773144	-0.480234	0.688624	2.174988	0.000000	0.061148	0.000000	-0.009037	-0.001028	0.000000	0.000000
64.612346	13.671114	22.912191	-0.872919	1.256657	2.216261	0.000000	0.124026	0.000000	-0.009543	-0.001268	0.000000	0.000000
65.053306	14.627683	21.573743	-1.305457	1.767524	2.285648	0.000000	0.188329	0.000000	-0.010157	-0.001521	0.000000	0.000000
65.494266	15.990321	19.818694	-1.797599	2.197989	2.383945	0.000000	0.254793	0.000000	-0.010887	-0.001793	0.000000	0.000000
65.940226	17.844611	17.701946	-2.376249	2.528997	2.513885	0.000000	0.324543	0.000000	-0.011751	-0.002086	0.000000	0.000000
66.489286	20.218853	15.334194	-1.924119	1.809575	2.672383	0.000000	0.248406	0.000000	-0.012789	-0.001689	0.000000	0.000000
67.038346	22.018785	13.681386	-1.336188	1.219006	2.787581	0.000000	0.167837	0.000000	-0.013600	-0.001261	0.000000	0.000000
67.587406	23.117412	12.625810	-0.653957	0.715236	2.857428	0.000000	0.084271	0.000000	-0.014169	-0.000811	0.000000	0.000000
68.136466	23.437228	12.092290	0.074419	0.262393	2.880678	0.000000	-0.000801	0.000000	-0.014488	-0.000347	0.000000	0.000000
68.435038	23.437286	11.922599	-0.006709	0.270855	2.883056	0.000000	0.007604	0.000000	-0.014604	-0.000387	0.000000	0.000000
68.768372	23.446500	11.752032	-0.020932	0.240846	2.885720	0.000000	0.007604	0.000000	-0.014733	-0.000387	0.000000	0.000000
69.101705	23.465196	11.601471	-0.035155	0.210837	2.888383	0.000000	0.007604	0.000000	-0.014862	-0.000387	0.000000	0.000000
69.436288	23.493497	11.470464	-0.049432	0.180715	2.891057	0.000000	0.007604	0.000000	-0.014991	-0.000387	0.000000	0.000000
69.733611	23.526821	11.370885	-0.131054	0.187201	2.893443	0.000000	0.016082	0.000000	-0.015107	-0.000429	0.000000	0.000000
70.282671	23.266703	11.392913	0.601983	-0.227565	2.878846	0.000000	-0.069542	0.000000	-0.015208	0.000062	0.000000	0.000000
