#ParticleID	Turn	x[m]	xp	y[m]	yp	z[m]	dE[GeV]# s	beta_x	beta_y	alpha_x	alpha_y	D_x	D_y	D_px	D_py	orbit_x	orbit_px	orbit_y	orbit_py
0.300000	11.960134	25.269753	-0.016861	-0.023319	2.599249	0.000000	-0.000621	0.000000	-0.001134	0.000968	0.000000	0.000000
0.601250	11.977883	25.287396	-0.042056	-0.035247	2.598770	0.000000	-0.000621	0.000000	-0.000842	0.000968	0.000000	0.000000
0.898573	12.010284	25.311855	-0.037315	-0.109065	2.598298	0.000000	-0.007026	0.000000	-0.000554	0.000969	0.000000	0.000000
1.339533	12.197041	25.127140	-0.387483	0.526367	2.610969	0.000000	0.066409	0.000000	-0.000129	0.000960	0.000000	0.000000
1.780493	12.699237	24.390481	-0.755362	1.137854	2.656158	0.000000	0.140591	0.000000	0.000294	0.000963	0.000000	0.000000
2.221453	13.539825	23.135386	-1.157759	1.697572	2.734375	0.000000	0.216363	0.000000	0.000721	0.000976	0.000000	0.000000
2.662413	14.757221	21.418953	-1.613061	2.180054	2.846507	0.000000	0.294590	0.000000	0.001157	0.001000	0.000000	0.000000
3.108373	16.428096	19.294114	-2.146443	2.564522	2.995667	0.000000	0.376652	0.000000	0.001610	0.001036	0.000000	0.000000
3.657433	18.569821	16.907232	-1.730563	1.808235	3.176915	0.000000	0.284495	0.000000	0.002163	0.000975	0.000000	0.000000
4.206493	20.184614	15.275675	-1.192416	1.180747	3.306144	0.000000	0.187307	0.000000	0.002677	0.000896	0.000000	0.000000
4.755553	21.158375	14.283240	-0.570013	0.637364	3.381066	0.000000	0.086811	0.000000	0.003144	0.000802	0.000000	0.000000
5.304613	21.422289	13.859244	0.092674	0.139379	3.400361	0.000000	-0.015212	0.000000	0.003555	0.000693	0.000000	0.000000
5.603185	21.403527	13.761757	0.024426	0.152165	3.398181	0.000000	-0.006595	0.000000	0.003765	0.000703	0.000000	0.000000
5.936519	21.392438	13.668574	0.008843	0.127383	3.395749	0.000000	-0.006595	0.000000	0.003999	0.000703	0.000000	0.000000
6.269852	21.391737	13.591913	-0.006740	0.102600	3.393317	0.000000	-0.006595	0.000000	0.004233	0.000703	0.000000	0.000000
6.604435	21.401481	13.531580	-0.022382	0.077725	3.390875	0.000000	-0.006595	0.000000	0.004468	0.000703	0.000000	0.000000
6.901758	21.418937	13.491925	-0.090022	0.089611	3.388707	0.000000	0.001908	0.000000	0.004677	0.000715	0.000000	0.000000
7.450818	21.152640	13.655292	0.572509	-0.388888	3.361509	0.000000	-0.099614	0.000000	0.005027	0.000557	0.000000	0.000000
7.999878	20.176693	14.356188	1.194604	-0.895092	3.279056	0.000000	-0.199360	0.000000	0.005288	0.000390	0.000000	0.000000
8.548938	18.560039	15.644549	1.732308	-1.465064	3.142815	0.000000	-0.295563	0.000000	0.005454	0.000216	0.000000	0.000000
9.097998	16.416901	17.612158	2.147626	-2.139406	2.955205	0.000000	-0.386519	0.000000	0.005524	0.000038	0.000000	0.000000
9.543958	14.745123	19.365149	1.614189	-1.774495	2.800917	0.000000	-0.305546	0.000000	0.005573	0.000182	0.000000	0.000000
9.984918	13.526838	20.739540	1.158975	-1.330209	2.683153	0.000000	-0.228556	0.000000	0.005685	0.000327	0.000000	0.000000
10.425878	12.685283	21.693781	0.756721	-0.825388	2.598672	0.000000	-0.154173	0.000000	0.005862	0.000476	0.000000	0.000000
10.866838	12.181999	22.184447	0.389044	-0.283004	2.546510	0.000000	-0.081550	0.000000	0.006106	0.000631	0.000000	0.000000
11.309048	11.993838	22.188625	0.066637	0.220897	2.526051	0.000000	-0.015677	0.000000	0.006421	0.000777	0.000000	0.000000
11.606371	11.961616	22.061448	0.041737	0.206843	2.521159	0.000000	-0.015677	0.000000	0.006652	0.000777	0.000000	0.000000
12.086371	11.940844	21.873769	0.001539	0.184155	2.513262	0.000000	-0.015677	0.000000	0.007024	0.000777	0.000000	0.000000
12.566371	11.958661	21.707870	-0.038660	0.161467	2.505364	0.000000	-0.015677	0.000000	0.007397	0.000777	0.000000	0.000000
13.046371	12.015070	21.563753	-0.078858	0.138778	2.497466	0.000000	-0.015677	0.000000	0.007770	0.000777	0.000000	0.000000
13.526371	12.110069	21.441416	-0.119056	0.116090	2.489568	0.000000	-0.015677	0.000000	0.008143	0.000777	0.000000	0.000000
14.007621	12.244056	21.340626	-0.159359	0.093343	2.481650	0.000000	-0.015677	0.000000	0.008517	0.000777	0.000000	0.000000
14.304943	12.346194	21.289347	-0.156546	0.031724	2.476755	0.000000	-0.021236	0.000000	0.008748	0.000756	0.000000	0.000000
14.745903	12.642730	21.028464	-0.518088	0.557573	2.482500	0.000000	0.048994	0.000000	0.009131	0.000987	0.000000	0.000000
15.186863	13.267408	20.313222	-0.903317	1.058049	2.519209	0.000000	0.119771	0.000000	0.009619	0.001228	0.000000	0.000000
15.627823	14.248795	19.176161	-1.329844	1.510375	2.587296	0.000000	0.191901	0.000000	0.010217	0.001484	0.000000	0.000000
16.068783	15.631771	17.669018	-1.817168	1.893964	2.687531	0.000000	0.266200	0.000000	0.010931	0.001757	0.000000	0.000000
16.514743	17.503234	15.838691	-2.392539	2.192335	2.822739	0.000000	0.344009	0.000000	0.011780	0.002051	0.000000	0.000000
17.063803	19.906418	13.795657	-1.956668	1.549940	2.987221	0.000000	0.257698	0.000000	0.012798	0.001653	0.000000	0.000000
17.612863	21.751560	12.393727	-1.382477	1.017977	3.103206	0.000000	0.166840	0.000000	0.013590	0.001226	0.000000	0.000000
18.161923	22.908189	11.533033	-0.710551	0.558545	3.168644	0.000000	0.073043	0.000000	0.014140	0.000776	0.000000	0.000000
18.710983	23.294513	11.152258	0.011613	0.138910	3.182384	0.000000	-0.022039	0.000000	0.014440	0.000313	0.000000	0.000000
19.009556	23.323050	11.062403	-0.054448	0.136842	3.177860	0.000000	-0.014768	0.000000	0.014544	0.000348	0.000000	0.000000
19.342889	23.364126	10.981407	-0.068782	0.106146	3.172822	0.000000	-0.014768	0.000000	0.014660	0.000348	0.000000	0.000000
19.676223	23.414759	10.920875	-0.083116	0.075449	3.167783	0.000000	-0.014768	0.000000	0.014776	0.000348	0.000000	0.000000
20.010806	23.475483	10.880561	-0.213815	0.098547	3.162744	0.000000	0.000902	0.000000	0.014893	0.000422	0.000000	0.000000
20.308129	23.606721	10.830093	-0.280663	0.095623	3.162897	0.000000	0.008084	0.000000	0.015018	0.000459	0.000000	0.000000
20.857189	23.507994	10.945024	0.459516	-0.306138	3.141292	0.000000	-0.086241	0.000000	0.015136	-0.000030	0.000000	0.000000
21.406249	22.609205	11.510551	1.167216	-0.729713	3.068487	0.000000	-0.179035	0.000000	0.014986	-0.000518	0.000000	0.000000
21.955309	20.973906	12.566967	1.792405	-1.205285	2.945772	0.000000	-0.268661	0.000000	0.014569	-0.000997	0.000000	0.000000
22.504369	18.717727	14.189537	2.290887	-1.766738	2.775322	0.000000	-0.353536	0.000000	0.013894	-0.001458	0.000000	0.000000
22.950329	16.941726	15.647151	1.703898	-1.487147	2.635311	0.000000	-0.277007	0.000000	0.013323	-0.001105	0.000000	0.000000
23.391289	15.665721	16.810694	1.199801	-1.140974	2.529710	0.000000	-0.204118	0.000000	0.012911	-0.000767	0.000000	0.000000
23.832249	14.808671	17.644720	0.750558	-0.742870	2.455575	0.000000	-0.133545	0.000000	0.012646	-0.000437	0.000000	0.000000
24.273209	14.331382	18.111275	0.335628	-0.310956	2.412062	0.000000	-0.064490	0.000000	0.012525	-0.000113	0.000000	0.000000
24.715418	14.212176	18.188802	-0.033463	0.095849	2.398682	0.000000	-0.001330	0.000000	0.012546	0.000182	0.000000	0.000000
25.012741	14.238302	18.136710	-0.054407	0.079353	2.398232	0.000000	-0.001330	0.000000	0.012600	0.000182	0.000000	0.000000
25.346075	14.282400	18.089973	-0.077887	0.060858	2.397728	0.000000	-0.001330	0.000000	0.012661	0.000182	0.000000	0.000000
25.679408	14.342152	18.055566	-0.101368	0.042363	2.397224	0.000000	-0.001330	0.000000	0.012722	0.000182	0.000000	0.000000
26.013991	14.417577	18.033795	-0.007971	-0.122500	2.396694	0.000000	-0.020774	0.000000	0.012782	0.000078	0.000000	0.000000
26.311314	14.428379	18.111702	0.002360	-0.178079	2.390489	0.000000	-0.025902	0.000000	0.012805	0.000049	0.000000	0.000000
26.752274	14.604742	18.072534	-0.403669	0.266548	2.393962	0.000000	0.042081	0.000000	0.012900	0.000380	0.000000	0.000000
27.193234	15.146076	17.645039	-0.828154	0.699045	2.427353	0.000000	0.110540	0.000000	0.013141	0.000716	0.000000	0.000000
27.634194	16.077139	16.848671	-1.290504	1.099725	2.491041	0.000000	0.180250	0.000000	0.013532	0.001060	0.000000	0.000000
28.075154	17.440516	15.719668	-1.811859	1.450352	2.585747	0.000000	0.252003	0.000000	0.014078	0.001416	0.000000	0.000000
28.521114	19.322579	14.292188	-2.421278	1.736160	2.714161	0.000000	0.327098	0.000000	0.014792	0.001790	0.000000	0.000000
29.070174	21.716135	12.702504	-1.910407	1.175584	2.870513	0.000000	0.244431	0.000000	0.015641	0.001297	0.000000	0.000000
29.619234	23.470497	11.679177	-1.264476	0.698775	2.980480	0.000000	0.157448	0.000000	0.016213	0.000781	0.000000	0.000000
30.168294	24.461599	11.149301	-0.529148	0.271758	3.042119	0.000000	0.067683	0.000000	0.016496	0.000251	0.000000	0.000000
30.717354	24.619354	11.075123	0.243588	-0.135894	3.054340	0.000000	-0.023278	0.000000	0.016487	-0.000284	0.000000	0.000000
31.015927	24.510320	11.149693	0.175983	-0.138374	3.049489	0.000000	-0.016449	0.000000	0.016414	-0.000244	0.000000	0.000000
31.349260	24.397672	11.252098	0.161962	-0.168842	3.044087	0.000000	-0.016449	0.000000	0.016333	-0.000244	0.000000	0.000000
31.682593	24.294371	11.374816	0.147941	-0.199311	3.038685	0.000000	-0.016449	0.000000	0.016252	-0.000244	0.000000	0.000000
32.017177	24.200083	11.518421	0.133867	-0.229894	3.033263	0.000000	-0.016449	0.000000	0.016171	-0.000244	0.000000	0.000000
32.314499	24.124381	11.663118	0.067192	-0.230918	3.028457	0.000000	-0.009649	0.000000	0.016098	-0.000205	0.000000	0.000000
32.863559	23.637466	12.154934	0.813853	-0.669908	2.998689	0.000000	-0.099486	0.000000	0.015843	-0.000722	0.000000	0.000000
33.412619	22.357170	13.152149	1.502971	-1.156632	2.920264	0.000000	-0.187569	0.000000	0.015307	-0.001227	0.000000	0.000000
33.961679	20.374038	14.725808	2.085829	-1.725772	2.794566	0.000000	-0.272344	0.000000	0.014500	-0.001710	0.000000	0.000000
34.510739	17.828309	16.988021	2.521227	-2.417878	2.623816	0.000000	-0.352314	0.000000	0.013435	-0.002163	0.000000	0.000000
34.956699	15.850533	19.011985	1.927491	-2.100597	2.483783	0.000000	-0.279725	0.000000	0.012546	-0.001825	0.000000	0.000000
35.397659	14.376314	20.689616	1.427086	-1.688755	2.376432	0.000000	-0.210768	0.000000	0.011811	-0.001511	0.000000	0.000000
35.838619	13.313245	21.968544	0.991926	-1.200054	2.298811	0.000000	-0.144197	0.000000	0.011210	-0.001215	0.000000	0.000000
36.279579	12.612708	22.790573	0.602118	-0.656738	2.250040	0.000000	-0.079256	0.000000	0.010737	-0.000932	0.000000	0.000000
36.721789	12.242034	23.118564	0.266721	-0.134351	2.229548	0.000000	-0.020123	0.000000	0.010386	-0.000684	0.000000	0.000000
37.019112	12.091165	23.202348	0.240706	-0.147444	2.223768	0.000000	-0.020123	0.000000	0.010183	-0.000684	0.000000	0.000000
37.352445	11.940416	23.305537	0.211541	-0.162123	2.217288	0.000000	-0.020123	0.000000	0.009955	-0.000684	0.000000	0.000000
37.685779	11.809110	23.418512	0.182375	-0.176802	2.210809	0.000000	-0.020123	0.000000	0.009727	-0.000684	0.000000	0.000000
38.020362	11.696866	23.541751	0.153100	-0.191535	2.204304	0.000000	-0.020123	0.000000	0.009498	-0.000684	0.000000	0.000000
38.317684	11.613531	23.659600	0.153004	-0.257659	2.198522	0.000000	-0.025029	0.000000	0.009295	-0.000705	0.000000	0.000000
38.758644	11.627369	23.624676	-0.184694	0.336546	2.201628	0.000000	0.037993	0.000000	0.009036	-0.000469	0.000000	0.000000
39.199604	11.941681	23.070424	-0.530829	0.915432	2.232498	0.000000	0.101452	0.000000	0.008881	-0.000238	0.000000	0.000000
39.640564	12.570832	22.022069	-0.901224	1.452656	2.291486	0.000000	0.166070	0.000000	0.008826	-0.000010	0.000000	0.000000
40.081524	13.543582	20.527324	-1.312809	1.923768	2.379264	0.000000	0.232580	0.000000	0.008872	0.000218	0.000000	0.000000
40.527484	14.921984	18.631476	-1.788369	2.308850	2.498316	0.000000	0.302170	0.000000	0.009021	0.000451	0.000000	0.000000
41.076544	16.683685	16.500658	-1.400655	1.594403	2.643578	0.000000	0.226697	0.000000	0.009188	0.000155	0.000000	0.000000
41.625604	17.962291	15.087871	-0.913965	0.993550	2.746387	0.000000	0.147204	0.000000	0.009191	-0.000142	0.000000	0.000000
42.174664	18.667438	14.292463	-0.362695	0.463485	2.804917	0.000000	0.065097	0.000000	0.009032	-0.000438	0.000000	0.000000
42.723724	18.749296	14.057762	0.214196	-0.033556	2.818127	0.000000	-0.018171	0.000000	0.008712	-0.000725	0.000000	0.000000
43.022297	18.653305	14.063789	0.152492	-0.020660	2.814943	0.000000	-0.011359	0.000000	0.008502	-0.000703	0.000000	0.000000
43.502297	18.519552	14.100013	0.126160	-0.054805	2.809828	0.000000	-0.011359	0.000000	0.008165	-0.000703	0.000000	0.000000
43.982297	18.411076	14.169015	0.099829	-0.088950	2.804713	0.000000	-0.011359	0.000000	0.007827	-0.000703	0.000000	0.000000
44.462297	18.327879	14.270796	0.073498	-0.123095	2.799599	0.000000	-0.011359	0.000000	0.007490	-0.000703	0.000000	0.000000
44.942297	18.269960	14.405357	0.047167	-0.157239	2.794484	0.000000	-0.011359	0.000000	0.007152	-0.000703	0.000000	0.000000
45.423547	18.237492	14.572994	-0.069591	-0.119269	2.789373	0.000000	0.002462	0.000000	0.006814	-0.000669	0.000000	0.000000
45.720870	18.283768	14.650050	-0.131053	-0.103981	2.790306	0.000000	0.009341	0.000000	0.006615	-0.000653	0.000000	0.000000
46.269930	18.119496	15.047444	0.428048	-0.623996	2.773214	0.000000	-0.072957	0.000000	0.006199	-0.000860	0.000000	0.000000
46.818990	17.354219	16.036836	0.956890	-1.188461	2.711323	0.000000	-0.153975	0.000000	0.005673	-0.001053	0.000000	0.000000
47.368050	16.042032	17.688693	1.418107	-1.837586	2.605724	0.000000	-0.232279	0.000000	0.005046	-0.001226	0.000000	0.000000
47.917110	14.275675	20.120671	1.779114	-2.617609	2.458281	0.000000	-0.306482	0.000000	0.004330	-0.001378	0.000000	0.000000
48.363070	12.900069	22.282501	1.315713	-2.209351	2.337503	0.000000	-0.237979	0.000000	0.003739	-0.001274	0.000000	0.000000
48.804030	11.919335	24.013909	0.916264	-1.701962	2.247587	0.000000	-0.172584	0.000000	0.003198	-0.001184	0.000000	0.000000
49.244990	11.271202	25.261819	0.558691	-1.117132	2.186016	0.000000	-0.109142	0.000000	0.002693	-0.001108	0.000000	0.000000
49.685950	10.926043	25.969459	0.226654	-0.481474	2.152096	0.000000	-0.046932	0.000000	0.002219	-0.001045	0.000000	0.000000
50.128160	10.868249	26.104355	-0.068932	0.113468	2.145456	0.000000	0.009583	0.000000	0.001769	-0.000998	0.000000	0.000000
50.425482	10.917411	26.040312	-0.096419	0.101931	2.148602	0.000000	0.009583	0.000000	0.001472	-0.000998	0.000000	0.000000
50.758816	10.991962	25.976668	-0.127235	0.088998	2.152129	0.000000	0.009583	0.000000	0.001139	-0.000998	0.000000	0.000000
51.092149	11.087058	25.921648	-0.158051	0.076064	2.155656	0.000000	0.009583	0.000000	0.000807	-0.000998	0.000000	0.000000
51.426732	11.202942	25.875617	-0.098097	-0.146834	2.159174	0.000000	-0.007934	0.000000	0.000473	-0.001002	0.000000	0.000000
51.724055	11.269242	25.966421	-0.097302	-0.222515	2.157113	0.000000	-0.013215	0.000000	0.000175	-0.001002	0.000000	0.000000
52.165015	11.501763	25.873636	-0.432328	0.432128	2.165377	0.000000	0.048791	0.000000	-0.000267	-0.001003	0.000000	0.000000
52.605975	12.037296	25.210013	-0.787097	1.067107	2.201084	0.000000	0.111363	0.000000	-0.000711	-0.001016	0.000000	0.000000
53.046935	12.900301	24.005754	-1.177818	1.653529	2.264646	0.000000	0.175215	0.000000	-0.001164	-0.001040	0.000000	0.000000
53.487895	14.130190	22.315662	-1.622340	2.164717	2.356791	0.000000	0.241073	0.000000	-0.001630	-0.001076	0.000000	0.000000
53.933855	15.804167	20.191372	-2.145229	2.578714	2.480095	0.000000	0.310083	0.000000	-0.002120	-0.001125	0.000000	0.000000
54.482915	17.958873	17.800625	-1.756549	1.801390	2.630568	0.000000	0.235146	0.000000	-0.002717	-0.001046	0.000000	0.000000
55.031975	19.615705	16.188417	-1.243829	1.152372	2.738637	0.000000	0.156020	0.000000	-0.003266	-0.000949	0.000000	0.000000
55.581035	20.657676	15.239904	-0.643282	0.585431	2.802377	0.000000	0.074113	0.000000	-0.003757	-0.000836	0.000000	0.000000
56.130095	21.011227	14.887521	0.002678	0.060188	2.820652	0.000000	-0.009123	0.000000	-0.004181	-0.000707	0.000000	0.000000
56.428668	21.047791	14.833514	-0.068376	0.080325	2.820419	0.000000	-0.001498	0.000000	-0.004395	-0.000718	0.000000	0.000000
56.762001	21.098679	14.787503	-0.084287	0.057708	2.820159	0.000000	-0.001498	0.000000	-0.004634	-0.000718	0.000000	0.000000
57.095334	21.160174	14.756569	-0.100198	0.035092	2.819899	0.000000	-0.001498	0.000000	-0.004874	-0.000718	0.000000	0.000000
57.429918	21.232566	14.740683	-0.116169	0.012390	2.819638	0.000000	-0.001498	0.000000	-0.005114	-0.000718	0.000000	0.000000
57.727240	21.305883	14.739300	-0.188477	0.032271	2.819408	0.000000	0.006193	0.000000	-0.005328	-0.000732	0.000000	0.000000
58.276300	21.148595	14.986459	0.472880	-0.485112	2.800286	0.000000	-0.076985	0.000000	-0.005681	-0.000554	0.000000	0.000000
58.825360	20.279311	15.817240	1.100831	-1.037040	2.735707	0.000000	-0.158807	0.000000	-0.005934	-0.000366	0.000000	0.000000
59.374420	18.759423	17.290801	1.651036	-1.662820	2.626813	0.000000	-0.237818	0.000000	-0.006082	-0.000171	0.000000	0.000000
59.923480	16.696257	19.512082	2.084648	-2.407018	2.475531	0.000000	-0.312615	0.000000	-0.006122	0.000026	0.000000	0.000000
60.369440	15.079990	21.486182	1.552554	-2.001118	2.351565	0.000000	-0.243754	0.000000	-0.006145	-0.000133	0.000000	0.000000
60.810400	13.916770	23.038197	1.095522	-1.505428	2.258753	0.000000	-0.178049	0.000000	-0.006239	-0.000292	0.000000	0.000000
61.251360	13.133055	24.121109	0.688530	-0.941255	2.194507	0.000000	-0.114369	0.000000	-0.006403	-0.000455	0.000000	0.000000
61.692320	12.693047	24.685658	0.312990	-0.334265	2.158097	0.000000	-0.051986	0.000000	-0.006641	-0.000623	0.000000	0.000000
62.134530	12.576704	24.705573	-0.015515	0.223663	2.149119	0.000000	0.004201	0.000000	-0.006955	-0.000781	0.000000	0.000000
62.431853	12.592960	24.576330	-0.039161	0.211026	2.150601	0.000000	0.004201	0.000000	-0.007187	-0.000781	0.000000	0.000000
62.765186	12.627904	24.440368	-0.065672	0.196859	2.152261	0.000000	0.004201	0.000000	-0.007447	-0.000781	0.000000	0.000000
63.098520	12.680522	24.313851	-0.092182	0.182692	2.153922	0.000000	0.004201	0.000000	-0.007708	-0.000781	0.000000	0.000000
63.433103	12.751110	24.196358	-0.118792	0.168471	2.155589	0.000000	0.004201	0.000000	-0.007969	-0.000781	0.000000	0.000000
63.730426	12.828755	24.099982	-0.108594	0.091984	2.157068	0.000000	-0.001490	0.000000	-0.008201	-0.000760	0.000000	0.000000
64.171386	13.086965	23.753522	-0.479581	0.690816	2.170450	0.000000	0.060568	0.000000	-0.008583	-0.000976	0.000000	0.000000
64.612346	13.680654	22.890900	-0.872463	1.258221	2.211416	0.000000	0.123325	0.000000	-0.009064	-0.001204	0.000000	0.000000
65.053306	14.636920	21.551368	-1.305180	1.768388	2.280436	0.000000	0.187499	0.000000	-0.009647	-0.001445	0.000000	0.000000
65.494266	15.999412	19.795869	-1.797489	2.198112	2.378303	0.000000	0.253824	0.000000	-0.010340	-0.001702	0.000000	0.000000
65.940226	17.853700	17.679343	-2.376319	2.528378	2.507736	0.000000	0.323425	0.000000	-0.011161	-0.001981	0.000000	0.000000
66.489286	20.227850	15.311969	-1.923793	1.809467	2.665627	0.000000	0.247495	0.000000	-0.012146	-0.001604	0.000000	0.000000
67.038346	22.027254	13.658987	-1.335482	1.219403	2.780348	0.000000	0.167151	0.000000	-0.012916	-0.001198	0.000000	0.000000
67.587406	23.124946	12.602674	-0.652918	0.716169	2.849856	0.000000	0.083823	0.000000	-0.013457	-0.000771	0.000000	0.000000
68.136466	23.443484	12.067803	0.075720	0.263928	2.872913	0.000000	-0.001003	0.000000	-0.013760	-0.000330	0.000000	0.000000
68.435038	23.442583	11.897361	-0.005077	0.272064	2.875205	0.000000	0.007337	0.000000	-0.013870	-0.000368	0.000000	0.000000
68.768372	23.450708	11.726015	-0.019297	0.241973	2.877774	0.000000	0.007337	0.000000	-0.013992	-0.000368	0.000000	0.000000
69.101705	23.468313	11.574730	-0.033516	0.211882	2.880342	0.000000	0.007337	0.000000	-0.014115	-0.000368	0.000000	0.000000
69.436288	23.495516	11.443051	-0.047789	0.181678	2.882920	0.000000	0.007337	0.000000	-0.014238	-0.000368	0.000000	0.000000
69.733611	23.527847	11.342929	-0.129052	0.187838	2.885220	0.000000	0.015747	0.000000	-0.014347	-0.000407	0.000000	0.000000
70.282671	23.265522	11.363829	0.603977	-0.226135	2.870506	0.000000	-0.069611	0.000000	-0.014443	0.000059	0.000000	0.000000
