#ParticleID	Turn	x[m]	xp	y[m]	yp	z[m]	dE[GeV]# s	beta_x	beta_y	alpha_x	alpha_y	D_x	D_y	D_px	D_py	orbit_x	orbit_px	orbit_y	orbit_py
0.300000	11.881580	25.096430	-0.016950	-0.025136	2.611315	0.000000	0.000343	0.000000	-0.000270	0.000237	0.000000	0.000000
0.601250	11.899433	25.115193	-0.042312	-0.037148	2.611346	0.000000	0.000343	0.000000	-0.000199	0.000237	0.000000	0.000000
0.898573	11.932036	25.140808	-0.038047	-0.110645	2.611378	0.000000	-0.006069	0.000000	-0.000128	0.000237	0.000000	0.000000
1.339533	12.118548	24.959474	-0.386444	0.520305	2.624857	0.000000	0.067715	0.000000	-0.000024	0.000235	0.000000	0.000000
1.780493	12.618914	24.230045	-0.752498	1.127583	2.671010	0.000000	0.142267	0.000000	0.000080	0.000236	0.000000	0.000000
2.221453	13.455997	22.985707	-1.152933	1.683557	2.750362	0.000000	0.218438	0.000000	0.000185	0.000240	0.000000	0.000000
2.662413	14.668046	21.283075	-1.606045	2.162931	2.863816	0.000000	0.297093	0.000000	0.000292	0.000246	0.000000	0.000000
3.108373	16.331372	19.174655	-2.136866	2.545035	3.014521	0.000000	0.379620	0.000000	0.000403	0.000255	0.000000	0.000000
3.657433	18.464023	16.806507	-1.724177	1.793491	3.197621	0.000000	0.286828	0.000000	0.000539	0.000239	0.000000	0.000000
4.206493	20.073524	15.189074	-1.189694	1.169694	3.328310	0.000000	0.188952	0.000000	0.000665	0.000220	0.000000	0.000000
4.755553	21.046179	14.207153	-0.571170	0.629212	3.404271	0.000000	0.087728	0.000000	0.000780	0.000197	0.000000	0.000000
5.304613	21.313276	13.790806	0.087705	0.133547	3.424157	0.000000	-0.015049	0.000000	0.000880	0.000170	0.000000	0.000000
5.603185	21.298098	13.696371	0.018405	0.147009	3.422264	0.000000	-0.006168	0.000000	0.000932	0.000172	0.000000	0.000000
5.936519	21.291046	13.606652	0.002749	0.122146	3.420151	0.000000	-0.006168	0.000000	0.000989	0.000172	0.000000	0.000000
6.269852	21.294432	13.533509	-0.012907	0.097283	3.418038	0.000000	-0.006168	0.000000	0.001046	0.000172	0.000000	0.000000
6.604435	21.308327	13.476761	-0.028622	0.072326	3.415916	0.000000	-0.006168	0.000000	0.001104	0.000172	0.000000	0.000000
6.901758	21.329500	13.440346	-0.097776	0.084959	3.414031	0.000000	0.002665	0.000000	0.001155	0.000175	0.000000	0.000000
7.450818	21.073168	13.608011	0.561954	-0.392123	3.387279	0.000000	-0.099673	0.000000	0.001240	0.000136	0.000000	0.000000
7.999878	20.109956	14.311751	1.181991	-0.897137	3.304760	0.000000	-0.200241	0.000000	0.001304	0.000095	0.000000	0.000000
8.548938	18.507901	15.601695	1.718535	-1.466055	3.167939	0.000000	-0.297256	0.000000	0.001344	0.000052	0.000000	0.000000
9.097998	16.380173	17.569727	2.133685	-2.139401	2.979245	0.000000	-0.388998	0.000000	0.001361	0.000008	0.000000	0.000000
9.543958	14.719952	19.323305	1.602310	-1.776055	2.824027	0.000000	-0.307438	0.000000	0.001372	0.000044	0.000000	0.000000
9.984918	13.511529	20.699611	1.148494	-1.333166	2.705646	0.000000	-0.229869	0.000000	0.001400	0.000079	0.000000	0.000000
10.425878	12.678783	21.656974	0.747152	-0.829616	2.620845	0.000000	-0.154919	0.000000	0.001443	0.000116	0.000000	0.000000
10.866838	12.183668	22.151831	0.379946	-0.288317	2.568659	0.000000	-0.081735	0.000000	0.001502	0.000154	0.000000	0.000000
11.309048	12.003414	22.161132	0.058989	0.212449	2.548473	0.000000	-0.015639	0.000000	0.001579	0.000190	0.000000	0.000000
11.606371	11.975726	22.038969	0.034133	0.198427	2.543767	0.000000	-0.015639	0.000000	0.001635	0.000190	0.000000	0.000000
12.086371	11.962220	21.859345	-0.005995	0.175790	2.536169	0.000000	-0.015639	0.000000	0.001726	0.000190	0.000000	0.000000
12.566371	11.987237	21.701453	-0.046123	0.153153	2.528571	0.000000	-0.015639	0.000000	0.001818	0.000190	0.000000	0.000000
13.046371	12.050776	21.565292	-0.086250	0.130516	2.520973	0.000000	-0.015639	0.000000	0.001909	0.000190	0.000000	0.000000
13.526371	12.152838	21.450863	-0.126378	0.107878	2.513376	0.000000	-0.015639	0.000000	0.002000	0.000190	0.000000	0.000000
14.007621	12.293838	21.357952	-0.166610	0.085182	2.505758	0.000000	-0.015639	0.000000	0.002091	0.000190	0.000000	0.000000
14.304943	12.400301	21.311471	-0.161678	0.020021	2.501052	0.000000	-0.021647	0.000000	0.002148	0.000185	0.000000	0.000000
14.745903	12.701810	21.060612	-0.524574	0.546689	2.507031	0.000000	0.049200	0.000000	0.002241	0.000241	0.000000	0.000000
15.186863	13.332706	20.354495	-0.911439	1.048482	2.544320	0.000000	0.120605	0.000000	0.002361	0.000300	0.000000	0.000000
15.627823	14.321819	19.225248	-1.339953	1.502567	2.613343	0.000000	0.193380	0.000000	0.002507	0.000363	0.000000	0.000000
16.068783	15.714351	17.724251	-1.829695	1.888283	2.714886	0.000000	0.268354	0.000000	0.002682	0.000430	0.000000	0.000000
16.514743	17.597566	15.898301	-2.407860	2.188873	2.851798	0.000000	0.346853	0.000000	0.002889	0.000502	0.000000	0.000000
17.063803	20.015686	13.859698	-1.969742	1.545781	3.018300	0.000000	0.259595	0.000000	0.003139	0.000405	0.000000	0.000000
17.612863	21.872936	12.463064	-1.392464	1.012799	3.135609	0.000000	0.167739	0.000000	0.003332	0.000300	0.000000	0.000000
18.161923	23.038094	11.608917	-0.716808	0.551962	3.201646	0.000000	0.072912	0.000000	0.003467	0.000190	0.000000	0.000000
18.710983	23.428836	11.236415	0.009490	0.130444	3.215243	0.000000	-0.023206	0.000000	0.003540	0.000076	0.000000	0.000000
19.009556	23.462434	11.149660	-0.062668	0.131668	3.210722	0.000000	-0.015056	0.000000	0.003566	0.000085	0.000000	0.000000
19.342889	23.508967	11.072020	-0.076930	0.101254	3.205674	0.000000	-0.015056	0.000000	0.003594	0.000085	0.000000	0.000000
19.676223	23.565008	11.014656	-0.091193	0.070839	3.200627	0.000000	-0.015056	0.000000	0.003623	0.000085	0.000000	0.000000
20.010806	23.631114	10.977331	-0.222591	0.094699	3.195581	0.000000	0.000777	0.000000	0.003651	0.000103	0.000000	0.000000
20.308129	23.767413	10.929140	-0.295962	0.095055	3.195782	0.000000	0.008866	0.000000	0.003682	0.000113	0.000000	0.000000
20.857189	23.682558	11.046153	0.449620	-0.309416	3.174410	0.000000	-0.086495	0.000000	0.003711	-0.000007	0.000000	0.000000
21.406249	22.791547	11.616772	1.163437	-0.735929	3.101084	0.000000	-0.180322	0.000000	0.003674	-0.000127	0.000000	0.000000
21.955309	21.157332	12.681644	1.795059	-1.214865	2.977104	0.000000	-0.270952	0.000000	0.003572	-0.000244	0.000000	0.000000
22.504369	18.895376	14.316622	2.299863	-1.780341	2.804669	0.000000	-0.356780	0.000000	0.003407	-0.000357	0.000000	0.000000
22.950329	17.113632	15.784789	1.709219	-1.497784	2.662983	0.000000	-0.279563	0.000000	0.003267	-0.000270	0.000000	0.000000
23.391289	15.834888	16.955977	1.201453	-1.147982	2.556121	0.000000	-0.205994	0.000000	0.003166	-0.000188	0.000000	0.000000
23.832249	14.978182	17.794350	0.748587	-0.745943	2.481120	0.000000	-0.134770	0.000000	0.003101	-0.000107	0.000000	0.000000
24.273209	14.504364	18.261761	0.329928	-0.309962	2.437126	0.000000	-0.065079	0.000000	0.003072	-0.000027	0.000000	0.000000
24.715418	14.391885	18.336697	-0.039484	0.096392	2.423635	0.000000	-0.001899	0.000000	0.003078	0.000045	0.000000	0.000000
25.012741	14.421516	18.284243	-0.060176	0.080027	2.423058	0.000000	-0.001899	0.000000	0.003091	0.000045	0.000000	0.000000
25.346075	14.469365	18.237008	-0.083373	0.061680	2.422410	0.000000	-0.001899	0.000000	0.003106	0.000045	0.000000	0.000000
25.679408	14.532680	18.202004	-0.106570	0.043332	2.421762	0.000000	-0.001899	0.000000	0.003121	0.000045	0.000000	0.000000
26.013991	14.611487	18.179538	-0.011317	-0.122565	2.421087	0.000000	-0.021540	0.000000	0.003135	0.000019	0.000000	0.000000
26.311314	14.624263	18.257362	0.003121	-0.182595	2.414677	0.000000	-0.027284	0.000000	0.003141	0.000012	0.000000	0.000000
26.752274	14.801905	18.220451	-0.407462	0.265978	2.417742	0.000000	0.041300	0.000000	0.003164	0.000093	0.000000	0.000000
27.193234	15.348491	17.791763	-0.836664	0.702448	2.451092	0.000000	0.110354	0.000000	0.003223	0.000175	0.000000	0.000000
27.634194	16.289001	16.990804	-1.304098	1.106954	2.515105	0.000000	0.180663	0.000000	0.003319	0.000260	0.000000	0.000000
28.075154	17.666414	15.854018	-1.831124	1.461091	2.610510	0.000000	0.253027	0.000000	0.003453	0.000347	0.000000	0.000000
28.521114	19.567657	14.415982	-2.446836	1.749721	2.740000	0.000000	0.328725	0.000000	0.003628	0.000439	0.000000	0.000000
29.070174	21.984529	12.813910	-1.928480	1.185192	2.897610	0.000000	0.245233	0.000000	0.003836	0.000318	0.000000	0.000000
29.619234	23.753478	11.782066	-1.273877	0.705089	3.008178	0.000000	0.157395	0.000000	0.003976	0.000191	0.000000	0.000000
30.168294	24.749518	11.246949	-0.529273	0.275213	3.069745	0.000000	0.066768	0.000000	0.004045	0.000061	0.000000	0.000000
30.717354	24.902272	11.170442	0.252723	-0.135057	3.081220	0.000000	-0.025042	0.000000	0.004043	-0.000070	0.000000	0.000000
31.015927	24.792579	11.242330	0.177464	-0.133893	3.076081	0.000000	-0.017267	0.000000	0.004025	-0.000059	0.000000	0.000000
31.349260	24.678892	11.341652	0.163596	-0.164074	3.070345	0.000000	-0.017267	0.000000	0.004005	-0.000059	0.000000	0.000000
31.682593	24.574451	11.461095	0.149728	-0.194256	3.064609	0.000000	-0.017267	0.000000	0.003985	-0.000059	0.000000	0.000000
32.017177	24.478916	11.601221	0.135807	-0.224550	3.058852	0.000000	-0.017267	0.000000	0.003966	-0.000059	0.000000	0.000000
32.314499	24.401848	11.742748	0.061811	-0.221823	3.053736	0.000000	-0.009555	0.000000	0.003948	-0.000049	0.000000	0.000000
32.863559	23.916078	12.225457	0.817552	-0.662473	3.023626	0.000000	-0.100172	0.000000	0.003886	-0.000176	0.000000	0.000000
33.412619	22.627288	13.214998	1.515532	-1.150314	2.944239	0.000000	-0.189016	0.000000	0.003755	-0.000300	0.000000	0.000000
33.961679	20.626537	14.781858	2.106439	-1.720096	2.816983	0.000000	-0.274511	0.000000	0.003558	-0.000418	0.000000	0.000000
34.510739	18.055189	17.037645	2.548525	-2.412407	2.644111	0.000000	-0.355143	0.000000	0.003297	-0.000529	0.000000	0.000000
34.956699	16.056587	19.055427	1.948687	-2.093103	2.502303	0.000000	-0.282095	0.000000	0.003079	-0.000447	0.000000	0.000000
35.397659	14.566526	20.725363	1.442938	-1.679369	2.393485	0.000000	-0.212695	0.000000	0.002900	-0.000370	0.000000	0.000000
35.838619	13.491885	21.995179	1.003125	-1.189219	2.314677	0.000000	-0.145713	0.000000	0.002753	-0.000297	0.000000	0.000000
36.279579	12.783553	22.807099	0.609150	-0.644958	2.264983	0.000000	-0.080388	0.000000	0.002637	-0.000227	0.000000	0.000000
36.721789	12.408481	23.124492	0.272593	-0.126682	2.243812	0.000000	-0.021345	0.000000	0.002552	-0.000167	0.000000	0.000000
37.019112	12.254038	23.203707	0.246852	-0.139746	2.237515	0.000000	-0.021345	0.000000	0.002502	-0.000167	0.000000	0.000000
37.352445	12.099090	23.301753	0.217992	-0.154392	2.230456	0.000000	-0.021345	0.000000	0.002447	-0.000167	0.000000	0.000000
37.685779	11.963382	23.409563	0.189133	-0.169038	2.223396	0.000000	-0.021345	0.000000	0.002391	-0.000167	0.000000	0.000000
38.020362	11.846513	23.527596	0.160165	-0.183739	2.216311	0.000000	-0.021345	0.000000	0.002335	-0.000167	0.000000	0.000000
38.317684	11.758923	23.640744	0.162633	-0.253574	2.210014	0.000000	-0.026647	0.000000	0.002286	-0.000172	0.000000	0.000000
38.758644	11.765738	23.602479	-0.178193	0.340018	2.212278	0.000000	0.036649	0.000000	0.002223	-0.000114	0.000000	0.000000
39.199604	12.075592	23.045546	-0.527161	0.918138	2.242495	0.000000	0.100364	0.000000	0.002185	-0.000057	0.000000	0.000000
39.640564	12.702644	21.995287	-0.900214	1.454480	2.301010	0.000000	0.165222	0.000000	0.002172	-0.000001	0.000000	0.000000
40.081524	13.675543	20.499491	-1.314400	1.924641	2.388489	0.000000	0.231962	0.000000	0.002184	0.000055	0.000000	0.000000
40.527484	15.056283	18.603597	-1.792498	2.308570	2.507405	0.000000	0.301757	0.000000	0.002221	0.000112	0.000000	0.000000
41.076544	16.819457	16.472899	-1.399613	1.594842	2.652471	0.000000	0.226009	0.000000	0.002263	0.000040	0.000000	0.000000
41.625604	18.093982	15.059374	-0.907856	0.994717	2.754820	0.000000	0.146252	0.000000	0.002264	-0.000034	0.000000	0.000000
42.174664	18.789822	14.262334	-0.351967	0.465449	2.812638	0.000000	0.063901	0.000000	0.002226	-0.000107	0.000000	0.000000
42.723724	18.857819	14.025004	0.228784	-0.030663	2.824897	0.000000	-0.019586	0.000000	0.002148	-0.000177	0.000000	0.000000
43.022297	18.754970	14.028165	0.164056	-0.015935	2.821264	0.000000	-0.012338	0.000000	0.002096	-0.000172	0.000000	0.000000
43.502297	18.610092	14.059891	0.137774	-0.050161	2.815424	0.000000	-0.012338	0.000000	0.002014	-0.000172	0.000000	0.000000
43.982297	18.490445	14.124473	0.111492	-0.084386	2.809585	0.000000	-0.012338	0.000000	0.001931	-0.000172	0.000000	0.000000
44.462297	18.396028	14.221912	0.085210	-0.118612	2.803745	0.000000	-0.012338	0.000000	0.001849	-0.000172	0.000000	0.000000
44.942297	18.326843	14.352208	0.058928	-0.152837	2.797905	0.000000	-0.012338	0.000000	0.001766	-0.000172	0.000000	0.000000
45.423547	18.283032	14.515648	-0.058007	-0.115233	2.792067	0.000000	0.001495	0.000000	0.001684	-0.000164	0.000000	0.000000
45.720870	18.322379	14.590340	-0.121539	-0.098424	2.792560	0.000000	0.008691	0.000000	0.001635	-0.000159	0.000000	0.000000
46.269930	18.147243	14.980510	0.438520	-0.616369	2.774796	0.000000	-0.073657	0.000000	0.001533	-0.000211	0.000000	0.000000
46.818990	17.370519	15.960085	0.967599	-1.178219	2.712135	0.000000	-0.154702	0.000000	0.001404	-0.000258	0.000000	0.000000
47.368050	16.047082	17.598837	1.428322	-1.823992	2.605687	0.000000	-0.233007	0.000000	0.001251	-0.000301	0.000000	0.000000
47.917110	14.270425	20.013490	1.788145	-2.599688	2.457337	0.000000	-0.307184	0.000000	0.001075	-0.000339	0.000000	0.000000
48.363070	12.887310	22.160149	1.324110	-2.193592	2.335811	0.000000	-0.238728	0.000000	0.000929	-0.000313	0.000000	0.000000
48.804030	11.899517	23.878775	0.924351	-1.688993	2.245161	0.000000	-0.173390	0.000000	0.000797	-0.000291	0.000000	0.000000
49.244990	11.244404	25.116661	0.566827	-1.107547	2.182853	0.000000	-0.110023	0.000000	0.000673	-0.000272	0.000000	0.000000
49.685950	10.892038	25.817486	0.235203	-0.475708	2.148178	0.000000	-0.047906	0.000000	0.000556	-0.000256	0.000000	0.000000
50.128160	10.826465	25.949078	-0.059353	0.114450	2.140754	0.000000	0.008440	0.000000	0.000446	-0.000244	0.000000	0.000000
50.425482	10.869953	25.884472	-0.086912	0.102842	2.143336	0.000000	0.008440	0.000000	0.000374	-0.000244	0.000000	0.000000
50.758816	10.938194	25.820249	-0.117810	0.089828	2.146231	0.000000	0.008440	0.000000	0.000292	-0.000244	0.000000	0.000000
51.092149	11.027032	25.764702	-0.148707	0.076814	2.149126	0.000000	0.008440	0.000000	0.000211	-0.000244	0.000000	0.000000
51.426732	11.136693	25.718193	-0.089372	-0.144887	2.152009	0.000000	-0.009018	0.000000	0.000129	-0.000245	0.000000	0.000000
51.724055	11.197838	25.807859	-0.088837	-0.220036	2.149401	0.000000	-0.014286	0.000000	0.000056	-0.000245	0.000000	0.000000
52.165015	11.422213	25.714748	-0.422005	0.430387	2.156824	0.000000	0.047510	0.000000	-0.000052	-0.000245	0.000000	0.000000
52.605975	11.947772	25.054495	-0.774452	1.061227	2.191590	0.000000	0.109850	0.000000	-0.000160	-0.000248	0.000000	0.000000
53.046935	12.798524	23.857142	-1.162279	1.643780	2.254098	0.000000	0.173443	0.000000	-0.000271	-0.000253	0.000000	0.000000
53.487895	14.013333	22.177171	-1.603204	2.151543	2.345060	0.000000	0.239015	0.000000	-0.000384	-0.000262	0.000000	0.000000
53.933855	15.668495	20.065909	-2.121629	2.562741	2.467020	0.000000	0.307710	0.000000	-0.000503	-0.000273	0.000000	0.000000
54.482915	17.799238	17.690102	-1.736267	1.789880	2.615878	0.000000	0.233216	0.000000	-0.000649	-0.000255	0.000000	0.000000
55.031975	19.436551	16.088417	-1.228271	1.144508	2.722625	0.000000	0.154582	0.000000	-0.000782	-0.000232	0.000000	0.000000
55.581035	20.464795	15.146768	-0.633524	0.580656	2.785365	0.000000	0.073202	0.000000	-0.000902	-0.000204	0.000000	0.000000
56.130095	20.811348	14.798081	0.005966	0.058163	2.802984	0.000000	-0.009480	0.000000	-0.001006	-0.000173	0.000000	0.000000
56.428668	20.844822	14.746126	-0.063249	0.076822	2.802411	0.000000	-0.002095	0.000000	-0.001058	-0.000176	0.000000	0.000000
56.762001	20.892339	14.702491	-0.079304	0.054084	2.801772	0.000000	-0.002095	0.000000	-0.001117	-0.000176	0.000000	0.000000
57.095334	20.950560	14.674014	-0.095359	0.031346	2.801132	0.000000	-0.002095	0.000000	-0.001176	-0.000176	0.000000	0.000000
57.429918	21.019763	14.660675	-0.111474	0.008522	2.800490	0.000000	-0.002095	0.000000	-0.001235	-0.000176	0.000000	0.000000
57.727240	21.090310	14.661637	-0.181492	0.026923	2.799920	0.000000	0.005300	0.000000	-0.001287	-0.000179	0.000000	0.000000
58.276300	20.929470	14.913489	0.472605	-0.488336	2.780222	0.000000	-0.077248	0.000000	-0.001374	-0.000136	0.000000	0.000000
58.825360	20.064545	15.746810	1.093318	-1.038376	2.715488	0.000000	-0.158428	0.000000	-0.001436	-0.000091	0.000000	0.000000
59.374420	18.556627	17.220953	1.636808	-1.662374	2.606864	0.000000	-0.236800	0.000000	-0.001473	-0.000044	0.000000	0.000000
59.923480	16.512220	19.440910	2.064688	-2.404774	2.456276	0.000000	-0.310972	0.000000	-0.001484	0.000004	0.000000	0.000000
60.369440	14.911500	21.413979	1.537448	-2.000930	2.332918	0.000000	-0.242579	0.000000	-0.001491	-0.000034	0.000000	0.000000
60.810400	13.759643	22.966884	1.084653	-1.507392	2.240447	0.000000	-0.177342	0.000000	-0.001514	-0.000073	0.000000	0.000000
61.251360	12.983824	24.052519	0.681410	-0.945272	2.176286	0.000000	-0.114125	0.000000	-0.001555	-0.000113	0.000000	0.000000
61.692320	12.548601	24.621489	0.309298	-0.340146	2.139706	0.000000	-0.052205	0.000000	-0.001614	-0.000153	0.000000	0.000000
62.134530	12.434134	24.647360	-0.017805	0.219066	2.130296	0.000000	0.003814	0.000000	-0.001691	-0.000192	0.000000	0.000000
62.431853	12.451834	24.520852	-0.041725	0.206424	2.131487	0.000000	0.003814	0.000000	-0.001748	-0.000192	0.000000	0.000000
62.765186	12.488589	24.387961	-0.068541	0.192251	2.132823	0.000000	0.003814	0.000000	-0.001812	-0.000192	0.000000	0.000000
63.098520	12.543222	24.264518	-0.095358	0.178078	2.134158	0.000000	0.003814	0.000000	-0.001876	-0.000192	0.000000	0.000000
63.433103	12.616039	24.150114	-0.122275	0.163851	2.135498	0.000000	0.003814	0.000000	-0.001940	-0.000192	0.000000	0.000000
63.730426	12.695859	24.056442	-0.114475	0.091043	2.136689	0.000000	-0.001524	0.000000	-0.001997	-0.000187	0.000000	0.000000
64.171386	12.958118	23.711258	-0.482621	0.688801	2.149663	0.000000	0.060013	0.000000	-0.002091	-0.000240	0.000000	0.000000
64.612346	13.553489	22.850775	-0.872813	1.255220	2.189919	0.000000	0.122235	0.000000	-0.002209	-0.000295	0.000000	0.000000
65.053306	14.509166	21.514144	-1.302874	1.764530	2.257918	0.000000	0.185853	0.000000	-0.002352	-0.000354	0.000000	0.000000
65.494266	15.868803	19.762179	-1.792451	2.193559	2.354435	0.000000	0.251592	0.000000	-0.002521	-0.000417	0.000000	0.000000
65.940226	17.717713	17.649810	-2.368550	2.523480	2.482143	0.000000	0.320593	0.000000	-0.002722	-0.000485	0.000000	0.000000
66.489286	20.086680	15.286892	-1.920910	1.805667	2.638009	0.000000	0.245502	0.000000	-0.002963	-0.000393	0.000000	0.000000
67.038346	21.886264	13.637372	-1.337612	1.216458	2.751335	0.000000	0.166050	0.000000	-0.003152	-0.000293	0.000000	0.000000
67.587406	22.989385	12.583764	-0.659851	0.713888	2.820110	0.000000	0.083648	0.000000	-0.003285	-0.000189	0.000000	0.000000
68.136466	23.318145	12.051024	0.064508	0.262163	2.843112	0.000000	-0.000241	0.000000	-0.003359	-0.000082	0.000000	0.000000
68.435038	23.320836	11.883182	-0.010922	0.267617	2.845346	0.000000	0.007395	0.000000	-0.003386	-0.000090	0.000000	0.000000
68.768372	23.332883	11.714791	-0.025217	0.237557	2.847841	0.000000	0.007395	0.000000	-0.003416	-0.000090	0.000000	0.000000
69.101705	23.354459	11.566440	-0.039512	0.207497	2.850336	0.000000	0.007395	0.000000	-0.003446	-0.000090	0.000000	0.000000
69.436288	23.385700	11.437684	-0.053861	0.177325	2.852841	0.000000	0.007395	0.000000	-0.003477	-0.000090	0.000000	0.000000
69.733611	23.421528	11.340207	-0.129587	0.180988	2.855067	0.000000	0.015072	0.000000	-0.003504	-0.000100	0.000000	0.000000
70.282671	23.161603	11.368647	0.600180	-0.233093	2.840171	0.000000	-0.069335	0.000000	-0.003527	0.000014	0.000000	0.000000
