#ParticleID	Turn	x[m]	xp	y[m]	yp	z[m]	dE[GeV]# s	beta_x	beta_y	alpha_x	alpha_y	D_x	D_y	D_px	D_py	orbit_x	orbit_px	orbit_y	orbit_py
0.300000	11.913279	25.032072	-0.009608	-0.028481	2.606659	0.000000	-0.002712	0.000000	-0.001306	0.001087	0.000000	0.000000
0.601250	11.926687	25.052860	-0.034898	-0.040525	2.605514	0.000000	-0.002712	0.000000	-0.000978	0.001087	0.000000	0.000000
0.898573	11.954860	25.080493	-0.030359	-0.113907	2.604385	0.000000	-0.009138	0.000000	-0.000655	0.001088	0.000000	0.000000
1.339533	12.134887	24.902727	-0.379081	0.515509	2.616108	0.000000	0.064442	0.000000	-0.000178	0.001078	0.000000	0.000000
1.780493	12.628914	24.178125	-0.745131	1.121474	2.660407	0.000000	0.138744	0.000000	0.000297	0.001079	0.000000	0.000000
2.221453	13.459523	22.939644	-1.145232	1.676416	2.737782	0.000000	0.214615	0.000000	0.000776	0.001093	0.000000	0.000000
2.662413	14.664675	21.243626	-1.597667	2.155085	2.849112	0.000000	0.292919	0.000000	0.001263	0.001119	0.000000	0.000000
3.108373	16.320295	19.142345	-2.127451	2.536877	2.997489	0.000000	0.375040	0.000000	0.001770	0.001159	0.000000	0.000000
3.657433	18.442535	16.782182	-1.714210	1.786918	3.177776	0.000000	0.282838	0.000000	0.002389	0.001091	0.000000	0.000000
4.206493	20.041396	15.171266	-1.179853	1.164240	3.306032	0.000000	0.185637	0.000000	0.002965	0.001004	0.000000	0.000000
4.755553	21.003897	14.194864	-0.562125	0.624491	3.379987	0.000000	0.085159	0.000000	0.003489	0.000900	0.000000	0.000000
5.304613	21.262015	13.783436	0.095333	0.129223	3.398339	0.000000	-0.016815	0.000000	0.003950	0.000779	0.000000	0.000000
5.603185	21.241343	13.692225	0.027568	0.141634	3.395644	0.000000	-0.008232	0.000000	0.004186	0.000790	0.000000	0.000000
5.936519	21.228199	13.606080	0.011864	0.116801	3.392637	0.000000	-0.008232	0.000000	0.004449	0.000790	0.000000	0.000000
6.269852	21.225525	13.536490	-0.003841	0.091968	3.389630	0.000000	-0.008232	0.000000	0.004712	0.000790	0.000000	0.000000
6.604435	21.233369	13.483288	-0.019604	0.067042	3.386611	0.000000	-0.008232	0.000000	0.004977	0.000790	0.000000	0.000000
6.901758	21.249209	13.449997	-0.086672	0.078634	3.383930	0.000000	0.000218	0.000000	0.005211	0.000803	0.000000	0.000000
7.450818	20.982395	13.624848	0.570136	-0.398945	3.355807	0.000000	-0.101136	0.000000	0.005605	0.000628	0.000000	0.000000
7.999878	20.012148	14.336620	1.186676	-0.904947	3.272539	0.000000	-0.200686	0.000000	0.005898	0.000441	0.000000	0.000000
8.548938	18.407011	15.636024	1.719383	-1.475419	3.135606	0.000000	-0.296668	0.000000	0.006088	0.000247	0.000000	0.000000
9.097998	16.280394	17.615634	2.130615	-2.151001	2.947443	0.000000	-0.387383	0.000000	0.006169	0.000048	0.000000	0.000000
9.543958	14.621997	19.379406	1.601056	-1.786934	2.792714	0.000000	-0.306614	0.000000	0.006226	0.000209	0.000000	0.000000
9.984918	13.413813	20.764946	1.149104	-1.342925	2.674415	0.000000	-0.229841	0.000000	0.006354	0.000371	0.000000	0.000000
10.425878	12.579695	21.730323	0.749663	-0.837802	2.589294	0.000000	-0.155689	0.000000	0.006554	0.000538	0.000000	0.000000
10.866838	12.081523	22.231600	0.384478	-0.294550	2.536378	0.000000	-0.083317	0.000000	0.006829	0.000710	0.000000	0.000000
11.309048	11.896393	22.245401	0.063910	0.210991	2.515041	0.000000	-0.017644	0.000000	0.007183	0.000874	0.000000	0.000000
11.606371	11.865851	22.124087	0.038815	0.197031	2.509536	0.000000	-0.017644	0.000000	0.007443	0.000874	0.000000	0.000000
12.086371	11.848035	21.945756	-0.001698	0.174492	2.500647	0.000000	-0.017644	0.000000	0.007863	0.000874	0.000000	0.000000
12.566371	11.869112	21.789061	-0.042212	0.151954	2.491759	0.000000	-0.017644	0.000000	0.008282	0.000874	0.000000	0.000000
13.046371	11.929081	21.654003	-0.082725	0.129416	2.482870	0.000000	-0.017644	0.000000	0.008702	0.000874	0.000000	0.000000
13.526371	12.027943	21.540582	-0.123238	0.106878	2.473982	0.000000	-0.017644	0.000000	0.009121	0.000874	0.000000	0.000000
14.007621	12.166108	21.448586	-0.163857	0.084281	2.465070	0.000000	-0.017644	0.000000	0.009542	0.000874	0.000000	0.000000
14.304943	12.270971	21.402679	-0.161723	0.023079	2.459561	0.000000	-0.023101	0.000000	0.009801	0.000851	0.000000	0.000000
14.745903	12.571400	21.148015	-0.521723	0.552164	2.464338	0.000000	0.046675	0.000000	0.010233	0.001109	0.000000	0.000000
15.186863	13.198699	20.436008	-0.905579	1.056122	2.499861	0.000000	0.116971	0.000000	0.010782	0.001380	0.000000	0.000000
15.627823	14.181562	19.299053	-1.330839	1.512016	2.566530	0.000000	0.188585	0.000000	0.011453	0.001667	0.000000	0.000000
16.068783	15.564942	17.788883	-1.816947	1.899097	2.665100	0.000000	0.262330	0.000000	0.012255	0.001973	0.000000	0.000000
16.514743	17.435789	15.952413	-2.391119	2.200782	2.798354	0.000000	0.339537	0.000000	0.013208	0.002303	0.000000	0.000000
17.063803	19.839059	13.901893	-1.958025	1.555124	2.960486	0.000000	0.254050	0.000000	0.014351	0.001856	0.000000	0.000000
17.612863	21.687275	12.495848	-1.386502	1.020271	3.074619	0.000000	0.164085	0.000000	0.015240	0.001377	0.000000	0.000000
18.161923	22.849733	11.634114	-0.716948	0.558117	3.138738	0.000000	0.071230	0.000000	0.015859	0.000873	0.000000	0.000000
18.710983	23.244217	11.255300	0.003300	0.135731	3.151713	0.000000	-0.022875	0.000000	0.016196	0.000353	0.000000	0.000000
19.009556	23.277047	11.167421	-0.061715	0.133704	3.146865	0.000000	-0.015805	0.000000	0.016314	0.000393	0.000000	0.000000
19.342889	23.322982	11.088412	-0.076090	0.103321	3.141465	0.000000	-0.015805	0.000000	0.016445	0.000393	0.000000	0.000000
19.676223	23.378500	11.029659	-0.090465	0.072939	3.136066	0.000000	-0.015805	0.000000	0.016575	0.000393	0.000000	0.000000
20.010806	23.444155	10.990918	-0.221049	0.096899	3.130666	0.000000	-0.000294	0.000000	0.016707	0.000476	0.000000	0.000000
20.308129	23.579752	10.941325	-0.286867	0.094048	3.130450	0.000000	0.006678	0.000000	0.016848	0.000516	0.000000	0.000000
20.857189	23.488281	11.059702	0.452598	-0.310868	3.108346	0.000000	-0.086592	0.000000	0.016982	-0.000032	0.000000	0.000000
21.406249	22.597227	11.632315	1.160071	-0.737936	3.035655	0.000000	-0.178325	0.000000	0.016813	-0.000579	0.000000	0.000000
21.955309	20.969599	12.699966	1.785530	-1.217589	2.913664	0.000000	-0.266904	0.000000	0.016347	-0.001117	0.000000	0.000000
22.504369	18.720500	14.338722	2.284756	-1.784005	2.744533	0.000000	-0.350764	0.000000	0.015590	-0.001634	0.000000	0.000000
22.950329	16.949636	15.810190	1.698192	-1.500658	2.605645	0.000000	-0.275012	0.000000	0.014950	-0.001238	0.000000	0.000000
23.391289	15.678505	16.983813	1.194295	-1.150170	2.500803	0.000000	-0.202875	0.000000	0.014488	-0.000859	0.000000	0.000000
23.832249	14.826281	17.823904	0.745005	-0.747330	2.427082	0.000000	-0.133040	0.000000	0.014191	-0.000489	0.000000	0.000000
24.273209	14.353985	18.292231	0.329778	-0.310475	2.383644	0.000000	-0.064716	0.000000	0.014056	-0.000125	0.000000	0.000000
24.715418	14.240201	18.367119	-0.040358	0.101558	2.369998	0.000000	-0.002138	0.000000	0.014082	0.000206	0.000000	0.000000
25.012741	14.270418	18.311591	-0.061271	0.085203	2.369302	0.000000	-0.002138	0.000000	0.014143	0.000206	0.000000	0.000000
25.346075	14.319080	18.260901	-0.084717	0.066867	2.368520	0.000000	-0.002138	0.000000	0.014212	0.000206	0.000000	0.000000
25.679408	14.383374	18.222434	-0.108163	0.048532	2.367739	0.000000	-0.002138	0.000000	0.014280	0.000206	0.000000	0.000000
26.013991	14.463334	18.196485	-0.014361	-0.117491	2.366931	0.000000	-0.021340	0.000000	0.014349	0.000090	0.000000	0.000000
26.311314	14.477899	18.271387	-0.004426	-0.172529	2.360553	0.000000	-0.026312	0.000000	0.014376	0.000057	0.000000	0.000000
26.752274	14.660830	18.225421	-0.411811	0.276351	2.363663	0.000000	0.040897	0.000000	0.014483	0.000429	0.000000	0.000000
27.193234	15.210105	17.787552	-0.838027	0.712653	2.396330	0.000000	0.108568	0.000000	0.014755	0.000806	0.000000	0.000000
27.634194	16.150848	16.977705	-1.302562	1.116519	2.458924	0.000000	0.177467	0.000000	0.015195	0.001192	0.000000	0.000000
28.075154	17.526092	15.832733	-1.826658	1.469564	2.552155	0.000000	0.248376	0.000000	0.015808	0.001592	0.000000	0.000000
28.521114	19.423018	14.387260	-2.439575	1.756956	2.678675	0.000000	0.322582	0.000000	0.016611	0.002012	0.000000	0.000000
29.070174	21.835594	12.777091	-1.926298	1.192231	2.832770	0.000000	0.241097	0.000000	0.017566	0.001458	0.000000	0.000000
29.619234	23.605655	11.737173	-1.276822	0.712462	2.941180	0.000000	0.155357	0.000000	0.018209	0.000879	0.000000	0.000000
30.168294	24.608009	11.193418	-0.537067	0.283464	3.001989	0.000000	0.066875	0.000000	0.018528	0.000283	0.000000	0.000000
30.717354	24.771760	11.107081	0.240661	-0.125334	3.014121	0.000000	-0.022790	0.000000	0.018519	-0.000317	0.000000	0.000000
31.015927	24.663880	11.175604	0.174006	-0.128140	3.009351	0.000000	-0.016198	0.000000	0.018438	-0.000272	0.000000	0.000000
31.349260	24.552517	11.271136	0.160082	-0.158457	3.004043	0.000000	-0.016198	0.000000	0.018347	-0.000272	0.000000	0.000000
31.682593	24.450437	11.386879	0.146158	-0.188773	2.998734	0.000000	-0.016198	0.000000	0.018256	-0.000272	0.000000	0.000000
32.017177	24.357309	11.523382	0.132181	-0.219204	2.993406	0.000000	-0.016198	0.000000	0.018165	-0.000272	0.000000	0.000000
32.314499	24.282634	11.661658	0.066388	-0.220653	2.988685	0.000000	-0.009629	0.000000	0.018084	-0.000229	0.000000	0.000000
32.863559	23.793653	12.141943	0.818330	-0.659028	2.959309	0.000000	-0.098188	0.000000	0.017798	-0.000810	0.000000	0.000000
33.412619	22.505589	13.126547	1.512406	-1.144364	2.882004	0.000000	-0.185018	0.000000	0.017197	-0.001377	0.000000	0.000000
33.961679	20.509548	14.685618	2.099544	-1.711245	2.758133	0.000000	-0.268587	0.000000	0.016290	-0.001920	0.000000	0.000000
34.510739	17.946703	16.930229	2.538235	-2.400062	2.589883	0.000000	-0.347421	0.000000	0.015094	-0.002429	0.000000	0.000000
34.956699	15.955300	18.938411	1.940813	-2.082995	2.451942	0.000000	-0.275680	0.000000	0.014096	-0.002050	0.000000	0.000000
35.397659	14.470622	20.600964	1.437401	-1.672217	2.346282	0.000000	-0.207520	0.000000	0.013270	-0.001697	0.000000	0.000000
35.838619	13.399546	21.866078	0.999714	-1.185330	2.269995	0.000000	-0.141707	0.000000	0.012596	-0.001364	0.000000	0.000000
36.279579	12.693081	22.676184	0.607738	-0.644497	2.222216	0.000000	-0.077494	0.000000	0.012065	-0.001046	0.000000	0.000000
36.721789	12.318287	22.994643	0.270213	-0.124127	2.202388	0.000000	-0.018938	0.000000	0.011671	-0.000767	0.000000	0.000000
37.019112	12.165306	23.072358	0.244314	-0.137256	2.196985	0.000000	-0.018938	0.000000	0.011443	-0.000767	0.000000	0.000000
37.352445	12.012109	23.168768	0.215278	-0.151976	2.190928	0.000000	-0.018938	0.000000	0.011188	-0.000767	0.000000	0.000000
37.685779	11.878269	23.274992	0.186242	-0.166695	2.184871	0.000000	-0.018938	0.000000	0.010932	-0.000767	0.000000	0.000000
38.020362	11.763393	23.391482	0.157097	-0.181470	2.178791	0.000000	-0.018938	0.000000	0.010675	-0.000767	0.000000	0.000000
38.317684	11.677639	23.503371	0.156932	-0.246647	2.173385	0.000000	-0.023728	0.000000	0.010448	-0.000791	0.000000	0.000000
38.758644	11.688638	23.460593	-0.182185	0.343274	2.176954	0.000000	0.038654	0.000000	0.010158	-0.000525	0.000000	0.000000
39.199604	12.001317	22.902407	-0.529625	0.917570	2.207994	0.000000	0.101481	0.000000	0.009983	-0.000266	0.000000	0.000000
39.640564	12.629967	21.854220	-0.901270	1.450104	2.266862	0.000000	0.165468	0.000000	0.009923	-0.000009	0.000000	0.000000
40.081524	13.603325	20.363736	-1.314109	1.916641	2.354229	0.000000	0.231339	0.000000	0.009975	0.000247	0.000000	0.000000
40.527484	14.983526	18.476135	-1.791015	2.297471	2.472566	0.000000	0.300276	0.000000	0.010144	0.000509	0.000000	0.000000
41.076544	16.746886	16.355173	-1.400940	1.587665	2.617000	0.000000	0.225648	0.000000	0.010332	0.000177	0.000000	0.000000
41.625604	18.024509	14.947446	-0.911863	0.990978	2.719469	0.000000	0.147019	0.000000	0.010337	-0.000158	0.000000	0.000000
42.174664	18.726096	14.152659	-0.358351	0.464897	2.778155	0.000000	0.065779	0.000000	0.010159	-0.000490	0.000000	0.000000
42.723724	18.802068	13.914183	0.220474	-0.028059	2.792013	0.000000	-0.016636	0.000000	0.009801	-0.000814	0.000000	0.000000
43.022297	18.702108	13.917406	0.159123	-0.016061	2.789272	0.000000	-0.009956	0.000000	0.009565	-0.000789	0.000000	0.000000
43.502297	18.561981	13.949383	0.132807	-0.050559	2.784872	0.000000	-0.009956	0.000000	0.009186	-0.000789	0.000000	0.000000
43.982297	18.447118	14.014479	0.106492	-0.085057	2.780472	0.000000	-0.009956	0.000000	0.008807	-0.000789	0.000000	0.000000
44.462297	18.357517	14.112692	0.080176	-0.119555	2.776072	0.000000	-0.009956	0.000000	0.008429	-0.000789	0.000000	0.000000
44.942297	18.293179	14.244024	0.053861	-0.154053	2.771671	0.000000	-0.009956	0.000000	0.008050	-0.000789	0.000000	0.000000
45.423547	18.254261	14.408767	-0.062965	-0.117251	2.767277	0.000000	0.003755	0.000000	0.007670	-0.000751	0.000000	0.000000
45.720870	18.296594	14.484686	-0.124084	-0.102886	2.768619	0.000000	0.010529	0.000000	0.007447	-0.000732	0.000000	0.000000
46.269930	18.124455	14.878159	0.435268	-0.617901	2.752418	0.000000	-0.071083	0.000000	0.006980	-0.000966	0.000000	0.000000
46.818990	17.351305	15.857941	0.963847	-1.176933	2.691798	0.000000	-0.151450	0.000000	0.006389	-0.001183	0.000000	0.000000
47.368050	16.031801	17.493816	1.424306	-1.819805	2.587828	0.000000	-0.229149	0.000000	0.005685	-0.001378	0.000000	0.000000
47.917110	14.259206	19.902299	1.784110	-2.592311	2.442341	0.000000	-0.302805	0.000000	0.004880	-0.001549	0.000000	0.000000
48.363070	12.879199	22.043803	1.320531	-2.189229	2.323184	0.000000	-0.234693	0.000000	0.004216	-0.001431	0.000000	0.000000
48.804030	11.894176	23.760100	0.921140	-1.687922	2.234702	0.000000	-0.169648	0.000000	0.003607	-0.001331	0.000000	0.000000
49.244990	11.241611	24.998563	0.563850	-1.109813	2.174416	0.000000	-0.106522	0.000000	0.003040	-0.001245	0.000000	0.000000
49.685950	10.891671	25.702848	0.232333	-0.481209	2.141644	0.000000	-0.044595	0.000000	0.002507	-0.001173	0.000000	0.000000
50.128160	10.828513	25.840652	-0.062629	0.107485	2.136034	0.000000	0.011698	0.000000	0.002001	-0.001120	0.000000	0.000000
50.425482	10.873951	25.780197	-0.090194	0.095846	2.139845	0.000000	0.011698	0.000000	0.001668	-0.001120	0.000000	0.000000
50.758816	10.944381	25.720649	-0.121097	0.082797	2.144118	0.000000	0.011698	0.000000	0.001295	-0.001120	0.000000	0.000000
51.092149	11.035414	25.669801	-0.152001	0.069748	2.148391	0.000000	0.011698	0.000000	0.000922	-0.001120	0.000000	0.000000
51.426732	11.147281	25.628029	-0.092587	-0.151256	2.152658	0.000000	-0.005765	0.000000	0.000547	-0.001125	0.000000	0.000000
51.724055	11.210336	25.721501	-0.092052	-0.226486	2.151278	0.000000	-0.011030	0.000000	0.000212	-0.001125	0.000000	0.000000
52.165015	11.437575	25.635066	-0.425595	0.421755	2.160527	0.000000	0.050838	0.000000	-0.000283	-0.001126	0.000000	0.000000
52.605975	11.966390	24.983251	-0.778574	1.050803	2.197164	0.000000	0.113297	0.000000	-0.000783	-0.001140	0.000000	0.000000
53.046935	12.820929	23.795724	-1.167115	1.632036	2.261611	0.000000	0.177059	0.000000	-0.001291	-0.001167	0.000000	0.000000
53.487895	14.040219	22.126527	-1.608965	2.139012	2.354608	0.000000	0.242849	0.000000	-0.001813	-0.001207	0.000000	0.000000
53.933855	15.700812	20.026627	-2.128539	2.549958	2.478750	0.000000	0.311813	0.000000	-0.002363	-0.001261	0.000000	0.000000
54.482915	17.838532	17.663616	-1.742558	1.779347	2.630251	0.000000	0.236903	0.000000	-0.003032	-0.001173	0.000000	0.000000
55.031975	19.481906	16.072672	-1.233530	1.135471	2.739349	0.000000	0.157773	0.000000	-0.003648	-0.001065	0.000000	0.000000
55.581035	20.514905	15.140465	-0.637405	0.572468	2.804100	0.000000	0.075827	0.000000	-0.004198	-0.000938	0.000000	0.000000
56.130095	20.864605	14.800588	0.003715	0.050240	2.823348	0.000000	-0.007479	0.000000	-0.004675	-0.000794	0.000000	0.000000
56.428668	20.900472	14.752585	-0.067262	0.070235	2.823643	0.000000	0.000184	0.000000	-0.004915	-0.000807	0.000000	0.000000
56.762001	20.950654	14.713330	-0.083283	0.047529	2.823973	0.000000	0.000184	0.000000	-0.005184	-0.000807	0.000000	0.000000
57.095334	21.011516	14.689213	-0.099303	0.024823	2.824303	0.000000	0.000184	0.000000	-0.005453	-0.000807	0.000000	0.000000
57.429918	21.083347	14.680228	-0.115384	0.002031	2.824634	0.000000	0.000184	0.000000	-0.005723	-0.000807	0.000000	0.000000
57.727240	21.156230	14.685027	-0.187667	0.021864	2.824930	0.000000	0.007927	0.000000	-0.005963	-0.000823	0.000000	0.000000
58.276300	21.000788	14.942841	0.468686	-0.494232	2.806751	0.000000	-0.075443	0.000000	-0.006361	-0.000623	0.000000	0.000000
58.825360	20.138728	15.783221	1.091928	-1.045523	2.742991	0.000000	-0.157486	0.000000	-0.006645	-0.000412	0.000000	0.000000
59.374420	18.630931	17.266007	1.638056	-1.671267	2.634774	0.000000	-0.236743	0.000000	-0.006812	-0.000194	0.000000	0.000000
59.923480	16.583865	19.496792	2.068509	-2.416027	2.484019	0.000000	-0.311804	0.000000	-0.006858	0.000027	0.000000	0.000000
60.369440	14.980419	21.479543	1.539844	-2.011445	2.360467	0.000000	-0.242722	0.000000	-0.006886	-0.000151	0.000000	0.000000
60.810400	13.827141	23.041045	1.085616	-1.516572	2.268175	0.000000	-0.176782	0.000000	-0.006992	-0.000330	0.000000	0.000000
61.251360	13.051096	24.133948	0.680975	-0.952711	2.204563	0.000000	-0.112852	0.000000	-0.007177	-0.000513	0.000000	0.000000
61.692320	12.616839	24.708539	0.307440	-0.345513	2.168909	0.000000	-0.050201	0.000000	-0.007445	-0.000701	0.000000	0.000000
62.134530	12.504604	24.738110	-0.019267	0.212621	2.160822	0.000000	0.006203	0.000000	-0.007798	-0.000878	0.000000	0.000000
62.431853	12.523133	24.615411	-0.043052	0.200059	2.162928	0.000000	0.006203	0.000000	-0.008059	-0.000878	0.000000	0.000000
62.765186	12.560723	24.486733	-0.069719	0.185975	2.165288	0.000000	0.006203	0.000000	-0.008351	-0.000878	0.000000	0.000000
63.098520	12.616092	24.367444	-0.096386	0.171892	2.167648	0.000000	0.006203	0.000000	-0.008644	-0.000878	0.000000	0.000000
63.433103	12.689546	24.257149	-0.123153	0.157755	2.170017	0.000000	0.006203	0.000000	-0.008938	-0.000878	0.000000	0.000000
63.730426	12.769818	24.167136	-0.112968	0.080598	2.172120	0.000000	0.000425	0.000000	-0.009198	-0.000854	0.000000	0.000000
64.171386	13.031303	23.829846	-0.482709	0.681492	2.186479	0.000000	0.062881	0.000000	-0.009628	-0.001097	0.000000	0.000000
64.612346	13.627223	22.974391	-0.874484	1.251383	2.228614	0.000000	0.126065	0.000000	-0.010168	-0.001352	0.000000	0.000000
65.053306	14.584775	21.639694	-1.306184	1.764350	2.299010	0.000000	0.190698	0.000000	-0.010823	-0.001623	0.000000	0.000000
65.494266	15.947662	19.886478	-1.797516	2.197059	2.398476	0.000000	0.257521	0.000000	-0.011601	-0.001912	0.000000	0.000000
65.940226	17.801486	17.769533	-2.375327	2.530359	2.529774	0.000000	0.327661	0.000000	-0.012522	-0.002224	0.000000	0.000000
66.489286	20.175632	15.401130	-1.924979	1.809455	2.689902	0.000000	0.250985	0.000000	-0.013629	-0.001801	0.000000	0.000000
67.038346	21.977414	13.749287	-1.338775	1.217394	2.806408	0.000000	0.169830	0.000000	-0.014493	-0.001345	0.000000	0.000000
67.587406	23.079715	12.696361	-0.658094	0.712015	2.877215	0.000000	0.085641	0.000000	-0.015101	-0.000866	0.000000	0.000000
68.136466	23.404779	12.167368	0.069021	0.257333	2.901060	0.000000	-0.000079	0.000000	-0.015441	-0.000371	0.000000	0.000000
68.435038	23.408259	12.000367	-0.012481	0.266485	2.903694	0.000000	0.008442	0.000000	-0.015565	-0.000414	0.000000	0.000000
68.768372	23.421327	11.832626	-0.026723	0.236736	2.906646	0.000000	0.008442	0.000000	-0.015703	-0.000414	0.000000	0.000000
69.101705	23.443890	11.684719	-0.040965	0.206986	2.909598	0.000000	0.008442	0.000000	-0.015841	-0.000414	0.000000	0.000000
69.436288	23.476085	11.556202	-0.055261	0.177125	2.912561	0.000000	0.008442	0.000000	-0.015979	-0.000414	0.000000	0.000000
69.733611	23.512902	11.458678	-0.137329	0.184324	2.915205	0.000000	0.017042	0.000000	-0.016102	-0.000459	0.000000	0.000000
70.282671	23.259876	11.485221	0.595411	-0.232963	2.900947	0.000000	-0.069290	0.000000	-0.016211	0.000065	0.000000	0.000000
