#ParticleID	Turn	x[m]	xp	y[m]	yp	z[m]	dE[GeV]# s	beta_x	beta_y	alpha_x	alpha_y	D_x	D_y	D_px	D_py	orbit_x	orbit_px	orbit_y	orbit_py
0.300000	11.909048	25.185585	-0.018542	-0.023664	2.607150	0.000000	0.000546	0.000000	-0.000437	0.000383	0.000000	0.000000
0.601250	11.927843	25.203448	-0.043847	-0.035632	2.607199	0.000000	0.000546	0.000000	-0.000321	0.000383	0.000000	0.000000
0.898573	11.961342	25.228149	-0.039431	-0.109294	2.607247	0.000000	-0.005860	0.000000	-0.000207	0.000384	0.000000	0.000000
1.339533	12.149401	25.044610	-0.388534	0.523936	2.620733	0.000000	0.067817	0.000000	-0.000039	0.000380	0.000000	0.000000
1.780493	12.651980	24.311031	-0.755391	1.133328	2.666846	0.000000	0.142263	0.000000	0.000129	0.000382	0.000000	0.000000
2.221453	13.492041	23.060785	-1.156762	1.691156	2.746110	0.000000	0.218324	0.000000	0.000298	0.000387	0.000000	0.000000
2.662413	14.707972	21.350755	-1.610987	2.172038	2.859427	0.000000	0.296869	0.000000	0.000471	0.000397	0.000000	0.000000
3.108373	16.376327	19.233680	-2.143163	2.555244	3.009941	0.000000	0.379280	0.000000	0.000651	0.000412	0.000000	0.000000
3.657433	18.515279	16.855689	-1.729195	1.801296	3.192817	0.000000	0.286639	0.000000	0.000870	0.000387	0.000000	0.000000
4.206493	20.129471	15.230735	-1.193073	1.175651	3.323371	0.000000	0.188919	0.000000	0.001074	0.000355	0.000000	0.000000
4.755553	21.104868	14.243081	-0.572667	0.633746	3.399291	0.000000	0.087855	0.000000	0.001259	0.000318	0.000000	0.000000
5.304613	21.372559	13.822381	0.088198	0.136982	3.419232	0.000000	-0.014763	0.000000	0.001422	0.000274	0.000000	0.000000
5.603185	21.357013	13.725949	0.019038	0.150367	3.417376	0.000000	-0.005936	0.000000	0.001505	0.000278	0.000000	0.000000
5.936519	21.349526	13.633983	0.003425	0.125533	3.415305	0.000000	-0.005936	0.000000	0.001598	0.000278	0.000000	0.000000
6.269852	21.352447	13.558573	-0.012189	0.100699	3.413234	0.000000	-0.005936	0.000000	0.001690	0.000278	0.000000	0.000000
6.604435	21.365847	13.499529	-0.027860	0.075771	3.411154	0.000000	-0.005936	0.000000	0.001783	0.000278	0.000000	0.000000
6.901758	21.386557	13.461056	-0.096788	0.088293	3.409307	0.000000	0.002832	0.000000	0.001866	0.000283	0.000000	0.000000
7.450818	21.128127	13.625367	0.564819	-0.389310	3.382636	0.000000	-0.099357	0.000000	0.002004	0.000220	0.000000	0.000000
7.999878	20.160836	14.326220	1.186531	-0.894647	3.300293	0.000000	-0.199780	0.000000	0.002107	0.000153	0.000000	0.000000
8.548938	18.553014	15.613540	1.724428	-1.463711	3.163738	0.000000	-0.296657	0.000000	0.002172	0.000084	0.000000	0.000000
9.097998	16.418239	17.579028	2.140511	-2.137039	2.975396	0.000000	-0.388270	0.000000	0.002199	0.000013	0.000000	0.000000
9.543958	14.752519	19.330267	1.607827	-1.773154	2.820474	0.000000	-0.306802	0.000000	0.002217	0.000071	0.000000	0.000000
9.984918	13.539691	20.703851	1.152985	-1.329878	2.702337	0.000000	-0.229320	0.000000	0.002261	0.000128	0.000000	0.000000
10.425878	12.703359	21.658210	0.750823	-0.826090	2.617734	0.000000	-0.154450	0.000000	0.002331	0.000187	0.000000	0.000000
10.866838	12.205310	22.149918	0.382967	-0.284713	2.565702	0.000000	-0.081342	0.000000	0.002427	0.000249	0.000000	0.000000
11.309048	12.022637	22.156053	0.061270	0.216447	2.545627	0.000000	-0.015255	0.000000	0.002551	0.000307	0.000000	0.000000
11.606371	11.993583	22.031521	0.036447	0.202399	2.541000	0.000000	-0.015255	0.000000	0.002642	0.000307	0.000000	0.000000
12.086371	11.977830	21.848104	-0.003627	0.179720	2.533531	0.000000	-0.015255	0.000000	0.002789	0.000307	0.000000	0.000000
12.566371	12.000548	21.686459	-0.043702	0.157040	2.526061	0.000000	-0.015255	0.000000	0.002936	0.000307	0.000000	0.000000
13.046371	12.061738	21.546586	-0.083777	0.134361	2.518592	0.000000	-0.015255	0.000000	0.003084	0.000307	0.000000	0.000000
13.526371	12.161399	21.428486	-0.123851	0.111681	2.511122	0.000000	-0.015255	0.000000	0.003231	0.000307	0.000000	0.000000
14.007621	12.299942	21.331936	-0.164030	0.088943	2.503633	0.000000	-0.015255	0.000000	0.003378	0.000307	0.000000	0.000000
14.304943	12.404858	21.283231	-0.159440	0.024520	2.499006	0.000000	-0.021180	0.000000	0.003470	0.000298	0.000000	0.000000
14.745903	12.704445	21.028760	-0.522377	0.550338	2.505124	0.000000	0.049618	0.000000	0.003621	0.000390	0.000000	0.000000
15.186863	13.333427	20.319849	-0.909187	1.051114	2.542518	0.000000	0.120978	0.000000	0.003814	0.000486	0.000000	0.000000
15.627823	14.320550	19.188750	-1.337546	1.504063	2.611611	0.000000	0.193711	0.000000	0.004050	0.000587	0.000000	0.000000
16.068783	15.710931	17.686929	-1.827030	1.888571	2.713189	0.000000	0.268643	0.000000	0.004333	0.000695	0.000000	0.000000
16.514743	17.591738	15.861211	-2.404857	2.187966	2.850103	0.000000	0.347107	0.000000	0.004668	0.000812	0.000000	0.000000
17.063803	20.006626	13.823093	-1.966622	1.545702	3.016615	0.000000	0.259898	0.000000	0.005071	0.000654	0.000000	0.000000
17.612863	21.860604	12.426054	-1.389432	1.013547	3.133992	0.000000	0.168089	0.000000	0.005384	0.000485	0.000000	0.000000
18.161923	23.022661	11.570582	-0.714065	0.553595	3.200158	0.000000	0.073306	0.000000	0.005602	0.000307	0.000000	0.000000
18.710983	23.410677	11.195739	0.011758	0.133079	3.213940	0.000000	-0.022772	0.000000	0.005720	0.000123	0.000000	0.000000
19.009556	23.442198	11.107844	-0.059215	0.133530	3.209483	0.000000	-0.014783	0.000000	0.005761	0.000138	0.000000	0.000000
19.342889	23.486431	11.029006	-0.073484	0.102986	3.204509	0.000000	-0.014783	0.000000	0.005807	0.000138	0.000000	0.000000
19.676223	23.540177	10.970530	-0.087754	0.072442	3.199536	0.000000	-0.014783	0.000000	0.005853	0.000138	0.000000	0.000000
20.010806	23.603984	10.932177	-0.219024	0.095948	3.194563	0.000000	0.001045	0.000000	0.005899	0.000167	0.000000	0.000000
20.308129	23.738174	10.883271	-0.291106	0.095526	3.194826	0.000000	0.008969	0.000000	0.005949	0.000182	0.000000	0.000000
20.857189	23.648530	10.999075	0.453452	-0.307666	3.173499	0.000000	-0.086368	0.000000	0.005996	-0.000011	0.000000	0.000000
21.406249	22.753957	11.567036	1.165972	-0.732777	3.100268	0.000000	-0.180174	0.000000	0.005936	-0.000205	0.000000	0.000000
21.955309	21.117670	12.627614	1.796108	-1.210089	2.976431	0.000000	-0.270786	0.000000	0.005771	-0.000394	0.000000	0.000000
22.504369	18.855294	14.256358	2.299337	-1.773606	2.804183	0.000000	-0.356601	0.000000	0.005504	-0.000577	0.000000	0.000000
22.950329	17.073604	15.719193	1.709397	-1.492510	2.662654	0.000000	-0.279384	0.000000	0.005278	-0.000437	0.000000	0.000000
23.391289	15.794302	16.886512	1.202396	-1.144439	2.555927	0.000000	-0.205819	0.000000	0.005115	-0.000303	0.000000	0.000000
23.832249	14.936368	17.722609	0.750345	-0.744291	2.481040	0.000000	-0.134594	0.000000	0.005010	-0.000173	0.000000	0.000000
24.273209	14.460590	18.189439	0.332585	-0.310273	2.437140	0.000000	-0.064901	0.000000	0.004962	-0.000044	0.000000	0.000000
24.715418	14.345326	18.265509	-0.036561	0.095113	2.423727	0.000000	-0.001607	0.000000	0.004971	0.000072	0.000000	0.000000
25.012741	14.373238	18.213834	-0.057315	0.078688	2.423228	0.000000	-0.001607	0.000000	0.004993	0.000072	0.000000	0.000000
25.346075	14.419203	18.167514	-0.080582	0.060273	2.422668	0.000000	-0.001607	0.000000	0.005017	0.000072	0.000000	0.000000
25.679408	14.480681	18.133470	-0.103850	0.041859	2.422108	0.000000	-0.001607	0.000000	0.005041	0.000072	0.000000	0.000000
26.013991	14.557692	18.112011	-0.009103	-0.123558	2.421522	0.000000	-0.021252	0.000000	0.005065	0.000031	0.000000	0.000000
26.311314	14.569167	18.190453	0.004463	-0.182660	2.415193	0.000000	-0.026887	0.000000	0.005074	0.000019	0.000000	0.000000
26.752274	14.745058	18.154394	-0.404794	0.264115	2.418424	0.000000	0.041716	0.000000	0.005111	0.000150	0.000000	0.000000
27.193234	15.288696	17.728101	-0.832551	0.698872	2.451928	0.000000	0.110793	0.000000	0.005206	0.000283	0.000000	0.000000
27.634194	16.224929	16.930972	-1.298356	1.101827	2.516085	0.000000	0.181129	0.000000	0.005361	0.000419	0.000000	0.000000
28.075154	17.596548	15.799276	-1.823496	1.454642	2.611626	0.000000	0.253524	0.000000	0.005577	0.000560	0.000000	0.000000
28.521114	19.490165	14.367409	-2.437021	1.742281	2.741249	0.000000	0.329264	0.000000	0.005860	0.000709	0.000000	0.000000
29.070174	21.897575	12.772438	-1.920882	1.179530	2.899023	0.000000	0.245722	0.000000	0.006196	0.000513	0.000000	0.000000
29.619234	23.659758	11.745986	-1.269013	0.700807	3.009766	0.000000	0.157829	0.000000	0.006422	0.000309	0.000000	0.000000
30.168294	24.652184	11.214937	-0.527477	0.272010	3.071517	0.000000	0.067141	0.000000	0.006534	0.000099	0.000000	0.000000
30.717354	24.804719	11.141461	0.251331	-0.137410	3.083180	0.000000	-0.024737	0.000000	0.006530	-0.000113	0.000000	0.000000
31.015927	24.694877	11.215200	0.177657	-0.137024	3.078092	0.000000	-0.017130	0.000000	0.006501	-0.000096	0.000000	0.000000
31.349260	24.581080	11.316643	0.163733	-0.167303	3.072414	0.000000	-0.017130	0.000000	0.006469	-0.000096	0.000000	0.000000
31.682593	24.476566	11.438271	0.149809	-0.197583	3.066736	0.000000	-0.017130	0.000000	0.006437	-0.000096	0.000000	0.000000
32.017177	24.380995	11.580656	0.135833	-0.227976	3.061037	0.000000	-0.017130	0.000000	0.006405	-0.000096	0.000000	0.000000
32.314499	24.303945	11.724237	0.063361	-0.226029	3.055974	0.000000	-0.009579	0.000000	0.006376	-0.000080	0.000000	0.000000
32.863559	23.818203	12.211407	0.815874	-0.666408	3.025865	0.000000	-0.100276	0.000000	0.006276	-0.000285	0.000000	0.000000
33.412619	22.532891	13.205285	1.510736	-1.154261	2.946474	0.000000	-0.189198	0.000000	0.006064	-0.000485	0.000000	0.000000
33.961679	20.538841	14.776667	2.098848	-1.724342	2.819209	0.000000	-0.274771	0.000000	0.005745	-0.000676	0.000000	0.000000
34.510739	17.976969	17.037489	2.538657	-2.417261	2.646322	0.000000	-0.355482	0.000000	0.005324	-0.000856	0.000000	0.000000
34.956699	15.986035	19.059874	1.941014	-2.098395	2.504502	0.000000	-0.282367	0.000000	0.004972	-0.000722	0.000000	0.000000
35.397659	14.501803	20.734642	1.437147	-1.684894	2.395681	0.000000	-0.212907	0.000000	0.004682	-0.000598	0.000000	0.000000
35.838619	13.431475	22.009373	0.998957	-1.194724	2.316878	0.000000	-0.145866	0.000000	0.004444	-0.000480	0.000000	0.000000
36.279579	12.726130	22.826065	0.606420	-0.650189	2.267198	0.000000	-0.080481	0.000000	0.004258	-0.000368	0.000000	0.000000
36.721789	12.352860	23.147873	0.270589	-0.130569	2.246050	0.000000	-0.021300	0.000000	0.004119	-0.000270	0.000000	0.000000
37.019112	12.199635	23.229399	0.244758	-0.143632	2.239797	0.000000	-0.021300	0.000000	0.004039	-0.000270	0.000000	0.000000
37.352445	12.046117	23.330036	0.215798	-0.158278	2.232787	0.000000	-0.021300	0.000000	0.003949	-0.000270	0.000000	0.000000
37.685779	11.911905	23.440436	0.186838	-0.172923	2.225777	0.000000	-0.021300	0.000000	0.003859	-0.000270	0.000000	0.000000
38.020362	11.796605	23.561069	0.157769	-0.187624	2.218740	0.000000	-0.021300	0.000000	0.003769	-0.000270	0.000000	0.000000
38.317684	11.710464	23.676533	0.159644	-0.256798	2.212487	0.000000	-0.026535	0.000000	0.003689	-0.000279	0.000000	0.000000
38.758644	11.719428	23.640677	-0.180127	0.337798	2.214853	0.000000	0.036828	0.000000	0.003587	-0.000185	0.000000	0.000000
39.199604	12.030554	23.085209	-0.528127	0.917022	2.245188	0.000000	0.100613	0.000000	0.003526	-0.000093	0.000000	0.000000
39.640564	12.658059	22.035407	-0.900259	1.454518	2.303838	0.000000	0.165545	0.000000	0.003505	-0.000002	0.000000	0.000000
40.081524	13.630616	20.539041	-1.313527	1.925828	2.391471	0.000000	0.232362	0.000000	0.003523	0.000088	0.000000	0.000000
40.527484	15.010200	18.641540	-1.790693	2.310889	2.510565	0.000000	0.302243	0.000000	0.003583	0.000180	0.000000	0.000000
41.076544	16.772393	16.508870	-1.399558	1.596058	2.655847	0.000000	0.226386	0.000000	0.003650	0.000063	0.000000	0.000000
41.625604	18.047849	15.094542	-0.909548	0.994922	2.758373	0.000000	0.146514	0.000000	0.003652	-0.000055	0.000000	0.000000
42.174664	18.746457	14.297805	-0.355284	0.464660	2.816325	0.000000	0.064042	0.000000	0.003590	-0.000173	0.000000	0.000000
42.723724	18.818862	14.061905	0.224076	-0.032501	2.828674	0.000000	-0.019569	0.000000	0.003464	-0.000287	0.000000	0.000000
43.022297	18.718435	14.066325	0.159988	-0.018011	2.825056	0.000000	-0.012395	0.000000	0.003381	-0.000278	0.000000	0.000000
43.502297	18.577471	14.100000	0.133688	-0.052146	2.819240	0.000000	-0.012395	0.000000	0.003247	-0.000278	0.000000	0.000000
43.982297	18.461754	14.166445	0.107389	-0.086281	2.813423	0.000000	-0.012395	0.000000	0.003114	-0.000278	0.000000	0.000000
44.462297	18.371284	14.265660	0.081089	-0.120416	2.807607	0.000000	-0.012395	0.000000	0.002980	-0.000278	0.000000	0.000000
44.942297	18.306062	14.397644	0.054790	-0.154551	2.801791	0.000000	-0.012395	0.000000	0.002847	-0.000278	0.000000	0.000000
45.423547	18.266243	14.562690	-0.062079	-0.116623	2.795977	0.000000	0.001458	0.000000	0.002713	-0.000264	0.000000	0.000000
45.720870	18.308020	14.638189	-0.125192	-0.099975	2.796489	0.000000	0.008602	0.000000	0.002635	-0.000258	0.000000	0.000000
46.269930	18.137087	15.030882	0.434502	-0.619430	2.778701	0.000000	-0.073875	0.000000	0.002470	-0.000340	0.000000	0.000000
46.818990	17.364798	16.014754	0.963495	-1.183008	2.715960	0.000000	-0.155048	0.000000	0.002262	-0.000417	0.000000	0.000000
47.368050	16.045722	17.659884	1.424418	-1.830852	2.609377	0.000000	-0.233477	0.000000	0.002014	-0.000486	0.000000	0.000000
47.917110	14.273053	20.083448	1.784711	-2.609109	2.460839	0.000000	-0.307773	0.000000	0.001730	-0.000547	0.000000	0.000000
48.363070	12.892836	22.237860	1.320921	-2.201447	2.339156	0.000000	-0.239225	0.000000	0.001495	-0.000505	0.000000	0.000000
48.804030	11.907760	23.962612	0.921272	-1.694947	2.248384	0.000000	-0.173802	0.000000	0.001281	-0.000469	0.000000	0.000000
49.244990	11.255336	25.204814	0.563720	-1.111327	2.185986	0.000000	-0.110352	0.000000	0.001081	-0.000439	0.000000	0.000000
49.685950	10.905750	25.907952	0.231926	-0.477143	2.151253	0.000000	-0.048155	0.000000	0.000893	-0.000413	0.000000	0.000000
50.128160	10.843183	26.039747	-0.062974	0.115421	2.143802	0.000000	0.008277	0.000000	0.000715	-0.000394	0.000000	0.000000
50.425482	10.888815	25.974553	-0.090503	0.103851	2.146380	0.000000	0.008277	0.000000	0.000598	-0.000394	0.000000	0.000000
50.758816	10.959438	25.909643	-0.121366	0.090880	2.149270	0.000000	0.008277	0.000000	0.000466	-0.000394	0.000000	0.000000
51.092149	11.050636	25.853380	-0.152229	0.077908	2.152161	0.000000	0.008277	0.000000	0.000335	-0.000394	0.000000	0.000000
51.426732	11.162642	25.806126	-0.092649	-0.144464	2.155040	0.000000	-0.009206	0.000000	0.000203	-0.000396	0.000000	0.000000
51.724055	11.225722	25.895528	-0.092007	-0.219825	2.152421	0.000000	-0.014480	0.000000	0.000085	-0.000396	0.000000	0.000000
52.165015	11.453177	25.801208	-0.425896	0.432908	2.159839	0.000000	0.047394	0.000000	-0.000090	-0.000396	0.000000	0.000000
52.605975	11.982526	25.137752	-0.779239	1.065942	2.194637	0.000000	0.109811	0.000000	-0.000265	-0.000401	0.000000	0.000000
53.046935	12.837948	23.935352	-1.168181	1.650475	2.257211	0.000000	0.173484	0.000000	-0.000444	-0.000410	0.000000	0.000000
53.487895	14.058520	22.248717	-1.610489	2.159913	2.348276	0.000000	0.239138	0.000000	-0.000628	-0.000424	0.000000	0.000000
53.933855	15.720886	20.129387	-2.130635	2.572401	2.470381	0.000000	0.307917	0.000000	-0.000821	-0.000443	0.000000	0.000000
54.482915	17.860804	17.744374	-1.743973	1.797109	2.619408	0.000000	0.233312	0.000000	-0.001056	-0.000412	0.000000	0.000000
55.031975	19.505560	16.135854	-1.234138	1.149819	2.726255	0.000000	0.154563	0.000000	-0.001272	-0.000375	0.000000	0.000000
55.581035	20.538992	15.189254	-0.637143	0.584428	2.789024	0.000000	0.073067	0.000000	-0.001466	-0.000330	0.000000	0.000000
56.130095	20.888119	14.837146	0.004848	0.060664	2.806598	0.000000	-0.009731	0.000000	-0.001634	-0.000280	0.000000	0.000000
56.428668	20.922536	14.783491	-0.064803	0.079693	2.805997	0.000000	-0.002298	0.000000	-0.001719	-0.000284	0.000000	0.000000
56.762001	20.971071	14.737925	-0.080802	0.057003	2.805325	0.000000	-0.002298	0.000000	-0.001813	-0.000284	0.000000	0.000000
57.095334	21.030271	14.707487	-0.096800	0.034312	2.804654	0.000000	-0.002298	0.000000	-0.001908	-0.000284	0.000000	0.000000
57.429918	21.100420	14.692147	-0.112859	0.011536	2.803980	0.000000	-0.002298	0.000000	-0.002003	-0.000284	0.000000	0.000000
57.727240	21.171777	14.691303	-0.183409	0.030289	2.803382	0.000000	0.005154	0.000000	-0.002088	-0.000290	0.000000	0.000000
58.276300	21.011511	14.939899	0.473428	-0.485742	2.783626	0.000000	-0.077503	0.000000	-0.002228	-0.000220	0.000000	0.000000
58.825360	20.144184	15.770699	1.096823	-1.036369	2.718759	0.000000	-0.158789	0.000000	-0.002328	-0.000146	0.000000	0.000000
59.374420	18.631056	17.242871	1.642749	-1.660808	2.609932	0.000000	-0.237261	0.000000	-0.002388	-0.000070	0.000000	0.000000
59.923480	16.578995	19.461269	2.072649	-2.403535	2.459073	0.000000	-0.311526	0.000000	-0.002405	0.000008	0.000000	0.000000
60.369440	14.972031	21.432871	1.543560	-1.998926	2.335487	0.000000	-0.243069	0.000000	-0.002415	-0.000055	0.000000	0.000000
60.810400	13.815506	22.983678	1.089188	-1.504702	2.242829	0.000000	-0.177770	0.000000	-0.002453	-0.000117	0.000000	0.000000
61.251360	13.036306	24.066668	0.684574	-0.942020	2.178518	0.000000	-0.114494	0.000000	-0.002519	-0.000181	0.000000	0.000000
61.692320	12.598836	24.632568	0.311234	-0.336481	2.141822	0.000000	-0.052520	0.000000	-0.002613	-0.000248	0.000000	0.000000
62.134530	12.483153	24.655074	-0.016587	0.222408	2.132331	0.000000	0.003495	0.000000	-0.002738	-0.000310	0.000000	0.000000
62.431853	12.500100	24.526583	-0.040412	0.209752	2.133462	0.000000	0.003495	0.000000	-0.002830	-0.000310	0.000000	0.000000
62.765186	12.535944	24.391478	-0.067122	0.195564	2.134730	0.000000	0.003495	0.000000	-0.002933	-0.000310	0.000000	0.000000
63.098520	12.589596	24.265831	-0.093832	0.181375	2.135998	0.000000	0.003495	0.000000	-0.003036	-0.000310	0.000000	0.000000
63.433103	12.661355	24.149226	-0.120642	0.167133	2.137271	0.000000	0.003495	0.000000	-0.003140	-0.000310	0.000000	0.000000
63.730426	12.740174	24.053611	-0.112277	0.093599	2.138402	0.000000	-0.001908	0.000000	-0.003232	-0.000302	0.000000	0.000000
64.171386	13.000892	23.706239	-0.481371	0.691205	2.151271	0.000000	0.059669	0.000000	-0.003384	-0.000387	0.000000	0.000000
64.612346	13.595516	22.843759	-0.872451	1.257363	2.191454	0.000000	0.121931	0.000000	-0.003574	-0.000477	0.000000	0.000000
65.053306	14.551203	21.505416	-1.303381	1.766316	2.259411	0.000000	0.185585	0.000000	-0.003805	-0.000572	0.000000	0.000000
65.494266	15.911600	19.752100	-1.793843	2.194910	2.355916	0.000000	0.251360	0.000000	-0.004079	-0.000673	0.000000	0.000000
65.940226	17.762075	17.638787	-2.370849	2.524299	2.483646	0.000000	0.320392	0.000000	-0.004403	-0.000783	0.000000	0.000000
66.489286	20.132535	15.274963	-1.921568	1.806615	2.639528	0.000000	0.245256	0.000000	-0.004793	-0.000634	0.000000	0.000000
67.038346	21.931804	13.624347	-1.336598	1.217598	2.752817	0.000000	0.165761	0.000000	-0.005098	-0.000474	0.000000	0.000000
67.587406	23.032842	12.569377	-0.657248	0.715297	2.821498	0.000000	0.083317	0.000000	-0.005312	-0.000305	0.000000	0.000000
68.136466	23.357915	12.034913	0.068509	0.263939	2.844351	0.000000	-0.000609	0.000000	-0.005432	-0.000131	0.000000	0.000000
68.435038	23.358880	11.865740	-0.008042	0.269823	2.846530	0.000000	0.007157	0.000000	-0.005476	-0.000146	0.000000	0.000000
68.768372	23.368999	11.695904	-0.022313	0.239685	2.848964	0.000000	0.007157	0.000000	-0.005525	-0.000146	0.000000	0.000000
69.101705	23.388632	11.546160	-0.036584	0.209548	2.851399	0.000000	0.007157	0.000000	-0.005573	-0.000146	0.000000	0.000000
69.436288	23.417905	11.416059	-0.050909	0.179298	2.853842	0.000000	0.007157	0.000000	-0.005622	-0.000146	0.000000	0.000000
69.733611	23.451985	11.317422	-0.127779	0.183344	2.856014	0.000000	0.014968	0.000000	-0.005665	-0.000161	0.000000	0.000000
70.282671	23.189561	11.342909	0.602895	-0.230042	2.841069	0.000000	-0.069463	0.000000	-0.005703	0.000023	0.000000	0.000000
