#ParticleID	Turn	x[m]	xp	y[m]	yp	z[m]	dE[GeV]# s	beta_x	beta_y	alpha_x	alpha_y	D_x	D_y	D_px	D_py	orbit_x	orbit_px	orbit_y	orbit_py
0.300000	11.965560	25.317289	-0.018891	-0.022103	2.598446	0.000000	0.000030	0.000000	-0.001008	0.000869	0.000000	0.000000
0.601250	11.984528	25.334192	-0.044076	-0.034007	2.598193	0.000000	0.000030	0.000000	-0.000746	0.000869	0.000000	0.000000
0.898573	12.018129	25.357908	-0.039325	-0.107913	2.597944	0.000000	-0.006370	0.000000	-0.000488	0.000870	0.000000	0.000000
1.339533	12.206738	25.171644	-0.389725	0.528713	2.610945	0.000000	0.067060	0.000000	-0.000106	0.000863	0.000000	0.000000
1.780493	12.711035	24.432427	-0.757937	1.141286	2.656462	0.000000	0.141245	0.000000	0.000275	0.000865	0.000000	0.000000
2.221453	13.554067	23.173882	-1.160785	1.701935	2.735012	0.000000	0.217030	0.000000	0.000658	0.000877	0.000000	0.000000
2.662413	14.774360	21.453265	-1.616674	2.185148	2.847484	0.000000	0.295278	0.000000	0.001049	0.000899	0.000000	0.000000
3.108373	16.448757	19.323646	-2.150811	2.570112	2.997001	0.000000	0.377369	0.000000	0.001457	0.000932	0.000000	0.000000
3.657433	18.595038	16.931352	-1.734506	1.812571	3.178683	0.000000	0.285163	0.000000	0.001954	0.000876	0.000000	0.000000
4.206493	20.213765	15.295583	-1.195658	1.184137	3.308310	0.000000	0.187912	0.000000	0.002417	0.000805	0.000000	0.000000
4.755553	21.190564	14.299836	-0.572329	0.640049	3.383590	0.000000	0.087341	0.000000	0.002836	0.000720	0.000000	0.000000
5.304613	21.456408	13.873191	0.091447	0.141551	3.403191	0.000000	-0.014768	0.000000	0.003205	0.000622	0.000000	0.000000
5.603185	21.438525	13.774310	0.022969	0.154500	3.401176	0.000000	-0.006117	0.000000	0.003394	0.000631	0.000000	0.000000
5.936519	21.428398	13.679569	0.007412	0.129722	3.398927	0.000000	-0.006117	0.000000	0.003604	0.000631	0.000000	0.000000
6.269852	21.428643	13.601347	-0.008144	0.104945	3.396678	0.000000	-0.006117	0.000000	0.003814	0.000631	0.000000	0.000000
6.604435	21.439317	13.539442	-0.023759	0.080075	3.394420	0.000000	-0.006117	0.000000	0.004025	0.000631	0.000000	0.000000
6.901758	21.457582	13.498390	-0.091697	0.092109	3.392415	0.000000	0.002430	0.000000	0.004213	0.000642	0.000000	0.000000
7.450818	21.192385	13.659094	0.572158	-0.386507	3.365504	0.000000	-0.099215	0.000000	0.004527	0.000500	0.000000	0.000000
7.999878	20.216072	14.357358	1.195602	-0.892659	3.283261	0.000000	-0.199092	0.000000	0.004760	0.000349	0.000000	0.000000
8.548938	18.597614	15.642929	1.734584	-1.462404	3.147147	0.000000	-0.295432	0.000000	0.004909	0.000193	0.000000	0.000000
9.097998	16.451356	17.607390	2.151022	-2.136327	2.959581	0.000000	-0.386528	0.000000	0.004971	0.000033	0.000000	0.000000
9.543958	14.776963	19.357571	1.616703	-1.771336	2.805319	0.000000	-0.305444	0.000000	0.005015	0.000162	0.000000	0.000000
9.984918	13.556815	20.729178	1.160714	-1.327103	2.687637	0.000000	-0.228341	0.000000	0.005115	0.000293	0.000000	0.000000
10.425878	12.714037	21.680749	0.757765	-0.822479	2.603295	0.000000	-0.153841	0.000000	0.005273	0.000427	0.000000	0.000000
10.866838	12.210117	22.168981	0.389439	-0.280425	2.551331	0.000000	-0.081099	0.000000	0.005492	0.000566	0.000000	0.000000
11.309048	12.021874	22.171073	0.066652	0.222752	2.531131	0.000000	-0.015149	0.000000	0.005774	0.000697	0.000000	0.000000
11.606371	11.989626	22.042800	0.041810	0.208676	2.526419	0.000000	-0.015149	0.000000	0.005981	0.000697	0.000000	0.000000
12.086371	11.968738	21.853378	0.001705	0.185952	2.518813	0.000000	-0.015149	0.000000	0.006316	0.000697	0.000000	0.000000
12.566371	11.986352	21.685772	-0.038399	0.163228	2.511207	0.000000	-0.015149	0.000000	0.006650	0.000697	0.000000	0.000000
13.046371	12.042465	21.539981	-0.078504	0.140504	2.503601	0.000000	-0.015149	0.000000	0.006985	0.000697	0.000000	0.000000
13.526371	12.137079	21.416005	-0.118609	0.117780	2.495994	0.000000	-0.015149	0.000000	0.007319	0.000697	0.000000	0.000000
14.007621	12.270591	21.313607	-0.158818	0.094996	2.488368	0.000000	-0.015149	0.000000	0.007655	0.000697	0.000000	0.000000
14.304943	12.372395	21.261341	-0.155622	0.032940	2.483655	0.000000	-0.020778	0.000000	0.007862	0.000678	0.000000	0.000000
14.745903	12.668349	20.999732	-0.517727	0.558006	2.489679	0.000000	0.049632	0.000000	0.008207	0.000886	0.000000	0.000000
15.186863	13.292922	20.284471	-0.903500	1.057680	2.526759	0.000000	0.120598	0.000000	0.008645	0.001103	0.000000	0.000000
15.627823	14.274673	19.148100	-1.330577	1.509221	2.595311	0.000000	0.192926	0.000000	0.009181	0.001333	0.000000	0.000000
16.068783	15.658496	17.642326	-1.818480	1.892080	2.696114	0.000000	0.267438	0.000000	0.009822	0.001578	0.000000	0.000000
16.514743	17.531305	15.814036	-2.394467	2.189776	2.832003	0.000000	0.345473	0.000000	0.010584	0.001842	0.000000	0.000000
17.063803	19.935970	13.773396	-1.957603	1.548181	2.997301	0.000000	0.258852	0.000000	0.011499	0.001484	0.000000	0.000000
17.612863	21.781481	12.373047	-1.382364	1.016889	3.113904	0.000000	0.167662	0.000000	0.012210	0.001100	0.000000	0.000000
18.161923	22.937357	11.513235	-0.709408	0.558049	3.179752	0.000000	0.073515	0.000000	0.012704	0.000697	0.000000	0.000000
18.710983	23.321867	11.132707	0.013701	0.138969	3.193681	0.000000	-0.021926	0.000000	0.012973	0.000281	0.000000	0.000000
19.009556	23.349696	11.042612	-0.053208	0.137193	3.189245	0.000000	-0.014519	0.000000	0.013066	0.000313	0.000000	0.000000
19.342889	23.389940	10.961402	-0.067524	0.106439	3.184301	0.000000	-0.014519	0.000000	0.013170	0.000313	0.000000	0.000000
19.676223	23.439728	10.900694	-0.081840	0.075685	3.179357	0.000000	-0.014519	0.000000	0.013274	0.000313	0.000000	0.000000
20.010806	23.499592	10.860242	-0.212640	0.098624	3.174414	0.000000	0.001209	0.000000	0.013379	0.000379	0.000000	0.000000
20.308129	23.630096	10.809757	-0.280372	0.095982	3.174669	0.000000	0.008532	0.000000	0.013492	0.000412	0.000000	0.000000
20.857189	23.530636	10.923974	0.460540	-0.305194	3.153218	0.000000	-0.086172	0.000000	0.013598	-0.000027	0.000000	0.000000
21.406249	22.630379	11.488102	1.168903	-0.728117	3.080332	0.000000	-0.179348	0.000000	0.013462	-0.000465	0.000000	0.000000
21.955309	20.992975	12.542334	1.794642	-1.202920	2.957305	0.000000	-0.269349	0.000000	0.013088	-0.000896	0.000000	0.000000
22.504369	18.734189	14.161776	2.293526	-1.763433	2.786315	0.000000	-0.354584	0.000000	0.012482	-0.001310	0.000000	0.000000
22.950329	16.956153	15.616702	1.706056	-1.484565	2.645847	0.000000	-0.277783	0.000000	0.011968	-0.000993	0.000000	0.000000
23.391289	15.678478	16.778294	1.201544	-1.139201	2.539925	0.000000	-0.204628	0.000000	0.011598	-0.000689	0.000000	0.000000
23.832249	14.820073	17.611129	0.751961	-0.741988	2.465597	0.000000	-0.133797	0.000000	0.011360	-0.000393	0.000000	0.000000
24.273209	14.341686	18.077307	0.336754	-0.311006	2.422019	0.000000	-0.064487	0.000000	0.011251	-0.000101	0.000000	0.000000
24.715418	14.221576	18.155309	-0.032097	0.094375	2.408698	0.000000	-0.001169	0.000000	0.011270	0.000163	0.000000	0.000000
25.012741	14.246885	18.104102	-0.053025	0.077853	2.408302	0.000000	-0.001169	0.000000	0.011319	0.000163	0.000000	0.000000
25.346075	14.290056	18.058374	-0.076488	0.059329	2.407858	0.000000	-0.001169	0.000000	0.011373	0.000163	0.000000	0.000000
25.679408	14.348869	18.024996	-0.099951	0.040805	2.407414	0.000000	-0.001169	0.000000	0.011427	0.000163	0.000000	0.000000
26.013991	14.423340	18.004277	-0.006490	-0.123847	2.406944	0.000000	-0.020695	0.000000	0.011482	0.000070	0.000000	0.000000
26.311314	14.433272	18.082977	0.004325	-0.179980	2.400766	0.000000	-0.025923	0.000000	0.011502	0.000043	0.000000	0.000000
26.752274	14.607927	18.045830	-0.401762	0.263888	2.404297	0.000000	0.042324	0.000000	0.011587	0.000341	0.000000	0.000000
27.193234	15.147551	17.620982	-0.826216	0.695746	2.437877	0.000000	0.111049	0.000000	0.011803	0.000642	0.000000	0.000000
27.634194	16.076821	16.827765	-1.288444	1.095940	2.501887	0.000000	0.181033	0.000000	0.012154	0.000951	0.000000	0.000000
28.075154	17.438235	15.702275	-1.809577	1.446254	2.597052	0.000000	0.253069	0.000000	0.012644	0.001271	0.000000	0.000000
28.521114	19.317988	14.278591	-2.418626	1.731906	2.726071	0.000000	0.328458	0.000000	0.013285	0.001607	0.000000	0.000000
29.070174	21.708483	12.693189	-1.907711	1.172059	2.883143	0.000000	0.245398	0.000000	0.014048	0.001164	0.000000	0.000000
29.619234	23.459872	11.673475	-1.261937	0.695724	2.993582	0.000000	0.158002	0.000000	0.014560	0.000701	0.000000	0.000000
30.168294	24.448316	11.146802	-0.526955	0.268963	3.055436	0.000000	0.067814	0.000000	0.014815	0.000225	0.000000	0.000000
30.717354	24.603922	11.075649	0.245277	-0.138634	3.067610	0.000000	-0.023574	0.000000	0.014807	-0.000255	0.000000	0.000000
31.015927	24.494487	11.151580	0.176714	-0.140689	3.062711	0.000000	-0.016593	0.000000	0.014741	-0.000219	0.000000	0.000000
31.349260	24.381355	11.255533	0.162681	-0.171172	3.057253	0.000000	-0.016593	0.000000	0.014668	-0.000219	0.000000	0.000000
31.682593	24.277579	11.379809	0.148647	-0.201654	3.051795	0.000000	-0.016593	0.000000	0.014595	-0.000219	0.000000	0.000000
32.017177	24.182822	11.524986	0.134561	-0.232252	3.046317	0.000000	-0.016593	0.000000	0.014522	-0.000219	0.000000	0.000000
32.314499	24.106676	11.671106	0.066978	-0.232814	3.041458	0.000000	-0.009645	0.000000	0.014457	-0.000184	0.000000	0.000000
32.863559	23.620363	12.165158	0.813030	-0.672128	3.011554	0.000000	-0.099897	0.000000	0.014228	-0.000648	0.000000	0.000000
33.412619	22.341344	13.165038	1.501603	-1.159334	2.932740	0.000000	-0.188387	0.000000	0.013747	-0.001102	0.000000	0.000000
33.961679	20.360061	14.741979	2.084023	-1.729145	2.806409	0.000000	-0.273551	0.000000	0.013022	-0.001535	0.000000	0.000000
34.510739	17.816608	17.008322	2.519123	-2.422157	2.634793	0.000000	-0.353887	0.000000	0.012065	-0.001942	0.000000	0.000000
34.956699	15.840616	19.035944	1.925832	-2.104626	2.494037	0.000000	-0.281028	0.000000	0.011267	-0.001639	0.000000	0.000000
35.397659	14.367769	20.716907	1.425757	-1.692318	2.386097	0.000000	-0.211817	0.000000	0.010607	-0.001357	0.000000	0.000000
35.838619	13.305794	21.998690	0.990864	-1.202990	2.308009	0.000000	-0.145004	0.000000	0.010068	-0.001091	0.000000	0.000000
36.279579	12.606125	22.822969	0.601269	-0.658915	2.258888	0.000000	-0.079832	0.000000	0.009643	-0.000837	0.000000	0.000000
36.721789	12.236133	23.152521	0.266349	-0.136364	2.238155	0.000000	-0.020553	0.000000	0.009328	-0.000614	0.000000	0.000000
37.019112	12.085487	23.237499	0.240326	-0.149445	2.232227	0.000000	-0.020553	0.000000	0.009145	-0.000614	0.000000	0.000000
37.352445	11.934995	23.342017	0.211152	-0.164110	2.225580	0.000000	-0.020553	0.000000	0.008941	-0.000614	0.000000	0.000000
37.685779	11.803951	23.456312	0.181977	-0.178775	2.218934	0.000000	-0.020553	0.000000	0.008736	-0.000614	0.000000	0.000000
38.020362	11.691976	23.580868	0.152694	-0.193495	2.212263	0.000000	-0.020553	0.000000	0.008531	-0.000614	0.000000	0.000000
38.317684	11.608891	23.699866	0.152845	-0.260218	2.206332	0.000000	-0.025527	0.000000	0.008348	-0.000634	0.000000	0.000000
38.758644	11.622827	23.666724	-0.184740	0.335081	2.209237	0.000000	0.037692	0.000000	0.008116	-0.000421	0.000000	0.000000
39.199604	11.937133	23.113262	-0.530766	0.915129	2.240001	0.000000	0.101345	0.000000	0.007976	-0.000214	0.000000	0.000000
39.640564	12.566173	22.064668	-0.901048	1.453529	2.298978	0.000000	0.166155	0.000000	0.007927	-0.000009	0.000000	0.000000
40.081524	13.538699	20.568665	-1.312510	1.925780	2.386838	0.000000	0.232857	0.000000	0.007968	0.000196	0.000000	0.000000
40.527484	14.916733	18.670587	-1.787912	2.311894	2.506070	0.000000	0.302642	0.000000	0.008102	0.000405	0.000000	0.000000
41.076544	16.678004	16.537119	-1.400390	1.596264	2.651537	0.000000	0.226916	0.000000	0.008252	0.000140	0.000000	0.000000
41.625604	17.956417	15.122893	-0.913914	0.994359	2.754394	0.000000	0.147167	0.000000	0.008255	-0.000128	0.000000	0.000000
42.174664	18.661628	14.327156	-0.362864	0.463298	2.812817	0.000000	0.064805	0.000000	0.008112	-0.000393	0.000000	0.000000
42.723724	18.743806	14.093215	0.213818	-0.034755	2.825767	0.000000	-0.018713	0.000000	0.007825	-0.000651	0.000000	0.000000
43.022297	18.648268	14.099723	0.151745	-0.021449	2.822422	0.000000	-0.011825	0.000000	0.007636	-0.000631	0.000000	0.000000
43.502297	18.515232	14.136662	0.125413	-0.055508	2.817049	0.000000	-0.011825	0.000000	0.007333	-0.000631	0.000000	0.000000
43.982297	18.407475	14.206298	0.099080	-0.089567	2.811677	0.000000	-0.011825	0.000000	0.007030	-0.000631	0.000000	0.000000
44.462297	18.324997	14.308631	0.072748	-0.123626	2.806304	0.000000	-0.011825	0.000000	0.006727	-0.000631	0.000000	0.000000
44.942297	18.267799	14.443659	0.046416	-0.157685	2.800931	0.000000	-0.011825	0.000000	0.006424	-0.000631	0.000000	0.000000
45.423547	18.236055	14.611683	-0.070337	-0.119437	2.795561	0.000000	0.002026	0.000000	0.006120	-0.000601	0.000000	0.000000
45.720870	18.282771	14.688827	-0.132077	-0.103761	2.796344	0.000000	0.008963	0.000000	0.005941	-0.000586	0.000000	0.000000
46.269930	18.119663	15.086604	0.427008	-0.624925	2.778951	0.000000	-0.073524	0.000000	0.005568	-0.000772	0.000000	0.000000
46.818990	17.355535	16.077665	0.955911	-1.190605	2.716649	0.000000	-0.154720	0.000000	0.005095	-0.000945	0.000000	0.000000
47.368050	16.044398	17.732597	1.417261	-1.841097	2.610534	0.000000	-0.233186	0.000000	0.004533	-0.001101	0.000000	0.000000
47.917110	14.278912	20.169274	1.778465	-2.622737	2.462483	0.000000	-0.307534	0.000000	0.003890	-0.001238	0.000000	0.000000
48.363070	12.903910	22.335152	1.315078	-2.213293	2.341201	0.000000	-0.238931	0.000000	0.003359	-0.001144	0.000000	0.000000
48.804030	11.923770	24.069435	0.915603	-1.704533	2.250832	0.000000	-0.173447	0.000000	0.002873	-0.001063	0.000000	0.000000
49.244990	11.276263	25.318957	0.557973	-1.118216	2.188850	0.000000	-0.109927	0.000000	0.002419	-0.000995	0.000000	0.000000
49.685950	10.931792	26.026873	0.225845	-0.481021	2.154552	0.000000	-0.047648	0.000000	0.001993	-0.000938	0.000000	0.000000
50.128160	10.874782	26.160693	-0.069809	0.115155	2.147564	0.000000	0.008911	0.000000	0.001589	-0.000896	0.000000	0.000000
50.425482	10.924462	26.095640	-0.097283	0.103639	2.150480	0.000000	0.008911	0.000000	0.001323	-0.000896	0.000000	0.000000
50.758816	10.999585	26.030851	-0.128084	0.090728	2.153749	0.000000	0.008911	0.000000	0.001024	-0.000896	0.000000	0.000000
51.092149	11.095241	25.974670	-0.158885	0.077817	2.157017	0.000000	0.008911	0.000000	0.000725	-0.000896	0.000000	0.000000
51.426732	11.211679	25.927459	-0.098846	-0.145478	2.160277	0.000000	-0.008615	0.000000	0.000426	-0.000899	0.000000	0.000000
51.724055	11.278419	26.017448	-0.098007	-0.221229	2.157983	0.000000	-0.013899	0.000000	0.000158	-0.000900	0.000000	0.000000
52.165015	11.511673	25.922939	-0.433260	0.434741	2.165906	0.000000	0.048125	0.000000	-0.000238	-0.000901	0.000000	0.000000
52.605975	12.048161	25.256467	-0.788301	1.070927	2.201278	0.000000	0.110706	0.000000	-0.000638	-0.000912	0.000000	0.000000
53.046935	12.912383	24.048368	-1.179350	1.658384	2.264506	0.000000	0.174559	0.000000	-0.001044	-0.000934	0.000000	0.000000
53.487895	14.143814	22.353614	-1.624269	2.170385	2.356314	0.000000	0.240409	0.000000	-0.001463	-0.000966	0.000000	0.000000
53.933855	15.819749	20.223995	-2.147655	2.584943	2.479270	0.000000	0.309403	0.000000	-0.001903	-0.001010	0.000000	0.000000
54.482915	17.976938	17.827198	-1.758555	1.806230	2.629320	0.000000	0.234498	0.000000	-0.002439	-0.000939	0.000000	0.000000
55.031975	19.635710	16.210269	-1.245269	1.156168	2.736992	0.000000	0.155419	0.000000	-0.002931	-0.000852	0.000000	0.000000
55.581035	20.678936	15.258030	-0.644052	0.588454	2.800370	0.000000	0.073570	0.000000	-0.003372	-0.000750	0.000000	0.000000
56.130095	21.032963	14.902648	0.002635	0.062654	2.818324	0.000000	-0.009597	0.000000	-0.003753	-0.000635	0.000000	0.000000
56.428668	21.069470	14.847231	-0.068269	0.082691	2.817918	0.000000	-0.002004	0.000000	-0.003945	-0.000645	0.000000	0.000000
56.762001	21.120281	14.799638	-0.084164	0.060086	2.817465	0.000000	-0.002004	0.000000	-0.004160	-0.000645	0.000000	0.000000
57.095334	21.181688	14.767116	-0.100058	0.037482	2.817012	0.000000	-0.002004	0.000000	-0.004375	-0.000645	0.000000	0.000000
57.429918	21.253982	14.749625	-0.116012	0.014793	2.816557	0.000000	-0.002004	0.000000	-0.004591	-0.000645	0.000000	0.000000
57.727240	21.327198	14.746814	-0.188116	0.034549	2.816154	0.000000	0.005645	0.000000	-0.004783	-0.000658	0.000000	0.000000
58.276300	21.169141	14.991572	0.473949	-0.482989	2.796726	0.000000	-0.077424	0.000000	-0.005100	-0.000497	0.000000	0.000000
58.825360	20.298332	15.820045	1.102535	-1.034921	2.731913	0.000000	-0.159128	0.000000	-0.005327	-0.000329	0.000000	0.000000
59.374420	18.776274	17.291227	1.653253	-1.660556	2.622861	0.000000	-0.238015	0.000000	-0.005460	-0.000154	0.000000	0.000000
59.923480	16.710447	19.509890	2.087218	-2.404450	2.471501	0.000000	-0.312684	0.000000	-0.005496	0.000024	0.000000	0.000000
60.369440	15.092114	21.481621	1.554627	-1.998382	2.347479	0.000000	-0.243925	0.000000	-0.005517	-0.000119	0.000000	0.000000
60.810400	13.927236	23.031216	1.097211	-1.502665	2.254558	0.000000	-0.178326	0.000000	-0.005601	-0.000262	0.000000	0.000000
61.251360	13.142170	24.111737	0.689913	-0.938590	2.190150	0.000000	-0.114755	0.000000	-0.005749	-0.000409	0.000000	0.000000
61.692320	12.701059	24.674029	0.314131	-0.331819	2.153521	0.000000	-0.052486	0.000000	-0.005962	-0.000560	0.000000	0.000000
62.134530	12.583801	24.691924	-0.014745	0.226179	2.144264	0.000000	0.003628	0.000000	-0.006244	-0.000701	0.000000	0.000000
62.431853	12.599596	24.561191	-0.038378	0.213522	2.145551	0.000000	0.003628	0.000000	-0.006453	-0.000701	0.000000	0.000000
62.765186	12.634013	24.423574	-0.064873	0.199331	2.146994	0.000000	0.003628	0.000000	-0.006686	-0.000701	0.000000	0.000000
63.098520	12.686093	24.295416	-0.091368	0.185141	2.148437	0.000000	0.003628	0.000000	-0.006920	-0.000701	0.000000	0.000000
63.433103	12.756131	24.176291	-0.117962	0.170898	2.149886	0.000000	0.003628	0.000000	-0.007155	-0.000701	0.000000	0.000000
63.730426	12.833282	24.078470	-0.107976	0.094923	2.151171	0.000000	-0.002008	0.000000	-0.007363	-0.000683	0.000000	0.000000
64.171386	13.091010	23.729686	-0.479060	0.693116	2.164253	0.000000	0.059895	0.000000	-0.007707	-0.000877	0.000000	0.000000
64.612346	13.684298	22.865347	-0.872015	1.259777	2.204840	0.000000	0.122489	0.000000	-0.008138	-0.001081	0.000000	0.000000
65.053306	14.640231	21.524780	-1.304787	1.769128	2.273398	0.000000	0.186490	0.000000	-0.008662	-0.001298	0.000000	0.000000
65.494266	16.002447	19.768977	-1.797137	2.198002	2.370711	0.000000	0.252627	0.000000	-0.009284	-0.001529	0.000000	0.000000
65.940226	17.856482	17.652923	-2.376027	2.527433	2.499486	0.000000	0.322029	0.000000	-0.010021	-0.001779	0.000000	0.000000
66.489286	20.230307	15.286202	-1.923328	1.809142	2.656591	0.000000	0.246376	0.000000	-0.010906	-0.001440	0.000000	0.000000
67.038346	22.029194	13.633218	-1.334866	1.219679	2.770705	0.000000	0.166330	0.000000	-0.011598	-0.001076	0.000000	0.000000
67.587406	23.126199	12.576245	-0.652187	0.717067	2.839798	0.000000	0.083318	0.000000	-0.012084	-0.000692	0.000000	0.000000
68.136466	23.443919	12.040007	0.076520	0.265515	2.862637	0.000000	-0.001182	0.000000	-0.012355	-0.000296	0.000000	0.000000
68.435038	23.442165	11.868886	-0.003608	0.273140	2.864833	0.000000	0.007047	0.000000	-0.012454	-0.000330	0.000000	0.000000
68.768372	23.449310	11.696852	-0.017827	0.242961	2.867292	0.000000	0.007047	0.000000	-0.012564	-0.000330	0.000000	0.000000
69.101705	23.465935	11.544938	-0.032047	0.212781	2.869751	0.000000	0.007047	0.000000	-0.012674	-0.000330	0.000000	0.000000
69.436288	23.492155	11.412688	-0.046320	0.182488	2.872219	0.000000	0.007047	0.000000	-0.012784	-0.000330	0.000000	0.000000
69.733611	23.523585	11.312121	-0.126871	0.188149	2.874420	0.000000	0.015340	0.000000	-0.012883	-0.000366	0.000000	0.000000
70.282671	23.258948	11.332211	0.605984	-0.224961	2.859568	0.000000	-0.069670	0.000000	-0.012968	0.000053	0.000000	0.000000
