#ParticleID	Turn	x[m]	xp	y[m]	yp	z[m]	dE[GeV]# s	beta_x	beta_y	alpha_x	alpha_y	D_x	D_y	D_px	D_py	orbit_x	orbit_px	orbit_y	orbit_py
0.300000	11.855906	25.009173	-0.015275	-0.026590	2.615214	0.000000	0.000113	0.000000	-0.000120	0.000106	0.000000	0.000000
0.601250	11.872765	25.028825	-0.040690	-0.038644	2.615216	0.000000	0.000113	0.000000	-0.000089	0.000106	0.000000	0.000000
0.898573	11.904420	25.055342	-0.036565	-0.111980	2.615218	0.000000	-0.006304	0.000000	-0.000057	0.000106	0.000000	0.000000
1.339533	12.089316	24.876178	-0.384293	0.516740	2.628670	0.000000	0.067579	0.000000	-0.000011	0.000105	0.000000	0.000000
1.780493	12.587434	24.150822	-0.749578	1.121948	2.674840	0.000000	0.142230	0.000000	0.000036	0.000105	0.000000	0.000000
2.221453	13.421534	22.912276	-1.149111	1.676109	2.754253	0.000000	0.218499	0.000000	0.000083	0.000107	0.000000	0.000000
2.662413	14.629724	21.216894	-1.601144	2.154008	2.867813	0.000000	0.297256	0.000000	0.000130	0.000110	0.000000	0.000000
3.108373	16.288077	19.116951	-2.130645	2.535037	3.018673	0.000000	0.379888	0.000000	0.000180	0.000114	0.000000	0.000000
3.657433	18.414482	16.758442	-1.719172	1.785844	3.201955	0.000000	0.286959	0.000000	0.000241	0.000107	0.000000	0.000000
4.206493	20.019277	15.148379	-1.186262	1.163853	3.332744	0.000000	0.188943	0.000000	0.000297	0.000098	0.000000	0.000000
4.755553	20.989103	14.172082	-0.569558	0.624760	3.408720	0.000000	0.087576	0.000000	0.000348	0.000088	0.000000	0.000000
5.304613	21.255452	13.760011	0.087380	0.130168	3.428537	0.000000	-0.015342	0.000000	0.000393	0.000076	0.000000	0.000000
5.603185	21.240526	13.667550	0.017965	0.143691	3.426599	0.000000	-0.006413	0.000000	0.000416	0.000077	0.000000	0.000000
5.936519	21.233782	13.580053	0.002267	0.118799	3.424436	0.000000	-0.006413	0.000000	0.000442	0.000077	0.000000	0.000000
6.269852	21.237503	13.509152	-0.013431	0.093906	3.422272	0.000000	-0.006413	0.000000	0.000467	0.000077	0.000000	0.000000
6.604435	21.251763	13.454672	-0.029188	0.068921	3.420101	0.000000	-0.006413	0.000000	0.000493	0.000077	0.000000	0.000000
6.901758	21.273283	13.420290	-0.098534	0.081646	3.418171	0.000000	0.002479	0.000000	0.000516	0.000078	0.000000	0.000000
7.450818	21.018787	13.591297	0.559341	-0.394935	3.391325	0.000000	-0.099990	0.000000	0.000554	0.000061	0.000000	0.000000
7.999878	20.059373	14.297934	1.177706	-0.899647	3.308632	0.000000	-0.200685	0.000000	0.000582	0.000042	0.000000	0.000000
8.548938	18.462811	15.590536	1.712884	-1.468439	3.171558	0.000000	-0.297819	0.000000	0.000600	0.000023	0.000000	0.000000
9.097998	16.341877	17.561174	2.127069	-2.141828	2.982534	0.000000	-0.389670	0.000000	0.000608	0.000004	0.000000	0.000000
9.543958	14.686974	19.317141	1.596985	-1.779001	2.827042	0.000000	-0.308033	0.000000	0.000613	0.000019	0.000000	0.000000
9.984918	13.482790	20.696201	1.144186	-1.336475	2.708430	0.000000	-0.230391	0.000000	0.000625	0.000035	0.000000	0.000000
10.425878	12.653469	21.656578	0.743664	-0.833140	2.623439	0.000000	-0.155373	0.000000	0.000644	0.000052	0.000000	0.000000
10.866838	12.161122	22.154573	0.377118	-0.291896	2.571098	0.000000	-0.082126	0.000000	0.000671	0.000069	0.000000	0.000000
11.309048	11.983112	22.167007	0.056887	0.208544	2.550794	0.000000	-0.016028	0.000000	0.000705	0.000085	0.000000	0.000000
11.606371	11.956685	22.047158	0.031994	0.194548	2.546003	0.000000	-0.016028	0.000000	0.000730	0.000085	0.000000	0.000000
12.086371	11.945260	21.871238	-0.008192	0.171952	2.538269	0.000000	-0.016028	0.000000	0.000771	0.000085	0.000000	0.000000
12.566371	11.972413	21.717010	-0.048378	0.149357	2.530535	0.000000	-0.016028	0.000000	0.000811	0.000085	0.000000	0.000000
13.046371	12.038145	21.584473	-0.088564	0.126761	2.522801	0.000000	-0.016028	0.000000	0.000852	0.000085	0.000000	0.000000
13.526371	12.142455	21.473628	-0.128750	0.104166	2.515067	0.000000	-0.016028	0.000000	0.000893	0.000085	0.000000	0.000000
14.007621	12.285767	21.384271	-0.169040	0.081511	2.507313	0.000000	-0.016028	0.000000	0.000934	0.000085	0.000000	0.000000
14.304943	12.393686	21.339962	-0.163816	0.015684	2.502522	0.000000	-0.022109	0.000000	0.000959	0.000082	0.000000	0.000000
14.745903	12.697009	21.092570	-0.526620	0.543204	2.508355	0.000000	0.048772	0.000000	0.001001	0.000108	0.000000	0.000000
15.186863	13.329667	20.389104	-0.913486	1.046008	2.545525	0.000000	0.120207	0.000000	0.001054	0.000134	0.000000	0.000000
15.627823	14.320567	19.261570	-1.342089	1.501219	2.614455	0.000000	0.193010	0.000000	0.001119	0.000162	0.000000	0.000000
16.068783	15.714986	17.761272	-1.832013	1.888124	2.715931	0.000000	0.268009	0.000000	0.001197	0.000192	0.000000	0.000000
16.514743	17.600279	15.934974	-2.410427	2.189888	2.852801	0.000000	0.346526	0.000000	0.001290	0.000224	0.000000	0.000000
17.063803	20.021212	13.895768	-1.972510	1.545960	3.019244	0.000000	0.259241	0.000000	0.001401	0.000181	0.000000	0.000000
17.612863	21.881417	12.499425	-1.395252	1.012151	3.136452	0.000000	0.167362	0.000000	0.001488	0.000134	0.000000	0.000000
18.161923	23.049484	11.646486	-0.719431	0.550438	3.202346	0.000000	0.072515	0.000000	0.001548	0.000085	0.000000	0.000000
18.710983	23.442894	11.276198	0.007212	0.127932	3.215760	0.000000	-0.023616	0.000000	0.001580	0.000034	0.000000	0.000000
19.009556	23.478489	11.190549	-0.065998	0.129867	3.211172	0.000000	-0.015326	0.000000	0.001592	0.000038	0.000000	0.000000
19.342889	23.527241	11.114068	-0.080257	0.099577	3.206051	0.000000	-0.015326	0.000000	0.001604	0.000038	0.000000	0.000000
19.676223	23.585498	11.057779	-0.094516	0.069288	3.200930	0.000000	-0.015326	0.000000	0.001617	0.000038	0.000000	0.000000
20.010806	23.653827	11.021450	-0.226023	0.093492	3.195809	0.000000	0.000508	0.000000	0.001630	0.000046	0.000000	0.000000
20.308129	23.792161	10.973945	-0.300540	0.094564	3.195947	0.000000	0.008743	0.000000	0.001644	0.000050	0.000000	0.000000
20.857189	23.711873	11.092175	0.445914	-0.311161	3.174524	0.000000	-0.086617	0.000000	0.001657	-0.000003	0.000000	0.000000
21.406249	22.824367	11.665432	1.160869	-0.739049	3.101114	0.000000	-0.180440	0.000000	0.001640	-0.000056	0.000000	0.000000
21.955309	21.192340	12.734551	1.793818	-1.219581	2.977021	0.000000	-0.271064	0.000000	0.001595	-0.000109	0.000000	0.000000
22.504369	18.931082	14.375685	2.300050	-1.786984	2.804444	0.000000	-0.356881	0.000000	0.001521	-0.000159	0.000000	0.000000
22.950329	17.149522	15.849124	1.708804	-1.502993	2.662638	0.000000	-0.279681	0.000000	0.001459	-0.000121	0.000000	0.000000
23.391289	15.871494	17.024143	1.200368	-1.151496	2.555670	0.000000	-0.206126	0.000000	0.001414	-0.000084	0.000000	0.000000
23.832249	15.016096	17.864786	0.746777	-0.747604	2.480575	0.000000	-0.134918	0.000000	0.001385	-0.000048	0.000000	0.000000
24.273209	14.544244	18.332803	0.327307	-0.309696	2.436497	0.000000	-0.065245	0.000000	0.001372	-0.000012	0.000000	0.000000
24.715418	14.434483	18.406654	-0.042360	0.097679	2.422931	0.000000	-0.002180	0.000000	0.001374	0.000020	0.000000	0.000000
25.012741	14.465807	18.353418	-0.062995	0.081372	2.422277	0.000000	-0.002180	0.000000	0.001380	0.000020	0.000000	0.000000
25.346075	14.515515	18.305265	-0.086129	0.063089	2.421544	0.000000	-0.002180	0.000000	0.001387	0.000020	0.000000	0.000000
25.679408	14.580646	18.269299	-0.109263	0.044807	2.420810	0.000000	-0.002180	0.000000	0.001393	0.000020	0.000000	0.000000
26.013991	14.661233	18.245826	-0.013543	-0.121563	2.420050	0.000000	-0.021813	0.000000	0.001400	0.000009	0.000000	0.000000
26.311314	14.675317	18.323030	0.001683	-0.182433	2.413562	0.000000	-0.027653	0.000000	0.001403	0.000005	0.000000	0.000000
26.752274	14.854754	18.285196	-0.410134	0.267902	2.416469	0.000000	0.040897	0.000000	0.001413	0.000041	0.000000	0.000000
27.193234	15.404256	17.854074	-0.840691	0.706048	2.449663	0.000000	0.109913	0.000000	0.001439	0.000078	0.000000	0.000000
27.634194	16.348931	17.049278	-1.309660	1.112068	2.513522	0.000000	0.180180	0.000000	0.001482	0.000116	0.000000	0.000000
28.075154	17.731941	15.907427	-1.838469	1.467488	2.608773	0.000000	0.252498	0.000000	0.001542	0.000155	0.000000	0.000000
28.521114	19.640533	14.463269	-2.456258	1.757078	2.738104	0.000000	0.328139	0.000000	0.001620	0.000196	0.000000	0.000000
29.070174	22.066531	12.854166	-1.935836	1.190804	2.895517	0.000000	0.244717	0.000000	0.001713	0.000142	0.000000	0.000000
29.619234	23.842080	11.816963	-1.278663	0.709352	3.005893	0.000000	0.156956	0.000000	0.001775	0.000085	0.000000	0.000000
30.168294	24.841748	11.277782	-0.531163	0.278428	3.067277	0.000000	0.066412	0.000000	0.001806	0.000027	0.000000	0.000000
30.717354	24.994915	11.198216	0.253859	-0.132663	3.078579	0.000000	-0.025309	0.000000	0.001805	-0.000031	0.000000	0.000000
31.015927	24.885422	11.268274	0.177170	-0.130794	3.073395	0.000000	-0.017388	0.000000	0.001797	-0.000026	0.000000	0.000000
31.349260	24.771913	11.365499	0.163355	-0.160882	3.067608	0.000000	-0.017388	0.000000	0.001789	-0.000026	0.000000	0.000000
31.682593	24.667615	11.482783	0.149540	-0.190970	3.061821	0.000000	-0.017388	0.000000	0.001780	-0.000026	0.000000	0.000000
32.017177	24.572188	11.620678	0.135673	-0.221170	3.056012	0.000000	-0.017388	0.000000	0.001771	-0.000026	0.000000	0.000000
32.314499	24.495177	11.760174	0.060299	-0.217740	3.050850	0.000000	-0.009535	0.000000	0.001763	-0.000022	0.000000	0.000000
32.863559	24.009416	12.238547	0.819120	-0.658640	3.020747	0.000000	-0.100052	0.000000	0.001735	-0.000079	0.000000	0.000000
33.412619	22.717336	13.223861	1.520078	-1.146456	2.941386	0.000000	-0.188797	0.000000	0.001677	-0.000134	0.000000	0.000000
33.961679	20.710217	14.786298	2.113653	-1.715934	2.814175	0.000000	-0.274195	0.000000	0.001589	-0.000187	0.000000	0.000000
34.510739	18.129848	17.037150	2.557917	-2.407639	2.641370	0.000000	-0.354732	0.000000	0.001473	-0.000236	0.000000	0.000000
34.956699	16.123935	19.050429	1.955983	-2.087922	2.499615	0.000000	-0.281763	0.000000	0.001375	-0.000199	0.000000	0.000000
35.397659	14.628332	20.715646	1.448439	-1.673979	2.390834	0.000000	-0.212434	0.000000	0.001295	-0.000165	0.000000	0.000000
35.838619	13.549594	21.980679	1.007076	-1.183869	2.312048	0.000000	-0.145523	0.000000	0.001230	-0.000132	0.000000	0.000000
36.279579	12.838434	22.787972	0.611726	-0.639893	2.262362	0.000000	-0.080268	0.000000	0.001178	-0.000101	0.000000	0.000000
36.721789	12.461670	23.101097	0.274449	-0.122871	2.241184	0.000000	-0.021363	0.000000	0.001140	-0.000074	0.000000	0.000000
37.019112	12.306099	23.178046	0.248793	-0.135935	2.234854	0.000000	-0.021363	0.000000	0.001118	-0.000074	0.000000	0.000000
37.352445	12.149824	23.273552	0.220030	-0.150583	2.227758	0.000000	-0.021363	0.000000	0.001093	-0.000074	0.000000	0.000000
37.685779	12.012725	23.378823	0.191266	-0.165230	2.220662	0.000000	-0.021363	0.000000	0.001068	-0.000074	0.000000	0.000000
38.020362	11.894396	23.494308	0.162395	-0.179932	2.213539	0.000000	-0.021363	0.000000	0.001043	-0.000074	0.000000	0.000000
38.317684	11.805457	23.605189	0.165409	-0.250349	2.207210	0.000000	-0.026723	0.000000	0.001021	-0.000077	0.000000	0.000000
38.758644	11.810290	23.564511	-0.176433	0.342246	2.209390	0.000000	0.036497	0.000000	0.000993	-0.000051	0.000000	0.000000
39.199604	12.119011	23.006101	-0.526337	0.919268	2.239502	0.000000	0.100134	0.000000	0.000976	-0.000025	0.000000	0.000000
39.640564	12.745725	21.955367	-0.900288	1.454463	2.297890	0.000000	0.164912	0.000000	0.000971	-0.000000	0.000000	0.000000
40.081524	13.719065	20.460118	-1.315372	1.923480	2.385219	0.000000	0.231567	0.000000	0.000976	0.000025	0.000000	0.000000
40.527484	15.101051	18.565798	-1.794392	2.306283	2.503956	0.000000	0.301269	0.000000	0.000993	0.000050	0.000000	0.000000
41.076544	16.865343	16.437037	-1.399820	1.593649	2.648806	0.000000	0.225639	0.000000	0.001012	0.000018	0.000000	0.000000
41.625604	18.139137	15.024290	-0.906367	0.994530	2.750985	0.000000	0.146007	0.000000	0.001012	-0.000015	0.000000	0.000000
42.174664	18.832454	14.226929	-0.348891	0.466251	2.808682	0.000000	0.063785	0.000000	0.000995	-0.000048	0.000000	0.000000
42.723724	18.896320	13.988157	0.233229	-0.028816	2.820872	0.000000	-0.019569	0.000000	0.000960	-0.000079	0.000000	0.000000
43.022297	18.791170	13.990080	0.167918	-0.013893	2.817235	0.000000	-0.012258	0.000000	0.000937	-0.000077	0.000000	0.000000
43.502297	18.642575	14.019889	0.141654	-0.048209	2.811388	0.000000	-0.012258	0.000000	0.000901	-0.000077	0.000000	0.000000
43.982297	18.519194	14.082642	0.115390	-0.082526	2.805541	0.000000	-0.012258	0.000000	0.000864	-0.000077	0.000000	0.000000
44.462297	18.421027	14.178339	0.089126	-0.116843	2.799694	0.000000	-0.012258	0.000000	0.000827	-0.000077	0.000000	0.000000
44.942297	18.348073	14.306980	0.062862	-0.151159	2.793847	0.000000	-0.012258	0.000000	0.000790	-0.000077	0.000000	0.000000
45.423547	18.300468	14.468850	-0.054142	-0.113878	2.788002	0.000000	0.001555	0.000000	0.000753	-0.000073	0.000000	0.000000
45.720870	18.337508	14.542755	-0.118054	-0.096944	2.788486	0.000000	0.008796	0.000000	0.000732	-0.000071	0.000000	0.000000
46.269930	18.158336	14.930488	0.442401	-0.613393	2.770762	0.000000	-0.073418	0.000000	0.000686	-0.000094	0.000000	0.000000
46.818990	17.377301	15.905869	0.971605	-1.173533	2.708201	0.000000	-0.154332	0.000000	0.000629	-0.000115	0.000000	0.000000
47.368050	16.049578	17.538372	1.432176	-1.817262	2.601910	0.000000	-0.232510	0.000000	0.000560	-0.000135	0.000000	0.000000
47.917110	14.268954	19.944277	1.791580	-2.590432	2.453774	0.000000	-0.306566	0.000000	0.000481	-0.000151	0.000000	0.000000
48.363070	12.882946	22.083327	1.327277	-2.185889	2.332426	0.000000	-0.238203	0.000000	0.000416	-0.000140	0.000000	0.000000
48.804030	11.892460	23.795956	0.927387	-1.683175	2.241918	0.000000	-0.172951	0.000000	0.000357	-0.000130	0.000000	0.000000
49.244990	11.234705	25.029635	0.569868	-1.103877	2.179719	0.000000	-0.109666	0.000000	0.000302	-0.000121	0.000000	0.000000
49.685950	10.879626	25.728233	0.238386	-0.474354	2.145121	0.000000	-0.047630	0.000000	0.000250	-0.000114	0.000000	0.000000
50.128160	10.811140	25.859681	-0.055858	0.113447	2.137742	0.000000	0.008633	0.000000	0.000201	-0.000109	0.000000	0.000000
50.425482	10.852559	25.795683	-0.083446	0.101802	2.140341	0.000000	0.008633	0.000000	0.000168	-0.000109	0.000000	0.000000
50.758816	10.918499	25.732167	-0.114374	0.088746	2.143255	0.000000	0.008633	0.000000	0.000132	-0.000109	0.000000	0.000000
51.092149	11.005058	25.677356	-0.145303	0.075690	2.146169	0.000000	0.008633	0.000000	0.000096	-0.000109	0.000000	0.000000
51.426732	11.112451	25.631611	-0.086196	-0.145351	2.149072	0.000000	-0.008802	0.000000	0.000059	-0.000109	0.000000	0.000000
51.724055	11.171722	25.721566	-0.085761	-0.220298	2.146488	0.000000	-0.014064	0.000000	0.000027	-0.000109	0.000000	0.000000
52.165015	11.393116	25.629693	-0.418252	0.427852	2.153934	0.000000	0.047657	0.000000	-0.000021	-0.000109	0.000000	0.000000
52.605975	11.915026	24.972638	-0.769852	1.056534	2.188691	0.000000	0.109922	0.000000	-0.000070	-0.000111	0.000000	0.000000
53.046935	12.761295	23.780297	-1.156622	1.637145	2.251155	0.000000	0.173441	0.000000	-0.000119	-0.000113	0.000000	0.000000
53.487895	13.970585	22.106923	-1.596235	2.143267	2.342038	0.000000	0.238936	0.000000	-0.000170	-0.000117	0.000000	0.000000
53.933855	15.618857	20.003634	-2.113021	2.553202	2.463882	0.000000	0.307552	0.000000	-0.000223	-0.000122	0.000000	0.000000
54.482915	17.740816	17.636924	-1.728883	1.782733	2.612604	0.000000	0.233161	0.000000	-0.000288	-0.000114	0.000000	0.000000
55.031975	19.370984	16.042004	-1.222629	1.139244	2.719279	0.000000	0.154632	0.000000	-0.000347	-0.000103	0.000000	0.000000
55.581035	20.394220	15.105272	-0.630018	0.576901	2.782013	0.000000	0.073360	0.000000	-0.000401	-0.000091	0.000000	0.000000
56.130095	20.738252	14.760004	0.007091	0.055649	2.799693	0.000000	-0.009216	0.000000	-0.000447	-0.000077	0.000000	0.000000
56.428668	20.770803	14.709742	-0.061726	0.073966	2.799157	0.000000	-0.001873	0.000000	-0.000471	-0.000079	0.000000	0.000000
56.762001	20.817324	14.668026	-0.077836	0.051181	2.798559	0.000000	-0.001873	0.000000	-0.000497	-0.000079	0.000000	0.000000
57.095334	20.874584	14.641500	-0.093945	0.028397	2.797961	0.000000	-0.001873	0.000000	-0.000523	-0.000079	0.000000	0.000000
57.429918	20.942859	14.630150	-0.110115	0.005526	2.797360	0.000000	-0.001873	0.000000	-0.000549	-0.000079	0.000000	0.000000
57.727240	21.012610	14.632906	-0.179649	0.023603	2.796826	0.000000	0.005469	0.000000	-0.000573	-0.000080	0.000000	0.000000
58.276300	20.851207	14.887979	0.471832	-0.490911	2.777203	0.000000	-0.076981	0.000000	-0.000611	-0.000061	0.000000	0.000000
58.825360	19.988560	15.723814	1.089985	-1.040390	2.712607	0.000000	-0.158068	0.000000	-0.000639	-0.000041	0.000000	0.000000
59.374420	18.485603	17.199944	1.631148	-1.663972	2.604185	0.000000	-0.236351	0.000000	-0.000656	-0.000020	0.000000	0.000000
59.923480	16.448493	19.421510	2.057097	-2.406074	2.453858	0.000000	-0.310442	0.000000	-0.000661	0.000002	0.000000	0.000000
60.369440	14.853725	21.396088	1.531621	-2.002970	2.330720	0.000000	-0.242106	0.000000	-0.000664	-0.000016	0.000000	0.000000
60.810400	13.706318	22.951110	1.080331	-1.510091	2.238431	0.000000	-0.176922	0.000000	-0.000675	-0.000033	0.000000	0.000000
61.251360	12.933720	24.039384	0.678397	-0.948507	2.174423	0.000000	-0.113752	0.000000	-0.000693	-0.000050	0.000000	0.000000
61.692320	12.500636	24.611396	0.307457	-0.343767	2.137965	0.000000	-0.051878	0.000000	-0.000719	-0.000069	0.000000	0.000000
62.134530	12.387325	24.640580	-0.018944	0.215735	2.128649	0.000000	0.004149	0.000000	-0.000754	-0.000086	0.000000	0.000000
62.431853	12.405729	24.516049	-0.042955	0.203107	2.129908	0.000000	0.004149	0.000000	-0.000779	-0.000086	0.000000	0.000000
62.765186	12.443338	24.385364	-0.069873	0.188949	2.131319	0.000000	0.004149	0.000000	-0.000808	-0.000086	0.000000	0.000000
63.098520	12.498893	24.264117	-0.096792	0.174792	2.132731	0.000000	0.004149	0.000000	-0.000836	-0.000086	0.000000	0.000000
63.433103	12.572704	24.151907	-0.123812	0.160581	2.134148	0.000000	0.004149	0.000000	-0.000865	-0.000086	0.000000	0.000000
63.730426	12.653467	24.060173	-0.116532	0.088426	2.135407	0.000000	-0.001131	0.000000	-0.000890	-0.000084	0.000000	0.000000
64.171386	12.917157	23.717222	-0.483770	0.686360	2.148497	0.000000	0.060375	0.000000	-0.000932	-0.000107	0.000000	0.000000
64.612346	13.513197	22.858758	-0.873108	1.253066	2.188845	0.000000	0.122571	0.000000	-0.000985	-0.000132	0.000000	0.000000
65.053306	14.468816	21.523840	-1.302334	1.762759	2.256911	0.000000	0.186164	0.000000	-0.001049	-0.000158	0.000000	0.000000
65.494266	15.827667	19.773204	-1.791055	2.192250	2.353471	0.000000	0.251879	0.000000	-0.001124	-0.000186	0.000000	0.000000
65.940226	17.675017	17.661731	-2.366270	2.522726	2.481198	0.000000	0.320863	0.000000	-0.001214	-0.000216	0.000000	0.000000
66.489286	20.042463	15.299668	-1.920206	1.804758	2.637093	0.000000	0.245798	0.000000	-0.001322	-0.000175	0.000000	0.000000
67.038346	21.842266	13.651218	-1.338519	1.215335	2.750491	0.000000	0.166370	0.000000	-0.001406	-0.000131	0.000000	0.000000
67.587406	22.947313	12.598966	-0.662294	0.712475	2.819379	0.000000	0.083988	0.000000	-0.001465	-0.000085	0.000000	0.000000
68.136466	23.279559	12.067966	0.060707	0.260362	2.842534	0.000000	0.000116	0.000000	-0.001498	-0.000036	0.000000	0.000000
68.435038	23.283911	11.901443	-0.013705	0.265439	2.844826	0.000000	0.007636	0.000000	-0.001510	-0.000040	0.000000	0.000000
68.768372	23.297821	11.734478	-0.028023	0.235458	2.847384	0.000000	0.007636	0.000000	-0.001524	-0.000040	0.000000	0.000000
69.101705	23.321276	11.587499	-0.042342	0.205477	2.849943	0.000000	0.007636	0.000000	-0.001537	-0.000040	0.000000	0.000000
69.436288	23.354419	11.460070	-0.056715	0.175383	2.852512	0.000000	0.007636	0.000000	-0.001551	-0.000040	0.000000	0.000000
69.733611	23.391943	11.363730	-0.131402	0.178712	2.854794	0.000000	0.015193	0.000000	-0.001563	-0.000045	0.000000	0.000000
70.282671	23.134511	11.395045	0.597483	-0.236084	2.839953	0.000000	-0.069211	0.000000	-0.001573	0.000006	0.000000	0.000000
