#ParticleID	Turn	x[m]	xp	y[m]	yp	z[m]	dE[GeV]# s	beta_x	beta_y	alpha_x	alpha_y	D_x	D_y	D_px	D_py	orbit_x	orbit_px	orbit_y	orbit_py
0.300000	11.948891	25.205869	-0.014687	-0.024776	2.600995	0.000000	-0.001269	0.000000	-0.001213	0.001027	0.000000	0.000000
0.601250	11.965336	25.224399	-0.039904	-0.036735	2.600303	0.000000	-0.001269	0.000000	-0.000904	0.001027	0.000000	0.000000
0.898573	11.996465	25.249752	-0.035207	-0.110436	2.599620	0.000000	-0.007680	0.000000	-0.000598	0.001028	0.000000	0.000000
1.339533	12.181216	25.066964	-0.385005	0.523383	2.611985	0.000000	0.065785	0.000000	-0.000147	0.001019	0.000000	0.000000
1.780493	12.681030	24.333601	-0.752400	1.133393	2.656880	0.000000	0.139989	0.000000	0.000302	0.001021	0.000000	0.000000
2.221453	13.518754	23.083019	-1.154179	1.691837	2.734810	0.000000	0.215777	0.000000	0.000755	0.001034	0.000000	0.000000
2.662413	14.732673	21.372110	-1.608700	2.173305	2.846661	0.000000	0.294011	0.000000	0.001216	0.001060	0.000000	0.000000
3.108373	16.399245	19.253629	-2.141094	2.557069	2.995537	0.000000	0.376074	0.000000	0.001696	0.001098	0.000000	0.000000
3.657433	18.535455	16.873953	-1.725891	1.802479	3.176439	0.000000	0.283926	0.000000	0.002282	0.001033	0.000000	0.000000
4.206493	20.145662	15.247974	-1.188748	1.176279	3.305331	0.000000	0.186759	0.000000	0.002828	0.000950	0.000000	0.000000
4.755553	21.116088	14.259886	-0.567608	0.633864	3.379933	0.000000	0.086294	0.000000	0.003323	0.000851	0.000000	0.000000
5.304613	21.378150	13.839317	0.093649	0.136599	3.398930	0.000000	-0.015689	0.000000	0.003759	0.000736	0.000000	0.000000
5.603185	21.358690	13.743566	0.025579	0.149253	3.396590	0.000000	-0.007090	0.000000	0.003982	0.000746	0.000000	0.000000
5.936519	21.346843	13.652328	0.009962	0.124459	3.393978	0.000000	-0.007090	0.000000	0.004230	0.000746	0.000000	0.000000
6.269852	21.345408	13.577620	-0.005655	0.099665	3.391366	0.000000	-0.007090	0.000000	0.004479	0.000746	0.000000	0.000000
6.604435	21.354436	13.519255	-0.021330	0.074778	3.388744	0.000000	-0.007090	0.000000	0.004728	0.000746	0.000000	0.000000
6.901758	21.371277	13.481354	-0.088750	0.086554	3.386416	0.000000	0.001386	0.000000	0.004950	0.000758	0.000000	0.000000
7.450818	21.104478	13.647938	0.572167	-0.391721	3.358931	0.000000	-0.100058	0.000000	0.005321	0.000592	0.000000	0.000000
7.999878	20.129791	14.351919	1.192672	-0.897905	3.276242	0.000000	-0.199717	0.000000	0.005598	0.000415	0.000000	0.000000
8.548938	18.516074	15.643454	1.728922	-1.468056	3.139819	0.000000	-0.295827	0.000000	0.005775	0.000231	0.000000	0.000000
9.097998	16.377341	17.614554	2.143024	-2.142791	2.952085	0.000000	-0.386685	0.000000	0.005850	0.000042	0.000000	0.000000
9.543958	14.709162	19.370673	1.610675	-1.778076	2.797700	0.000000	-0.305793	0.000000	0.005903	0.000195	0.000000	0.000000
9.984918	13.493554	20.748256	1.156389	-1.333824	2.679801	0.000000	-0.228886	0.000000	0.006023	0.000349	0.000000	0.000000
10.425878	12.653915	21.705646	0.754945	-0.828873	2.595144	0.000000	-0.154591	0.000000	0.006211	0.000506	0.000000	0.000000
10.866838	12.151874	22.199272	0.387998	-0.286200	2.542762	0.000000	-0.082062	0.000000	0.006470	0.000670	0.000000	0.000000
11.309048	11.964341	22.206089	0.066094	0.218285	2.522037	0.000000	-0.016255	0.000000	0.006804	0.000825	0.000000	0.000000
11.606371	11.932460	22.080457	0.041135	0.204258	2.516959	0.000000	-0.016255	0.000000	0.007049	0.000825	0.000000	0.000000
12.086371	11.912312	21.895240	0.000840	0.181612	2.508761	0.000000	-0.016255	0.000000	0.007445	0.000825	0.000000	0.000000
12.566371	11.930847	21.731762	-0.039454	0.158967	2.500562	0.000000	-0.016255	0.000000	0.007841	0.000825	0.000000	0.000000
13.046371	11.988064	21.590024	-0.079749	0.136321	2.492364	0.000000	-0.016255	0.000000	0.008237	0.000825	0.000000	0.000000
13.526371	12.083965	21.470026	-0.120043	0.113675	2.484165	0.000000	-0.016255	0.000000	0.008633	0.000825	0.000000	0.000000
14.007621	12.218949	21.371540	-0.160443	0.090971	2.475945	0.000000	-0.016255	0.000000	0.009030	0.000825	0.000000	0.000000
14.304943	12.321745	21.321669	-0.157902	0.029593	2.470864	0.000000	-0.021770	0.000000	0.009275	0.000803	0.000000	0.000000
14.745903	12.619260	21.062265	-0.518933	0.556358	2.476317	0.000000	0.048305	0.000000	0.009682	0.001047	0.000000	0.000000
15.186863	13.244489	20.347662	-0.903691	1.057807	2.512658	0.000000	0.118920	0.000000	0.010200	0.001304	0.000000	0.000000
15.627823	14.226028	19.210370	-1.329766	1.511115	2.580297	0.000000	0.190875	0.000000	0.010834	0.001575	0.000000	0.000000
16.068783	15.608769	17.702138	-1.816636	1.895652	2.679998	0.000000	0.264989	0.000000	0.011592	0.001864	0.000000	0.000000
16.514743	17.479609	15.869869	-2.391544	2.194917	2.814574	0.000000	0.342597	0.000000	0.012492	0.002176	0.000000	0.000000
17.063803	19.882258	13.824500	-1.956584	1.551594	2.978298	0.000000	0.256560	0.000000	0.013573	0.001754	0.000000	0.000000
17.612863	21.727861	12.421191	-1.383305	1.018822	3.093693	0.000000	0.166000	0.000000	0.014413	0.001301	0.000000	0.000000
18.161923	22.885908	11.559970	-0.712226	0.558644	3.158724	0.000000	0.072514	0.000000	0.014997	0.000824	0.000000	0.000000
18.710983	23.274501	11.179486	0.009211	0.138271	3.172244	0.000000	-0.022245	0.000000	0.015315	0.000333	0.000000	0.000000
19.009556	23.304144	11.090102	-0.056335	0.136104	3.167625	0.000000	-0.015063	0.000000	0.015426	0.000370	0.000000	0.000000
19.342889	23.346484	11.009570	-0.070684	0.105491	3.162481	0.000000	-0.015063	0.000000	0.015549	0.000370	0.000000	0.000000
19.676223	23.398390	10.949448	-0.085033	0.074877	3.157336	0.000000	-0.015063	0.000000	0.015673	0.000370	0.000000	0.000000
20.010806	23.460401	10.909488	-0.215672	0.098201	3.152192	0.000000	0.000555	0.000000	0.015797	0.000448	0.000000	0.000000
20.308129	23.592768	10.859194	-0.281997	0.095188	3.152236	0.000000	0.007645	0.000000	0.015930	0.000487	0.000000	0.000000
20.857189	23.495745	10.975053	0.457771	-0.307399	3.130476	0.000000	-0.086334	0.000000	0.016055	-0.000031	0.000000	0.000000
21.406249	22.599027	11.542466	1.165181	-0.731893	3.057723	0.000000	-0.178782	0.000000	0.015896	-0.000549	0.000000	0.000000
21.955309	20.966022	12.601863	1.790221	-1.208539	2.935265	0.000000	-0.268065	0.000000	0.015454	-0.001057	0.000000	0.000000
22.504369	18.712205	14.228721	2.288702	-1.771301	2.765270	0.000000	-0.352609	0.000000	0.014739	-0.001546	0.000000	0.000000
22.950329	16.937969	15.690009	1.701975	-1.490714	2.625646	0.000000	-0.276333	0.000000	0.014133	-0.001172	0.000000	0.000000
23.391289	15.663544	16.856220	1.198070	-1.143405	2.520311	0.000000	-0.203687	0.000000	0.013696	-0.000813	0.000000	0.000000
23.832249	14.807947	17.691856	0.748943	-0.744053	2.446328	0.000000	-0.133354	0.000000	0.013414	-0.000463	0.000000	0.000000
24.273209	14.332049	18.158886	0.334057	-0.310836	2.402854	0.000000	-0.064535	0.000000	0.013286	-0.000119	0.000000	0.000000
24.715418	14.214248	18.235718	-0.035325	0.097506	2.389399	0.000000	-0.001547	0.000000	0.013310	0.000193	0.000000	0.000000
25.012741	14.241481	18.182631	-0.056268	0.081047	2.388882	0.000000	-0.001547	0.000000	0.013367	0.000193	0.000000	0.000000
25.346075	14.286819	18.134750	-0.079748	0.062594	2.388302	0.000000	-0.001547	0.000000	0.013432	0.000193	0.000000	0.000000
25.679408	14.347812	18.099172	-0.103228	0.044141	2.387721	0.000000	-0.001547	0.000000	0.013496	0.000193	0.000000	0.000000
26.013991	14.424481	18.076198	-0.009775	-0.121024	2.387115	0.000000	-0.020913	0.000000	0.013561	0.000083	0.000000	0.000000
26.311314	14.436345	18.153225	0.000303	-0.176296	2.380866	0.000000	-0.025975	0.000000	0.013585	0.000052	0.000000	0.000000
26.752274	14.614628	18.111989	-0.405972	0.269436	2.384246	0.000000	0.041760	0.000000	0.013686	0.000404	0.000000	0.000000
27.193234	15.158153	17.681503	-0.830809	0.702904	2.417426	0.000000	0.109967	0.000000	0.013942	0.000760	0.000000	0.000000
27.634194	16.091779	16.881355	-1.293634	1.104381	2.480782	0.000000	0.179418	0.000000	0.014357	0.001125	0.000000	0.000000
28.075154	17.458213	15.747958	-1.815610	1.455591	2.575031	0.000000	0.250903	0.000000	0.014936	0.001503	0.000000	0.000000
28.521114	19.344051	14.315588	-2.425853	1.741761	2.702853	0.000000	0.325715	0.000000	0.015695	0.001900	0.000000	0.000000
29.070174	21.742473	12.720351	-1.914525	1.180114	2.858499	0.000000	0.243424	0.000000	0.016596	0.001377	0.000000	0.000000
29.619234	23.501015	11.692471	-1.267837	0.702557	2.967989	0.000000	0.156835	0.000000	0.017202	0.000829	0.000000	0.000000
30.168294	24.495307	11.158717	-0.531511	0.275064	3.029387	0.000000	0.067477	0.000000	0.017504	0.000267	0.000000	0.000000
30.717354	24.655028	11.081060	0.242393	-0.132828	3.041606	0.000000	-0.023075	0.000000	0.017494	-0.000300	0.000000	0.000000
31.015927	24.546370	11.153949	0.175323	-0.135527	3.036789	0.000000	-0.016347	0.000000	0.017417	-0.000258	0.000000	0.000000
31.349260	24.434154	11.254445	0.161325	-0.165960	3.031426	0.000000	-0.016347	0.000000	0.017331	-0.000258	0.000000	0.000000
31.682593	24.331270	11.375230	0.147328	-0.196394	3.026063	0.000000	-0.016347	0.000000	0.017245	-0.000258	0.000000	0.000000
32.017177	24.237383	11.516871	0.133279	-0.226942	3.020680	0.000000	-0.016347	0.000000	0.017159	-0.000258	0.000000	0.000000
32.314499	24.162049	11.659792	0.067106	-0.228218	3.015909	0.000000	-0.009646	0.000000	0.017082	-0.000217	0.000000	0.000000
32.863559	23.674513	12.148533	0.815031	-0.666964	2.986268	0.000000	-0.099081	0.000000	0.016812	-0.000766	0.000000	0.000000
33.412619	22.392225	13.142301	1.505326	-1.153237	2.908205	0.000000	-0.186770	0.000000	0.016243	-0.001302	0.000000	0.000000
33.961679	20.405878	14.711896	2.089189	-1.721685	2.783096	0.000000	-0.271166	0.000000	0.015386	-0.001814	0.000000	0.000000
34.510739	17.855947	16.969138	2.525346	-2.412810	2.613153	0.000000	-0.350779	0.000000	0.014256	-0.002295	0.000000	0.000000
34.956699	15.874834	18.988663	1.930721	-2.095666	2.473794	0.000000	-0.278455	0.000000	0.013313	-0.001937	0.000000	0.000000
35.397659	14.398054	20.662116	1.429602	-1.684207	2.366989	0.000000	-0.209748	0.000000	0.012533	-0.001604	0.000000	0.000000
35.838619	13.333010	21.937290	0.993848	-1.196095	2.289800	0.000000	-0.143414	0.000000	0.011896	-0.001289	0.000000	0.000000
36.279579	12.630989	22.756161	0.603533	-0.653547	2.241352	0.000000	-0.078699	0.000000	0.011394	-0.000989	0.000000	0.000000
36.721789	12.259257	23.081717	0.267544	-0.131620	2.221078	0.000000	-0.019733	0.000000	0.011021	-0.000725	0.000000	0.000000
37.019112	12.107890	23.163880	0.241555	-0.144724	2.215426	0.000000	-0.019733	0.000000	0.010806	-0.000725	0.000000	0.000000
37.352445	11.956565	23.265260	0.212418	-0.159416	2.209090	0.000000	-0.019733	0.000000	0.010564	-0.000725	0.000000	0.000000
37.685779	11.824665	23.376435	0.183282	-0.174108	2.202754	0.000000	-0.019733	0.000000	0.010322	-0.000725	0.000000	0.000000
38.020362	11.711804	23.497876	0.154036	-0.188854	2.196394	0.000000	-0.019733	0.000000	0.010080	-0.000725	0.000000	0.000000
38.317684	11.627901	23.614141	0.153836	-0.254574	2.190739	0.000000	-0.024592	0.000000	0.009864	-0.000748	0.000000	0.000000
38.758644	11.641143	23.577036	-0.184182	0.338388	2.194010	0.000000	0.038232	0.000000	0.009590	-0.000497	0.000000	0.000000
39.199604	11.955136	23.021736	-0.530615	0.915948	2.224952	0.000000	0.101497	0.000000	0.009424	-0.000252	0.000000	0.000000
39.640564	12.584229	21.973515	-0.901299	1.451821	2.283920	0.000000	0.165921	0.000000	0.009367	-0.000010	0.000000	0.000000
40.081524	13.557181	20.480079	-1.313176	1.921619	2.371586	0.000000	0.232236	0.000000	0.009416	0.000232	0.000000	0.000000
40.527484	14.936075	18.586677	-1.789060	2.305490	2.490433	0.000000	0.301626	0.000000	0.009574	0.000478	0.000000	0.000000
41.076544	16.698262	16.458776	-1.400809	1.592388	2.635458	0.000000	0.226411	0.000000	0.009751	0.000165	0.000000	0.000000
41.625604	17.976743	15.047521	-0.913568	0.992739	2.738182	0.000000	0.147181	0.000000	0.009755	-0.000151	0.000000	0.000000
42.174664	18.681162	14.252367	-0.361774	0.463821	2.796781	0.000000	0.065338	0.000000	0.009586	-0.000464	0.000000	0.000000
42.723724	18.761740	14.016658	0.215576	-0.032049	2.810214	0.000000	-0.017672	0.000000	0.009247	-0.000769	0.000000	0.000000
43.022297	18.664799	14.021964	0.154074	-0.019478	2.807175	0.000000	-0.010913	0.000000	0.009024	-0.000746	0.000000	0.000000
43.502297	18.529525	14.057101	0.127747	-0.053723	2.802295	0.000000	-0.010913	0.000000	0.008666	-0.000746	0.000000	0.000000
43.982297	18.419525	14.125113	0.101419	-0.087968	2.797414	0.000000	-0.010913	0.000000	0.008308	-0.000746	0.000000	0.000000
44.462297	18.334799	14.226000	0.075092	-0.122213	2.792534	0.000000	-0.010913	0.000000	0.007950	-0.000746	0.000000	0.000000
44.942297	18.275348	14.359762	0.048765	-0.156458	2.787654	0.000000	-0.010913	0.000000	0.007592	-0.000746	0.000000	0.000000
45.423547	18.241341	14.526697	-0.068009	-0.118818	2.782778	0.000000	0.002874	0.000000	0.007233	-0.000710	0.000000	0.000000
45.720870	18.286677	14.603501	-0.129302	-0.103851	2.783846	0.000000	0.009712	0.000000	0.007022	-0.000692	0.000000	0.000000
46.269930	18.120426	14.999992	0.429854	-0.622467	2.767038	0.000000	-0.072382	0.000000	0.006580	-0.000913	0.000000	0.000000
46.818990	17.353173	15.986896	0.958623	-1.185424	2.705547	0.000000	-0.153208	0.000000	0.006022	-0.001117	0.000000	0.000000
47.368050	16.039156	17.634504	1.419642	-1.832825	2.600455	0.000000	-0.231333	0.000000	0.005357	-0.001301	0.000000	0.000000
47.917110	14.271248	20.060170	1.780340	-2.610787	2.453618	0.000000	-0.305376	0.000000	0.004597	-0.001463	0.000000	0.000000
48.363070	12.894551	22.216544	1.316899	-2.203975	2.333342	0.000000	-0.236987	0.000000	0.003970	-0.001352	0.000000	0.000000
48.804030	11.912751	23.943947	0.917471	-1.698277	2.243872	0.000000	-0.171693	0.000000	0.003396	-0.001257	0.000000	0.000000
49.244990	11.263512	25.189421	0.559975	-1.115306	2.182704	0.000000	-0.108342	0.000000	0.002860	-0.001176	0.000000	0.000000
49.685950	10.917156	25.896305	0.228074	-0.481590	2.149147	0.000000	-0.046211	0.000000	0.002357	-0.001109	0.000000	0.000000
50.128160	10.858014	26.032165	-0.067364	0.111678	2.142836	0.000000	0.010243	0.000000	0.001879	-0.001059	0.000000	0.000000
50.425482	10.906250	25.969194	-0.094871	0.100115	2.146197	0.000000	0.010243	0.000000	0.001564	-0.001059	0.000000	0.000000
50.758816	10.979777	25.906772	-0.125710	0.087150	2.149964	0.000000	0.010243	0.000000	0.001211	-0.001059	0.000000	0.000000
51.092149	11.073863	25.852993	-0.156548	0.074186	2.153731	0.000000	0.010243	0.000000	0.000859	-0.001059	0.000000	0.000000
51.426732	11.188750	25.808228	-0.096732	-0.148196	2.157491	0.000000	-0.007260	0.000000	0.000504	-0.001063	0.000000	0.000000
51.724055	11.254246	25.899852	-0.096005	-0.223763	2.155649	0.000000	-0.012536	0.000000	0.000188	-0.001063	0.000000	0.000000
52.165015	11.485452	25.808942	-0.430653	0.429143	2.164230	0.000000	0.049436	0.000000	-0.000280	-0.001064	0.000000	0.000000
52.605975	12.019307	25.148671	-0.784969	1.062520	2.200242	0.000000	0.111982	0.000000	-0.000752	-0.001078	0.000000	0.000000
53.046935	12.880189	23.949090	-1.175139	1.647549	2.264100	0.000000	0.175816	0.000000	-0.001232	-0.001103	0.000000	0.000000
53.487895	14.107417	22.264790	-1.618987	2.157616	2.356534	0.000000	0.241664	0.000000	-0.001727	-0.001141	0.000000	0.000000
53.933855	15.778029	20.147220	-2.141038	2.570812	2.480129	0.000000	0.310670	0.000000	-0.002247	-0.001193	0.000000	0.000000
54.482915	17.928463	17.764110	-1.753045	1.795309	2.630958	0.000000	0.235727	0.000000	-0.002880	-0.001110	0.000000	0.000000
55.031975	19.581920	16.157787	-1.241261	1.147678	2.739374	0.000000	0.156584	0.000000	-0.003462	-0.001007	0.000000	0.000000
55.581035	20.621654	15.213826	-0.641834	0.581791	2.803444	0.000000	0.074647	0.000000	-0.003983	-0.000887	0.000000	0.000000
56.130095	20.974264	14.864984	0.002903	0.057342	2.822027	0.000000	-0.008627	0.000000	-0.004433	-0.000750	0.000000	0.000000
56.428668	21.010709	14.812666	-0.068189	0.077488	2.821960	0.000000	-0.000983	0.000000	-0.004660	-0.000762	0.000000	0.000000
56.762001	21.061481	14.768554	-0.084128	0.054849	2.821887	0.000000	-0.000983	0.000000	-0.004914	-0.000762	0.000000	0.000000
57.095334	21.122879	14.739534	-0.100067	0.032211	2.821813	0.000000	-0.000983	0.000000	-0.005168	-0.000762	0.000000	0.000000
57.429918	21.195194	14.725582	-0.116065	0.009488	2.821739	0.000000	-0.000983	0.000000	-0.005423	-0.000762	0.000000	0.000000
57.727240	21.268458	14.725931	-0.188441	0.029404	2.821675	0.000000	0.006733	0.000000	-0.005650	-0.000777	0.000000	0.000000
58.276300	21.111810	14.976049	0.471665	-0.487670	2.802850	0.000000	-0.076522	0.000000	-0.006025	-0.000588	0.000000	0.000000
58.825360	20.244506	15.809548	1.098451	-1.039471	2.738517	0.000000	-0.158430	0.000000	-0.006293	-0.000388	0.000000	0.000000
59.374420	18.727799	17.285780	1.647661	-1.665296	2.629813	0.000000	-0.237535	0.000000	-0.006450	-0.000182	0.000000	0.000000
59.923480	16.668789	19.509871	2.080516	-2.409713	2.478664	0.000000	-0.312430	0.000000	-0.006493	0.000028	0.000000	0.000000
60.369440	15.055811	21.486525	1.549284	-2.004132	2.354800	0.000000	-0.243489	0.000000	-0.006518	-0.000141	0.000000	0.000000
60.810400	13.895163	23.041274	1.092948	-1.508612	2.262129	0.000000	-0.177699	0.000000	-0.006617	-0.000310	0.000000	0.000000
61.251360	13.113455	24.127010	0.686533	-0.944465	2.198067	0.000000	-0.113930	0.000000	-0.006792	-0.000483	0.000000	0.000000
61.692320	12.674985	24.694344	0.311480	-0.337355	2.161886	0.000000	-0.051453	0.000000	-0.007044	-0.000662	0.000000	0.000000
62.134530	12.559783	24.716883	-0.016533	0.220588	2.153185	0.000000	0.004804	0.000000	-0.007378	-0.000829	0.000000	0.000000
62.431853	12.576655	24.589461	-0.040212	0.207973	2.154859	0.000000	0.004804	0.000000	-0.007624	-0.000829	0.000000	0.000000
62.765186	12.612311	24.455526	-0.066759	0.193831	2.156737	0.000000	0.004804	0.000000	-0.007900	-0.000829	0.000000	0.000000
63.098520	12.665666	24.331020	-0.093306	0.179689	2.158614	0.000000	0.004804	0.000000	-0.008177	-0.000829	0.000000	0.000000
63.433103	12.737019	24.215527	-0.119952	0.165494	2.160499	0.000000	0.004804	0.000000	-0.008454	-0.000829	0.000000	0.000000
63.730426	12.815360	24.120922	-0.109681	0.088690	2.162171	0.000000	-0.000925	0.000000	-0.008700	-0.000806	0.000000	0.000000
64.171386	13.074390	23.777098	-0.480384	0.688157	2.175854	0.000000	0.061267	0.000000	-0.009106	-0.001036	0.000000	0.000000
64.612346	13.668660	22.916502	-0.873018	1.256318	2.217187	0.000000	0.124168	0.000000	-0.009615	-0.001277	0.000000	0.000000
65.053306	14.625293	21.578291	-1.305511	1.767329	2.286646	0.000000	0.188496	0.000000	-0.010234	-0.001533	0.000000	0.000000
65.494266	15.987955	19.823349	-1.797608	2.197946	2.385028	0.000000	0.254986	0.000000	-0.010970	-0.001806	0.000000	0.000000
65.940226	17.842229	17.706570	-2.376211	2.529109	2.515068	0.000000	0.324765	0.000000	-0.011841	-0.002102	0.000000	0.000000
66.489286	20.216478	15.338756	-1.924182	1.809583	2.673684	0.000000	0.248588	0.000000	-0.012886	-0.001702	0.000000	0.000000
67.038346	22.016527	13.685997	-1.336347	1.218912	2.788976	0.000000	0.167976	0.000000	-0.013703	-0.001271	0.000000	0.000000
67.587406	23.115373	12.630585	-0.654203	0.715032	2.858891	0.000000	0.084364	0.000000	-0.014277	-0.000818	0.000000	0.000000
68.136466	23.435497	12.097357	0.074104	0.262065	2.882182	0.000000	-0.000756	0.000000	-0.014598	-0.000350	0.000000	0.000000
68.435038	23.435770	11.927833	-0.007073	0.270585	2.884576	0.000000	0.007660	0.000000	-0.014715	-0.000390	0.000000	0.000000
68.768372	23.445226	11.757441	-0.021297	0.240593	2.887260	0.000000	0.007660	0.000000	-0.014845	-0.000390	0.000000	0.000000
69.101705	23.464166	11.607043	-0.035521	0.210601	2.889944	0.000000	0.007660	0.000000	-0.014975	-0.000390	0.000000	0.000000
69.436288	23.492712	11.476188	-0.049798	0.180496	2.892637	0.000000	0.007660	0.000000	-0.015106	-0.000390	0.000000	0.000000
69.733611	23.526257	11.376733	-0.131475	0.187041	2.895041	0.000000	0.016150	0.000000	-0.015222	-0.000433	0.000000	0.000000
70.282671	23.266607	11.399027	0.601554	-0.227893	2.880467	0.000000	-0.069526	0.000000	-0.015324	0.000062	0.000000	0.000000
