#ParticleID	Turn	x[m]	xp	y[m]	yp	z[m]	dE[GeV]# s	beta_x	beta_y	alpha_x	alpha_y	D_x	D_y	D_px	D_py	orbit_x	orbit_px	orbit_y	orbit_py
0.300000	11.908403	25.009729	-0.009010	-0.028941	2.607440	0.000000	-0.002877	0.000000	-0.001310	0.001088	0.000000	0.000000
0.601250	11.921453	25.030797	-0.034309	-0.040997	2.606246	0.000000	-0.002877	0.000000	-0.000982	0.001088	0.000000	0.000000
0.898573	11.949279	25.058714	-0.029793	-0.114338	2.605066	0.000000	-0.009306	0.000000	-0.000658	0.001090	0.000000	0.000000
1.339533	12.128747	24.881580	-0.378374	0.514512	2.616718	0.000000	0.064291	0.000000	-0.000181	0.001079	0.000000	0.000000
1.780493	12.622076	24.158091	-0.744249	1.119955	2.660954	0.000000	0.138608	0.000000	0.000295	0.001081	0.000000	0.000000
2.221453	13.451816	22.921155	-1.144136	1.674445	2.738272	0.000000	0.214493	0.000000	0.000774	0.001094	0.000000	0.000000
2.662413	14.655888	21.227043	-1.596306	2.152751	2.849550	0.000000	0.292809	0.000000	0.001262	0.001121	0.000000	0.000000
3.108373	16.310153	19.127967	-2.125760	2.534286	2.997880	0.000000	0.374940	0.000000	0.001770	0.001160	0.000000	0.000000
3.657433	18.430669	16.770308	-1.712779	1.784923	3.178108	0.000000	0.282727	0.000000	0.002389	0.001093	0.000000	0.000000
4.206493	20.028147	15.161322	-1.178781	1.162699	3.306299	0.000000	0.185516	0.000000	0.002966	0.001006	0.000000	0.000000
4.755553	20.989706	14.186413	-0.561490	0.623294	3.380185	0.000000	0.085031	0.000000	0.003491	0.000901	0.000000	0.000000
5.304613	21.247388	13.776150	0.095488	0.128286	3.398463	0.000000	-0.016949	0.000000	0.003953	0.000781	0.000000	0.000000
5.603185	21.226603	13.685512	0.027752	0.140673	3.395729	0.000000	-0.008366	0.000000	0.004189	0.000791	0.000000	0.000000
5.936519	21.213341	13.600010	0.012036	0.115834	3.392677	0.000000	-0.008366	0.000000	0.004453	0.000791	0.000000	0.000000
6.269852	21.210555	13.531066	-0.003680	0.090995	3.389624	0.000000	-0.008366	0.000000	0.004716	0.000791	0.000000	0.000000
6.604435	21.218296	13.478517	-0.019454	0.066064	3.386561	0.000000	-0.008366	0.000000	0.004981	0.000791	0.000000	0.000000
6.901758	21.234049	13.445809	-0.086492	0.077639	3.383839	0.000000	0.000083	0.000000	0.005216	0.000804	0.000000	0.000000
7.450818	20.967317	13.621695	0.569807	-0.399845	3.355643	0.000000	-0.101266	0.000000	0.005610	0.000629	0.000000	0.000000
7.999878	19.997701	14.334433	1.185862	-0.905817	3.272304	0.000000	-0.200809	0.000000	0.005904	0.000442	0.000000	0.000000
8.548938	18.393699	15.634805	1.718141	-1.476320	3.135306	0.000000	-0.296783	0.000000	0.006094	0.000248	0.000000	0.000000
9.097998	16.268642	17.615451	2.129033	-2.151998	2.947081	0.000000	-0.387487	0.000000	0.006175	0.000049	0.000000	0.000000
9.543958	14.611497	19.380157	1.599820	-1.788022	2.792304	0.000000	-0.306728	0.000000	0.006233	0.000210	0.000000	0.000000
9.984918	13.404273	20.766678	1.148156	-1.344053	2.673952	0.000000	-0.229966	0.000000	0.006361	0.000372	0.000000	0.000000
10.425878	12.570880	21.733048	0.748959	-0.838918	2.588772	0.000000	-0.155828	0.000000	0.006562	0.000539	0.000000	0.000000
10.866838	12.073235	22.235287	0.383985	-0.295605	2.535792	0.000000	-0.083470	0.000000	0.006837	0.000712	0.000000	0.000000
11.309048	11.888456	22.249974	0.063585	0.210040	2.514383	0.000000	-0.017810	0.000000	0.007192	0.000875	0.000000	0.000000
11.606371	11.858111	22.129223	0.038475	0.196088	2.508827	0.000000	-0.017810	0.000000	0.007452	0.000875	0.000000	0.000000
12.086371	11.840633	21.951790	-0.002064	0.173563	2.499858	0.000000	-0.017810	0.000000	0.007872	0.000875	0.000000	0.000000
12.566371	11.862073	21.795982	-0.042602	0.151038	2.490889	0.000000	-0.017810	0.000000	0.008292	0.000875	0.000000	0.000000
13.046371	11.922430	21.661797	-0.083141	0.128514	2.481920	0.000000	-0.017810	0.000000	0.008712	0.000875	0.000000	0.000000
13.526371	12.021704	21.549235	-0.123679	0.105989	2.472951	0.000000	-0.017810	0.000000	0.009133	0.000875	0.000000	0.000000
14.007621	12.160305	21.458089	-0.164324	0.083405	2.463958	0.000000	-0.017810	0.000000	0.009554	0.000875	0.000000	0.000000
14.304943	12.265451	21.412702	-0.162221	0.022196	2.458399	0.000000	-0.023265	0.000000	0.009814	0.000852	0.000000	0.000000
14.745903	12.566270	21.158691	-0.522112	0.551569	2.463097	0.000000	0.046480	0.000000	0.010247	0.001111	0.000000	0.000000
15.186863	13.193872	20.447072	-0.905877	1.055842	2.498526	0.000000	0.116743	0.000000	0.010796	0.001382	0.000000	0.000000
15.627823	14.176962	19.310219	-1.331059	1.512064	2.565087	0.000000	0.188322	0.000000	0.011468	0.001669	0.000000	0.000000
16.068783	15.560506	17.799862	-1.817099	1.899471	2.663530	0.000000	0.262028	0.000000	0.012271	0.001975	0.000000	0.000000
16.514743	17.431462	15.962916	-2.391210	2.201467	2.796639	0.000000	0.339193	0.000000	0.013225	0.002306	0.000000	0.000000
17.063803	19.834944	13.911805	-1.958316	1.555520	2.958596	0.000000	0.253764	0.000000	0.014371	0.001859	0.000000	0.000000
17.612863	21.683582	12.505471	-1.386972	1.020406	3.072588	0.000000	0.163862	0.000000	0.015261	0.001379	0.000000	0.000000
18.161923	22.846643	11.643727	-0.717565	0.558000	3.136602	0.000000	0.071075	0.000000	0.015880	0.000874	0.000000	0.000000
18.710983	23.241866	11.265183	0.002581	0.135353	3.149510	0.000000	-0.022960	0.000000	0.016218	0.000354	0.000000	0.000000
19.009556	23.275115	11.177511	-0.062420	0.133370	3.144634	0.000000	-0.015897	0.000000	0.016336	0.000393	0.000000	0.000000
19.342889	23.321520	11.098716	-0.076797	0.103017	3.139204	0.000000	-0.015897	0.000000	0.016467	0.000393	0.000000	0.000000
19.676223	23.377510	11.040155	-0.091174	0.072665	3.133774	0.000000	-0.015897	0.000000	0.016598	0.000393	0.000000	0.000000
20.010806	23.443640	11.001587	-0.221758	0.096708	3.128343	0.000000	-0.000397	0.000000	0.016730	0.000476	0.000000	0.000000
20.308129	23.579661	10.952099	-0.287567	0.093903	3.128097	0.000000	0.006568	0.000000	0.016871	0.000517	0.000000	0.000000
20.857189	23.488957	11.070801	0.451911	-0.311318	3.105953	0.000000	-0.086625	0.000000	0.017005	-0.000032	0.000000	0.000000
21.406249	22.598627	11.644091	1.159445	-0.738724	3.033265	0.000000	-0.178281	0.000000	0.016837	-0.000580	0.000000	0.000000
21.955309	20.971631	12.712816	1.785010	-1.218770	2.911320	0.000000	-0.266783	0.000000	0.016370	-0.001118	0.000000	0.000000
22.504369	18.723027	14.353123	2.284378	-1.785663	2.742277	0.000000	-0.350569	0.000000	0.015612	-0.001636	0.000000	0.000000
22.950329	16.952503	15.825916	1.697800	-1.501958	2.603464	0.000000	-0.274874	0.000000	0.014971	-0.001240	0.000000	0.000000
23.391289	15.681730	17.000507	1.193871	-1.151054	2.498671	0.000000	-0.202793	0.000000	0.014508	-0.000860	0.000000	0.000000
23.832249	14.829900	17.841180	0.744531	-0.747759	2.424974	0.000000	-0.133012	0.000000	0.014211	-0.000489	0.000000	0.000000
24.273209	14.358053	18.309676	0.329231	-0.310428	2.381536	0.000000	-0.064742	0.000000	0.014076	-0.000125	0.000000	0.000000
24.715418	14.244795	18.384311	-0.041000	0.102050	2.367867	0.000000	-0.002213	0.000000	0.014101	0.000206	0.000000	0.000000
25.012741	14.275391	18.328486	-0.061908	0.085709	2.367148	0.000000	-0.002213	0.000000	0.014163	0.000206	0.000000	0.000000
25.346075	14.324476	18.277453	-0.085347	0.067389	2.366341	0.000000	-0.002213	0.000000	0.014232	0.000206	0.000000	0.000000
25.679408	14.389188	18.238634	-0.108787	0.049069	2.365535	0.000000	-0.002213	0.000000	0.014300	0.000206	0.000000	0.000000
26.013991	14.469563	18.212320	-0.014928	-0.117067	2.364701	0.000000	-0.021397	0.000000	0.014369	0.000090	0.000000	0.000000
26.311314	14.484462	18.286966	-0.004978	-0.172113	2.358306	0.000000	-0.026364	0.000000	0.014396	0.000057	0.000000	0.000000
26.752274	14.667954	18.240447	-0.412533	0.277183	2.361380	0.000000	0.040787	0.000000	0.014503	0.000430	0.000000	0.000000
27.193234	15.217952	17.801674	-0.838951	0.713863	2.393985	0.000000	0.108398	0.000000	0.014776	0.000807	0.000000	0.000000
27.634194	16.159616	16.990613	-1.303731	1.118051	2.456490	0.000000	0.177236	0.000000	0.015217	0.001194	0.000000	0.000000
28.075154	17.536021	15.844172	-1.828127	1.471349	2.549604	0.000000	0.248081	0.000000	0.015831	0.001594	0.000000	0.000000
28.521114	19.434419	14.397022	-2.441414	1.758914	2.675976	0.000000	0.322219	0.000000	0.016635	0.002015	0.000000	0.000000
29.070174	21.848867	12.784937	-1.927843	1.193781	2.829895	0.000000	0.240824	0.000000	0.017591	0.001461	0.000000	0.000000
29.619234	23.620414	11.743489	-1.277964	0.713715	2.938180	0.000000	0.155179	0.000000	0.018235	0.000880	0.000000	0.000000
30.168294	24.623763	11.198479	-0.537725	0.284509	2.998917	0.000000	0.066795	0.000000	0.018555	0.000284	0.000000	0.000000
30.717354	24.787949	11.111074	0.240533	-0.124422	3.011033	0.000000	-0.022770	0.000000	0.018546	-0.000317	0.000000	0.000000
31.015927	24.680153	11.179047	0.173868	-0.127212	3.006267	0.000000	-0.016186	0.000000	0.018465	-0.000273	0.000000	0.000000
31.349260	24.568879	11.273955	0.159954	-0.157512	3.000962	0.000000	-0.016186	0.000000	0.018374	-0.000273	0.000000	0.000000
31.682593	24.466881	11.389064	0.146039	-0.187813	2.995657	0.000000	-0.016186	0.000000	0.018283	-0.000273	0.000000	0.000000
32.017177	24.373829	11.524917	0.132073	-0.218226	2.990333	0.000000	-0.016186	0.000000	0.018192	-0.000273	0.000000	0.000000
32.314499	24.299217	11.662608	0.066267	-0.219667	2.985616	0.000000	-0.009626	0.000000	0.018111	-0.000229	0.000000	0.000000
32.863559	23.810065	12.141801	0.818760	-0.658012	2.956269	0.000000	-0.098086	0.000000	0.017825	-0.000811	0.000000	0.000000
33.412619	22.521236	13.125241	1.513357	-1.143248	2.879046	0.000000	-0.184819	0.000000	0.017222	-0.001379	0.000000	0.000000
33.961679	20.523893	14.682995	2.100947	-1.709948	2.755312	0.000000	-0.268295	0.000000	0.016314	-0.001923	0.000000	0.000000
34.510739	17.959299	16.926042	2.539992	-2.398493	2.587249	0.000000	-0.347040	0.000000	0.015116	-0.002432	0.000000	0.000000
34.956699	15.966502	18.932814	1.942188	-2.081416	2.449464	0.000000	-0.275365	0.000000	0.014117	-0.002053	0.000000	0.000000
35.397659	14.480752	20.593998	1.438461	-1.670702	2.343930	0.000000	-0.207268	0.000000	0.013290	-0.001699	0.000000	0.000000
35.838619	13.408862	21.857830	1.000507	-1.183948	2.267742	0.000000	-0.141514	0.000000	0.012615	-0.001365	0.000000	0.000000
36.279579	12.701802	22.666800	0.608299	-0.643311	2.220036	0.000000	-0.077358	0.000000	0.012084	-0.001047	0.000000	0.000000
36.721789	12.326603	22.984316	0.270582	-0.123158	2.200257	0.000000	-0.018852	0.000000	0.011689	-0.000768	0.000000	0.000000
37.019112	12.173400	23.061456	0.244695	-0.136290	2.194880	0.000000	-0.018852	0.000000	0.011461	-0.000768	0.000000	0.000000
37.352445	12.019943	23.157224	0.215674	-0.151013	2.188851	0.000000	-0.018852	0.000000	0.011205	-0.000768	0.000000	0.000000
37.685779	11.885835	23.262806	0.186652	-0.165735	2.182823	0.000000	-0.018852	0.000000	0.010949	-0.000768	0.000000	0.000000
38.020362	11.770680	23.378655	0.157521	-0.180513	2.176772	0.000000	-0.018852	0.000000	0.010692	-0.000768	0.000000	0.000000
38.317684	11.684670	23.489977	0.157380	-0.245654	2.171392	0.000000	-0.023637	0.000000	0.010464	-0.000792	0.000000	0.000000
38.758644	11.695343	23.446483	-0.181892	0.343898	2.174990	0.000000	0.038694	0.000000	0.010173	-0.000526	0.000000	0.000000
39.199604	12.007826	22.887921	-0.529473	0.917796	2.206037	0.000000	0.101471	0.000000	0.009999	-0.000266	0.000000	0.000000
39.640564	12.636402	21.839713	-0.901252	1.449923	2.264890	0.000000	0.165407	0.000000	0.009939	-0.000009	0.000000	0.000000
40.081524	13.609803	20.349566	-1.314225	1.916060	2.352218	0.000000	0.231227	0.000000	0.009991	0.000248	0.000000	0.000000
40.527484	14.990171	18.462653	-1.791271	2.296515	2.470493	0.000000	0.300110	0.000000	0.010160	0.000510	0.000000	0.000000
41.076544	16.753672	16.342515	-1.400940	1.587109	2.614854	0.000000	0.225551	0.000000	0.010349	0.000177	0.000000	0.000000
41.625604	18.031155	14.935198	-0.911607	0.990782	2.717289	0.000000	0.146992	0.000000	0.010354	-0.000158	0.000000	0.000000
42.174664	18.732327	14.140435	-0.357857	0.465048	2.775980	0.000000	0.065823	0.000000	0.010176	-0.000491	0.000000	0.000000
42.723724	18.807640	13.901598	0.221172	-0.027550	2.789881	0.000000	-0.016522	0.000000	0.009817	-0.000815	0.000000	0.000000
43.022297	18.707266	13.904544	0.159815	-0.015607	2.787173	0.000000	-0.009849	0.000000	0.009581	-0.000790	0.000000	0.000000
43.502297	18.566475	13.936101	0.133501	-0.050136	2.782825	0.000000	-0.009849	0.000000	0.009202	-0.000790	0.000000	0.000000
43.982297	18.450944	14.000806	0.107187	-0.084666	2.778476	0.000000	-0.009849	0.000000	0.008822	-0.000790	0.000000	0.000000
44.462297	18.360675	14.098659	0.080874	-0.119195	2.774128	0.000000	-0.009849	0.000000	0.008443	-0.000790	0.000000	0.000000
44.942297	18.295667	14.229661	0.054560	-0.153725	2.769780	0.000000	-0.009849	0.000000	0.008064	-0.000790	0.000000	0.000000
45.423547	18.256076	14.394103	-0.062273	-0.117027	2.765438	0.000000	0.003853	0.000000	0.007683	-0.000752	0.000000	0.000000
45.720870	18.297997	14.469895	-0.123387	-0.102722	2.766809	0.000000	0.010622	0.000000	0.007460	-0.000733	0.000000	0.000000
46.269930	18.125073	14.862944	0.435992	-0.617288	2.750676	0.000000	-0.070933	0.000000	0.006992	-0.000967	0.000000	0.000000
46.818990	17.351135	15.841787	0.964548	-1.175826	2.690155	0.000000	-0.151245	0.000000	0.006400	-0.001184	0.000000	0.000000
47.368050	16.030896	17.476141	1.424933	-1.818126	2.586312	0.000000	-0.228893	0.000000	0.005695	-0.001380	0.000000	0.000000
47.917110	14.257671	19.882413	1.784621	-2.589940	2.440980	0.000000	-0.302503	0.000000	0.004889	-0.001552	0.000000	0.000000
48.363070	12.877220	22.022002	1.321022	-2.187324	2.321952	0.000000	-0.234424	0.000000	0.004224	-0.001434	0.000000	0.000000
48.804030	11.891764	23.736858	0.921634	-1.686570	2.233583	0.000000	-0.169409	0.000000	0.003614	-0.001333	0.000000	0.000000
49.244990	11.238753	24.974394	0.564370	-1.109074	2.173397	0.000000	-0.106310	0.000000	0.003046	-0.001247	0.000000	0.000000
49.685950	10.888334	25.678312	0.232902	-0.481116	2.140713	0.000000	-0.044408	0.000000	0.002513	-0.001175	0.000000	0.000000
50.128160	10.824640	25.816322	-0.061994	0.106988	2.135181	0.000000	0.011864	0.000000	0.002006	-0.001122	0.000000	0.000000
50.425482	10.869702	25.756166	-0.089566	0.095339	2.139042	0.000000	0.011864	0.000000	0.001673	-0.001122	0.000000	0.000000
50.758816	10.939718	25.696960	-0.120479	0.082280	2.143371	0.000000	0.011864	0.000000	0.001299	-0.001122	0.000000	0.000000
51.092149	11.030341	25.646460	-0.151391	0.069220	2.147699	0.000000	0.011864	0.000000	0.000925	-0.001122	0.000000	0.000000
51.426732	11.141803	25.605045	-0.092030	-0.151609	2.152022	0.000000	-0.005595	0.000000	0.000550	-0.001126	0.000000	0.000000
51.724055	11.204529	25.698731	-0.091520	-0.226794	2.150694	0.000000	-0.010858	0.000000	0.000215	-0.001127	0.000000	0.000000
52.165015	11.431238	25.612832	-0.424917	0.420851	2.160016	0.000000	0.050996	0.000000	-0.000282	-0.001128	0.000000	0.000000
52.605975	11.959379	24.962064	-0.777719	1.049343	2.196721	0.000000	0.113443	0.000000	-0.000782	-0.001141	0.000000	0.000000
53.046935	12.813072	23.776045	-1.166044	1.630088	2.261231	0.000000	0.177194	0.000000	-0.001290	-0.001168	0.000000	0.000000
53.487895	14.031304	22.108750	-1.607629	2.136664	2.354285	0.000000	0.242976	0.000000	-0.001814	-0.001208	0.000000	0.000000
53.933855	15.690562	20.011085	-2.126873	2.547316	2.478483	0.000000	0.311932	0.000000	-0.002364	-0.001262	0.000000	0.000000
54.482915	17.826589	17.650617	-1.741159	1.777330	2.630053	0.000000	0.237030	0.000000	-0.003034	-0.001175	0.000000	0.000000
55.031975	19.468619	16.061612	-1.232495	1.133935	2.739222	0.000000	0.157904	0.000000	-0.003650	-0.001067	0.000000	0.000000
55.581035	20.500717	15.130879	-0.636809	0.571305	2.804047	0.000000	0.075961	0.000000	-0.004202	-0.000939	0.000000	0.000000
56.130095	20.850024	14.792114	0.003831	0.049366	2.823369	0.000000	-0.007344	0.000000	-0.004679	-0.000795	0.000000	0.000000
56.428668	20.885802	14.744647	-0.067118	0.069331	2.823705	0.000000	0.000319	0.000000	-0.004920	-0.000808	0.000000	0.000000
56.762001	20.935892	14.705999	-0.083150	0.046616	2.824080	0.000000	0.000319	0.000000	-0.005189	-0.000808	0.000000	0.000000
57.095334	20.996669	14.682493	-0.099182	0.023900	2.824456	0.000000	0.000319	0.000000	-0.005459	-0.000808	0.000000	0.000000
57.429918	21.068422	14.674129	-0.115273	0.001099	2.824833	0.000000	0.000319	0.000000	-0.005729	-0.000808	0.000000	0.000000
57.727240	21.141243	14.679485	-0.187527	0.020910	2.825169	0.000000	0.008063	0.000000	-0.005969	-0.000824	0.000000	0.000000
58.276300	20.985923	14.938267	0.468323	-0.495052	2.807064	0.000000	-0.075316	0.000000	-0.006367	-0.000624	0.000000	0.000000
58.825360	20.124526	15.779501	1.091090	-1.046267	2.743370	0.000000	-0.157370	0.000000	-0.006652	-0.000413	0.000000	0.000000
59.374420	18.617885	17.263087	1.636801	-1.671988	2.635215	0.000000	-0.236640	0.000000	-0.006820	-0.000195	0.000000	0.000000
59.923480	16.572387	19.494675	2.066925	-2.416777	2.484512	0.000000	-0.311716	0.000000	-0.006866	0.000027	0.000000	0.000000
60.369440	14.970195	21.478159	1.538603	-2.012332	2.361003	0.000000	-0.242621	0.000000	-0.006893	-0.000152	0.000000	0.000000
60.810400	13.817884	23.040487	1.084658	-1.517554	2.268758	0.000000	-0.176667	0.000000	-0.007000	-0.000331	0.000000	0.000000
61.251360	13.042576	24.134281	0.680255	-0.953743	2.205201	0.000000	-0.112721	0.000000	-0.007186	-0.000514	0.000000	0.000000
61.692320	12.608861	24.709787	0.306926	-0.346548	2.169609	0.000000	-0.050053	0.000000	-0.007453	-0.000702	0.000000	0.000000
62.134530	12.496998	24.740257	-0.019615	0.211620	2.161593	0.000000	0.006368	0.000000	-0.007807	-0.000879	0.000000	0.000000
62.431853	12.515738	24.618152	-0.043416	0.199064	2.163747	0.000000	0.006368	0.000000	-0.008069	-0.000879	0.000000	0.000000
62.765186	12.553577	24.490135	-0.070099	0.184987	2.166163	0.000000	0.006368	0.000000	-0.008362	-0.000879	0.000000	0.000000
63.098520	12.609204	24.371502	-0.096783	0.170910	2.168579	0.000000	0.006368	0.000000	-0.008655	-0.000879	0.000000	0.000000
63.433103	12.682929	24.261862	-0.123566	0.156781	2.171004	0.000000	0.006368	0.000000	-0.008949	-0.000879	0.000000	0.000000
63.730426	12.763452	24.172427	-0.113410	0.079609	2.173156	0.000000	0.000587	0.000000	-0.009210	-0.000856	0.000000	0.000000
64.171386	13.025266	23.835940	-0.483016	0.680668	2.187592	0.000000	0.063070	0.000000	-0.009641	-0.001098	0.000000	0.000000
64.612346	13.621402	22.981124	-0.874671	1.250762	2.229818	0.000000	0.126284	0.000000	-0.010181	-0.001354	0.000000	0.000000
65.053306	14.579068	21.646875	-1.306258	1.763959	2.300319	0.000000	0.190950	0.000000	-0.010837	-0.001625	0.000000	0.000000
65.494266	15.941973	19.893895	-1.797483	2.196918	2.399904	0.000000	0.257807	0.000000	-0.011616	-0.001914	0.000000	0.000000
65.940226	17.795717	17.776961	-2.375182	2.530474	2.531340	0.000000	0.327986	0.000000	-0.012539	-0.002227	0.000000	0.000000
66.489286	20.169831	15.408520	-1.925068	1.809410	2.691634	0.000000	0.251257	0.000000	-0.013647	-0.001803	0.000000	0.000000
67.038346	21.971837	13.756815	-1.339093	1.217187	2.808274	0.000000	0.170044	0.000000	-0.014513	-0.001347	0.000000	0.000000
67.587406	23.074603	12.704212	-0.658618	0.711631	2.879183	0.000000	0.085793	0.000000	-0.015121	-0.000867	0.000000	0.000000
68.136466	23.400338	12.175751	0.068328	0.256744	2.903094	0.000000	0.000008	0.000000	-0.015462	-0.000372	0.000000	0.000000
68.435038	23.404230	12.009076	-0.013173	0.265952	2.905756	0.000000	0.008536	0.000000	-0.015586	-0.000415	0.000000	0.000000
68.768372	23.417760	11.841682	-0.027418	0.236232	2.908740	0.000000	0.008536	0.000000	-0.015724	-0.000415	0.000000	0.000000
69.101705	23.440787	11.694101	-0.041663	0.206512	2.911723	0.000000	0.008536	0.000000	-0.015862	-0.000415	0.000000	0.000000
69.436288	23.473450	11.565891	-0.055961	0.176680	2.914718	0.000000	0.008536	0.000000	-0.016001	-0.000415	0.000000	0.000000
69.733611	23.510684	11.468624	-0.138036	0.183939	2.917390	0.000000	0.017144	0.000000	-0.016124	-0.000460	0.000000	0.000000
70.282671	23.258468	11.495743	0.594651	-0.233635	2.903169	0.000000	-0.069260	0.000000	-0.016233	0.000064	0.000000	0.000000
