#ParticleID	Turn	x[m]	xp	y[m]	yp	z[m]	dE[GeV]# s	beta_x	beta_y	alpha_x	alpha_y	D_x	D_y	D_px	D_py	orbit_x	orbit_px	orbit_y	orbit_py
0.300000	11.926325	25.238497	-0.019379	-0.022814	2.604525	0.000000	0.000630	0.000000	-0.000551	0.000483	0.000000	0.000000
0.601250	11.945613	25.255840	-0.044647	-0.034756	2.604569	0.000000	0.000630	0.000000	-0.000405	0.000483	0.000000	0.000000
0.898573	11.979578	25.280012	-0.040136	-0.108516	2.604613	0.000000	-0.005773	0.000000	-0.000262	0.000483	0.000000	0.000000
1.339533	12.168463	25.095185	-0.389675	0.526067	2.618079	0.000000	0.067836	0.000000	-0.000050	0.000479	0.000000	0.000000
1.780493	12.672274	24.359163	-0.757020	1.136717	2.664143	0.000000	0.142212	0.000000	0.000162	0.000481	0.000000	0.000000
2.221453	13.514032	23.105427	-1.158955	1.695648	2.743328	0.000000	0.218203	0.000000	0.000375	0.000488	0.000000	0.000000
2.662413	14.732201	21.391019	-1.613845	2.177429	2.856532	0.000000	0.296674	0.000000	0.000592	0.000500	0.000000	0.000000
3.108373	16.403478	19.268818	-2.146828	2.561294	3.006897	0.000000	0.379009	0.000000	0.000819	0.000518	0.000000	0.000000
3.657433	18.546079	16.884995	-1.732072	1.805917	3.189598	0.000000	0.286468	0.000000	0.001096	0.000487	0.000000	0.000000
4.206493	20.162935	15.255591	-1.194955	1.179173	3.320038	0.000000	0.188854	0.000000	0.001353	0.000448	0.000000	0.000000
4.755553	21.139820	14.264550	-0.573419	0.636420	3.395906	0.000000	0.087898	0.000000	0.001586	0.000400	0.000000	0.000000
5.304613	21.407715	13.841288	0.088631	0.138998	3.415860	0.000000	-0.014612	0.000000	0.001791	0.000345	0.000000	0.000000
5.603185	21.391853	13.743695	0.019577	0.152321	3.414017	0.000000	-0.005822	0.000000	0.001895	0.000350	0.000000	0.000000
5.936519	21.383998	13.650420	0.003989	0.127504	3.411960	0.000000	-0.005822	0.000000	0.002012	0.000350	0.000000	0.000000
6.269852	21.386534	13.573689	-0.011599	0.102688	3.409903	0.000000	-0.005822	0.000000	0.002129	0.000350	0.000000	0.000000
6.604435	21.399531	13.513308	-0.027246	0.077779	3.407838	0.000000	-0.005822	0.000000	0.002246	0.000350	0.000000	0.000000
6.901758	21.419870	13.473636	-0.096007	0.090219	3.406003	0.000000	0.002901	0.000000	0.002350	0.000356	0.000000	0.000000
7.450818	21.159995	13.636021	0.566691	-0.387706	3.379365	0.000000	-0.099183	0.000000	0.002524	0.000277	0.000000	0.000000
7.999878	20.190115	14.335241	1.189363	-0.893249	3.297120	0.000000	-0.199503	0.000000	0.002653	0.000193	0.000000	0.000000
8.548938	18.578742	15.621105	1.728018	-1.462422	3.160728	0.000000	-0.296281	0.000000	0.002736	0.000106	0.000000	0.000000
9.097998	16.439711	17.585210	2.144602	-2.135769	2.972610	0.000000	-0.387802	0.000000	0.002769	0.000017	0.000000	0.000000
9.543958	14.770683	19.335177	1.611154	-1.771549	2.817876	0.000000	-0.306400	0.000000	0.002793	0.000089	0.000000	0.000000
9.984918	13.555188	20.707243	1.155719	-1.328028	2.699889	0.000000	-0.228981	0.000000	0.002848	0.000162	0.000000	0.000000
10.425878	12.716658	21.659900	0.753092	-0.824077	2.615404	0.000000	-0.154173	0.000000	0.002936	0.000236	0.000000	0.000000
10.866838	12.216779	22.149797	0.384873	-0.282627	2.563457	0.000000	-0.081122	0.000000	0.003057	0.000313	0.000000	0.000000
11.309048	12.032558	22.154087	0.062738	0.218836	2.543436	0.000000	-0.015046	0.000000	0.003213	0.000386	0.000000	0.000000
11.606371	12.002627	22.028139	0.037931	0.204772	2.538848	0.000000	-0.015046	0.000000	0.003328	0.000386	0.000000	0.000000
12.086371	11.985437	21.842455	-0.002118	0.182068	2.531440	0.000000	-0.015046	0.000000	0.003514	0.000386	0.000000	0.000000
12.566371	12.006693	21.678567	-0.042167	0.159364	2.524033	0.000000	-0.015046	0.000000	0.003699	0.000386	0.000000	0.000000
13.046371	12.066397	21.536475	-0.082215	0.136660	2.516625	0.000000	-0.015046	0.000000	0.003885	0.000386	0.000000	0.000000
13.526371	12.164547	21.416179	-0.122264	0.113956	2.509218	0.000000	-0.015046	0.000000	0.004070	0.000386	0.000000	0.000000
14.007621	12.301550	21.317451	-0.162417	0.091193	2.501791	0.000000	-0.015046	0.000000	0.004256	0.000386	0.000000	0.000000
14.304943	12.405499	21.267417	-0.158075	0.027269	2.497202	0.000000	-0.020913	0.000000	0.004371	0.000376	0.000000	0.000000
14.745903	12.703895	21.010722	-0.520989	0.552607	2.503391	0.000000	0.049841	0.000000	0.004562	0.000491	0.000000	0.000000
15.186863	13.331647	20.300050	-0.907715	1.052800	2.540825	0.000000	0.121158	0.000000	0.004805	0.000612	0.000000	0.000000
15.627823	14.317450	19.167735	-1.335925	1.505086	2.609930	0.000000	0.193849	0.000000	0.005103	0.000740	0.000000	0.000000
16.068783	15.706364	17.665298	-1.825191	1.888884	2.711491	0.000000	0.268740	0.000000	0.005459	0.000876	0.000000	0.000000
16.514743	17.585494	15.839582	-2.402743	2.187574	2.848359	0.000000	0.347165	0.000000	0.005882	0.001023	0.000000	0.000000
17.063803	19.998156	13.801601	-1.964521	1.545775	3.014820	0.000000	0.260010	0.000000	0.006389	0.000824	0.000000	0.000000
17.612863	21.849981	12.404197	-1.387481	1.014093	3.132198	0.000000	0.168255	0.000000	0.006784	0.000611	0.000000	0.000000
18.161923	23.010098	11.547830	-0.712394	0.554655	3.198417	0.000000	0.073525	0.000000	0.007058	0.000386	0.000000	0.000000
18.710983	23.396513	11.171499	0.013037	0.134731	3.212304	0.000000	-0.022503	0.000000	0.007207	0.000155	0.000000	0.000000
19.009556	23.426768	11.082909	-0.057119	0.134670	3.207883	0.000000	-0.014626	0.000000	0.007259	0.000173	0.000000	0.000000
19.342889	23.469605	11.003337	-0.071394	0.104048	3.202950	0.000000	-0.014626	0.000000	0.007316	0.000173	0.000000	0.000000
19.676223	23.521960	10.944178	-0.085669	0.073426	3.198016	0.000000	-0.014626	0.000000	0.007374	0.000173	0.000000	0.000000
20.010806	23.584373	10.905193	-0.216848	0.096721	3.193085	0.000000	0.001194	0.000000	0.007432	0.000210	0.000000	0.000000
20.308129	23.717284	10.855843	-0.288046	0.095785	3.193380	0.000000	0.009004	0.000000	0.007495	0.000229	0.000000	0.000000
20.857189	23.624665	10.970950	0.455788	-0.306645	3.172072	0.000000	-0.086292	0.000000	0.007554	-0.000015	0.000000	0.000000
21.406249	22.727973	11.537353	1.167417	-0.730921	3.098907	0.000000	-0.180057	0.000000	0.007479	-0.000258	0.000000	0.000000
21.955309	21.090578	12.595401	1.796553	-1.207269	2.975183	0.000000	-0.270631	0.000000	0.007271	-0.000497	0.000000	0.000000
22.504369	18.828199	14.220465	2.298740	-1.769624	2.803093	0.000000	-0.356413	0.000000	0.006935	-0.000727	0.000000	0.000000
22.950329	17.046743	15.680158	1.709295	-1.489397	2.661697	0.000000	-0.279215	0.000000	0.006650	-0.000551	0.000000	0.000000
23.391289	15.767254	16.845199	1.202823	-1.142357	2.555079	0.000000	-0.205670	0.000000	0.006444	-0.000382	0.000000	0.000000
23.832249	14.908676	17.679966	0.751323	-0.743333	2.480278	0.000000	-0.134464	0.000000	0.006312	-0.000218	0.000000	0.000000
24.273209	14.431763	18.146473	0.334160	-0.310482	2.436443	0.000000	-0.064787	0.000000	0.006251	-0.000056	0.000000	0.000000
24.715418	14.314820	18.223236	-0.034827	0.094402	2.423075	0.000000	-0.001432	0.000000	0.006262	0.000090	0.000000	0.000000
25.012741	14.341713	18.171994	-0.055623	0.077941	2.422622	0.000000	-0.001432	0.000000	0.006289	0.000090	0.000000	0.000000
25.346075	14.386566	18.126185	-0.078937	0.059486	2.422114	0.000000	-0.001432	0.000000	0.006320	0.000090	0.000000	0.000000
25.679408	14.446962	18.092679	-0.102251	0.041032	2.421607	0.000000	-0.001432	0.000000	0.006350	0.000090	0.000000	0.000000
26.013991	14.522921	18.071786	-0.007833	-0.124099	2.421073	0.000000	-0.021074	0.000000	0.006380	0.000039	0.000000	0.000000
26.311314	14.533649	18.150570	0.005144	-0.182575	2.414794	0.000000	-0.026632	0.000000	0.006391	0.000024	0.000000	0.000000
26.752274	14.708576	18.114911	-0.403264	0.263128	2.418127	0.000000	0.041965	0.000000	0.006438	0.000189	0.000000	0.000000
27.193234	15.250486	17.689939	-0.830103	0.696857	2.451716	0.000000	0.111038	0.000000	0.006558	0.000356	0.000000	0.000000
27.634194	16.184153	16.894993	-1.294881	1.098874	2.515943	0.000000	0.181372	0.000000	0.006753	0.000528	0.000000	0.000000
28.075154	17.552254	15.766244	-1.818841	1.450885	2.611539	0.000000	0.253766	0.000000	0.007025	0.000706	0.000000	0.000000
28.521114	19.441219	14.337977	-2.431003	1.737916	2.741204	0.000000	0.329512	0.000000	0.007381	0.000893	0.000000	0.000000
29.070174	21.842870	12.747156	-1.916280	1.176227	2.899034	0.000000	0.245966	0.000000	0.007804	0.000647	0.000000	0.000000
29.619234	23.601005	11.723834	-1.266141	0.698334	3.009856	0.000000	0.158067	0.000000	0.008089	0.000389	0.000000	0.000000
30.168294	24.591364	11.195115	-0.526529	0.270191	3.071708	0.000000	0.067369	0.000000	0.008230	0.000125	0.000000	0.000000
30.717354	24.743953	11.123335	0.250291	-0.138702	3.083494	0.000000	-0.024521	0.000000	0.008226	-0.000142	0.000000	0.000000
31.015927	24.634064	11.198150	0.177691	-0.138839	3.078442	0.000000	-0.017032	0.000000	0.008189	-0.000121	0.000000	0.000000
31.349260	24.520256	11.300823	0.163733	-0.169180	3.072805	0.000000	-0.017032	0.000000	0.008149	-0.000121	0.000000	0.000000
31.682593	24.415754	11.423723	0.149774	-0.199520	3.067168	0.000000	-0.017032	0.000000	0.008109	-0.000121	0.000000	0.000000
32.017177	24.320218	11.567425	0.135763	-0.229975	3.061510	0.000000	-0.017032	0.000000	0.008068	-0.000121	0.000000	0.000000
32.314499	24.243235	11.712202	0.064323	-0.228556	3.056485	0.000000	-0.009595	0.000000	0.008032	-0.000101	0.000000	0.000000
32.863559	23.757506	12.202041	0.814836	-0.668749	3.026385	0.000000	-0.100313	0.000000	0.007905	-0.000359	0.000000	0.000000
33.412619	22.474341	13.198487	1.507766	-1.156585	2.947019	0.000000	-0.189257	0.000000	0.007639	-0.000611	0.000000	0.000000
33.961679	20.484433	14.772523	2.094146	-1.726817	2.819792	0.000000	-0.274853	0.000000	0.007236	-0.000852	0.000000	0.000000
34.510739	17.928421	17.036274	2.532542	-2.420067	2.646955	0.000000	-0.355587	0.000000	0.006705	-0.001078	0.000000	0.000000
34.956699	15.942228	19.061345	1.936257	-2.101489	2.505178	0.000000	-0.282449	0.000000	0.006263	-0.000910	0.000000	0.000000
35.397659	14.461604	20.738959	1.433556	-1.688160	2.396395	0.000000	-0.212969	0.000000	0.005896	-0.000753	0.000000	0.000000
35.838619	13.393947	22.016613	0.996372	-1.198011	2.317628	0.000000	-0.145907	0.000000	0.005597	-0.000605	0.000000	0.000000
36.279579	12.690453	22.836171	0.604727	-0.653347	2.267980	0.000000	-0.080501	0.000000	0.005362	-0.000464	0.000000	0.000000
36.721789	12.318301	23.160658	0.269318	-0.132874	2.246864	0.000000	-0.021243	0.000000	0.005187	-0.000340	0.000000	0.000000
37.019112	12.165849	23.243555	0.243430	-0.145938	2.240649	0.000000	-0.021243	0.000000	0.005086	-0.000340	0.000000	0.000000
37.352445	12.013236	23.345729	0.214408	-0.160584	2.233682	0.000000	-0.021243	0.000000	0.004973	-0.000340	0.000000	0.000000
37.685779	11.879972	23.457667	0.185385	-0.175230	2.226714	0.000000	-0.021243	0.000000	0.004859	-0.000340	0.000000	0.000000
38.020362	11.765665	23.579844	0.156253	-0.189931	2.219720	0.000000	-0.021243	0.000000	0.004745	-0.000340	0.000000	0.000000
38.317684	11.680439	23.696685	0.157737	-0.258642	2.213505	0.000000	-0.026430	0.000000	0.004644	-0.000351	0.000000	0.000000
38.758644	11.690784	23.662210	-0.181382	0.336521	2.215949	0.000000	0.036962	0.000000	0.004516	-0.000233	0.000000	0.000000
39.199604	12.002751	23.107589	-0.528788	0.916370	2.246366	0.000000	0.100778	0.000000	0.004438	-0.000118	0.000000	0.000000
39.640564	12.630594	22.058061	-0.900356	1.454519	2.305102	0.000000	0.165743	0.000000	0.004412	-0.000004	0.000000	0.000000
40.081524	13.603007	20.561386	-1.313068	1.926480	2.392827	0.000000	0.232595	0.000000	0.004435	0.000110	0.000000	0.000000
40.527484	14.981958	18.662984	-1.789672	2.312188	2.512021	0.000000	0.302518	0.000000	0.004510	0.000227	0.000000	0.000000
41.076544	16.743652	16.529209	-1.399617	1.596733	2.657425	0.000000	0.226609	0.000000	0.004594	0.000079	0.000000	0.000000
41.625604	18.019783	15.114438	-0.910679	0.995025	2.760060	0.000000	0.146681	0.000000	0.004597	-0.000070	0.000000	0.000000
42.174664	18.720188	14.317886	-0.357405	0.464199	2.818105	0.000000	0.064151	0.000000	0.004518	-0.000218	0.000000	0.000000
42.723724	18.795383	14.082811	0.221116	-0.033557	2.830529	0.000000	-0.019521	0.000000	0.004359	-0.000361	0.000000	0.000000
43.022297	18.696461	14.087983	0.157457	-0.019249	2.826930	0.000000	-0.012399	0.000000	0.004254	-0.000350	0.000000	0.000000
43.502297	18.557931	14.122822	0.131147	-0.053333	2.821147	0.000000	-0.012399	0.000000	0.004086	-0.000350	0.000000	0.000000
43.982297	18.444658	14.190382	0.104838	-0.087417	2.815363	0.000000	-0.012399	0.000000	0.003918	-0.000350	0.000000	0.000000
44.462297	18.356643	14.290662	0.078528	-0.121501	2.809580	0.000000	-0.012399	0.000000	0.003750	-0.000350	0.000000	0.000000
44.942297	18.293885	14.423664	0.052218	-0.155585	2.803796	0.000000	-0.012399	0.000000	0.003582	-0.000350	0.000000	0.000000
45.423547	18.256546	14.589680	-0.064614	-0.117472	2.798015	0.000000	0.001464	0.000000	0.003413	-0.000333	0.000000	0.000000
45.720870	18.299837	14.665672	-0.127443	-0.100956	2.798550	0.000000	0.008571	0.000000	0.003314	-0.000325	0.000000	0.000000
46.269930	18.131477	15.059916	0.432049	-0.621283	2.780767	0.000000	-0.073975	0.000000	0.003107	-0.000429	0.000000	0.000000
46.818990	17.361881	16.046368	0.961011	-1.185866	2.718004	0.000000	-0.155216	0.000000	0.002844	-0.000525	0.000000	0.000000
47.368050	16.045431	17.695290	1.422074	-1.834919	2.611371	0.000000	-0.233712	0.000000	0.002532	-0.000612	0.000000	0.000000
47.917110	14.275139	20.124130	1.782668	-2.614676	2.462756	0.000000	-0.308072	0.000000	0.002174	-0.000689	0.000000	0.000000
48.363070	12.896645	22.283134	1.319014	-2.206108	2.341010	0.000000	-0.239474	0.000000	0.001879	-0.000636	0.000000	0.000000
48.804030	11.913195	24.011533	0.919421	-1.698506	2.250192	0.000000	-0.174003	0.000000	0.001609	-0.000591	0.000000	0.000000
49.244990	11.262390	25.256333	0.561841	-1.113622	2.187765	0.000000	-0.110507	0.000000	0.001357	-0.000553	0.000000	0.000000
49.685950	10.914488	25.960898	0.229935	-0.478069	2.153021	0.000000	-0.048263	0.000000	0.001120	-0.000521	0.000000	0.000000
50.128160	10.853750	26.092887	-0.065188	0.115926	2.145577	0.000000	0.008219	0.000000	0.000896	-0.000497	0.000000	0.000000
50.425482	10.900693	26.027386	-0.092698	0.104378	2.148169	0.000000	0.008219	0.000000	0.000748	-0.000497	0.000000	0.000000
50.758816	10.972772	25.962116	-0.123539	0.091431	2.151074	0.000000	0.008219	0.000000	0.000582	-0.000497	0.000000	0.000000
51.092149	11.065412	25.905478	-0.154381	0.078485	2.153980	0.000000	0.008219	0.000000	0.000417	-0.000497	0.000000	0.000000
51.426732	11.178850	25.857831	-0.094649	-0.144282	2.156874	0.000000	-0.009279	0.000000	0.000250	-0.000499	0.000000	0.000000
51.724055	11.243111	25.947117	-0.093939	-0.219773	2.154264	0.000000	-0.014557	0.000000	0.000102	-0.000499	0.000000	0.000000
52.165015	11.472446	25.852150	-0.428276	0.434319	2.161704	0.000000	0.047365	0.000000	-0.000118	-0.000500	0.000000	0.000000
52.605975	12.004115	25.186871	-0.782176	1.068649	2.196544	0.000000	0.109832	0.000000	-0.000340	-0.000505	0.000000	0.000000
53.046935	12.862402	23.981556	-1.171808	1.654354	2.259183	0.000000	0.173555	0.000000	-0.000565	-0.000517	0.000000	0.000000
53.487895	14.086515	22.291051	-1.614970	2.164787	2.350336	0.000000	0.239260	0.000000	-0.000797	-0.000535	0.000000	0.000000
53.933855	15.753311	20.167013	-2.136179	2.578046	2.472556	0.000000	0.308093	0.000000	-0.001040	-0.000559	0.000000	0.000000
54.482915	17.898870	17.776627	-1.748709	1.801322	2.621719	0.000000	0.233417	0.000000	-0.001337	-0.000520	0.000000	0.000000
55.031975	19.548191	16.164135	-1.237737	1.152899	2.728657	0.000000	0.154592	0.000000	-0.001609	-0.000472	0.000000	0.000000
55.581035	20.584796	15.214676	-0.639352	0.586594	2.791468	0.000000	0.073018	0.000000	-0.001854	-0.000416	0.000000	0.000000
56.130095	20.935483	14.860621	0.004182	0.062070	2.809036	0.000000	-0.009858	0.000000	-0.002065	-0.000353	0.000000	0.000000
56.428668	20.970479	14.805989	-0.065760	0.081342	2.808428	0.000000	-0.002392	0.000000	-0.002172	-0.000358	0.000000	0.000000
56.762001	21.019641	14.759316	-0.081724	0.058679	2.807750	0.000000	-0.002392	0.000000	-0.002291	-0.000358	0.000000	0.000000
57.095334	21.079445	14.727750	-0.097688	0.036017	2.807072	0.000000	-0.002392	0.000000	-0.002411	-0.000358	0.000000	0.000000
57.429918	21.150176	14.711260	-0.113712	0.013269	2.806392	0.000000	-0.002392	0.000000	-0.002531	-0.000358	0.000000	0.000000
57.727240	21.222033	14.709376	-0.184617	0.032255	2.805787	0.000000	0.005100	0.000000	-0.002637	-0.000365	0.000000	0.000000
58.276300	21.062147	14.956083	0.473910	-0.484250	2.786015	0.000000	-0.077634	0.000000	-0.002814	-0.000277	0.000000	0.000000
58.825360	20.193366	15.785445	1.098960	-1.035242	2.721082	0.000000	-0.158995	0.000000	-0.002940	-0.000184	0.000000	0.000000
59.374420	18.677051	17.256531	1.646391	-1.659966	2.612138	0.000000	-0.237539	0.000000	-0.003015	-0.000087	0.000000	0.000000
59.923480	16.620292	19.474112	2.077543	-2.402915	2.461113	0.000000	-0.311871	0.000000	-0.003036	0.000011	0.000000	0.000000
60.369440	15.009491	21.444941	1.547315	-1.997841	2.337387	0.000000	-0.243365	0.000000	-0.003048	-0.000068	0.000000	0.000000
60.810400	13.850102	22.994585	1.091969	-1.503190	2.244618	0.000000	-0.178020	0.000000	-0.003096	-0.000147	0.000000	0.000000
61.251360	13.068833	24.076068	0.686506	-0.940152	2.180224	0.000000	-0.114700	0.000000	-0.003178	-0.000228	0.000000	0.000000
61.692320	12.629993	24.640190	0.312406	-0.334342	2.143470	0.000000	-0.052684	0.000000	-0.003297	-0.000312	0.000000	0.000000
62.134530	12.513581	24.660718	-0.015840	0.224332	2.133947	0.000000	0.003332	0.000000	-0.003454	-0.000390	0.000000	0.000000
62.431853	12.530066	24.531085	-0.039606	0.211668	2.135053	0.000000	0.003332	0.000000	-0.003570	-0.000390	0.000000	0.000000
62.765186	12.565351	24.394705	-0.066251	0.197471	2.136294	0.000000	0.003332	0.000000	-0.003700	-0.000390	0.000000	0.000000
63.098520	12.618400	24.267790	-0.092895	0.183274	2.137535	0.000000	0.003332	0.000000	-0.003830	-0.000390	0.000000	0.000000
63.433103	12.689510	24.149917	-0.119639	0.169024	2.138780	0.000000	0.003332	0.000000	-0.003960	-0.000390	0.000000	0.000000
63.730426	12.767713	24.053184	-0.110902	0.094995	2.139886	0.000000	-0.002115	0.000000	-0.004076	-0.000380	0.000000	0.000000
64.171386	13.027464	23.704605	-0.480584	0.692545	2.152710	0.000000	0.059499	0.000000	-0.004267	-0.000487	0.000000	0.000000
64.612346	13.621613	22.841001	-0.872215	1.258587	2.192874	0.000000	0.121795	0.000000	-0.004507	-0.000600	0.000000	0.000000
65.053306	14.577292	21.501668	-1.303683	1.767370	2.260835	0.000000	0.185485	0.000000	-0.004798	-0.000720	0.000000	0.000000
65.494266	15.938144	19.747541	-1.794693	2.195748	2.357372	0.000000	0.251295	0.000000	-0.005143	-0.000848	0.000000	0.000000
65.940226	17.789573	17.633616	-2.372255	2.524859	2.485162	0.000000	0.320360	0.000000	-0.005552	-0.000987	0.000000	0.000000
66.489286	20.160929	15.269196	-1.921957	1.807218	2.641109	0.000000	0.245178	0.000000	-0.006043	-0.000799	0.000000	0.000000
67.038346	21.959975	13.617907	-1.335954	1.218283	2.754415	0.000000	0.165634	0.000000	-0.006427	-0.000597	0.000000	0.000000
67.587406	23.059703	12.562140	-0.655624	0.716110	2.823065	0.000000	0.083143	0.000000	-0.006697	-0.000385	0.000000	0.000000
68.136466	23.382479	12.026699	0.070994	0.264935	2.845839	0.000000	-0.000829	0.000000	-0.006848	-0.000165	0.000000	0.000000
68.435038	23.382404	11.856744	-0.006313	0.271125	2.847990	0.000000	0.007026	0.000000	-0.006903	-0.000184	0.000000	0.000000
68.768372	23.391365	11.686054	-0.020569	0.240945	2.850393	0.000000	0.007026	0.000000	-0.006965	-0.000184	0.000000	0.000000
69.101705	23.409830	11.535484	-0.034826	0.210765	2.852796	0.000000	0.007026	0.000000	-0.007026	-0.000184	0.000000	0.000000
69.436288	23.437921	11.404583	-0.049135	0.180472	2.855208	0.000000	0.007026	0.000000	-0.007087	-0.000184	0.000000	0.000000
69.733611	23.470956	11.305253	-0.126776	0.184793	2.857354	0.000000	0.014930	0.000000	-0.007142	-0.000203	0.000000	0.000000
70.282671	23.207111	11.328953	0.604462	-0.228216	2.842387	0.000000	-0.069540	0.000000	-0.007189	0.000029	0.000000	0.000000
