#ParticleID	Turn	x[m]	xp	y[m]	yp	z[m]	dE[GeV]# s	beta_x	beta_y	alpha_x	alpha_y	D_x	D_y	D_px	D_py	orbit_x	orbit_px	orbit_y	orbit_py
0.300000	11.938813	25.274305	-0.019848	-0.022265	2.602620	0.000000	0.000649	0.000000	-0.000643	0.000563	0.000000	0.000000
0.601250	11.958376	25.291313	-0.045091	-0.034190	2.602646	0.000000	0.000649	0.000000	-0.000474	0.000563	0.000000	0.000000
0.898573	11.992596	25.315143	-0.040510	-0.108016	2.602672	0.000000	-0.005752	0.000000	-0.000306	0.000563	0.000000	0.000000
1.339533	12.181957	25.129468	-0.390356	0.527484	2.616103	0.000000	0.067807	0.000000	-0.000059	0.000559	0.000000	0.000000
1.780493	12.686528	24.391813	-0.758040	1.138987	2.662109	0.000000	0.142131	0.000000	0.000187	0.000560	0.000000	0.000000
2.221453	13.529367	23.135735	-1.160362	1.698668	2.741212	0.000000	0.218069	0.000000	0.000436	0.000568	0.000000	0.000000
2.662413	14.748987	21.418380	-1.615704	2.181062	2.854310	0.000000	0.296484	0.000000	0.000689	0.000583	0.000000	0.000000
3.108373	16.422177	19.292720	-2.149231	2.565379	3.004542	0.000000	0.378760	0.000000	0.000954	0.000604	0.000000	0.000000
3.657433	18.567154	16.904961	-1.733920	1.809034	3.187084	0.000000	0.286298	0.000000	0.001276	0.000568	0.000000	0.000000
4.206493	20.185700	15.272557	-1.196115	1.181543	3.317412	0.000000	0.188766	0.000000	0.001576	0.000522	0.000000	0.000000
4.755553	21.163465	14.279242	-0.573806	0.638212	3.393219	0.000000	0.087895	0.000000	0.001847	0.000466	0.000000	0.000000
5.304613	21.431366	13.854267	0.089047	0.140340	3.413163	0.000000	-0.014529	0.000000	0.002086	0.000403	0.000000	0.000000
5.603185	21.415204	13.755911	0.020087	0.153605	3.411319	0.000000	-0.005767	0.000000	0.002208	0.000408	0.000000	0.000000
5.936519	21.407003	13.661775	0.004515	0.128801	3.409260	0.000000	-0.005767	0.000000	0.002344	0.000408	0.000000	0.000000
6.269852	21.409183	13.584175	-0.011056	0.103998	3.407202	0.000000	-0.005767	0.000000	0.002480	0.000408	0.000000	0.000000
6.604435	21.421811	13.522914	-0.026686	0.079101	3.405136	0.000000	-0.005767	0.000000	0.002616	0.000408	0.000000	0.000000
6.901758	21.441814	13.482452	-0.095304	0.091470	3.403300	0.000000	0.002919	0.000000	0.002738	0.000415	0.000000	0.000000
7.450818	21.180784	13.643596	0.568109	-0.386682	3.376668	0.000000	-0.099079	0.000000	0.002941	0.000323	0.000000	0.000000
7.999878	20.209005	14.341788	1.191394	-0.892381	3.294482	0.000000	-0.199314	0.000000	0.003091	0.000225	0.000000	0.000000
8.548938	18.595126	15.626764	1.730520	-1.461649	3.158203	0.000000	-0.296009	0.000000	0.003187	0.000124	0.000000	0.000000
9.097998	16.453158	17.590061	2.147396	-2.135037	2.970249	0.000000	-0.387452	0.000000	0.003227	0.000020	0.000000	0.000000
9.543958	14.781863	19.339277	1.613443	-1.770577	2.815654	0.000000	-0.306107	0.000000	0.003254	0.000104	0.000000	0.000000
9.984918	13.564521	20.710410	1.157625	-1.326872	2.697775	0.000000	-0.228743	0.000000	0.003319	0.000188	0.000000	0.000000
10.425878	12.724446	21.661991	0.754701	-0.822788	2.613368	0.000000	-0.153987	0.000000	0.003421	0.000275	0.000000	0.000000
10.866838	12.223254	22.150718	0.386261	-0.281264	2.561472	0.000000	-0.080988	0.000000	0.003562	0.000365	0.000000	0.000000
11.309048	12.037890	22.153789	0.063830	0.220469	2.541474	0.000000	-0.014924	0.000000	0.003744	0.000451	0.000000	0.000000
11.606371	12.007308	22.026872	0.039030	0.206396	2.536903	0.000000	-0.014924	0.000000	0.003878	0.000451	0.000000	0.000000
12.086371	11.989056	21.839638	-0.001007	0.183676	2.529523	0.000000	-0.014924	0.000000	0.004094	0.000451	0.000000	0.000000
12.566371	12.009240	21.674214	-0.041043	0.160956	2.522143	0.000000	-0.014924	0.000000	0.004311	0.000451	0.000000	0.000000
13.046371	12.067859	21.530601	-0.081080	0.138237	2.514763	0.000000	-0.014924	0.000000	0.004527	0.000451	0.000000	0.000000
13.526371	12.164913	21.408800	-0.121116	0.115517	2.507383	0.000000	-0.014924	0.000000	0.004743	0.000451	0.000000	0.000000
14.007621	12.300806	21.308577	-0.161257	0.092738	2.499984	0.000000	-0.014924	0.000000	0.004960	0.000451	0.000000	0.000000
14.304943	12.404060	21.257632	-0.157124	0.029210	2.495412	0.000000	-0.020745	0.000000	0.005094	0.000438	0.000000	0.000000
14.745903	12.701609	20.999349	-0.519980	0.554246	2.501634	0.000000	0.049965	0.000000	0.005316	0.000573	0.000000	0.000000
15.186863	13.328451	20.287384	-0.906603	1.054062	2.539075	0.000000	0.121239	0.000000	0.005600	0.000713	0.000000	0.000000
15.627823	14.313242	19.154131	-1.334662	1.505913	2.608160	0.000000	0.193885	0.000000	0.005947	0.000862	0.000000	0.000000
16.068783	15.700998	17.651152	-1.823722	1.889238	2.709671	0.000000	0.268732	0.000000	0.006361	0.001021	0.000000	0.000000
16.514743	17.578777	15.825303	-2.401023	2.187454	2.846461	0.000000	0.347113	0.000000	0.006855	0.001192	0.000000	0.000000
17.063803	19.989666	13.787266	-1.962884	1.545943	3.012831	0.000000	0.260018	0.000000	0.007446	0.000960	0.000000	0.000000
17.612863	21.839857	12.389491	-1.386033	1.014565	3.130170	0.000000	0.168325	0.000000	0.007906	0.000712	0.000000	0.000000
18.161923	22.998580	11.532411	-0.711231	0.555465	3.196402	0.000000	0.073657	0.000000	0.008226	0.000450	0.000000	0.000000
18.710983	23.383934	11.154973	0.013837	0.135938	3.210355	0.000000	-0.022310	0.000000	0.008399	0.000181	0.000000	0.000000
19.009556	23.413301	11.065890	-0.055657	0.135481	3.205954	0.000000	-0.014525	0.000000	0.008460	0.000202	0.000000	0.000000
19.342889	23.455167	10.985794	-0.069938	0.104806	3.201045	0.000000	-0.014525	0.000000	0.008527	0.000202	0.000000	0.000000
19.676223	23.506553	10.926148	-0.084219	0.074130	3.196136	0.000000	-0.014525	0.000000	0.008594	0.000202	0.000000	0.000000
20.010806	23.567998	10.886710	-0.215323	0.097279	3.191228	0.000000	0.001286	0.000000	0.008662	0.000245	0.000000	0.000000
20.308129	23.700016	10.837036	-0.285808	0.095947	3.191541	0.000000	0.009000	0.000000	0.008735	0.000267	0.000000	0.000000
20.857189	23.605258	10.951684	0.457433	-0.305962	3.170237	0.000000	-0.086240	0.000000	0.008804	-0.000017	0.000000	0.000000
21.406249	22.707117	11.517041	1.168350	-0.729669	3.097127	0.000000	-0.179949	0.000000	0.008716	-0.000301	0.000000	0.000000
21.955309	21.069072	12.573382	1.796704	-1.205361	2.973507	0.000000	-0.270471	0.000000	0.008474	-0.000580	0.000000	0.000000
22.504369	18.806898	14.195959	2.298089	-1.766926	2.801569	0.000000	-0.356204	0.000000	0.008082	-0.000848	0.000000	0.000000
22.950329	17.025777	15.653531	1.709050	-1.487289	2.660300	0.000000	-0.279039	0.000000	0.007749	-0.000642	0.000000	0.000000
23.391289	15.746283	16.817036	1.202999	-1.140954	2.553784	0.000000	-0.205526	0.000000	0.007510	-0.000446	0.000000	0.000000
23.832249	14.887337	17.650912	0.751932	-0.742696	2.479060	0.000000	-0.134351	0.000000	0.007356	-0.000254	0.000000	0.000000
24.273209	14.409674	18.117213	0.335233	-0.310639	2.435277	0.000000	-0.064703	0.000000	0.007285	-0.000065	0.000000	0.000000
24.715418	14.291565	18.194458	-0.033651	0.093972	2.421939	0.000000	-0.001313	0.000000	0.007298	0.000105	0.000000	0.000000
25.012741	14.317768	18.143480	-0.054478	0.077486	2.421517	0.000000	-0.001313	0.000000	0.007329	0.000105	0.000000	0.000000
25.346075	14.361870	18.097983	-0.077828	0.059004	2.421044	0.000000	-0.001313	0.000000	0.007364	0.000105	0.000000	0.000000
25.679408	14.421539	18.064808	-0.101179	0.040522	2.420571	0.000000	-0.001313	0.000000	0.007399	0.000105	0.000000	0.000000
26.013991	14.496792	18.044265	-0.007009	-0.124414	2.420072	0.000000	-0.020946	0.000000	0.007435	0.000045	0.000000	0.000000
26.311314	14.507035	18.123252	0.005502	-0.182392	2.413829	0.000000	-0.026441	0.000000	0.007448	0.000027	0.000000	0.000000
26.752274	14.681375	18.087755	-0.402274	0.262575	2.417234	0.000000	0.042134	0.000000	0.007503	0.000220	0.000000	0.000000
27.193234	15.222135	17.663582	-0.828436	0.695593	2.450874	0.000000	0.111186	0.000000	0.007643	0.000415	0.000000	0.000000
27.634194	16.154037	16.870031	-1.292464	1.096957	2.515133	0.000000	0.181501	0.000000	0.007870	0.000615	0.000000	0.000000
28.075154	17.519682	15.743213	-1.815568	1.448400	2.610740	0.000000	0.253876	0.000000	0.008186	0.000822	0.000000	0.000000
28.521114	19.405379	14.317333	-2.426750	1.734997	2.740397	0.000000	0.329607	0.000000	0.008601	0.001040	0.000000	0.000000
29.070174	21.802997	12.729272	-1.913078	1.174037	2.898221	0.000000	0.246084	0.000000	0.009095	0.000753	0.000000	0.000000
29.619234	23.558359	11.708009	-1.264206	0.696719	3.009071	0.000000	0.158207	0.000000	0.009426	0.000453	0.000000	0.000000
30.168294	24.547388	11.180790	-0.525991	0.269039	3.070985	0.000000	0.067530	0.000000	0.009591	0.000145	0.000000	0.000000
30.717354	24.700178	11.110058	0.249396	-0.139473	3.082866	0.000000	-0.024342	0.000000	0.009585	-0.000166	0.000000	0.000000
31.015927	24.590288	11.185577	0.177651	-0.140024	3.077843	0.000000	-0.016951	0.000000	0.009543	-0.000141	0.000000	0.000000
31.349260	24.476515	11.289055	0.163667	-0.170409	3.072240	0.000000	-0.016951	0.000000	0.009496	-0.000141	0.000000	0.000000
31.682593	24.372065	11.412789	0.149684	-0.200793	3.066637	0.000000	-0.016951	0.000000	0.009449	-0.000141	0.000000	0.000000
32.017177	24.276598	11.557357	0.135648	-0.231292	3.061012	0.000000	-0.016951	0.000000	0.009402	-0.000141	0.000000	0.000000
32.314499	24.199706	11.702922	0.065028	-0.230294	3.056018	0.000000	-0.009608	0.000000	0.009359	-0.000118	0.000000	0.000000
32.863559	23.713965	12.194582	0.814110	-0.670332	3.025934	0.000000	-0.100314	0.000000	0.009212	-0.000419	0.000000	0.000000
33.412619	22.432315	13.192752	1.505655	-1.158127	2.946611	0.000000	-0.189248	0.000000	0.008901	-0.000712	0.000000	0.000000
33.961679	20.445351	14.768539	2.090791	-1.728431	2.819453	0.000000	-0.274836	0.000000	0.008432	-0.000993	0.000000	0.000000
34.510739	17.893515	17.034193	2.528170	-2.421872	2.646709	0.000000	-0.355563	0.000000	0.007813	-0.001256	0.000000	0.000000
34.956699	15.910701	19.061021	1.932855	-2.103518	2.505010	0.000000	-0.282426	0.000000	0.007297	-0.001060	0.000000	0.000000
35.397659	14.432652	20.740524	1.430989	-1.690343	2.396295	0.000000	-0.212948	0.000000	0.006870	-0.000878	0.000000	0.000000
35.838619	13.366899	22.020151	0.994528	-1.200247	2.317583	0.000000	-0.145886	0.000000	0.006521	-0.000705	0.000000	0.000000
36.279579	12.664720	22.841676	0.603523	-0.655532	2.267982	0.000000	-0.080479	0.000000	0.006247	-0.000541	0.000000	0.000000
36.721789	12.293358	23.168033	0.268392	-0.134435	2.246905	0.000000	-0.021173	0.000000	0.006043	-0.000397	0.000000	0.000000
37.019112	12.141469	23.251859	0.242464	-0.147500	2.240727	0.000000	-0.021173	0.000000	0.005925	-0.000397	0.000000	0.000000
37.352445	11.989516	23.355074	0.213396	-0.162147	2.233802	0.000000	-0.021173	0.000000	0.005793	-0.000397	0.000000	0.000000
37.685779	11.856941	23.468055	0.184328	-0.176795	2.226876	0.000000	-0.021173	0.000000	0.005661	-0.000397	0.000000	0.000000
38.020362	11.743358	23.591280	0.155151	-0.191498	2.219925	0.000000	-0.021173	0.000000	0.005528	-0.000397	0.000000	0.000000
38.317684	11.658797	23.709058	0.156331	-0.259825	2.213747	0.000000	-0.026320	0.000000	0.005410	-0.000409	0.000000	0.000000
38.758644	11.670165	23.675476	-0.182320	0.335688	2.216262	0.000000	0.037080	0.000000	0.005260	-0.000272	0.000000	0.000000
39.199604	11.982768	23.121415	-0.529300	0.915924	2.246746	0.000000	0.100906	0.000000	0.005170	-0.000137	0.000000	0.000000
39.640564	12.610890	22.072091	-0.900468	1.454480	2.305546	0.000000	0.165883	0.000000	0.005139	-0.000005	0.000000	0.000000
40.081524	13.583238	20.575254	-1.312784	1.926849	2.393333	0.000000	0.232749	0.000000	0.005166	0.000128	0.000000	0.000000
40.527484	14.961783	18.676315	-1.788995	2.312966	2.512589	0.000000	0.302689	0.000000	0.005253	0.000263	0.000000	0.000000
41.076544	16.723182	16.541879	-1.399715	1.597125	2.658070	0.000000	0.226759	0.000000	0.005351	0.000092	0.000000	0.000000
41.625604	17.999859	15.126858	-0.911543	0.995061	2.760781	0.000000	0.146807	0.000000	0.005353	-0.000082	0.000000	0.000000
42.174664	18.701606	14.330451	-0.358971	0.463883	2.818901	0.000000	0.064250	0.000000	0.005261	-0.000254	0.000000	0.000000
42.723724	18.778845	14.095922	0.218958	-0.034247	2.831397	0.000000	-0.019451	0.000000	0.005075	-0.000421	0.000000	0.000000
43.022297	18.681004	14.101611	0.155639	-0.020100	2.827824	0.000000	-0.012372	0.000000	0.004954	-0.000408	0.000000	0.000000
43.502297	18.544223	14.137252	0.129322	-0.054152	2.822082	0.000000	-0.012372	0.000000	0.004758	-0.000408	0.000000	0.000000
43.982297	18.432706	14.205583	0.103005	-0.088205	2.816339	0.000000	-0.012372	0.000000	0.004562	-0.000408	0.000000	0.000000
44.462297	18.346453	14.306604	0.076688	-0.122257	2.810596	0.000000	-0.012372	0.000000	0.004366	-0.000408	0.000000	0.000000
44.942297	18.285464	14.440316	0.050371	-0.156309	2.804854	0.000000	-0.012372	0.000000	0.004170	-0.000408	0.000000	0.000000
45.423547	18.249906	14.607014	-0.066435	-0.118078	2.799113	0.000000	0.001496	0.000000	0.003973	-0.000389	0.000000	0.000000
45.720870	18.294285	14.683358	-0.129038	-0.101685	2.799674	0.000000	0.008573	0.000000	0.003858	-0.000379	0.000000	0.000000
46.269930	18.127742	15.078710	0.430320	-0.622579	2.781914	0.000000	-0.074012	0.000000	0.003616	-0.000500	0.000000	0.000000
46.818990	17.360037	16.066944	0.959268	-1.187821	2.719162	0.000000	-0.155291	0.000000	0.003310	-0.000612	0.000000	0.000000
47.368050	16.045420	17.718447	1.420437	-1.837673	2.612526	0.000000	-0.233826	0.000000	0.002946	-0.000713	0.000000	0.000000
47.917110	14.276781	20.150850	1.781250	-2.618426	2.463894	0.000000	-0.308224	0.000000	0.002529	-0.000802	0.000000	0.000000
48.363070	12.899482	22.312959	1.317685	-2.209271	2.342132	0.000000	-0.239596	0.000000	0.002185	-0.000741	0.000000	0.000000
48.804030	11.917165	24.043846	0.918126	-1.700948	2.251310	0.000000	-0.174095	0.000000	0.001871	-0.000689	0.000000	0.000000
49.244990	11.267491	25.290443	0.560523	-1.115231	2.188889	0.000000	-0.110570	0.000000	0.001577	-0.000644	0.000000	0.000000
49.685950	10.920770	25.996034	0.228534	-0.478773	2.154162	0.000000	-0.048297	0.000000	0.001301	-0.000607	0.000000	0.000000
50.128160	10.861319	26.128231	-0.066752	0.116191	2.146746	0.000000	0.008220	0.000000	0.001040	-0.000579	0.000000	0.000000
50.425482	10.909188	26.062567	-0.094248	0.104658	2.149362	0.000000	0.008220	0.000000	0.000867	-0.000579	0.000000	0.000000
50.758816	10.982296	25.997105	-0.125075	0.091729	2.152295	0.000000	0.008220	0.000000	0.000674	-0.000579	0.000000	0.000000
51.092149	11.075955	25.940263	-0.155902	0.078799	2.155228	0.000000	0.008220	0.000000	0.000481	-0.000579	0.000000	0.000000
51.426732	11.190405	25.892400	-0.096060	-0.144231	2.158150	0.000000	-0.009288	0.000000	0.000287	-0.000582	0.000000	0.000000
51.724055	11.255499	25.981652	-0.095303	-0.219815	2.155562	0.000000	-0.014569	0.000000	0.000114	-0.000582	0.000000	0.000000
52.165015	11.486161	25.886318	-0.429959	0.435189	2.163039	0.000000	0.047387	0.000000	-0.000142	-0.000582	0.000000	0.000000
52.605975	12.019469	25.219884	-0.784255	1.070391	2.197932	0.000000	0.109888	0.000000	-0.000400	-0.000589	0.000000	0.000000
53.046935	12.879784	24.012678	-1.174376	1.656888	2.260640	0.000000	0.173648	0.000000	-0.000663	-0.000603	0.000000	0.000000
53.487895	14.106404	22.319633	-1.618145	2.167998	2.351880	0.000000	0.239391	0.000000	-0.000933	-0.000624	0.000000	0.000000
53.933855	15.776337	20.192486	-2.140107	2.581785	2.474207	0.000000	0.308265	0.000000	-0.001217	-0.000652	0.000000	0.000000
54.482915	17.925888	17.798550	-1.752064	1.804100	2.623497	0.000000	0.233534	0.000000	-0.001563	-0.000607	0.000000	0.000000
55.031975	19.578438	16.183447	-1.240284	1.154914	2.730527	0.000000	0.154652	0.000000	-0.001881	-0.000551	0.000000	0.000000
55.581035	20.617285	15.232132	-0.640914	0.587988	2.793393	0.000000	0.073017	0.000000	-0.002166	-0.000485	0.000000	0.000000
56.130095	20.969071	14.876840	0.003712	0.062944	2.810976	0.000000	-0.009921	0.000000	-0.002413	-0.000411	0.000000	0.000000
56.428668	21.004488	14.821582	-0.066455	0.082400	2.810375	0.000000	-0.002429	0.000000	-0.002537	-0.000417	0.000000	0.000000
56.762001	21.054104	14.774195	-0.082395	0.059758	2.809705	0.000000	-0.002429	0.000000	-0.002676	-0.000417	0.000000	0.000000
57.095334	21.114347	14.741904	-0.098334	0.037116	2.809034	0.000000	-0.002429	0.000000	-0.002816	-0.000417	0.000000	0.000000
57.429918	21.185502	14.724672	-0.114334	0.014388	2.808361	0.000000	-0.002429	0.000000	-0.002955	-0.000417	0.000000	0.000000
57.727240	21.257724	14.722117	-0.185515	0.033554	2.807764	0.000000	0.005095	0.000000	-0.003079	-0.000426	0.000000	0.000000
58.276300	21.098150	14.967587	0.474212	-0.483288	2.788000	0.000000	-0.077701	0.000000	-0.003285	-0.000322	0.000000	0.000000
58.825360	20.228377	15.796040	1.100440	-1.034548	2.723033	0.000000	-0.159125	0.000000	-0.003432	-0.000214	0.000000	0.000000
59.374420	18.709838	17.266476	1.648946	-1.659488	2.614013	0.000000	-0.237730	0.000000	-0.003519	-0.000101	0.000000	0.000000
59.923480	16.649776	19.483617	2.080994	-2.402618	2.462871	0.000000	-0.312120	0.000000	-0.003543	0.000013	0.000000	0.000000
60.369440	15.036272	21.454026	1.549958	-1.997214	2.339046	0.000000	-0.243572	0.000000	-0.003557	-0.000079	0.000000	0.000000
60.810400	13.874870	23.002966	1.093919	-1.502254	2.246203	0.000000	-0.178186	0.000000	-0.003612	-0.000171	0.000000	0.000000
61.251360	13.092154	24.083495	0.687852	-0.938950	2.181757	0.000000	-0.114827	0.000000	-0.003709	-0.000265	0.000000	0.000000
61.692320	12.652367	24.646455	0.313208	-0.332930	2.144976	0.000000	-0.052773	0.000000	-0.003847	-0.000363	0.000000	0.000000
62.134530	12.535465	24.665662	-0.015326	0.225578	2.135446	0.000000	0.003250	0.000000	-0.004030	-0.000454	0.000000	0.000000
62.431853	12.551632	24.535289	-0.039050	0.212911	2.136548	0.000000	0.003250	0.000000	-0.004165	-0.000454	0.000000	0.000000
62.765186	12.586531	24.398083	-0.065647	0.198709	2.137783	0.000000	0.003250	0.000000	-0.004316	-0.000454	0.000000	0.000000
63.098520	12.639162	24.270344	-0.092245	0.184507	2.139017	0.000000	0.003250	0.000000	-0.004468	-0.000454	0.000000	0.000000
63.433103	12.709822	24.151648	-0.118942	0.170252	2.140257	0.000000	0.003250	0.000000	-0.004620	-0.000454	0.000000	0.000000
63.730426	12.787595	24.054190	-0.109916	0.095824	2.141357	0.000000	-0.002234	0.000000	-0.004755	-0.000442	0.000000	0.000000
64.171386	13.046652	23.704880	-0.480023	0.693374	2.154167	0.000000	0.059416	0.000000	-0.004977	-0.000568	0.000000	0.000000
64.612346	13.640462	22.840569	-0.872052	1.259378	2.194340	0.000000	0.121749	0.000000	-0.005256	-0.000700	0.000000	0.000000
65.053306	14.596138	21.500583	-1.303908	1.768087	2.262335	0.000000	0.185476	0.000000	-0.005595	-0.000840	0.000000	0.000000
65.494266	15.957321	19.745888	-1.795313	2.196360	2.358931	0.000000	0.251325	0.000000	-0.005998	-0.000989	0.000000	0.000000
65.940226	17.809443	17.631492	-2.373275	2.525322	2.486807	0.000000	0.320427	0.000000	-0.006475	-0.001151	0.000000	0.000000
66.489286	20.181444	15.266602	-1.922245	1.807674	2.642852	0.000000	0.245192	0.000000	-0.007047	-0.000932	0.000000	0.000000
67.038346	21.980332	13.614828	-1.335497	1.218761	2.756211	0.000000	0.165593	0.000000	-0.007495	-0.000696	0.000000	0.000000
67.587406	23.079119	12.558525	-0.654462	0.716642	2.824865	0.000000	0.083047	0.000000	-0.007809	-0.000448	0.000000	0.000000
68.136466	23.400248	12.022462	0.072775	0.265559	2.847595	0.000000	-0.000980	0.000000	-0.007985	-0.000192	0.000000	0.000000
68.435038	23.399458	11.851979	-0.005131	0.272006	2.849731	0.000000	0.006948	0.000000	-0.008049	-0.000214	0.000000	0.000000
68.768372	23.407627	11.680710	-0.019377	0.241800	2.852118	0.000000	0.006948	0.000000	-0.008121	-0.000214	0.000000	0.000000
69.101705	23.425294	11.529579	-0.033622	0.211595	2.854506	0.000000	0.006948	0.000000	-0.008192	-0.000214	0.000000	0.000000
69.436288	23.452577	11.398131	-0.047921	0.181276	2.856902	0.000000	0.006948	0.000000	-0.008263	-0.000214	0.000000	0.000000
69.733611	23.484899	11.298324	-0.126176	0.185831	2.859034	0.000000	0.014928	0.000000	-0.008327	-0.000236	0.000000	0.000000
70.282671	23.220160	11.320770	0.605479	-0.226958	2.844060	0.000000	-0.069594	0.000000	-0.008383	0.000034	0.000000	0.000000
