#ParticleID	Turn	x[m]	xp	y[m]	yp	z[m]	dE[GeV]# s	beta_x	beta_y	alpha_x	alpha_y	D_x	D_y	D_px	D_py	orbit_x	orbit_px	orbit_y	orbit_py
0.300000	11.954760	25.314131	-0.020103	-0.021737	2.600166	0.000000	0.000562	0.000000	-0.000788	0.000687	0.000000	0.000000
0.601250	11.974467	25.330814	-0.045313	-0.033643	2.600128	0.000000	0.000562	0.000000	-0.000582	0.000687	0.000000	0.000000
0.898573	12.008809	25.354314	-0.040639	-0.107543	2.600091	0.000000	-0.005836	0.000000	-0.000377	0.000688	0.000000	0.000000
1.339533	12.198467	25.167767	-0.390860	0.528982	2.613417	0.000000	0.067654	0.000000	-0.000075	0.000682	0.000000	0.000000
1.780493	12.703676	24.428362	-0.758943	1.141441	2.659288	0.000000	0.141907	0.000000	0.000226	0.000684	0.000000	0.000000
2.221453	13.547522	23.169736	-1.161706	1.701968	2.738224	0.000000	0.217770	0.000000	0.000529	0.000694	0.000000	0.000000
2.662413	14.768569	21.449149	-1.617551	2.185057	2.851119	0.000000	0.296106	0.000000	0.000839	0.000711	0.000000	0.000000
3.108373	16.443697	19.319674	-2.151676	2.569894	3.001108	0.000000	0.378297	0.000000	0.001161	0.000737	0.000000	0.000000
3.657433	18.591046	16.927569	-1.735690	1.812465	3.183359	0.000000	0.285949	0.000000	0.001555	0.000693	0.000000	0.000000
4.206493	20.211148	15.291870	-1.197081	1.184136	3.313467	0.000000	0.188541	0.000000	0.001921	0.000637	0.000000	0.000000
4.755553	21.189539	14.296075	-0.573896	0.640152	3.389129	0.000000	0.087798	0.000000	0.002252	0.000569	0.000000	0.000000
5.304613	21.457085	13.869260	0.089842	0.141765	3.409005	0.000000	-0.014493	0.000000	0.002544	0.000492	0.000000	0.000000
5.603185	21.440352	13.770121	0.021049	0.154924	3.407132	0.000000	-0.005777	0.000000	0.002693	0.000498	0.000000	0.000000
5.936519	21.431504	13.675101	0.005495	0.130136	3.405040	0.000000	-0.005777	0.000000	0.002859	0.000498	0.000000	0.000000
6.269852	21.433026	13.596607	-0.010059	0.105348	3.402948	0.000000	-0.005777	0.000000	0.003025	0.000498	0.000000	0.000000
6.604435	21.444981	13.534436	-0.025671	0.080467	3.400849	0.000000	-0.005777	0.000000	0.003192	0.000498	0.000000	0.000000
6.901758	21.464378	13.493156	-0.094043	0.092715	3.398983	0.000000	0.002853	0.000000	0.003340	0.000507	0.000000	0.000000
7.450818	21.201581	13.653099	0.570092	-0.385723	3.372310	0.000000	-0.099006	0.000000	0.003588	0.000395	0.000000	0.000000
7.999878	20.227301	14.350369	1.193960	-0.891640	3.290170	0.000000	-0.199102	0.000000	0.003772	0.000275	0.000000	0.000000
8.548938	18.610362	15.634640	1.733485	-1.461075	3.154022	0.000000	-0.295663	0.000000	0.003890	0.000151	0.000000	0.000000
9.097998	16.464998	17.597400	2.150548	-2.134591	2.966284	0.000000	-0.386975	0.000000	0.003938	0.000025	0.000000	0.000000
9.543958	14.791117	19.346098	1.616077	-1.769824	2.811872	0.000000	-0.305726	0.000000	0.003972	0.000127	0.000000	0.000000
9.984918	13.571619	20.716465	1.159882	-1.325862	2.694125	0.000000	-0.228457	0.000000	0.004050	0.000231	0.000000	0.000000
10.425878	12.729680	21.667068	0.756687	-0.821566	2.609802	0.000000	-0.153792	0.000000	0.004175	0.000337	0.000000	0.000000
10.866838	12.226829	22.154649	0.388066	-0.279885	2.557941	0.000000	-0.080883	0.000000	0.004348	0.000446	0.000000	0.000000
11.309048	12.039932	22.156448	0.065306	0.222339	2.537931	0.000000	-0.014851	0.000000	0.004571	0.000550	0.000000	0.000000
11.606371	12.008472	22.028422	0.040506	0.208257	2.533352	0.000000	-0.014851	0.000000	0.004734	0.000550	0.000000	0.000000
12.086371	11.988804	21.839408	0.000469	0.185522	2.525959	0.000000	-0.014851	0.000000	0.004998	0.000550	0.000000	0.000000
12.566371	12.007572	21.672220	-0.039569	0.162787	2.518566	0.000000	-0.014851	0.000000	0.005263	0.000550	0.000000	0.000000
13.046371	12.064776	21.526858	-0.079606	0.140051	2.511174	0.000000	-0.014851	0.000000	0.005527	0.000550	0.000000	0.000000
13.526371	12.160416	21.403322	-0.119644	0.117316	2.503781	0.000000	-0.014851	0.000000	0.005791	0.000550	0.000000	0.000000
14.007621	12.294891	21.301374	-0.159785	0.094522	2.496369	0.000000	-0.014851	0.000000	0.006056	0.000550	0.000000	0.000000
14.304943	12.397267	21.249378	-0.156002	0.031604	2.491788	0.000000	-0.020596	0.000000	0.006220	0.000536	0.000000	0.000000
14.745903	12.693771	20.989091	-0.518675	0.556371	2.498008	0.000000	0.050023	0.000000	0.006492	0.000699	0.000000	0.000000
15.186863	13.319395	20.275394	-0.905058	1.055821	2.535395	0.000000	0.121204	0.000000	0.006838	0.000871	0.000000	0.000000
15.627823	14.302741	19.140761	-1.332809	1.507225	2.604371	0.000000	0.193757	0.000000	0.007262	0.001053	0.000000	0.000000
16.068783	15.688766	17.636818	-1.821482	1.890040	2.705718	0.000000	0.268506	0.000000	0.007768	0.001247	0.000000	0.000000
16.514743	17.564459	15.810433	-2.398327	2.187738	2.842284	0.000000	0.346789	0.000000	0.008371	0.001456	0.000000	0.000000
17.063803	19.972661	13.771905	-1.960485	1.546474	3.008392	0.000000	0.259828	0.000000	0.009094	0.001173	0.000000	0.000000
17.612863	21.820558	12.373359	-1.384085	1.015385	3.125571	0.000000	0.168277	0.000000	0.009655	0.000869	0.000000	0.000000
18.161923	22.977524	11.515170	-0.709861	0.556637	3.191750	0.000000	0.073754	0.000000	0.010046	0.000550	0.000000	0.000000
18.710983	23.361770	11.136203	0.014538	0.137547	3.205759	0.000000	-0.022069	0.000000	0.010258	0.000221	0.000000	0.000000
19.009556	23.390071	11.046503	-0.053916	0.136506	3.201371	0.000000	-0.014432	0.000000	0.010331	0.000247	0.000000	0.000000
19.342889	23.430779	10.965745	-0.068209	0.105768	3.196478	0.000000	-0.014432	0.000000	0.010414	0.000247	0.000000	0.000000
19.676223	23.481016	10.905479	-0.082501	0.075031	3.191585	0.000000	-0.014432	0.000000	0.010496	0.000247	0.000000	0.000000
20.010806	23.541315	10.865459	-0.213484	0.098012	3.186694	0.000000	0.001357	0.000000	0.010579	0.000299	0.000000	0.000000
20.308129	23.672267	10.815355	-0.282853	0.096098	3.187013	0.000000	0.008918	0.000000	0.010668	0.000326	0.000000	0.000000
20.857189	23.574771	10.929516	0.459447	-0.305215	3.165688	0.000000	-0.086180	0.000000	0.010751	-0.000021	0.000000	0.000000
21.406249	22.674967	11.493719	1.169279	-0.728274	3.092666	0.000000	-0.179750	0.000000	0.010644	-0.000368	0.000000	0.000000
21.955309	21.036459	12.548159	1.796473	-1.203221	2.969241	0.000000	-0.270136	0.000000	0.010349	-0.000708	0.000000	0.000000
22.504369	18.775069	14.167954	2.296701	-1.763893	2.797602	0.000000	-0.355740	0.000000	0.009869	-0.001036	0.000000	0.000000
22.950329	16.994792	15.623160	1.708300	-1.484922	2.656585	0.000000	-0.278665	0.000000	0.009463	-0.000785	0.000000	0.000000
23.391289	15.715617	16.784952	1.202898	-1.139389	2.550262	0.000000	-0.205243	0.000000	0.009170	-0.000545	0.000000	0.000000
23.832249	14.856440	17.617848	0.752479	-0.742003	2.475674	0.000000	-0.134154	0.000000	0.008982	-0.000311	0.000000	0.000000
24.273209	14.377982	18.083946	0.336456	-0.310848	2.431975	0.000000	-0.064589	0.000000	0.008896	-0.000080	0.000000	0.000000
24.715418	14.258482	18.161760	-0.032325	0.093647	2.418666	0.000000	-0.001180	0.000000	0.008911	0.000129	0.000000	0.000000
25.012741	14.283911	18.110983	-0.053199	0.077133	2.418277	0.000000	-0.001180	0.000000	0.008950	0.000129	0.000000	0.000000
25.346075	14.327178	18.065732	-0.076602	0.058618	2.417841	0.000000	-0.001180	0.000000	0.008993	0.000129	0.000000	0.000000
25.679408	14.386046	18.032825	-0.100004	0.040104	2.417405	0.000000	-0.001180	0.000000	0.009035	0.000129	0.000000	0.000000
26.013991	14.460532	18.012572	-0.006181	-0.124607	2.416943	0.000000	-0.020787	0.000000	0.009078	0.000055	0.000000	0.000000
26.311314	14.470286	18.091697	0.005619	-0.181821	2.410743	0.000000	-0.026179	0.000000	0.009095	0.000034	0.000000	0.000000
26.752274	14.644154	18.056071	-0.401295	0.262294	2.414235	0.000000	0.042320	0.000000	0.009161	0.000269	0.000000	0.000000
27.193234	15.183683	17.632508	-0.826553	0.694472	2.447912	0.000000	0.111299	0.000000	0.009332	0.000507	0.000000	0.000000
27.634194	16.113540	16.840280	-1.289594	1.095046	2.512158	0.000000	0.181540	0.000000	0.009610	0.000752	0.000000	0.000000
28.075154	17.476243	15.715437	-1.811585	1.445784	2.607700	0.000000	0.253841	0.000000	0.009997	0.001004	0.000000	0.000000
28.521114	19.357970	14.292091	-2.421514	1.731828	2.737244	0.000000	0.329501	0.000000	0.010503	0.001270	0.000000	0.000000
29.070174	21.750724	12.706982	-1.909267	1.171717	2.894936	0.000000	0.246076	0.000000	0.011106	0.000920	0.000000	0.000000
29.619234	23.502902	11.687847	-1.262074	0.695087	3.005742	0.000000	0.158301	0.000000	0.011511	0.000554	0.000000	0.000000
30.168294	24.490636	11.162081	-0.525677	0.267981	3.067703	0.000000	0.067725	0.000000	0.011712	0.000177	0.000000	0.000000
30.717354	24.644096	11.092231	0.247873	-0.140032	3.079719	0.000000	-0.024049	0.000000	0.011705	-0.000202	0.000000	0.000000
31.015927	24.534290	11.168460	0.177443	-0.141215	3.074744	0.000000	-0.016816	0.000000	0.011654	-0.000173	0.000000	0.000000
31.349260	24.420666	11.272750	0.163429	-0.171656	3.069196	0.000000	-0.016816	0.000000	0.011596	-0.000173	0.000000	0.000000
31.682593	24.316384	11.397334	0.149415	-0.202097	3.063648	0.000000	-0.016816	0.000000	0.011538	-0.000173	0.000000	0.000000
32.017177	24.221107	11.542794	0.135348	-0.232652	3.058080	0.000000	-0.016816	0.000000	0.011480	-0.000173	0.000000	0.000000
32.314499	24.144432	11.689168	0.065987	-0.232301	3.053137	0.000000	-0.009626	0.000000	0.011429	-0.000145	0.000000	0.000000
32.863559	23.658596	12.182892	0.813256	-0.672078	3.023098	0.000000	-0.100246	0.000000	0.011248	-0.000512	0.000000	0.000000
33.412619	22.378779	13.182924	1.503041	-1.159739	2.943900	0.000000	-0.189095	0.000000	0.010868	-0.000870	0.000000	0.000000
33.961679	20.395459	14.760506	2.086590	-1.730028	2.816944	0.000000	-0.274603	0.000000	0.010295	-0.001213	0.000000	0.000000
34.510739	17.848843	17.028020	2.522662	-2.423574	2.644475	0.000000	-0.355259	0.000000	0.009540	-0.001535	0.000000	0.000000
34.956699	15.870256	19.056590	1.928571	-2.105561	2.503006	0.000000	-0.282169	0.000000	0.008909	-0.001295	0.000000	0.000000
35.397659	14.395431	20.738065	1.427767	-1.692670	2.394482	0.000000	-0.212738	0.000000	0.008387	-0.001072	0.000000	0.000000
35.838619	13.332051	22.019857	0.992226	-1.202749	2.315926	0.000000	-0.145719	0.000000	0.007961	-0.000862	0.000000	0.000000
36.279579	12.631499	22.843641	0.602040	-0.658093	2.266449	0.000000	-0.080350	0.000000	0.007626	-0.000661	0.000000	0.000000
36.721789	12.261095	23.172238	0.267196	-0.136178	2.245464	0.000000	-0.021005	0.000000	0.007377	-0.000485	0.000000	0.000000
37.019112	12.109933	23.257102	0.241215	-0.149247	2.239363	0.000000	-0.021005	0.000000	0.007233	-0.000485	0.000000	0.000000
37.352445	11.958832	23.361484	0.212088	-0.163899	2.232523	0.000000	-0.021005	0.000000	0.007071	-0.000485	0.000000	0.000000
37.685779	11.827150	23.475634	0.182961	-0.178551	2.225683	0.000000	-0.021005	0.000000	0.006909	-0.000485	0.000000	0.000000
38.020362	11.714500	23.600035	0.153724	-0.193258	2.218817	0.000000	-0.021005	0.000000	0.006747	-0.000485	0.000000	0.000000
38.317684	11.630799	23.718870	0.154456	-0.260965	2.212715	0.000000	-0.026087	0.000000	0.006603	-0.000500	0.000000	0.000000
38.758644	11.643539	23.686170	-0.183593	0.334833	2.215360	0.000000	0.037291	0.000000	0.006420	-0.000333	0.000000	0.000000
39.199604	11.957019	23.132714	-0.530029	0.915393	2.245952	0.000000	0.101097	0.000000	0.006309	-0.000169	0.000000	0.000000
39.640564	12.585565	22.083689	-0.900685	1.454295	2.304841	0.000000	0.166056	0.000000	0.006271	-0.000006	0.000000	0.000000
40.081524	13.557902	20.586836	-1.312503	1.927016	2.392697	0.000000	0.232907	0.000000	0.006304	0.000156	0.000000	0.000000
40.527484	14.936016	18.687542	-1.788225	2.313507	2.512005	0.000000	0.302836	0.000000	0.006410	0.000321	0.000000	0.000000
41.076544	16.697154	16.552653	-1.399943	1.597347	2.657553	0.000000	0.226921	0.000000	0.006529	0.000111	0.000000	0.000000
41.625604	17.974643	15.137530	-0.912746	0.994984	2.760359	0.000000	0.146982	0.000000	0.006531	-0.000101	0.000000	0.000000
42.174664	18.678212	14.341359	-0.361062	0.463504	2.818599	0.000000	0.064434	0.000000	0.006418	-0.000310	0.000000	0.000000
42.723724	18.758150	14.107419	0.216126	-0.034954	2.831237	0.000000	-0.019263	0.000000	0.006192	-0.000515	0.000000	0.000000
43.022297	18.661682	14.113714	0.153326	-0.021097	2.827725	0.000000	-0.012256	0.000000	0.006043	-0.000499	0.000000	0.000000
43.502297	18.527125	14.150299	0.127000	-0.055121	2.822082	0.000000	-0.012256	0.000000	0.005803	-0.000499	0.000000	0.000000
43.982297	18.417841	14.219547	0.100674	-0.089146	2.816439	0.000000	-0.012256	0.000000	0.005564	-0.000499	0.000000	0.000000
44.462297	18.333830	14.321459	0.074348	-0.123171	2.810795	0.000000	-0.012256	0.000000	0.005324	-0.000499	0.000000	0.000000
44.942297	18.275092	14.456035	0.048023	-0.157195	2.805152	0.000000	-0.012256	0.000000	0.005085	-0.000499	0.000000	0.000000
45.423547	18.241799	14.623571	-0.068752	-0.118854	2.799512	0.000000	0.001615	0.000000	0.004845	-0.000475	0.000000	0.000000
45.720870	18.287563	14.700368	-0.131004	-0.102695	2.800134	0.000000	0.008639	0.000000	0.004703	-0.000463	0.000000	0.000000
46.269930	18.123250	15.097133	0.428194	-0.624150	2.782457	0.000000	-0.073963	0.000000	0.004408	-0.000610	0.000000	0.000000
46.818990	17.357857	16.087459	0.957130	-1.190064	2.719790	0.000000	-0.155264	0.000000	0.004035	-0.000747	0.000000	0.000000
47.368050	16.045475	17.741883	1.418434	-1.840751	2.613239	0.000000	-0.233822	0.000000	0.003590	-0.000871	0.000000	0.000000
47.917110	14.278842	20.178243	1.779518	-2.622559	2.464689	0.000000	-0.308247	0.000000	0.003082	-0.000979	0.000000	0.000000
48.363070	12.902996	22.343808	1.316058	-2.212820	2.342995	0.000000	-0.239595	0.000000	0.002662	-0.000904	0.000000	0.000000
48.804030	11.922059	24.077525	0.916540	-1.703768	2.252245	0.000000	-0.174070	0.000000	0.002277	-0.000841	0.000000	0.000000
49.244990	11.273768	25.326246	0.558906	-1.117194	2.189904	0.000000	-0.110519	0.000000	0.001919	-0.000787	0.000000	0.000000
49.685950	10.928490	26.033160	0.226816	-0.479789	2.155263	0.000000	-0.048219	0.000000	0.001582	-0.000742	0.000000	0.000000
50.128160	10.870615	26.165816	-0.068685	0.116261	2.147945	0.000000	0.008337	0.000000	0.001263	-0.000708	0.000000	0.000000
50.425482	10.919629	26.100106	-0.096165	0.104744	2.150634	0.000000	0.008337	0.000000	0.001052	-0.000708	0.000000	0.000000
50.758816	10.994008	26.034581	-0.126973	0.091833	2.153649	0.000000	0.008337	0.000000	0.000816	-0.000708	0.000000	0.000000
51.092149	11.088926	25.977662	-0.157781	0.078921	2.156664	0.000000	0.008337	0.000000	0.000580	-0.000708	0.000000	0.000000
51.426732	11.204628	25.929713	-0.097806	-0.144393	2.159668	0.000000	-0.009184	0.000000	0.000344	-0.000711	0.000000	0.000000
51.724055	11.270753	26.019056	-0.096991	-0.220089	2.157149	0.000000	-0.014467	0.000000	0.000132	-0.000711	0.000000	0.000000
52.165015	11.503052	25.923526	-0.432041	0.435906	2.164735	0.000000	0.047531	0.000000	-0.000181	-0.000712	0.000000	0.000000
52.605975	12.038384	25.256034	-0.786825	1.072065	2.199756	0.000000	0.110078	0.000000	-0.000497	-0.000720	0.000000	0.000000
53.046935	12.901201	24.046959	-1.177550	1.659443	2.262615	0.000000	0.173886	0.000000	-0.000818	-0.000737	0.000000	0.000000
53.487895	14.130911	22.351317	-1.622067	2.171318	2.354030	0.000000	0.239683	0.000000	-0.001148	-0.000763	0.000000	0.000000
53.933855	15.804711	20.220928	-2.144956	2.585714	2.476560	0.000000	0.308614	0.000000	-0.001496	-0.000797	0.000000	0.000000
54.482915	17.959183	17.823284	-1.756209	1.806983	2.626094	0.000000	0.233804	0.000000	-0.001919	-0.000742	0.000000	0.000000
55.031975	19.615716	16.205501	-1.243436	1.156956	2.733316	0.000000	0.154835	0.000000	-0.002308	-0.000673	0.000000	0.000000
55.581035	20.657333	15.252343	-0.642856	0.589335	2.796318	0.000000	0.073109	0.000000	-0.002656	-0.000593	0.000000	0.000000
56.130095	21.010485	14.895911	0.003116	0.063690	2.813978	0.000000	-0.009924	0.000000	-0.002957	-0.000502	0.000000	0.000000
56.428668	21.046462	14.840056	-0.067382	0.083413	2.813416	0.000000	-0.002391	0.000000	-0.003109	-0.000510	0.000000	0.000000
56.762001	21.096686	14.791987	-0.083292	0.060795	2.812789	0.000000	-0.002391	0.000000	-0.003279	-0.000510	0.000000	0.000000
57.095334	21.157517	14.758996	-0.099201	0.038177	2.812162	0.000000	-0.002391	0.000000	-0.003449	-0.000510	0.000000	0.000000
57.429918	21.229243	14.741045	-0.115171	0.015474	2.811533	0.000000	-0.002391	0.000000	-0.003619	-0.000510	0.000000	0.000000
57.727240	21.301957	14.737836	-0.186760	0.034903	2.810974	0.000000	0.005183	0.000000	-0.003771	-0.000520	0.000000	0.000000
58.276300	21.142911	14.982062	0.474453	-0.482361	2.791275	0.000000	-0.077716	0.000000	-0.004022	-0.000393	0.000000	0.000000
58.825360	20.272050	15.809688	1.102151	-1.033976	2.726303	0.000000	-0.159244	0.000000	-0.004201	-0.000260	0.000000	0.000000
59.374420	18.750882	17.279654	1.652007	-1.659230	2.617208	0.000000	-0.237951	0.000000	-0.004307	-0.000122	0.000000	0.000000
59.923480	16.686831	19.496648	2.085192	-2.402651	2.465923	0.000000	-0.312441	0.000000	-0.004336	0.000018	0.000000	0.000000
60.369440	15.070045	21.466894	1.553159	-1.996837	2.341975	0.000000	-0.243820	0.000000	-0.004353	-0.000095	0.000000	0.000000
60.810400	13.906219	23.015302	1.096256	-1.501469	2.249051	0.000000	-0.178361	0.000000	-0.004420	-0.000208	0.000000	0.000000
61.251360	13.121782	24.094959	0.689431	-0.937795	2.184565	0.000000	-0.114930	0.000000	-0.004537	-0.000324	0.000000	0.000000
61.692320	12.680904	24.656750	0.314101	-0.331458	2.147784	0.000000	-0.052805	0.000000	-0.004705	-0.000443	0.000000	0.000000
62.134530	12.563489	24.674535	-0.014751	0.226811	2.138296	0.000000	0.003239	0.000000	-0.004929	-0.000555	0.000000	0.000000
62.431853	12.579299	24.543430	-0.038422	0.214141	2.139424	0.000000	0.003239	0.000000	-0.005093	-0.000555	0.000000	0.000000
62.765186	12.613759	24.405404	-0.064959	0.199937	2.140688	0.000000	0.003239	0.000000	-0.005278	-0.000555	0.000000	0.000000
63.098520	12.665911	24.276847	-0.091497	0.185733	2.141952	0.000000	0.003239	0.000000	-0.005463	-0.000555	0.000000	0.000000
63.433103	12.736050	24.157332	-0.118134	0.171475	2.143221	0.000000	0.003239	0.000000	-0.005649	-0.000555	0.000000	0.000000
63.730426	12.813324	24.059155	-0.108683	0.096424	2.144348	0.000000	-0.002304	0.000000	-0.005813	-0.000540	0.000000	0.000000
64.171386	13.071517	23.709273	-0.479340	0.694080	2.157191	0.000000	0.059422	0.000000	-0.006085	-0.000693	0.000000	0.000000
64.612346	13.664920	22.844317	-0.871885	1.260159	2.197443	0.000000	0.121832	0.000000	-0.006426	-0.000855	0.000000	0.000000
65.053306	14.620626	21.503645	-1.304246	1.768909	2.265564	0.000000	0.185639	0.000000	-0.006840	-0.001025	0.000000	0.000000
65.494266	15.982269	19.748251	-1.796167	2.197188	2.362334	0.000000	0.251571	0.000000	-0.007332	-0.001208	0.000000	0.000000
65.940226	17.835326	17.633152	-2.374644	2.526093	2.490440	0.000000	0.320757	0.000000	-0.007914	-0.001406	0.000000	0.000000
66.489286	20.208198	15.267532	-1.922670	1.808331	2.646754	0.000000	0.245404	0.000000	-0.008614	-0.001138	0.000000	0.000000
67.038346	22.006923	13.615117	-1.334961	1.219347	2.760287	0.000000	0.165680	0.000000	-0.009160	-0.000850	0.000000	0.000000
67.587406	23.104542	12.558219	-0.653013	0.717195	2.829019	0.000000	0.083005	0.000000	-0.009544	-0.000547	0.000000	0.000000
68.136466	23.423591	12.021564	0.075030	0.266115	2.851727	0.000000	-0.001151	0.000000	-0.009759	-0.000235	0.000000	0.000000
68.435038	23.421986	11.850497	-0.003796	0.272995	2.853860	0.000000	0.006894	0.000000	-0.009837	-0.000261	0.000000	0.000000
68.768372	23.429261	11.678575	-0.018028	0.242770	2.856245	0.000000	0.006894	0.000000	-0.009924	-0.000261	0.000000	0.000000
69.101705	23.446023	11.526803	-0.032260	0.212546	2.858630	0.000000	0.006894	0.000000	-0.010011	-0.000261	0.000000	0.000000
69.436288	23.472390	11.394725	-0.046545	0.182208	2.861024	0.000000	0.006894	0.000000	-0.010099	-0.000261	0.000000	0.000000
69.733611	23.503914	11.294357	-0.125744	0.187162	2.863155	0.000000	0.014995	0.000000	-0.010176	-0.000289	0.000000	0.000000
70.282671	23.238380	11.315271	0.606486	-0.225481	2.848195	0.000000	-0.069655	0.000000	-0.010244	0.000042	0.000000	0.000000
