#ParticleID	Turn	x[m]	xp	y[m]	yp	z[m]	dE[GeV]# s	beta_x	beta_y	alpha_x	alpha_y	D_x	D_y	D_px	D_py	orbit_x	orbit_px	orbit_y	orbit_py
0.300000	11.919112	25.216800	-0.019051	-0.023158	2.605621	0.000000	0.000601	0.000000	-0.000502	0.000440	0.000000	0.000000
0.601250	11.938207	25.234353	-0.044335	-0.035111	2.605670	0.000000	0.000601	0.000000	-0.000369	0.000440	0.000000	0.000000
0.898573	11.971989	25.258739	-0.039864	-0.108830	2.605718	0.000000	-0.005803	0.000000	-0.000238	0.000440	0.000000	0.000000
1.339533	12.160550	25.074437	-0.389221	0.525198	2.619196	0.000000	0.067835	0.000000	-0.000045	0.000437	0.000000	0.000000
1.780493	12.663867	24.339413	-0.756365	1.135331	2.665284	0.000000	0.142240	0.000000	0.000148	0.000438	0.000000	0.000000
2.221453	13.504940	23.087105	-1.158068	1.693809	2.744505	0.000000	0.218261	0.000000	0.000342	0.000444	0.000000	0.000000
2.662413	14.722201	21.374490	-1.612685	2.175221	2.857760	0.000000	0.296763	0.000000	0.000540	0.000456	0.000000	0.000000
3.108373	16.392290	19.254389	-2.145337	2.558815	3.008191	0.000000	0.379130	0.000000	0.000747	0.000473	0.000000	0.000000
3.657433	18.533409	16.872955	-1.730907	1.804024	3.190970	0.000000	0.286547	0.000000	0.000999	0.000444	0.000000	0.000000
4.206493	20.149190	15.245374	-1.194202	1.177731	3.321462	0.000000	0.188888	0.000000	0.001233	0.000408	0.000000	0.000000
4.755553	21.125485	14.255719	-0.573130	0.635327	3.397355	0.000000	0.087885	0.000000	0.001446	0.000365	0.000000	0.000000
5.304613	21.393317	13.833503	0.088434	0.138175	3.417307	0.000000	-0.014671	0.000000	0.001633	0.000315	0.000000	0.000000
5.603185	21.377599	13.736383	0.019333	0.151526	3.415460	0.000000	-0.005865	0.000000	0.001728	0.000319	0.000000	0.000000
5.936519	21.369910	13.643640	0.003735	0.126702	3.413399	0.000000	-0.005865	0.000000	0.001834	0.000319	0.000000	0.000000
6.269852	21.372620	13.567447	-0.011864	0.101878	3.411338	0.000000	-0.005865	0.000000	0.001941	0.000319	0.000000	0.000000
6.604435	21.385797	13.507610	-0.027521	0.076962	3.409269	0.000000	-0.005865	0.000000	0.002047	0.000319	0.000000	0.000000
6.901758	21.406302	13.468427	-0.096355	0.089438	3.407430	0.000000	0.002877	0.000000	0.002142	0.000325	0.000000	0.000000
7.450818	21.147047	13.631591	0.565900	-0.388354	3.380782	0.000000	-0.099252	0.000000	0.002301	0.000253	0.000000	0.000000
7.999878	20.178252	14.331468	1.188183	-0.893809	3.298497	0.000000	-0.199617	0.000000	0.002419	0.000176	0.000000	0.000000
8.548938	18.568352	15.617913	1.726534	-1.462934	3.162038	0.000000	-0.296438	0.000000	0.002494	0.000097	0.000000	0.000000
9.097998	16.431076	17.582564	2.142921	-2.136268	2.973826	0.000000	-0.387999	0.000000	0.002524	0.000015	0.000000	0.000000
9.543958	14.763409	19.333035	1.609783	-1.772188	2.819013	0.000000	-0.306568	0.000000	0.002546	0.000081	0.000000	0.000000
9.984918	13.549014	20.705708	1.154589	-1.328771	2.700964	0.000000	-0.229121	0.000000	0.002596	0.000147	0.000000	0.000000
10.425878	12.711395	21.659050	0.752150	-0.824890	2.616431	0.000000	-0.154286	0.000000	0.002676	0.000215	0.000000	0.000000
10.866838	12.212278	22.149680	0.384076	-0.283474	2.564450	0.000000	-0.081210	0.000000	0.002786	0.000286	0.000000	0.000000
11.309048	12.028708	22.154722	0.062120	0.217854	2.544409	0.000000	-0.015128	0.000000	0.002929	0.000352	0.000000	0.000000
11.606371	11.999146	22.029356	0.037307	0.203797	2.539806	0.000000	-0.015128	0.000000	0.003033	0.000352	0.000000	0.000000
12.086371	11.982559	21.844604	-0.002751	0.181103	2.532375	0.000000	-0.015128	0.000000	0.003202	0.000352	0.000000	0.000000
12.566371	12.004428	21.681639	-0.042810	0.158409	2.524945	0.000000	-0.015128	0.000000	0.003372	0.000352	0.000000	0.000000
13.046371	12.064753	21.540460	-0.082868	0.135714	2.517514	0.000000	-0.015128	0.000000	0.003541	0.000352	0.000000	0.000000
13.526371	12.163535	21.421067	-0.122927	0.113020	2.510083	0.000000	-0.015128	0.000000	0.003710	0.000352	0.000000	0.000000
14.007621	12.301181	21.323235	-0.163090	0.090267	2.502633	0.000000	-0.015128	0.000000	0.003879	0.000352	0.000000	0.000000
14.304943	12.405533	21.273747	-0.158639	0.026129	2.498030	0.000000	-0.021021	0.000000	0.003984	0.000343	0.000000	0.000000
14.745903	12.704423	21.017977	-0.521570	0.551660	2.504192	0.000000	0.049754	0.000000	0.004158	0.000448	0.000000	0.000000
15.186863	13.332692	20.308043	-0.908337	1.052089	2.541613	0.000000	0.121091	0.000000	0.004379	0.000558	0.000000	0.000000
15.627823	14.319056	19.176245	-1.336617	1.504645	2.610718	0.000000	0.193801	0.000000	0.004651	0.000674	0.000000	0.000000
16.068783	15.708598	17.674081	-1.825981	1.888733	2.712291	0.000000	0.268712	0.000000	0.004975	0.000798	0.000000	0.000000
16.514743	17.588450	15.848386	-2.403656	2.187711	2.849185	0.000000	0.347155	0.000000	0.005361	0.000932	0.000000	0.000000
17.063803	20.002067	13.810373	-1.965417	1.545725	3.015676	0.000000	0.259974	0.000000	0.005823	0.000751	0.000000	0.000000
17.612863	21.854804	12.413139	-1.388301	1.013853	3.133060	0.000000	0.168194	0.000000	0.006183	0.000556	0.000000	0.000000
18.161923	23.015730	11.557156	-0.713085	0.554206	3.199260	0.000000	0.073438	0.000000	0.006433	0.000352	0.000000	0.000000
18.710983	23.402798	11.181451	0.012523	0.134040	3.213105	0.000000	-0.022615	0.000000	0.006568	0.000141	0.000000	0.000000
19.009556	23.433577	11.093150	-0.057985	0.134196	3.208670	0.000000	-0.014690	0.000000	0.006616	0.000158	0.000000	0.000000
19.342889	23.476991	11.013882	-0.072257	0.103606	3.203720	0.000000	-0.014690	0.000000	0.006668	0.000158	0.000000	0.000000
19.676223	23.529920	10.955008	-0.086530	0.073017	3.198771	0.000000	-0.014690	0.000000	0.006721	0.000158	0.000000	0.000000
20.010806	23.592908	10.916286	-0.217748	0.096398	3.193823	0.000000	0.001135	0.000000	0.006774	0.000192	0.000000	0.000000
20.308129	23.726348	10.867121	-0.289327	0.095681	3.194106	0.000000	0.008994	0.000000	0.006831	0.000209	0.000000	0.000000
20.857189	23.634969	10.982513	0.454821	-0.307062	3.172791	0.000000	-0.086323	0.000000	0.006885	-0.000013	0.000000	0.000000
21.406249	22.739147	11.549553	1.166832	-0.731681	3.099598	0.000000	-0.180109	0.000000	0.006816	-0.000235	0.000000	0.000000
21.955309	21.102190	12.608637	1.796395	-1.208425	2.975823	0.000000	-0.270703	0.000000	0.006627	-0.000453	0.000000	0.000000
22.504369	18.839779	14.235210	2.299024	-1.771256	2.803661	0.000000	-0.356502	0.000000	0.006320	-0.000663	0.000000	0.000000
22.950329	17.058198	15.696190	1.709366	-1.490673	2.662205	0.000000	-0.279294	0.000000	0.006061	-0.000502	0.000000	0.000000
23.391289	15.778766	16.862164	1.202666	-1.143210	2.555538	0.000000	-0.205738	0.000000	0.005873	-0.000348	0.000000	0.000000
23.832249	14.920441	17.697474	0.750931	-0.743724	2.480699	0.000000	-0.134521	0.000000	0.005753	-0.000198	0.000000	0.000000
24.273209	14.443990	18.164112	0.333513	-0.310394	2.436836	0.000000	-0.064835	0.000000	0.005698	-0.000051	0.000000	0.000000
24.715418	14.327740	18.240589	-0.035539	0.094685	2.423449	0.000000	-0.001504	0.000000	0.005708	0.000083	0.000000	0.000000
25.012741	14.355051	18.189174	-0.056316	0.078239	2.422978	0.000000	-0.001504	0.000000	0.005733	0.000083	0.000000	0.000000
25.346075	14.400360	18.143161	-0.079611	0.059801	2.422449	0.000000	-0.001504	0.000000	0.005760	0.000083	0.000000	0.000000
25.679408	14.461198	18.109440	-0.102905	0.041363	2.421920	0.000000	-0.001504	0.000000	0.005788	0.000083	0.000000	0.000000
26.013991	14.537587	18.088320	-0.008348	-0.123886	2.421364	0.000000	-0.021148	0.000000	0.005815	0.000035	0.000000	0.000000
26.311314	14.548618	18.166969	0.004881	-0.182629	2.415065	0.000000	-0.026739	0.000000	0.005826	0.000021	0.000000	0.000000
26.752274	14.723930	18.131162	-0.403884	0.263514	2.418355	0.000000	0.041863	0.000000	0.005868	0.000172	0.000000	0.000000
27.193234	15.266546	17.705665	-0.831108	0.697667	2.451911	0.000000	0.110940	0.000000	0.005978	0.000325	0.000000	0.000000
27.634194	16.201268	16.909836	-1.296315	1.100072	2.516112	0.000000	0.181278	0.000000	0.006155	0.000481	0.000000	0.000000
28.075154	17.570824	15.779890	-1.820769	1.452416	2.611689	0.000000	0.253675	0.000000	0.006403	0.000643	0.000000	0.000000
28.521114	19.461714	14.350155	-2.433499	1.739700	2.741342	0.000000	0.329421	0.000000	0.006728	0.000814	0.000000	0.000000
29.070174	21.865748	12.757640	-1.918180	1.177574	2.899156	0.000000	0.245873	0.000000	0.007113	0.000589	0.000000	0.000000
29.619234	23.625548	11.733045	-1.267317	0.699338	3.009950	0.000000	0.157972	0.000000	0.007373	0.000355	0.000000	0.000000
30.168294	24.616744	11.203383	-0.526901	0.270924	3.071761	0.000000	0.067274	0.000000	0.007502	0.000114	0.000000	0.000000
30.717354	24.769285	11.130923	0.250748	-0.138188	3.083495	0.000000	-0.024615	0.000000	0.007497	-0.000129	0.000000	0.000000
31.015927	24.659409	11.205301	0.177688	-0.138102	3.078427	0.000000	-0.017075	0.000000	0.007464	-0.000110	0.000000	0.000000
31.349260	24.545598	11.307474	0.163744	-0.168417	3.072773	0.000000	-0.017075	0.000000	0.007428	-0.000110	0.000000	0.000000
31.682593	24.441084	11.429857	0.149799	-0.198732	3.067118	0.000000	-0.017075	0.000000	0.007391	-0.000110	0.000000	0.000000
32.017177	24.345527	11.573023	0.135803	-0.229161	3.061442	0.000000	-0.017075	0.000000	0.007354	-0.000110	0.000000	0.000000
32.314499	24.268508	11.717313	0.063921	-0.227516	3.056401	0.000000	-0.009588	0.000000	0.007321	-0.000092	0.000000	0.000000
32.863559	23.782776	12.206056	0.815266	-0.667790	3.026295	0.000000	-0.100301	0.000000	0.007206	-0.000327	0.000000	0.000000
33.412619	22.498721	13.201451	1.509000	-1.155637	2.946915	0.000000	-0.189240	0.000000	0.006963	-0.000557	0.000000	0.000000
33.961679	20.507093	14.774406	2.096102	-1.725812	2.819666	0.000000	-0.274831	0.000000	0.006596	-0.000777	0.000000	0.000000
34.510739	17.948644	17.036969	2.535087	-2.418931	2.646799	0.000000	-0.355558	0.000000	0.006112	-0.000982	0.000000	0.000000
34.956699	15.960480	19.060948	1.938237	-2.100230	2.504997	0.000000	-0.282428	0.000000	0.005709	-0.000829	0.000000	0.000000
35.397659	14.478356	20.737402	1.435050	-1.686826	2.396193	0.000000	-0.212954	0.000000	0.005375	-0.000686	0.000000	0.000000
35.838619	13.409588	22.013858	0.997447	-1.196662	2.317406	0.000000	-0.145898	0.000000	0.005102	-0.000551	0.000000	0.000000
36.279579	12.705325	22.832237	0.605430	-0.652045	2.267741	0.000000	-0.080498	0.000000	0.004888	-0.000422	0.000000	0.000000
36.721789	12.332708	23.155617	0.269850	-0.131928	2.246609	0.000000	-0.021271	0.000000	0.004728	-0.000310	0.000000	0.000000
37.019112	12.179933	23.237951	0.243986	-0.144992	2.240377	0.000000	-0.021271	0.000000	0.004636	-0.000310	0.000000	0.000000
37.352445	12.026941	23.339495	0.214989	-0.159638	2.233390	0.000000	-0.021271	0.000000	0.004533	-0.000310	0.000000	0.000000
37.685779	11.893281	23.450802	0.185993	-0.174284	2.226403	0.000000	-0.021271	0.000000	0.004430	-0.000310	0.000000	0.000000
38.020362	11.778559	23.572346	0.156887	-0.188985	2.219389	0.000000	-0.021271	0.000000	0.004326	-0.000310	0.000000	0.000000
38.317684	11.692950	23.688621	0.158538	-0.257896	2.213156	0.000000	-0.026479	0.000000	0.004234	-0.000320	0.000000	0.000000
38.758644	11.702714	23.653587	-0.180853	0.337040	2.215566	0.000000	0.036903	0.000000	0.004117	-0.000212	0.000000	0.000000
39.199604	12.014325	23.098620	-0.528506	0.916638	2.245947	0.000000	0.100708	0.000000	0.004046	-0.000107	0.000000	0.000000
39.640564	12.642021	22.048978	-0.900308	1.454525	2.304647	0.000000	0.165661	0.000000	0.004022	-0.000003	0.000000	0.000000
40.081524	13.614487	20.552421	-1.313250	1.926224	2.392335	0.000000	0.232500	0.000000	0.004044	0.000101	0.000000	0.000000
40.527484	14.993693	18.654378	-1.790087	2.311671	2.511489	0.000000	0.302407	0.000000	0.004112	0.000207	0.000000	0.000000
41.076544	16.755583	16.521042	-1.399582	1.596466	2.656843	0.000000	0.226518	0.000000	0.004189	0.000072	0.000000	0.000000
41.625604	18.031422	15.106444	-0.910199	0.994988	2.759433	0.000000	0.146611	0.000000	0.004191	-0.000064	0.000000	0.000000
42.174664	18.731069	14.309814	-0.356514	0.464389	2.817438	0.000000	0.064102	0.000000	0.004119	-0.000198	0.000000	0.000000
42.723724	18.805096	14.074402	0.222354	-0.033128	2.829828	0.000000	-0.019547	0.000000	0.003974	-0.000329	0.000000	0.000000
43.022297	18.705547	14.079264	0.158511	-0.018739	2.826220	0.000000	-0.012402	0.000000	0.003879	-0.000319	0.000000	0.000000
43.502297	18.566003	14.113624	0.132206	-0.052844	2.820420	0.000000	-0.012402	0.000000	0.003726	-0.000319	0.000000	0.000000
43.982297	18.451712	14.180724	0.105900	-0.086948	2.814620	0.000000	-0.012402	0.000000	0.003573	-0.000319	0.000000	0.000000
44.462297	18.362675	14.280565	0.079595	-0.121053	2.808820	0.000000	-0.012402	0.000000	0.003420	-0.000319	0.000000	0.000000
44.942297	18.298890	14.413146	0.053289	-0.155158	2.803021	0.000000	-0.012402	0.000000	0.003266	-0.000319	0.000000	0.000000
45.423547	18.260518	14.578760	-0.063558	-0.117119	2.797223	0.000000	0.001457	0.000000	0.003113	-0.000304	0.000000	0.000000
45.720870	18.303178	14.654547	-0.126508	-0.100543	2.797747	0.000000	0.008581	0.000000	0.003022	-0.000296	0.000000	0.000000
46.269930	18.133752	15.048146	0.433065	-0.620517	2.779959	0.000000	-0.073939	0.000000	0.002834	-0.000391	0.000000	0.000000
46.818990	17.363042	16.033535	0.962039	-1.184691	2.717201	0.000000	-0.155153	0.000000	0.002595	-0.000479	0.000000	0.000000
47.368050	16.045507	17.680900	1.423042	-1.833251	2.610584	0.000000	-0.233622	0.000000	0.002310	-0.000558	0.000000	0.000000
47.917110	14.274235	20.107577	1.783510	-2.612396	2.461995	0.000000	-0.307957	0.000000	0.001983	-0.000628	0.000000	0.000000
48.363070	12.895031	22.264698	1.319801	-2.204196	2.340270	0.000000	-0.239379	0.000000	0.001714	-0.000580	0.000000	0.000000
48.804030	11.910911	23.991599	0.920185	-1.697042	2.249467	0.000000	-0.173927	0.000000	0.001468	-0.000539	0.000000	0.000000
49.244990	11.259437	25.235328	0.562618	-1.112672	2.187048	0.000000	-0.110450	0.000000	0.001238	-0.000504	0.000000	0.000000
49.685950	10.910838	25.939298	0.230759	-0.477677	2.152305	0.000000	-0.048225	0.000000	0.001023	-0.000475	0.000000	0.000000
50.128160	10.849343	26.071196	-0.064270	0.115731	2.144855	0.000000	0.008237	0.000000	0.000818	-0.000453	0.000000	0.000000
50.425482	10.895743	26.005813	-0.091788	0.104174	2.147438	0.000000	0.008237	0.000000	0.000684	-0.000453	0.000000	0.000000
50.758816	10.967218	25.940683	-0.122638	0.091217	2.150335	0.000000	0.008237	0.000000	0.000533	-0.000453	0.000000	0.000000
51.092149	11.059261	25.884190	-0.153489	0.078260	2.153231	0.000000	0.008237	0.000000	0.000382	-0.000453	0.000000	0.000000
51.426732	11.172105	25.836696	-0.093820	-0.144345	2.156117	0.000000	-0.009255	0.000000	0.000230	-0.000455	0.000000	0.000000
51.724055	11.235877	25.926023	-0.093138	-0.219782	2.153501	0.000000	-0.014531	0.000000	0.000095	-0.000455	0.000000	0.000000
52.165015	11.464433	25.831310	-0.427289	0.433754	2.160928	0.000000	0.047371	0.000000	-0.000106	-0.000455	0.000000	0.000000
52.605975	11.995139	25.166766	-0.780958	1.067553	2.195747	0.000000	0.109817	0.000000	-0.000307	-0.000461	0.000000	0.000000
53.046935	12.852238	23.962634	-1.170303	1.652778	2.258356	0.000000	0.173519	0.000000	-0.000513	-0.000471	0.000000	0.000000
53.487895	14.074882	22.273703	-1.613110	2.162803	2.349469	0.000000	0.239202	0.000000	-0.000724	-0.000487	0.000000	0.000000
53.933855	15.739840	20.151583	-2.133878	2.575744	2.471637	0.000000	0.308012	0.000000	-0.000946	-0.000509	0.000000	0.000000
54.482915	17.883059	17.763387	-1.746744	1.799606	2.620739	0.000000	0.233367	0.000000	-0.001216	-0.000474	0.000000	0.000000
55.031975	19.530486	16.152511	-1.236244	1.151647	2.727635	0.000000	0.154574	0.000000	-0.001464	-0.000430	0.000000	0.000000
55.581035	20.565775	15.204212	-0.638436	0.585717	2.790425	0.000000	0.073033	0.000000	-0.001687	-0.000379	0.000000	0.000000
56.130095	20.915817	14.850942	0.004457	0.061506	2.807992	0.000000	-0.009810	0.000000	-0.001879	-0.000321	0.000000	0.000000
56.428668	20.950571	14.796705	-0.065361	0.080675	2.807385	0.000000	-0.002358	0.000000	-0.001977	-0.000326	0.000000	0.000000
56.762001	20.999472	14.750480	-0.081340	0.058001	2.806708	0.000000	-0.002358	0.000000	-0.002086	-0.000326	0.000000	0.000000
57.095334	21.059024	14.719371	-0.097318	0.035327	2.806031	0.000000	-0.002358	0.000000	-0.002195	-0.000326	0.000000	0.000000
57.429918	21.129512	14.703346	-0.113356	0.012567	2.805351	0.000000	-0.002358	0.000000	-0.002304	-0.000326	0.000000	0.000000
57.727240	21.201160	14.701884	-0.184110	0.031454	2.804747	0.000000	0.005117	0.000000	-0.002401	-0.000333	0.000000	0.000000
58.276300	21.041111	14.949358	0.473715	-0.484854	2.784979	0.000000	-0.077583	0.000000	-0.002562	-0.000252	0.000000	0.000000
58.825360	20.172928	15.779300	1.098078	-1.035693	2.720072	0.000000	-0.158912	0.000000	-0.002677	-0.000168	0.000000	0.000000
59.374420	18.657931	17.250817	1.644883	-1.660296	2.611175	0.000000	-0.237424	0.000000	-0.002745	-0.000080	0.000000	0.000000
59.923480	16.603118	19.468714	2.075514	-2.403149	2.460219	0.000000	-0.311727	0.000000	-0.002764	0.000010	0.000000	0.000000
60.369440	14.993908	21.439843	1.545758	-1.998269	2.336551	0.000000	-0.243243	0.000000	-0.002776	-0.000062	0.000000	0.000000
60.810400	13.835706	22.989950	1.090817	-1.503796	2.243827	0.000000	-0.177918	0.000000	-0.002819	-0.000134	0.000000	0.000000
61.251360	13.055293	24.072041	0.685708	-0.940908	2.179466	0.000000	-0.114618	0.000000	-0.002895	-0.000208	0.000000	0.000000
61.692320	12.617019	24.636885	0.311924	-0.335213	2.142735	0.000000	-0.052621	0.000000	-0.003003	-0.000284	0.000000	0.000000
62.134530	12.500905	24.658221	-0.016148	0.223552	2.133222	0.000000	0.003395	0.000000	-0.003146	-0.000355	0.000000	0.000000
62.431853	12.517581	24.529051	-0.039939	0.210891	2.134337	0.000000	0.003395	0.000000	-0.003252	-0.000355	0.000000	0.000000
62.765186	12.553097	24.393188	-0.066610	0.196698	2.135587	0.000000	0.003395	0.000000	-0.003370	-0.000355	0.000000	0.000000
63.098520	12.606395	24.266788	-0.093282	0.182504	2.136837	0.000000	0.003395	0.000000	-0.003489	-0.000355	0.000000	0.000000
63.433103	12.677774	24.149429	-0.120054	0.168257	2.138092	0.000000	0.003395	0.000000	-0.003608	-0.000355	0.000000	0.000000
63.730426	12.756231	24.053149	-0.111475	0.094441	2.139206	0.000000	-0.002034	0.000000	-0.003714	-0.000346	0.000000	0.000000
64.171386	13.016385	23.705052	-0.480912	0.692008	2.152046	0.000000	0.059563	0.000000	-0.003888	-0.000444	0.000000	0.000000
64.612346	13.610733	22.841901	-0.872314	1.258091	2.192214	0.000000	0.121844	0.000000	-0.004106	-0.000547	0.000000	0.000000
65.053306	14.566415	21.502971	-1.303557	1.766937	2.260169	0.000000	0.185517	0.000000	-0.004371	-0.000656	0.000000	0.000000
65.494266	15.927078	19.749180	-1.794339	2.195396	2.356687	0.000000	0.251310	0.000000	-0.004686	-0.000773	0.000000	0.000000
65.940226	17.778110	17.635515	-2.371669	2.524616	2.484445	0.000000	0.320360	0.000000	-0.005059	-0.000900	0.000000	0.000000
66.489286	20.149094	15.271351	-1.921795	1.806963	2.640357	0.000000	0.245200	0.000000	-0.005506	-0.000728	0.000000	0.000000
67.038346	21.948234	13.620344	-1.336222	1.217999	2.753650	0.000000	0.165679	0.000000	-0.005856	-0.000544	0.000000	0.000000
67.587406	23.048508	12.564903	-0.656300	0.715779	2.822309	0.000000	0.083211	0.000000	-0.006102	-0.000351	0.000000	0.000000
68.136466	23.372241	12.029857	0.069959	0.264535	2.845114	0.000000	-0.000738	0.000000	-0.006240	-0.000151	0.000000	0.000000
68.435038	23.372594	11.860222	-0.007024	0.270591	2.847276	0.000000	0.007078	0.000000	-0.006290	-0.000167	0.000000	0.000000
68.768372	23.382031	11.689882	-0.021287	0.240428	2.849691	0.000000	0.007078	0.000000	-0.006346	-0.000167	0.000000	0.000000
69.101705	23.400976	11.539651	-0.035549	0.210265	2.852106	0.000000	0.007078	0.000000	-0.006402	-0.000167	0.000000	0.000000
69.436288	23.429554	11.409079	-0.049865	0.179989	2.854530	0.000000	0.007078	0.000000	-0.006458	-0.000167	0.000000	0.000000
69.733611	23.463018	11.310035	-0.127175	0.184190	2.856686	0.000000	0.014942	0.000000	-0.006508	-0.000185	0.000000	0.000000
70.282671	23.199745	11.334474	0.603826	-0.228968	2.841727	0.000000	-0.069509	0.000000	-0.006551	0.000027	0.000000	0.000000
