#ParticleID	Turn	x[m]	xp	y[m]	yp	z[m]	dE[GeV]# s	beta_x	beta_y	alpha_x	alpha_y	D_x	D_y	D_px	D_py	orbit_x	orbit_px	orbit_y	orbit_py
0.300000	11.909878	25.016459	-0.009189	-0.028803	2.607204	0.000000	-0.002828	0.000000	-0.001309	0.001088	0.000000	0.000000
0.601250	11.923035	25.037444	-0.034485	-0.040855	2.606024	0.000000	-0.002828	0.000000	-0.000981	0.001088	0.000000	0.000000
0.898573	11.950965	25.065275	-0.029963	-0.114208	2.604860	0.000000	-0.009256	0.000000	-0.000657	0.001090	0.000000	0.000000
1.339533	12.130600	24.887951	-0.378585	0.514812	2.616533	0.000000	0.064336	0.000000	-0.000180	0.001079	0.000000	0.000000
1.780493	12.624139	24.164127	-0.744513	1.120412	2.660787	0.000000	0.138649	0.000000	0.000296	0.001080	0.000000	0.000000
2.221453	13.454139	22.926726	-1.144465	1.675038	2.738122	0.000000	0.214529	0.000000	0.000775	0.001094	0.000000	0.000000
2.662413	14.658536	21.232040	-1.596715	2.153454	2.849415	0.000000	0.292842	0.000000	0.001262	0.001120	0.000000	0.000000
3.108373	16.313208	19.132300	-2.126268	2.535066	2.997759	0.000000	0.374969	0.000000	0.001770	0.001160	0.000000	0.000000
3.657433	18.434242	16.773887	-1.713208	1.785524	3.178005	0.000000	0.282760	0.000000	0.002390	0.001092	0.000000	0.000000
4.206493	20.032134	15.164319	-1.179103	1.163163	3.306215	0.000000	0.185552	0.000000	0.002966	0.001005	0.000000	0.000000
4.755553	20.993975	14.188961	-0.561680	0.623655	3.380122	0.000000	0.085069	0.000000	0.003490	0.000901	0.000000	0.000000
5.304613	21.251787	13.778348	0.095442	0.128568	3.398422	0.000000	-0.016909	0.000000	0.003953	0.000780	0.000000	0.000000
5.603185	21.231036	13.687537	0.027698	0.140962	3.395699	0.000000	-0.008326	0.000000	0.004189	0.000790	0.000000	0.000000
5.936519	21.217808	13.601841	0.011986	0.116125	3.392660	0.000000	-0.008326	0.000000	0.004452	0.000790	0.000000	0.000000
6.269852	21.215055	13.532704	-0.003727	0.091288	3.389621	0.000000	-0.008326	0.000000	0.004716	0.000790	0.000000	0.000000
6.604435	21.222825	13.479958	-0.019498	0.066358	3.386571	0.000000	-0.008326	0.000000	0.004980	0.000790	0.000000	0.000000
6.901758	21.238604	13.447074	-0.086544	0.077938	3.383862	0.000000	0.000123	0.000000	0.005215	0.000804	0.000000	0.000000
7.450818	20.971846	13.622649	0.569908	-0.399575	3.355688	0.000000	-0.101227	0.000000	0.005609	0.000628	0.000000	0.000000
7.999878	20.002038	14.335097	1.186108	-0.905555	3.272370	0.000000	-0.200772	0.000000	0.005903	0.000442	0.000000	0.000000
8.548938	18.397693	15.635178	1.718516	-1.476050	3.135391	0.000000	-0.296748	0.000000	0.006093	0.000247	0.000000	0.000000
9.097998	16.272167	17.615513	2.129510	-2.151699	2.947185	0.000000	-0.387456	0.000000	0.006174	0.000049	0.000000	0.000000
9.543958	14.614645	19.379939	1.600192	-1.787696	2.792422	0.000000	-0.306694	0.000000	0.006232	0.000210	0.000000	0.000000
9.984918	13.407131	20.766166	1.148442	-1.343714	2.674087	0.000000	-0.229928	0.000000	0.006360	0.000372	0.000000	0.000000
10.425878	12.573520	21.732237	0.749171	-0.838583	2.588925	0.000000	-0.155786	0.000000	0.006560	0.000539	0.000000	0.000000
10.866838	12.075715	22.234187	0.384134	-0.295288	2.535964	0.000000	-0.083424	0.000000	0.006836	0.000711	0.000000	0.000000
11.309048	11.890829	22.248608	0.063684	0.210327	2.514576	0.000000	-0.017760	0.000000	0.007190	0.000875	0.000000	0.000000
11.606371	11.860425	22.127687	0.038578	0.196372	2.509036	0.000000	-0.017760	0.000000	0.007450	0.000875	0.000000	0.000000
12.086371	11.842844	21.949983	-0.001953	0.173843	2.500091	0.000000	-0.017760	0.000000	0.007870	0.000875	0.000000	0.000000
12.566371	11.864174	21.793907	-0.042484	0.151315	2.491146	0.000000	-0.017760	0.000000	0.008290	0.000875	0.000000	0.000000
13.046371	11.924413	21.659459	-0.083015	0.128786	2.482201	0.000000	-0.017760	0.000000	0.008710	0.000875	0.000000	0.000000
13.526371	12.023563	21.546638	-0.123546	0.106257	2.473256	0.000000	-0.017760	0.000000	0.009130	0.000875	0.000000	0.000000
14.007621	12.162032	21.455236	-0.164182	0.083670	2.464287	0.000000	-0.017760	0.000000	0.009551	0.000875	0.000000	0.000000
14.304943	12.267092	21.409692	-0.162071	0.022463	2.458743	0.000000	-0.023216	0.000000	0.009811	0.000852	0.000000	0.000000
14.745903	12.567793	21.155483	-0.521994	0.551749	2.463464	0.000000	0.046539	0.000000	0.010244	0.001111	0.000000	0.000000
15.186863	13.195303	20.443746	-0.905786	1.055928	2.498922	0.000000	0.116811	0.000000	0.010793	0.001382	0.000000	0.000000
15.627823	14.178324	19.306861	-1.330991	1.512051	2.565515	0.000000	0.188400	0.000000	0.011465	0.001669	0.000000	0.000000
16.068783	15.561816	17.796559	-1.817051	1.899360	2.663996	0.000000	0.262118	0.000000	0.012268	0.001975	0.000000	0.000000
16.514743	17.432737	15.959755	-2.391180	2.201262	2.797148	0.000000	0.339295	0.000000	0.013221	0.002305	0.000000	0.000000
17.063803	19.836153	13.908820	-1.958226	1.555402	2.959157	0.000000	0.253849	0.000000	0.014366	0.001858	0.000000	0.000000
17.612863	21.684662	12.502572	-1.386829	1.020366	3.073191	0.000000	0.163929	0.000000	0.015257	0.001378	0.000000	0.000000
18.161923	22.847540	11.640830	-0.717379	0.558036	3.137236	0.000000	0.071121	0.000000	0.015876	0.000874	0.000000	0.000000
18.710983	23.242541	11.262203	0.002797	0.135468	3.150165	0.000000	-0.022934	0.000000	0.016214	0.000354	0.000000	0.000000
19.009556	23.275663	11.174469	-0.062207	0.133471	3.145297	0.000000	-0.015869	0.000000	0.016331	0.000393	0.000000	0.000000
19.342889	23.321927	11.095609	-0.076584	0.103109	3.139876	0.000000	-0.015869	0.000000	0.016462	0.000393	0.000000	0.000000
19.676223	23.377775	11.036989	-0.090960	0.072748	3.134455	0.000000	-0.015869	0.000000	0.016593	0.000393	0.000000	0.000000
20.010806	23.443761	10.998369	-0.221544	0.096766	3.129033	0.000000	-0.000366	0.000000	0.016725	0.000476	0.000000	0.000000
20.308129	23.579654	10.948849	-0.287355	0.093946	3.128796	0.000000	0.006601	0.000000	0.016866	0.000517	0.000000	0.000000
20.857189	23.488718	11.067453	0.452118	-0.311182	3.106664	0.000000	-0.086615	0.000000	0.017000	-0.000032	0.000000	0.000000
21.406249	22.598170	11.640539	1.159633	-0.738486	3.033975	0.000000	-0.178294	0.000000	0.016832	-0.000580	0.000000	0.000000
21.955309	20.970985	12.708940	1.785165	-1.218414	2.912017	0.000000	-0.266819	0.000000	0.016365	-0.001118	0.000000	0.000000
22.504369	18.722235	14.348779	2.284489	-1.785163	2.742948	0.000000	-0.350627	0.000000	0.015607	-0.001636	0.000000	0.000000
22.950329	16.951610	15.821173	1.697916	-1.501566	2.604113	0.000000	-0.274915	0.000000	0.014966	-0.001239	0.000000	0.000000
23.391289	15.680731	16.995472	1.193998	-1.150788	2.499305	0.000000	-0.202817	0.000000	0.014504	-0.000859	0.000000	0.000000
23.832249	14.828783	17.835969	0.744673	-0.747630	2.425601	0.000000	-0.133020	0.000000	0.014207	-0.000489	0.000000	0.000000
24.273209	14.356801	18.304414	0.329396	-0.310442	2.382163	0.000000	-0.064734	0.000000	0.014072	-0.000125	0.000000	0.000000
24.715418	14.243384	18.379125	-0.040807	0.101903	2.368501	0.000000	-0.002190	0.000000	0.014097	0.000206	0.000000	0.000000
25.012741	14.273867	18.323389	-0.061716	0.085557	2.367789	0.000000	-0.002190	0.000000	0.014158	0.000206	0.000000	0.000000
25.346075	14.322824	18.272459	-0.085158	0.067233	2.366990	0.000000	-0.002190	0.000000	0.014227	0.000206	0.000000	0.000000
25.679408	14.387410	18.233746	-0.108599	0.048908	2.366191	0.000000	-0.002190	0.000000	0.014296	0.000206	0.000000	0.000000
26.013991	14.467660	18.207542	-0.014758	-0.117194	2.365365	0.000000	-0.021380	0.000000	0.014365	0.000090	0.000000	0.000000
26.311314	14.482459	18.282264	-0.004813	-0.172237	2.358975	0.000000	-0.026348	0.000000	0.014392	0.000057	0.000000	0.000000
26.752274	14.665783	18.235911	-0.412316	0.276933	2.362060	0.000000	0.040820	0.000000	0.014499	0.000429	0.000000	0.000000
27.193234	15.215564	17.797409	-0.838673	0.713499	2.394683	0.000000	0.108449	0.000000	0.014771	0.000807	0.000000	0.000000
27.634194	16.156950	16.986713	-1.303379	1.117590	2.457215	0.000000	0.177305	0.000000	0.015212	0.001193	0.000000	0.000000
28.075154	17.533005	15.840714	-1.827683	1.470812	2.550364	0.000000	0.248169	0.000000	0.015826	0.001594	0.000000	0.000000
28.521114	19.430959	14.394070	-2.440858	1.758324	2.676780	0.000000	0.322327	0.000000	0.016630	0.002015	0.000000	0.000000
29.070174	21.844842	12.782561	-1.927377	1.193314	2.830752	0.000000	0.240906	0.000000	0.017586	0.001460	0.000000	0.000000
29.619234	23.615941	11.741574	-1.277620	0.713338	2.939074	0.000000	0.155233	0.000000	0.018229	0.000880	0.000000	0.000000
30.168294	24.618991	11.196941	-0.537528	0.284195	2.999833	0.000000	0.066819	0.000000	0.018549	0.000284	0.000000	0.000000
30.717354	24.783048	11.109857	0.240570	-0.124695	3.011954	0.000000	-0.022776	0.000000	0.018540	-0.000317	0.000000	0.000000
31.015927	24.675227	11.177995	0.173909	-0.127491	3.007186	0.000000	-0.016190	0.000000	0.018459	-0.000273	0.000000	0.000000
31.349260	24.563926	11.273091	0.159992	-0.157796	3.001881	0.000000	-0.016190	0.000000	0.018368	-0.000273	0.000000	0.000000
31.682593	24.461904	11.388391	0.146074	-0.188102	2.996575	0.000000	-0.016190	0.000000	0.018277	-0.000273	0.000000	0.000000
32.017177	24.368830	11.524439	0.132105	-0.218520	2.991249	0.000000	-0.016190	0.000000	0.018186	-0.000273	0.000000	0.000000
32.314499	24.294200	11.662306	0.066304	-0.219964	2.986531	0.000000	-0.009627	0.000000	0.018105	-0.000229	0.000000	0.000000
32.863559	23.805098	12.141828	0.818631	-0.658318	2.957175	0.000000	-0.098117	0.000000	0.017819	-0.000811	0.000000	0.000000
33.412619	22.516500	13.125618	1.513070	-1.143583	2.879928	0.000000	-0.184879	0.000000	0.017216	-0.001379	0.000000	0.000000
33.961679	20.519551	14.683768	2.100523	-1.710338	2.756153	0.000000	-0.268382	0.000000	0.016309	-0.001922	0.000000	0.000000
34.510739	17.955485	16.927285	2.539461	-2.398964	2.588035	0.000000	-0.347154	0.000000	0.015111	-0.002431	0.000000	0.000000
34.956699	15.963110	18.934481	1.941772	-2.081890	2.450203	0.000000	-0.275459	0.000000	0.014112	-0.002052	0.000000	0.000000
35.397659	14.477684	20.596076	1.438141	-1.671157	2.344632	0.000000	-0.207343	0.000000	0.013286	-0.001699	0.000000	0.000000
35.838619	13.406040	21.860294	1.000267	-1.184364	2.268414	0.000000	-0.141572	0.000000	0.012611	-0.001365	0.000000	0.000000
36.279579	12.699160	22.669606	0.608130	-0.643668	2.220687	0.000000	-0.077398	0.000000	0.012079	-0.001047	0.000000	0.000000
36.721789	12.324083	22.987407	0.270470	-0.123450	2.200893	0.000000	-0.018878	0.000000	0.011685	-0.000767	0.000000	0.000000
37.019112	12.170947	23.064720	0.244580	-0.136581	2.195508	0.000000	-0.018878	0.000000	0.011457	-0.000767	0.000000	0.000000
37.352445	12.017569	23.160682	0.215554	-0.151303	2.189471	0.000000	-0.018878	0.000000	0.011201	-0.000767	0.000000	0.000000
37.685779	11.883542	23.266457	0.186528	-0.166025	2.183435	0.000000	-0.018878	0.000000	0.010945	-0.000767	0.000000	0.000000
38.020362	11.768472	23.382500	0.157393	-0.180801	2.177375	0.000000	-0.018878	0.000000	0.010688	-0.000767	0.000000	0.000000
38.317684	11.682539	23.493992	0.157244	-0.245953	2.171987	0.000000	-0.023664	0.000000	0.010460	-0.000792	0.000000	0.000000
38.758644	11.693311	23.450714	-0.181981	0.343710	2.175577	0.000000	0.038682	0.000000	0.010170	-0.000526	0.000000	0.000000
39.199604	12.005854	22.892265	-0.529519	0.917727	2.206622	0.000000	0.101474	0.000000	0.009995	-0.000266	0.000000	0.000000
39.640564	12.634452	21.844064	-0.901258	1.449976	2.265479	0.000000	0.165425	0.000000	0.009935	-0.000009	0.000000	0.000000
40.081524	13.607841	20.353817	-1.314190	1.916234	2.352819	0.000000	0.231261	0.000000	0.009988	0.000248	0.000000	0.000000
40.527484	14.988158	18.466698	-1.791194	2.296802	2.471113	0.000000	0.300160	0.000000	0.010156	0.000509	0.000000	0.000000
41.076544	16.751617	16.346313	-1.400940	1.587276	2.615496	0.000000	0.225580	0.000000	0.010345	0.000177	0.000000	0.000000
41.625604	18.029143	14.938874	-0.911685	0.990840	2.717941	0.000000	0.147000	0.000000	0.010350	-0.000158	0.000000	0.000000
42.174664	18.730441	14.144104	-0.358007	0.465002	2.776630	0.000000	0.065810	0.000000	0.010172	-0.000491	0.000000	0.000000
42.723724	18.805953	13.905376	0.220960	-0.027703	2.790519	0.000000	-0.016556	0.000000	0.009813	-0.000815	0.000000	0.000000
43.022297	18.705705	13.908406	0.159606	-0.015744	2.787801	0.000000	-0.009881	0.000000	0.009577	-0.000790	0.000000	0.000000
43.502297	18.565115	13.940090	0.133291	-0.050264	2.783437	0.000000	-0.009881	0.000000	0.009198	-0.000790	0.000000	0.000000
43.982297	18.449786	14.004913	0.106977	-0.084784	2.779074	0.000000	-0.009881	0.000000	0.008819	-0.000790	0.000000	0.000000
44.462297	18.359719	14.102875	0.080663	-0.119304	2.774710	0.000000	-0.009881	0.000000	0.008440	-0.000790	0.000000	0.000000
44.942297	18.294913	14.233976	0.054348	-0.153824	2.770346	0.000000	-0.009881	0.000000	0.008060	-0.000790	0.000000	0.000000
45.423547	18.255526	14.398510	-0.062483	-0.117095	2.765989	0.000000	0.003824	0.000000	0.007680	-0.000752	0.000000	0.000000
45.720870	18.297572	14.474340	-0.123598	-0.102772	2.767351	0.000000	0.010594	0.000000	0.007457	-0.000733	0.000000	0.000000
46.269930	18.124885	14.867518	0.435773	-0.617473	2.751197	0.000000	-0.070978	0.000000	0.006989	-0.000967	0.000000	0.000000
46.818990	17.351185	15.846644	0.964336	-1.176160	2.690647	0.000000	-0.151306	0.000000	0.006398	-0.001184	0.000000	0.000000
47.368050	16.031168	17.481456	1.424744	-1.818632	2.586766	0.000000	-0.228969	0.000000	0.005693	-0.001380	0.000000	0.000000
47.917110	14.258133	19.888395	1.784467	-2.590654	2.441388	0.000000	-0.302593	0.000000	0.004887	-0.001551	0.000000	0.000000
48.363070	12.877816	22.028561	1.320874	-2.187898	2.322321	0.000000	-0.234504	0.000000	0.004222	-0.001433	0.000000	0.000000
48.804030	11.892491	23.743851	0.921485	-1.686978	2.233919	0.000000	-0.169481	0.000000	0.003613	-0.001332	0.000000	0.000000
49.244990	11.239614	24.981667	0.564213	-1.109297	2.173703	0.000000	-0.106373	0.000000	0.003045	-0.001246	0.000000	0.000000
49.685950	10.889340	25.685696	0.232730	-0.481145	2.140993	0.000000	-0.044464	0.000000	0.002511	-0.001175	0.000000	0.000000
50.128160	10.825808	25.823645	-0.062185	0.107136	2.135438	0.000000	0.011815	0.000000	0.002005	-0.001121	0.000000	0.000000
50.425482	10.870984	25.763399	-0.089756	0.095491	2.139284	0.000000	0.011815	0.000000	0.001672	-0.001121	0.000000	0.000000
50.758816	10.941125	25.704091	-0.120666	0.082435	2.143596	0.000000	0.011815	0.000000	0.001298	-0.001121	0.000000	0.000000
51.092149	11.031872	25.653487	-0.151575	0.069378	2.147908	0.000000	0.011815	0.000000	0.000924	-0.001121	0.000000	0.000000
51.426732	11.143456	25.611965	-0.092198	-0.151504	2.152214	0.000000	-0.005646	0.000000	0.000549	-0.001126	0.000000	0.000000
51.724055	11.206282	25.705587	-0.091681	-0.226702	2.150870	0.000000	-0.010909	0.000000	0.000214	-0.001126	0.000000	0.000000
52.165015	11.433150	25.619528	-0.425122	0.421122	2.160171	0.000000	0.050949	0.000000	-0.000282	-0.001127	0.000000	0.000000
52.605975	11.961495	24.968445	-0.777978	1.049782	2.196855	0.000000	0.113399	0.000000	-0.000782	-0.001141	0.000000	0.000000
53.046935	12.815443	23.781973	-1.166367	1.630674	2.261346	0.000000	0.177154	0.000000	-0.001291	-0.001168	0.000000	0.000000
53.487895	14.033995	22.114105	-1.608032	2.137370	2.354384	0.000000	0.242938	0.000000	-0.001814	-0.001208	0.000000	0.000000
53.933855	15.693656	20.015768	-2.127376	2.548111	2.478565	0.000000	0.311896	0.000000	-0.002364	-0.001262	0.000000	0.000000
54.482915	17.830194	17.654535	-1.741581	1.777937	2.630115	0.000000	0.236992	0.000000	-0.003034	-0.001175	0.000000	0.000000
55.031975	19.472630	16.064947	-1.232808	1.134397	2.739263	0.000000	0.157865	0.000000	-0.003650	-0.001066	0.000000	0.000000
55.581035	20.505000	15.133770	-0.636989	0.571654	2.804066	0.000000	0.075921	0.000000	-0.004201	-0.000939	0.000000	0.000000
56.130095	20.854425	14.794671	0.003796	0.049629	2.823366	0.000000	-0.007384	0.000000	-0.004678	-0.000795	0.000000	0.000000
56.428668	20.890231	14.747043	-0.067162	0.069603	2.823689	0.000000	0.000278	0.000000	-0.004919	-0.000808	0.000000	0.000000
56.762001	20.940348	14.708212	-0.083190	0.046890	2.824051	0.000000	0.000278	0.000000	-0.005188	-0.000808	0.000000	0.000000
57.095334	21.001151	14.684523	-0.099219	0.024177	2.824413	0.000000	0.000278	0.000000	-0.005458	-0.000808	0.000000	0.000000
57.429918	21.072928	14.675973	-0.115307	0.001379	2.824777	0.000000	0.000278	0.000000	-0.005728	-0.000808	0.000000	0.000000
57.727240	21.145768	14.681161	-0.187570	0.021197	2.825101	0.000000	0.008023	0.000000	-0.005968	-0.000824	0.000000	0.000000
58.276300	20.990412	14.939652	0.468432	-0.494806	2.806973	0.000000	-0.075354	0.000000	-0.006366	-0.000624	0.000000	0.000000
58.825360	20.128815	15.780629	1.091342	-1.046043	2.743260	0.000000	-0.157405	0.000000	-0.006651	-0.000413	0.000000	0.000000
59.374420	18.621826	17.263975	1.637179	-1.671772	2.635086	0.000000	-0.236671	0.000000	-0.006818	-0.000195	0.000000	0.000000
59.923480	16.575856	19.495323	2.067403	-2.416553	2.484367	0.000000	-0.311743	0.000000	-0.006864	0.000027	0.000000	0.000000
60.369440	14.973285	21.478587	1.538977	-2.012066	2.360845	0.000000	-0.242651	0.000000	-0.006892	-0.000152	0.000000	0.000000
60.810400	13.820682	23.040667	1.084947	-1.517259	2.268586	0.000000	-0.176701	0.000000	-0.006998	-0.000331	0.000000	0.000000
61.251360	13.045152	24.134194	0.680472	-0.953433	2.205013	0.000000	-0.112760	0.000000	-0.007184	-0.000513	0.000000	0.000000
61.692320	12.611274	24.709425	0.307080	-0.346237	2.169403	0.000000	-0.050097	0.000000	-0.007452	-0.000702	0.000000	0.000000
62.134530	12.499299	24.739624	-0.019510	0.211921	2.161365	0.000000	0.006319	0.000000	-0.007805	-0.000879	0.000000	0.000000
62.431853	12.517976	24.617340	-0.043306	0.199363	2.163505	0.000000	0.006319	0.000000	-0.008067	-0.000879	0.000000	0.000000
62.765186	12.555739	24.489124	-0.069985	0.185284	2.165904	0.000000	0.006319	0.000000	-0.008360	-0.000879	0.000000	0.000000
63.098520	12.611289	24.370294	-0.096663	0.171206	2.168303	0.000000	0.006319	0.000000	-0.008652	-0.000879	0.000000	0.000000
63.433103	12.684932	24.260457	-0.123442	0.157074	2.170712	0.000000	0.006319	0.000000	-0.008946	-0.000879	0.000000	0.000000
63.730426	12.765380	24.170848	-0.113277	0.079906	2.172849	0.000000	0.000538	0.000000	-0.009208	-0.000855	0.000000	0.000000
64.171386	13.027094	23.834120	-0.482923	0.680916	2.187262	0.000000	0.063014	0.000000	-0.009638	-0.001098	0.000000	0.000000
64.612346	13.623165	22.979112	-0.874615	1.250949	2.229461	0.000000	0.126218	0.000000	-0.010178	-0.001354	0.000000	0.000000
65.053306	14.580797	21.644727	-1.306236	1.764077	2.299931	0.000000	0.190875	0.000000	-0.010834	-0.001624	0.000000	0.000000
65.494266	15.943697	19.891676	-1.797493	2.196961	2.399480	0.000000	0.257722	0.000000	-0.011613	-0.001914	0.000000	0.000000
65.940226	17.797465	17.774738	-2.375227	2.530440	2.530876	0.000000	0.327889	0.000000	-0.012535	-0.002227	0.000000	0.000000
66.489286	20.171589	15.406308	-1.925042	1.809425	2.691120	0.000000	0.251176	0.000000	-0.013643	-0.001803	0.000000	0.000000
67.038346	21.973528	13.754560	-1.338997	1.217249	2.807720	0.000000	0.169980	0.000000	-0.014509	-0.001347	0.000000	0.000000
67.587406	23.076153	12.701861	-0.658460	0.711746	2.878598	0.000000	0.085748	0.000000	-0.015117	-0.000867	0.000000	0.000000
68.136466	23.401685	12.173239	0.068537	0.256921	2.902490	0.000000	-0.000018	0.000000	-0.015457	-0.000372	0.000000	0.000000
68.435038	23.405453	12.006466	-0.012964	0.266113	2.905143	0.000000	0.008508	0.000000	-0.015581	-0.000415	0.000000	0.000000
68.768372	23.418844	11.838967	-0.027208	0.236384	2.908117	0.000000	0.008508	0.000000	-0.015719	-0.000415	0.000000	0.000000
69.101705	23.441731	11.691288	-0.041453	0.206655	2.911091	0.000000	0.008508	0.000000	-0.015858	-0.000415	0.000000	0.000000
69.436288	23.474253	11.562985	-0.055750	0.176814	2.914077	0.000000	0.008508	0.000000	-0.015996	-0.000415	0.000000	0.000000
69.733611	23.511362	11.465640	-0.137824	0.184056	2.916741	0.000000	0.017113	0.000000	-0.016119	-0.000459	0.000000	0.000000
70.282671	23.258903	11.492586	0.594879	-0.233432	2.902509	0.000000	-0.069269	0.000000	-0.016228	0.000065	0.000000	0.000000
