#ParticleID	Turn	x[m]	xp	y[m]	yp	z[m]	dE[GeV]# s	beta_x	beta_y	alpha_x	alpha_y	D_x	D_y	D_px	D_py	orbit_x	orbit_px	orbit_y	orbit_py
0.300000	11.934303	25.131936	-0.012425	-0.026383	2.603300	0.000000	-0.001921	0.000000	-0.001267	0.001064	0.000000	0.000000
0.601250	11.949394	25.151445	-0.037671	-0.038378	2.602400	0.000000	-0.001921	0.000000	-0.000946	0.001064	0.000000	0.000000
0.898573	11.979204	25.177787	-0.033037	-0.111943	2.601513	0.000000	-0.008338	0.000000	-0.000630	0.001066	0.000000	0.000000
1.339533	12.161854	24.997162	-0.382384	0.520004	2.613582	0.000000	0.065172	0.000000	-0.000163	0.001055	0.000000	0.000000
1.780493	12.659121	24.267549	-0.749209	1.128297	2.658199	0.000000	0.139413	0.000000	0.000302	0.001057	0.000000	0.000000
2.221453	13.493733	23.022136	-1.150272	1.685255	2.735867	0.000000	0.215231	0.000000	0.000771	0.001071	0.000000	0.000000
2.662413	14.703833	21.317578	-1.603899	2.165538	2.847467	0.000000	0.293490	0.000000	0.001249	0.001097	0.000000	0.000000
3.108373	16.365649	19.206425	-2.135172	2.548470	2.996099	0.000000	0.375571	0.000000	0.001746	0.001136	0.000000	0.000000
3.657433	18.495783	16.835060	-1.720791	1.795848	3.176701	0.000000	0.283409	0.000000	0.002353	0.001070	0.000000	0.000000
4.206493	20.101020	15.215502	-1.184829	1.171144	3.305289	0.000000	0.186238	0.000000	0.002917	0.000984	0.000000	0.000000
4.755553	21.067932	14.232401	-0.565146	0.629860	3.379590	0.000000	0.085779	0.000000	0.003430	0.000881	0.000000	0.000000
5.304613	21.328184	13.815741	0.094481	0.133440	3.398293	0.000000	-0.016188	0.000000	0.003882	0.000763	0.000000	0.000000
5.603185	21.308127	13.721942	0.026562	0.145977	3.395792	0.000000	-0.007601	0.000000	0.004113	0.000773	0.000000	0.000000
5.936519	21.295638	13.632894	0.010907	0.121168	3.393001	0.000000	-0.007601	0.000000	0.004371	0.000773	0.000000	0.000000
6.269852	21.293584	13.560385	-0.004747	0.096358	3.390210	0.000000	-0.007601	0.000000	0.004628	0.000773	0.000000	0.000000
6.604435	21.302018	13.504237	-0.020461	0.071456	3.387408	0.000000	-0.007601	0.000000	0.004887	0.000773	0.000000	0.000000
6.901758	21.318353	13.468316	-0.087702	0.083140	3.384920	0.000000	0.000859	0.000000	0.005117	0.000786	0.000000	0.000000
7.450818	21.051389	13.638472	0.571430	-0.394849	3.357147	0.000000	-0.100532	0.000000	0.005502	0.000614	0.000000	0.000000
7.999878	20.078477	14.345835	1.190203	-0.900969	3.274204	0.000000	-0.200130	0.000000	0.005789	0.000431	0.000000	0.000000
8.548938	18.468347	15.640804	1.724894	-1.471276	3.137566	0.000000	-0.296171	0.000000	0.005973	0.000240	0.000000	0.000000
9.097998	16.334763	17.615636	2.137721	-2.146397	2.949660	0.000000	-0.386953	0.000000	0.006052	0.000046	0.000000	0.000000
9.543958	14.670755	19.375108	1.606582	-1.781943	2.795138	0.000000	-0.306125	0.000000	0.006107	0.000203	0.000000	0.000000
9.984918	13.458295	20.756158	1.153313	-1.337778	2.677073	0.000000	-0.229286	0.000000	0.006232	0.000362	0.000000	0.000000
10.425878	12.620973	21.717009	0.752747	-0.832732	2.592216	0.000000	-0.155063	0.000000	0.006428	0.000526	0.000000	0.000000
10.866838	12.120523	22.213934	0.386577	-0.289790	2.539599	0.000000	-0.082612	0.000000	0.006696	0.000695	0.000000	0.000000
11.309048	11.933933	22.223744	0.065247	0.215206	2.518600	0.000000	-0.016868	0.000000	0.007042	0.000855	0.000000	0.000000
11.606371	11.902574	22.099934	0.040227	0.201208	2.513331	0.000000	-0.016868	0.000000	0.007297	0.000855	0.000000	0.000000
12.086371	11.883345	21.917622	-0.000166	0.178609	2.504824	0.000000	-0.016868	0.000000	0.007707	0.000855	0.000000	0.000000
12.566371	11.902893	21.757004	-0.040559	0.156010	2.496317	0.000000	-0.016868	0.000000	0.008118	0.000855	0.000000	0.000000
13.046371	11.961218	21.618081	-0.080952	0.133412	2.487809	0.000000	-0.016868	0.000000	0.008528	0.000855	0.000000	0.000000
13.526371	12.058320	21.500854	-0.121344	0.110813	2.479302	0.000000	-0.016868	0.000000	0.008939	0.000855	0.000000	0.000000
14.007621	12.194603	21.405100	-0.161842	0.088155	2.470773	0.000000	-0.016868	0.000000	0.009350	0.000855	0.000000	0.000000
14.304943	12.298248	21.356899	-0.159514	0.026908	2.465500	0.000000	-0.022351	0.000000	0.009604	0.000833	0.000000	0.000000
14.745903	12.596973	21.099426	-0.520063	0.554680	2.470651	0.000000	0.047583	0.000000	0.010027	0.001086	0.000000	0.000000
15.186863	13.223016	20.385826	-0.904392	1.057210	2.506623	0.000000	0.118047	0.000000	0.010564	0.001351	0.000000	0.000000
15.627823	14.205010	19.248565	-1.330070	1.511628	2.573820	0.000000	0.189842	0.000000	0.011221	0.001632	0.000000	0.000000
16.068783	15.587869	17.739390	-1.816559	1.897250	2.673002	0.000000	0.263782	0.000000	0.012006	0.001931	0.000000	0.000000
16.514743	17.458509	15.905209	-2.391090	2.197544	2.806969	0.000000	0.341203	0.000000	0.012939	0.002255	0.000000	0.000000
17.063803	19.861174	13.857511	-1.956998	1.553207	2.969959	0.000000	0.255423	0.000000	0.014059	0.001818	0.000000	0.000000
17.612863	21.707727	12.452920	-1.384553	1.019538	3.084777	0.000000	0.165141	0.000000	0.014929	0.001348	0.000000	0.000000
18.161923	22.867586	11.591373	-0.714217	0.558514	3.149397	0.000000	0.071950	0.000000	0.015535	0.000854	0.000000	0.000000
18.710983	23.258721	11.211495	0.006620	0.137286	3.162678	0.000000	-0.022505	0.000000	0.015865	0.000345	0.000000	0.000000
19.009556	23.289701	11.122724	-0.058599	0.135131	3.157958	0.000000	-0.015386	0.000000	0.015979	0.000384	0.000000	0.000000
19.342889	23.333554	11.042808	-0.072961	0.104615	3.152702	0.000000	-0.015386	0.000000	0.016107	0.000384	0.000000	0.000000
19.676223	23.386982	10.983237	-0.087323	0.074099	3.147445	0.000000	-0.015386	0.000000	0.016235	0.000384	0.000000	0.000000
20.010806	23.450529	10.943765	-0.217925	0.097691	3.142189	0.000000	0.000183	0.000000	0.016364	0.000465	0.000000	0.000000
20.308129	23.584254	10.893741	-0.283927	0.094700	3.142117	0.000000	0.007207	0.000000	0.016502	0.000505	0.000000	0.000000
20.857189	23.489492	11.010669	0.455615	-0.308867	3.120203	0.000000	-0.086443	0.000000	0.016633	-0.000032	0.000000	0.000000
21.406249	22.595186	11.580282	1.162950	-0.734445	3.047485	0.000000	-0.178560	0.000000	0.016468	-0.000568	0.000000	0.000000
21.955309	20.964578	12.643166	1.788071	-1.212359	2.925252	0.000000	-0.267517	0.000000	0.016010	-0.001094	0.000000	0.000000
22.504369	18.712977	14.275049	2.286781	-1.776661	2.755669	0.000000	-0.351745	0.000000	0.015269	-0.001601	0.000000	0.000000
22.950329	16.940349	15.740637	1.700189	-1.494907	2.616395	0.000000	-0.275710	0.000000	0.014642	-0.001213	0.000000	0.000000
23.391289	15.667448	16.909977	1.196349	-1.146258	2.511298	0.000000	-0.203300	0.000000	0.014189	-0.000841	0.000000	0.000000
23.832249	14.813359	17.747493	0.747210	-0.745435	2.437443	0.000000	-0.133196	0.000000	0.013898	-0.000479	0.000000	0.000000
24.273209	14.339019	18.215072	0.332233	-0.310684	2.393993	0.000000	-0.064606	0.000000	0.013765	-0.000123	0.000000	0.000000
24.715418	14.222908	18.291082	-0.037474	0.099284	2.380456	0.000000	-0.001799	0.000000	0.013790	0.000201	0.000000	0.000000
25.012741	14.251416	18.236924	-0.058408	0.082868	2.379861	0.000000	-0.001799	0.000000	0.013850	0.000201	0.000000	0.000000
25.346075	14.298177	18.187813	-0.081877	0.064465	2.379195	0.000000	-0.001799	0.000000	0.013916	0.000201	0.000000	0.000000
25.679408	14.360585	18.150971	-0.105347	0.046061	2.378528	0.000000	-0.001799	0.000000	0.013983	0.000201	0.000000	0.000000
26.013991	14.438669	18.126697	-0.011768	-0.119464	2.377835	0.000000	-0.021089	0.000000	0.014051	0.000087	0.000000	0.000000
26.311314	14.451706	18.202788	-0.001814	-0.174565	2.371532	0.000000	-0.026103	0.000000	0.014076	0.000055	0.000000	0.000000
26.752274	14.632037	18.159434	-0.408510	0.272486	2.374800	0.000000	0.041391	0.000000	0.014181	0.000419	0.000000	0.000000
27.193234	15.178036	17.725721	-0.833885	0.707136	2.407754	0.000000	0.109353	0.000000	0.014447	0.000788	0.000000	0.000000
27.634194	16.114677	16.921383	-1.297389	1.109600	2.470769	0.000000	0.178551	0.000000	0.014877	0.001166	0.000000	0.000000
28.075154	17.484805	15.783024	-1.820218	1.461560	2.564559	0.000000	0.249772	0.000000	0.015478	0.001558	0.000000	0.000000
28.521114	19.375271	14.345063	-2.431548	1.748221	2.691790	0.000000	0.324308	0.000000	0.016264	0.001969	0.000000	0.000000
29.070174	21.779615	12.743463	-1.919473	1.185286	2.846733	0.000000	0.242385	0.000000	0.017198	0.001427	0.000000	0.000000
29.619234	23.543046	11.710428	-1.271683	0.706812	2.955737	0.000000	0.156184	0.000000	0.017827	0.000860	0.000000	0.000000
30.168294	24.540844	11.172358	-0.533980	0.278705	3.016876	0.000000	0.067225	0.000000	0.018139	0.000277	0.000000	0.000000
30.717354	24.702438	11.090918	0.241477	-0.129541	3.029069	0.000000	-0.022922	0.000000	0.018130	-0.000311	0.000000	0.000000
31.015927	24.594140	11.161927	0.174705	-0.132343	3.024277	0.000000	-0.016269	0.000000	0.018050	-0.000267	0.000000	0.000000
31.349260	24.482326	11.260284	0.160738	-0.162729	3.018943	0.000000	-0.016269	0.000000	0.017961	-0.000267	0.000000	0.000000
31.682593	24.379823	11.378899	0.146771	-0.193116	3.013609	0.000000	-0.016269	0.000000	0.017872	-0.000267	0.000000	0.000000
32.017177	24.286300	11.518331	0.132751	-0.223616	3.008255	0.000000	-0.016269	0.000000	0.017783	-0.000267	0.000000	0.000000
32.314499	24.211287	11.659254	0.066856	-0.225026	3.003511	0.000000	-0.009640	0.000000	0.017703	-0.000224	0.000000	0.000000
32.863559	23.723109	12.144409	0.816423	-0.663579	2.973992	0.000000	-0.098676	0.000000	0.017423	-0.000794	0.000000	0.000000
33.412619	22.438404	13.134251	1.508261	-1.149417	2.896278	0.000000	-0.185975	0.000000	0.016834	-0.001349	0.000000	0.000000
33.961679	20.448040	14.699302	2.093456	-1.717160	2.771739	0.000000	-0.269995	0.000000	0.015946	-0.001880	0.000000	0.000000
34.510739	17.892784	16.951060	2.530638	-2.407258	2.602575	0.000000	-0.349254	0.000000	0.014775	-0.002378	0.000000	0.000000
34.956699	15.907430	18.965668	1.934866	-2.090183	2.463868	0.000000	-0.277194	0.000000	0.013798	-0.002007	0.000000	0.000000
35.397659	14.427395	20.634425	1.432812	-1.679057	2.357591	0.000000	-0.208736	0.000000	0.012990	-0.001662	0.000000	0.000000
35.838619	13.359860	21.905299	0.996271	-1.191512	2.280818	0.000000	-0.142637	0.000000	0.012329	-0.001335	0.000000	0.000000
36.279579	12.655994	22.720461	0.605282	-0.649740	2.232679	0.000000	-0.078150	0.000000	0.011809	-0.001024	0.000000	0.000000
36.721789	12.282979	23.043054	0.268630	-0.128442	2.212612	0.000000	-0.019364	0.000000	0.011423	-0.000751	0.000000	0.000000
37.019112	12.130955	23.123331	0.242677	-0.141558	2.207078	0.000000	-0.019364	0.000000	0.011200	-0.000751	0.000000	0.000000
37.352445	11.978869	23.222604	0.213581	-0.156262	2.200874	0.000000	-0.019364	0.000000	0.010950	-0.000751	0.000000	0.000000
37.685779	11.846181	23.331680	0.184485	-0.170966	2.194669	0.000000	-0.019364	0.000000	0.010699	-0.000751	0.000000	0.000000
38.020362	11.732501	23.451024	0.155280	-0.185726	2.188442	0.000000	-0.019364	0.000000	0.010448	-0.000751	0.000000	0.000000
38.317684	11.647845	23.565436	0.155058	-0.251150	2.182904	0.000000	-0.024186	0.000000	0.010224	-0.000775	0.000000	0.000000
38.758644	11.660204	23.525891	-0.183402	0.340477	2.186319	0.000000	0.038438	0.000000	0.009940	-0.000515	0.000000	0.000000
39.199604	11.973689	22.969371	-0.530241	0.916606	2.217315	0.000000	0.101506	0.000000	0.009769	-0.000261	0.000000	0.000000
39.640564	12.602627	21.921209	-0.901313	1.451018	2.276246	0.000000	0.165734	0.000000	0.009710	-0.000010	0.000000	0.000000
40.081524	13.575768	20.429107	-1.313581	1.919391	2.363784	0.000000	0.231849	0.000000	0.009761	0.000241	0.000000	0.000000
40.527484	14.955221	18.538281	-1.789883	2.301939	2.482408	0.000000	0.301036	0.000000	0.009925	0.000497	0.000000	0.000000
41.076544	16.717924	16.413457	-1.400897	1.590283	2.627175	0.000000	0.226084	0.000000	0.010109	0.000172	0.000000	0.000000
41.625604	17.996100	15.003784	-0.912914	0.991932	2.729793	0.000000	0.147124	0.000000	0.010114	-0.000156	0.000000	0.000000
42.174664	18.699411	14.208828	-0.360422	0.464256	2.788442	0.000000	0.065551	0.000000	0.009939	-0.000481	0.000000	0.000000
42.723724	18.778157	13.971949	0.217530	-0.030342	2.802076	0.000000	-0.017193	0.000000	0.009587	-0.000797	0.000000	0.000000
43.022297	18.679980	13.976385	0.156139	-0.018051	2.799176	0.000000	-0.010476	0.000000	0.009357	-0.000773	0.000000	0.000000
43.502297	18.542721	14.010204	0.129816	-0.052406	2.794518	0.000000	-0.010476	0.000000	0.008986	-0.000773	0.000000	0.000000
43.982297	18.430732	14.077004	0.103494	-0.086760	2.789861	0.000000	-0.010476	0.000000	0.008615	-0.000773	0.000000	0.000000
44.462297	18.344013	14.176785	0.077171	-0.121115	2.785203	0.000000	-0.010476	0.000000	0.008244	-0.000773	0.000000	0.000000
44.942297	18.282563	14.309546	0.050849	-0.155470	2.780546	0.000000	-0.010476	0.000000	0.007873	-0.000773	0.000000	0.000000
45.423547	18.246548	14.475583	-0.065946	-0.118193	2.775893	0.000000	0.003277	0.000000	0.007501	-0.000736	0.000000	0.000000
45.720870	18.290656	14.552035	-0.127132	-0.103514	2.777089	0.000000	0.010083	0.000000	0.007282	-0.000717	0.000000	0.000000
46.269930	18.121955	14.947310	0.432103	-0.620574	2.760559	0.000000	-0.071798	0.000000	0.006825	-0.000946	0.000000	0.000000
46.818990	17.352250	15.931228	0.960789	-1.181840	2.699464	0.000000	-0.152421	0.000000	0.006246	-0.001158	0.000000	0.000000
47.368050	16.035955	17.573867	1.421571	-1.827296	2.594880	0.000000	-0.230358	0.000000	0.005557	-0.001349	0.000000	0.000000
47.917110	14.266105	19.992226	1.781894	-2.602919	2.448652	0.000000	-0.304230	0.000000	0.004769	-0.001516	0.000000	0.000000
48.363070	12.888038	22.142279	1.318399	-2.197717	2.328882	0.000000	-0.235963	0.000000	0.004119	-0.001401	0.000000	0.000000
48.804030	11.904903	23.864983	0.918989	-1.693912	2.239859	0.000000	-0.170778	0.000000	0.003524	-0.001302	0.000000	0.000000
49.244990	11.254285	25.107521	0.561581	-1.113032	2.179092	0.000000	-0.107525	0.000000	0.002969	-0.001219	0.000000	0.000000
49.685950	10.906439	25.813364	0.229842	-0.481510	2.145892	0.000000	-0.045483	0.000000	0.002447	-0.001149	0.000000	0.000000
50.128160	10.845626	25.950131	-0.065400	0.109814	2.139902	0.000000	0.010903	0.000000	0.001952	-0.001097	0.000000	0.000000
50.425482	10.892702	25.888278	-0.092932	0.098219	2.143470	0.000000	0.010903	0.000000	0.001626	-0.001097	0.000000	0.000000
50.758816	10.964945	25.827132	-0.123797	0.085219	2.147470	0.000000	0.010903	0.000000	0.001260	-0.001097	0.000000	0.000000
51.092149	11.057766	25.774652	-0.154663	0.072219	2.151470	0.000000	0.010903	0.000000	0.000894	-0.001097	0.000000	0.000000
51.426732	11.171401	25.731214	-0.095015	-0.149574	2.155463	0.000000	-0.006584	0.000000	0.000527	-0.001101	0.000000	0.000000
51.724055	11.235886	25.823670	-0.094369	-0.225001	2.153833	0.000000	-0.011855	0.000000	0.000200	-0.001102	0.000000	0.000000
52.165015	11.465447	25.734737	-0.428555	0.425914	2.162722	0.000000	0.050074	0.000000	-0.000286	-0.001103	0.000000	0.000000
52.605975	11.997207	25.078141	-0.782313	1.057446	2.199024	0.000000	0.112585	0.000000	-0.000774	-0.001117	0.000000	0.000000
53.046935	12.855452	23.883767	-1.171804	1.640862	2.263157	0.000000	0.176391	0.000000	-0.001272	-0.001143	0.000000	0.000000
53.487895	14.079377	22.205967	-1.614818	2.149619	2.355857	0.000000	0.242218	0.000000	-0.001784	-0.001182	0.000000	0.000000
53.933855	15.745817	20.095985	-2.135836	2.561866	2.479714	0.000000	0.311210	0.000000	-0.002323	-0.001236	0.000000	0.000000
54.482915	17.890957	17.721504	-1.748684	1.788451	2.630864	0.000000	0.236275	0.000000	-0.002979	-0.001150	0.000000	0.000000
55.031975	19.540220	16.121796	-1.238051	1.142420	2.739600	0.000000	0.157130	0.000000	-0.003582	-0.001043	0.000000	0.000000
55.581035	20.577157	15.182908	-0.640002	0.577758	2.803986	0.000000	0.075182	0.000000	-0.004121	-0.000919	0.000000	0.000000
56.130095	20.928567	14.837957	0.003226	0.054247	2.822872	0.000000	-0.008115	0.000000	-0.004587	-0.000778	0.000000	0.000000
56.428668	20.964794	14.787507	-0.067842	0.074348	2.822970	0.000000	-0.000459	0.000000	-0.004823	-0.000790	0.000000	0.000000
56.762001	21.015346	14.745497	-0.083815	0.051682	2.823081	0.000000	-0.000459	0.000000	-0.005086	-0.000790	0.000000	0.000000
57.095334	21.076547	14.718598	-0.099788	0.029016	2.823191	0.000000	-0.000459	0.000000	-0.005350	-0.000790	0.000000	0.000000
57.429918	21.148686	14.706793	-0.115821	0.006265	2.823302	0.000000	-0.000459	0.000000	-0.005614	-0.000790	0.000000	0.000000
57.727240	21.221816	14.709064	-0.188189	0.026167	2.823401	0.000000	0.007274	0.000000	-0.005849	-0.000805	0.000000	0.000000
58.276300	21.065743	14.962497	0.470358	-0.490507	2.804870	0.000000	-0.076042	0.000000	-0.006238	-0.000610	0.000000	0.000000
58.825360	20.200690	15.798982	1.095677	-1.042110	2.740792	0.000000	-0.158019	0.000000	-0.006516	-0.000403	0.000000	0.000000
59.374420	18.687752	17.278084	1.643615	-1.667924	2.632300	0.000000	-0.237200	0.000000	-0.006679	-0.000189	0.000000	0.000000
59.923480	16.633759	19.505132	2.075487	-2.412517	2.481314	0.000000	-0.312178	0.000000	-0.006723	0.000028	0.000000	0.000000
60.369440	15.024777	21.484478	1.545323	-2.007345	2.357579	0.000000	-0.243167	0.000000	-0.006750	-0.000147	0.000000	0.000000
60.810400	13.867227	23.042178	1.089861	-1.512078	2.265070	0.000000	-0.177305	0.000000	-0.006853	-0.000322	0.000000	0.000000
61.251360	13.087909	24.131021	0.684179	-0.948027	2.201206	0.000000	-0.113457	0.000000	-0.007034	-0.000501	0.000000	0.000000
61.692320	12.651231	24.701478	0.309751	-0.340853	2.165260	0.000000	-0.050897	0.000000	-0.007296	-0.000686	0.000000	0.000000
62.134530	12.537309	24.727018	-0.017701	0.217155	2.156836	0.000000	0.005427	0.000000	-0.007641	-0.000859	0.000000	0.000000
62.431853	12.554888	24.601632	-0.041423	0.204563	2.158705	0.000000	0.005427	0.000000	-0.007897	-0.000859	0.000000	0.000000
62.765186	12.591369	24.469962	-0.068019	0.190447	2.160801	0.000000	0.005427	0.000000	-0.008183	-0.000859	0.000000	0.000000
63.098520	12.645580	24.347702	-0.094615	0.176331	2.162896	0.000000	0.005427	0.000000	-0.008469	-0.000859	0.000000	0.000000
63.433103	12.717825	24.234448	-0.121310	0.162162	2.165000	0.000000	0.005427	0.000000	-0.008757	-0.000859	0.000000	0.000000
63.730426	12.796985	24.141820	-0.111043	0.085149	2.166866	0.000000	-0.000328	0.000000	-0.009012	-0.000836	0.000000	0.000000
64.171386	13.057034	23.800849	-0.481357	0.685258	2.180853	0.000000	0.061988	0.000000	-0.009433	-0.001074	0.000000	0.000000
64.612346	13.651997	22.942482	-0.873646	1.254193	2.222551	0.000000	0.125022	0.000000	-0.009961	-0.001324	0.000000	0.000000
65.053306	14.609029	21.605773	-1.305821	1.766074	2.292440	0.000000	0.189493	0.000000	-0.010602	-0.001589	0.000000	0.000000
65.494266	15.971811	19.851540	-1.797613	2.197620	2.391320	0.000000	0.256138	0.000000	-0.011364	-0.001872	0.000000	0.000000
65.940226	17.825937	17.734629	-2.375897	2.529727	2.521941	0.000000	0.326086	0.000000	-0.012267	-0.002178	0.000000	0.000000
66.489286	20.200180	15.366493	-1.924547	1.809581	2.681255	0.000000	0.249676	0.000000	-0.013350	-0.001763	0.000000	0.000000
67.038346	22.000966	13.714087	-1.337370	1.218288	2.797104	0.000000	0.168811	0.000000	-0.014197	-0.001317	0.000000	0.000000
67.587406	23.101245	12.659727	-0.655814	0.713742	2.867423	0.000000	0.084931	0.000000	-0.014792	-0.000847	0.000000	0.000000
68.136466	23.423400	12.128325	0.072018	0.260015	2.890960	0.000000	-0.000469	0.000000	-0.015124	-0.000363	0.000000	0.000000
68.435038	23.425037	11.959870	-0.009379	0.268852	2.893461	0.000000	0.008004	0.000000	-0.015245	-0.000405	0.000000	0.000000
68.768372	23.436034	11.790598	-0.023610	0.238966	2.896264	0.000000	0.008004	0.000000	-0.015380	-0.000405	0.000000	0.000000
69.101705	23.456518	11.641249	-0.037841	0.209081	2.899067	0.000000	0.008004	0.000000	-0.015515	-0.000405	0.000000	0.000000
69.436288	23.486619	11.511376	-0.052126	0.179083	2.901880	0.000000	0.008004	0.000000	-0.015651	-0.000405	0.000000	0.000000
69.733611	23.521561	11.412727	-0.134054	0.185951	2.904391	0.000000	0.016553	0.000000	-0.015771	-0.000449	0.000000	0.000000
70.282671	23.264810	11.436772	0.598883	-0.230013	2.889959	0.000000	-0.069427	0.000000	-0.015877	0.000064	0.000000	0.000000
