#ParticleID	Turn	x[m]	xp	y[m]	yp	z[m]	dE[GeV]# s	beta_x	beta_y	alpha_x	alpha_y	D_x	D_y	D_px	D_py	orbit_x	orbit_px	orbit_y	orbit_py
0.300000	11.918474	25.056289	-0.010272	-0.027978	2.605826	0.000000	-0.002527	0.000000	-0.001299	0.001083	0.000000	0.000000
0.601250	11.932278	25.076770	-0.035551	-0.040010	2.604738	0.000000	-0.002527	0.000000	-0.000973	0.001083	0.000000	0.000000
0.898573	11.960836	25.104093	-0.030988	-0.113437	2.603664	0.000000	-0.008951	0.000000	-0.000650	0.001085	0.000000	0.000000
1.339533	12.141483	24.925639	-0.379863	0.516594	2.615467	0.000000	0.064611	0.000000	-0.000175	0.001074	0.000000	0.000000
1.780493	12.636279	24.199826	-0.746101	1.123124	2.659839	0.000000	0.138898	0.000000	0.000299	0.001076	0.000000	0.000000
2.221453	13.467842	22.959668	-1.146435	1.678556	2.737281	0.000000	0.214755	0.000000	0.000776	0.001090	0.000000	0.000000
2.662413	14.674176	21.261582	-1.599157	2.157617	2.848670	0.000000	0.293047	0.000000	0.001262	0.001116	0.000000	0.000000
3.108373	16.331280	19.157909	-2.129300	2.539686	2.997104	0.000000	0.375157	0.000000	0.001768	0.001155	0.000000	0.000000
3.657433	18.455408	16.795032	-1.715781	1.789082	3.177460	0.000000	0.282967	0.000000	0.002385	0.001088	0.000000	0.000000
4.206493	20.055787	15.182022	-1.181034	1.165912	3.305790	0.000000	0.185775	0.000000	0.002959	0.001001	0.000000	0.000000
4.755553	21.019332	14.203998	-0.562834	0.625790	3.379825	0.000000	0.085304	0.000000	0.003481	0.000897	0.000000	0.000000
5.304613	21.277943	13.791305	0.095147	0.130242	3.398258	0.000000	-0.016667	0.000000	0.003941	0.000777	0.000000	0.000000
5.603185	21.257405	13.699470	0.027349	0.142681	3.395608	0.000000	-0.008084	0.000000	0.004176	0.000787	0.000000	0.000000
5.936519	21.244403	13.612625	0.011657	0.117854	3.392652	0.000000	-0.008084	0.000000	0.004439	0.000787	0.000000	0.000000
6.269852	21.241862	13.542331	-0.004036	0.093027	3.389695	0.000000	-0.008084	0.000000	0.004701	0.000787	0.000000	0.000000
6.604435	21.249833	13.488418	-0.019787	0.068107	3.386727	0.000000	-0.008084	0.000000	0.004964	0.000787	0.000000	0.000000
6.901758	21.265778	13.454492	-0.086892	0.079719	3.384091	0.000000	0.000368	0.000000	0.005198	0.000800	0.000000	0.000000
7.450818	20.998899	13.628215	0.570473	-0.397961	3.356049	0.000000	-0.100993	0.000000	0.005590	0.000625	0.000000	0.000000
7.999878	20.027986	14.338929	1.187545	-0.903994	3.272858	0.000000	-0.200551	0.000000	0.005883	0.000440	0.000000	0.000000
8.548938	18.421627	15.637273	1.720724	-1.474429	3.135998	0.000000	-0.296545	0.000000	0.006072	0.000246	0.000000	0.000000
9.097998	16.293322	17.615743	2.132332	-2.149905	2.947898	0.000000	-0.387274	0.000000	0.006152	0.000048	0.000000	0.000000
9.543958	14.633568	19.378490	1.602394	-1.785741	2.793221	0.000000	-0.306492	0.000000	0.006209	0.000208	0.000000	0.000000
9.984918	13.424346	20.762955	1.150128	-1.341691	2.674980	0.000000	-0.229705	0.000000	0.006337	0.000370	0.000000	0.000000
10.425878	12.589446	21.727245	0.750419	-0.836583	2.589923	0.000000	-0.155539	0.000000	0.006536	0.000536	0.000000	0.000000
10.866838	12.090712	22.227475	0.385000	-0.293402	2.537078	0.000000	-0.083150	0.000000	0.006810	0.000708	0.000000	0.000000
11.309048	11.905214	22.240311	0.064249	0.212018	2.515820	0.000000	-0.017460	0.000000	0.007163	0.000871	0.000000	0.000000
11.606371	11.874465	22.118389	0.039171	0.198048	2.510370	0.000000	-0.017460	0.000000	0.007422	0.000871	0.000000	0.000000
12.086371	11.856293	21.939087	-0.001314	0.175496	2.501571	0.000000	-0.017460	0.000000	0.007840	0.000871	0.000000	0.000000
12.566371	11.876987	21.781436	-0.041799	0.152943	2.492773	0.000000	-0.017460	0.000000	0.008258	0.000871	0.000000	0.000000
13.046371	11.936546	21.645436	-0.082284	0.130391	2.483974	0.000000	-0.017460	0.000000	0.008676	0.000871	0.000000	0.000000
13.526371	12.034972	21.531086	-0.122768	0.107838	2.475175	0.000000	-0.017460	0.000000	0.009095	0.000871	0.000000	0.000000
14.007621	12.172670	21.438174	-0.163359	0.085227	2.466353	0.000000	-0.017460	0.000000	0.009514	0.000871	0.000000	0.000000
14.304943	12.277233	21.391708	-0.161185	0.024023	2.460900	0.000000	-0.022922	0.000000	0.009773	0.000848	0.000000	0.000000
14.745903	12.577243	21.136346	-0.521310	0.552793	2.465765	0.000000	0.046890	0.000000	0.010203	0.001106	0.000000	0.000000
15.186863	13.204226	20.423935	-0.905272	1.056407	2.501393	0.000000	0.117224	0.000000	0.010750	0.001376	0.000000	0.000000
15.627823	14.186858	19.286885	-1.330625	1.511945	2.568185	0.000000	0.188879	0.000000	0.011419	0.001662	0.000000	0.000000
16.068783	15.570083	17.776935	-1.816814	1.898673	2.666895	0.000000	0.262668	0.000000	0.012218	0.001966	0.000000	0.000000
16.514743	17.440843	15.940998	-2.391062	2.200020	2.800314	0.000000	0.339924	0.000000	0.013168	0.002296	0.000000	0.000000
17.063803	19.843920	13.891138	-1.957739	1.554679	2.962644	0.000000	0.254370	0.000000	0.014308	0.001851	0.000000	0.000000
17.612863	21.691703	12.485425	-1.386009	1.020111	3.076936	0.000000	0.164333	0.000000	0.015195	0.001372	0.000000	0.000000
18.161923	22.853520	11.623717	-0.716283	0.558230	3.141172	0.000000	0.071401	0.000000	0.015811	0.000870	0.000000	0.000000
18.710983	23.247199	11.244625	0.004091	0.136126	3.154220	0.000000	-0.022784	0.000000	0.016148	0.000352	0.000000	0.000000
19.009556	23.279577	11.156524	-0.060956	0.134059	3.149402	0.000000	-0.015705	0.000000	0.016264	0.000391	0.000000	0.000000
19.342889	23.325005	11.077290	-0.075328	0.103644	3.144037	0.000000	-0.015705	0.000000	0.016395	0.000391	0.000000	0.000000
19.676223	23.380014	11.018332	-0.089700	0.073229	3.138671	0.000000	-0.015705	0.000000	0.016525	0.000391	0.000000	0.000000
20.010806	23.445155	10.979408	-0.220286	0.097099	3.133305	0.000000	-0.000180	0.000000	0.016656	0.000474	0.000000	0.000000
20.308129	23.580296	10.929706	-0.286129	0.094206	3.133124	0.000000	0.006801	0.000000	0.016797	0.000515	0.000000	0.000000
20.857189	23.488009	11.047730	0.453337	-0.310381	3.111064	0.000000	-0.086556	0.000000	0.016930	-0.000032	0.000000	0.000000
21.406249	22.596168	11.619613	1.160758	-0.737085	3.038368	0.000000	-0.178377	0.000000	0.016762	-0.000578	0.000000	0.000000
21.955309	20.967838	12.686102	1.786117	-1.216314	2.916323	0.000000	-0.267043	0.000000	0.016297	-0.001114	0.000000	0.000000
22.504369	18.718172	14.323183	2.285202	-1.782214	2.747091	0.000000	-0.350987	0.000000	0.015543	-0.001630	0.000000	0.000000
22.950329	16.946912	15.793218	1.698643	-1.499255	2.608116	0.000000	-0.275170	0.000000	0.014904	-0.001234	0.000000	0.000000
23.391289	15.675375	16.965797	1.194772	-1.149216	2.503217	0.000000	-0.202970	0.000000	0.014444	-0.000856	0.000000	0.000000
23.832249	14.822713	17.805260	0.745529	-0.746868	2.429467	0.000000	-0.133074	0.000000	0.014148	-0.000487	0.000000	0.000000
24.273209	14.349927	18.273404	0.330372	-0.310526	2.386027	0.000000	-0.064688	0.000000	0.014013	-0.000124	0.000000	0.000000
24.715418	14.235575	18.348565	-0.039661	0.101016	2.372408	0.000000	-0.002056	0.000000	0.014038	0.000205	0.000000	0.000000
25.012741	14.265379	18.293363	-0.060579	0.084647	2.371736	0.000000	-0.002056	0.000000	0.014099	0.000205	0.000000	0.000000
25.346075	14.313583	18.243050	-0.084032	0.066294	2.370982	0.000000	-0.002056	0.000000	0.014168	0.000205	0.000000	0.000000
25.679408	14.377421	18.204971	-0.107484	0.047942	2.370229	0.000000	-0.002056	0.000000	0.014236	0.000205	0.000000	0.000000
26.013991	14.456929	18.179421	-0.013740	-0.117959	2.369448	0.000000	-0.021278	0.000000	0.014305	0.000089	0.000000	0.000000
26.311314	14.471128	18.254605	-0.003812	-0.172999	2.363088	0.000000	-0.026258	0.000000	0.014331	0.000056	0.000000	0.000000
26.752274	14.653443	18.209254	-0.411021	0.275433	2.366237	0.000000	0.041017	0.000000	0.014438	0.000427	0.000000	0.000000
27.193234	15.201929	17.772378	-0.837024	0.711330	2.398972	0.000000	0.108755	0.000000	0.014709	0.000803	0.000000	0.000000
27.634194	16.141675	16.963855	-1.301300	1.114850	2.461665	0.000000	0.177723	0.000000	0.015147	0.001188	0.000000	0.000000
28.075154	17.515670	15.820482	-1.825080	1.467626	2.555027	0.000000	0.248704	0.000000	0.015759	0.001586	0.000000	0.000000
28.521114	19.411014	14.376829	-2.437604	1.754835	2.681712	0.000000	0.322987	0.000000	0.016559	0.002006	0.000000	0.000000
29.070174	21.821577	12.768737	-1.924633	1.190549	2.836005	0.000000	0.241400	0.000000	0.017511	0.001454	0.000000	0.000000
29.619234	23.590029	11.730484	-1.275581	0.711099	2.944555	0.000000	0.155553	0.000000	0.018151	0.000876	0.000000	0.000000
30.168294	24.591293	11.188097	-0.536338	0.282322	3.005442	0.000000	0.066960	0.000000	0.018470	0.000282	0.000000	0.000000
30.717354	24.754550	11.102931	0.240826	-0.126336	3.017591	0.000000	-0.022817	0.000000	0.018461	-0.000316	0.000000	0.000000
31.015927	24.646574	11.172053	0.174165	-0.129152	3.012816	0.000000	-0.016212	0.000000	0.018380	-0.000272	0.000000	0.000000
31.349260	24.535108	11.268265	0.160230	-0.159486	3.007503	0.000000	-0.016212	0.000000	0.018289	-0.000272	0.000000	0.000000
31.682593	24.432933	11.384701	0.146295	-0.189820	3.002189	0.000000	-0.016212	0.000000	0.018198	-0.000272	0.000000	0.000000
32.017177	24.339717	11.521909	0.132308	-0.220268	2.996856	0.000000	-0.016212	0.000000	0.018108	-0.000272	0.000000	0.000000
32.314499	24.264968	11.660824	0.066511	-0.221719	2.992130	0.000000	-0.009631	0.000000	0.018027	-0.000228	0.000000	0.000000
32.863559	23.776176	12.142291	0.817866	-0.660129	2.962721	0.000000	-0.098302	0.000000	0.017742	-0.000808	0.000000	0.000000
33.412619	22.488933	13.128160	1.511388	-1.145580	2.885322	0.000000	-0.185241	0.000000	0.017142	-0.001373	0.000000	0.000000
33.961679	20.494288	14.688668	2.098043	-1.712663	2.761297	0.000000	-0.268915	0.000000	0.016238	-0.001914	0.000000	0.000000
34.510739	17.933313	16.934991	2.536359	-2.401783	2.592836	0.000000	-0.347848	0.000000	0.015046	-0.002421	0.000000	0.000000
34.956699	15.943401	18.944714	1.939345	-2.084720	2.454718	0.000000	-0.276032	0.000000	0.014051	-0.002043	0.000000	0.000000
35.397659	14.459867	20.608760	1.436270	-1.673866	2.348916	0.000000	-0.207803	0.000000	0.013228	-0.001692	0.000000	0.000000
35.838619	13.389663	21.875266	0.998867	-1.186828	2.272517	0.000000	-0.141923	0.000000	0.012556	-0.001359	0.000000	0.000000
36.279579	12.683836	22.686602	0.607136	-0.645776	2.224656	0.000000	-0.077646	0.000000	0.012027	-0.001042	0.000000	0.000000
36.721789	12.309476	23.006073	0.269820	-0.125175	2.204773	0.000000	-0.019036	0.000000	0.011634	-0.000764	0.000000	0.000000
37.019112	12.156733	23.084411	0.243908	-0.138302	2.199340	0.000000	-0.019036	0.000000	0.011406	-0.000764	0.000000	0.000000
37.352445	12.003812	23.181517	0.214857	-0.153018	2.193250	0.000000	-0.019036	0.000000	0.011152	-0.000764	0.000000	0.000000
37.685779	11.870257	23.288434	0.185806	-0.167733	2.187159	0.000000	-0.019036	0.000000	0.010897	-0.000764	0.000000	0.000000
38.020362	11.755678	23.405618	0.156646	-0.182505	2.181046	0.000000	-0.019036	0.000000	0.010641	-0.000764	0.000000	0.000000
38.317684	11.670197	23.518121	0.156461	-0.247730	2.175610	0.000000	-0.023832	0.000000	0.010414	-0.000789	0.000000	0.000000
38.758644	11.681538	23.476123	-0.182492	0.342597	2.179145	0.000000	0.038606	0.000000	0.010125	-0.000524	0.000000	0.000000
39.199604	11.994421	22.918343	-0.529782	0.917329	2.210177	0.000000	0.101490	0.000000	0.009951	-0.000265	0.000000	0.000000
39.640564	12.623147	21.870171	-0.901285	1.450311	2.269061	0.000000	0.165533	0.000000	0.009890	-0.000009	0.000000	0.000000
40.081524	13.596455	20.379310	-1.313982	1.917286	2.356469	0.000000	0.231462	0.000000	0.009943	0.000246	0.000000	0.000000
40.527484	14.976475	18.490948	-1.790739	2.298527	2.474875	0.000000	0.300457	0.000000	0.010111	0.000507	0.000000	0.000000
41.076544	16.739678	16.369074	-1.400935	1.588281	2.619388	0.000000	0.225753	0.000000	0.010298	0.000176	0.000000	0.000000
41.625604	18.017446	14.960891	-0.912130	0.991198	2.721894	0.000000	0.147046	0.000000	0.010303	-0.000158	0.000000	0.000000
42.174664	18.719468	14.166072	-0.358872	0.464736	2.780573	0.000000	0.065728	0.000000	0.010125	-0.000489	0.000000	0.000000
42.723724	18.796134	13.927985	0.219737	-0.028611	2.794380	0.000000	-0.016764	0.000000	0.009768	-0.000811	0.000000	0.000000
43.022297	18.696615	13.931505	0.158385	-0.016549	2.791603	0.000000	-0.010077	0.000000	0.009533	-0.000787	0.000000	0.000000
43.502297	18.557198	13.963934	0.132067	-0.051012	2.787144	0.000000	-0.010077	0.000000	0.009155	-0.000787	0.000000	0.000000
43.982297	18.443045	14.029449	0.105750	-0.085476	2.782685	0.000000	-0.010077	0.000000	0.008778	-0.000787	0.000000	0.000000
44.462297	18.354157	14.128048	0.079433	-0.119940	2.778226	0.000000	-0.010077	0.000000	0.008400	-0.000787	0.000000	0.000000
44.942297	18.290533	14.259733	0.053116	-0.154403	2.773766	0.000000	-0.010077	0.000000	0.008022	-0.000787	0.000000	0.000000
45.423547	18.252333	14.424797	-0.063702	-0.117488	2.769313	0.000000	0.003644	0.000000	0.007644	-0.000749	0.000000	0.000000
45.720870	18.295106	14.500850	-0.124831	-0.103052	2.770621	0.000000	0.010425	0.000000	0.007421	-0.000730	0.000000	0.000000
46.269930	18.123810	14.894772	0.434491	-0.618559	2.754344	0.000000	-0.071251	0.000000	0.006956	-0.000963	0.000000	0.000000
46.818990	17.351505	15.875565	0.963096	-1.178129	2.693614	0.000000	-0.151678	0.000000	0.006367	-0.001179	0.000000	0.000000
47.368050	16.032789	17.513085	1.423633	-1.821624	2.589500	0.000000	-0.229434	0.000000	0.005665	-0.001374	0.000000	0.000000
47.917110	14.260869	19.923964	1.783564	-2.594882	2.443840	0.000000	-0.303141	0.000000	0.004862	-0.001544	0.000000	0.000000
48.363070	12.881340	22.067542	1.320006	-2.191290	2.324540	0.000000	-0.234992	0.000000	0.004200	-0.001427	0.000000	0.000000
48.804030	11.896781	23.785398	0.920611	-1.689383	2.235932	0.000000	-0.169914	0.000000	0.003594	-0.001326	0.000000	0.000000
49.244990	11.244694	25.024857	0.563292	-1.110606	2.175534	0.000000	-0.106757	0.000000	0.003028	-0.001241	0.000000	0.000000
49.685950	10.895268	25.729532	0.231721	-0.481297	2.142662	0.000000	-0.044803	0.000000	0.002497	-0.001170	0.000000	0.000000
50.128160	10.832685	25.867099	-0.063309	0.108035	2.136965	0.000000	0.011513	0.000000	0.001993	-0.001117	0.000000	0.000000
50.425482	10.878525	25.806314	-0.090866	0.096407	2.140720	0.000000	0.011513	0.000000	0.001661	-0.001117	0.000000	0.000000
50.758816	10.949401	25.746388	-0.121761	0.083370	2.144930	0.000000	0.011513	0.000000	0.001289	-0.001117	0.000000	0.000000
51.092149	11.040873	25.695154	-0.152655	0.070333	2.149139	0.000000	0.011513	0.000000	0.000917	-0.001117	0.000000	0.000000
51.426732	11.153175	25.652988	-0.093184	-0.150862	2.153343	0.000000	-0.005956	0.000000	0.000543	-0.001121	0.000000	0.000000
51.724055	11.216581	25.746222	-0.092621	-0.226141	2.151906	0.000000	-0.011223	0.000000	0.000210	-0.001122	0.000000	0.000000
52.165015	11.444390	25.659195	-0.426322	0.422748	2.161071	0.000000	0.050660	0.000000	-0.000285	-0.001123	0.000000	0.000000
52.605975	11.973928	25.006235	-0.779492	1.052398	2.197631	0.000000	0.113132	0.000000	-0.000782	-0.001136	0.000000	0.000000
53.046935	12.829375	23.817062	-1.168265	1.634161	2.262007	0.000000	0.176905	0.000000	-0.001289	-0.001163	0.000000	0.000000
53.487895	14.049802	22.145792	-1.610400	2.141569	2.354937	0.000000	0.242705	0.000000	-0.001810	-0.001203	0.000000	0.000000
53.933855	15.711827	20.043460	-2.130327	2.552832	2.479015	0.000000	0.311677	0.000000	-0.002358	-0.001257	0.000000	0.000000
54.482915	17.851365	17.677681	-1.744060	1.781543	2.630438	0.000000	0.236760	0.000000	-0.003025	-0.001170	0.000000	0.000000
55.031975	19.496182	16.084625	-1.234639	1.137144	2.739454	0.000000	0.157625	0.000000	-0.003639	-0.001062	0.000000	0.000000
55.581035	20.530147	15.150811	-0.638044	0.573739	2.804121	0.000000	0.075677	0.000000	-0.004188	-0.000935	0.000000	0.000000
56.130095	20.880269	14.809718	0.003592	0.051199	2.823284	0.000000	-0.007629	0.000000	-0.004663	-0.000792	0.000000	0.000000
56.428668	20.916228	14.761127	-0.067411	0.071223	2.823533	0.000000	0.000033	0.000000	-0.004903	-0.000804	0.000000	0.000000
56.762001	20.966505	14.721210	-0.083420	0.048527	2.823813	0.000000	0.000033	0.000000	-0.005171	-0.000804	0.000000	0.000000
57.095334	21.027455	14.696424	-0.099429	0.025830	2.824092	0.000000	0.000033	0.000000	-0.005439	-0.000804	0.000000	0.000000
57.429918	21.099366	14.686762	-0.115498	0.003049	2.824372	0.000000	0.000033	0.000000	-0.005708	-0.000804	0.000000	0.000000
57.727240	21.172314	14.690953	-0.187807	0.022902	2.824622	0.000000	0.007775	0.000000	-0.005947	-0.000820	0.000000	0.000000
58.276300	21.016731	14.947712	0.469083	-0.493337	2.806361	0.000000	-0.075585	0.000000	-0.006343	-0.000621	0.000000	0.000000
58.825360	20.153949	15.787158	1.092836	-1.044706	2.742526	0.000000	-0.157614	0.000000	-0.006627	-0.000411	0.000000	0.000000
59.374420	18.644903	17.269065	1.639410	-1.670472	2.634243	0.000000	-0.236854	0.000000	-0.006793	-0.000194	0.000000	0.000000
59.923480	16.596148	19.498963	2.070213	-2.415197	2.483431	0.000000	-0.311897	0.000000	-0.006839	0.000027	0.000000	0.000000
60.369440	14.991350	21.480906	1.541181	-2.010469	2.359834	0.000000	-0.242831	0.000000	-0.006866	-0.000150	0.000000	0.000000
60.810400	13.837030	23.041499	1.086650	-1.515496	2.267489	0.000000	-0.176908	0.000000	-0.006972	-0.000329	0.000000	0.000000
61.251360	13.060189	24.133428	0.681753	-0.951585	2.203817	0.000000	-0.112996	0.000000	-0.007157	-0.000511	0.000000	0.000000
61.692320	12.625346	24.707023	0.307998	-0.344387	2.168095	0.000000	-0.050366	0.000000	-0.007423	-0.000699	0.000000	0.000000
62.134530	12.512705	24.735618	-0.018888	0.213713	2.159929	0.000000	0.006020	0.000000	-0.007775	-0.000875	0.000000	0.000000
62.431853	12.531004	24.612272	-0.042658	0.201144	2.161979	0.000000	0.006020	0.000000	-0.008035	-0.000875	0.000000	0.000000
62.765186	12.568326	24.482873	-0.069307	0.187053	2.164278	0.000000	0.006020	0.000000	-0.008327	-0.000875	0.000000	0.000000
63.098520	12.623414	24.362868	-0.095957	0.172961	2.166576	0.000000	0.006020	0.000000	-0.008619	-0.000875	0.000000	0.000000
63.433103	12.696575	24.251860	-0.122706	0.158817	2.168883	0.000000	0.006020	0.000000	-0.008911	-0.000875	0.000000	0.000000
63.730426	12.776578	24.161217	-0.112495	0.081684	2.170931	0.000000	0.000247	0.000000	-0.009171	-0.000851	0.000000	0.000000
64.171386	13.037710	23.823048	-0.482378	0.682394	2.185202	0.000000	0.062671	0.000000	-0.009600	-0.001093	0.000000	0.000000
64.612346	13.633396	22.966893	-0.874282	1.252060	2.227236	0.000000	0.125820	0.000000	-0.010137	-0.001348	0.000000	0.000000
65.053306	14.590823	21.631710	-1.306100	1.764770	2.297515	0.000000	0.190417	0.000000	-0.010790	-0.001617	0.000000	0.000000
65.494266	15.953689	19.878243	-1.797547	2.197205	2.396845	0.000000	0.257199	0.000000	-0.011566	-0.001906	0.000000	0.000000
65.940226	17.807594	17.761294	-2.375476	2.530221	2.527988	0.000000	0.327295	0.000000	-0.012485	-0.002217	0.000000	0.000000
66.489286	20.181769	15.392944	-1.924878	1.809495	2.687928	0.000000	0.250680	0.000000	-0.013588	-0.001795	0.000000	0.000000
67.038346	21.983309	13.740957	-1.338432	1.217615	2.804282	0.000000	0.169591	0.000000	-0.014450	-0.001341	0.000000	0.000000
67.587406	23.085114	12.687682	-0.657534	0.712433	2.874975	0.000000	0.085473	0.000000	-0.015056	-0.000863	0.000000	0.000000
68.136466	23.409460	12.158109	0.069761	0.257978	2.898748	0.000000	-0.000174	0.000000	-0.015395	-0.000370	0.000000	0.000000
68.435038	23.412494	11.990755	-0.011730	0.267061	2.901350	0.000000	0.008338	0.000000	-0.015518	-0.000413	0.000000	0.000000
68.768372	23.425060	11.822641	-0.025970	0.237280	2.904267	0.000000	0.008338	0.000000	-0.015655	-0.000413	0.000000	0.000000
69.101705	23.447120	11.674382	-0.040209	0.207498	2.907184	0.000000	0.008338	0.000000	-0.015793	-0.000413	0.000000	0.000000
69.436288	23.478808	11.545533	-0.054502	0.177604	2.910111	0.000000	0.008338	0.000000	-0.015931	-0.000413	0.000000	0.000000
69.733611	23.515172	11.447733	-0.136551	0.184731	2.912724	0.000000	0.016928	0.000000	-0.016054	-0.000457	0.000000	0.000000
70.282671	23.261258	11.473660	0.596242	-0.232240	2.898426	0.000000	-0.069323	0.000000	-0.016161	0.000065	0.000000	0.000000
