#ParticleID	Turn	x[m]	xp	y[m]	yp	z[m]	dE[GeV]# s	beta_x	beta_y	alpha_x	alpha_y	D_x	D_y	D_px	D_py	orbit_x	orbit_px	orbit_y	orbit_py
0.300000	11.917542	25.051915	-0.010151	-0.028069	2.605975	0.000000	-0.002561	0.000000	-0.001300	0.001084	0.000000	0.000000
0.601250	11.931274	25.072452	-0.035432	-0.040103	2.604877	0.000000	-0.002561	0.000000	-0.000974	0.001084	0.000000	0.000000
0.898573	11.959761	25.099831	-0.030873	-0.113522	2.603793	0.000000	-0.008985	0.000000	-0.000651	0.001086	0.000000	0.000000
1.339533	12.140295	24.921502	-0.379721	0.516397	2.615581	0.000000	0.064580	0.000000	-0.000175	0.001075	0.000000	0.000000
1.780493	12.634952	24.195908	-0.745924	1.122825	2.659940	0.000000	0.138870	0.000000	0.000299	0.001077	0.000000	0.000000
2.221453	13.466341	22.956053	-1.146216	1.678169	2.737369	0.000000	0.214730	0.000000	0.000776	0.001090	0.000000	0.000000
2.662413	14.672461	21.258340	-1.598887	2.157159	2.848748	0.000000	0.293024	0.000000	0.001262	0.001117	0.000000	0.000000
3.108373	16.329296	19.155099	-2.128965	2.539179	2.997171	0.000000	0.375135	0.000000	0.001768	0.001156	0.000000	0.000000
3.657433	18.453082	16.792713	-1.715496	1.788691	3.177514	0.000000	0.282943	0.000000	0.002386	0.001089	0.000000	0.000000
4.206493	20.053186	15.180081	-1.180819	1.165610	3.305830	0.000000	0.185750	0.000000	0.002960	0.001002	0.000000	0.000000
4.755553	21.016540	14.202350	-0.562704	0.625555	3.379851	0.000000	0.085277	0.000000	0.003483	0.000898	0.000000	0.000000
5.304613	21.275061	13.789886	0.095182	0.130058	3.398269	0.000000	-0.016694	0.000000	0.003943	0.000777	0.000000	0.000000
5.603185	21.254498	13.698164	0.027390	0.142492	3.395611	0.000000	-0.008111	0.000000	0.004179	0.000788	0.000000	0.000000
5.936519	21.241469	13.611445	0.011695	0.117664	3.392645	0.000000	-0.008111	0.000000	0.004441	0.000788	0.000000	0.000000
6.269852	21.238904	13.541279	-0.003999	0.092836	3.389679	0.000000	-0.008111	0.000000	0.004704	0.000788	0.000000	0.000000
6.604435	21.246851	13.487494	-0.019753	0.067914	3.386702	0.000000	-0.008111	0.000000	0.004967	0.000788	0.000000	0.000000
6.901758	21.262776	13.453683	-0.086850	0.079522	3.384058	0.000000	0.000340	0.000000	0.005201	0.000801	0.000000	0.000000
7.450818	20.995907	13.627610	0.570413	-0.398139	3.356001	0.000000	-0.101019	0.000000	0.005594	0.000626	0.000000	0.000000
7.999878	20.025113	14.338516	1.187389	-0.904167	3.272796	0.000000	-0.200576	0.000000	0.005887	0.000440	0.000000	0.000000
8.548938	18.418974	15.637052	1.720482	-1.474609	3.135923	0.000000	-0.296567	0.000000	0.006075	0.000246	0.000000	0.000000
9.097998	16.290974	17.615729	2.132022	-2.150104	2.947812	0.000000	-0.387293	0.000000	0.006156	0.000048	0.000000	0.000000
9.543958	14.631465	19.378662	1.602153	-1.785958	2.793126	0.000000	-0.306514	0.000000	0.006213	0.000208	0.000000	0.000000
9.984918	13.422431	20.763322	1.149943	-1.341915	2.674874	0.000000	-0.229729	0.000000	0.006341	0.000370	0.000000	0.000000
10.425878	12.587671	21.727809	0.750283	-0.836804	2.589805	0.000000	-0.155566	0.000000	0.006540	0.000536	0.000000	0.000000
10.866838	12.089039	22.228228	0.384906	-0.293610	2.536947	0.000000	-0.083180	0.000000	0.006814	0.000708	0.000000	0.000000
11.309048	11.903606	22.241239	0.064188	0.211833	2.515675	0.000000	-0.017493	0.000000	0.007167	0.000872	0.000000	0.000000
11.606371	11.872894	22.119426	0.039108	0.197865	2.510215	0.000000	-0.017493	0.000000	0.007427	0.000872	0.000000	0.000000
12.086371	11.854786	21.940300	-0.001382	0.175315	2.501400	0.000000	-0.017493	0.000000	0.007845	0.000872	0.000000	0.000000
12.566371	11.875548	21.782821	-0.041872	0.152765	2.492585	0.000000	-0.017493	0.000000	0.008263	0.000872	0.000000	0.000000
13.046371	11.935181	21.646991	-0.082363	0.130215	2.483770	0.000000	-0.017493	0.000000	0.008682	0.000872	0.000000	0.000000
13.526371	12.033684	21.532808	-0.122853	0.107665	2.474954	0.000000	-0.017493	0.000000	0.009100	0.000872	0.000000	0.000000
14.007621	12.171467	21.440061	-0.163448	0.085056	2.466116	0.000000	-0.017493	0.000000	0.009520	0.000872	0.000000	0.000000
14.304943	12.276083	21.393696	-0.161282	0.023854	2.460653	0.000000	-0.022955	0.000000	0.009779	0.000849	0.000000	0.000000
14.745903	12.576169	21.138460	-0.521384	0.552680	2.465502	0.000000	0.046851	0.000000	0.010210	0.001107	0.000000	0.000000
15.186863	13.203208	20.426120	-0.905327	1.056357	2.501110	0.000000	0.117178	0.000000	0.010757	0.001377	0.000000	0.000000
15.627823	14.185881	19.289087	-1.330662	1.511959	2.567880	0.000000	0.188825	0.000000	0.011426	0.001663	0.000000	0.000000
16.068783	15.569133	17.779096	-1.816836	1.898751	2.666565	0.000000	0.262606	0.000000	0.012226	0.001968	0.000000	0.000000
16.514743	17.439906	15.943061	-2.391070	2.200159	2.799953	0.000000	0.339853	0.000000	0.013177	0.002297	0.000000	0.000000
17.063803	19.843016	13.893081	-1.957789	1.554760	2.962247	0.000000	0.254312	0.000000	0.014318	0.001852	0.000000	0.000000
17.612863	21.690875	12.487307	-1.386096	1.020141	3.076510	0.000000	0.164287	0.000000	0.015205	0.001373	0.000000	0.000000
18.161923	22.852807	11.625593	-0.716403	0.558211	3.140724	0.000000	0.071370	0.000000	0.015822	0.000871	0.000000	0.000000
18.710983	23.246632	11.246550	0.003947	0.136055	3.153759	0.000000	-0.022800	0.000000	0.016158	0.000352	0.000000	0.000000
19.009556	23.279091	11.158489	-0.061093	0.133995	3.148936	0.000000	-0.015723	0.000000	0.016275	0.000392	0.000000	0.000000
19.342889	23.324611	11.079295	-0.075465	0.103586	3.143564	0.000000	-0.015723	0.000000	0.016406	0.000392	0.000000	0.000000
19.676223	23.379712	11.020374	-0.089838	0.073177	3.138193	0.000000	-0.015723	0.000000	0.016536	0.000392	0.000000	0.000000
20.010806	23.444945	10.981483	-0.220423	0.097063	3.132820	0.000000	-0.000201	0.000000	0.016667	0.000474	0.000000	0.000000
20.308129	23.580168	10.931800	-0.286261	0.094177	3.132633	0.000000	0.006779	0.000000	0.016808	0.000515	0.000000	0.000000
20.857189	23.488028	11.049888	0.453204	-0.310468	3.110565	0.000000	-0.086562	0.000000	0.016941	-0.000032	0.000000	0.000000
21.406249	22.596329	11.621903	1.160633	-0.737239	3.037870	0.000000	-0.178368	0.000000	0.016773	-0.000578	0.000000	0.000000
21.955309	20.968127	12.688601	1.786009	-1.216544	2.915835	0.000000	-0.267017	0.000000	0.016308	-0.001114	0.000000	0.000000
22.504369	18.718565	14.325984	2.285119	-1.782537	2.746622	0.000000	-0.350946	0.000000	0.015553	-0.001631	0.000000	0.000000
22.950329	16.947379	15.796278	1.698560	-1.499508	2.607663	0.000000	-0.275141	0.000000	0.014914	-0.001235	0.000000	0.000000
23.391289	15.675916	16.969045	1.194684	-1.149388	2.502774	0.000000	-0.202953	0.000000	0.014453	-0.000857	0.000000	0.000000
23.832249	14.823334	17.808621	0.745434	-0.746951	2.429029	0.000000	-0.133067	0.000000	0.014157	-0.000488	0.000000	0.000000
24.273209	14.350637	18.276798	0.330265	-0.310517	2.385590	0.000000	-0.064693	0.000000	0.014022	-0.000124	0.000000	0.000000
24.715418	14.236387	18.351910	-0.039787	0.101114	2.371966	0.000000	-0.002070	0.000000	0.014048	0.000205	0.000000	0.000000
25.012741	14.266266	18.296649	-0.060704	0.084748	2.371290	0.000000	-0.002070	0.000000	0.014109	0.000205	0.000000	0.000000
25.346075	14.314552	18.246267	-0.084156	0.066398	2.370531	0.000000	-0.002070	0.000000	0.014177	0.000205	0.000000	0.000000
25.679408	14.378473	18.208118	-0.107607	0.048049	2.369772	0.000000	-0.002070	0.000000	0.014245	0.000205	0.000000	0.000000
26.013991	14.458063	18.182496	-0.013853	-0.117874	2.368987	0.000000	-0.021289	0.000000	0.014314	0.000089	0.000000	0.000000
26.311314	14.472329	18.257629	-0.003924	-0.172913	2.362624	0.000000	-0.026268	0.000000	0.014341	0.000057	0.000000	0.000000
26.752274	14.654755	18.212165	-0.411164	0.275600	2.365765	0.000000	0.040995	0.000000	0.014447	0.000428	0.000000	0.000000
27.193234	15.203384	17.775109	-0.837205	0.711570	2.398488	0.000000	0.108721	0.000000	0.014719	0.000804	0.000000	0.000000
27.634194	16.143310	16.966347	-1.301528	1.115152	2.461163	0.000000	0.177677	0.000000	0.015158	0.001189	0.000000	0.000000
28.075154	17.517530	15.822684	-1.825364	1.467977	2.554501	0.000000	0.248644	0.000000	0.015769	0.001588	0.000000	0.000000
28.521114	19.413159	14.378703	-2.437958	1.755218	2.681156	0.000000	0.322913	0.000000	0.016570	0.002007	0.000000	0.000000
29.070174	21.824084	12.770236	-1.924933	1.190852	2.835413	0.000000	0.241345	0.000000	0.017523	0.001455	0.000000	0.000000
29.619234	23.592827	11.731681	-1.275805	0.711345	2.943937	0.000000	0.155518	0.000000	0.018164	0.000876	0.000000	0.000000
30.168294	24.594288	11.189046	-0.536471	0.282529	3.004810	0.000000	0.066945	0.000000	0.018482	0.000283	0.000000	0.000000
30.717354	24.757636	11.103669	0.240794	-0.126154	3.016956	0.000000	-0.022812	0.000000	0.018473	-0.000316	0.000000	0.000000
31.015927	24.649678	11.172682	0.174136	-0.128969	3.012182	0.000000	-0.016210	0.000000	0.018392	-0.000272	0.000000	0.000000
31.349260	24.538231	11.268771	0.160203	-0.159300	3.006870	0.000000	-0.016210	0.000000	0.018301	-0.000272	0.000000	0.000000
31.682593	24.436074	11.385081	0.146270	-0.189631	3.001557	0.000000	-0.016210	0.000000	0.018211	-0.000272	0.000000	0.000000
32.017177	24.342874	11.522162	0.132285	-0.220075	2.996225	0.000000	-0.016210	0.000000	0.018120	-0.000272	0.000000	0.000000
32.314499	24.268138	11.660961	0.066490	-0.221526	2.991500	0.000000	-0.009631	0.000000	0.018039	-0.000228	0.000000	0.000000
32.863559	23.779312	12.142216	0.817950	-0.659930	2.962097	0.000000	-0.098281	0.000000	0.017754	-0.000808	0.000000	0.000000
33.412619	22.491922	13.127855	1.511571	-1.145360	2.884715	0.000000	-0.185200	0.000000	0.017154	-0.001374	0.000000	0.000000
33.961679	20.497025	14.688103	2.098313	-1.712406	2.760718	0.000000	-0.268855	0.000000	0.016249	-0.001915	0.000000	0.000000
34.510739	17.935714	16.934116	2.536696	-2.401471	2.592297	0.000000	-0.347770	0.000000	0.015056	-0.002423	0.000000	0.000000
34.956699	15.945534	18.943559	1.939608	-2.084407	2.454211	0.000000	-0.275968	0.000000	0.014061	-0.002045	0.000000	0.000000
35.397659	14.461794	20.607335	1.436473	-1.673568	2.348435	0.000000	-0.207751	0.000000	0.013237	-0.001693	0.000000	0.000000
35.838619	13.391434	21.873590	0.999019	-1.186558	2.272056	0.000000	-0.141884	0.000000	0.012564	-0.001360	0.000000	0.000000
36.279579	12.685492	22.684704	0.607244	-0.645545	2.224210	0.000000	-0.077618	0.000000	0.012035	-0.001043	0.000000	0.000000
36.721789	12.311054	23.003993	0.269891	-0.124986	2.204337	0.000000	-0.019018	0.000000	0.011642	-0.000765	0.000000	0.000000
37.019112	12.158269	23.082218	0.243981	-0.138113	2.198910	0.000000	-0.019018	0.000000	0.011414	-0.000765	0.000000	0.000000
37.352445	12.005297	23.179199	0.214932	-0.152829	2.192826	0.000000	-0.019018	0.000000	0.011159	-0.000765	0.000000	0.000000
37.685779	11.871692	23.285991	0.185884	-0.167546	2.186741	0.000000	-0.019018	0.000000	0.010904	-0.000765	0.000000	0.000000
38.020362	11.757060	23.403050	0.156727	-0.182318	2.180634	0.000000	-0.019018	0.000000	0.010648	-0.000765	0.000000	0.000000
38.317684	11.671529	23.515442	0.156545	-0.247534	2.175204	0.000000	-0.023813	0.000000	0.010421	-0.000789	0.000000	0.000000
38.758644	11.682809	23.473303	-0.182437	0.342719	2.178745	0.000000	0.038615	0.000000	0.010132	-0.000524	0.000000	0.000000
39.199604	11.995656	22.915450	-0.529754	0.917372	2.209778	0.000000	0.101489	0.000000	0.009958	-0.000265	0.000000	0.000000
39.640564	12.624368	21.867275	-0.901282	1.450273	2.268660	0.000000	0.165521	0.000000	0.009897	-0.000009	0.000000	0.000000
40.081524	13.597686	20.376483	-1.314005	1.917169	2.356060	0.000000	0.231440	0.000000	0.009950	0.000247	0.000000	0.000000
40.527484	14.977738	18.488260	-1.790789	2.298335	2.474454	0.000000	0.300424	0.000000	0.010118	0.000507	0.000000	0.000000
41.076544	16.740970	16.366551	-1.400936	1.588169	2.618953	0.000000	0.225734	0.000000	0.010305	0.000176	0.000000	0.000000
41.625604	18.018712	14.958452	-0.912083	0.991157	2.721452	0.000000	0.147042	0.000000	0.010310	-0.000158	0.000000	0.000000
42.174664	18.720657	14.163639	-0.358779	0.464765	2.780132	0.000000	0.065738	0.000000	0.010133	-0.000489	0.000000	0.000000
42.723724	18.797199	13.925482	0.219869	-0.028512	2.793949	0.000000	-0.016740	0.000000	0.009775	-0.000812	0.000000	0.000000
43.022297	18.697601	13.928948	0.158517	-0.016461	2.791178	0.000000	-0.010054	0.000000	0.009540	-0.000787	0.000000	0.000000
43.502297	18.558056	13.961296	0.132200	-0.050931	2.786730	0.000000	-0.010054	0.000000	0.009162	-0.000787	0.000000	0.000000
43.982297	18.443776	14.026735	0.105883	-0.085401	2.782282	0.000000	-0.010054	0.000000	0.008784	-0.000787	0.000000	0.000000
44.462297	18.354760	14.125266	0.079567	-0.119871	2.777833	0.000000	-0.010054	0.000000	0.008406	-0.000787	0.000000	0.000000
44.942297	18.291008	14.256887	0.053250	-0.154341	2.773385	0.000000	-0.010054	0.000000	0.008028	-0.000787	0.000000	0.000000
45.423547	18.252679	14.421893	-0.063569	-0.117445	2.768942	0.000000	0.003664	0.000000	0.007649	-0.000749	0.000000	0.000000
45.720870	18.295372	14.497922	-0.124696	-0.103023	2.770257	0.000000	0.010444	0.000000	0.007427	-0.000731	0.000000	0.000000
46.269930	18.123925	14.891764	0.434631	-0.618440	2.753994	0.000000	-0.071220	0.000000	0.006961	-0.000964	0.000000	0.000000
46.818990	17.351468	15.872375	0.963231	-1.177913	2.693284	0.000000	-0.151636	0.000000	0.006371	-0.001180	0.000000	0.000000
47.368050	16.032610	17.509598	1.423754	-1.821295	2.589196	0.000000	-0.229382	0.000000	0.005669	-0.001375	0.000000	0.000000
47.917110	14.260568	19.920044	1.783662	-2.594418	2.443568	0.000000	-0.303080	0.000000	0.004866	-0.001545	0.000000	0.000000
48.363070	12.880953	22.063247	1.320100	-2.190918	2.324294	0.000000	-0.234938	0.000000	0.004204	-0.001428	0.000000	0.000000
48.804030	11.896311	23.780822	0.920706	-1.689119	2.235709	0.000000	-0.169866	0.000000	0.003597	-0.001327	0.000000	0.000000
49.244990	11.244138	25.020102	0.563393	-1.110463	2.175331	0.000000	-0.106714	0.000000	0.003031	-0.001242	0.000000	0.000000
49.685950	10.894620	25.724708	0.231831	-0.481282	2.142478	0.000000	-0.044765	0.000000	0.002499	-0.001171	0.000000	0.000000
50.128160	10.831933	25.862318	-0.063187	0.107935	2.136796	0.000000	0.011547	0.000000	0.001995	-0.001118	0.000000	0.000000
50.425482	10.877701	25.801593	-0.090745	0.096304	2.140562	0.000000	0.011547	0.000000	0.001663	-0.001118	0.000000	0.000000
50.758816	10.948497	25.741736	-0.121641	0.083266	2.144783	0.000000	0.011547	0.000000	0.001290	-0.001118	0.000000	0.000000
51.092149	11.039890	25.690572	-0.152537	0.070227	2.149004	0.000000	0.011547	0.000000	0.000918	-0.001118	0.000000	0.000000
51.426732	11.152113	25.648478	-0.093076	-0.150934	2.153220	0.000000	-0.005921	0.000000	0.000544	-0.001122	0.000000	0.000000
51.724055	11.215456	25.741755	-0.092519	-0.226204	2.151793	0.000000	-0.011188	0.000000	0.000210	-0.001122	0.000000	0.000000
52.165015	11.443163	25.654836	-0.426191	0.422568	2.160974	0.000000	0.050693	0.000000	-0.000285	-0.001123	0.000000	0.000000
52.605975	11.972570	25.002083	-0.779327	1.052109	2.197548	0.000000	0.113163	0.000000	-0.000782	-0.001137	0.000000	0.000000
53.046935	12.827854	23.813208	-1.168058	1.633776	2.261937	0.000000	0.176933	0.000000	-0.001289	-0.001164	0.000000	0.000000
53.487895	14.048076	22.142313	-1.610142	2.141107	2.354879	0.000000	0.242732	0.000000	-0.001811	-0.001204	0.000000	0.000000
53.933855	15.709844	20.040421	-2.130005	2.552313	2.478969	0.000000	0.311702	0.000000	-0.002359	-0.001258	0.000000	0.000000
54.482915	17.849054	17.675143	-1.743790	1.781146	2.630406	0.000000	0.236786	0.000000	-0.003027	-0.001171	0.000000	0.000000
55.031975	19.493612	16.082469	-1.234440	1.136841	2.739437	0.000000	0.157652	0.000000	-0.003641	-0.001063	0.000000	0.000000
55.581035	20.527403	15.148946	-0.637929	0.573509	2.804119	0.000000	0.075704	0.000000	-0.004190	-0.000936	0.000000	0.000000
56.130095	20.877449	14.808073	0.003614	0.051025	2.823299	0.000000	-0.007602	0.000000	-0.004665	-0.000792	0.000000	0.000000
56.428668	20.913392	14.759588	-0.067384	0.071044	2.823556	0.000000	0.000060	0.000000	-0.004906	-0.000805	0.000000	0.000000
56.762001	20.963652	14.719791	-0.083396	0.048346	2.823844	0.000000	0.000060	0.000000	-0.005174	-0.000805	0.000000	0.000000
57.095334	21.024586	14.695127	-0.099407	0.025648	2.824133	0.000000	0.000060	0.000000	-0.005442	-0.000805	0.000000	0.000000
57.429918	21.096483	14.685587	-0.115478	0.002865	2.824422	0.000000	0.000060	0.000000	-0.005711	-0.000805	0.000000	0.000000
57.727240	21.169420	14.689888	-0.187783	0.022714	2.824681	0.000000	0.007802	0.000000	-0.005951	-0.000821	0.000000	0.000000
58.276300	21.013862	14.946838	0.469011	-0.493499	2.806435	0.000000	-0.075559	0.000000	-0.006347	-0.000621	0.000000	0.000000
58.825360	20.151211	15.786453	1.092672	-1.044854	2.742613	0.000000	-0.157591	0.000000	-0.006631	-0.000411	0.000000	0.000000
59.374420	18.642390	17.268520	1.639165	-1.670616	2.634343	0.000000	-0.236834	0.000000	-0.006797	-0.000194	0.000000	0.000000
59.923480	16.593940	19.498579	2.069906	-2.415348	2.483541	0.000000	-0.311881	0.000000	-0.006843	0.000027	0.000000	0.000000
60.369440	14.989385	21.480669	1.540940	-2.010646	2.359952	0.000000	-0.242811	0.000000	-0.006870	-0.000151	0.000000	0.000000
60.810400	13.835254	23.041427	1.086464	-1.515691	2.267617	0.000000	-0.176885	0.000000	-0.006976	-0.000329	0.000000	0.000000
61.251360	13.058556	24.133532	0.681612	-0.951789	2.203956	0.000000	-0.112970	0.000000	-0.007161	-0.000511	0.000000	0.000000
61.692320	12.623818	24.707307	0.307897	-0.344591	2.168246	0.000000	-0.050336	0.000000	-0.007428	-0.000699	0.000000	0.000000
62.134530	12.511251	24.736079	-0.018957	0.213515	2.160094	0.000000	0.006054	0.000000	-0.007780	-0.000875	0.000000	0.000000
62.431853	12.529592	24.612849	-0.042730	0.200948	2.162155	0.000000	0.006054	0.000000	-0.008040	-0.000875	0.000000	0.000000
62.765186	12.566963	24.483581	-0.069382	0.186858	2.164464	0.000000	0.006054	0.000000	-0.008332	-0.000875	0.000000	0.000000
63.098520	12.622101	24.363706	-0.096034	0.172768	2.166774	0.000000	0.006054	0.000000	-0.008624	-0.000875	0.000000	0.000000
63.433103	12.695315	24.252827	-0.122786	0.158625	2.169092	0.000000	0.006054	0.000000	-0.008917	-0.000875	0.000000	0.000000
63.730426	12.775366	24.162298	-0.112580	0.081487	2.171150	0.000000	0.000279	0.000000	-0.009177	-0.000852	0.000000	0.000000
64.171386	13.036562	23.824288	-0.482438	0.682231	2.185437	0.000000	0.062709	0.000000	-0.009606	-0.001094	0.000000	0.000000
64.612346	13.632290	22.968260	-0.874318	1.251938	2.227490	0.000000	0.125865	0.000000	-0.010144	-0.001349	0.000000	0.000000
65.053306	14.589740	21.633165	-1.306115	1.764694	2.297790	0.000000	0.190469	0.000000	-0.010797	-0.001619	0.000000	0.000000
65.494266	15.952610	19.879743	-1.797542	2.197179	2.397145	0.000000	0.257258	0.000000	-0.011574	-0.001907	0.000000	0.000000
65.940226	17.806500	17.762794	-2.375450	2.530247	2.528317	0.000000	0.327362	0.000000	-0.012493	-0.002219	0.000000	0.000000
66.489286	20.180671	15.394433	-1.924897	1.809488	2.688291	0.000000	0.250736	0.000000	-0.013597	-0.001796	0.000000	0.000000
67.038346	21.982255	13.742472	-1.338494	1.217575	2.804673	0.000000	0.169635	0.000000	-0.014459	-0.001342	0.000000	0.000000
67.587406	23.084148	12.689261	-0.657634	0.712357	2.875387	0.000000	0.085504	0.000000	-0.015065	-0.000864	0.000000	0.000000
68.136466	23.408623	12.159793	0.069628	0.257861	2.899172	0.000000	-0.000157	0.000000	-0.015405	-0.000370	0.000000	0.000000
68.435038	23.411738	11.992502	-0.011866	0.266957	2.901781	0.000000	0.008357	0.000000	-0.015528	-0.000413	0.000000	0.000000
68.768372	23.424395	11.824455	-0.026106	0.237181	2.904704	0.000000	0.008357	0.000000	-0.015665	-0.000413	0.000000	0.000000
69.101705	23.446545	11.676260	-0.040346	0.207405	2.907627	0.000000	0.008357	0.000000	-0.015803	-0.000413	0.000000	0.000000
69.436288	23.478325	11.547471	-0.054639	0.177518	2.910561	0.000000	0.008357	0.000000	-0.015941	-0.000413	0.000000	0.000000
69.733611	23.514771	11.449721	-0.136693	0.184658	2.913180	0.000000	0.016948	0.000000	-0.016064	-0.000458	0.000000	0.000000
70.282671	23.261018	11.475758	0.596091	-0.232370	2.898889	0.000000	-0.069317	0.000000	-0.016172	0.000065	0.000000	0.000000
