#ParticleID	Turn	x[m]	xp	y[m]	yp	z[m]	dE[GeV]# s	beta_x	beta_y	alpha_x	alpha_y	D_x	D_y	D_px	D_py	orbit_x	orbit_px	orbit_y	orbit_py
0.300000	11.940583	25.163062	-0.013353	-0.025713	2.602304	0.000000	-0.001655	0.000000	-0.001248	0.001051	0.000000	0.000000
0.601250	11.956230	25.182163	-0.038587	-0.037693	2.601488	0.000000	-0.001655	0.000000	-0.000931	0.001051	0.000000	0.000000
0.898573	11.986581	25.208093	-0.033925	-0.111316	2.600684	0.000000	-0.008070	0.000000	-0.000619	0.001053	0.000000	0.000000
1.339533	12.170095	25.026564	-0.383464	0.521420	2.612872	0.000000	0.065420	0.000000	-0.000157	0.001043	0.000000	0.000000
1.780493	12.668414	24.295378	-0.750530	1.130436	2.657600	0.000000	0.139645	0.000000	0.000303	0.001045	0.000000	0.000000
2.221453	13.504316	23.047794	-1.151894	1.688021	2.735372	0.000000	0.215449	0.000000	0.000766	0.001058	0.000000	0.000000
2.662413	14.716004	21.340566	-1.605896	2.168804	2.847071	0.000000	0.293696	0.000000	0.001238	0.001084	0.000000	0.000000
3.108373	16.379801	19.226330	-2.137639	2.552088	2.995798	0.000000	0.375767	0.000000	0.001730	0.001123	0.000000	0.000000
3.657433	18.512462	16.851469	-1.722908	1.798637	3.176517	0.000000	0.283614	0.000000	0.002329	0.001057	0.000000	0.000000
4.206493	20.119759	15.229211	-1.186448	1.173302	3.305225	0.000000	0.186447	0.000000	0.002887	0.000973	0.000000	0.000000
4.755553	21.088118	14.244014	-0.566152	0.631541	3.379647	0.000000	0.085988	0.000000	0.003394	0.000871	0.000000	0.000000
5.304613	21.349101	13.825713	0.094158	0.134765	3.398469	0.000000	-0.015983	0.000000	0.003841	0.000754	0.000000	0.000000
5.603185	21.329276	13.731098	0.026180	0.147348	3.396033	0.000000	-0.007392	0.000000	0.004069	0.000763	0.000000	0.000000
5.936519	21.317035	13.641134	0.010542	0.122545	3.393315	0.000000	-0.007392	0.000000	0.004323	0.000763	0.000000	0.000000
6.269852	21.315220	13.567704	-0.005097	0.097742	3.390597	0.000000	-0.007392	0.000000	0.004577	0.000763	0.000000	0.000000
6.604435	21.323883	13.510628	-0.020794	0.072846	3.387868	0.000000	-0.007392	0.000000	0.004833	0.000763	0.000000	0.000000
6.901758	21.340412	13.473878	-0.088104	0.084566	3.385445	0.000000	0.001073	0.000000	0.005060	0.000776	0.000000	0.000000
7.450818	21.073480	13.642543	0.571771	-0.393546	3.357790	0.000000	-0.100336	0.000000	0.005440	0.000606	0.000000	0.000000
7.999878	20.099792	14.348500	1.191263	-0.899696	3.274951	0.000000	-0.199957	0.000000	0.005724	0.000425	0.000000	0.000000
8.548938	18.488136	15.642044	1.726598	-1.469942	3.138404	0.000000	-0.296023	0.000000	0.005906	0.000237	0.000000	0.000000
9.097998	16.352382	17.615332	2.139949	-2.144907	2.950573	0.000000	-0.386833	0.000000	0.005983	0.000044	0.000000	0.000000
9.543958	14.686619	19.373417	1.608306	-1.780340	2.796111	0.000000	-0.305981	0.000000	0.006037	0.000200	0.000000	0.000000
9.984918	13.472830	20.753027	1.154614	-1.336133	2.678117	0.000000	-0.229116	0.000000	0.006160	0.000357	0.000000	0.000000
10.425878	12.634524	21.712438	0.753685	-0.831123	2.593344	0.000000	-0.154866	0.000000	0.006353	0.000519	0.000000	0.000000
10.866838	12.133391	22.207985	0.387194	-0.288288	2.540824	0.000000	-0.082385	0.000000	0.006619	0.000686	0.000000	0.000000
11.309048	11.946385	22.216540	0.065623	0.216508	2.519937	0.000000	-0.016615	0.000000	0.006961	0.000845	0.000000	0.000000
11.606371	11.914794	22.091960	0.040628	0.202498	2.514746	0.000000	-0.016615	0.000000	0.007212	0.000845	0.000000	0.000000
12.086371	11.895160	21.908419	0.000275	0.179879	2.506365	0.000000	-0.016615	0.000000	0.007617	0.000845	0.000000	0.000000
12.566371	11.914265	21.746591	-0.040077	0.157261	2.497985	0.000000	-0.016615	0.000000	0.008023	0.000845	0.000000	0.000000
13.046371	11.972109	21.606477	-0.080430	0.134643	2.489604	0.000000	-0.016615	0.000000	0.008428	0.000845	0.000000	0.000000
13.526371	12.068691	21.488077	-0.120782	0.112024	2.481223	0.000000	-0.016615	0.000000	0.008833	0.000845	0.000000	0.000000
14.007621	12.204414	21.391167	-0.161240	0.089347	2.472820	0.000000	-0.016615	0.000000	0.009240	0.000845	0.000000	0.000000
14.304943	12.307694	21.342259	-0.158832	0.028058	2.467626	0.000000	-0.022110	0.000000	0.009491	0.000822	0.000000	0.000000
14.745903	12.605902	21.083953	-0.519574	0.555411	2.472901	0.000000	0.047880	0.000000	0.009908	0.001072	0.000000	0.000000
15.186863	13.231586	20.369906	-0.904072	1.057490	2.509023	0.000000	0.118404	0.000000	0.010439	0.001335	0.000000	0.000000
15.627823	14.213364	19.232605	-1.329905	1.511443	2.576399	0.000000	0.190263	0.000000	0.011088	0.001612	0.000000	0.000000
16.068783	15.596137	17.723798	-1.816542	1.896609	2.675790	0.000000	0.264272	0.000000	0.011863	0.001908	0.000000	0.000000
16.514743	17.466813	15.890392	-2.391217	2.196470	2.810003	0.000000	0.341768	0.000000	0.012785	0.002228	0.000000	0.000000
17.063803	19.869412	13.843642	-1.956777	1.552555	2.973289	0.000000	0.255886	0.000000	0.013892	0.001796	0.000000	0.000000
17.612863	21.715527	12.439561	-1.384001	1.019260	3.088340	0.000000	0.165492	0.000000	0.014752	0.001332	0.000000	0.000000
18.161923	22.874608	11.578126	-0.713374	0.558591	3.153127	0.000000	0.072183	0.000000	0.015350	0.000844	0.000000	0.000000
18.710983	23.264681	11.197968	0.007693	0.137723	3.166508	0.000000	-0.022393	0.000000	0.015676	0.000341	0.000000	0.000000
19.009556	23.295093	11.108933	-0.057640	0.135552	3.161829	0.000000	-0.015251	0.000000	0.015789	0.000379	0.000000	0.000000
19.342889	23.338305	11.028750	-0.071996	0.104995	3.156619	0.000000	-0.015251	0.000000	0.015915	0.000379	0.000000	0.000000
19.676223	23.391088	10.968940	-0.086353	0.074438	3.151409	0.000000	-0.015251	0.000000	0.016041	0.000379	0.000000	0.000000
20.010806	23.453985	10.929255	-0.216968	0.097916	3.146199	0.000000	0.000337	0.000000	0.016168	0.000459	0.000000	0.000000
20.308129	23.587134	10.879111	-0.283080	0.094905	3.146175	0.000000	0.007385	0.000000	0.016305	0.000499	0.000000	0.000000
20.857189	23.491395	10.995589	0.456534	-0.308248	3.124323	0.000000	-0.086397	0.000000	0.016434	-0.000032	0.000000	0.000000
21.406249	22.596073	11.564274	1.163877	-0.733367	3.051593	0.000000	-0.178647	0.000000	0.016270	-0.000562	0.000000	0.000000
21.955309	20.964481	12.625685	1.788940	-1.210745	2.929272	0.000000	-0.267735	0.000000	0.015819	-0.001082	0.000000	0.000000
22.504369	18.711995	14.255445	2.287533	-1.774395	2.759526	0.000000	-0.352090	0.000000	0.015086	-0.001582	0.000000	0.000000
22.950329	16.938732	15.719217	1.700899	-1.493134	2.620113	0.000000	-0.275958	0.000000	0.014466	-0.001199	0.000000	0.000000
23.391289	15.665217	16.887235	1.197047	-1.145052	2.514922	0.000000	-0.203453	0.000000	0.014019	-0.000832	0.000000	0.000000
23.832249	14.810511	17.723957	0.747926	-0.744851	2.441018	0.000000	-0.133257	0.000000	0.013731	-0.000474	0.000000	0.000000
24.273209	14.335520	18.191304	0.333001	-0.310749	2.397559	0.000000	-0.064574	0.000000	0.013600	-0.000121	0.000000	0.000000
24.715418	14.218692	18.267662	-0.036571	0.098548	2.384057	0.000000	-0.001693	0.000000	0.013624	0.000198	0.000000	0.000000
25.012741	14.246664	18.213947	-0.057509	0.082114	2.383495	0.000000	-0.001693	0.000000	0.013683	0.000198	0.000000	0.000000
25.346075	14.292829	18.165346	-0.080984	0.063690	2.382864	0.000000	-0.001693	0.000000	0.013749	0.000198	0.000000	0.000000
25.679408	14.354643	18.129028	-0.104459	0.045265	2.382234	0.000000	-0.001693	0.000000	0.013815	0.000198	0.000000	0.000000
26.013991	14.432134	18.105292	-0.010938	-0.120107	2.381577	0.000000	-0.021014	0.000000	0.013881	0.000086	0.000000	0.000000
26.311314	14.444683	18.181770	-0.000947	-0.175263	2.375297	0.000000	-0.026045	0.000000	0.013907	0.000054	0.000000	0.000000
26.752274	14.624168	18.139283	-0.407453	0.271228	2.378613	0.000000	0.041546	0.000000	0.014010	0.000414	0.000000	0.000000
27.193234	15.169132	17.706907	-0.832591	0.705375	2.411660	0.000000	0.109607	0.000000	0.014273	0.000778	0.000000	0.000000
27.634194	16.104500	16.904317	-1.295797	1.107417	2.474815	0.000000	0.178908	0.000000	0.014698	0.001152	0.000000	0.000000
28.075154	17.473059	15.768037	-1.818255	1.459054	2.568792	0.000000	0.250235	0.000000	0.015291	0.001539	0.000000	0.000000
28.521114	19.361554	14.332424	-2.429115	1.745502	2.696262	0.000000	0.324883	0.000000	0.016067	0.001945	0.000000	0.000000
29.070174	21.763381	12.733499	-1.917374	1.183114	2.851491	0.000000	0.242811	0.000000	0.016990	0.001410	0.000000	0.000000
29.619234	23.524750	11.702625	-1.270069	0.705031	2.960694	0.000000	0.156453	0.000000	0.017611	0.000849	0.000000	0.000000
30.168294	24.521089	11.166357	-0.532965	0.277189	3.021940	0.000000	0.067332	0.000000	0.017920	0.000273	0.000000	0.000000
30.717354	24.681933	11.086487	0.241820	-0.130901	3.034146	0.000000	-0.022979	0.000000	0.017910	-0.000307	0.000000	0.000000
31.015927	24.573490	11.158282	0.174951	-0.133673	3.029345	0.000000	-0.016298	0.000000	0.017831	-0.000264	0.000000	0.000000
31.349260	24.461516	11.257533	0.160971	-0.164080	3.024000	0.000000	-0.016298	0.000000	0.017743	-0.000264	0.000000	0.000000
31.682593	24.358862	11.377055	0.146991	-0.194487	3.018655	0.000000	-0.016298	0.000000	0.017655	-0.000264	0.000000	0.000000
32.017177	24.265195	11.517412	0.132959	-0.225008	3.013291	0.000000	-0.016298	0.000000	0.017567	-0.000264	0.000000	0.000000
32.314499	24.190057	11.659171	0.066974	-0.226376	3.008537	0.000000	-0.009642	0.000000	0.017488	-0.000222	0.000000	0.000000
32.863559	23.702142	12.145838	0.815834	-0.665002	2.978969	0.000000	-0.098841	0.000000	0.017212	-0.000784	0.000000	0.000000
33.412619	22.418464	13.137327	1.507007	-1.151015	2.901114	0.000000	-0.186298	0.000000	0.016630	-0.001333	0.000000	0.000000
33.961679	20.429818	14.704275	2.091626	-1.719045	2.776345	0.000000	-0.270470	0.000000	0.015752	-0.001857	0.000000	0.000000
34.510739	17.876845	16.958317	2.528364	-2.409566	2.606867	0.000000	-0.349873	0.000000	0.014596	-0.002349	0.000000	0.000000
34.956699	15.893310	18.974974	1.933085	-2.092470	2.467898	0.000000	-0.277706	0.000000	0.013630	-0.001983	0.000000	0.000000
35.397659	14.414671	20.645694	1.431434	-1.681214	2.361408	0.000000	-0.209147	0.000000	0.012832	-0.001642	0.000000	0.000000
35.838619	13.348202	21.918374	0.995233	-1.193441	2.284467	0.000000	-0.142952	0.000000	0.012179	-0.001319	0.000000	0.000000
36.279579	12.645125	22.735102	0.604536	-0.651353	2.236204	0.000000	-0.078373	0.000000	0.011666	-0.001012	0.000000	0.000000
36.721789	12.272655	23.058956	0.268161	-0.129782	2.216054	0.000000	-0.019512	0.000000	0.011284	-0.000742	0.000000	0.000000
37.019112	12.120915	23.140028	0.242192	-0.142893	2.210473	0.000000	-0.019512	0.000000	0.011063	-0.000742	0.000000	0.000000
37.352445	11.969158	23.240190	0.213078	-0.157592	2.204216	0.000000	-0.019512	0.000000	0.010816	-0.000742	0.000000	0.000000
37.685779	11.836810	23.350151	0.183965	-0.172291	2.197960	0.000000	-0.019512	0.000000	0.010569	-0.000742	0.000000	0.000000
38.020362	11.723485	23.470379	0.154742	-0.187046	2.191680	0.000000	-0.019512	0.000000	0.010320	-0.000742	0.000000	0.000000
38.317684	11.639154	23.585574	0.154521	-0.252579	2.186096	0.000000	-0.024348	0.000000	0.010100	-0.000766	0.000000	0.000000
38.758644	11.651902	23.547049	-0.183747	0.339601	2.189454	0.000000	0.038358	0.000000	0.009819	-0.000509	0.000000	0.000000
39.199604	11.965613	22.991044	-0.530410	0.916322	2.220429	0.000000	0.101506	0.000000	0.009650	-0.000258	0.000000	0.000000
39.640564	12.594625	21.942867	-0.901313	1.451340	2.279377	0.000000	0.165814	0.000000	0.009591	-0.000010	0.000000	0.000000
40.081524	13.567690	20.450221	-1.313413	1.920304	2.366970	0.000000	0.232011	0.000000	0.009641	0.000238	0.000000	0.000000
40.527484	14.946909	18.558335	-1.789534	2.303402	2.485686	0.000000	0.301281	0.000000	0.009804	0.000490	0.000000	0.000000
41.076544	16.709399	16.432244	-1.400868	1.591148	2.630560	0.000000	0.226221	0.000000	0.009985	0.000170	0.000000	0.000000
41.625604	17.987718	15.021923	-0.913207	0.992259	2.733223	0.000000	0.147151	0.000000	0.009989	-0.000154	0.000000	0.000000
42.174664	18.691520	14.226893	-0.361017	0.464068	2.791854	0.000000	0.065467	0.000000	0.009816	-0.000475	0.000000	0.000000
42.723724	18.771068	13.990508	0.216675	-0.031058	2.805409	0.000000	-0.017386	0.000000	0.009469	-0.000787	0.000000	0.000000
43.022297	18.673423	13.995314	0.155249	-0.018658	2.802452	0.000000	-0.010653	0.000000	0.009241	-0.000764	0.000000	0.000000
43.502297	18.537020	14.029694	0.128925	-0.052967	2.797706	0.000000	-0.010653	0.000000	0.008875	-0.000764	0.000000	0.000000
43.982297	18.425888	14.097010	0.102600	-0.087276	2.792959	0.000000	-0.010653	0.000000	0.008508	-0.000764	0.000000	0.000000
44.462297	18.340027	14.197263	0.076275	-0.121585	2.788212	0.000000	-0.010653	0.000000	0.008142	-0.000764	0.000000	0.000000
44.942297	18.279439	14.330453	0.049951	-0.155894	2.783465	0.000000	-0.010653	0.000000	0.007775	-0.000764	0.000000	0.000000
45.423547	18.244289	14.496876	-0.066835	-0.118466	2.778723	0.000000	0.003115	0.000000	0.007408	-0.000727	0.000000	0.000000
45.720870	18.288926	14.573483	-0.128058	-0.103674	2.779867	0.000000	0.009932	0.000000	0.007192	-0.000709	0.000000	0.000000
46.269930	18.121270	14.969285	0.431142	-0.621382	2.763225	0.000000	-0.072037	0.000000	0.006740	-0.000934	0.000000	0.000000
46.818990	17.352612	15.954470	0.959863	-1.183355	2.701970	0.000000	-0.152743	0.000000	0.006168	-0.001144	0.000000	0.000000
47.368050	16.037290	17.599207	1.420746	-1.829626	2.597179	0.000000	-0.230757	0.000000	0.005488	-0.001332	0.000000	0.000000
47.917110	14.268270	20.020642	1.781228	-2.606229	2.450703	0.000000	-0.304700	0.000000	0.004709	-0.001498	0.000000	0.000000
48.363070	12.890789	22.173357	1.317756	-2.200355	2.330727	0.000000	-0.236383	0.000000	0.004067	-0.001384	0.000000	0.000000
48.804030	11.908225	23.898046	0.918339	-1.695759	2.241522	0.000000	-0.171153	0.000000	0.003479	-0.001287	0.000000	0.000000
49.244990	11.258196	25.141830	0.560894	-1.114004	2.180592	0.000000	-0.107859	0.000000	0.002931	-0.001204	0.000000	0.000000
49.685950	10.910986	25.848127	0.229087	-0.481563	2.147248	0.000000	-0.045780	0.000000	0.002415	-0.001135	0.000000	0.000000
50.128160	10.850886	25.984531	-0.066240	0.110580	2.141128	0.000000	0.010635	0.000000	0.001926	-0.001084	0.000000	0.000000
50.425482	10.898458	25.922218	-0.093761	0.098998	2.144612	0.000000	0.010635	0.000000	0.001604	-0.001084	0.000000	0.000000
50.758816	10.971250	25.860548	-0.124615	0.086013	2.148519	0.000000	0.010635	0.000000	0.001243	-0.001084	0.000000	0.000000
51.092149	11.064612	25.807534	-0.155469	0.073028	2.152425	0.000000	0.010635	0.000000	0.000882	-0.001084	0.000000	0.000000
51.426732	11.178782	25.763550	-0.095750	-0.149012	2.156324	0.000000	-0.006859	0.000000	0.000519	-0.001088	0.000000	0.000000
51.724055	11.243700	25.855667	-0.095069	-0.224499	2.154608	0.000000	-0.012133	0.000000	0.000195	-0.001088	0.000000	0.000000
52.165015	11.473964	25.765919	-0.429452	0.427253	2.163373	0.000000	0.049815	0.000000	-0.000284	-0.001090	0.000000	0.000000
52.605975	12.006619	25.107794	-0.783448	1.059561	2.199559	0.000000	0.112342	0.000000	-0.000767	-0.001103	0.000000	0.000000
53.046935	12.865989	23.911247	-1.173228	1.643656	2.263582	0.000000	0.176160	0.000000	-0.001259	-0.001129	0.000000	0.000000
53.487895	14.091323	22.230729	-1.616597	2.152965	2.356176	0.000000	0.241996	0.000000	-0.001765	-0.001168	0.000000	0.000000
53.933855	15.759543	20.117569	-2.138056	2.565614	2.479930	0.000000	0.310996	0.000000	-0.002297	-0.001221	0.000000	0.000000
54.482915	17.906942	17.739474	-1.750546	1.791322	2.630953	0.000000	0.236055	0.000000	-0.002945	-0.001136	0.000000	0.000000
55.031975	19.557994	16.136999	-1.239423	1.144618	2.739562	0.000000	0.156910	0.000000	-0.003541	-0.001031	0.000000	0.000000
55.581035	20.596126	15.195993	-0.640787	0.579439	2.803821	0.000000	0.074965	0.000000	-0.004074	-0.000908	0.000000	0.000000
56.130095	20.948051	14.849422	0.003084	0.055532	2.822584	0.000000	-0.008325	0.000000	-0.004535	-0.000768	0.000000	0.000000
56.428668	20.984376	14.798194	-0.068000	0.075657	2.822615	0.000000	-0.000673	0.000000	-0.004768	-0.000780	0.000000	0.000000
56.762001	21.035029	14.755308	-0.083958	0.053003	2.822651	0.000000	-0.000673	0.000000	-0.005028	-0.000780	0.000000	0.000000
57.095334	21.096321	14.727524	-0.099916	0.030349	2.822687	0.000000	-0.000673	0.000000	-0.005288	-0.000780	0.000000	0.000000
57.429918	21.168541	14.714824	-0.115935	0.007609	2.822723	0.000000	-0.000673	0.000000	-0.005549	-0.000780	0.000000	0.000000
57.727240	21.241734	14.716292	-0.188314	0.027522	2.822756	0.000000	0.007054	0.000000	-0.005781	-0.000796	0.000000	0.000000
58.276300	21.085434	14.968340	0.470899	-0.489324	2.804106	0.000000	-0.076239	0.000000	-0.006165	-0.000602	0.000000	0.000000
58.825360	20.219437	15.803582	1.096846	-1.041014	2.739923	0.000000	-0.158190	0.000000	-0.006440	-0.000398	0.000000	0.000000
59.374420	18.704906	17.281495	1.645330	-1.666839	2.631343	0.000000	-0.237342	0.000000	-0.006601	-0.000187	0.000000	0.000000
59.923480	16.648783	19.507326	2.077625	-2.411365	2.480287	0.000000	-0.312288	0.000000	-0.006644	0.000028	0.000000	0.000000
60.369440	15.038104	21.485561	1.547005	-2.006017	2.356497	0.000000	-0.243304	0.000000	-0.006670	-0.000145	0.000000	0.000000
60.810400	13.879239	23.042039	1.091169	-1.510638	2.263920	0.000000	-0.177470	0.000000	-0.006772	-0.000318	0.000000	0.000000
61.251360	13.098910	24.129588	0.685174	-0.946541	2.199974	0.000000	-0.113653	0.000000	-0.006951	-0.000495	0.000000	0.000000
61.692320	12.661477	24.698739	0.310477	-0.339387	2.163931	0.000000	-0.051125	0.000000	-0.007209	-0.000677	0.000000	0.000000
62.134530	12.547020	24.723018	-0.017210	0.218589	2.155395	0.000000	0.005171	0.000000	-0.007551	-0.000848	0.000000	0.000000
62.431853	12.564302	24.596782	-0.040914	0.205988	2.157185	0.000000	0.005171	0.000000	-0.007803	-0.000848	0.000000	0.000000
62.765186	12.600436	24.464165	-0.067489	0.191861	2.159191	0.000000	0.005171	0.000000	-0.008086	-0.000848	0.000000	0.000000
63.098520	12.654287	24.340966	-0.094063	0.177734	2.161198	0.000000	0.005171	0.000000	-0.008369	-0.000848	0.000000	0.000000
63.433103	12.726155	24.226777	-0.120737	0.163555	2.163212	0.000000	0.005171	0.000000	-0.008653	-0.000848	0.000000	0.000000
63.730426	12.804969	24.133323	-0.110460	0.086615	2.164999	0.000000	-0.000574	0.000000	-0.008905	-0.000826	0.000000	0.000000
64.171386	13.064583	23.791168	-0.480944	0.686463	2.178863	0.000000	0.061693	0.000000	-0.009320	-0.001061	0.000000	0.000000
64.612346	13.659253	22.931873	-0.873383	1.255081	2.220413	0.000000	0.124673	0.000000	-0.009842	-0.001308	0.000000	0.000000
65.053306	14.616119	21.594534	-1.305696	1.766605	2.290128	0.000000	0.189087	0.000000	-0.010476	-0.001569	0.000000	0.000000
65.494266	15.978856	19.839997	-1.797622	2.197770	2.388807	0.000000	0.255671	0.000000	-0.011228	-0.001849	0.000000	0.000000
65.940226	17.833056	17.723126	-2.376045	2.529487	2.519194	0.000000	0.325551	0.000000	-0.012120	-0.002152	0.000000	0.000000
66.489286	20.207311	15.355109	-1.924400	1.809595	2.678227	0.000000	0.249234	0.000000	-0.013190	-0.001742	0.000000	0.000000
67.038346	22.007787	13.702545	-1.336937	1.218556	2.793851	0.000000	0.168470	0.000000	-0.014027	-0.001301	0.000000	0.000000
67.587406	23.107453	12.647741	-0.655125	0.714283	2.864007	0.000000	0.084698	0.000000	-0.014614	-0.000837	0.000000	0.000000
68.136466	23.428736	12.115577	0.072915	0.260869	2.887442	0.000000	-0.000590	0.000000	-0.014943	-0.000358	0.000000	0.000000
68.435038	23.429799	11.946671	-0.008409	0.269584	2.889899	0.000000	0.007862	0.000000	-0.015062	-0.000400	0.000000	0.000000
68.768372	23.440148	11.776925	-0.022637	0.239654	2.892653	0.000000	0.007862	0.000000	-0.015196	-0.000400	0.000000	0.000000
69.101705	23.459982	11.627132	-0.036865	0.209724	2.895407	0.000000	0.007862	0.000000	-0.015329	-0.000400	0.000000	0.000000
69.436288	23.489429	11.496843	-0.051146	0.179683	2.898172	0.000000	0.007862	0.000000	-0.015463	-0.000400	0.000000	0.000000
69.733611	23.523784	11.397852	-0.132989	0.186425	2.900638	0.000000	0.016389	0.000000	-0.015582	-0.000443	0.000000	0.000000
70.282671	23.265831	11.421147	0.599995	-0.229112	2.886148	0.000000	-0.069469	0.000000	-0.015686	0.000063	0.000000	0.000000
