#ParticleID	Turn	x[m]	xp	y[m]	yp	z[m]	dE[GeV]# s	beta_x	beta_y	alpha_x	alpha_y	D_x	D_y	D_px	D_py	orbit_x	orbit_px	orbit_y	orbit_py
0.300000	11.932659	25.257009	-0.019636	-0.022525	2.603559	0.000000	0.000646	0.000000	-0.000596	0.000522	0.000000	0.000000
0.601250	11.952098	25.274175	-0.044892	-0.034459	2.603597	0.000000	0.000646	0.000000	-0.000439	0.000522	0.000000	0.000000
0.898573	11.986204	25.298168	-0.040346	-0.108253	2.603634	0.000000	-0.005756	0.000000	-0.000284	0.000523	0.000000	0.000000
1.339533	12.175349	25.112899	-0.390041	0.526804	2.617085	0.000000	0.067827	0.000000	-0.000054	0.000518	0.000000	0.000000
1.780493	12.679564	24.376029	-0.757560	1.137894	2.663124	0.000000	0.142178	0.000000	0.000174	0.000520	0.000000	0.000000
2.221453	13.521891	23.121079	-1.159695	1.697213	2.742270	0.000000	0.218142	0.000000	0.000405	0.000527	0.000000	0.000000
2.662413	14.740821	21.405144	-1.614818	2.179310	2.855424	0.000000	0.296585	0.000000	0.000640	0.000541	0.000000	0.000000
3.108373	16.413097	19.281153	-2.148083	2.563408	3.005726	0.000000	0.378891	0.000000	0.000886	0.000561	0.000000	0.000000
3.657433	18.556941	16.895294	-1.733042	1.807530	3.188351	0.000000	0.286389	0.000000	0.001185	0.000527	0.000000	0.000000
4.206493	20.174688	15.264336	-1.195573	1.180401	3.318739	0.000000	0.188816	0.000000	0.001463	0.000484	0.000000	0.000000
4.755553	21.152048	14.272117	-0.573638	0.637349	3.394579	0.000000	0.087901	0.000000	0.001715	0.000433	0.000000	0.000000
5.304613	21.419966	13.847965	0.088827	0.139696	3.414531	0.000000	-0.014566	0.000000	0.001936	0.000374	0.000000	0.000000
5.603185	21.403963	13.749974	0.019818	0.152991	3.412689	0.000000	-0.005790	0.000000	0.002049	0.000379	0.000000	0.000000
5.936519	21.395944	13.656250	0.004239	0.128181	3.410633	0.000000	-0.005790	0.000000	0.002175	0.000379	0.000000	0.000000
6.269852	21.398311	13.579066	-0.011341	0.103371	3.408577	0.000000	-0.005790	0.000000	0.002302	0.000379	0.000000	0.000000
6.604435	21.411133	13.518225	-0.026979	0.078468	3.406513	0.000000	-0.005790	0.000000	0.002428	0.000379	0.000000	0.000000
6.901758	21.431311	13.478142	-0.095670	0.090874	3.404679	0.000000	0.002915	0.000000	0.002541	0.000385	0.000000	0.000000
7.450818	21.170866	13.639875	0.567401	-0.387167	3.378047	0.000000	-0.099127	0.000000	0.002729	0.000300	0.000000	0.000000
7.999878	20.200027	14.338551	1.190395	-0.892787	3.295834	0.000000	-0.199405	0.000000	0.002869	0.000209	0.000000	0.000000
8.548938	18.587375	15.623939	1.729300	-1.462006	3.159500	0.000000	-0.296143	0.000000	0.002958	0.000115	0.000000	0.000000
9.097998	16.446834	17.587606	2.146043	-2.135369	2.971465	0.000000	-0.387626	0.000000	0.002994	0.000018	0.000000	0.000000
9.543958	14.776639	19.337166	1.612332	-1.771028	2.816800	0.000000	-0.306252	0.000000	0.003020	0.000096	0.000000	0.000000
9.984918	13.560195	20.708734	1.156696	-1.327414	2.698869	0.000000	-0.228860	0.000000	0.003080	0.000175	0.000000	0.000000
10.425878	12.720875	21.660822	0.753912	-0.823398	2.614425	0.000000	-0.154076	0.000000	0.003174	0.000255	0.000000	0.000000
10.866838	12.220329	22.150106	0.385575	-0.281914	2.562505	0.000000	-0.081050	0.000000	0.003305	0.000339	0.000000	0.000000
11.309048	12.035532	22.153761	0.063287	0.219677	2.542498	0.000000	-0.014980	0.000000	0.003474	0.000418	0.000000	0.000000
11.606371	12.005273	22.027314	0.038484	0.205609	2.537920	0.000000	-0.014980	0.000000	0.003599	0.000418	0.000000	0.000000
12.086371	11.987548	21.840831	-0.001557	0.182897	2.530529	0.000000	-0.014980	0.000000	0.003799	0.000418	0.000000	0.000000
12.566371	12.008263	21.676152	-0.041599	0.160184	2.523138	0.000000	-0.014980	0.000000	0.004000	0.000418	0.000000	0.000000
13.046371	12.067418	21.533277	-0.081641	0.137472	2.515747	0.000000	-0.014980	0.000000	0.004201	0.000418	0.000000	0.000000
13.526371	12.165013	21.412206	-0.121682	0.114760	2.508357	0.000000	-0.014980	0.000000	0.004401	0.000418	0.000000	0.000000
14.007621	12.301453	21.312709	-0.161828	0.091988	2.500946	0.000000	-0.014980	0.000000	0.004602	0.000418	0.000000	0.000000
14.304943	12.405049	21.262205	-0.157587	0.028260	2.496368	0.000000	-0.020824	0.000000	0.004727	0.000407	0.000000	0.000000
14.745903	12.703013	21.004703	-0.520478	0.553437	2.502576	0.000000	0.049910	0.000000	0.004933	0.000531	0.000000	0.000000
15.186863	13.330307	20.293379	-0.907158	1.053432	2.540017	0.000000	0.121207	0.000000	0.005196	0.000662	0.000000	0.000000
15.627823	14.315605	19.160598	-1.335298	1.505492	2.609116	0.000000	0.193877	0.000000	0.005518	0.000800	0.000000	0.000000
16.068783	15.703947	17.657902	-1.824466	1.889044	2.710657	0.000000	0.268748	0.000000	0.005903	0.000947	0.000000	0.000000
16.514743	17.582411	15.832139	-2.401899	2.187488	2.847493	0.000000	0.347153	0.000000	0.006360	0.001106	0.000000	0.000000
17.063803	19.994198	13.794153	-1.963708	1.545842	3.013916	0.000000	0.260025	0.000000	0.006909	0.000891	0.000000	0.000000
17.612863	21.845206	12.396579	-1.386752	1.014320	3.131280	0.000000	0.168298	0.000000	0.007336	0.000660	0.000000	0.000000
18.161923	23.004615	11.539861	-0.711797	0.555059	3.197509	0.000000	0.073596	0.000000	0.007632	0.000418	0.000000	0.000000
18.710983	23.390477	11.162974	0.013461	0.135340	3.211431	0.000000	-0.022405	0.000000	0.007793	0.000168	0.000000	0.000000
19.009556	23.420278	11.074133	-0.056370	0.135083	3.207021	0.000000	-0.014573	0.000000	0.007849	0.000188	0.000000	0.000000
19.342889	23.462618	10.994294	-0.070648	0.104433	3.202101	0.000000	-0.014573	0.000000	0.007912	0.000188	0.000000	0.000000
19.676223	23.514476	10.934889	-0.084926	0.073784	3.197181	0.000000	-0.014573	0.000000	0.007975	0.000188	0.000000	0.000000
20.010806	23.576392	10.895673	-0.216068	0.097003	3.192262	0.000000	0.001243	0.000000	0.008037	0.000227	0.000000	0.000000
20.308129	23.708846	10.846159	-0.286915	0.095870	3.192567	0.000000	0.009006	0.000000	0.008105	0.000248	0.000000	0.000000
20.857189	23.615141	10.961028	0.456628	-0.306291	3.171262	0.000000	-0.086265	0.000000	0.008169	-0.000016	0.000000	0.000000
21.406249	22.717703	11.526889	1.167906	-0.730273	3.098125	0.000000	-0.180006	0.000000	0.008088	-0.000279	0.000000	0.000000
21.955309	21.079958	12.584054	1.796654	-1.206283	2.974450	0.000000	-0.270557	0.000000	0.007863	-0.000538	0.000000	0.000000
22.504369	18.817652	14.207833	2.298442	-1.768230	2.802431	0.000000	-0.356318	0.000000	0.007499	-0.000787	0.000000	0.000000
22.950329	17.036342	15.666430	1.709196	-1.488308	2.661095	0.000000	-0.279134	0.000000	0.007191	-0.000596	0.000000	0.000000
23.391289	15.756832	16.830677	1.202931	-1.141632	2.554525	0.000000	-0.205603	0.000000	0.006968	-0.000414	0.000000	0.000000
23.832249	14.898053	17.664982	0.751645	-0.743002	2.479761	0.000000	-0.134409	0.000000	0.006825	-0.000236	0.000000	0.000000
24.273209	14.420750	18.131381	0.334713	-0.310561	2.435952	0.000000	-0.064745	0.000000	0.006760	-0.000061	0.000000	0.000000
24.715418	14.303210	18.208392	-0.034220	0.094171	2.422599	0.000000	-0.001371	0.000000	0.006772	0.000098	0.000000	0.000000
25.012741	14.329747	18.157291	-0.055031	0.077697	2.422162	0.000000	-0.001371	0.000000	0.006801	0.000098	0.000000	0.000000
25.346075	14.374211	18.111649	-0.078363	0.059228	2.421673	0.000000	-0.001371	0.000000	0.006834	0.000098	0.000000	0.000000
25.679408	14.434231	18.078320	-0.101696	0.040760	2.421183	0.000000	-0.001371	0.000000	0.006866	0.000098	0.000000	0.000000
26.013991	14.509824	18.057614	-0.007402	-0.124271	2.420667	0.000000	-0.021009	0.000000	0.006899	0.000042	0.000000	0.000000
26.311314	14.520298	18.136507	0.005345	-0.182501	2.414407	0.000000	-0.026536	0.000000	0.006911	0.000025	0.000000	0.000000
26.752274	14.694911	18.100950	-0.402745	0.262823	2.417776	0.000000	0.042052	0.000000	0.006962	0.000204	0.000000	0.000000
27.193234	15.236225	17.676406	-0.829243	0.696187	2.451393	0.000000	0.111117	0.000000	0.007092	0.000385	0.000000	0.000000
27.634194	16.168983	16.882195	-1.293642	1.097870	2.515639	0.000000	0.181444	0.000000	0.007302	0.000571	0.000000	0.000000
28.075154	17.535827	15.754454	-1.817168	1.449591	2.611245	0.000000	0.253832	0.000000	0.007596	0.000763	0.000000	0.000000
28.521114	19.423122	14.327428	-2.428833	1.736402	2.740912	0.000000	0.329573	0.000000	0.007982	0.000965	0.000000	0.000000
29.070174	21.822710	12.738042	-1.914639	1.175088	2.898745	0.000000	0.246035	0.000000	0.008439	0.000699	0.000000	0.000000
29.619234	23.579417	11.715794	-1.265140	0.697490	3.009586	0.000000	0.158143	0.000000	0.008747	0.000421	0.000000	0.000000
30.168294	24.569079	11.187863	-0.526235	0.269583	3.071471	0.000000	0.067452	0.000000	0.008900	0.000135	0.000000	0.000000
30.717354	24.721746	11.116640	0.249858	-0.139117	3.083305	0.000000	-0.024434	0.000000	0.008895	-0.000154	0.000000	0.000000
31.015927	24.611851	11.191823	0.177680	-0.139459	3.078267	0.000000	-0.016993	0.000000	0.008855	-0.000131	0.000000	0.000000
31.349260	24.498055	11.294917	0.163709	-0.169822	3.072646	0.000000	-0.016993	0.000000	0.008812	-0.000131	0.000000	0.000000
31.682593	24.393573	11.418253	0.149737	-0.200185	3.067026	0.000000	-0.016993	0.000000	0.008768	-0.000131	0.000000	0.000000
32.017177	24.298066	11.562407	0.135714	-0.230662	3.061384	0.000000	-0.016993	0.000000	0.008724	-0.000131	0.000000	0.000000
32.314499	24.221123	11.707595	0.064678	-0.229451	3.056374	0.000000	-0.009601	0.000000	0.008685	-0.000109	0.000000	0.000000
32.863559	23.735392	12.198373	0.814464	-0.669568	3.026281	0.000000	-0.100318	0.000000	0.008548	-0.000389	0.000000	0.000000
33.412619	22.453001	13.195714	1.506690	-1.157388	2.946933	0.000000	-0.189260	0.000000	0.008259	-0.000661	0.000000	0.000000
33.961679	20.464593	14.770663	2.092439	-1.727662	2.819734	0.000000	-0.274856	0.000000	0.007824	-0.000922	0.000000	0.000000
34.510739	17.910707	17.035412	2.530319	-2.421017	2.646936	0.000000	-0.355590	0.000000	0.007250	-0.001166	0.000000	0.000000
34.956699	15.926233	19.061403	1.934528	-2.102549	2.505192	0.000000	-0.282450	0.000000	0.006771	-0.000984	0.000000	0.000000
35.397659	14.446920	20.740001	1.432250	-1.689294	2.396437	0.000000	-0.212969	0.000000	0.006375	-0.000814	0.000000	0.000000
35.838619	13.380232	22.018676	0.995434	-1.199166	2.317694	0.000000	-0.145904	0.000000	0.006052	-0.000654	0.000000	0.000000
36.279579	12.677408	22.839248	0.604113	-0.654470	2.268066	0.000000	-0.080495	0.000000	0.005797	-0.000501	0.000000	0.000000
36.721789	12.305659	23.164693	0.268849	-0.133680	2.246967	0.000000	-0.021212	0.000000	0.005608	-0.000368	0.000000	0.000000
37.019112	12.153493	23.248069	0.242941	-0.146745	2.240770	0.000000	-0.021212	0.000000	0.005499	-0.000368	0.000000	0.000000
37.352445	12.001214	23.350781	0.213895	-0.161392	2.233822	0.000000	-0.021212	0.000000	0.005376	-0.000368	0.000000	0.000000
37.685779	11.868299	23.463258	0.184850	-0.176039	2.226874	0.000000	-0.021212	0.000000	0.005254	-0.000368	0.000000	0.000000
38.020362	11.754358	23.585976	0.155695	-0.190740	2.219900	0.000000	-0.021212	0.000000	0.005130	-0.000368	0.000000	0.000000
38.317684	11.669469	23.703301	0.157029	-0.259264	2.213702	0.000000	-0.026379	0.000000	0.005021	-0.000380	0.000000	0.000000
38.758644	11.680329	23.669294	-0.181853	0.336086	2.216180	0.000000	0.037019	0.000000	0.004882	-0.000252	0.000000	0.000000
39.199604	11.992614	23.114964	-0.529043	0.916141	2.246630	0.000000	0.100841	0.000000	0.004798	-0.000127	0.000000	0.000000
39.640564	12.620595	22.065537	-0.900408	1.454507	2.305398	0.000000	0.165814	0.000000	0.004769	-0.000004	0.000000	0.000000
40.081524	13.592970	20.568769	-1.312918	1.926684	2.393155	0.000000	0.232676	0.000000	0.004795	0.000119	0.000000	0.000000
40.527484	14.971709	18.670077	-1.789322	2.312608	2.512382	0.000000	0.302608	0.000000	0.004876	0.000245	0.000000	0.000000
41.076544	16.733245	16.535944	-1.399660	1.596947	2.657826	0.000000	0.226686	0.000000	0.004966	0.000085	0.000000	0.000000
41.625604	18.009645	15.121034	-0.911111	0.995050	2.760500	0.000000	0.146744	0.000000	0.004969	-0.000076	0.000000	0.000000
42.174664	18.710725	14.324554	-0.358194	0.464037	2.818582	0.000000	0.064198	0.000000	0.004884	-0.000235	0.000000	0.000000
42.723724	18.786952	14.089762	0.220025	-0.033917	2.831040	0.000000	-0.019491	0.000000	0.004711	-0.000391	0.000000	0.000000
43.022297	18.688579	14.095199	0.156534	-0.019686	2.827453	0.000000	-0.012390	0.000000	0.004598	-0.000379	0.000000	0.000000
43.502297	18.550937	14.130450	0.130220	-0.053753	2.821687	0.000000	-0.012390	0.000000	0.004416	-0.000379	0.000000	0.000000
43.982297	18.438556	14.198406	0.103907	-0.087821	2.815922	0.000000	-0.012390	0.000000	0.004235	-0.000379	0.000000	0.000000
44.462297	18.351436	14.299066	0.077594	-0.121888	2.810157	0.000000	-0.012390	0.000000	0.004053	-0.000379	0.000000	0.000000
44.942297	18.289576	14.432431	0.051280	-0.155955	2.804391	0.000000	-0.012390	0.000000	0.003871	-0.000379	0.000000	0.000000
45.423547	18.253142	14.598794	-0.065538	-0.117780	2.798628	0.000000	0.001476	0.000000	0.003689	-0.000361	0.000000	0.000000
45.720870	18.296984	14.674966	-0.128256	-0.101322	2.799175	0.000000	0.008568	0.000000	0.003581	-0.000351	0.000000	0.000000
46.269930	18.129552	15.069772	0.431166	-0.621946	2.781400	0.000000	-0.073999	0.000000	0.003357	-0.000464	0.000000	0.000000
46.818990	17.360922	16.057139	0.960120	-1.186873	2.718639	0.000000	-0.155261	0.000000	0.003074	-0.000568	0.000000	0.000000
47.368050	16.045409	17.707393	1.421237	-1.836342	2.612000	0.000000	-0.233778	0.000000	0.002736	-0.000662	0.000000	0.000000
47.917110	14.275963	20.138075	1.781942	-2.616617	2.463370	0.000000	-0.308159	0.000000	0.002349	-0.000744	0.000000	0.000000
48.363070	12.898082	22.298684	1.318334	-2.207741	2.341611	0.000000	-0.239545	0.000000	0.002030	-0.000688	0.000000	0.000000
48.804030	11.915211	24.028366	0.918759	-1.699763	2.250787	0.000000	-0.174057	0.000000	0.001738	-0.000639	0.000000	0.000000
49.244990	11.264984	25.274088	0.561167	-1.114444	2.188359	0.000000	-0.110546	0.000000	0.001465	-0.000598	0.000000	0.000000
49.685950	10.917685	25.979174	0.229220	-0.478420	2.153620	0.000000	-0.048287	0.000000	0.001209	-0.000563	0.000000	0.000000
50.128160	10.857605	26.111258	-0.065985	0.116076	2.146187	0.000000	0.008213	0.000000	0.000967	-0.000538	0.000000	0.000000
50.425482	10.905020	26.045665	-0.093488	0.104536	2.148788	0.000000	0.008213	0.000000	0.000807	-0.000538	0.000000	0.000000
50.758816	10.977624	25.980287	-0.124323	0.091598	2.151705	0.000000	0.008213	0.000000	0.000628	-0.000538	0.000000	0.000000
51.092149	11.070784	25.923535	-0.155157	0.078660	2.154622	0.000000	0.008213	0.000000	0.000448	-0.000538	0.000000	0.000000
51.426732	11.184738	25.875768	-0.095369	-0.144244	2.157528	0.000000	-0.009290	0.000000	0.000269	-0.000540	0.000000	0.000000
51.724055	11.249424	25.965029	-0.094634	-0.219782	2.154927	0.000000	-0.014569	0.000000	0.000108	-0.000540	0.000000	0.000000
52.165015	11.479435	25.869860	-0.429134	0.434783	2.162382	0.000000	0.047370	0.000000	-0.000130	-0.000540	0.000000	0.000000
52.605975	12.011940	25.203971	-0.783236	1.069564	2.197245	0.000000	0.109854	0.000000	-0.000369	-0.000547	0.000000	0.000000
53.046935	12.871262	23.997666	-1.173117	1.655679	2.259916	0.000000	0.173595	0.000000	-0.000613	-0.000559	0.000000	0.000000
53.487895	14.096654	22.305834	-1.616589	2.166461	2.351110	0.000000	0.239320	0.000000	-0.000864	-0.000578	0.000000	0.000000
53.933855	15.765049	20.180177	-2.138182	2.579992	2.473380	0.000000	0.308173	0.000000	-0.001127	-0.000604	0.000000	0.000000
54.482915	17.912644	17.787942	-1.750420	1.802769	2.622604	0.000000	0.233470	0.000000	-0.001448	-0.000563	0.000000	0.000000
55.031975	19.563612	16.174087	-1.239035	1.153952	2.729584	0.000000	0.154616	0.000000	-0.001743	-0.000511	0.000000	0.000000
55.581035	20.601360	15.223656	-0.640148	0.587326	2.792420	0.000000	0.073012	0.000000	-0.002007	-0.000450	0.000000	0.000000
56.130095	20.952608	14.868948	0.003943	0.062534	2.809992	0.000000	-0.009894	0.000000	-0.002236	-0.000381	0.000000	0.000000
56.428668	20.987817	14.813987	-0.066111	0.081898	2.809386	0.000000	-0.002416	0.000000	-0.002352	-0.000387	0.000000	0.000000
56.762001	21.037208	14.766939	-0.082063	0.059246	2.808710	0.000000	-0.002416	0.000000	-0.002481	-0.000387	0.000000	0.000000
57.095334	21.097234	14.734992	-0.098014	0.036594	2.808034	0.000000	-0.002416	0.000000	-0.002610	-0.000387	0.000000	0.000000
57.429918	21.168179	14.718112	-0.114026	0.013857	2.807355	0.000000	-0.002416	0.000000	-0.002739	-0.000387	0.000000	0.000000
57.727240	21.240220	14.715876	-0.185068	0.032932	2.806753	0.000000	0.005092	0.000000	-0.002854	-0.000395	0.000000	0.000000
58.276300	21.080485	14.961936	0.474070	-0.483744	2.786982	0.000000	-0.077672	0.000000	-0.003045	-0.000299	0.000000	0.000000
58.825360	20.211192	15.790818	1.099721	-1.034872	2.722030	0.000000	-0.159063	0.000000	-0.003182	-0.000198	0.000000	0.000000
59.374420	18.693737	17.261553	1.647698	-1.659704	2.613046	0.000000	-0.237637	0.000000	-0.003262	-0.000094	0.000000	0.000000
59.923480	16.635289	19.478887	2.079305	-2.402741	2.461961	0.000000	-0.311997	0.000000	-0.003285	0.000012	0.000000	0.000000
60.369440	15.023108	21.449482	1.548665	-1.997499	2.338185	0.000000	-0.243471	0.000000	-0.003299	-0.000073	0.000000	0.000000
60.810400	13.862689	22.998748	1.092967	-1.502692	2.245377	0.000000	-0.178106	0.000000	-0.003350	-0.000159	0.000000	0.000000
61.251360	13.080679	24.079726	0.687196	-0.939520	2.180955	0.000000	-0.114768	0.000000	-0.003439	-0.000246	0.000000	0.000000
61.692320	12.641353	24.643240	0.312820	-0.333606	2.144186	0.000000	-0.052734	0.000000	-0.003567	-0.000337	0.000000	0.000000
62.134530	12.524686	24.663083	-0.015575	0.224985	2.134657	0.000000	0.003285	0.000000	-0.003737	-0.000422	0.000000	0.000000
62.431853	12.541007	24.533062	-0.039320	0.212319	2.135759	0.000000	0.003285	0.000000	-0.003862	-0.000422	0.000000	0.000000
62.765186	12.576094	24.396249	-0.065940	0.198120	2.136994	0.000000	0.003285	0.000000	-0.004003	-0.000422	0.000000	0.000000
63.098520	12.628928	24.268903	-0.092561	0.183920	2.138230	0.000000	0.003285	0.000000	-0.004143	-0.000422	0.000000	0.000000
63.433103	12.699807	24.150599	-0.119281	0.169667	2.139470	0.000000	0.003285	0.000000	-0.004285	-0.000422	0.000000	0.000000
63.730426	12.777789	24.053486	-0.110400	0.095442	2.140572	0.000000	-0.002180	0.000000	-0.004410	-0.000411	0.000000	0.000000
64.171386	13.037187	23.704516	-0.480298	0.692986	2.153386	0.000000	0.059451	0.000000	-0.004616	-0.000527	0.000000	0.000000
64.612346	13.631163	22.840538	-0.872131	1.259001	2.193550	0.000000	0.121764	0.000000	-0.004875	-0.000649	0.000000	0.000000
65.053306	14.586839	21.500865	-1.303795	1.767739	2.261525	0.000000	0.185471	0.000000	-0.005190	-0.000779	0.000000	0.000000
65.494266	15.947858	19.746448	-1.795005	2.196056	2.358086	0.000000	0.251299	0.000000	-0.005564	-0.000918	0.000000	0.000000
65.940226	17.799637	17.632290	-2.372770	2.525084	2.485912	0.000000	0.320381	0.000000	-0.006006	-0.001068	0.000000	0.000000
66.489286	20.171318	15.267639	-1.922101	1.807445	2.641902	0.000000	0.245174	0.000000	-0.006537	-0.000864	0.000000	0.000000
67.038346	21.970283	13.616105	-1.335720	1.218527	2.755228	0.000000	0.165606	0.000000	-0.006952	-0.000646	0.000000	0.000000
67.587406	23.069533	12.560061	-0.655033	0.716387	2.823877	0.000000	0.083090	0.000000	-0.007244	-0.000416	0.000000	0.000000
68.136466	23.391471	12.024293	0.071899	0.265266	2.846627	0.000000	-0.000906	0.000000	-0.007408	-0.000179	0.000000	0.000000
68.435038	23.391028	11.854064	-0.005703	0.271580	2.848769	0.000000	0.006984	0.000000	-0.007467	-0.000199	0.000000	0.000000
68.768372	23.399581	11.683076	-0.019954	0.241386	2.851163	0.000000	0.006984	0.000000	-0.007533	-0.000199	0.000000	0.000000
69.101705	23.417634	11.532216	-0.034205	0.211192	2.853557	0.000000	0.006984	0.000000	-0.007599	-0.000199	0.000000	0.000000
69.436288	23.445309	11.401034	-0.048510	0.180885	2.855960	0.000000	0.006984	0.000000	-0.007666	-0.000199	0.000000	0.000000
69.733611	23.477976	11.301459	-0.126453	0.185320	2.858098	0.000000	0.014925	0.000000	-0.007725	-0.000219	0.000000	0.000000
70.282671	23.213658	11.324518	0.604995	-0.227570	2.843126	0.000000	-0.069568	0.000000	-0.007776	0.000032	0.000000	0.000000
