#ParticleID	Turn	x[m]	xp	y[m]	yp	z[m]	dE[GeV]# s	beta_x	beta_y	alpha_x	alpha_y	D_x	D_y	D_px	D_py	orbit_x	orbit_px	orbit_y	orbit_py
0.300000	11.897185	25.147699	-0.017886	-0.024286	2.608949	0.000000	0.000466	0.000000	-0.000363	0.000319	0.000000	0.000000
0.601250	11.915592	25.165942	-0.043215	-0.036272	2.608993	0.000000	0.000466	0.000000	-0.000267	0.000319	0.000000	0.000000
0.898573	11.948722	25.191028	-0.038865	-0.109864	2.609037	0.000000	-0.005942	0.000000	-0.000172	0.000319	0.000000	0.000000
1.339533	12.136141	25.008424	-0.387664	0.522397	2.622524	0.000000	0.067781	0.000000	-0.000032	0.000317	0.000000	0.000000
1.780493	12.637794	24.276605	-0.754177	1.130890	2.668658	0.000000	0.142273	0.000000	0.000107	0.000318	0.000000	0.000000
2.221453	13.476604	23.028867	-1.155149	1.687929	2.747964	0.000000	0.218382	0.000000	0.000248	0.000322	0.000000	0.000000
2.662413	14.690896	21.321978	-1.608900	2.168170	2.861345	0.000000	0.296975	0.000000	0.000392	0.000330	0.000000	0.000000
3.108373	16.357125	19.208580	-2.140500	2.550907	3.011946	0.000000	0.379437	0.000000	0.000542	0.000342	0.000000	0.000000
3.657433	18.493416	16.834770	-1.727081	1.797981	3.194925	0.000000	0.286729	0.000000	0.000724	0.000322	0.000000	0.000000
4.206493	20.105636	15.213010	-1.191660	1.173122	3.325543	0.000000	0.188941	0.000000	0.000894	0.000296	0.000000	0.000000
4.755553	21.079893	14.227790	-0.572056	0.631822	3.401484	0.000000	0.087807	0.000000	0.001048	0.000264	0.000000	0.000000
5.304613	21.347360	13.808936	0.087962	0.135526	3.421405	0.000000	-0.014881	0.000000	0.001184	0.000228	0.000000	0.000000
5.603185	21.331989	13.713349	0.018738	0.148947	3.419536	0.000000	-0.006031	0.000000	0.001253	0.000231	0.000000	0.000000
5.936519	21.324707	13.622333	0.003107	0.124100	3.417448	0.000000	-0.006031	0.000000	0.001330	0.000231	0.000000	0.000000
6.269852	21.327847	13.547882	-0.012525	0.099254	3.415361	0.000000	-0.006031	0.000000	0.001407	0.000231	0.000000	0.000000
6.604435	21.341477	13.489809	-0.028215	0.074314	3.413266	0.000000	-0.006031	0.000000	0.001484	0.000231	0.000000	0.000000
6.901758	21.362402	13.452207	-0.097244	0.086886	3.411404	0.000000	0.002766	0.000000	0.001553	0.000235	0.000000	0.000000
7.450818	21.104901	13.617932	0.563569	-0.390494	3.384701	0.000000	-0.099489	0.000000	0.001668	0.000183	0.000000	0.000000
7.999878	20.139376	14.319998	1.184576	-0.895691	3.302284	0.000000	-0.199977	0.000000	0.001753	0.000128	0.000000	0.000000
8.548938	18.534028	15.608415	1.721906	-1.464689	3.165615	0.000000	-0.296916	0.000000	0.001808	0.000070	0.000000	0.000000
9.097998	16.402263	17.574961	2.137602	-2.138020	2.977121	0.000000	-0.388586	0.000000	0.001830	0.000011	0.000000	0.000000
9.543958	14.738888	19.327174	1.605472	-1.774366	2.822071	0.000000	-0.307077	0.000000	0.001845	0.000059	0.000000	0.000000
9.984918	13.527943	20.701898	1.151063	-1.331258	2.703829	0.000000	-0.229556	0.000000	0.001882	0.000107	0.000000	0.000000
10.425878	12.693149	21.657519	0.749246	-0.827574	2.619142	0.000000	-0.154650	0.000000	0.001940	0.000156	0.000000	0.000000
10.866838	12.196363	22.150554	0.381661	-0.286235	2.567045	0.000000	-0.081507	0.000000	0.002020	0.000207	0.000000	0.000000
11.309048	12.014739	22.158029	0.060279	0.214746	2.546925	0.000000	-0.015415	0.000000	0.002123	0.000255	0.000000	0.000000
11.606371	11.986279	22.034505	0.035443	0.200709	2.542266	0.000000	-0.015415	0.000000	0.002199	0.000255	0.000000	0.000000
12.086371	11.971500	21.852702	-0.004653	0.178047	2.534744	0.000000	-0.015415	0.000000	0.002321	0.000255	0.000000	0.000000
12.566371	11.995213	21.692654	-0.044749	0.155386	2.527222	0.000000	-0.015415	0.000000	0.002444	0.000255	0.000000	0.000000
13.046371	12.057419	21.554361	-0.084846	0.132724	2.519701	0.000000	-0.015415	0.000000	0.002566	0.000255	0.000000	0.000000
13.526371	12.158117	21.437823	-0.124942	0.110063	2.512179	0.000000	-0.015415	0.000000	0.002689	0.000255	0.000000	0.000000
14.007621	12.297720	21.342822	-0.165142	0.087342	2.504638	0.000000	-0.015415	0.000000	0.002812	0.000255	0.000000	0.000000
14.304943	12.403302	21.295063	-0.160399	0.022595	2.499978	0.000000	-0.021377	0.000000	0.002887	0.000248	0.000000	0.000000
14.745903	12.703716	21.042141	-0.523327	0.548770	2.506040	0.000000	0.049445	0.000000	0.003014	0.000324	0.000000	0.000000
15.186863	13.333529	20.334435	-0.910170	1.049975	2.543392	0.000000	0.120826	0.000000	0.003174	0.000404	0.000000	0.000000
15.627823	14.321525	19.204143	-1.338606	1.503404	2.612461	0.000000	0.193580	0.000000	0.003371	0.000488	0.000000	0.000000
16.068783	15.712856	17.702694	-1.828211	1.888424	2.714030	0.000000	0.268533	0.000000	0.003606	0.000578	0.000000	0.000000
16.514743	17.594733	15.876901	-2.406196	2.188326	2.850952	0.000000	0.347015	0.000000	0.003885	0.000676	0.000000	0.000000
17.063803	20.011053	13.838603	-1.967995	1.545714	3.017469	0.000000	0.259781	0.000000	0.004220	0.000544	0.000000	0.000000
17.612863	21.866462	12.441758	-1.390749	1.013212	3.134824	0.000000	0.167947	0.000000	0.004481	0.000403	0.000000	0.000000
18.161923	23.029856	11.586867	-0.715240	0.552886	3.200939	0.000000	0.073141	0.000000	0.004662	0.000255	0.000000	0.000000
18.710983	23.419028	11.213035	0.010806	0.131945	3.214643	0.000000	-0.022959	0.000000	0.004760	0.000102	0.000000	0.000000
19.009556	23.451438	11.125628	-0.060691	0.132733	3.210159	0.000000	-0.014898	0.000000	0.004794	0.000115	0.000000	0.000000
19.342889	23.496654	11.047302	-0.074957	0.102244	3.205155	0.000000	-0.014898	0.000000	0.004833	0.000115	0.000000	0.000000
19.676223	23.551381	10.989302	-0.089223	0.071756	3.200151	0.000000	-0.014898	0.000000	0.004871	0.000115	0.000000	0.000000
20.010806	23.616169	10.951389	-0.220550	0.095413	3.195147	0.000000	0.000932	0.000000	0.004909	0.000139	0.000000	0.000000
20.308129	23.751261	10.902790	-0.293201	0.095330	3.195384	0.000000	0.008930	0.000000	0.004951	0.000152	0.000000	0.000000
20.857189	23.663675	11.019104	0.451814	-0.308406	3.174040	0.000000	-0.086422	0.000000	0.004990	-0.000009	0.000000	0.000000
21.406249	22.770615	11.588190	1.164908	-0.734112	3.100767	0.000000	-0.180242	0.000000	0.004940	-0.000170	0.000000	0.000000
21.955309	21.135183	12.650587	1.795697	-1.212114	2.976864	0.000000	-0.270867	0.000000	0.004803	-0.000328	0.000000	0.000000
22.504369	18.872938	14.281974	2.299615	-1.776463	2.804528	0.000000	-0.356692	0.000000	0.004581	-0.000480	0.000000	0.000000
22.950329	17.091186	15.747069	1.709361	-1.494746	2.662926	0.000000	-0.279471	0.000000	0.004393	-0.000364	0.000000	0.000000
23.391289	15.812093	16.916027	1.202022	-1.145939	2.556137	0.000000	-0.205901	0.000000	0.004257	-0.000252	0.000000	0.000000
23.832249	14.954664	17.753086	0.749612	-0.744987	2.481198	0.000000	-0.134673	0.000000	0.004170	-0.000144	0.000000	0.000000
24.273209	14.479713	18.220158	0.331457	-0.310136	2.437256	0.000000	-0.064978	0.000000	0.004130	-0.000037	0.000000	0.000000
24.715418	14.365635	18.295742	-0.037802	0.095649	2.423810	0.000000	-0.001731	0.000000	0.004137	0.000060	0.000000	0.000000
25.012741	14.394277	18.243741	-0.058528	0.079249	2.423277	0.000000	-0.001731	0.000000	0.004155	0.000060	0.000000	0.000000
25.346075	14.441041	18.197037	-0.081765	0.060863	2.422680	0.000000	-0.001731	0.000000	0.004175	0.000060	0.000000	0.000000
25.679408	14.503297	18.162590	-0.105002	0.042477	2.422083	0.000000	-0.001731	0.000000	0.004195	0.000060	0.000000	0.000000
26.013991	14.581068	18.140708	-0.010034	-0.123144	2.421459	0.000000	-0.021376	0.000000	0.004215	0.000026	0.000000	0.000000
26.311314	14.593091	18.218892	0.003914	-0.182653	2.415095	0.000000	-0.027059	0.000000	0.004223	0.000016	0.000000	0.000000
26.752274	14.769712	18.182489	-0.405917	0.264887	2.418255	0.000000	0.041539	0.000000	0.004254	0.000125	0.000000	0.000000
27.193234	15.314598	17.755196	-0.834299	0.700372	2.451694	0.000000	0.110609	0.000000	0.004333	0.000236	0.000000	0.000000
27.634194	16.252652	16.956455	-1.300807	1.103989	2.515793	0.000000	0.180937	0.000000	0.004462	0.000349	0.000000	0.000000
28.075154	17.626747	15.822611	-1.826760	1.457369	2.611281	0.000000	0.253321	0.000000	0.004642	0.000466	0.000000	0.000000
28.521114	19.523626	14.388135	-2.441226	1.745431	2.740853	0.000000	0.329047	0.000000	0.004877	0.000590	0.000000	0.000000
29.070174	21.935082	12.790159	-1.924126	1.181925	2.898565	0.000000	0.245522	0.000000	0.005157	0.000427	0.000000	0.000000
29.619234	23.700145	11.761430	-1.271076	0.702614	3.009238	0.000000	0.157648	0.000000	0.005345	0.000257	0.000000	0.000000
30.168294	24.694091	11.228667	-0.528218	0.273356	3.070911	0.000000	0.066981	0.000000	0.005438	0.000082	0.000000	0.000000
30.717354	24.846685	11.153921	0.251962	-0.136428	3.082492	0.000000	-0.024873	0.000000	0.005435	-0.000094	0.000000	0.000000
31.015927	24.736898	11.226877	0.177592	-0.135701	3.077382	0.000000	-0.017191	0.000000	0.005411	-0.000080	0.000000	0.000000
31.349260	24.623137	11.327423	0.163691	-0.165938	3.071678	0.000000	-0.017191	0.000000	0.005384	-0.000080	0.000000	0.000000
31.682593	24.518643	11.448128	0.149791	-0.196175	3.065975	0.000000	-0.017191	0.000000	0.005358	-0.000080	0.000000	0.000000
32.017177	24.423075	11.589557	0.135839	-0.226526	3.060250	0.000000	-0.017191	0.000000	0.005331	-0.000080	0.000000	0.000000
32.314499	24.346006	11.732269	0.062697	-0.224236	3.055163	0.000000	-0.009568	0.000000	0.005307	-0.000066	0.000000	0.000000
32.863559	23.860250	12.217539	0.816597	-0.664734	3.025052	0.000000	-0.100236	0.000000	0.005224	-0.000237	0.000000	0.000000
33.412619	22.573443	13.209573	1.512798	-1.152586	2.945659	0.000000	-0.189129	0.000000	0.005048	-0.000403	0.000000	0.000000
33.961679	20.576515	14.779037	2.102110	-1.722543	2.818389	0.000000	-0.274673	0.000000	0.004782	-0.000563	0.000000	0.000000
34.510739	18.010572	17.037727	2.542897	-2.415208	2.645499	0.000000	-0.355354	0.000000	0.004432	-0.000712	0.000000	0.000000
34.956699	16.016346	19.058160	1.944312	-2.096152	2.503676	0.000000	-0.282265	0.000000	0.004139	-0.000601	0.000000	0.000000
35.397659	14.529609	20.730877	1.439636	-1.682547	2.394849	0.000000	-0.212828	0.000000	0.003897	-0.000497	0.000000	0.000000
35.838619	13.457427	22.003517	1.000750	-1.192380	2.316038	0.000000	-0.145809	0.000000	0.003700	-0.000399	0.000000	0.000000
36.279579	12.750798	22.818174	0.607595	-0.647956	2.266348	0.000000	-0.080448	0.000000	0.003544	-0.000306	0.000000	0.000000
36.721789	12.376752	23.138096	0.271457	-0.128918	2.245188	0.000000	-0.021325	0.000000	0.003429	-0.000224	0.000000	0.000000
37.019112	12.223000	23.218641	0.245664	-0.141981	2.238914	0.000000	-0.021325	0.000000	0.003363	-0.000224	0.000000	0.000000
37.352445	12.068863	23.318177	0.216748	-0.156627	2.231880	0.000000	-0.021325	0.000000	0.003288	-0.000224	0.000000	0.000000
37.685779	11.934003	23.427476	0.187831	-0.171273	2.224847	0.000000	-0.021325	0.000000	0.003213	-0.000224	0.000000	0.000000
38.020362	11.818025	23.547005	0.158806	-0.185973	2.217787	0.000000	-0.021325	0.000000	0.003138	-0.000224	0.000000	0.000000
38.317684	11.731257	23.661484	0.160939	-0.255441	2.211513	0.000000	-0.026589	0.000000	0.003071	-0.000232	0.000000	0.000000
38.758644	11.739288	23.624614	-0.179284	0.338733	2.213833	0.000000	0.036747	0.000000	0.002986	-0.000154	0.000000	0.000000
39.199604	12.049856	23.068529	-0.527698	0.917492	2.244116	0.000000	0.100504	0.000000	0.002936	-0.000077	0.000000	0.000000
39.640564	12.677153	22.018534	-0.900224	1.454503	2.302707	0.000000	0.165406	0.000000	0.002918	-0.000002	0.000000	0.000000
40.081524	13.649841	20.522407	-1.313883	1.925329	2.390275	0.000000	0.232193	0.000000	0.002934	0.000074	0.000000	0.000000
40.527484	15.029903	18.625583	-1.791445	2.309914	2.509295	0.000000	0.302039	0.000000	0.002984	0.000150	0.000000	0.000000
41.076544	16.792492	16.493744	-1.399560	1.595547	2.654485	0.000000	0.226226	0.000000	0.003040	0.000053	0.000000	0.000000
41.625604	18.067527	15.079753	-0.908803	0.994837	2.756936	0.000000	0.146401	0.000000	0.003042	-0.000046	0.000000	0.000000
42.174664	18.764928	14.282889	-0.353846	0.464993	2.814829	0.000000	0.063978	0.000000	0.002990	-0.000143	0.000000	0.000000
42.723724	18.835428	14.046386	0.226106	-0.031727	2.827136	0.000000	-0.019583	0.000000	0.002885	-0.000239	0.000000	0.000000
43.022297	18.733960	14.050271	0.161737	-0.017129	2.823509	0.000000	-0.012376	0.000000	0.002816	-0.000231	0.000000	0.000000
43.502297	18.591312	14.083118	0.135445	-0.051302	2.817680	0.000000	-0.012376	0.000000	0.002705	-0.000231	0.000000	0.000000
43.982297	18.473905	14.148771	0.109153	-0.085475	2.811850	0.000000	-0.012376	0.000000	0.002594	-0.000231	0.000000	0.000000
44.462297	18.381738	14.247230	0.082861	-0.119648	2.806021	0.000000	-0.012376	0.000000	0.002483	-0.000231	0.000000	0.000000
44.942297	18.314812	14.378495	0.056569	-0.153821	2.800191	0.000000	-0.012376	0.000000	0.002372	-0.000231	0.000000	0.000000
45.423547	18.273277	14.542856	-0.060328	-0.116029	2.794364	0.000000	0.001469	0.000000	0.002261	-0.000220	0.000000	0.000000
45.720870	18.314008	14.618011	-0.123624	-0.099306	2.794866	0.000000	0.008636	0.000000	0.002195	-0.000214	0.000000	0.000000
46.269930	18.141275	15.009623	0.436221	-0.618124	2.777085	0.000000	-0.073788	0.000000	0.002058	-0.000283	0.000000	0.000000
46.818990	17.367093	15.991665	0.965245	-1.180971	2.714374	0.000000	-0.154907	0.000000	0.001885	-0.000347	0.000000	0.000000
47.368050	16.046161	17.634084	1.426078	-1.827939	2.607843	0.000000	-0.233285	0.000000	0.001678	-0.000405	0.000000	0.000000
47.917110	14.271801	20.053865	1.786165	-2.605111	2.459378	0.000000	-0.307531	0.000000	0.001442	-0.000455	0.000000	0.000000
48.363070	12.890356	22.204985	1.322274	-2.198110	2.337758	0.000000	-0.239022	0.000000	0.001247	-0.000421	0.000000	0.000000
48.804030	11.904126	23.927132	0.922582	-1.692414	2.247033	0.000000	-0.173634	0.000000	0.001068	-0.000391	0.000000	0.000000
49.244990	11.250558	25.167495	0.565044	-1.109713	2.184669	0.000000	-0.110219	0.000000	0.000902	-0.000365	0.000000	0.000000
49.685950	10.899787	25.869641	0.233325	-0.476521	2.149956	0.000000	-0.048056	0.000000	0.000745	-0.000344	0.000000	0.000000
50.128160	10.835935	26.001338	-0.061425	0.115020	2.142513	0.000000	0.008340	0.000000	0.000597	-0.000328	0.000000	0.000000
50.425482	10.880650	25.936387	-0.088967	0.103434	2.145090	0.000000	0.008340	0.000000	0.000500	-0.000328	0.000000	0.000000
50.758816	10.950254	25.871761	-0.119845	0.090444	2.147979	0.000000	0.008340	0.000000	0.000390	-0.000328	0.000000	0.000000
51.092149	11.040443	25.815794	-0.150723	0.077455	2.150868	0.000000	0.008340	0.000000	0.000281	-0.000328	0.000000	0.000000
51.426732	11.151445	25.768849	-0.091249	-0.144633	2.153746	0.000000	-0.009133	0.000000	0.000171	-0.000330	0.000000	0.000000
51.724055	11.213699	25.858356	-0.090652	-0.219902	2.151129	0.000000	-0.014405	0.000000	0.000073	-0.000330	0.000000	0.000000
52.165015	11.439837	25.764538	-0.424231	0.431851	2.158546	0.000000	0.047436	0.000000	-0.000072	-0.000330	0.000000	0.000000
52.605975	11.967563	25.102430	-0.777188	1.063954	2.193326	0.000000	0.109820	0.000000	-0.000218	-0.000334	0.000000	0.000000
53.046935	12.820984	23.902160	-1.165651	1.647647	2.255867	0.000000	0.173459	0.000000	-0.000367	-0.000341	0.000000	0.000000
53.487895	14.039086	22.218343	-1.607365	2.156373	2.346884	0.000000	0.239077	0.000000	-0.000520	-0.000352	0.000000	0.000000
53.933855	15.698363	20.102427	-2.126772	2.568311	2.468922	0.000000	0.307820	0.000000	-0.000680	-0.000368	0.000000	0.000000
54.482915	17.834347	17.721310	-1.740670	1.794051	2.617872	0.000000	0.233264	0.000000	-0.000876	-0.000343	0.000000	0.000000
55.031975	19.475915	16.115680	-1.231626	1.147575	2.724671	0.000000	0.154564	0.000000	-0.001056	-0.000312	0.000000	0.000000
55.581035	20.507127	15.171170	-0.635596	0.582838	2.787423	0.000000	0.073119	0.000000	-0.001217	-0.000275	0.000000	0.000000
56.130095	20.855156	14.820502	0.005321	0.059615	2.805013	0.000000	-0.009628	0.000000	-0.001356	-0.000233	0.000000	0.000000
56.428668	20.889170	14.767563	-0.064139	0.078483	2.804422	0.000000	-0.002216	0.000000	-0.001427	-0.000237	0.000000	0.000000
56.762001	20.937270	14.722811	-0.080162	0.055772	2.803762	0.000000	-0.002216	0.000000	-0.001506	-0.000237	0.000000	0.000000
57.095334	20.996053	14.693200	-0.096185	0.033061	2.803102	0.000000	-0.002216	0.000000	-0.001585	-0.000237	0.000000	0.000000
57.429918	21.065797	14.678704	-0.112268	0.010265	2.802439	0.000000	-0.002216	0.000000	-0.001664	-0.000237	0.000000	0.000000
57.727240	21.136808	14.678622	-0.182585	0.028864	2.801851	0.000000	0.005210	0.000000	-0.001734	-0.000241	0.000000	0.000000
58.276300	20.976294	14.928595	0.473077	-0.486837	2.782117	0.000000	-0.077398	0.000000	-0.001851	-0.000183	0.000000	0.000000
58.825360	20.109996	15.760456	1.095321	-1.037211	2.717305	0.000000	-0.158637	0.000000	-0.001935	-0.000122	0.000000	0.000000
59.374420	18.599102	17.233452	1.640201	-1.661459	2.608563	0.000000	-0.237065	0.000000	-0.001984	-0.000058	0.000000	0.000000
59.923480	16.550323	19.452495	2.069234	-2.404042	2.457820	0.000000	-0.311288	0.000000	-0.001999	0.000006	0.000000	0.000000
60.369440	14.946038	21.424703	1.540938	-1.999760	2.334332	0.000000	-0.242860	0.000000	-0.002007	-0.000046	0.000000	0.000000
60.810400	13.791515	22.976389	1.087243	-1.505831	2.241753	0.000000	-0.177589	0.000000	-0.002039	-0.000098	0.000000	0.000000
61.251360	13.013765	24.060491	0.683218	-0.943392	2.177505	0.000000	-0.114339	0.000000	-0.002094	-0.000151	0.000000	0.000000
61.692320	12.577257	24.627689	0.310405	-0.338032	2.140856	0.000000	-0.052390	0.000000	-0.002173	-0.000206	0.000000	0.000000
62.134530	12.462095	24.651621	-0.017111	0.220999	2.131397	0.000000	0.003626	0.000000	-0.002276	-0.000258	0.000000	0.000000
62.431853	12.479366	24.523966	-0.040976	0.208349	2.132551	0.000000	0.003626	0.000000	-0.002353	-0.000258	0.000000	0.000000
62.765186	12.515602	24.389794	-0.067732	0.194167	2.133846	0.000000	0.003626	0.000000	-0.002439	-0.000258	0.000000	0.000000
63.098520	12.569675	24.265077	-0.094488	0.179984	2.135140	0.000000	0.003626	0.000000	-0.002525	-0.000258	0.000000	0.000000
63.433103	12.641888	24.149401	-0.121344	0.165749	2.136440	0.000000	0.003626	0.000000	-0.002611	-0.000258	0.000000	0.000000
63.730426	12.721138	24.054605	-0.113226	0.092535	2.137594	0.000000	-0.001749	0.000000	-0.002688	-0.000251	0.000000	0.000000
64.171386	12.982522	23.708146	-0.481913	0.690199	2.150505	0.000000	0.059810	0.000000	-0.002814	-0.000322	0.000000	0.000000
64.612346	13.577471	22.846503	-0.872611	1.256461	2.190715	0.000000	0.122052	0.000000	-0.002972	-0.000397	0.000000	0.000000
65.053306	14.533159	21.508882	-1.303169	1.765559	2.258685	0.000000	0.185689	0.000000	-0.003164	-0.000476	0.000000	0.000000
65.494266	15.893235	19.756142	-1.793251	2.194330	2.355188	0.000000	0.251446	0.000000	-0.003393	-0.000560	0.000000	0.000000
65.940226	17.743044	17.643238	-2.369869	2.523939	2.482901	0.000000	0.320463	0.000000	-0.003663	-0.000652	0.000000	0.000000
66.489286	20.112873	15.279807	-1.921293	1.806206	2.638767	0.000000	0.245349	0.000000	-0.003987	-0.000528	0.000000	0.000000
67.038346	21.912286	13.629660	-1.337039	1.217113	2.752064	0.000000	0.165876	0.000000	-0.004241	-0.000395	0.000000	0.000000
67.587406	23.014225	12.575266	-0.658370	0.714703	2.820781	0.000000	0.083454	0.000000	-0.004419	-0.000254	0.000000	0.000000
68.136466	23.340885	12.041526	0.066789	0.263195	2.843696	0.000000	-0.000452	0.000000	-0.004519	-0.000109	0.000000	0.000000
68.435038	23.342588	11.872917	-0.009271	0.268887	2.845898	0.000000	0.007256	0.000000	-0.004555	-0.000122	0.000000	0.000000
68.768372	23.353528	11.703694	-0.023552	0.238782	2.848357	0.000000	0.007256	0.000000	-0.004596	-0.000122	0.000000	0.000000
69.101705	23.373990	11.554541	-0.037833	0.208678	2.850816	0.000000	0.007256	0.000000	-0.004636	-0.000122	0.000000	0.000000
69.436288	23.404103	11.425011	-0.052168	0.178460	2.853285	0.000000	0.007256	0.000000	-0.004677	-0.000122	0.000000	0.000000
69.733611	23.438927	11.326867	-0.128536	0.182335	2.855479	0.000000	0.015008	0.000000	-0.004713	-0.000134	0.000000	0.000000
70.282671	23.177555	11.353614	0.601749	-0.231340	2.840554	0.000000	-0.069409	0.000000	-0.004745	0.000019	0.000000	0.000000
