#ParticleID	Turn	x[m]	xp	y[m]	yp	z[m]	dE[GeV]# s	beta_x	beta_y	alpha_x	alpha_y	D_x	D_y	D_px	D_py	orbit_x	orbit_px	orbit_y	orbit_py
0.300000	11.931704	25.254252	-0.019599	-0.022568	2.603705	0.000000	0.000644	0.000000	-0.000589	0.000516	0.000000	0.000000
0.601250	11.951121	25.271444	-0.044857	-0.034503	2.603744	0.000000	0.000644	0.000000	-0.000434	0.000516	0.000000	0.000000
0.898573	11.985207	25.295463	-0.040316	-0.108292	2.603782	0.000000	-0.005758	0.000000	-0.000280	0.000517	0.000000	0.000000
1.339533	12.174314	25.110260	-0.389988	0.526695	2.617236	0.000000	0.067829	0.000000	-0.000054	0.000512	0.000000	0.000000
1.780493	12.678470	24.373515	-0.757481	1.137719	2.663279	0.000000	0.142184	0.000000	0.000172	0.000514	0.000000	0.000000
2.221453	13.520714	23.118746	-1.159586	1.696980	2.742431	0.000000	0.218152	0.000000	0.000400	0.000521	0.000000	0.000000
2.662413	14.739531	21.403039	-1.614674	2.179030	2.855593	0.000000	0.296599	0.000000	0.000633	0.000535	0.000000	0.000000
3.108373	16.411659	19.279314	-2.147897	2.563093	3.005905	0.000000	0.378909	0.000000	0.000875	0.000554	0.000000	0.000000
3.657433	18.555319	16.893758	-1.732899	1.807290	3.188542	0.000000	0.286402	0.000000	0.001171	0.000521	0.000000	0.000000
4.206493	20.172935	15.263032	-1.195482	1.180218	3.318938	0.000000	0.188822	0.000000	0.001446	0.000479	0.000000	0.000000
4.755553	21.150227	14.270988	-0.573607	0.637211	3.394783	0.000000	0.087901	0.000000	0.001695	0.000428	0.000000	0.000000
5.304613	21.418143	13.846968	0.088796	0.139592	3.414735	0.000000	-0.014572	0.000000	0.001914	0.000369	0.000000	0.000000
5.603185	21.402163	13.749035	0.019780	0.152892	3.412893	0.000000	-0.005794	0.000000	0.002026	0.000374	0.000000	0.000000
5.936519	21.394169	13.655378	0.004199	0.128081	3.410837	0.000000	-0.005794	0.000000	0.002150	0.000374	0.000000	0.000000
6.269852	21.396564	13.578261	-0.011382	0.103270	3.408781	0.000000	-0.005794	0.000000	0.002275	0.000374	0.000000	0.000000
6.604435	21.409412	13.517489	-0.027021	0.078366	3.406717	0.000000	-0.005794	0.000000	0.002400	0.000374	0.000000	0.000000
6.901758	21.429616	13.477466	-0.095723	0.090777	3.404884	0.000000	0.002914	0.000000	0.002512	0.000381	0.000000	0.000000
7.450818	21.169259	13.639296	0.567293	-0.387246	3.378251	0.000000	-0.099135	0.000000	0.002698	0.000296	0.000000	0.000000
7.999878	20.198565	14.338051	1.190239	-0.892855	3.296033	0.000000	-0.199420	0.000000	0.002836	0.000207	0.000000	0.000000
8.548938	18.586104	15.623509	1.729108	-1.462066	3.159690	0.000000	-0.296164	0.000000	0.002924	0.000113	0.000000	0.000000
9.097998	16.445790	17.587239	2.145828	-2.135427	2.971642	0.000000	-0.387653	0.000000	0.002960	0.000018	0.000000	0.000000
9.543958	14.775769	19.336858	1.612156	-1.771104	2.816968	0.000000	-0.306274	0.000000	0.002985	0.000095	0.000000	0.000000
9.984918	13.559466	20.708499	1.156550	-1.327504	2.699028	0.000000	-0.228878	0.000000	0.003044	0.000173	0.000000	0.000000
10.425878	12.720265	21.660671	0.753789	-0.823498	2.614577	0.000000	-0.154090	0.000000	0.003138	0.000252	0.000000	0.000000
10.866838	12.219820	22.150045	0.385469	-0.282020	2.562654	0.000000	-0.081061	0.000000	0.003267	0.000335	0.000000	0.000000
11.309048	12.035110	22.153794	0.063204	0.219552	2.542645	0.000000	-0.014989	0.000000	0.003434	0.000413	0.000000	0.000000
11.606371	12.004901	22.027421	0.038401	0.205484	2.538066	0.000000	-0.014989	0.000000	0.003557	0.000413	0.000000	0.000000
12.086371	11.987257	21.841058	-0.001642	0.182773	2.530672	0.000000	-0.014989	0.000000	0.003755	0.000413	0.000000	0.000000
12.566371	12.008054	21.676497	-0.041685	0.160062	2.523279	0.000000	-0.014989	0.000000	0.003954	0.000413	0.000000	0.000000
13.046371	12.067292	21.533739	-0.081727	0.137351	2.515886	0.000000	-0.014989	0.000000	0.004152	0.000413	0.000000	0.000000
13.526371	12.164971	21.412784	-0.121770	0.114640	2.508493	0.000000	-0.014989	0.000000	0.004350	0.000413	0.000000	0.000000
14.007621	12.301495	21.313401	-0.161917	0.091869	2.501081	0.000000	-0.014989	0.000000	0.004549	0.000413	0.000000	0.000000
14.304943	12.405145	21.262968	-0.157660	0.028111	2.496500	0.000000	-0.020838	0.000000	0.004672	0.000402	0.000000	0.000000
14.745903	12.703173	21.005587	-0.520555	0.553312	2.502706	0.000000	0.049900	0.000000	0.004876	0.000525	0.000000	0.000000
15.186863	13.330537	20.294361	-0.907243	1.053336	2.540146	0.000000	0.121200	0.000000	0.005136	0.000654	0.000000	0.000000
15.627823	14.315912	19.161652	-1.335394	1.505429	2.609247	0.000000	0.193874	0.000000	0.005454	0.000791	0.000000	0.000000
16.068783	15.704341	17.658996	-1.824577	1.889018	2.710792	0.000000	0.268748	0.000000	0.005834	0.000936	0.000000	0.000000
16.514743	17.582908	15.833242	-2.402029	2.187499	2.847632	0.000000	0.347156	0.000000	0.006287	0.001093	0.000000	0.000000
17.063803	19.994829	13.795259	-1.963833	1.545830	3.014062	0.000000	0.260023	0.000000	0.006830	0.000881	0.000000	0.000000
17.612863	21.845962	12.397712	-1.386863	1.014285	3.131429	0.000000	0.168292	0.000000	0.007251	0.000653	0.000000	0.000000
18.161923	23.005477	11.541048	-0.711887	0.554997	3.197657	0.000000	0.073586	0.000000	0.007544	0.000413	0.000000	0.000000
18.710983	23.391422	11.164245	0.013399	0.135248	3.211574	0.000000	-0.022419	0.000000	0.007703	0.000166	0.000000	0.000000
19.009556	23.421291	11.075442	-0.056482	0.135021	3.207162	0.000000	-0.014581	0.000000	0.007759	0.000185	0.000000	0.000000
19.342889	23.463705	10.995644	-0.070760	0.104375	3.202240	0.000000	-0.014581	0.000000	0.007820	0.000185	0.000000	0.000000
19.676223	23.515637	10.936275	-0.085037	0.073730	3.197318	0.000000	-0.014581	0.000000	0.007882	0.000185	0.000000	0.000000
20.010806	23.577628	10.897094	-0.216185	0.096961	3.192397	0.000000	0.001236	0.000000	0.007944	0.000225	0.000000	0.000000
20.308129	23.710151	10.847605	-0.287086	0.095858	3.192701	0.000000	0.009006	0.000000	0.008011	0.000245	0.000000	0.000000
20.857189	23.616609	10.962509	0.456502	-0.306343	3.171396	0.000000	-0.086269	0.000000	0.008074	-0.000016	0.000000	0.000000
21.406249	22.719283	11.528451	1.167834	-0.730370	3.098254	0.000000	-0.180014	0.000000	0.007994	-0.000276	0.000000	0.000000
21.955309	21.081587	12.585748	1.796642	-1.206430	2.974572	0.000000	-0.270569	0.000000	0.007772	-0.000531	0.000000	0.000000
22.504369	18.819268	14.209718	2.298490	-1.768438	2.802541	0.000000	-0.356333	0.000000	0.007412	-0.000777	0.000000	0.000000
22.950329	17.037934	15.668478	1.709213	-1.488470	2.661196	0.000000	-0.279147	0.000000	0.007107	-0.000589	0.000000	0.000000
23.391289	15.758425	16.832843	1.202917	-1.141740	2.554618	0.000000	-0.205613	0.000000	0.006888	-0.000409	0.000000	0.000000
23.832249	14.899675	17.667217	0.751598	-0.743051	2.479848	0.000000	-0.134418	0.000000	0.006746	-0.000233	0.000000	0.000000
24.273209	14.422429	18.133632	0.334630	-0.310549	2.436035	0.000000	-0.064751	0.000000	0.006682	-0.000060	0.000000	0.000000
24.715418	14.304979	18.210605	-0.034310	0.094205	2.422680	0.000000	-0.001380	0.000000	0.006694	0.000097	0.000000	0.000000
25.012741	14.331568	18.159484	-0.055119	0.077733	2.422241	0.000000	-0.001380	0.000000	0.006722	0.000097	0.000000	0.000000
25.346075	14.376091	18.113818	-0.078449	0.059266	2.421749	0.000000	-0.001380	0.000000	0.006755	0.000097	0.000000	0.000000
25.679408	14.436167	18.080463	-0.101778	0.040799	2.421257	0.000000	-0.001380	0.000000	0.006787	0.000097	0.000000	0.000000
26.013991	14.511814	18.059729	-0.007466	-0.124246	2.420738	0.000000	-0.021019	0.000000	0.006819	0.000041	0.000000	0.000000
26.311314	14.522325	18.138607	0.005317	-0.182514	2.414475	0.000000	-0.026550	0.000000	0.006831	0.000025	0.000000	0.000000
26.752274	14.696984	18.103036	-0.402822	0.262867	2.417839	0.000000	0.042039	0.000000	0.006881	0.000202	0.000000	0.000000
27.193234	15.238387	17.678430	-0.829371	0.696285	2.451452	0.000000	0.111106	0.000000	0.007010	0.000381	0.000000	0.000000
27.634194	16.171281	16.884110	-1.293827	1.098018	2.515695	0.000000	0.181434	0.000000	0.007218	0.000564	0.000000	0.000000
28.075154	17.538313	15.756221	-1.817419	1.449783	2.611300	0.000000	0.253823	0.000000	0.007509	0.000754	0.000000	0.000000
28.521114	19.425858	14.329010	-2.429159	1.736627	2.740967	0.000000	0.329565	0.000000	0.007889	0.000954	0.000000	0.000000
29.070174	21.825755	12.739411	-1.914885	1.175257	2.898801	0.000000	0.246025	0.000000	0.008342	0.000691	0.000000	0.000000
29.619234	23.582676	11.717004	-1.265289	0.697614	3.009639	0.000000	0.158132	0.000000	0.008646	0.000416	0.000000	0.000000
30.168294	24.572440	11.188957	-0.526277	0.269673	3.071519	0.000000	0.067439	0.000000	0.008797	0.000133	0.000000	0.000000
30.717354	24.725093	11.117653	0.249926	-0.139057	3.083346	0.000000	-0.024448	0.000000	0.008792	-0.000152	0.000000	0.000000
31.015927	24.615199	11.192781	0.177682	-0.139367	3.078305	0.000000	-0.016999	0.000000	0.008753	-0.000130	0.000000	0.000000
31.349260	24.501400	11.295813	0.163713	-0.169727	3.072682	0.000000	-0.016999	0.000000	0.008710	-0.000130	0.000000	0.000000
31.682593	24.396915	11.419084	0.149744	-0.200086	3.067059	0.000000	-0.016999	0.000000	0.008667	-0.000130	0.000000	0.000000
32.017177	24.301403	11.563171	0.135722	-0.230560	3.061415	0.000000	-0.016999	0.000000	0.008623	-0.000130	0.000000	0.000000
32.314499	24.224453	11.708298	0.064624	-0.229317	3.056403	0.000000	-0.009600	0.000000	0.008585	-0.000108	0.000000	0.000000
32.863559	23.738723	12.198936	0.814520	-0.669446	3.026309	0.000000	-0.100317	0.000000	0.008449	-0.000384	0.000000	0.000000
33.412619	22.456216	13.196144	1.506852	-1.157268	2.946958	0.000000	-0.189261	0.000000	0.008164	-0.000653	0.000000	0.000000
33.961679	20.467582	14.770958	2.092696	-1.727537	2.819754	0.000000	-0.274857	0.000000	0.007734	-0.000911	0.000000	0.000000
34.510739	17.913376	17.035560	2.530654	-2.420877	2.646949	0.000000	-0.355591	0.000000	0.007167	-0.001152	0.000000	0.000000
34.956699	15.928644	19.061415	1.934788	-2.102392	2.505199	0.000000	-0.282451	0.000000	0.006693	-0.000972	0.000000	0.000000
35.397659	14.449133	20.739866	1.432447	-1.689126	2.396440	0.000000	-0.212970	0.000000	0.006302	-0.000805	0.000000	0.000000
35.838619	13.382299	22.018390	0.995575	-1.198994	2.317692	0.000000	-0.145906	0.000000	0.005982	-0.000647	0.000000	0.000000
36.279579	12.679375	22.838810	0.604205	-0.654302	2.268061	0.000000	-0.080497	0.000000	0.005730	-0.000496	0.000000	0.000000
36.721789	12.307566	23.164111	0.268920	-0.133560	2.246959	0.000000	-0.021217	0.000000	0.005543	-0.000364	0.000000	0.000000
37.019112	12.155356	23.247416	0.243015	-0.146625	2.240759	0.000000	-0.021217	0.000000	0.005435	-0.000364	0.000000	0.000000
37.352445	12.003026	23.350048	0.213973	-0.161271	2.233808	0.000000	-0.021217	0.000000	0.005314	-0.000364	0.000000	0.000000
37.685779	11.870058	23.462445	0.184931	-0.175918	2.226857	0.000000	-0.021217	0.000000	0.005193	-0.000364	0.000000	0.000000
38.020362	11.756063	23.585082	0.155779	-0.190620	2.219880	0.000000	-0.021217	0.000000	0.005071	-0.000364	0.000000	0.000000
38.317684	11.671123	23.702335	0.157136	-0.259172	2.213679	0.000000	-0.026387	0.000000	0.004963	-0.000375	0.000000	0.000000
38.758644	11.681904	23.668258	-0.181782	0.336150	2.216152	0.000000	0.037010	0.000000	0.004826	-0.000249	0.000000	0.000000
39.199604	11.994141	23.113885	-0.529004	0.916175	2.246597	0.000000	0.100832	0.000000	0.004743	-0.000126	0.000000	0.000000
39.640564	12.622101	22.064444	-0.900399	1.454509	2.305360	0.000000	0.165803	0.000000	0.004714	-0.000004	0.000000	0.000000
40.081524	13.594481	20.567689	-1.312940	1.926655	2.393112	0.000000	0.232664	0.000000	0.004739	0.000118	0.000000	0.000000
40.527484	14.973251	18.669039	-1.789374	2.312547	2.512335	0.000000	0.302595	0.000000	0.004820	0.000242	0.000000	0.000000
41.076544	16.734810	16.534958	-1.399653	1.596917	2.657773	0.000000	0.226675	0.000000	0.004909	0.000084	0.000000	0.000000
41.625604	18.011169	15.120068	-0.911045	0.995046	2.760441	0.000000	0.146735	0.000000	0.004912	-0.000075	0.000000	0.000000
42.174664	18.712146	14.323576	-0.358074	0.464062	2.818517	0.000000	0.064191	0.000000	0.004827	-0.000233	0.000000	0.000000
42.723724	18.788217	14.088742	0.220190	-0.033864	2.830970	0.000000	-0.019496	0.000000	0.004657	-0.000386	0.000000	0.000000
43.022297	18.689762	14.094140	0.156673	-0.019621	2.827381	0.000000	-0.012392	0.000000	0.004545	-0.000374	0.000000	0.000000
43.502297	18.551986	14.129329	0.130360	-0.053690	2.821612	0.000000	-0.012392	0.000000	0.004366	-0.000374	0.000000	0.000000
43.982297	18.439470	14.197226	0.104047	-0.087760	2.815844	0.000000	-0.012392	0.000000	0.004186	-0.000374	0.000000	0.000000
44.462297	18.352215	14.297829	0.077734	-0.121830	2.810076	0.000000	-0.012392	0.000000	0.004006	-0.000374	0.000000	0.000000
44.942297	18.290221	14.431139	0.051421	-0.155900	2.804307	0.000000	-0.012392	0.000000	0.003826	-0.000374	0.000000	0.000000
45.423547	18.253650	14.597451	-0.065399	-0.117734	2.798541	0.000000	0.001474	0.000000	0.003646	-0.000356	0.000000	0.000000
45.720870	18.297409	14.673595	-0.128134	-0.101266	2.799086	0.000000	0.008568	0.000000	0.003540	-0.000347	0.000000	0.000000
46.269930	18.129838	15.068317	0.431299	-0.621847	2.781310	0.000000	-0.073996	0.000000	0.003319	-0.000458	0.000000	0.000000
46.818990	17.361063	16.055547	0.960254	-1.186722	2.718548	0.000000	-0.155255	0.000000	0.003039	-0.000561	0.000000	0.000000
47.368050	16.045410	17.705602	1.421363	-1.836130	2.611909	0.000000	-0.233769	0.000000	0.002704	-0.000654	0.000000	0.000000
47.917110	14.275837	20.136011	1.782051	-2.616328	2.463281	0.000000	-0.308147	0.000000	0.002322	-0.000736	0.000000	0.000000
48.363070	12.897864	22.296381	1.318436	-2.207498	2.341524	0.000000	-0.239535	0.000000	0.002007	-0.000680	0.000000	0.000000
48.804030	11.914907	24.025871	0.918858	-1.699575	2.250700	0.000000	-0.174050	0.000000	0.001718	-0.000632	0.000000	0.000000
49.244990	11.264593	25.271455	0.561268	-1.114321	2.188272	0.000000	-0.110541	0.000000	0.001448	-0.000591	0.000000	0.000000
49.685950	10.917203	25.976463	0.229327	-0.478366	2.153532	0.000000	-0.048284	0.000000	0.001196	-0.000557	0.000000	0.000000
50.128160	10.857025	26.108531	-0.065866	0.116054	2.146096	0.000000	0.008213	0.000000	0.000956	-0.000531	0.000000	0.000000
50.425482	10.904369	26.042951	-0.093370	0.104513	2.148696	0.000000	0.008213	0.000000	0.000798	-0.000531	0.000000	0.000000
50.758816	10.976894	25.977589	-0.124205	0.091574	2.151611	0.000000	0.008213	0.000000	0.000621	-0.000531	0.000000	0.000000
51.092149	11.069975	25.920852	-0.155040	0.078635	2.154526	0.000000	0.008213	0.000000	0.000444	-0.000531	0.000000	0.000000
51.426732	11.183852	25.873103	-0.095260	-0.144248	2.157430	0.000000	-0.009289	0.000000	0.000266	-0.000534	0.000000	0.000000
51.724055	11.248474	25.962367	-0.094530	-0.219780	2.154827	0.000000	-0.014568	0.000000	0.000107	-0.000534	0.000000	0.000000
52.165015	11.478384	25.867227	-0.429006	0.434716	2.162280	0.000000	0.047368	0.000000	-0.000128	-0.000534	0.000000	0.000000
52.605975	12.010764	25.201428	-0.783077	1.069429	2.197139	0.000000	0.109850	0.000000	-0.000365	-0.000540	0.000000	0.000000
53.046935	12.869930	23.995269	-1.172921	1.655483	2.259805	0.000000	0.173589	0.000000	-0.000606	-0.000553	0.000000	0.000000
53.487895	14.095129	22.303634	-1.616346	2.166213	2.350993	0.000000	0.239310	0.000000	-0.000853	-0.000572	0.000000	0.000000
53.933855	15.763285	20.178216	-2.137881	2.579703	2.473255	0.000000	0.308160	0.000000	-0.001114	-0.000597	0.000000	0.000000
54.482915	17.910574	17.786255	-1.750163	1.802555	2.622469	0.000000	0.233461	0.000000	-0.001431	-0.000556	0.000000	0.000000
55.031975	19.561294	16.172602	-1.238840	1.153796	2.729442	0.000000	0.154612	0.000000	-0.001723	-0.000505	0.000000	0.000000
55.581035	20.598871	15.222315	-0.640029	0.587218	2.792274	0.000000	0.073013	0.000000	-0.001984	-0.000445	0.000000	0.000000
56.130095	20.950035	14.867703	0.003978	0.062466	2.809845	0.000000	-0.009889	0.000000	-0.002210	-0.000377	0.000000	0.000000
56.428668	20.985211	14.812790	-0.066058	0.081816	2.809239	0.000000	-0.002412	0.000000	-0.002324	-0.000383	0.000000	0.000000
56.762001	21.034568	14.765797	-0.082012	0.059163	2.808563	0.000000	-0.002412	0.000000	-0.002452	-0.000383	0.000000	0.000000
57.095334	21.094560	14.733907	-0.097965	0.036509	2.807886	0.000000	-0.002412	0.000000	-0.002579	-0.000383	0.000000	0.000000
57.429918	21.165473	14.717084	-0.113979	0.013770	2.807207	0.000000	-0.002412	0.000000	-0.002707	-0.000383	0.000000	0.000000
57.727240	21.237486	14.714900	-0.184999	0.032832	2.806604	0.000000	0.005093	0.000000	-0.002821	-0.000390	0.000000	0.000000
58.276300	21.077728	14.961056	0.474047	-0.483819	2.786833	0.000000	-0.077667	0.000000	-0.003010	-0.000296	0.000000	0.000000
58.825360	20.208511	15.790009	1.099607	-1.034926	2.721883	0.000000	-0.159053	0.000000	-0.003145	-0.000196	0.000000	0.000000
59.374420	18.691227	17.260794	1.647502	-1.659741	2.612905	0.000000	-0.237622	0.000000	-0.003224	-0.000093	0.000000	0.000000
59.923480	16.633033	19.478164	2.079041	-2.402765	2.461829	0.000000	-0.311978	0.000000	-0.003247	0.000012	0.000000	0.000000
60.369440	15.021058	21.448792	1.548463	-1.997548	2.338060	0.000000	-0.243456	0.000000	-0.003260	-0.000072	0.000000	0.000000
60.810400	13.860795	22.998113	1.092817	-1.502765	2.245259	0.000000	-0.178094	0.000000	-0.003311	-0.000157	0.000000	0.000000
61.251360	13.078895	24.079166	0.687093	-0.939613	2.180841	0.000000	-0.114758	0.000000	-0.003399	-0.000244	0.000000	0.000000
61.692320	12.639642	24.642769	0.312758	-0.333715	2.144073	0.000000	-0.052727	0.000000	-0.003526	-0.000333	0.000000	0.000000
62.134530	12.523012	24.662714	-0.015615	0.224888	2.134545	0.000000	0.003292	0.000000	-0.003694	-0.000417	0.000000	0.000000
62.431853	12.539358	24.532751	-0.039363	0.212223	2.135647	0.000000	0.003292	0.000000	-0.003817	-0.000417	0.000000	0.000000
62.765186	12.574475	24.396002	-0.065987	0.198024	2.136884	0.000000	0.003292	0.000000	-0.003956	-0.000417	0.000000	0.000000
63.098520	12.627341	24.268719	-0.092611	0.183825	2.138120	0.000000	0.003292	0.000000	-0.004095	-0.000417	0.000000	0.000000
63.433103	12.698254	24.150478	-0.119335	0.169572	2.139361	0.000000	0.003292	0.000000	-0.004235	-0.000417	0.000000	0.000000
63.730426	12.776270	24.053422	-0.110476	0.095377	2.140463	0.000000	-0.002171	0.000000	-0.004359	-0.000406	0.000000	0.000000
64.171386	13.035721	23.704508	-0.480341	0.692921	2.153278	0.000000	0.059457	0.000000	-0.004563	-0.000521	0.000000	0.000000
64.612346	13.629723	22.840586	-0.872144	1.258940	2.193442	0.000000	0.121768	0.000000	-0.004819	-0.000642	0.000000	0.000000
65.053306	14.585400	21.500963	-1.303778	1.767684	2.261414	0.000000	0.185472	0.000000	-0.005130	-0.000770	0.000000	0.000000
65.494266	15.946393	19.746589	-1.794958	2.196010	2.357971	0.000000	0.251297	0.000000	-0.005499	-0.000907	0.000000	0.000000
65.940226	17.798119	17.632467	-2.372692	2.525049	2.485791	0.000000	0.320376	0.000000	-0.005936	-0.001055	0.000000	0.000000
66.489286	20.169752	15.267851	-1.922079	1.807411	2.641773	0.000000	0.245174	0.000000	-0.006461	-0.000854	0.000000	0.000000
67.038346	21.968729	13.616354	-1.335755	1.218490	2.755096	0.000000	0.165609	0.000000	-0.006872	-0.000638	0.000000	0.000000
67.587406	23.068051	12.560351	-0.655122	0.716346	2.823745	0.000000	0.083097	0.000000	-0.007160	-0.000411	0.000000	0.000000
68.136466	23.390115	12.024631	0.071763	0.265217	2.846498	0.000000	-0.000895	0.000000	-0.007322	-0.000177	0.000000	0.000000
68.435038	23.389727	11.854444	-0.005794	0.271512	2.848641	0.000000	0.006990	0.000000	-0.007380	-0.000196	0.000000	0.000000
68.768372	23.398341	11.683500	-0.020046	0.241320	2.851037	0.000000	0.006990	0.000000	-0.007446	-0.000196	0.000000	0.000000
69.101705	23.416455	11.532683	-0.034298	0.211129	2.853432	0.000000	0.006990	0.000000	-0.007511	-0.000196	0.000000	0.000000
69.436288	23.444193	11.401543	-0.048603	0.180824	2.855837	0.000000	0.006990	0.000000	-0.007577	-0.000196	0.000000	0.000000
69.733611	23.476914	11.302004	-0.126500	0.185240	2.857976	0.000000	0.014925	0.000000	-0.007635	-0.000217	0.000000	0.000000
70.282671	23.212666	11.325159	0.604916	-0.227666	2.843004	0.000000	-0.069564	0.000000	-0.007686	0.000031	0.000000	0.000000
