#ParticleID	Turn	x[m]	xp	y[m]	yp	z[m]	dE[GeV]# s	beta_x	beta_y	alpha_x	alpha_y	D_x	D_y	D_px	D_py	orbit_x	orbit_px	orbit_y	orbit_py
0.300000	11.957427	25.253122	-0.016262	-0.023708	2.599665	0.000000	-0.000803	0.000000	-0.001159	0.000987	0.000000	0.000000
0.601250	11.974817	25.271002	-0.041463	-0.035644	2.599126	0.000000	-0.000803	0.000000	-0.000862	0.000987	0.000000	0.000000
0.898573	12.006867	25.295701	-0.036732	-0.109432	2.598594	0.000000	-0.007209	0.000000	-0.000568	0.000989	0.000000	0.000000
1.339533	12.193074	25.111496	-0.386807	0.525580	2.611177	0.000000	0.066233	0.000000	-0.000135	0.000980	0.000000	0.000000
1.780493	12.694623	24.375703	-0.754561	1.136684	2.656281	0.000000	0.140418	0.000000	0.000297	0.000982	0.000000	0.000000
2.221453	13.534441	23.121789	-1.156798	1.696072	2.734414	0.000000	0.216193	0.000000	0.000733	0.000995	0.000000	0.000000
2.662413	14.750907	21.406800	-1.611896	2.178291	2.846463	0.000000	0.294420	0.000000	0.001177	0.001020	0.000000	0.000000
3.108373	16.420635	19.283620	-2.145018	2.562579	2.995539	0.000000	0.376480	0.000000	0.001639	0.001056	0.000000	0.000000
3.657433	18.560887	16.898617	-1.729309	1.806733	3.176683	0.000000	0.284328	0.000000	0.002203	0.000994	0.000000	0.000000
4.206493	20.174444	15.268517	-1.191420	1.179579	3.305813	0.000000	0.187150	0.000000	0.002728	0.000914	0.000000	0.000000
4.755553	21.147293	14.277220	-0.569346	0.636447	3.380643	0.000000	0.086665	0.000000	0.003204	0.000818	0.000000	0.000000
5.304613	21.410681	13.854123	0.092967	0.138647	3.399853	0.000000	-0.015343	0.000000	0.003623	0.000707	0.000000	0.000000
5.603185	21.391711	13.757096	0.024772	0.151394	3.397629	0.000000	-0.006732	0.000000	0.003837	0.000717	0.000000	0.000000
5.936519	21.380393	13.664428	0.009180	0.126609	3.395146	0.000000	-0.006732	0.000000	0.004076	0.000717	0.000000	0.000000
6.269852	21.379470	13.588283	-0.006412	0.101824	3.392663	0.000000	-0.006732	0.000000	0.004315	0.000717	0.000000	0.000000
6.604435	21.388997	13.528470	-0.022062	0.076946	3.390171	0.000000	-0.006732	0.000000	0.004555	0.000717	0.000000	0.000000
6.901758	21.406266	13.489279	-0.089635	0.088799	3.387957	0.000000	0.001762	0.000000	0.004768	0.000729	0.000000	0.000000
7.450818	21.139783	13.653504	0.572466	-0.389646	3.360679	0.000000	-0.099735	0.000000	0.005125	0.000569	0.000000	0.000000
7.999878	20.164121	14.355228	1.194134	-0.895850	3.278162	0.000000	-0.199453	0.000000	0.005391	0.000398	0.000000	0.000000
8.548938	18.548204	15.644447	1.731444	-1.465875	3.141874	0.000000	-0.295626	0.000000	0.005561	0.000221	0.000000	0.000000
9.097998	16.406202	17.613006	2.146428	-2.140329	2.954236	0.000000	-0.386552	0.000000	0.005633	0.000040	0.000000	0.000000
9.543958	14.735357	19.366848	1.613280	-1.775464	2.799926	0.000000	-0.305604	0.000000	0.005683	0.000186	0.000000	0.000000
9.984918	13.517761	20.742100	1.158314	-1.331181	2.682128	0.000000	-0.228639	0.000000	0.005798	0.000334	0.000000	0.000000
10.425878	12.676690	21.697186	0.756279	-0.826318	2.597601	0.000000	-0.154283	0.000000	0.005978	0.000486	0.000000	0.000000
10.866838	12.173708	22.188639	0.388801	-0.283851	2.545379	0.000000	-0.081689	0.000000	0.006227	0.000643	0.000000	0.000000
11.309048	11.985681	22.193513	0.066525	0.220224	2.524846	0.000000	-0.015835	0.000000	0.006548	0.000793	0.000000	0.000000
11.606371	11.953531	22.066734	0.041609	0.206177	2.519903	0.000000	-0.015835	0.000000	0.006783	0.000793	0.000000	0.000000
12.086371	11.932894	21.879689	0.001384	0.183501	2.511922	0.000000	-0.015835	0.000000	0.007164	0.000793	0.000000	0.000000
12.566371	11.950874	21.714413	-0.038841	0.160824	2.503940	0.000000	-0.015835	0.000000	0.007544	0.000793	0.000000	0.000000
13.046371	12.007470	21.570907	-0.079066	0.138147	2.495959	0.000000	-0.015835	0.000000	0.007925	0.000793	0.000000	0.000000
13.526371	12.102682	21.449171	-0.119291	0.115470	2.487978	0.000000	-0.015835	0.000000	0.008305	0.000793	0.000000	0.000000
14.007621	12.236908	21.348973	-0.159621	0.092734	2.479976	0.000000	-0.015835	0.000000	0.008687	0.000793	0.000000	0.000000
14.304943	12.339206	21.298055	-0.156893	0.031198	2.475029	0.000000	-0.021380	0.000000	0.008922	0.000772	0.000000	0.000000
14.745903	12.635986	21.037529	-0.518288	0.557292	2.480694	0.000000	0.048805	0.000000	0.009314	0.001007	0.000000	0.000000
15.186863	13.260783	20.322418	-0.903379	1.058027	2.517299	0.000000	0.119535	0.000000	0.009812	0.001253	0.000000	0.000000
15.627823	14.242173	19.185257	-1.329772	1.510613	2.585259	0.000000	0.191614	0.000000	0.010421	0.001514	0.000000	0.000000
16.068783	15.625037	17.677789	-1.816959	1.894451	2.685343	0.000000	0.265859	0.000000	0.011150	0.001792	0.000000	0.000000
16.514743	17.496269	15.846912	-2.392188	2.193055	2.820370	0.000000	0.343610	0.000000	0.012016	0.002093	0.000000	0.000000
17.063803	19.899230	13.803220	-1.956578	1.550410	2.984635	0.000000	0.257378	0.000000	0.013055	0.001686	0.000000	0.000000
17.612863	21.744436	12.400889	-1.382654	1.018231	3.100453	0.000000	0.166607	0.000000	0.013862	0.001250	0.000000	0.000000
18.161923	22.901412	11.540021	-0.710980	0.558603	3.165777	0.000000	0.072899	0.000000	0.014424	0.000792	0.000000	0.000000
18.710983	23.288336	11.159286	0.010964	0.138776	3.179457	0.000000	-0.022089	0.000000	0.014730	0.000320	0.000000	0.000000
19.009556	23.317153	11.069545	-0.054927	0.136665	3.174908	0.000000	-0.014847	0.000000	0.014836	0.000356	0.000000	0.000000
19.342889	23.358550	10.988660	-0.069266	0.105990	3.169840	0.000000	-0.014847	0.000000	0.014954	0.000356	0.000000	0.000000
19.676223	23.409507	10.928225	-0.083605	0.075315	3.164773	0.000000	-0.014847	0.000000	0.015073	0.000356	0.000000	0.000000
20.010806	23.470559	10.887993	-0.214284	0.098471	3.159706	0.000000	0.000808	0.000000	0.015192	0.000431	0.000000	0.000000
20.308129	23.602084	10.837561	-0.280958	0.095507	3.159829	0.000000	0.007960	0.000000	0.015320	0.000468	0.000000	0.000000
20.857189	23.503760	10.952735	0.459081	-0.306466	3.138180	0.000000	-0.086265	0.000000	0.015441	-0.000030	0.000000	0.000000
21.406249	22.605507	11.518752	1.166671	-0.730278	3.065392	0.000000	-0.178960	0.000000	0.015287	-0.000528	0.000000	0.000000
21.955309	20.970837	12.575941	1.791788	-1.206126	2.942753	0.000000	-0.268487	0.000000	0.014862	-0.001017	0.000000	0.000000
22.504369	18.715340	14.199621	2.290239	-1.767917	2.772437	0.000000	-0.353267	0.000000	0.014174	-0.001487	0.000000	0.000000
22.950329	16.939855	15.658187	1.703340	-1.488069	2.632539	0.000000	-0.276811	0.000000	0.013591	-0.001127	0.000000	0.000000
23.391289	15.664300	16.822421	1.199314	-1.141603	2.527017	0.000000	-0.203991	0.000000	0.013170	-0.000782	0.000000	0.000000
23.832249	14.807651	17.656865	0.750121	-0.743178	2.452928	0.000000	-0.133487	0.000000	0.012900	-0.000446	0.000000	0.000000
24.273209	14.330729	18.123545	0.335221	-0.310927	2.409428	0.000000	-0.064500	0.000000	0.012777	-0.000115	0.000000	0.000000
24.715418	14.211879	18.200893	-0.033947	0.096299	2.396028	0.000000	-0.001387	0.000000	0.012799	0.000186	0.000000	0.000000
25.012741	14.238294	18.148532	-0.054892	0.079812	2.395560	0.000000	-0.001387	0.000000	0.012854	0.000186	0.000000	0.000000
25.346075	14.282716	18.101485	-0.078374	0.061328	2.395036	0.000000	-0.001387	0.000000	0.012916	0.000186	0.000000	0.000000
25.679408	14.342792	18.066761	-0.101855	0.042844	2.394512	0.000000	-0.001387	0.000000	0.012978	0.000186	0.000000	0.000000
26.013991	14.418544	18.044665	-0.008452	-0.122096	2.393962	0.000000	-0.020808	0.000000	0.013040	0.000080	0.000000	0.000000
26.311314	14.429629	18.122332	0.001791	-0.177571	2.387746	0.000000	-0.025916	0.000000	0.013063	0.000050	0.000000	0.000000
26.752274	14.606515	18.082589	-0.404284	0.267339	2.391196	0.000000	0.041997	0.000000	0.013160	0.000388	0.000000	0.000000
27.193234	15.148426	17.654284	-0.828844	0.700082	2.424529	0.000000	0.110384	0.000000	0.013406	0.000730	0.000000	0.000000
27.634194	16.080148	16.856907	-1.291300	1.100961	2.488125	0.000000	0.180021	0.000000	0.013805	0.001081	0.000000	0.000000
28.075154	17.444298	15.726743	-1.812798	1.451730	2.582703	0.000000	0.251698	0.000000	0.014362	0.001444	0.000000	0.000000
28.521114	19.327307	14.297978	-2.422413	1.737623	2.710950	0.000000	0.326713	0.000000	0.015091	0.001826	0.000000	0.000000
29.070174	21.722089	12.706839	-1.911453	1.176774	2.867103	0.000000	0.244153	0.000000	0.015957	0.001323	0.000000	0.000000
29.619234	23.477530	11.682310	-1.265355	0.699777	2.976938	0.000000	0.157281	0.000000	0.016540	0.000797	0.000000	0.000000
30.168294	24.469485	11.151401	-0.529797	0.272644	3.038511	0.000000	0.067631	0.000000	0.016829	0.000256	0.000000	0.000000
30.717354	24.627805	11.076285	0.243216	-0.135061	3.050735	0.000000	-0.023214	0.000000	0.016820	-0.000289	0.000000	0.000000
31.015927	24.518879	11.150408	0.175792	-0.137618	3.045895	0.000000	-0.016417	0.000000	0.016746	-0.000249	0.000000	0.000000
31.349260	24.406356	11.252307	0.161777	-0.168078	3.040505	0.000000	-0.016417	0.000000	0.016663	-0.000249	0.000000	0.000000
31.682593	24.303177	11.374513	0.147762	-0.198539	3.035115	0.000000	-0.016417	0.000000	0.016580	-0.000249	0.000000	0.000000
32.017177	24.209006	11.517598	0.133694	-0.229113	3.029706	0.000000	-0.016417	0.000000	0.016497	-0.000249	0.000000	0.000000
32.314499	24.133414	11.661825	0.067190	-0.230224	3.024910	0.000000	-0.009649	0.000000	0.016423	-0.000209	0.000000	0.000000
32.863559	23.646326	12.152845	0.814155	-0.669139	2.995179	0.000000	-0.099372	0.000000	0.016163	-0.000737	0.000000	0.000000
33.412619	22.365528	13.149155	1.503555	-1.155735	2.916857	0.000000	-0.187344	0.000000	0.015616	-0.001252	0.000000	0.000000
33.961679	20.381599	14.721736	2.086652	-1.724683	2.791328	0.000000	-0.272012	0.000000	0.014793	-0.001744	0.000000	0.000000
34.510739	17.834841	16.982621	2.522227	-2.416519	2.620808	0.000000	-0.351881	0.000000	0.013706	-0.002206	0.000000	0.000000
34.956699	15.856248	19.005401	1.928276	-2.099285	2.480967	0.000000	-0.279367	0.000000	0.012799	-0.001862	0.000000	0.000000
35.397659	14.381402	20.681928	1.427700	-1.687557	2.373772	0.000000	-0.210481	0.000000	0.012049	-0.001542	0.000000	0.000000
35.838619	13.317848	21.959874	0.992399	-1.199024	2.296274	0.000000	-0.143976	0.000000	0.011437	-0.001239	0.000000	0.000000
36.279579	12.616942	22.781088	0.602471	-0.655923	2.247596	0.000000	-0.079098	0.000000	0.010954	-0.000951	0.000000	0.000000
36.721789	12.246001	23.108464	0.266917	-0.133642	2.227167	0.000000	-0.020011	0.000000	0.010596	-0.000697	0.000000	0.000000
37.019112	12.095013	23.191827	0.240908	-0.146738	2.221424	0.000000	-0.020011	0.000000	0.010389	-0.000697	0.000000	0.000000
37.352445	11.944127	23.294547	0.211749	-0.161421	2.214987	0.000000	-0.020011	0.000000	0.010156	-0.000697	0.000000	0.000000
37.685779	11.812680	23.407055	0.182590	-0.176103	2.208549	0.000000	-0.020011	0.000000	0.009924	-0.000697	0.000000	0.000000
38.020362	11.700290	23.529828	0.153322	-0.190840	2.202087	0.000000	-0.020011	0.000000	0.009690	-0.000697	0.000000	0.000000
38.317684	11.616820	23.647267	0.153185	-0.256836	2.196342	0.000000	-0.024902	0.000000	0.009483	-0.000720	0.000000	0.000000
38.758644	11.630529	23.611764	-0.184586	0.337032	2.199497	0.000000	0.038064	0.000000	0.009219	-0.000478	0.000000	0.000000
39.199604	11.944777	23.057238	-0.530791	0.915560	2.230389	0.000000	0.101470	0.000000	0.009060	-0.000243	0.000000	0.000000
39.640564	12.573925	22.008930	-0.901253	1.452418	2.289374	0.000000	0.166033	0.000000	0.009005	-0.000010	0.000000	0.000000
40.081524	13.546733	20.514548	-1.312907	1.923176	2.377123	0.000000	0.232489	0.000000	0.009051	0.000223	0.000000	0.000000
40.527484	14.925265	18.619369	-1.788545	2.307933	2.496119	0.000000	0.302023	0.000000	0.009204	0.000460	0.000000	0.000000
41.076544	16.687098	16.489347	-1.400707	1.593850	2.641318	0.000000	0.226622	0.000000	0.009374	0.000159	0.000000	0.000000
41.625604	17.965694	15.076983	-0.913888	0.993323	2.744105	0.000000	0.147202	0.000000	0.009377	-0.000145	0.000000	0.000000
42.174664	18.670687	14.281652	-0.362494	0.463567	2.802657	0.000000	0.065169	0.000000	0.009215	-0.000446	0.000000	0.000000
42.723724	18.752260	14.046689	0.214507	-0.033159	2.815933	0.000000	-0.018028	0.000000	0.008889	-0.000740	0.000000	0.000000
43.022297	18.656040	14.052532	0.152871	-0.020360	2.812790	0.000000	-0.011232	0.000000	0.008674	-0.000717	0.000000	0.000000
43.502297	18.521922	14.088480	0.126541	-0.054531	2.807743	0.000000	-0.011232	0.000000	0.008330	-0.000717	0.000000	0.000000
43.982297	18.413081	14.157233	0.100211	-0.088703	2.802696	0.000000	-0.011232	0.000000	0.007986	-0.000717	0.000000	0.000000
44.462297	18.329517	14.258790	0.073881	-0.122875	2.797649	0.000000	-0.011232	0.000000	0.007641	-0.000717	0.000000	0.000000
44.942297	18.271230	14.393153	0.047550	-0.157047	2.792602	0.000000	-0.011232	0.000000	0.007297	-0.000717	0.000000	0.000000
45.423547	18.238393	14.560618	-0.069211	-0.119165	2.787558	0.000000	0.002579	0.000000	0.006952	-0.000683	0.000000	0.000000
45.720870	18.284444	14.637616	-0.130618	-0.103972	2.788530	0.000000	0.009446	0.000000	0.006749	-0.000666	0.000000	0.000000
46.269930	18.119679	15.034797	0.428496	-0.623614	2.771519	0.000000	-0.072797	0.000000	0.006325	-0.000878	0.000000	0.000000
46.818990	17.353910	16.023555	0.957319	-1.187679	2.709741	0.000000	-0.153762	0.000000	0.005788	-0.001074	0.000000	0.000000
47.368050	16.041270	17.674313	1.418485	-1.836349	2.604284	0.000000	-0.232017	0.000000	0.005149	-0.001251	0.000000	0.000000
47.917110	14.274529	20.104648	1.779414	-2.615830	2.457011	0.000000	-0.306176	0.000000	0.004418	-0.001406	0.000000	0.000000
48.363070	12.898654	22.265058	1.316004	-2.207956	2.336374	0.000000	-0.237704	0.000000	0.003815	-0.001299	0.000000	0.000000
48.804030	11.917657	23.995432	0.916561	-1.701016	2.246583	0.000000	-0.172337	0.000000	0.003263	-0.001208	0.000000	0.000000
49.244990	11.269250	25.242723	0.559008	-1.116678	2.185126	0.000000	-0.108919	0.000000	0.002748	-0.001131	0.000000	0.000000
49.685950	10.923794	25.950188	0.227006	-0.481532	2.151308	0.000000	-0.046730	0.000000	0.002264	-0.001066	0.000000	0.000000
50.128160	10.865665	26.085362	-0.068545	0.112975	2.144762	0.000000	0.009769	0.000000	0.001805	-0.001018	0.000000	0.000000
50.425482	10.914599	26.021614	-0.096037	0.101431	2.147969	0.000000	0.009769	0.000000	0.001502	-0.001018	0.000000	0.000000
50.758816	10.988897	25.958307	-0.126859	0.088490	2.151564	0.000000	0.009769	0.000000	0.001163	-0.001018	0.000000	0.000000
51.092149	11.083744	25.903628	-0.157680	0.075548	2.155160	0.000000	0.009769	0.000000	0.000824	-0.001018	0.000000	0.000000
51.426732	11.199382	25.857944	-0.097761	-0.147214	2.158747	0.000000	-0.007744	0.000000	0.000483	-0.001022	0.000000	0.000000
51.724055	11.265484	25.948977	-0.096983	-0.222867	2.156748	0.000000	-0.013025	0.000000	0.000179	-0.001022	0.000000	0.000000
52.165015	11.497680	25.856706	-0.431915	0.431322	2.165103	0.000000	0.048973	0.000000	-0.000271	-0.001023	0.000000	0.000000
52.605975	12.032798	25.193982	-0.786571	1.065881	2.200898	0.000000	0.111539	0.000000	-0.000725	-0.001036	0.000000	0.000000
53.046935	12.895276	23.990969	-1.177155	1.651942	2.264545	0.000000	0.175387	0.000000	-0.001187	-0.001061	0.000000	0.000000
53.487895	14.124505	22.302411	-1.621508	2.162839	2.356774	0.000000	0.241244	0.000000	-0.001663	-0.001098	0.000000	0.000000
53.933855	15.797646	20.179896	-2.144188	2.576630	2.480164	0.000000	0.310254	0.000000	-0.002163	-0.001147	0.000000	0.000000
54.482915	17.951290	17.791165	-1.755681	1.799783	2.630742	0.000000	0.235313	0.000000	-0.002772	-0.001067	0.000000	0.000000
55.031975	19.607285	16.180514	-1.243195	1.151127	2.738912	0.000000	0.156181	0.000000	-0.003331	-0.000968	0.000000	0.000000
55.581035	20.648703	15.233213	-0.642928	0.584460	2.802747	0.000000	0.074263	0.000000	-0.003832	-0.000852	0.000000	0.000000
56.130095	21.002025	14.881778	0.002728	0.059421	2.821109	0.000000	-0.008986	0.000000	-0.004265	-0.000721	0.000000	0.000000
56.428668	21.038569	14.828223	-0.068345	0.079567	2.820923	0.000000	-0.001354	0.000000	-0.004483	-0.000733	0.000000	0.000000
56.762001	21.089438	14.782719	-0.084263	0.056945	2.820716	0.000000	-0.001354	0.000000	-0.004727	-0.000733	0.000000	0.000000
57.095334	21.150920	14.752296	-0.100181	0.034323	2.820509	0.000000	-0.001354	0.000000	-0.004972	-0.000733	0.000000	0.000000
57.429918	21.223304	14.736925	-0.116159	0.011616	2.820301	0.000000	-0.001354	0.000000	-0.005217	-0.000733	0.000000	0.000000
57.727240	21.296617	14.736004	-0.188496	0.031514	2.820117	0.000000	0.006345	0.000000	-0.005435	-0.000747	0.000000	0.000000
58.276300	21.139518	14.983948	0.472551	-0.485794	2.801079	0.000000	-0.076857	0.000000	-0.005795	-0.000565	0.000000	0.000000
58.825360	20.270753	15.815458	1.100216	-1.037696	2.736568	0.000000	-0.158706	0.000000	-0.006053	-0.000373	0.000000	0.000000
59.374420	18.751679	17.289744	1.650179	-1.663496	2.627725	0.000000	-0.237746	0.000000	-0.006204	-0.000175	0.000000	0.000000
59.923480	16.689564	19.511796	2.083609	-2.407762	2.476476	0.000000	-0.312572	0.000000	-0.006245	0.000027	0.000000	0.000000
60.369440	15.074125	21.486596	1.551729	-2.001939	2.352535	0.000000	-0.243687	0.000000	-0.006269	-0.000135	0.000000	0.000000
60.810400	13.911557	23.039351	1.094868	-1.506286	2.259760	0.000000	-0.177957	0.000000	-0.006364	-0.000298	0.000000	0.000000
61.251360	13.128354	24.123020	0.688017	-0.942111	2.195564	0.000000	-0.114250	0.000000	-0.006532	-0.000464	0.000000	0.000000
61.692320	12.688744	24.688308	0.312595	-0.335081	2.159217	0.000000	-0.051839	0.000000	-0.006775	-0.000636	0.000000	0.000000
62.134530	12.572702	24.708910	-0.015781	0.222845	2.150317	0.000000	0.004368	0.000000	-0.007095	-0.000797	0.000000	0.000000
62.431853	12.589119	24.580152	-0.039435	0.210215	2.151853	0.000000	0.004368	0.000000	-0.007332	-0.000797	0.000000	0.000000
62.765186	12.624249	24.444729	-0.065954	0.196054	2.153574	0.000000	0.004368	0.000000	-0.007597	-0.000797	0.000000	0.000000
63.098520	12.677058	24.318746	-0.092473	0.181894	2.155295	0.000000	0.004368	0.000000	-0.007863	-0.000797	0.000000	0.000000
63.433103	12.747844	24.201784	-0.119091	0.167680	2.157023	0.000000	0.004368	0.000000	-0.008129	-0.000797	0.000000	0.000000
63.730426	12.825667	24.105879	-0.108862	0.091090	2.158557	0.000000	-0.001335	0.000000	-0.008366	-0.000775	0.000000	0.000000
64.171386	13.084081	23.760132	-0.479784	0.690100	2.172023	0.000000	0.060761	0.000000	-0.008756	-0.000996	0.000000	0.000000
64.612346	13.677919	22.898053	-0.872610	1.257715	2.213092	0.000000	0.123560	0.000000	-0.009246	-0.001228	0.000000	0.000000
65.053306	14.634284	21.558869	-1.305276	1.768116	2.282237	0.000000	0.187779	0.000000	-0.009841	-0.001474	0.000000	0.000000
65.494266	15.996831	19.803507	-1.797538	2.198087	2.380251	0.000000	0.254152	0.000000	-0.010549	-0.001737	0.000000	0.000000
65.940226	17.851134	17.686894	-2.376317	2.528599	2.509858	0.000000	0.323804	0.000000	-0.011386	-0.002021	0.000000	0.000000
66.489286	20.225327	15.319380	-1.923906	1.809515	2.667956	0.000000	0.247803	0.000000	-0.012391	-0.001636	0.000000	0.000000
67.038346	22.024901	13.666444	-1.335705	1.219282	2.782840	0.000000	0.167381	0.000000	-0.013177	-0.001222	0.000000	0.000000
67.587406	23.122880	12.610365	-0.653236	0.715869	2.852463	0.000000	0.083972	0.000000	-0.013729	-0.000786	0.000000	0.000000
68.136466	23.441804	12.075932	0.075330	0.263428	2.875583	0.000000	-0.000939	0.000000	-0.014037	-0.000336	0.000000	0.000000
68.435038	23.441207	11.905728	-0.005596	0.271681	2.877904	0.000000	0.007425	0.000000	-0.014149	-0.000375	0.000000	0.000000
68.768372	23.449678	11.734629	-0.019817	0.241617	2.880504	0.000000	0.007425	0.000000	-0.014274	-0.000375	0.000000	0.000000
69.101705	23.467629	11.583572	-0.034037	0.211553	2.883104	0.000000	0.007425	0.000000	-0.014399	-0.000375	0.000000	0.000000
69.436288	23.495182	11.452105	-0.048311	0.181376	2.885714	0.000000	0.007425	0.000000	-0.014525	-0.000375	0.000000	0.000000
69.733611	23.527829	11.352152	-0.129711	0.187652	2.888043	0.000000	0.015860	0.000000	-0.014637	-0.000416	0.000000	0.000000
70.282671	23.266226	11.373397	0.603329	-0.226582	2.873368	0.000000	-0.069589	0.000000	-0.014734	0.000060	0.000000	0.000000
