#ParticleID	Turn	x[m]	xp	y[m]	yp	z[m]	dE[GeV]# s	beta_x	beta_y	alpha_x	alpha_y	D_x	D_y	D_px	D_py	orbit_x	orbit_px	orbit_y	orbit_py
0.300000	11.964221	25.325932	-0.019565	-0.021782	2.598677	0.000000	0.000277	0.000000	-0.000934	0.000809	0.000000	0.000000
0.601250	11.983597	25.342640	-0.044754	-0.033682	2.598517	0.000000	0.000277	0.000000	-0.000691	0.000809	0.000000	0.000000
0.898573	12.017601	25.366162	-0.040018	-0.107604	2.598358	0.000000	-0.006122	0.000000	-0.000450	0.000810	0.000000	0.000000
1.339533	12.206813	25.179530	-0.390424	0.529234	2.611497	0.000000	0.067321	0.000000	-0.000095	0.000803	0.000000	0.000000
1.780493	12.711730	24.439769	-0.758673	1.141996	2.657158	0.000000	0.141522	0.000000	0.000260	0.000805	0.000000	0.000000
2.221453	13.555429	23.180527	-1.161591	1.702800	2.735859	0.000000	0.217327	0.000000	0.000617	0.000817	0.000000	0.000000
2.662413	14.776465	21.459094	-1.617587	2.186129	2.848493	0.000000	0.295598	0.000000	0.000981	0.000837	0.000000	0.000000
3.108373	16.451725	19.328567	-2.151871	2.571163	2.998186	0.000000	0.377718	0.000000	0.001361	0.000868	0.000000	0.000000
3.657433	18.599150	16.935251	-1.735553	1.813400	3.180080	0.000000	0.285470	0.000000	0.001824	0.000816	0.000000	0.000000
4.206493	20.218966	15.298670	-1.196620	1.184803	3.309894	0.000000	0.188172	0.000000	0.002255	0.000750	0.000000	0.000000
4.755553	21.196724	14.302261	-0.573139	0.640600	3.385329	0.000000	0.087547	0.000000	0.002645	0.000671	0.000000	0.000000
5.304613	21.463331	13.875057	0.090844	0.142026	3.405052	0.000000	-0.014619	0.000000	0.002989	0.000579	0.000000	0.000000
5.603185	21.445880	13.775845	0.022250	0.155053	3.403101	0.000000	-0.005947	0.000000	0.003164	0.000587	0.000000	0.000000
5.936519	21.436230	13.680735	0.006700	0.130274	3.400923	0.000000	-0.005947	0.000000	0.003360	0.000587	0.000000	0.000000
6.269852	21.436947	13.602145	-0.008851	0.105496	3.398745	0.000000	-0.005947	0.000000	0.003556	0.000587	0.000000	0.000000
6.604435	21.448093	13.539873	-0.024460	0.080624	3.396559	0.000000	-0.005947	0.000000	0.003752	0.000587	0.000000	0.000000
6.901758	21.466771	13.498495	-0.092553	0.092735	3.394617	0.000000	0.002627	0.000000	0.003927	0.000597	0.000000	0.000000
7.450818	21.202329	13.658506	0.571627	-0.385865	3.367816	0.000000	-0.099090	0.000000	0.004219	0.000465	0.000000	0.000000
7.999878	20.226397	14.356031	1.195433	-0.891954	3.285636	0.000000	-0.199042	0.000000	0.004436	0.000325	0.000000	0.000000
8.548938	18.607920	15.640764	1.734790	-1.461585	3.149540	0.000000	-0.295458	0.000000	0.004575	0.000179	0.000000	0.000000
9.097998	16.461242	17.604227	2.151591	-2.135335	2.961943	0.000000	-0.386630	0.000000	0.004632	0.000030	0.000000	0.000000
9.543958	14.786445	19.353526	1.617062	-1.770378	2.807653	0.000000	-0.305488	0.000000	0.004672	0.000151	0.000000	0.000000
9.984918	13.566072	20.724309	1.160874	-1.326216	2.689972	0.000000	-0.228325	0.000000	0.004765	0.000272	0.000000	0.000000
10.425878	12.723239	21.675140	0.757731	-0.821704	2.605662	0.000000	-0.153766	0.000000	0.004913	0.000397	0.000000	0.000000
10.866838	12.219431	22.162748	0.389211	-0.279798	2.553759	0.000000	-0.080962	0.000000	0.005116	0.000526	0.000000	0.000000
11.309048	12.031473	22.164366	0.066353	0.223024	2.533652	0.000000	-0.014979	0.000000	0.005378	0.000649	0.000000	0.000000
11.606371	11.999396	22.035932	0.041533	0.208942	2.529006	0.000000	-0.014979	0.000000	0.005571	0.000649	0.000000	0.000000
12.086371	11.978759	21.846260	0.001462	0.186209	2.521504	0.000000	-0.014979	0.000000	0.005882	0.000649	0.000000	0.000000
12.566371	11.996590	21.678412	-0.038610	0.163475	2.514003	0.000000	-0.014979	0.000000	0.006194	0.000649	0.000000	0.000000
13.046371	12.052889	21.532388	-0.078681	0.140741	2.506501	0.000000	-0.014979	0.000000	0.006505	0.000649	0.000000	0.000000
13.526371	12.147657	21.408188	-0.118752	0.118008	2.499000	0.000000	-0.014979	0.000000	0.006816	0.000649	0.000000	0.000000
14.007621	12.281289	21.305574	-0.158927	0.095215	2.491479	0.000000	-0.014979	0.000000	0.007129	0.000649	0.000000	0.000000
14.304943	12.383155	21.253175	-0.155525	0.032880	2.486831	0.000000	-0.020647	0.000000	0.007321	0.000631	0.000000	0.000000
14.745903	12.679118	20.991719	-0.517868	0.557726	2.492954	0.000000	0.049845	0.000000	0.007642	0.000824	0.000000	0.000000
15.186863	13.303906	20.276804	-0.903886	1.057192	2.530175	0.000000	0.120896	0.000000	0.008050	0.001026	0.000000	0.000000
15.627823	14.286087	19.140957	-1.331223	1.508549	2.598913	0.000000	0.193313	0.000000	0.008549	0.001240	0.000000	0.000000
16.068783	15.670572	17.635860	-1.819414	1.891255	2.699949	0.000000	0.267920	0.000000	0.009146	0.001469	0.000000	0.000000
16.514743	17.544295	15.808395	-2.395714	2.188819	2.836123	0.000000	0.346055	0.000000	0.009855	0.001715	0.000000	0.000000
17.063803	19.950047	13.768696	-1.958435	1.547455	3.001763	0.000000	0.259297	0.000000	0.010707	0.001382	0.000000	0.000000
17.612863	21.796167	12.369060	-1.382729	1.016340	3.118616	0.000000	0.167961	0.000000	0.011368	0.001024	0.000000	0.000000
18.161923	22.952140	11.509783	-0.709284	0.557636	3.184618	0.000000	0.073661	0.000000	0.011828	0.000648	0.000000	0.000000
18.710983	23.336232	11.129652	0.014302	0.138663	3.198602	0.000000	-0.021936	0.000000	0.012078	0.000261	0.000000	0.000000
19.009556	23.364026	11.039599	-0.053120	0.137109	3.194194	0.000000	-0.014451	0.000000	0.012165	0.000291	0.000000	0.000000
19.342889	23.404208	10.958447	-0.067427	0.106347	3.189280	0.000000	-0.014451	0.000000	0.012262	0.000291	0.000000	0.000000
19.676223	23.453929	10.897803	-0.081734	0.075585	3.184366	0.000000	-0.014451	0.000000	0.012359	0.000291	0.000000	0.000000
20.010806	23.513719	10.857421	-0.212595	0.098502	3.179453	0.000000	0.001302	0.000000	0.012457	0.000353	0.000000	0.000000
20.308129	23.644177	10.807018	-0.280866	0.096079	3.179743	0.000000	0.008706	0.000000	0.012561	0.000384	0.000000	0.000000
20.857189	23.545008	10.921083	0.460502	-0.305014	3.158350	0.000000	-0.086161	0.000000	0.012660	-0.000025	0.000000	0.000000
21.406249	22.644558	11.484954	1.169325	-0.727839	3.085418	0.000000	-0.179499	0.000000	0.012534	-0.000433	0.000000	0.000000
21.955309	21.006485	12.538803	1.795498	-1.202524	2.962240	0.000000	-0.269660	0.000000	0.012185	-0.000834	0.000000	0.000000
22.504369	18.746596	14.157711	2.294763	-1.762888	2.790999	0.000000	-0.355049	0.000000	0.011621	-0.001220	0.000000	0.000000
22.950329	16.967654	15.612171	1.706989	-1.484139	2.650319	0.000000	-0.278133	0.000000	0.011143	-0.000924	0.000000	0.000000
23.391289	15.689309	16.773426	1.202195	-1.138895	2.544243	0.000000	-0.204866	0.000000	0.010798	-0.000641	0.000000	0.000000
23.832249	14.830461	17.606042	0.752358	-0.741819	2.469820	0.000000	-0.133927	0.000000	0.010576	-0.000366	0.000000	0.000000
24.273209	14.351838	18.072128	0.336913	-0.310981	2.426201	0.000000	-0.064509	0.000000	0.010475	-0.000094	0.000000	0.000000
24.715418	14.231683	18.150181	-0.031876	0.093923	2.412895	0.000000	-0.001139	0.000000	0.010493	0.000151	0.000000	0.000000
25.012741	14.256855	18.099244	-0.052789	0.077397	2.412511	0.000000	-0.001139	0.000000	0.010538	0.000151	0.000000	0.000000
25.346075	14.299863	18.053821	-0.076234	0.058870	2.412080	0.000000	-0.001139	0.000000	0.010589	0.000151	0.000000	0.000000
25.679408	14.358501	18.020750	-0.099680	0.040343	2.411650	0.000000	-0.001139	0.000000	0.010639	0.000151	0.000000	0.000000
26.013991	14.432785	18.000341	-0.006125	-0.124281	2.411194	0.000000	-0.020701	0.000000	0.010690	0.000065	0.000000	0.000000
26.311314	14.442504	18.079293	0.005004	-0.180765	2.405016	0.000000	-0.025985	0.000000	0.010709	0.000040	0.000000	0.000000
26.752274	14.616644	18.042882	-0.401279	0.263009	2.408550	0.000000	0.042370	0.000000	0.010787	0.000317	0.000000	0.000000
27.193234	15.155906	17.618840	-0.825906	0.694815	2.442189	0.000000	0.111205	0.000000	0.010989	0.000598	0.000000	0.000000
27.634194	16.084951	16.826462	-1.288291	1.094998	2.506314	0.000000	0.181299	0.000000	0.011316	0.000885	0.000000	0.000000
28.075154	17.446263	15.701807	-1.809572	1.445345	2.601654	0.000000	0.253451	0.000000	0.011771	0.001183	0.000000	0.000000
28.521114	19.325998	14.278943	-2.418744	1.731054	2.730909	0.000000	0.328958	0.000000	0.012368	0.001496	0.000000	0.000000
29.070174	21.716388	12.694447	-1.907522	1.171291	2.888260	0.000000	0.245739	0.000000	0.013078	0.001084	0.000000	0.000000
29.619234	23.467363	11.675571	-1.261463	0.694983	2.998874	0.000000	0.158178	0.000000	0.013555	0.000652	0.000000	0.000000
30.168294	24.455121	11.149730	-0.526234	0.268195	3.060794	0.000000	0.067820	0.000000	0.013792	0.000209	0.000000	0.000000
30.717354	24.609821	11.079462	0.246193	-0.139484	3.072924	0.000000	-0.023738	0.000000	0.013784	-0.000238	0.000000	0.000000
31.015927	24.500222	11.155727	0.177024	-0.141261	3.067998	0.000000	-0.016671	0.000000	0.013723	-0.000204	0.000000	0.000000
31.349260	24.386883	11.260059	0.162993	-0.171737	3.062509	0.000000	-0.016671	0.000000	0.013655	-0.000204	0.000000	0.000000
31.682593	24.282899	11.384710	0.148961	-0.202214	3.057020	0.000000	-0.016671	0.000000	0.013587	-0.000204	0.000000	0.000000
32.017177	24.187931	11.530259	0.134877	-0.232804	3.051511	0.000000	-0.016671	0.000000	0.013519	-0.000204	0.000000	0.000000
32.314499	24.111577	11.676716	0.066719	-0.233071	3.046623	0.000000	-0.009640	0.000000	0.013458	-0.000171	0.000000	0.000000
32.863559	23.625486	12.171133	0.812921	-0.672553	3.016662	0.000000	-0.100056	0.000000	0.013246	-0.000603	0.000000	0.000000
33.412619	22.346538	13.171571	1.501655	-1.159956	2.937686	0.000000	-0.188706	0.000000	0.012798	-0.001025	0.000000	0.000000
33.961679	20.365165	14.749300	2.084240	-1.730005	2.811091	0.000000	-0.274024	0.000000	0.012123	-0.001429	0.000000	0.000000
34.510739	17.821455	17.016717	2.519497	-2.423314	2.639114	0.000000	-0.354503	0.000000	0.011233	-0.001808	0.000000	0.000000
34.956699	15.845238	19.045269	1.926115	-2.105627	2.498056	0.000000	-0.281539	0.000000	0.010490	-0.001526	0.000000	0.000000
35.397659	14.372221	20.727001	1.425944	-1.693096	2.389870	0.000000	-0.212229	0.000000	0.009875	-0.001263	0.000000	0.000000
35.838619	13.310148	22.009347	0.990959	-1.203513	2.311586	0.000000	-0.145322	0.000000	0.009373	-0.001015	0.000000	0.000000
36.279579	12.610453	22.833957	0.601275	-0.659159	2.262316	0.000000	-0.080061	0.000000	0.008978	-0.000779	0.000000	0.000000
36.721789	12.240502	23.163603	0.266466	-0.136718	2.241480	0.000000	-0.020738	0.000000	0.008684	-0.000571	0.000000	0.000000
37.019112	12.089784	23.248790	0.240451	-0.149794	2.235484	0.000000	-0.020738	0.000000	0.008515	-0.000571	0.000000	0.000000
37.352445	11.939205	23.353539	0.211285	-0.164453	2.228762	0.000000	-0.020738	0.000000	0.008324	-0.000571	0.000000	0.000000
37.685779	11.808070	23.468061	0.182120	-0.179113	2.222039	0.000000	-0.020738	0.000000	0.008134	-0.000571	0.000000	0.000000
38.020362	11.695996	23.592840	0.152845	-0.193827	2.215292	0.000000	-0.020738	0.000000	0.007943	-0.000571	0.000000	0.000000
38.317684	11.612822	23.712028	0.153174	-0.260888	2.209294	0.000000	-0.025750	0.000000	0.007773	-0.000590	0.000000	0.000000
38.758644	11.626509	23.679335	-0.184492	0.334738	2.212101	0.000000	0.037543	0.000000	0.007556	-0.000392	0.000000	0.000000
39.199604	11.940628	23.126029	-0.530586	0.915129	2.242806	0.000000	0.101268	0.000000	0.007426	-0.000199	0.000000	0.000000
39.640564	12.569533	22.077292	-0.900928	1.453872	2.301761	0.000000	0.166149	0.000000	0.007381	-0.000008	0.000000	0.000000
40.081524	13.541969	20.580851	-1.312444	1.926452	2.389637	0.000000	0.232923	0.000000	0.007419	0.000183	0.000000	0.000000
40.527484	14.919942	18.682064	-1.787885	2.312853	2.508921	0.000000	0.302778	0.000000	0.007544	0.000377	0.000000	0.000000
41.076544	16.681091	16.547758	-1.400232	1.596872	2.654446	0.000000	0.226961	0.000000	0.007683	0.000130	0.000000	0.000000
41.625604	17.959256	15.133049	-0.913640	0.994658	2.757301	0.000000	0.147119	0.000000	0.007686	-0.000119	0.000000	0.000000
42.174664	18.664111	14.337150	-0.362495	0.463307	2.815662	0.000000	0.064665	0.000000	0.007553	-0.000366	0.000000	0.000000
42.723724	18.745851	14.103359	0.214257	-0.035036	2.828491	0.000000	-0.018943	0.000000	0.007286	-0.000606	0.000000	0.000000
43.022297	18.650196	14.109914	0.151950	-0.021526	2.825078	0.000000	-0.012013	0.000000	0.007110	-0.000588	0.000000	0.000000
43.502297	18.516963	14.146915	0.125618	-0.055560	2.819594	0.000000	-0.012013	0.000000	0.006828	-0.000588	0.000000	0.000000
43.982297	18.409009	14.216590	0.099287	-0.089594	2.814110	0.000000	-0.012013	0.000000	0.006546	-0.000588	0.000000	0.000000
44.462297	18.326332	14.318937	0.072956	-0.123629	2.808626	0.000000	-0.012013	0.000000	0.006264	-0.000588	0.000000	0.000000
44.942297	18.268933	14.453957	0.046625	-0.157663	2.803142	0.000000	-0.012013	0.000000	0.005982	-0.000588	0.000000	0.000000
45.423547	18.236988	14.621949	-0.070131	-0.119340	2.797661	0.000000	0.001849	0.000000	0.005699	-0.000560	0.000000	0.000000
45.720870	18.283579	14.699032	-0.132041	-0.103480	2.798378	0.000000	0.008816	0.000000	0.005533	-0.000545	0.000000	0.000000
46.269930	18.120433	15.096660	0.427065	-0.624935	2.780863	0.000000	-0.073734	0.000000	0.005185	-0.000719	0.000000	0.000000
46.818990	17.356254	16.087885	0.955985	-1.190907	2.718398	0.000000	-0.154988	0.000000	0.004745	-0.000880	0.000000	0.000000
47.368050	16.045053	17.743309	1.417349	-1.841711	2.612085	0.000000	-0.233507	0.000000	0.004222	-0.001025	0.000000	0.000000
47.917110	14.279491	20.180841	1.778564	-2.623707	2.463802	0.000000	-0.307900	0.000000	0.003623	-0.001152	0.000000	0.000000
48.363070	12.904426	22.347447	1.315165	-2.213964	2.342330	0.000000	-0.239266	0.000000	0.003129	-0.001065	0.000000	0.000000
48.804030	11.924230	24.082169	0.915676	-1.704869	2.251787	0.000000	-0.173755	0.000000	0.002676	-0.000990	0.000000	0.000000
49.244990	11.276676	25.331831	0.558035	-1.118202	2.189643	0.000000	-0.110213	0.000000	0.002254	-0.000926	0.000000	0.000000
49.685950	10.932163	26.039579	0.225898	-0.480658	2.155194	0.000000	-0.047917	0.000000	0.001858	-0.000873	0.000000	0.000000
50.128160	10.875118	26.172927	-0.069734	0.115733	2.148064	0.000000	0.008650	0.000000	0.001481	-0.000834	0.000000	0.000000
50.425482	10.924754	26.107530	-0.097207	0.104221	2.150884	0.000000	0.008650	0.000000	0.001233	-0.000834	0.000000	0.000000
50.758816	10.999825	26.042352	-0.128007	0.091314	2.154046	0.000000	0.008650	0.000000	0.000955	-0.000834	0.000000	0.000000
51.092149	11.095429	25.985777	-0.158807	0.078408	2.157207	0.000000	0.008650	0.000000	0.000677	-0.000834	0.000000	0.000000
51.426732	11.211814	25.938170	-0.098765	-0.144970	2.160358	0.000000	-0.008876	0.000000	0.000398	-0.000837	0.000000	0.000000
51.724055	11.278506	26.027855	-0.097923	-0.220722	2.157968	0.000000	-0.014160	0.000000	0.000149	-0.000838	0.000000	0.000000
52.165015	11.511695	25.932779	-0.433176	0.435514	2.165749	0.000000	0.047861	0.000000	-0.000220	-0.000838	0.000000	0.000000
52.605975	12.048116	25.265520	-0.788213	1.071932	2.200977	0.000000	0.110437	0.000000	-0.000591	-0.000849	0.000000	0.000000
53.046935	12.912268	24.056447	-1.179254	1.659575	2.264057	0.000000	0.174279	0.000000	-0.000970	-0.000869	0.000000	0.000000
53.487895	14.143622	22.360578	-1.624162	2.171708	2.355711	0.000000	0.240116	0.000000	-0.001359	-0.000899	0.000000	0.000000
53.933855	15.819470	20.229738	-2.147535	2.586341	2.478504	0.000000	0.309093	0.000000	-0.001769	-0.000940	0.000000	0.000000
54.482915	17.976548	17.831561	-1.758431	1.807351	2.628355	0.000000	0.234216	0.000000	-0.002268	-0.000874	0.000000	0.000000
55.031975	19.635208	16.213512	-1.245149	1.157091	2.735849	0.000000	0.155171	0.000000	-0.002726	-0.000793	0.000000	0.000000
55.581035	20.678328	15.260335	-0.643941	0.589245	2.799072	0.000000	0.073360	0.000000	-0.003136	-0.000698	0.000000	0.000000
56.130095	21.032258	14.904130	0.002730	0.063369	2.816897	0.000000	-0.009763	0.000000	-0.003491	-0.000591	0.000000	0.000000
56.428668	21.068638	14.848338	-0.068054	0.083317	2.816422	0.000000	-0.002190	0.000000	-0.003670	-0.000600	0.000000	0.000000
56.762001	21.119305	14.800328	-0.083948	0.060712	2.815892	0.000000	-0.002190	0.000000	-0.003870	-0.000600	0.000000	0.000000
57.095334	21.180569	14.767389	-0.099843	0.038107	2.815362	0.000000	-0.002190	0.000000	-0.004070	-0.000600	0.000000	0.000000
57.429918	21.252719	14.749481	-0.115797	0.015417	2.814831	0.000000	-0.002190	0.000000	-0.004271	-0.000600	0.000000	0.000000
57.727240	21.325804	14.746300	-0.187746	0.035075	2.814359	0.000000	0.005435	0.000000	-0.004449	-0.000612	0.000000	0.000000
58.276300	21.167378	14.990468	0.474271	-0.482432	2.794810	0.000000	-0.077575	0.000000	-0.004745	-0.000463	0.000000	0.000000
58.825360	20.296259	15.818299	1.102784	-1.034295	2.729916	0.000000	-0.159217	0.000000	-0.004957	-0.000306	0.000000	0.000000
59.374420	18.773971	17.288744	1.653413	-1.659817	2.620823	0.000000	-0.238040	0.000000	-0.005080	-0.000143	0.000000	0.000000
59.923480	16.708015	19.506523	2.087275	-2.403546	2.469464	0.000000	-0.312644	0.000000	-0.005114	0.000022	0.000000	0.000000
60.369440	15.089618	21.477459	1.554709	-1.997502	2.345448	0.000000	-0.243936	0.000000	-0.005133	-0.000111	0.000000	0.000000
60.810400	13.924647	23.026315	1.097331	-1.501857	2.252505	0.000000	-0.178388	0.000000	-0.005212	-0.000245	0.000000	0.000000
61.251360	13.139456	24.106174	0.690078	-0.937890	2.188047	0.000000	-0.114870	0.000000	-0.005349	-0.000381	0.000000	0.000000
61.692320	12.698179	24.667912	0.314348	-0.331258	2.151341	0.000000	-0.052655	0.000000	-0.005548	-0.000521	0.000000	0.000000
62.134530	12.580707	24.685386	-0.014597	0.226814	2.141978	0.000000	0.003428	0.000000	-0.005811	-0.000653	0.000000	0.000000
62.431853	12.596415	24.554277	-0.038235	0.214150	2.143191	0.000000	0.003428	0.000000	-0.006005	-0.000653	0.000000	0.000000
62.765186	12.630739	24.416243	-0.064736	0.199952	2.144551	0.000000	0.003428	0.000000	-0.006222	-0.000653	0.000000	0.000000
63.098520	12.682730	24.287674	-0.091238	0.185755	2.145912	0.000000	0.003428	0.000000	-0.006440	-0.000653	0.000000	0.000000
63.433103	12.752684	24.168141	-0.117838	0.171503	2.147277	0.000000	0.003428	0.000000	-0.006658	-0.000653	0.000000	0.000000
63.730426	12.829766	24.069956	-0.108014	0.095835	2.148489	0.000000	-0.002176	0.000000	-0.006853	-0.000636	0.000000	0.000000
64.171386	13.087504	23.720471	-0.479022	0.693784	2.161459	0.000000	0.059657	0.000000	-0.007172	-0.000816	0.000000	0.000000
64.612346	13.680742	22.855656	-0.871901	1.260169	2.201896	0.000000	0.122178	0.000000	-0.007574	-0.001006	0.000000	0.000000
65.053306	14.636562	21.514861	-1.304594	1.769226	2.270265	0.000000	0.186101	0.000000	-0.008061	-0.001208	0.000000	0.000000
65.494266	15.998600	19.759088	-1.796858	2.197800	2.367349	0.000000	0.252156	0.000000	-0.008641	-0.001423	0.000000	0.000000
65.940226	17.852373	17.643338	-2.375670	2.526951	2.495844	0.000000	0.321470	0.000000	-0.009327	-0.001656	0.000000	0.000000
66.489286	20.225930	15.276989	-1.923096	1.808899	2.652618	0.000000	0.245939	0.000000	-0.010151	-0.001341	0.000000	0.000000
67.038346	22.024684	13.624130	-1.334770	1.219660	2.766484	0.000000	0.166024	0.000000	-0.010794	-0.001001	0.000000	0.000000
67.587406	23.121695	12.567043	-0.652228	0.717272	2.835415	0.000000	0.083149	0.000000	-0.011247	-0.000644	0.000000	0.000000
68.136466	23.439549	12.030443	0.076346	0.265961	2.858182	0.000000	-0.001210	0.000000	-0.011500	-0.000276	0.000000	0.000000
68.435038	23.437661	11.859200	-0.003359	0.273320	2.860345	0.000000	0.006955	0.000000	-0.011591	-0.000307	0.000000	0.000000
68.768372	23.444641	11.687056	-0.017582	0.243112	2.862765	0.000000	0.006955	0.000000	-0.011694	-0.000307	0.000000	0.000000
69.101705	23.461103	11.535050	-0.031804	0.212905	2.865186	0.000000	0.006955	0.000000	-0.011796	-0.000307	0.000000	0.000000
69.436288	23.487162	11.402726	-0.046080	0.182584	2.867616	0.000000	0.006955	0.000000	-0.011899	-0.000307	0.000000	0.000000
69.733611	23.518434	11.302116	-0.126190	0.187990	2.869782	0.000000	0.015183	0.000000	-0.011990	-0.000340	0.000000	0.000000
70.282671	23.253140	11.322230	0.606494	-0.224846	2.854878	0.000000	-0.069678	0.000000	-0.012070	0.000050	0.000000	0.000000
