#ParticleID	Turn	x[m]	xp	y[m]	yp	z[m]	dE[GeV]# s	beta_x	beta_y	alpha_x	alpha_y	D_x	D_y	D_px	D_py	orbit_x	orbit_px	orbit_y	orbit_py
0.300000	11.947428	25.297070	-0.020058	-0.021943	2.601298	0.000000	0.000626	0.000000	-0.000716	0.000625	0.000000	0.000000
0.601250	11.967112	25.313880	-0.045283	-0.033857	2.601299	0.000000	0.000626	0.000000	-0.000527	0.000625	0.000000	0.000000
0.898573	12.001442	25.337509	-0.040653	-0.107725	2.601299	0.000000	-0.005773	0.000000	-0.000342	0.000626	0.000000	0.000000
1.339533	12.191028	25.151318	-0.390705	0.528360	2.614686	0.000000	0.067749	0.000000	-0.000067	0.000621	0.000000	0.000000
1.780493	12.696013	24.412647	-0.758612	1.140407	2.660632	0.000000	0.142036	0.000000	0.000207	0.000622	0.000000	0.000000
2.221453	13.539475	23.155098	-1.161184	1.700569	2.739659	0.000000	0.217935	0.000000	0.000483	0.000631	0.000000	0.000000
2.662413	14.759955	21.435884	-1.616813	2.183357	2.852662	0.000000	0.296309	0.000000	0.000765	0.000647	0.000000	0.000000
3.108373	16.434299	19.308036	-2.150684	2.567967	3.002778	0.000000	0.378541	0.000000	0.001058	0.000671	0.000000	0.000000
3.657433	18.580697	16.917785	-1.735000	1.811003	3.185182	0.000000	0.286137	0.000000	0.001416	0.000631	0.000000	0.000000
4.206493	20.200210	15.283487	-1.196745	1.183035	3.315408	0.000000	0.188668	0.000000	0.001749	0.000580	0.000000	0.000000
4.755553	21.178418	14.288742	-0.573939	0.639334	3.391150	0.000000	0.087862	0.000000	0.002051	0.000518	0.000000	0.000000
5.304613	21.446203	13.862700	0.089421	0.141171	3.411069	0.000000	-0.014494	0.000000	0.002316	0.000447	0.000000	0.000000
5.603185	21.429773	13.763880	0.020541	0.154386	3.409215	0.000000	-0.005756	0.000000	0.002451	0.000453	0.000000	0.000000
5.936519	21.421266	13.669221	0.004980	0.129591	3.407145	0.000000	-0.005756	0.000000	0.002602	0.000453	0.000000	0.000000
6.269852	21.423133	13.591093	-0.010582	0.104795	3.405076	0.000000	-0.005756	0.000000	0.002754	0.000453	0.000000	0.000000
6.604435	21.435440	13.529294	-0.026201	0.079907	3.402998	0.000000	-0.005756	0.000000	0.002905	0.000453	0.000000	0.000000
6.901758	21.455153	13.488350	-0.094699	0.092218	3.401153	0.000000	0.002903	0.000000	0.003040	0.000461	0.000000	0.000000
7.450818	21.193230	13.648764	0.569143	-0.386090	3.374509	0.000000	-0.099026	0.000000	0.003265	0.000359	0.000000	0.000000
7.999878	20.220117	14.346374	1.192786	-0.891903	3.292354	0.000000	-0.199193	0.000000	0.003433	0.000250	0.000000	0.000000
8.548938	18.604555	15.630879	1.732170	-1.461251	3.156149	0.000000	-0.295822	0.000000	0.003540	0.000137	0.000000	0.000000
9.097998	16.460679	17.593780	2.149186	-2.134692	2.968311	0.000000	-0.387201	0.000000	0.003583	0.000022	0.000000	0.000000
9.543958	14.787922	19.342622	1.614927	-1.770067	2.813813	0.000000	-0.305903	0.000000	0.003614	0.000115	0.000000	0.000000
9.984918	13.569372	20.713251	1.158881	-1.326227	2.696006	0.000000	-0.228585	0.000000	0.003686	0.000210	0.000000	0.000000
10.425878	12.728268	21.664220	0.755788	-0.822038	2.611648	0.000000	-0.153873	0.000000	0.003799	0.000306	0.000000	0.000000
10.866838	12.226176	22.152254	0.387229	-0.280442	2.559777	0.000000	-0.080917	0.000000	0.003956	0.000406	0.000000	0.000000
11.309048	12.040000	22.154578	0.064609	0.221525	2.539782	0.000000	-0.014867	0.000000	0.004159	0.000501	0.000000	0.000000
11.606371	12.008953	22.027035	0.039812	0.207446	2.535213	0.000000	-0.014867	0.000000	0.004307	0.000501	0.000000	0.000000
12.086371	11.989950	21.838797	-0.000222	0.184717	2.527837	0.000000	-0.014867	0.000000	0.004548	0.000501	0.000000	0.000000
12.566371	12.009379	21.672378	-0.040255	0.161988	2.520460	0.000000	-0.014867	0.000000	0.004788	0.000501	0.000000	0.000000
13.046371	12.067240	21.527780	-0.080289	0.139259	2.513083	0.000000	-0.014867	0.000000	0.005028	0.000501	0.000000	0.000000
13.526371	12.163533	21.405002	-0.120322	0.116529	2.505707	0.000000	-0.014867	0.000000	0.005268	0.000501	0.000000	0.000000
14.007621	12.298660	21.303809	-0.160460	0.093741	2.498311	0.000000	-0.014867	0.000000	0.005509	0.000501	0.000000	0.000000
14.304943	12.401438	21.252272	-0.156498	0.030521	2.493740	0.000000	-0.020651	0.000000	0.005658	0.000487	0.000000	0.000000
14.745903	12.698415	20.992902	-0.519278	0.555386	2.499971	0.000000	0.050018	0.000000	0.005906	0.000636	0.000000	0.000000
15.186863	13.324611	20.280020	-0.905795	1.054980	2.537396	0.000000	0.121249	0.000000	0.006220	0.000792	0.000000	0.000000
15.627823	14.308653	19.146061	-1.333712	1.506567	2.606440	0.000000	0.193853	0.000000	0.006606	0.000958	0.000000	0.000000
16.068783	15.695527	17.642620	-1.822588	1.889596	2.707884	0.000000	0.268656	0.000000	0.007067	0.001134	0.000000	0.000000
16.514743	17.572256	15.816559	-2.399672	2.187514	2.844580	0.000000	0.346993	0.000000	0.007614	0.001324	0.000000	0.000000
17.063803	19.981783	13.778347	-1.961653	1.546162	3.010840	0.000000	0.259958	0.000000	0.008272	0.001067	0.000000	0.000000
17.612863	21.830778	12.380220	-1.385002	1.014961	3.128116	0.000000	0.168328	0.000000	0.008783	0.000791	0.000000	0.000000
18.161923	22.988547	11.522583	-0.710467	0.556069	3.194334	0.000000	0.073725	0.000000	0.009138	0.000500	0.000000	0.000000
18.710983	23.373249	11.144344	0.014283	0.136792	3.208323	0.000000	-0.022179	0.000000	0.009331	0.000201	0.000000	0.000000
19.009556	23.402028	11.054926	-0.054691	0.136037	3.203932	0.000000	-0.014468	0.000000	0.009398	0.000225	0.000000	0.000000
19.342889	23.443251	10.974471	-0.068978	0.105326	3.199035	0.000000	-0.014468	0.000000	0.009473	0.000225	0.000000	0.000000
19.676223	23.493998	10.914490	-0.083264	0.074616	3.194138	0.000000	-0.014468	0.000000	0.009547	0.000225	0.000000	0.000000
20.010806	23.554805	10.874739	-0.214308	0.097670	3.189242	0.000000	0.001334	0.000000	0.009623	0.000272	0.000000	0.000000
20.308129	23.686233	10.824836	-0.284234	0.096040	3.189562	0.000000	0.008972	0.000000	0.009704	0.000297	0.000000	0.000000
20.857189	23.589998	10.939201	0.458538	-0.305532	3.168252	0.000000	-0.086206	0.000000	0.009780	-0.000019	0.000000	0.000000
21.406249	22.690921	11.503896	1.168906	-0.728873	3.095185	0.000000	-0.179855	0.000000	0.009683	-0.000335	0.000000	0.000000
21.955309	21.052550	12.559152	1.796668	-1.204143	2.971658	0.000000	-0.270318	0.000000	0.009414	-0.000644	0.000000	0.000000
22.504369	18.790690	14.180144	2.297457	-1.765202	2.799858	0.000000	-0.355996	0.000000	0.008977	-0.000942	0.000000	0.000000
22.950329	17.009938	15.636367	1.708736	-1.485943	2.658707	0.000000	-0.278869	0.000000	0.008608	-0.000714	0.000000	0.000000
23.391289	15.730548	16.798894	1.203012	-1.140061	2.552281	0.000000	-0.205395	0.000000	0.008342	-0.000495	0.000000	0.000000
23.832249	14.871427	17.632208	0.752276	-0.742296	2.477622	0.000000	-0.134256	0.000000	0.008171	-0.000282	0.000000	0.000000
24.273209	14.393301	18.098388	0.335923	-0.310751	2.433881	0.000000	-0.064643	0.000000	0.008093	-0.000073	0.000000	0.000000
24.715418	14.274422	18.175950	-0.032898	0.093749	2.420561	0.000000	-0.001237	0.000000	0.008107	0.000117	0.000000	0.000000
25.012741	14.300184	18.125110	-0.053750	0.077247	2.420158	0.000000	-0.001237	0.000000	0.008141	0.000117	0.000000	0.000000
25.346075	14.343810	18.079779	-0.077127	0.058746	2.419707	0.000000	-0.001237	0.000000	0.008180	0.000117	0.000000	0.000000
25.679408	14.403020	18.046781	-0.100504	0.040246	2.419256	0.000000	-0.001237	0.000000	0.008219	0.000117	0.000000	0.000000
26.013991	14.477831	18.026429	-0.006515	-0.124563	2.418778	0.000000	-0.020860	0.000000	0.008258	0.000050	0.000000	0.000000
26.311314	14.487782	18.105516	0.005637	-0.182157	2.412559	0.000000	-0.026303	0.000000	0.008273	0.000031	0.000000	0.000000
26.752274	14.661810	18.070022	-0.401685	0.262332	2.416012	0.000000	0.042241	0.000000	0.008334	0.000245	0.000000	0.000000
27.193234	15.201855	17.646265	-0.827368	0.694883	2.449678	0.000000	0.111264	0.000000	0.008489	0.000461	0.000000	0.000000
27.634194	16.132609	16.853526	-1.290870	1.095811	2.513941	0.000000	0.181549	0.000000	0.008742	0.000684	0.000000	0.000000
28.075154	17.496626	15.727879	-1.813377	1.446869	2.609530	0.000000	0.253895	0.000000	0.009094	0.000914	0.000000	0.000000
28.521114	19.380138	14.303476	-2.423883	1.733168	2.739148	0.000000	0.329599	0.000000	0.009555	0.001155	0.000000	0.000000
29.070174	21.775070	12.717131	-1.910963	1.172683	2.896927	0.000000	0.246114	0.000000	0.010103	0.000837	0.000000	0.000000
29.619234	23.528638	11.697123	-1.262984	0.695747	3.007771	0.000000	0.158276	0.000000	0.010471	0.000504	0.000000	0.000000
30.168294	24.516884	11.170787	-0.525744	0.268380	3.069717	0.000000	0.067638	0.000000	0.010654	0.000161	0.000000	0.000000
30.717354	24.669948	11.100629	0.248654	-0.139866	3.081668	0.000000	-0.024198	0.000000	0.010648	-0.000184	0.000000	0.000000
31.015927	24.560086	11.176571	0.177571	-0.140736	3.076668	0.000000	-0.016885	0.000000	0.010601	-0.000157	0.000000	0.000000
31.349260	24.446373	11.280534	0.163570	-0.171151	3.071092	0.000000	-0.016885	0.000000	0.010548	-0.000157	0.000000	0.000000
31.682593	24.341992	11.404773	0.149570	-0.201566	3.065517	0.000000	-0.016885	0.000000	0.010496	-0.000157	0.000000	0.000000
32.017177	24.246607	11.549868	0.135518	-0.232095	3.059920	0.000000	-0.016885	0.000000	0.010443	-0.000157	0.000000	0.000000
32.314499	24.169811	11.695912	0.065531	-0.231423	3.054951	0.000000	-0.009617	0.000000	0.010397	-0.000131	0.000000	0.000000
32.863559	23.684037	12.188743	0.813632	-0.671334	3.024886	0.000000	-0.100292	0.000000	0.010232	-0.000466	0.000000	0.000000
33.412619	22.403399	13.187991	1.504226	-1.159075	2.945616	0.000000	-0.189196	0.000000	0.009887	-0.000792	0.000000	0.000000
33.961679	20.418427	14.764842	2.088505	-1.729394	2.818542	0.000000	-0.274755	0.000000	0.009366	-0.001104	0.000000	0.000000
34.510739	17.869434	17.031625	2.525181	-2.422921	2.645913	0.000000	-0.355458	0.000000	0.008678	-0.001396	0.000000	0.000000
34.956699	15.888919	19.059501	1.930530	-2.104739	2.504310	0.000000	-0.282336	0.000000	0.008105	-0.001178	0.000000	0.000000
35.397659	14.412624	20.740164	1.429238	-1.691699	2.395675	0.000000	-0.212874	0.000000	0.007630	-0.000975	0.000000	0.000000
35.838619	13.348165	22.021036	0.993274	-1.201674	2.317030	0.000000	-0.145826	0.000000	0.007243	-0.000784	0.000000	0.000000
36.279579	12.646876	22.843836	0.602710	-0.656964	2.267482	0.000000	-0.080431	0.000000	0.006938	-0.000601	0.000000	0.000000
36.721789	12.276043	23.171434	0.267748	-0.135429	2.246445	0.000000	-0.021099	0.000000	0.006711	-0.000441	0.000000	0.000000
37.019112	12.124545	23.255851	0.241792	-0.148496	2.240303	0.000000	-0.021099	0.000000	0.006580	-0.000441	0.000000	0.000000
37.352445	11.973051	23.359731	0.212692	-0.163145	2.233417	0.000000	-0.021099	0.000000	0.006433	-0.000441	0.000000	0.000000
37.685779	11.840956	23.473378	0.183593	-0.177795	2.226531	0.000000	-0.021099	0.000000	0.006287	-0.000441	0.000000	0.000000
38.020362	11.727874	23.597272	0.154384	-0.192499	2.219619	0.000000	-0.021099	0.000000	0.006139	-0.000441	0.000000	0.000000
38.317684	11.643776	23.715651	0.155335	-0.260520	2.213476	0.000000	-0.026214	0.000000	0.006008	-0.000455	0.000000	0.000000
38.758644	11.655871	23.682599	-0.182992	0.335182	2.216053	0.000000	0.037181	0.000000	0.005841	-0.000302	0.000000	0.000000
39.199604	11.968935	23.128888	-0.529679	0.915630	2.246590	0.000000	0.101003	0.000000	0.005741	-0.000153	0.000000	0.000000
39.640564	12.597273	22.079716	-0.900571	1.454411	2.305437	0.000000	0.165977	0.000000	0.005706	-0.000005	0.000000	0.000000
40.081524	13.569602	20.582828	-1.312617	1.927006	2.393263	0.000000	0.232842	0.000000	0.005736	0.000142	0.000000	0.000000
40.527484	14.947898	18.683626	-1.788562	2.313357	2.512554	0.000000	0.302784	0.000000	0.005833	0.000292	0.000000	0.000000
41.076544	16.709135	16.548860	-1.399819	1.597306	2.658077	0.000000	0.226852	0.000000	0.005941	0.000101	0.000000	0.000000
41.625604	17.986228	15.133736	-0.912173	0.995046	2.760840	0.000000	0.146898	0.000000	0.005944	-0.000091	0.000000	0.000000
42.174664	18.688937	14.337445	-0.360081	0.463674	2.819019	0.000000	0.064337	0.000000	0.005841	-0.000282	0.000000	0.000000
42.723724	18.767614	14.103256	0.217446	-0.034665	2.831582	0.000000	-0.019370	0.000000	0.005635	-0.000468	0.000000	0.000000
43.022297	18.670516	14.109283	0.154389	-0.020657	2.828035	0.000000	-0.012327	0.000000	0.005499	-0.000454	0.000000	0.000000
43.502297	18.534937	14.145450	0.128067	-0.054691	2.822336	0.000000	-0.012327	0.000000	0.005282	-0.000454	0.000000	0.000000
43.982297	18.424628	14.214291	0.101745	-0.088726	2.816637	0.000000	-0.012327	0.000000	0.005064	-0.000454	0.000000	0.000000
44.462297	18.339587	14.315804	0.075423	-0.122761	2.810938	0.000000	-0.012327	0.000000	0.004846	-0.000454	0.000000	0.000000
44.942297	18.279815	14.449991	0.049101	-0.156795	2.805239	0.000000	-0.012327	0.000000	0.004628	-0.000454	0.000000	0.000000
45.423547	18.245481	14.617148	-0.067687	-0.118496	2.799542	0.000000	0.001544	0.000000	0.004410	-0.000432	0.000000	0.000000
45.720870	18.290608	14.693736	-0.130114	-0.102213	2.800131	0.000000	0.008595	0.000000	0.004282	-0.000421	0.000000	0.000000
46.269930	18.125289	15.089850	0.429155	-0.623445	2.782404	0.000000	-0.074006	0.000000	0.004013	-0.000555	0.000000	0.000000
46.818990	17.358852	16.079252	0.958097	-1.189086	2.719682	0.000000	-0.155303	0.000000	0.003674	-0.000680	0.000000	0.000000
47.368050	16.045462	17.732412	1.419340	-1.839428	2.613073	0.000000	-0.233856	0.000000	0.003269	-0.000792	0.000000	0.000000
47.917110	14.277924	20.167078	1.780301	-2.620797	2.464463	0.000000	-0.308273	0.000000	0.002806	-0.000891	0.000000	0.000000
48.363070	12.901423	22.331161	1.316794	-2.211291	2.342720	0.000000	-0.239629	0.000000	0.002424	-0.000823	0.000000	0.000000
48.804030	11.919863	24.063650	0.917258	-1.702533	2.251920	0.000000	-0.174112	0.000000	0.002075	-0.000765	0.000000	0.000000
49.244990	11.270947	25.311430	0.559638	-1.116310	2.189526	0.000000	-0.110570	0.000000	0.001749	-0.000716	0.000000	0.000000
49.685950	10.925017	26.017732	0.227593	-0.479296	2.154832	0.000000	-0.048281	0.000000	0.001442	-0.000674	0.000000	0.000000
50.128160	10.866431	26.150135	-0.067808	0.116287	2.147455	0.000000	0.008258	0.000000	0.001152	-0.000644	0.000000	0.000000
50.425482	10.914925	26.084412	-0.095295	0.104763	2.150102	0.000000	0.008258	0.000000	0.000960	-0.000644	0.000000	0.000000
50.758816	10.988728	26.018876	-0.126112	0.091844	2.153069	0.000000	0.008258	0.000000	0.000746	-0.000644	0.000000	0.000000
51.092149	11.083075	25.961953	-0.156929	0.078925	2.156036	0.000000	0.008258	0.000000	0.000531	-0.000644	0.000000	0.000000
51.426732	11.198209	25.914003	-0.097014	-0.144270	2.158993	0.000000	-0.009257	0.000000	0.000316	-0.000646	0.000000	0.000000
51.724055	11.263866	26.003275	-0.096224	-0.219915	2.156433	0.000000	-0.014539	0.000000	0.000123	-0.000647	0.000000	0.000000
52.165015	11.495422	25.907776	-0.431097	0.435661	2.163956	0.000000	0.047440	0.000000	-0.000162	-0.000647	0.000000	0.000000
52.605975	12.029838	25.240682	-0.785660	1.071412	2.198905	0.000000	0.109966	0.000000	-0.000448	-0.000655	0.000000	0.000000
53.046935	12.891521	24.032350	-1.176112	1.658413	2.261681	0.000000	0.173751	0.000000	-0.000740	-0.000670	0.000000	0.000000
53.487895	14.119833	22.337765	-1.620290	2.169957	2.353002	0.000000	0.239522	0.000000	-0.001041	-0.000693	0.000000	0.000000
53.933855	15.791883	20.208712	-2.142760	2.584087	2.475424	0.000000	0.308426	0.000000	-0.001357	-0.000724	0.000000	0.000000
54.482915	17.944128	17.812598	-1.754331	1.805798	2.624828	0.000000	0.233654	0.000000	-0.001741	-0.000674	0.000000	0.000000
55.031975	19.598857	16.195908	-1.242006	1.156130	2.731946	0.000000	0.154727	0.000000	-0.002095	-0.000612	0.000000	0.000000
55.581035	20.639217	15.243485	-0.641973	0.588808	2.794871	0.000000	0.073046	0.000000	-0.002411	-0.000539	0.000000	0.000000
56.130095	20.991748	14.887484	0.003391	0.063425	2.812484	0.000000	-0.009939	0.000000	-0.002685	-0.000457	0.000000	0.000000
56.428668	21.027461	14.831860	-0.066945	0.083020	2.811898	0.000000	-0.002426	0.000000	-0.002823	-0.000464	0.000000	0.000000
56.762001	21.077399	14.784056	-0.082869	0.060391	2.811243	0.000000	-0.002426	0.000000	-0.002978	-0.000464	0.000000	0.000000
57.095334	21.137953	14.751339	-0.098792	0.037762	2.810589	0.000000	-0.002426	0.000000	-0.003133	-0.000464	0.000000	0.000000
57.429918	21.209409	14.733669	-0.114775	0.015048	2.809932	0.000000	-0.002426	0.000000	-0.003288	-0.000464	0.000000	0.000000
57.727240	21.281890	14.730717	-0.186164	0.034348	2.809349	0.000000	0.005123	0.000000	-0.003426	-0.000473	0.000000	0.000000
58.276300	21.122572	14.975445	0.474374	-0.482723	2.789609	0.000000	-0.077725	0.000000	-0.003654	-0.000358	0.000000	0.000000
58.825360	20.252173	15.803380	1.101403	-1.034171	2.724631	0.000000	-0.159199	0.000000	-0.003818	-0.000237	0.000000	0.000000
59.374420	18.732168	17.273484	1.650642	-1.659273	2.615566	0.000000	-0.237854	0.000000	-0.003913	-0.000112	0.000000	0.000000
59.923480	16.669903	19.490457	2.083305	-2.402547	2.464346	0.000000	-0.312292	0.000000	-0.003940	0.000015	0.000000	0.000000
60.369440	15.054590	21.460697	1.551724	-1.996920	2.340453	0.000000	-0.243710	0.000000	-0.003956	-0.000087	0.000000	0.000000
60.810400	13.891848	23.009272	1.095214	-1.501742	2.247564	0.000000	-0.178288	0.000000	-0.004017	-0.000190	0.000000	0.000000
61.251360	13.108175	24.089256	0.688735	-0.938245	2.183091	0.000000	-0.114895	0.000000	-0.004123	-0.000295	0.000000	0.000000
61.692320	12.667773	24.651517	0.313719	-0.332064	2.146302	0.000000	-0.052807	0.000000	-0.004277	-0.000403	0.000000	0.000000
62.134530	12.550569	24.669900	-0.014997	0.226320	2.136785	0.000000	0.003224	0.000000	-0.004480	-0.000505	0.000000	0.000000
62.431853	12.566533	24.539087	-0.038692	0.213651	2.137893	0.000000	0.003224	0.000000	-0.004630	-0.000505	0.000000	0.000000
62.765186	12.601183	24.401388	-0.065258	0.199447	2.139136	0.000000	0.003224	0.000000	-0.004798	-0.000505	0.000000	0.000000
63.098520	12.653543	24.273158	-0.091823	0.185243	2.140379	0.000000	0.003224	0.000000	-0.004966	-0.000505	0.000000	0.000000
63.433103	12.723909	24.153969	-0.118488	0.170986	2.141626	0.000000	0.003224	0.000000	-0.005135	-0.000505	0.000000	0.000000
63.730426	12.801402	24.056080	-0.109244	0.096246	2.142734	0.000000	-0.002290	0.000000	-0.005285	-0.000491	0.000000	0.000000
64.171386	13.059987	23.706384	-0.479646	0.693830	2.155551	0.000000	0.059395	0.000000	-0.005532	-0.000631	0.000000	0.000000
64.612346	13.653571	22.841670	-0.871952	1.259848	2.195752	0.000000	0.121764	0.000000	-0.005842	-0.000777	0.000000	0.000000
65.053306	14.609255	21.501282	-1.304078	1.768551	2.263797	0.000000	0.185527	0.000000	-0.006219	-0.000933	0.000000	0.000000
65.494266	15.970676	19.746204	-1.795759	2.196797	2.360466	0.000000	0.251413	0.000000	-0.006666	-0.001099	0.000000	0.000000
65.940226	17.823291	17.631450	-2.373997	2.525699	2.488440	0.000000	0.320553	0.000000	-0.007196	-0.001279	0.000000	0.000000
66.489286	20.195749	15.266195	-1.922460	1.808012	2.644600	0.000000	0.245265	0.000000	-0.007832	-0.001035	0.000000	0.000000
67.038346	21.994538	13.614080	-1.335196	1.219082	2.758030	0.000000	0.165611	0.000000	-0.008329	-0.000773	0.000000	0.000000
67.587406	23.092687	12.557437	-0.653672	0.716968	2.826711	0.000000	0.083007	0.000000	-0.008679	-0.000498	0.000000	0.000000
68.136466	23.412687	12.021011	0.073997	0.265910	2.849422	0.000000	-0.001076	0.000000	-0.008874	-0.000213	0.000000	0.000000
68.435038	23.411437	11.850194	-0.004373	0.272568	2.851552	0.000000	0.006909	0.000000	-0.008945	-0.000238	0.000000	0.000000
68.768372	23.419098	11.678555	-0.018611	0.242350	2.853935	0.000000	0.006909	0.000000	-0.009024	-0.000238	0.000000	0.000000
69.101705	23.436252	11.527061	-0.032850	0.212131	2.856317	0.000000	0.006909	0.000000	-0.009103	-0.000238	0.000000	0.000000
69.436288	23.463015	11.395259	-0.047141	0.181799	2.858708	0.000000	0.006909	0.000000	-0.009183	-0.000238	0.000000	0.000000
69.733611	23.494883	11.295139	-0.125871	0.186548	2.860836	0.000000	0.014949	0.000000	-0.009254	-0.000263	0.000000	0.000000
70.282671	23.229641	11.316743	0.606085	-0.226133	2.845865	0.000000	-0.069628	0.000000	-0.009315	0.000038	0.000000	0.000000
