#ParticleID	Turn	x[m]	xp	y[m]	yp	z[m]	dE[GeV]# s	beta_x	beta_y	alpha_x	alpha_y	D_x	D_y	D_px	D_py	orbit_x	orbit_px	orbit_y	orbit_py
0.300000	11.880931	25.094264	-0.016910	-0.025172	2.611413	0.000000	0.000338	0.000000	-0.000266	0.000234	0.000000	0.000000
0.601250	11.898759	25.113049	-0.042273	-0.037185	2.611444	0.000000	0.000338	0.000000	-0.000196	0.000234	0.000000	0.000000
0.898573	11.931340	25.138686	-0.038011	-0.110678	2.611475	0.000000	-0.006074	0.000000	-0.000126	0.000234	0.000000	0.000000
1.339533	12.117812	24.957406	-0.386391	0.520217	2.624953	0.000000	0.067712	0.000000	-0.000024	0.000232	0.000000	0.000000
1.780493	12.618123	24.228078	-0.752426	1.127443	2.671107	0.000000	0.142267	0.000000	0.000079	0.000233	0.000000	0.000000
2.221453	13.455133	22.983884	-1.152839	1.683372	2.750461	0.000000	0.218440	0.000000	0.000182	0.000236	0.000000	0.000000
2.662413	14.667085	21.281432	-1.605924	2.162709	2.863918	0.000000	0.297098	0.000000	0.000287	0.000242	0.000000	0.000000
3.108373	16.330289	19.173223	-2.136712	2.544787	3.014627	0.000000	0.379627	0.000000	0.000397	0.000251	0.000000	0.000000
3.657433	18.462785	16.805313	-1.724054	1.793301	3.197732	0.000000	0.286831	0.000000	0.000531	0.000236	0.000000	0.000000
4.206493	20.072171	15.188064	-1.189610	1.169549	3.328424	0.000000	0.188952	0.000000	0.000656	0.000217	0.000000	0.000000
4.755553	21.044757	14.206282	-0.571131	0.629101	3.404385	0.000000	0.087725	0.000000	0.000769	0.000194	0.000000	0.000000
5.304613	21.311836	13.790041	0.087695	0.133463	3.424270	0.000000	-0.015056	0.000000	0.000868	0.000167	0.000000	0.000000
5.603185	21.296665	13.695654	0.018393	0.146927	3.422376	0.000000	-0.006174	0.000000	0.000919	0.000170	0.000000	0.000000
5.936519	21.289622	13.605991	0.002736	0.122063	3.420261	0.000000	-0.006174	0.000000	0.000975	0.000170	0.000000	0.000000
6.269852	21.293018	13.532904	-0.012922	0.097199	3.418147	0.000000	-0.006174	0.000000	0.001032	0.000170	0.000000	0.000000
6.604435	21.306923	13.476211	-0.028638	0.072242	3.416024	0.000000	-0.006174	0.000000	0.001088	0.000170	0.000000	0.000000
6.901758	21.328105	13.439847	-0.097796	0.084877	3.414138	0.000000	0.002661	0.000000	0.001139	0.000172	0.000000	0.000000
7.450818	21.071821	13.607594	0.561887	-0.392193	3.387383	0.000000	-0.099681	0.000000	0.001223	0.000134	0.000000	0.000000
7.999878	20.108705	14.311405	1.181883	-0.897199	3.304860	0.000000	-0.200253	0.000000	0.001286	0.000094	0.000000	0.000000
8.548938	18.506788	15.601415	1.718393	-1.466113	3.168033	0.000000	-0.297271	0.000000	0.001325	0.000051	0.000000	0.000000
9.097998	16.379230	17.569511	2.133519	-2.139460	2.979330	0.000000	-0.389015	0.000000	0.001342	0.000008	0.000000	0.000000
9.543958	14.719141	19.323147	1.602177	-1.776128	2.824106	0.000000	-0.307453	0.000000	0.001353	0.000043	0.000000	0.000000
9.984918	13.510824	20.699521	1.148386	-1.333247	2.705719	0.000000	-0.229882	0.000000	0.001380	0.000078	0.000000	0.000000
10.425878	12.678165	21.656958	0.747064	-0.829703	2.620913	0.000000	-0.154930	0.000000	0.001422	0.000114	0.000000	0.000000
10.866838	12.183119	22.151893	0.379874	-0.288405	2.568723	0.000000	-0.081744	0.000000	0.001481	0.000152	0.000000	0.000000
11.309048	12.002922	22.161271	0.058935	0.212352	2.548534	0.000000	-0.015648	0.000000	0.001557	0.000187	0.000000	0.000000
11.606371	11.975267	22.039166	0.034079	0.198331	2.543826	0.000000	-0.015648	0.000000	0.001612	0.000187	0.000000	0.000000
12.086371	11.961813	21.859634	-0.006051	0.175695	2.536225	0.000000	-0.015648	0.000000	0.001702	0.000187	0.000000	0.000000
12.566371	11.986884	21.701832	-0.046180	0.153058	2.528624	0.000000	-0.015648	0.000000	0.001792	0.000187	0.000000	0.000000
13.046371	12.050478	21.565761	-0.086309	0.130422	2.521022	0.000000	-0.015648	0.000000	0.001882	0.000187	0.000000	0.000000
13.526371	12.152597	21.451421	-0.126438	0.107786	2.513421	0.000000	-0.015648	0.000000	0.001972	0.000187	0.000000	0.000000
14.007621	12.293656	21.358599	-0.166672	0.085091	2.505800	0.000000	-0.015648	0.000000	0.002062	0.000187	0.000000	0.000000
14.304943	12.400156	21.312171	-0.161732	0.019913	2.501092	0.000000	-0.021658	0.000000	0.002117	0.000182	0.000000	0.000000
14.745903	12.701710	21.061399	-0.524625	0.546602	2.507067	0.000000	0.049190	0.000000	0.002210	0.000238	0.000000	0.000000
15.186863	13.332651	20.355348	-0.911492	1.048420	2.544354	0.000000	0.120595	0.000000	0.002327	0.000296	0.000000	0.000000
15.627823	14.321810	19.226144	-1.340008	1.502533	2.613375	0.000000	0.193371	0.000000	0.002471	0.000358	0.000000	0.000000
16.068783	15.714391	17.725165	-1.829755	1.888278	2.714916	0.000000	0.268346	0.000000	0.002644	0.000424	0.000000	0.000000
16.514743	17.597660	15.899208	-2.407927	2.188897	2.851828	0.000000	0.346845	0.000000	0.002849	0.000495	0.000000	0.000000
17.063803	20.015854	13.860591	-1.969813	1.545784	3.018328	0.000000	0.259587	0.000000	0.003094	0.000399	0.000000	0.000000
17.612863	21.873179	12.463965	-1.392535	1.012782	3.135635	0.000000	0.167730	0.000000	0.003285	0.000296	0.000000	0.000000
18.161923	23.038411	11.609849	-0.716874	0.551924	3.201669	0.000000	0.072902	0.000000	0.003418	0.000187	0.000000	0.000000
18.710983	23.429219	11.237402	0.009434	0.130381	3.215261	0.000000	-0.023216	0.000000	0.003490	0.000075	0.000000	0.000000
19.009556	23.462867	11.150675	-0.062751	0.131623	3.210738	0.000000	-0.015063	0.000000	0.003515	0.000084	0.000000	0.000000
19.342889	23.509455	11.073063	-0.077013	0.101212	3.205689	0.000000	-0.015063	0.000000	0.003543	0.000084	0.000000	0.000000
19.676223	23.565552	11.015726	-0.091276	0.070800	3.200640	0.000000	-0.015063	0.000000	0.003571	0.000084	0.000000	0.000000
20.010806	23.631713	10.978426	-0.222677	0.094669	3.195592	0.000000	0.000770	0.000000	0.003600	0.000102	0.000000	0.000000
20.308129	23.768063	10.930252	-0.296077	0.095043	3.195791	0.000000	0.008863	0.000000	0.003630	0.000111	0.000000	0.000000
20.857189	23.683323	11.047294	0.449527	-0.309459	3.174418	0.000000	-0.086498	0.000000	0.003659	-0.000007	0.000000	0.000000
21.406249	22.792398	11.617979	1.163374	-0.736006	3.101090	0.000000	-0.180325	0.000000	0.003622	-0.000125	0.000000	0.000000
21.955309	21.158236	12.682956	1.795030	-1.214982	2.977107	0.000000	-0.270955	0.000000	0.003522	-0.000241	0.000000	0.000000
22.504369	18.896294	14.318086	2.299870	-1.780505	2.804668	0.000000	-0.356783	0.000000	0.003359	-0.000352	0.000000	0.000000
22.950329	17.114553	15.786383	1.709211	-1.497913	2.662979	0.000000	-0.279566	0.000000	0.003221	-0.000267	0.000000	0.000000
23.391289	15.835824	16.957665	1.201428	-1.148068	2.556114	0.000000	-0.205998	0.000000	0.003122	-0.000185	0.000000	0.000000
23.832249	14.979150	17.796094	0.748543	-0.745984	2.481111	0.000000	-0.134773	0.000000	0.003058	-0.000105	0.000000	0.000000
24.273209	14.505380	18.263520	0.329863	-0.309955	2.437114	0.000000	-0.065083	0.000000	0.003029	-0.000027	0.000000	0.000000
24.715418	14.392968	18.338429	-0.039556	0.096424	2.423622	0.000000	-0.001906	0.000000	0.003034	0.000044	0.000000	0.000000
25.012741	14.422641	18.285956	-0.060245	0.080060	2.423042	0.000000	-0.001906	0.000000	0.003047	0.000044	0.000000	0.000000
25.346075	14.470537	18.238698	-0.083441	0.061714	2.422393	0.000000	-0.001906	0.000000	0.003062	0.000044	0.000000	0.000000
25.679408	14.533896	18.203670	-0.106637	0.043369	2.421743	0.000000	-0.001906	0.000000	0.003077	0.000044	0.000000	0.000000
26.013991	14.612748	18.181179	-0.011371	-0.122541	2.421066	0.000000	-0.021547	0.000000	0.003091	0.000019	0.000000	0.000000
26.311314	14.625556	18.258988	0.003087	-0.182591	2.414653	0.000000	-0.027294	0.000000	0.003097	0.000011	0.000000	0.000000
26.752274	14.803241	18.222055	-0.407528	0.266025	2.417715	0.000000	0.041290	0.000000	0.003120	0.000092	0.000000	0.000000
27.193234	15.349900	17.793307	-0.836764	0.702536	2.451060	0.000000	0.110343	0.000000	0.003178	0.000173	0.000000	0.000000
27.634194	16.290513	16.992254	-1.304237	1.107080	2.515070	0.000000	0.180651	0.000000	0.003272	0.000256	0.000000	0.000000
28.075154	17.668065	15.855343	-1.831307	1.461249	2.610471	0.000000	0.253014	0.000000	0.003404	0.000342	0.000000	0.000000
28.521114	19.569492	14.417155	-2.447072	1.749902	2.739958	0.000000	0.328711	0.000000	0.003577	0.000433	0.000000	0.000000
29.070174	21.986592	12.814910	-1.928664	1.185330	2.897562	0.000000	0.245220	0.000000	0.003782	0.000313	0.000000	0.000000
29.619234	23.755705	11.782934	-1.273995	0.705194	3.008126	0.000000	0.157384	0.000000	0.003920	0.000189	0.000000	0.000000
30.168294	24.751834	11.247717	-0.529319	0.275293	3.069688	0.000000	0.066759	0.000000	0.003988	0.000060	0.000000	0.000000
30.717354	24.904596	11.171134	0.252754	-0.134998	3.081159	0.000000	-0.025049	0.000000	0.003986	-0.000069	0.000000	0.000000
31.015927	24.794908	11.242976	0.177458	-0.133816	3.076019	0.000000	-0.017270	0.000000	0.003968	-0.000059	0.000000	0.000000
31.349260	24.681225	11.342247	0.163591	-0.163995	3.070282	0.000000	-0.017270	0.000000	0.003949	-0.000059	0.000000	0.000000
31.682593	24.576786	11.461637	0.149724	-0.194174	3.064545	0.000000	-0.017270	0.000000	0.003929	-0.000059	0.000000	0.000000
32.017177	24.481253	11.601707	0.135805	-0.224467	3.058786	0.000000	-0.017270	0.000000	0.003910	-0.000059	0.000000	0.000000
32.314499	24.404185	11.743183	0.061774	-0.221722	3.053669	0.000000	-0.009555	0.000000	0.003892	-0.000049	0.000000	0.000000
32.863559	23.918416	12.225785	0.817592	-0.662378	3.023559	0.000000	-0.100170	0.000000	0.003831	-0.000174	0.000000	0.000000
33.412619	22.629542	13.215221	1.515647	-1.150218	2.944173	0.000000	-0.189011	0.000000	0.003702	-0.000296	0.000000	0.000000
33.961679	20.628631	14.781971	2.106620	-1.719993	2.816917	0.000000	-0.274503	0.000000	0.003507	-0.000413	0.000000	0.000000
34.510739	18.057057	17.037635	2.548761	-2.412289	2.644047	0.000000	-0.355133	0.000000	0.003250	-0.000522	0.000000	0.000000
34.956699	16.058272	19.055305	1.948870	-2.092974	2.502240	0.000000	-0.282087	0.000000	0.003036	-0.000440	0.000000	0.000000
35.397659	14.568072	20.725123	1.443077	-1.679235	2.393422	0.000000	-0.212689	0.000000	0.002859	-0.000364	0.000000	0.000000
35.838619	13.493328	21.994820	1.003224	-1.189086	2.314614	0.000000	-0.145709	0.000000	0.002714	-0.000293	0.000000	0.000000
36.279579	12.784925	22.806625	0.609215	-0.644832	2.264921	0.000000	-0.080385	0.000000	0.002600	-0.000224	0.000000	0.000000
36.721789	12.409810	23.123912	0.272641	-0.126588	2.243750	0.000000	-0.021346	0.000000	0.002516	-0.000164	0.000000	0.000000
37.019112	12.255339	23.203071	0.246901	-0.139651	2.237452	0.000000	-0.021346	0.000000	0.002467	-0.000164	0.000000	0.000000
37.352445	12.100357	23.301054	0.218044	-0.154297	2.230392	0.000000	-0.021346	0.000000	0.002412	-0.000164	0.000000	0.000000
37.685779	11.964613	23.408801	0.189187	-0.168944	2.223331	0.000000	-0.021346	0.000000	0.002357	-0.000164	0.000000	0.000000
38.020362	11.847707	23.526771	0.160221	-0.183645	2.216244	0.000000	-0.021346	0.000000	0.002302	-0.000164	0.000000	0.000000
38.317684	11.760084	23.639862	0.162703	-0.253495	2.209947	0.000000	-0.026649	0.000000	0.002253	-0.000170	0.000000	0.000000
38.758644	11.766848	23.601538	-0.178148	0.340072	2.212209	0.000000	0.036645	0.000000	0.002191	-0.000112	0.000000	0.000000
39.199604	12.076673	23.044568	-0.527139	0.918165	2.242423	0.000000	0.100358	0.000000	0.002154	-0.000056	0.000000	0.000000
39.640564	12.703714	21.994298	-0.900214	1.454479	2.300935	0.000000	0.165214	0.000000	0.002141	-0.000001	0.000000	0.000000
40.081524	13.676624	20.498516	-1.314422	1.924612	2.388410	0.000000	0.231952	0.000000	0.002153	0.000054	0.000000	0.000000
40.527484	15.057393	18.602662	-1.792543	2.308513	2.507322	0.000000	0.301745	0.000000	0.002190	0.000111	0.000000	0.000000
41.076544	16.820593	16.472012	-1.399616	1.594812	2.652382	0.000000	0.226000	0.000000	0.002231	0.000039	0.000000	0.000000
41.625604	18.095098	15.058506	-0.907817	0.994712	2.754727	0.000000	0.146246	0.000000	0.002233	-0.000033	0.000000	0.000000
42.174664	18.790873	14.261459	-0.351889	0.465469	2.812542	0.000000	0.063898	0.000000	0.002194	-0.000105	0.000000	0.000000
42.723724	18.858766	14.024093	0.228896	-0.030618	2.824799	0.000000	-0.019585	0.000000	0.002118	-0.000175	0.000000	0.000000
43.022297	18.755860	14.027224	0.164153	-0.015885	2.821166	0.000000	-0.012336	0.000000	0.002067	-0.000169	0.000000	0.000000
43.502297	18.610888	14.058902	0.137871	-0.050112	2.815326	0.000000	-0.012336	0.000000	0.001986	-0.000169	0.000000	0.000000
43.982297	18.491147	14.123440	0.111589	-0.084340	2.809486	0.000000	-0.012336	0.000000	0.001904	-0.000169	0.000000	0.000000
44.462297	18.396637	14.220836	0.085308	-0.118568	2.803646	0.000000	-0.012336	0.000000	0.001823	-0.000169	0.000000	0.000000
44.942297	18.327356	14.351090	0.059026	-0.152796	2.797806	0.000000	-0.012336	0.000000	0.001742	-0.000169	0.000000	0.000000
45.423547	18.283451	14.514492	-0.057910	-0.115199	2.791968	0.000000	0.001497	0.000000	0.001660	-0.000161	0.000000	0.000000
45.720870	18.322740	14.589164	-0.121451	-0.098387	2.792461	0.000000	0.008694	0.000000	0.001612	-0.000157	0.000000	0.000000
46.269930	18.147503	14.979274	0.438617	-0.616295	2.774698	0.000000	-0.073651	0.000000	0.001512	-0.000208	0.000000	0.000000
46.818990	17.370672	15.958744	0.967698	-1.178103	2.712039	0.000000	-0.154693	0.000000	0.001385	-0.000255	0.000000	0.000000
47.368050	16.047129	17.597341	1.428417	-1.823825	2.605594	0.000000	-0.232995	0.000000	0.001233	-0.000297	0.000000	0.000000
47.917110	14.270374	20.011777	1.788229	-2.599458	2.457249	0.000000	-0.307169	0.000000	0.001060	-0.000334	0.000000	0.000000
48.363070	12.887189	22.158248	1.324188	-2.193401	2.335728	0.000000	-0.238715	0.000000	0.000916	-0.000309	0.000000	0.000000
48.804030	11.899329	23.876725	0.924426	-1.688849	2.245081	0.000000	-0.173379	0.000000	0.000785	-0.000287	0.000000	0.000000
49.244990	11.244151	25.114506	0.566903	-1.107456	2.182776	0.000000	-0.110014	0.000000	0.000663	-0.000268	0.000000	0.000000
49.685950	10.891718	25.815276	0.235282	-0.475674	2.148103	0.000000	-0.047899	0.000000	0.000549	-0.000252	0.000000	0.000000
50.128160	10.826072	25.946865	-0.059266	0.114425	2.140679	0.000000	0.008445	0.000000	0.000440	-0.000241	0.000000	0.000000
50.425482	10.869509	25.882274	-0.086826	0.102816	2.143262	0.000000	0.008445	0.000000	0.000368	-0.000241	0.000000	0.000000
50.758816	10.937692	25.818068	-0.117724	0.089801	2.146157	0.000000	0.008445	0.000000	0.000288	-0.000241	0.000000	0.000000
51.092149	11.026474	25.762539	-0.148622	0.076786	2.149052	0.000000	0.008445	0.000000	0.000208	-0.000241	0.000000	0.000000
51.426732	11.136078	25.716048	-0.089293	-0.144899	2.151936	0.000000	-0.009013	0.000000	0.000128	-0.000242	0.000000	0.000000
51.724055	11.197177	25.805721	-0.088760	-0.220042	2.149328	0.000000	-0.014281	0.000000	0.000056	-0.000242	0.000000	0.000000
52.165015	11.421478	25.712641	-0.421912	0.430324	2.156752	0.000000	0.047513	0.000000	-0.000051	-0.000242	0.000000	0.000000
52.605975	11.946946	25.052466	-0.774337	1.061111	2.191518	0.000000	0.109851	0.000000	-0.000158	-0.000244	0.000000	0.000000
53.046935	12.797585	23.855238	-1.162137	1.643616	2.254024	0.000000	0.173443	0.000000	-0.000267	-0.000250	0.000000	0.000000
53.487895	14.012257	22.175430	-1.603030	2.151339	2.344984	0.000000	0.239013	0.000000	-0.000379	-0.000258	0.000000	0.000000
53.933855	15.667247	20.064365	-2.121414	2.562505	2.466941	0.000000	0.307706	0.000000	-0.000496	-0.000270	0.000000	0.000000
54.482915	17.797769	17.688784	-1.736082	1.789704	2.615796	0.000000	0.233215	0.000000	-0.000639	-0.000251	0.000000	0.000000
55.031975	19.434904	16.087266	-1.228130	1.144378	2.722541	0.000000	0.154583	0.000000	-0.000771	-0.000228	0.000000	0.000000
55.581035	20.463023	15.145738	-0.633437	0.580564	2.785281	0.000000	0.073206	0.000000	-0.000889	-0.000201	0.000000	0.000000
56.130095	20.809513	14.797135	0.005993	0.058101	2.802901	0.000000	-0.009473	0.000000	-0.000992	-0.000171	0.000000	0.000000
56.428668	20.842965	14.745223	-0.063211	0.076752	2.802329	0.000000	-0.002089	0.000000	-0.001043	-0.000174	0.000000	0.000000
56.762001	20.890458	14.701635	-0.079268	0.054012	2.801690	0.000000	-0.002089	0.000000	-0.001101	-0.000174	0.000000	0.000000
57.095334	20.948655	14.673206	-0.095324	0.031273	2.801052	0.000000	-0.002089	0.000000	-0.001159	-0.000174	0.000000	0.000000
57.429918	21.017835	14.659916	-0.111441	0.008448	2.800411	0.000000	-0.002089	0.000000	-0.001217	-0.000174	0.000000	0.000000
57.727240	21.088362	14.660923	-0.181446	0.026841	2.799841	0.000000	0.005304	0.000000	-0.001269	-0.000177	0.000000	0.000000
58.276300	20.927509	14.912854	0.472585	-0.488400	2.780145	0.000000	-0.077242	0.000000	-0.001354	-0.000134	0.000000	0.000000
58.825360	20.062642	15.746238	1.093234	-1.038426	2.715414	0.000000	-0.158419	0.000000	-0.001416	-0.000089	0.000000	0.000000
59.374420	18.554848	17.220429	1.636666	-1.662413	2.606795	0.000000	-0.236789	0.000000	-0.001452	-0.000043	0.000000	0.000000
59.923480	16.510624	19.440426	2.064498	-2.404806	2.456214	0.000000	-0.310959	0.000000	-0.001463	0.000004	0.000000	0.000000
60.369440	14.910053	21.413531	1.537301	-2.000980	2.332862	0.000000	-0.242568	0.000000	-0.001470	-0.000034	0.000000	0.000000
60.810400	13.758308	22.966489	1.084544	-1.507459	2.240395	0.000000	-0.177332	0.000000	-0.001493	-0.000072	0.000000	0.000000
61.251360	12.982570	24.052189	0.681335	-0.945352	2.176238	0.000000	-0.114115	0.000000	-0.001533	-0.000111	0.000000	0.000000
61.692320	12.547401	24.621234	0.309252	-0.340235	2.139661	0.000000	-0.052197	0.000000	-0.001591	-0.000151	0.000000	0.000000
62.134530	12.432964	24.647187	-0.017834	0.218984	2.130253	0.000000	0.003822	0.000000	-0.001667	-0.000189	0.000000	0.000000
62.431853	12.450681	24.520728	-0.041756	0.206342	2.131446	0.000000	0.003822	0.000000	-0.001723	-0.000189	0.000000	0.000000
62.765186	12.487459	24.387891	-0.068575	0.192169	2.132783	0.000000	0.003822	0.000000	-0.001786	-0.000189	0.000000	0.000000
63.098520	12.542115	24.264502	-0.095394	0.177997	2.134120	0.000000	0.003822	0.000000	-0.001849	-0.000189	0.000000	0.000000
63.433103	12.614956	24.150153	-0.122314	0.163771	2.135462	0.000000	0.003822	0.000000	-0.001913	-0.000189	0.000000	0.000000
63.730426	12.694800	24.056529	-0.114527	0.090979	2.136655	0.000000	-0.001515	0.000000	-0.001969	-0.000184	0.000000	0.000000
64.171386	12.957096	23.711400	-0.482651	0.688741	2.149631	0.000000	0.060021	0.000000	-0.002062	-0.000236	0.000000	0.000000
64.612346	13.552484	22.850966	-0.872821	1.255167	2.189890	0.000000	0.122243	0.000000	-0.002178	-0.000291	0.000000	0.000000
65.053306	14.508161	21.514377	-1.302862	1.764486	2.257890	0.000000	0.185861	0.000000	-0.002319	-0.000349	0.000000	0.000000
65.494266	15.867778	19.762445	-1.792417	2.193527	2.354408	0.000000	0.251598	0.000000	-0.002486	-0.000411	0.000000	0.000000
65.940226	17.716650	17.650098	-2.368494	2.523461	2.482116	0.000000	0.320600	0.000000	-0.002684	-0.000478	0.000000	0.000000
66.489286	20.085581	15.287201	-1.920893	1.805644	2.637982	0.000000	0.245509	0.000000	-0.002922	-0.000387	0.000000	0.000000
67.038346	21.885172	13.637708	-1.337635	1.216430	2.751310	0.000000	0.166057	0.000000	-0.003107	-0.000289	0.000000	0.000000
67.587406	22.988342	12.584133	-0.659912	0.713853	2.820088	0.000000	0.083656	0.000000	-0.003238	-0.000187	0.000000	0.000000
68.136466	23.317189	12.051436	0.064413	0.262118	2.843093	0.000000	-0.000232	0.000000	-0.003312	-0.000080	0.000000	0.000000
68.435038	23.319922	11.883627	-0.010992	0.267563	2.845329	0.000000	0.007401	0.000000	-0.003338	-0.000089	0.000000	0.000000
68.768372	23.332015	11.715271	-0.025287	0.237505	2.847826	0.000000	0.007401	0.000000	-0.003368	-0.000089	0.000000	0.000000
69.101705	23.353639	11.566953	-0.039583	0.207447	2.850322	0.000000	0.007401	0.000000	-0.003398	-0.000089	0.000000	0.000000
69.436288	23.384927	11.438231	-0.053932	0.177277	2.852828	0.000000	0.007401	0.000000	-0.003428	-0.000089	0.000000	0.000000
69.733611	23.420797	11.340782	-0.129632	0.180931	2.855056	0.000000	0.015074	0.000000	-0.003454	-0.000098	0.000000	0.000000
70.282671	23.160934	11.369292	0.600113	-0.233167	2.840162	0.000000	-0.069332	0.000000	-0.003477	0.000014	0.000000	0.000000
