#ParticleID	Turn	x[m]	xp	y[m]	yp	z[m]	dE[GeV]# s	beta_x	beta_y	alpha_x	alpha_y	D_x	D_y	D_px	D_py	orbit_x	orbit_px	orbit_y	orbit_py
0.300000	11.922154	25.073624	-0.010755	-0.027616	2.605236	0.000000	-0.002392	0.000000	-0.001293	0.001080	0.000000	0.000000
0.601250	11.936247	25.093884	-0.036026	-0.039639	2.604190	0.000000	-0.002392	0.000000	-0.000968	0.001080	0.000000	0.000000
0.898573	11.965085	25.120984	-0.031446	-0.113098	2.603158	0.000000	-0.008815	0.000000	-0.000647	0.001082	0.000000	0.000000
1.339533	12.146182	24.942036	-0.380430	0.517372	2.615020	0.000000	0.064735	0.000000	-0.000172	0.001071	0.000000	0.000000
1.780493	12.641535	24.215355	-0.746802	1.124306	2.659445	0.000000	0.139011	0.000000	0.000300	0.001073	0.000000	0.000000
2.221453	13.473787	22.973995	-1.147303	1.680089	2.736936	0.000000	0.214859	0.000000	0.000776	0.001087	0.000000	0.000000
2.662413	14.680975	21.274427	-1.600232	2.159430	2.848371	0.000000	0.293143	0.000000	0.001260	0.001113	0.000000	0.000000
3.108373	16.339148	19.169041	-2.130632	2.541698	2.996847	0.000000	0.375245	0.000000	0.001765	0.001152	0.000000	0.000000
3.657433	18.464637	16.804220	-1.716914	1.790631	3.177255	0.000000	0.283063	0.000000	0.002380	0.001085	0.000000	0.000000
4.206493	20.066114	15.189711	-1.181889	1.167109	3.305641	0.000000	0.185877	0.000000	0.002953	0.000999	0.000000	0.000000
4.755553	21.030415	14.210525	-0.563350	0.626721	3.379734	0.000000	0.085409	0.000000	0.003473	0.000894	0.000000	0.000000
5.304613	21.289389	13.796925	0.095006	0.130973	3.398227	0.000000	-0.016559	0.000000	0.003932	0.000775	0.000000	0.000000
5.603185	21.268953	13.704642	0.027183	0.143433	3.395611	0.000000	-0.007975	0.000000	0.004166	0.000785	0.000000	0.000000
5.936519	21.256059	13.617295	0.011499	0.118610	3.392691	0.000000	-0.007975	0.000000	0.004428	0.000785	0.000000	0.000000
6.269852	21.253621	13.546495	-0.004185	0.093787	3.389771	0.000000	-0.007975	0.000000	0.004689	0.000785	0.000000	0.000000
6.604435	21.261689	13.492073	-0.019928	0.068871	3.386840	0.000000	-0.007975	0.000000	0.004952	0.000785	0.000000	0.000000
6.901758	21.277715	13.457691	-0.087061	0.080498	3.384237	0.000000	0.000477	0.000000	0.005185	0.000798	0.000000	0.000000
7.450818	21.010800	13.630602	0.570705	-0.397254	3.356255	0.000000	-0.100889	0.000000	0.005576	0.000624	0.000000	0.000000
7.999878	20.039418	14.340555	1.188162	-0.903308	3.273120	0.000000	-0.200455	0.000000	0.005868	0.000438	0.000000	0.000000
8.548938	18.432190	15.638134	1.721682	-1.473716	3.136310	0.000000	-0.296458	0.000000	0.006056	0.000245	0.000000	0.000000
9.097998	16.302675	17.615782	2.133564	-2.149112	2.948256	0.000000	-0.387198	0.000000	0.006136	0.000047	0.000000	0.000000
9.543958	14.641948	19.377787	1.603353	-1.784881	2.793616	0.000000	-0.306406	0.000000	0.006193	0.000207	0.000000	0.000000
9.984918	13.431984	20.761478	1.150860	-1.340802	2.675415	0.000000	-0.229609	0.000000	0.006320	0.000369	0.000000	0.000000
10.425878	12.596526	21.724987	0.750957	-0.835707	2.590404	0.000000	-0.155430	0.000000	0.006518	0.000534	0.000000	0.000000
10.866838	12.097394	22.224463	0.385369	-0.292578	2.537611	0.000000	-0.083028	0.000000	0.006792	0.000706	0.000000	0.000000
11.309048	11.911638	22.236608	0.064485	0.212751	2.516411	0.000000	-0.017326	0.000000	0.007143	0.000868	0.000000	0.000000
11.606371	11.880744	22.114251	0.039421	0.198775	2.511001	0.000000	-0.017326	0.000000	0.007401	0.000868	0.000000	0.000000
12.086371	11.862323	21.934257	-0.001043	0.176212	2.502268	0.000000	-0.017326	0.000000	0.007818	0.000868	0.000000	0.000000
12.566371	11.882747	21.775924	-0.041508	0.153649	2.493534	0.000000	-0.017326	0.000000	0.008235	0.000868	0.000000	0.000000
13.046371	11.942018	21.639251	-0.081972	0.131086	2.484800	0.000000	-0.017326	0.000000	0.008652	0.000868	0.000000	0.000000
13.526371	12.040134	21.524239	-0.122436	0.108523	2.476067	0.000000	-0.017326	0.000000	0.009069	0.000868	0.000000	0.000000
14.007621	12.177503	21.430672	-0.163006	0.085901	2.467311	0.000000	-0.017326	0.000000	0.009487	0.000868	0.000000	0.000000
14.304943	12.281852	21.383806	-0.160801	0.024693	2.461897	0.000000	-0.022793	0.000000	0.009745	0.000846	0.000000	0.000000
14.745903	12.581565	21.127952	-0.521019	0.553236	2.466827	0.000000	0.047045	0.000000	0.010174	0.001102	0.000000	0.000000
15.186863	13.208326	20.415258	-0.905060	1.056604	2.502531	0.000000	0.117408	0.000000	0.010719	0.001372	0.000000	0.000000
15.627823	14.190801	19.278149	-1.330482	1.511886	2.569413	0.000000	0.189094	0.000000	0.011386	0.001657	0.000000	0.000000
16.068783	15.573927	17.768364	-1.816735	1.898360	2.668228	0.000000	0.262916	0.000000	0.012183	0.001961	0.000000	0.000000
16.514743	17.444638	15.932817	-2.391041	2.199466	2.801767	0.000000	0.340208	0.000000	0.013130	0.002289	0.000000	0.000000
17.063803	19.847596	13.883439	-1.957549	1.554353	2.964243	0.000000	0.254605	0.000000	0.014267	0.001845	0.000000	0.000000
17.612863	21.695081	12.477970	-1.385664	1.019990	3.078651	0.000000	0.164513	0.000000	0.015150	0.001368	0.000000	0.000000
18.161923	22.856442	11.616288	-0.715808	0.558305	3.142973	0.000000	0.071525	0.000000	0.015765	0.000867	0.000000	0.000000
18.710983	23.249542	11.237006	0.004662	0.136401	3.156074	0.000000	-0.022719	0.000000	0.016100	0.000351	0.000000	0.000000
19.009556	23.281598	11.148749	-0.060414	0.134310	3.151278	0.000000	-0.015632	0.000000	0.016217	0.000390	0.000000	0.000000
19.342889	23.326664	11.069355	-0.074783	0.103872	3.145937	0.000000	-0.015632	0.000000	0.016347	0.000390	0.000000	0.000000
19.676223	23.381309	11.010253	-0.089153	0.073434	3.140596	0.000000	-0.015632	0.000000	0.016477	0.000390	0.000000	0.000000
20.010806	23.446084	10.971200	-0.219742	0.097239	3.135255	0.000000	-0.000098	0.000000	0.016607	0.000472	0.000000	0.000000
20.308129	23.580899	10.921421	-0.285611	0.094319	3.135098	0.000000	0.006892	0.000000	0.016748	0.000513	0.000000	0.000000
20.857189	23.488035	11.039194	0.453863	-0.310033	3.113071	0.000000	-0.086530	0.000000	0.016880	-0.000032	0.000000	0.000000
21.406249	22.595630	11.610555	1.161254	-0.736478	3.040370	0.000000	-0.178416	0.000000	0.016713	-0.000576	0.000000	0.000000
21.955309	20.966790	12.676214	1.786548	-1.215404	2.918286	0.000000	-0.267146	0.000000	0.016249	-0.001110	0.000000	0.000000
22.504369	18.716702	14.312099	2.285539	-1.780936	2.748978	0.000000	-0.351153	0.000000	0.015497	-0.001625	0.000000	0.000000
22.950329	16.945147	15.781111	1.698979	-1.498254	2.609938	0.000000	-0.275288	0.000000	0.014860	-0.001231	0.000000	0.000000
23.391289	15.673310	16.952944	1.195121	-1.148534	2.504996	0.000000	-0.203041	0.000000	0.014401	-0.000854	0.000000	0.000000
23.832249	14.820329	17.791960	0.745908	-0.746538	2.431224	0.000000	-0.133099	0.000000	0.014106	-0.000486	0.000000	0.000000
24.273209	14.347189	18.259973	0.330798	-0.310562	2.387782	0.000000	-0.064668	0.000000	0.013972	-0.000124	0.000000	0.000000
24.715418	14.232433	18.335329	-0.039161	0.100625	2.374182	0.000000	-0.001997	0.000000	0.013997	0.000204	0.000000	0.000000
25.012741	14.261941	18.280363	-0.060083	0.084245	2.373528	0.000000	-0.001997	0.000000	0.014057	0.000204	0.000000	0.000000
25.346075	14.309815	18.230321	-0.083540	0.065881	2.372794	0.000000	-0.001997	0.000000	0.014125	0.000204	0.000000	0.000000
25.679408	14.373327	18.192522	-0.106997	0.047517	2.372060	0.000000	-0.001997	0.000000	0.014194	0.000204	0.000000	0.000000
26.013991	14.452510	18.167261	-0.013293	-0.118298	2.371300	0.000000	-0.021234	0.000000	0.014262	0.000089	0.000000	0.000000
26.311314	14.466446	18.242650	-0.003365	-0.173345	2.364953	0.000000	-0.026221	0.000000	0.014288	0.000056	0.000000	0.000000
26.752274	14.648313	18.197746	-0.410451	0.274769	2.368129	0.000000	0.041102	0.000000	0.014394	0.000426	0.000000	0.000000
27.193234	15.196232	17.761585	-0.836305	0.710377	2.400914	0.000000	0.108890	0.000000	0.014665	0.000801	0.000000	0.000000
27.634194	16.135267	16.954016	-1.300400	1.113652	2.463679	0.000000	0.177909	0.000000	0.015102	0.001184	0.000000	0.000000
28.075154	17.508370	15.811788	-1.823957	1.466238	2.557136	0.000000	0.248943	0.000000	0.015711	0.001582	0.000000	0.000000
28.521114	19.402588	14.369439	-2.436203	1.753318	2.683942	0.000000	0.323282	0.000000	0.016510	0.002000	0.000000	0.000000
29.070174	21.811717	12.762834	-1.923445	1.189344	2.838380	0.000000	0.241621	0.000000	0.017458	0.001449	0.000000	0.000000
29.619234	23.579018	11.725774	-1.274691	0.710120	2.947031	0.000000	0.155696	0.000000	0.018097	0.000873	0.000000	0.000000
30.168294	24.579495	11.184370	-0.535809	0.281500	3.007975	0.000000	0.067021	0.000000	0.018414	0.000281	0.000000	0.000000
30.717354	24.742387	11.100050	0.240957	-0.127061	3.020135	0.000000	-0.022838	0.000000	0.018405	-0.000315	0.000000	0.000000
31.015927	24.634341	11.169601	0.174283	-0.129879	3.015357	0.000000	-0.016224	0.000000	0.018324	-0.000271	0.000000	0.000000
31.349260	24.522800	11.266302	0.160340	-0.160225	3.010039	0.000000	-0.016224	0.000000	0.018234	-0.000271	0.000000	0.000000
31.682593	24.420553	11.383235	0.146398	-0.190572	3.004722	0.000000	-0.016224	0.000000	0.018143	-0.000271	0.000000	0.000000
32.017177	24.327271	11.520950	0.132404	-0.221032	2.999384	0.000000	-0.016224	0.000000	0.018053	-0.000271	0.000000	0.000000
32.314499	24.252465	11.660323	0.066596	-0.222479	2.994655	0.000000	-0.009633	0.000000	0.017972	-0.000228	0.000000	0.000000
32.863559	23.763811	12.142637	0.817534	-0.660919	2.965222	0.000000	-0.098385	0.000000	0.017688	-0.000805	0.000000	0.000000
33.412619	22.477154	13.129413	1.510664	-1.146455	2.887753	0.000000	-0.185404	0.000000	0.017090	-0.001369	0.000000	0.000000
33.961679	20.483500	14.690954	2.096979	-1.713684	2.763615	0.000000	-0.269155	0.000000	0.016189	-0.001908	0.000000	0.000000
34.510739	17.923851	16.938511	2.535029	-2.403023	2.594999	0.000000	-0.348160	0.000000	0.015000	-0.002414	0.000000	0.000000
34.956699	15.934998	18.949343	1.938304	-2.085961	2.456751	0.000000	-0.276290	0.000000	0.014008	-0.002037	0.000000	0.000000
35.397659	14.452276	20.614461	1.435467	-1.675050	2.350844	0.000000	-0.208010	0.000000	0.013188	-0.001687	0.000000	0.000000
35.838619	13.382690	21.881966	0.998265	-1.187901	2.274362	0.000000	-0.142082	0.000000	0.012518	-0.001355	0.000000	0.000000
36.279579	12.677317	22.694181	0.606707	-0.646688	2.226440	0.000000	-0.077758	0.000000	0.011990	-0.001039	0.000000	0.000000
36.721789	12.303267	23.014373	0.269543	-0.125925	2.206517	0.000000	-0.019108	0.000000	0.011598	-0.000762	0.000000	0.000000
37.019112	12.150692	23.093156	0.243621	-0.139049	2.201062	0.000000	-0.019108	0.000000	0.011371	-0.000762	0.000000	0.000000
37.352445	11.997965	23.190760	0.214559	-0.153762	2.194947	0.000000	-0.019108	0.000000	0.011117	-0.000762	0.000000	0.000000
37.685779	11.864613	23.298173	0.185498	-0.168476	2.188832	0.000000	-0.019108	0.000000	0.010863	-0.000762	0.000000	0.000000
38.020362	11.750244	23.415852	0.156327	-0.183244	2.182693	0.000000	-0.019108	0.000000	0.010608	-0.000762	0.000000	0.000000
38.317684	11.664955	23.528794	0.156130	-0.248509	2.177235	0.000000	-0.023909	0.000000	0.010382	-0.000786	0.000000	0.000000
38.758644	11.676536	23.487355	-0.182707	0.342112	2.180744	0.000000	0.038571	0.000000	0.010093	-0.000522	0.000000	0.000000
39.199604	11.989562	22.929866	-0.529892	0.917160	2.211769	0.000000	0.101496	0.000000	0.009920	-0.000264	0.000000	0.000000
39.640564	12.618339	21.881701	-0.901294	1.450465	2.270664	0.000000	0.165580	0.000000	0.009860	-0.000009	0.000000	0.000000
40.081524	13.591611	20.390565	-1.313891	1.917757	2.358102	0.000000	0.231550	0.000000	0.009912	0.000245	0.000000	0.000000
40.527484	14.971502	18.501649	-1.790542	2.299294	2.476558	0.000000	0.300588	0.000000	0.010079	0.000505	0.000000	0.000000
41.076544	16.734591	16.379113	-1.400929	1.588730	2.621129	0.000000	0.225829	0.000000	0.010266	0.000175	0.000000	0.000000
41.625604	18.012458	14.970598	-0.912317	0.991360	2.723660	0.000000	0.147065	0.000000	0.010271	-0.000158	0.000000	0.000000
42.174664	18.714785	14.175753	-0.359237	0.464623	2.782333	0.000000	0.065690	0.000000	0.010094	-0.000488	0.000000	0.000000
42.723724	18.791941	13.937943	0.219219	-0.029007	2.796104	0.000000	-0.016859	0.000000	0.009737	-0.000809	0.000000	0.000000
43.022297	18.692734	13.941675	0.157862	-0.016896	2.793299	0.000000	-0.010165	0.000000	0.009503	-0.000784	0.000000	0.000000
43.502297	18.553819	13.974426	0.131544	-0.051335	2.788796	0.000000	-0.010165	0.000000	0.009126	-0.000784	0.000000	0.000000
43.982297	18.440170	14.040238	0.105225	-0.085774	2.784294	0.000000	-0.010165	0.000000	0.008750	-0.000784	0.000000	0.000000
44.462297	18.351786	14.139112	0.078907	-0.120213	2.779791	0.000000	-0.010165	0.000000	0.008373	-0.000784	0.000000	0.000000
44.942297	18.288668	14.271047	0.052589	-0.154652	2.775288	0.000000	-0.010165	0.000000	0.007997	-0.000784	0.000000	0.000000
45.423547	18.250977	14.436337	-0.064224	-0.117654	2.770791	0.000000	0.003563	0.000000	0.007619	-0.000747	0.000000	0.000000
45.720870	18.294060	14.512485	-0.125363	-0.103166	2.772075	0.000000	0.010349	0.000000	0.007397	-0.000728	0.000000	0.000000
46.269930	18.123364	14.906724	0.433938	-0.619026	2.755742	0.000000	-0.071373	0.000000	0.006933	-0.000960	0.000000	0.000000
46.818990	17.351660	15.888238	0.962562	-1.178982	2.694931	0.000000	-0.151844	0.000000	0.006346	-0.001175	0.000000	0.000000
47.368050	16.033504	17.526933	1.423155	-1.822925	2.590712	0.000000	-0.229641	0.000000	0.005646	-0.001370	0.000000	0.000000
47.917110	14.262064	19.939526	1.783176	-2.596723	2.444926	0.000000	-0.303386	0.000000	0.004846	-0.001540	0.000000	0.000000
48.363070	12.882874	22.084589	1.319633	-2.192765	2.325520	0.000000	-0.235210	0.000000	0.004186	-0.001422	0.000000	0.000000
48.804030	11.898645	23.803559	0.920235	-1.690425	2.236820	0.000000	-0.170107	0.000000	0.003582	-0.001322	0.000000	0.000000
49.244990	11.246897	25.043728	0.562896	-1.111168	2.176340	0.000000	-0.106929	0.000000	0.003018	-0.001237	0.000000	0.000000
49.685950	10.897837	25.748678	0.231287	-0.481355	2.143396	0.000000	-0.044954	0.000000	0.002488	-0.001166	0.000000	0.000000
50.128160	10.835663	25.886070	-0.063793	0.108434	2.137634	0.000000	0.011377	0.000000	0.001986	-0.001113	0.000000	0.000000
50.425482	10.881789	25.825045	-0.091344	0.096814	2.141347	0.000000	0.011377	0.000000	0.001655	-0.001113	0.000000	0.000000
50.758816	10.952982	25.764845	-0.122232	0.083785	2.145511	0.000000	0.011377	0.000000	0.001284	-0.001113	0.000000	0.000000
51.092149	11.044766	25.713331	-0.153120	0.070757	2.149674	0.000000	0.011377	0.000000	0.000913	-0.001113	0.000000	0.000000
51.426732	11.157376	25.670879	-0.093608	-0.150575	2.153832	0.000000	-0.006096	0.000000	0.000540	-0.001118	0.000000	0.000000
51.724055	11.221032	25.763940	-0.093026	-0.225888	2.152352	0.000000	-0.011364	0.000000	0.000208	-0.001118	0.000000	0.000000
52.165015	11.449246	25.676483	-0.426839	0.423465	2.161456	0.000000	0.050530	0.000000	-0.000285	-0.001119	0.000000	0.000000
52.605975	11.979298	25.022697	-0.780144	1.053545	2.197959	0.000000	0.113012	0.000000	-0.000781	-0.001133	0.000000	0.000000
53.046935	12.835392	23.832341	-1.169083	1.635687	2.262282	0.000000	0.176792	0.000000	-0.001286	-0.001160	0.000000	0.000000
53.487895	14.056626	22.159582	-1.611421	2.143406	2.355162	0.000000	0.242599	0.000000	-0.001806	-0.001200	0.000000	0.000000
53.933855	15.719672	20.055505	-2.131600	2.554895	2.479193	0.000000	0.311575	0.000000	-0.002353	-0.001254	0.000000	0.000000
54.482915	17.860504	17.687739	-1.745129	1.783119	2.630556	0.000000	0.236653	0.000000	-0.003018	-0.001167	0.000000	0.000000
55.031975	19.506348	16.093166	-1.235428	1.138347	2.739511	0.000000	0.157515	0.000000	-0.003630	-0.001059	0.000000	0.000000
55.581035	20.541001	15.158197	-0.638498	0.574653	2.804116	0.000000	0.075566	0.000000	-0.004177	-0.000932	0.000000	0.000000
56.130095	20.891421	14.816227	0.003506	0.051890	2.823219	0.000000	-0.007738	0.000000	-0.004651	-0.000789	0.000000	0.000000
56.428668	20.927444	14.767214	-0.067514	0.071934	2.823434	0.000000	-0.000077	0.000000	-0.004890	-0.000802	0.000000	0.000000
56.762001	20.977788	14.726821	-0.083515	0.049244	2.823676	0.000000	-0.000077	0.000000	-0.005157	-0.000802	0.000000	0.000000
57.095334	21.038798	14.701554	-0.099516	0.026555	2.823917	0.000000	-0.000077	0.000000	-0.005425	-0.000802	0.000000	0.000000
57.429918	21.110764	14.691404	-0.115576	0.003781	2.824160	0.000000	-0.000077	0.000000	-0.005693	-0.000802	0.000000	0.000000
57.727240	21.183757	14.695158	-0.187902	0.023647	2.824377	0.000000	0.007663	0.000000	-0.005931	-0.000818	0.000000	0.000000
58.276300	21.028067	14.951159	0.469371	-0.492693	2.806056	0.000000	-0.075687	0.000000	-0.006326	-0.000619	0.000000	0.000000
58.825360	20.164768	15.789933	1.093486	-1.044118	2.742166	0.000000	-0.157706	0.000000	-0.006609	-0.000410	0.000000	0.000000
59.374420	18.654828	17.271205	1.640377	-1.669897	2.633836	0.000000	-0.236934	0.000000	-0.006775	-0.000193	0.000000	0.000000
59.923480	16.604868	19.500462	2.071428	-2.414594	2.482984	0.000000	-0.311963	0.000000	-0.006820	0.000027	0.000000	0.000000
60.369440	14.999106	21.481819	1.542135	-2.009763	2.359355	0.000000	-0.242908	0.000000	-0.006847	-0.000150	0.000000	0.000000
60.810400	13.844043	23.041757	1.087388	-1.514721	2.266972	0.000000	-0.176998	0.000000	-0.006952	-0.000328	0.000000	0.000000
61.251360	13.066633	24.132985	0.682309	-0.950775	2.203257	0.000000	-0.113100	0.000000	-0.007137	-0.000509	0.000000	0.000000
61.692320	12.631369	24.705864	0.308398	-0.343580	2.167485	0.000000	-0.050485	0.000000	-0.007402	-0.000697	0.000000	0.000000
62.134530	12.518437	24.733760	-0.018617	0.214497	2.159261	0.000000	0.005887	0.000000	-0.007753	-0.000872	0.000000	0.000000
62.431853	12.536572	24.609948	-0.042376	0.201923	2.161271	0.000000	0.005887	0.000000	-0.008012	-0.000872	0.000000	0.000000
62.765186	12.573701	24.480032	-0.069013	0.187826	2.163524	0.000000	0.005887	0.000000	-0.008303	-0.000872	0.000000	0.000000
63.098520	12.628589	24.359513	-0.095649	0.173730	2.165778	0.000000	0.005887	0.000000	-0.008594	-0.000872	0.000000	0.000000
63.433103	12.701540	24.247993	-0.122386	0.159580	2.168039	0.000000	0.005887	0.000000	-0.008886	-0.000872	0.000000	0.000000
63.730426	12.781349	24.156898	-0.112159	0.082468	2.170046	0.000000	0.000117	0.000000	-0.009145	-0.000849	0.000000	0.000000
64.171386	13.042231	23.818093	-0.482143	0.683044	2.184255	0.000000	0.062518	0.000000	-0.009572	-0.001090	0.000000	0.000000
64.612346	13.637750	22.961436	-0.874136	1.252546	2.226214	0.000000	0.125642	0.000000	-0.010108	-0.001344	0.000000	0.000000
65.053306	14.595087	21.625903	-1.306038	1.765071	2.296406	0.000000	0.190211	0.000000	-0.010759	-0.001613	0.000000	0.000000
65.494266	15.957936	19.872258	-1.797567	2.197305	2.395637	0.000000	0.256964	0.000000	-0.011533	-0.001900	0.000000	0.000000
65.940226	17.811896	17.755311	-2.375578	2.530117	2.526665	0.000000	0.327027	0.000000	-0.012448	-0.002211	0.000000	0.000000
66.489286	20.186090	15.387003	-1.924805	1.809520	2.686467	0.000000	0.250457	0.000000	-0.013548	-0.001790	0.000000	0.000000
67.038346	21.987457	13.734916	-1.338188	1.217772	2.802709	0.000000	0.169417	0.000000	-0.014408	-0.001337	0.000000	0.000000
67.587406	23.088908	12.681392	-0.657135	0.712732	2.873320	0.000000	0.085351	0.000000	-0.015012	-0.000860	0.000000	0.000000
68.136466	23.412746	12.151402	0.070285	0.258441	2.897039	0.000000	-0.000241	0.000000	-0.015349	-0.000369	0.000000	0.000000
68.435038	23.415460	11.983794	-0.011192	0.267473	2.899619	0.000000	0.008263	0.000000	-0.015472	-0.000411	0.000000	0.000000
68.768372	23.427667	11.815414	-0.025430	0.237668	2.902510	0.000000	0.008263	0.000000	-0.015609	-0.000411	0.000000	0.000000
69.101705	23.449366	11.666904	-0.039667	0.207862	2.905401	0.000000	0.008263	0.000000	-0.015746	-0.000411	0.000000	0.000000
69.436288	23.480692	11.537819	-0.053958	0.177945	2.908303	0.000000	0.008263	0.000000	-0.015884	-0.000411	0.000000	0.000000
69.733611	23.516730	11.439823	-0.135988	0.185017	2.910893	0.000000	0.016844	0.000000	-0.016006	-0.000456	0.000000	0.000000
70.282671	23.262174	11.465312	0.596841	-0.231726	2.896565	0.000000	-0.069347	0.000000	-0.016114	0.000064	0.000000	0.000000
