#ParticleID	Turn	x[m]	xp	y[m]	yp	z[m]	dE[GeV]# s	beta_x	beta_y	alpha_x	alpha_y	D_x	D_y	D_px	D_py	orbit_x	orbit_px	orbit_y	orbit_py
0.300000	11.953631	25.231492	-0.015524	-0.024202	2.600254	0.000000	-0.001023	0.000000	-0.001187	0.001008	0.000000	0.000000
0.601250	11.970578	25.249673	-0.040732	-0.036149	2.599642	0.000000	-0.001023	0.000000	-0.000883	0.001008	0.000000	0.000000
0.898573	12.002195	25.274674	-0.036015	-0.109897	2.599038	0.000000	-0.007432	0.000000	-0.000583	0.001009	0.000000	0.000000
1.339533	12.187720	25.091123	-0.385965	0.524569	2.611518	0.000000	0.066020	0.000000	-0.000141	0.001000	0.000000	0.000000
1.780493	12.688461	24.356446	-0.753556	1.135173	2.656521	0.000000	0.140214	0.000000	0.000300	0.001002	0.000000	0.000000
2.221453	13.527306	23.104061	-1.155583	1.694129	2.734557	0.000000	0.215993	0.000000	0.000744	0.001015	0.000000	0.000000
2.662413	14.742592	21.390942	-1.610416	2.176006	2.846510	0.000000	0.294222	0.000000	0.001197	0.001040	0.000000	0.000000
3.108373	16.410861	19.269915	-2.143204	2.560055	2.995488	0.000000	0.376282	0.000000	0.001669	0.001078	0.000000	0.000000
3.657433	18.549242	16.887353	-1.727724	1.804784	3.176514	0.000000	0.284134	0.000000	0.002244	0.001014	0.000000	0.000000
4.206493	20.161243	15.259142	-1.190175	1.178066	3.305529	0.000000	0.186963	0.000000	0.002779	0.000933	0.000000	0.000000
4.755553	21.132959	14.269316	-0.568528	0.635261	3.380250	0.000000	0.086489	0.000000	0.003265	0.000835	0.000000	0.000000
5.304613	21.395717	13.847381	0.093300	0.137706	3.399360	0.000000	-0.015505	0.000000	0.003693	0.000722	0.000000	0.000000
5.603185	21.376508	13.750942	0.025166	0.150408	3.397080	0.000000	-0.006900	0.000000	0.003912	0.000732	0.000000	0.000000
5.936519	21.364932	13.658933	0.009562	0.125618	3.394536	0.000000	-0.006900	0.000000	0.004156	0.000732	0.000000	0.000000
6.269852	21.363758	13.583450	-0.006041	0.100829	3.391992	0.000000	-0.006900	0.000000	0.004399	0.000732	0.000000	0.000000
6.604435	21.373040	13.524304	-0.021703	0.075947	3.389439	0.000000	-0.006900	0.000000	0.004644	0.000732	0.000000	0.000000
6.901758	21.390099	13.485707	-0.089200	0.087762	3.387171	0.000000	0.001584	0.000000	0.004862	0.000744	0.000000	0.000000
7.450818	21.123442	13.651023	0.572353	-0.390606	3.359795	0.000000	-0.099886	0.000000	0.005226	0.000581	0.000000	0.000000
7.999878	20.148204	14.353793	1.193482	-0.896804	3.277198	0.000000	-0.199574	0.000000	0.005497	0.000407	0.000000	0.000000
8.548938	18.533280	15.644089	1.730297	-1.466890	3.140848	0.000000	-0.295716	0.000000	0.005671	0.000226	0.000000	0.000000
9.097998	16.392771	17.613833	2.144869	-2.141478	2.953169	0.000000	-0.386607	0.000000	0.005745	0.000041	0.000000	0.000000
9.543958	14.723146	19.368736	1.612090	-1.776679	2.798826	0.000000	-0.305687	0.000000	0.005796	0.000191	0.000000	0.000000
9.984918	13.506456	20.745071	1.157439	-1.332407	2.680982	0.000000	-0.228751	0.000000	0.005913	0.000342	0.000000	0.000000
10.425878	12.666033	21.701224	0.755679	-0.827500	2.596395	0.000000	-0.154425	0.000000	0.006098	0.000496	0.000000	0.000000
10.866838	12.163471	22.193681	0.388448	-0.284934	2.544099	0.000000	-0.081863	0.000000	0.006352	0.000657	0.000000	0.000000
11.309048	11.975656	22.199449	0.066343	0.219340	2.523476	0.000000	-0.016031	0.000000	0.006679	0.000809	0.000000	0.000000
11.606371	11.943619	22.073193	0.041406	0.205303	2.518469	0.000000	-0.016031	0.000000	0.006920	0.000809	0.000000	0.000000
12.086371	11.923193	21.886980	0.001149	0.182640	2.510386	0.000000	-0.016031	0.000000	0.007308	0.000809	0.000000	0.000000
12.566371	11.941414	21.722523	-0.039109	0.159978	2.502302	0.000000	-0.016031	0.000000	0.007697	0.000809	0.000000	0.000000
13.046371	11.998282	21.579822	-0.079367	0.137315	2.494219	0.000000	-0.016031	0.000000	0.008085	0.000809	0.000000	0.000000
13.526371	12.093798	21.458878	-0.119625	0.114653	2.486135	0.000000	-0.016031	0.000000	0.008473	0.000809	0.000000	0.000000
14.007621	12.228362	21.359459	-0.159987	0.091932	2.478031	0.000000	-0.016031	0.000000	0.008863	0.000809	0.000000	0.000000
14.304943	12.330882	21.309017	-0.157352	0.030478	2.473021	0.000000	-0.021561	0.000000	0.009103	0.000788	0.000000	0.000000
14.745903	12.627992	21.048990	-0.518573	0.556884	2.478586	0.000000	0.048571	0.000000	0.009503	0.001028	0.000000	0.000000
15.186863	13.252975	20.334093	-0.903504	1.057948	2.515067	0.000000	0.119246	0.000000	0.010011	0.001279	0.000000	0.000000
15.627823	14.234414	19.196851	-1.329742	1.510867	2.582874	0.000000	0.191265	0.000000	0.010633	0.001545	0.000000	0.000000
16.068783	15.617194	17.689011	-1.816774	1.895026	2.682776	0.000000	0.265447	0.000000	0.011377	0.001829	0.000000	0.000000
16.514743	17.488211	15.857474	-2.391845	2.193932	2.817588	0.000000	0.343129	0.000000	0.012260	0.002136	0.000000	0.000000
17.063803	19.890985	13.812988	-1.956546	1.550973	2.981595	0.000000	0.256991	0.000000	0.013321	0.001721	0.000000	0.000000
17.612863	21.736344	12.410188	-1.382931	1.018520	3.097212	0.000000	0.166321	0.000000	0.014145	0.001276	0.000000	0.000000
18.161923	22.893799	11.549138	-0.711547	0.558639	3.162398	0.000000	0.072720	0.000000	0.014718	0.000808	0.000000	0.000000
18.710983	23.281493	11.168500	0.010148	0.138562	3.176003	0.000000	-0.022159	0.000000	0.015030	0.000326	0.000000	0.000000
19.009556	23.310683	11.078917	-0.055566	0.136417	3.171422	0.000000	-0.014947	0.000000	0.015139	0.000363	0.000000	0.000000
19.342889	23.352508	10.998188	-0.069910	0.105770	3.166318	0.000000	-0.014947	0.000000	0.015260	0.000363	0.000000	0.000000
19.676223	23.403896	10.937891	-0.084254	0.075122	3.161215	0.000000	-0.014947	0.000000	0.015381	0.000363	0.000000	0.000000
20.010806	23.465384	10.897779	-0.214912	0.098355	3.156112	0.000000	0.000690	0.000000	0.015502	0.000440	0.000000	0.000000
20.308129	23.597291	10.847405	-0.281406	0.095360	3.156198	0.000000	0.007811	0.000000	0.015633	0.000478	0.000000	0.000000
20.857189	23.499542	10.962893	0.458491	-0.306893	3.134497	0.000000	-0.086297	0.000000	0.015756	-0.000031	0.000000	0.000000
21.406249	22.601990	11.529549	1.165981	-0.731015	3.061726	0.000000	-0.178873	0.000000	0.015599	-0.000539	0.000000	0.000000
21.955309	20.968100	12.587746	1.791044	-1.207228	2.939175	0.000000	-0.268284	0.000000	0.015166	-0.001037	0.000000	0.000000
22.504369	18.713407	14.212877	2.289493	-1.769461	2.769014	0.000000	-0.352952	0.000000	0.014464	-0.001517	0.000000	0.000000
22.950329	16.938524	15.672686	1.702685	-1.489275	2.629249	0.000000	-0.276581	0.000000	0.013869	-0.001150	0.000000	0.000000
23.391289	15.663507	16.837822	1.198726	-1.142425	2.523817	0.000000	-0.203844	0.000000	0.013440	-0.000798	0.000000	0.000000
23.832249	14.807351	17.672811	0.749573	-0.743578	2.449779	0.000000	-0.133422	0.000000	0.013164	-0.000455	0.000000	0.000000
24.273209	14.330902	18.139652	0.334689	-0.310887	2.406293	0.000000	-0.064515	0.000000	0.013038	-0.000117	0.000000	0.000000
24.715418	14.212527	18.216766	-0.034578	0.096861	2.392868	0.000000	-0.001460	0.000000	0.013061	0.000190	0.000000	0.000000
25.012741	14.239316	18.164066	-0.055523	0.080387	2.392377	0.000000	-0.001460	0.000000	0.013117	0.000190	0.000000	0.000000
25.346075	14.284159	18.116631	-0.079005	0.061917	2.391827	0.000000	-0.001460	0.000000	0.013180	0.000190	0.000000	0.000000
25.679408	14.344655	18.081510	-0.102486	0.043447	2.391277	0.000000	-0.001460	0.000000	0.013244	0.000190	0.000000	0.000000
26.013991	14.420829	18.059006	-0.009064	-0.121595	2.390701	0.000000	-0.020855	0.000000	0.013307	0.000082	0.000000	0.000000
26.311314	14.432275	18.136374	0.001092	-0.176964	2.384470	0.000000	-0.025940	0.000000	0.013331	0.000051	0.000000	0.000000
26.752274	14.609812	18.095928	-0.405065	0.268319	2.387889	0.000000	0.041888	0.000000	0.013430	0.000396	0.000000	0.000000
27.193234	15.152466	17.666608	-0.829743	0.701390	2.421151	0.000000	0.110190	0.000000	0.013681	0.000746	0.000000	0.000000
27.634194	16.085056	16.867950	-1.292359	1.102538	2.484633	0.000000	0.179739	0.000000	0.014088	0.001104	0.000000	0.000000
28.075154	17.450240	15.736297	-1.814067	1.453504	2.579057	0.000000	0.251324	0.000000	0.014656	0.001474	0.000000	0.000000
28.521114	19.334526	14.305876	-2.423959	1.739520	2.707102	0.000000	0.326243	0.000000	0.015400	0.001864	0.000000	0.000000
29.070174	21.730954	12.712856	-1.912846	1.178308	2.863015	0.000000	0.243810	0.000000	0.016284	0.001351	0.000000	0.000000
29.619234	23.487810	11.686786	-1.266494	0.701058	2.972687	0.000000	0.157073	0.000000	0.016880	0.000813	0.000000	0.000000
30.168294	24.480847	11.154562	-0.530600	0.273765	3.034179	0.000000	0.067562	0.000000	0.017175	0.000261	0.000000	0.000000
30.717354	24.639837	11.078266	0.242807	-0.134020	3.046403	0.000000	-0.023145	0.000000	0.017166	-0.000295	0.000000	0.000000
31.015927	24.531039	11.151820	0.175567	-0.136653	3.041574	0.000000	-0.016383	0.000000	0.017090	-0.000254	0.000000	0.000000
31.349260	24.418663	11.253071	0.161560	-0.167101	3.036197	0.000000	-0.016383	0.000000	0.017006	-0.000254	0.000000	0.000000
31.682593	24.315625	11.374622	0.147553	-0.197550	3.030821	0.000000	-0.016383	0.000000	0.016921	-0.000254	0.000000	0.000000
32.017177	24.221592	11.517041	0.133493	-0.228113	3.025425	0.000000	-0.016383	0.000000	0.016836	-0.000254	0.000000	0.000000
32.314499	24.146125	11.660667	0.067163	-0.229311	3.020641	0.000000	-0.009648	0.000000	0.016761	-0.000213	0.000000	0.000000
32.863559	23.658827	12.150646	0.814554	-0.668142	2.990953	0.000000	-0.099234	0.000000	0.016496	-0.000752	0.000000	0.000000
33.412619	22.377354	13.145788	1.504351	-1.154584	2.912754	0.000000	-0.187072	0.000000	0.015938	-0.001277	0.000000	0.000000
33.961679	20.392339	14.716991	2.087787	-1.723297	2.787426	0.000000	-0.271611	0.000000	0.015097	-0.001780	0.000000	0.000000
34.510739	17.844161	16.976190	2.523618	-2.414800	2.617180	0.000000	-0.351359	0.000000	0.013988	-0.002252	0.000000	0.000000
34.956699	15.864441	18.997466	1.929367	-2.097613	2.477569	0.000000	-0.278935	0.000000	0.013063	-0.001901	0.000000	0.000000
35.397659	14.388730	20.672576	1.428550	-1.686016	2.370560	0.000000	-0.210134	0.000000	0.012297	-0.001574	0.000000	0.000000
35.838619	13.324509	21.949250	0.993048	-1.197683	2.293210	0.000000	-0.143709	0.000000	0.011672	-0.001265	0.000000	0.000000
36.279579	12.623101	22.769396	0.602950	-0.654843	2.244641	0.000000	-0.078909	0.000000	0.011180	-0.000970	0.000000	0.000000
36.721789	12.251802	23.095949	0.267195	-0.132717	2.224286	0.000000	-0.019878	0.000000	0.010814	-0.000712	0.000000	0.000000
37.019112	12.100646	23.178763	0.241194	-0.145818	2.218587	0.000000	-0.019878	0.000000	0.010602	-0.000712	0.000000	0.000000
37.352445	11.949566	23.280871	0.212045	-0.160504	2.212198	0.000000	-0.019878	0.000000	0.010365	-0.000712	0.000000	0.000000
37.685779	11.817919	23.392769	0.182896	-0.175191	2.205810	0.000000	-0.019878	0.000000	0.010128	-0.000712	0.000000	0.000000
38.020362	11.705320	23.514934	0.153637	-0.189933	2.199397	0.000000	-0.019878	0.000000	0.009890	-0.000712	0.000000	0.000000
38.317684	11.621659	23.631836	0.153465	-0.255791	2.193695	0.000000	-0.024753	0.000000	0.009678	-0.000734	0.000000	0.000000
38.758644	11.635168	23.595594	-0.184414	0.337656	2.196906	0.000000	0.038146	0.000000	0.009409	-0.000488	0.000000	0.000000
39.199604	11.949308	23.040714	-0.530719	0.915733	2.227824	0.000000	0.101485	0.000000	0.009247	-0.000248	0.000000	0.000000
39.640564	12.578438	21.992452	-0.901279	1.452134	2.286802	0.000000	0.165983	0.000000	0.009190	-0.000010	0.000000	0.000000
40.081524	13.551315	20.498515	-1.313032	1.922446	2.374513	0.000000	0.232372	0.000000	0.009238	0.000228	0.000000	0.000000
40.527484	14.930013	18.604167	-1.788779	2.306792	2.493439	0.000000	0.301839	0.000000	0.009393	0.000469	0.000000	0.000000
41.076544	16.692011	16.475136	-1.400760	1.593166	2.638557	0.000000	0.226525	0.000000	0.009567	0.000162	0.000000	0.000000
41.625604	17.970566	15.063293	-0.913756	0.993047	2.741316	0.000000	0.147195	0.000000	0.009571	-0.000148	0.000000	0.000000
42.174664	18.675315	14.268049	-0.362185	0.463680	2.799892	0.000000	0.065251	0.000000	0.009405	-0.000455	0.000000	0.000000
42.723724	18.756457	14.032744	0.214971	-0.032648	2.813244	0.000000	-0.017858	0.000000	0.009072	-0.000755	0.000000	0.000000
43.022297	18.659916	14.038344	0.153406	-0.019960	2.810151	0.000000	-0.011081	0.000000	0.008854	-0.000732	0.000000	0.000000
43.502297	18.525285	14.073925	0.127077	-0.054166	2.805183	0.000000	-0.011081	0.000000	0.008502	-0.000732	0.000000	0.000000
43.982297	18.415929	14.142343	0.100748	-0.088372	2.800216	0.000000	-0.011081	0.000000	0.008151	-0.000732	0.000000	0.000000
44.462297	18.331849	14.243598	0.074419	-0.122577	2.795248	0.000000	-0.011081	0.000000	0.007799	-0.000732	0.000000	0.000000
44.942297	18.273045	14.377691	0.048090	-0.156783	2.790281	0.000000	-0.011081	0.000000	0.007448	-0.000732	0.000000	0.000000
45.423547	18.239689	14.544919	-0.068677	-0.119013	2.785318	0.000000	0.002719	0.000000	0.007096	-0.000697	0.000000	0.000000
45.720870	18.285422	14.621833	-0.130026	-0.103930	2.786336	0.000000	0.009572	0.000000	0.006889	-0.000679	0.000000	0.000000
46.269930	18.119988	15.018710	0.429106	-0.623097	2.769421	0.000000	-0.072601	0.000000	0.006455	-0.000896	0.000000	0.000000
46.818990	17.353552	16.006626	0.957904	-1.186651	2.707779	0.000000	-0.153501	0.000000	0.005908	-0.001096	0.000000	0.000000
47.368050	16.040293	17.655946	1.419004	-1.834737	2.602495	0.000000	-0.231696	0.000000	0.005255	-0.001277	0.000000	0.000000
47.917110	14.273028	20.084143	1.779828	-2.613519	2.455428	0.000000	-0.305801	0.000000	0.004510	-0.001435	0.000000	0.000000
48.363070	12.896785	22.242707	1.316405	-2.206136	2.334961	0.000000	-0.237367	0.000000	0.003895	-0.001326	0.000000	0.000000
48.804030	11.915427	23.971725	0.916969	-1.699769	2.245322	0.000000	-0.172034	0.000000	0.003331	-0.001233	0.000000	0.000000
49.244990	11.266647	25.218192	0.559442	-1.116061	2.184002	0.000000	-0.108647	0.000000	0.002805	-0.001154	0.000000	0.000000
49.685950	10.920786	25.925403	0.227486	-0.481573	2.150308	0.000000	-0.046486	0.000000	0.002311	-0.001088	0.000000	0.000000
50.128160	10.862201	26.060905	-0.068015	0.112367	2.143874	0.000000	0.009993	0.000000	0.001843	-0.001039	0.000000	0.000000
50.425482	10.910822	25.997521	-0.095514	0.100814	2.147154	0.000000	0.009993	0.000000	0.001534	-0.001039	0.000000	0.000000
50.758816	10.984774	25.934629	-0.126343	0.087862	2.150831	0.000000	0.009993	0.000000	0.001188	-0.001039	0.000000	0.000000
51.092149	11.079280	25.880371	-0.157173	0.074910	2.154508	0.000000	0.009993	0.000000	0.000841	-0.001039	0.000000	0.000000
51.426732	11.194581	25.835118	-0.097300	-0.147677	2.158178	0.000000	-0.007515	0.000000	0.000494	-0.001043	0.000000	0.000000
51.724055	11.260412	25.926430	-0.096545	-0.223292	2.156253	0.000000	-0.012794	0.000000	0.000184	-0.001043	0.000000	0.000000
52.165015	11.492164	25.834795	-0.431349	0.430309	2.164716	0.000000	0.049192	0.000000	-0.000276	-0.001044	0.000000	0.000000
52.605975	12.026714	25.173208	-0.785852	1.064326	2.200615	0.000000	0.111750	0.000000	-0.000739	-0.001058	0.000000	0.000000
53.046935	12.888475	23.971780	-1.176249	1.649915	2.264363	0.000000	0.175592	0.000000	-0.001211	-0.001083	0.000000	0.000000
53.487895	14.116804	22.285186	-1.620374	2.160432	2.356691	0.000000	0.241445	0.000000	-0.001696	-0.001120	0.000000	0.000000
53.933855	15.788807	20.164948	-2.142771	2.573953	2.480180	0.000000	0.310455	0.000000	-0.002206	-0.001171	0.000000	0.000000
54.482915	17.941007	17.778804	-1.754496	1.797723	2.630879	0.000000	0.235511	0.000000	-0.002827	-0.001089	0.000000	0.000000
55.031975	19.595860	16.170148	-1.242327	1.149536	2.739167	0.000000	0.156373	0.000000	-0.003399	-0.000988	0.000000	0.000000
55.581035	20.636523	15.224389	-0.642438	0.583225	2.803115	0.000000	0.074445	0.000000	-0.003910	-0.000870	0.000000	0.000000
56.130095	20.989527	14.874156	0.002803	0.058456	2.821582	0.000000	-0.008817	0.000000	-0.004351	-0.000736	0.000000	0.000000
56.428668	21.026031	14.821173	-0.068283	0.078605	2.821452	0.000000	-0.001179	0.000000	-0.004574	-0.000748	0.000000	0.000000
56.762001	21.076862	14.776313	-0.084211	0.055976	2.821308	0.000000	-0.001179	0.000000	-0.004824	-0.000748	0.000000	0.000000
57.095334	21.138312	14.746539	-0.100138	0.033347	2.821164	0.000000	-0.001179	0.000000	-0.005073	-0.000748	0.000000	0.000000
57.429918	21.210670	14.731824	-0.116125	0.010632	2.821020	0.000000	-0.001179	0.000000	-0.005323	-0.000748	0.000000	0.000000
57.727240	21.283966	14.731490	-0.188486	0.030542	2.820893	0.000000	0.006528	0.000000	-0.005545	-0.000763	0.000000	0.000000
58.276300	21.127085	14.980437	0.472138	-0.486662	2.801956	0.000000	-0.076700	0.000000	-0.005914	-0.000577	0.000000	0.000000
58.825360	20.258992	15.812868	1.099410	-1.038521	2.737529	0.000000	-0.158578	0.000000	-0.006177	-0.000381	0.000000	0.000000
59.374420	18.740995	17.288060	1.649036	-1.664337	2.628750	0.000000	-0.237650	0.000000	-0.006331	-0.000178	0.000000	0.000000
59.923480	16.680285	19.511067	2.082211	-2.408677	2.477546	0.000000	-0.312510	0.000000	-0.006372	0.000027	0.000000	0.000000
60.369440	15.065960	21.486734	1.550623	-2.002962	2.353639	0.000000	-0.243597	0.000000	-0.006397	-0.000138	0.000000	0.000000
60.810400	13.904262	23.040417	1.093997	-1.507366	2.260912	0.000000	-0.177838	0.000000	-0.006494	-0.000304	0.000000	0.000000
61.251360	13.121738	24.125043	0.687341	-0.943199	2.196779	0.000000	-0.114101	0.000000	-0.006666	-0.000474	0.000000	0.000000
61.692320	12.682649	24.691274	0.312083	-0.336127	2.160510	0.000000	-0.051658	0.000000	-0.006913	-0.000649	0.000000	0.000000
62.134530	12.566995	24.712765	-0.016126	0.221803	2.151704	0.000000	0.004572	0.000000	-0.007240	-0.000813	0.000000	0.000000
62.431853	12.583620	24.584624	-0.039791	0.209180	2.153305	0.000000	0.004572	0.000000	-0.007482	-0.000813	0.000000	0.000000
62.765186	12.618991	24.449888	-0.066322	0.195028	2.155100	0.000000	0.004572	0.000000	-0.007753	-0.000813	0.000000	0.000000
63.098520	12.672050	24.324587	-0.092854	0.180876	2.156895	0.000000	0.004572	0.000000	-0.008024	-0.000813	0.000000	0.000000
63.433103	12.743095	24.208303	-0.119484	0.166671	2.158697	0.000000	0.004572	0.000000	-0.008296	-0.000813	0.000000	0.000000
63.730426	12.821154	24.112998	-0.109230	0.089972	2.160296	0.000000	-0.001143	0.000000	-0.008538	-0.000791	0.000000	0.000000
64.171386	13.079845	23.768145	-0.480056	0.689198	2.173864	0.000000	0.060999	0.000000	-0.008936	-0.001017	0.000000	0.000000
64.612346	13.673879	22.906754	-0.872798	1.257070	2.215059	0.000000	0.123847	0.000000	-0.009436	-0.001253	0.000000	0.000000
65.053306	14.630369	21.568017	-1.305389	1.767757	2.284353	0.000000	0.188118	0.000000	-0.010043	-0.001504	0.000000	0.000000
65.494266	15.992974	19.812843	-1.797580	2.198032	2.382542	0.000000	0.254547	0.000000	-0.010765	-0.001773	0.000000	0.000000
65.940226	17.847274	17.696143	-2.376282	2.528848	2.512355	0.000000	0.324260	0.000000	-0.011619	-0.002063	0.000000	0.000000
66.489286	20.221501	15.328478	-1.924039	1.809556	2.670701	0.000000	0.248175	0.000000	-0.012645	-0.001670	0.000000	0.000000
67.038346	22.021294	13.675617	-1.335998	1.219116	2.785779	0.000000	0.167662	0.000000	-0.013447	-0.001247	0.000000	0.000000
67.587406	23.119663	12.619843	-0.653670	0.715484	2.855540	0.000000	0.084156	0.000000	-0.014010	-0.000802	0.000000	0.000000
68.136466	23.439122	12.085967	0.074784	0.262797	2.878740	0.000000	-0.000856	0.000000	-0.014325	-0.000343	0.000000	0.000000
68.435038	23.438923	11.916074	-0.006272	0.271181	2.881095	0.000000	0.007535	0.000000	-0.014440	-0.000383	0.000000	0.000000
68.768372	23.447845	11.745297	-0.020494	0.241150	2.883735	0.000000	0.007535	0.000000	-0.014567	-0.000383	0.000000	0.000000
69.101705	23.466249	11.594541	-0.034716	0.211119	2.886374	0.000000	0.007535	0.000000	-0.014695	-0.000383	0.000000	0.000000
69.436288	23.494256	11.463352	-0.048991	0.180976	2.889023	0.000000	0.007535	0.000000	-0.014823	-0.000383	0.000000	0.000000
69.733611	23.527314	11.363625	-0.130534	0.187384	2.891387	0.000000	0.015997	0.000000	-0.014937	-0.000424	0.000000	0.000000
70.282671	23.266619	11.385340	0.602507	-0.227176	2.876760	0.000000	-0.069561	0.000000	-0.015037	0.000061	0.000000	0.000000
