#ParticleID	Turn	x[m]	xp	y[m]	yp	z[m]	dE[GeV]# s	beta_x	beta_y	alpha_x	alpha_y	D_x	D_y	D_px	D_py	orbit_x	orbit_px	orbit_y	orbit_py
0.300000	11.963153	25.290513	-0.017659	-0.022816	2.598790	0.000000	-0.000373	0.000000	-0.001093	0.000937	0.000000	0.000000
0.601250	11.981381	25.307850	-0.042848	-0.034734	2.598396	0.000000	-0.000373	0.000000	-0.000811	0.000937	0.000000	0.000000
0.898573	12.014252	25.332002	-0.038098	-0.108591	2.598006	0.000000	-0.006777	0.000000	-0.000533	0.000938	0.000000	0.000000
1.339533	12.201741	25.146635	-0.388378	0.527364	2.610799	0.000000	0.066653	0.000000	-0.000121	0.000930	0.000000	0.000000
1.780493	12.704784	24.408882	-0.756408	1.139328	2.656108	0.000000	0.140832	0.000000	0.000289	0.000932	0.000000	0.000000
2.221453	13.546373	23.152300	-1.159004	1.699457	2.734444	0.000000	0.216604	0.000000	0.000702	0.000945	0.000000	0.000000
2.662413	14.764970	21.434056	-1.614562	2.182263	2.846696	0.000000	0.294834	0.000000	0.001124	0.000968	0.000000	0.000000
3.108373	16.437315	19.307140	-2.148269	2.566954	2.995980	0.000000	0.376903	0.000000	0.001563	0.001003	0.000000	0.000000
3.657433	18.580935	16.917905	-1.732187	1.810117	3.177380	0.000000	0.284734	0.000000	0.002098	0.000944	0.000000	0.000000
4.206493	20.197336	15.284522	-1.193722	1.182214	3.306750	0.000000	0.187529	0.000000	0.002596	0.000868	0.000000	0.000000
4.755553	21.172305	14.290657	-0.570911	0.638519	3.381803	0.000000	0.087011	0.000000	0.003048	0.000776	0.000000	0.000000
5.304613	21.436942	13.865526	0.092247	0.140305	3.401212	0.000000	-0.015038	0.000000	0.003446	0.000671	0.000000	0.000000
5.603185	21.418487	13.767453	0.023919	0.153148	3.399095	0.000000	-0.006410	0.000000	0.003649	0.000680	0.000000	0.000000
5.936519	21.407732	13.673614	0.008347	0.128368	3.396732	0.000000	-0.006410	0.000000	0.003875	0.000680	0.000000	0.000000
6.269852	21.407357	13.596295	-0.007224	0.103589	3.394369	0.000000	-0.006410	0.000000	0.004102	0.000680	0.000000	0.000000
6.604435	21.417421	13.535299	-0.022855	0.078716	3.391997	0.000000	-0.006410	0.000000	0.004330	0.000680	0.000000	0.000000
6.901758	21.435154	13.495054	-0.090596	0.090653	3.389890	0.000000	0.002107	0.000000	0.004532	0.000691	0.000000	0.000000
7.450818	21.169180	13.657317	0.572488	-0.387908	3.362801	0.000000	-0.099455	0.000000	0.004870	0.000539	0.000000	0.000000
7.999878	20.192947	14.357138	1.195137	-0.894104	3.280432	0.000000	-0.199243	0.000000	0.005122	0.000377	0.000000	0.000000
8.548938	18.575420	15.644374	1.733358	-1.463997	3.144249	0.000000	-0.295491	0.000000	0.005283	0.000209	0.000000	0.000000
9.097998	16.430881	17.610729	2.149119	-2.138184	2.956669	0.000000	-0.386494	0.000000	0.005351	0.000036	0.000000	0.000000
9.543958	14.757945	19.362598	1.615311	-1.773224	2.802401	0.000000	-0.305484	0.000000	0.005398	0.000176	0.000000	0.000000
9.984918	13.538816	20.735863	1.159777	-1.328944	2.684677	0.000000	-0.228455	0.000000	0.005506	0.000316	0.000000	0.000000
10.425878	12.696681	21.689011	0.757239	-0.824187	2.600255	0.000000	-0.154032	0.000000	0.005677	0.000461	0.000000	0.000000
10.866838	12.193056	22.178665	0.389301	-0.281922	2.548172	0.000000	-0.081369	0.000000	0.005913	0.000610	0.000000	0.000000
11.309048	12.004775	22.181958	0.066728	0.221726	2.527814	0.000000	-0.015468	0.000000	0.006217	0.000752	0.000000	0.000000
11.606371	11.972491	22.054291	0.041851	0.207663	2.522991	0.000000	-0.015468	0.000000	0.006441	0.000752	0.000000	0.000000
12.086371	11.951592	21.865832	0.001689	0.184960	2.515206	0.000000	-0.015468	0.000000	0.006801	0.000752	0.000000	0.000000
12.566371	11.969249	21.699168	-0.038473	0.162257	2.507421	0.000000	-0.015468	0.000000	0.007162	0.000752	0.000000	0.000000
13.046371	12.025461	21.554299	-0.078635	0.139554	2.499636	0.000000	-0.015468	0.000000	0.007523	0.000752	0.000000	0.000000
13.526371	12.120229	21.431224	-0.118798	0.116851	2.491850	0.000000	-0.015468	0.000000	0.007884	0.000752	0.000000	0.000000
14.007621	12.253950	21.329710	-0.159064	0.094089	2.484045	0.000000	-0.015468	0.000000	0.008245	0.000752	0.000000	0.000000
14.304943	12.355908	21.277986	-0.156123	0.032335	2.479220	0.000000	-0.021049	0.000000	0.008469	0.000732	0.000000	0.000000
14.745903	12.652158	21.016706	-0.517872	0.557864	2.485073	0.000000	0.049245	0.000000	0.008840	0.000955	0.000000	0.000000
15.186863	13.276723	20.301355	-0.903297	1.058007	2.521923	0.000000	0.120090	0.000000	0.009312	0.001189	0.000000	0.000000
15.627823	14.258166	19.164482	-1.330018	1.510003	2.590184	0.000000	0.192291	0.000000	0.009891	0.001436	0.000000	0.000000
16.068783	15.641367	17.657816	-1.817542	1.893278	2.690630	0.000000	0.266667	0.000000	0.010582	0.001700	0.000000	0.000000
16.514743	17.513226	15.828249	-2.393124	2.191357	2.826089	0.000000	0.344558	0.000000	0.011403	0.001985	0.000000	0.000000
17.063803	19.916823	13.786116	-1.956887	1.549287	2.990873	0.000000	0.258134	0.000000	0.012389	0.001600	0.000000	0.000000
17.612863	21.761971	12.384756	-1.382318	1.017602	3.107088	0.000000	0.167156	0.000000	0.013155	0.001186	0.000000	0.000000
18.161923	22.918206	11.524340	-0.710029	0.558420	3.172683	0.000000	0.073232	0.000000	0.013688	0.000751	0.000000	0.000000
18.710983	23.303764	11.143573	0.012460	0.139027	3.186499	0.000000	-0.021981	0.000000	0.013977	0.000303	0.000000	0.000000
19.009556	23.331966	11.053588	-0.053869	0.137038	3.182010	0.000000	-0.014666	0.000000	0.014078	0.000337	0.000000	0.000000
19.342889	23.372654	10.972470	-0.068197	0.106316	3.177009	0.000000	-0.014666	0.000000	0.014190	0.000337	0.000000	0.000000
19.676223	23.422895	10.911834	-0.082525	0.075593	3.172008	0.000000	-0.014666	0.000000	0.014303	0.000337	0.000000	0.000000
20.010806	23.483221	10.871433	-0.213256	0.098619	3.167008	0.000000	0.001025	0.000000	0.014416	0.000409	0.000000	0.000000
20.308129	23.614115	10.820933	-0.280382	0.095772	3.167201	0.000000	0.008253	0.000000	0.014537	0.000444	0.000000	0.000000
20.857189	23.514949	10.935558	0.460025	-0.305727	3.145654	0.000000	-0.086211	0.000000	0.014651	-0.000029	0.000000	0.000000
21.406249	22.615501	11.500474	1.167917	-0.729011	3.072823	0.000000	-0.179145	0.000000	0.014506	-0.000501	0.000000	0.000000
21.955309	20.979367	12.555931	1.793251	-1.204241	2.949999	0.000000	-0.268908	0.000000	0.014102	-0.000965	0.000000	0.000000
22.504369	18.722231	14.177123	2.291822	-1.765277	2.779356	0.000000	-0.353916	0.000000	0.013449	-0.001411	0.000000	0.000000
22.950329	16.945496	15.633555	1.704684	-1.486006	2.639183	0.000000	-0.277286	0.000000	0.012896	-0.001069	0.000000	0.000000
23.391289	15.668868	16.796240	1.200465	-1.140194	2.533468	0.000000	-0.204299	0.000000	0.012497	-0.000742	0.000000	0.000000
23.832249	14.811284	17.629746	0.751128	-0.742487	2.459267	0.000000	-0.133631	0.000000	0.012240	-0.000423	0.000000	0.000000
24.273209	14.333528	18.096142	0.336131	-0.310987	2.415734	0.000000	-0.064482	0.000000	0.012123	-0.000109	0.000000	0.000000
24.715418	14.213895	18.173886	-0.032861	0.095258	2.402378	0.000000	-0.001260	0.000000	0.012144	0.000176	0.000000	0.000000
25.012741	14.239662	18.122150	-0.053801	0.078750	2.401951	0.000000	-0.001260	0.000000	0.012196	0.000176	0.000000	0.000000
25.346075	14.283355	18.075819	-0.077278	0.060242	2.401473	0.000000	-0.001260	0.000000	0.012255	0.000176	0.000000	0.000000
25.679408	14.342699	18.041827	-0.100754	0.041734	2.400994	0.000000	-0.001260	0.000000	0.012313	0.000176	0.000000	0.000000
26.013991	14.417712	18.020481	-0.007353	-0.123034	2.400490	0.000000	-0.020734	0.000000	0.012372	0.000075	0.000000	0.000000
26.311314	14.428151	18.098704	0.003125	-0.178784	2.394297	0.000000	-0.025895	0.000000	0.012394	0.000047	0.000000	0.000000
26.752274	14.603828	18.060314	-0.402877	0.265499	2.397798	0.000000	0.042186	0.000000	0.012486	0.000368	0.000000	0.000000
27.193234	15.144431	17.633883	-0.827298	0.697698	2.431265	0.000000	0.110744	0.000000	0.012719	0.000692	0.000000	0.000000
27.634194	16.074685	16.838815	-1.289544	1.098144	2.495077	0.000000	0.180556	0.000000	0.013098	0.001025	0.000000	0.000000
28.075154	17.437135	15.711293	-1.810749	1.448608	2.589958	0.000000	0.252415	0.000000	0.013625	0.001370	0.000000	0.000000
28.521114	19.318079	14.285434	-2.419953	1.734323	2.718600	0.000000	0.327620	0.000000	0.014317	0.001732	0.000000	0.000000
29.070174	21.710173	12.697585	-1.909147	1.174080	2.875223	0.000000	0.244806	0.000000	0.015138	0.001255	0.000000	0.000000
29.619234	23.463203	11.675785	-1.263373	0.697495	2.985372	0.000000	0.157669	0.000000	0.015691	0.000756	0.000000	0.000000
30.168294	24.453206	11.147238	-0.528284	0.270611	3.047097	0.000000	0.067746	0.000000	0.015966	0.000243	0.000000	0.000000
30.717354	24.610170	11.074287	0.244152	-0.136990	3.059307	0.000000	-0.023376	0.000000	0.015957	-0.000275	0.000000	0.000000
31.015927	24.500987	11.149426	0.176251	-0.139342	3.054440	0.000000	-0.016497	0.000000	0.015886	-0.000236	0.000000	0.000000
31.349260	24.388163	11.252480	0.162223	-0.169819	3.049020	0.000000	-0.016497	0.000000	0.015808	-0.000236	0.000000	0.000000
31.682593	24.284690	11.375852	0.148196	-0.200297	3.043600	0.000000	-0.016497	0.000000	0.015729	-0.000236	0.000000	0.000000
32.017177	24.190233	11.520119	0.134116	-0.230888	3.038159	0.000000	-0.016497	0.000000	0.015650	-0.000236	0.000000	0.000000
32.314499	24.114374	11.665415	0.067161	-0.231771	3.033335	0.000000	-0.009649	0.000000	0.015580	-0.000198	0.000000	0.000000
32.863559	23.627690	12.158219	0.813482	-0.670871	3.003517	0.000000	-0.099641	0.000000	0.015334	-0.000699	0.000000	0.000000
33.412619	22.347997	13.156577	1.502289	-1.157775	2.924948	0.000000	-0.187877	0.000000	0.014815	-0.001187	0.000000	0.000000
33.961679	20.365792	14.731614	2.084888	-1.727174	2.799017	0.000000	-0.272799	0.000000	0.014033	-0.001655	0.000000	0.000000
34.510739	17.821244	16.995538	2.520097	-2.419637	2.627946	0.000000	-0.352906	0.000000	0.013003	-0.002093	0.000000	0.000000
34.956699	15.844401	19.021023	1.926603	-2.102280	2.487646	0.000000	-0.280216	0.000000	0.012142	-0.001767	0.000000	0.000000
35.397659	14.370899	20.700062	1.426386	-1.690273	2.380077	0.000000	-0.211163	0.000000	0.011431	-0.001463	0.000000	0.000000
35.838619	13.308391	21.980224	0.991382	-1.201339	2.302284	0.000000	-0.144501	0.000000	0.010850	-0.001176	0.000000	0.000000
36.279579	12.608285	22.803258	0.601702	-0.657732	2.253384	0.000000	-0.079472	0.000000	0.010392	-0.000902	0.000000	0.000000
36.721789	12.237932	23.131985	0.266506	-0.135234	2.232804	0.000000	-0.020280	0.000000	0.010052	-0.000662	0.000000	0.000000
37.019112	12.087192	23.216293	0.240485	-0.148323	2.226971	0.000000	-0.020280	0.000000	0.009855	-0.000662	0.000000	0.000000
37.352445	11.936592	23.320066	0.211313	-0.162996	2.220432	0.000000	-0.020280	0.000000	0.009635	-0.000662	0.000000	0.000000
37.685779	11.805441	23.433621	0.182141	-0.177670	2.213892	0.000000	-0.020280	0.000000	0.009414	-0.000662	0.000000	0.000000
38.020362	11.693356	23.557440	0.152859	-0.192398	2.207328	0.000000	-0.020280	0.000000	0.009193	-0.000662	0.000000	0.000000
38.317684	11.610168	23.675796	0.152833	-0.258718	2.201493	0.000000	-0.025209	0.000000	0.008996	-0.000683	0.000000	0.000000
38.758644	11.624124	23.641616	-0.184787	0.335928	2.204528	0.000000	0.037888	0.000000	0.008746	-0.000454	0.000000	0.000000
39.199604	11.938487	23.087705	-0.530850	0.915284	2.235364	0.000000	0.101422	0.000000	0.008595	-0.000230	0.000000	0.000000
39.640564	12.567623	22.039276	-0.901173	1.452984	2.294352	0.000000	0.166113	0.000000	0.008542	-0.000010	0.000000	0.000000
40.081524	13.540290	20.544041	-1.312683	1.924559	2.382166	0.000000	0.232697	0.000000	0.008587	0.000211	0.000000	0.000000
40.527484	14.918531	18.647307	-1.788155	2.310063	2.501290	0.000000	0.302362	0.000000	0.008731	0.000436	0.000000	0.000000
41.076544	16.680058	16.515434	-1.400572	1.595138	2.646636	0.000000	0.226791	0.000000	0.008892	0.000150	0.000000	0.000000
41.625604	17.958641	15.102083	-0.914019	0.993860	2.749469	0.000000	0.147200	0.000000	0.008896	-0.000138	0.000000	0.000000
42.174664	18.663920	14.306561	-0.362882	0.463391	2.807964	0.000000	0.064995	0.000000	0.008741	-0.000424	0.000000	0.000000
42.723724	18.746057	14.072189	0.213888	-0.034062	2.821082	0.000000	-0.018371	0.000000	0.008432	-0.000702	0.000000	0.000000
43.022297	18.650320	14.078438	0.152070	-0.021024	2.817839	0.000000	-0.011533	0.000000	0.008229	-0.000681	0.000000	0.000000
43.502297	18.516971	14.114993	0.125738	-0.055134	2.812630	0.000000	-0.011533	0.000000	0.007902	-0.000681	0.000000	0.000000
43.982297	18.408902	14.184294	0.099406	-0.089244	2.807420	0.000000	-0.011533	0.000000	0.007575	-0.000681	0.000000	0.000000
44.462297	18.326111	14.286341	0.073074	-0.123353	2.802211	0.000000	-0.011533	0.000000	0.007249	-0.000681	0.000000	0.000000
44.942297	18.268599	14.421133	0.046742	-0.157463	2.797002	0.000000	-0.011533	0.000000	0.006922	-0.000681	0.000000	0.000000
45.423547	18.236541	14.588968	-0.070012	-0.119379	2.791797	0.000000	0.002299	0.000000	0.006594	-0.000648	0.000000	0.000000
45.720870	18.283067	14.666085	-0.131562	-0.103954	2.792675	0.000000	0.009198	0.000000	0.006402	-0.000632	0.000000	0.000000
46.269930	18.119371	15.063709	0.427526	-0.624447	2.775471	0.000000	-0.073174	0.000000	0.005999	-0.000833	0.000000	0.000000
46.818990	17.354668	16.053868	0.956393	-1.189422	2.713425	0.000000	-0.154263	0.000000	0.005490	-0.001019	0.000000	0.000000
47.368050	16.043010	17.707087	1.417671	-1.839126	2.607631	0.000000	-0.232631	0.000000	0.004884	-0.001187	0.000000	0.000000
47.917110	14.277097	20.141117	1.778771	-2.619838	2.459957	0.000000	-0.306891	0.000000	0.004191	-0.001334	0.000000	0.000000
48.363070	12.901802	22.304717	1.315380	-2.211085	2.338987	0.000000	-0.238348	0.000000	0.003619	-0.001233	0.000000	0.000000
48.804030	11.921372	24.037404	0.915922	-1.703122	2.248899	0.000000	-0.172917	0.000000	0.003095	-0.001146	0.000000	0.000000
49.244990	11.273557	25.286062	0.558325	-1.117666	2.187174	0.000000	-0.109444	0.000000	0.002606	-0.001072	0.000000	0.000000
49.685950	10.928743	25.993885	0.226246	-0.481357	2.153112	0.000000	-0.047205	0.000000	0.002147	-0.001011	0.000000	0.000000
50.128160	10.871341	26.128389	-0.069379	0.114127	2.146343	0.000000	0.009329	0.000000	0.001712	-0.000966	0.000000	0.000000
50.425482	10.920768	26.063951	-0.096860	0.102600	2.149403	0.000000	0.009329	0.000000	0.001424	-0.000966	0.000000	0.000000
50.758816	10.995611	25.999859	-0.127670	0.089676	2.152835	0.000000	0.009329	0.000000	0.001103	-0.000966	0.000000	0.000000
51.092149	11.090994	25.944383	-0.158479	0.076752	2.156266	0.000000	0.009329	0.000000	0.000781	-0.000966	0.000000	0.000000
51.426732	11.207163	25.897888	-0.098484	-0.146316	2.159689	0.000000	-0.008192	0.000000	0.000458	-0.000969	0.000000	0.000000
51.724055	11.273690	25.988381	-0.097669	-0.222031	2.157541	0.000000	-0.013475	0.000000	0.000169	-0.000970	0.000000	0.000000
52.165015	11.506586	25.894916	-0.432805	0.433184	2.165679	0.000000	0.048541	0.000000	-0.000258	-0.000971	0.000000	0.000000
52.605975	12.042602	25.230125	-0.787708	1.068686	2.201264	0.000000	0.111119	0.000000	-0.000688	-0.000983	0.000000	0.000000
53.046935	12.906219	24.024268	-1.178591	1.655561	2.264705	0.000000	0.174974	0.000000	-0.001127	-0.001007	0.000000	0.000000
53.487895	14.136881	22.332216	-1.623309	2.167108	2.356729	0.000000	0.240832	0.000000	-0.001578	-0.001041	0.000000	0.000000
53.933855	15.811835	20.205671	-2.146443	2.581358	2.479909	0.000000	0.309839	0.000000	-0.002052	-0.001088	0.000000	0.000000
54.482915	17.967781	17.812361	-1.757560	1.803435	2.630232	0.000000	0.234910	0.000000	-0.002630	-0.001013	0.000000	0.000000
55.031975	19.625588	16.198166	-1.244563	1.153963	2.738159	0.000000	0.155798	0.000000	-0.003161	-0.000919	0.000000	0.000000
55.581035	20.668199	15.248100	-0.643688	0.586682	2.801766	0.000000	0.073907	0.000000	-0.003636	-0.000809	0.000000	0.000000
56.130095	21.022008	14.894487	0.002631	0.061189	2.819921	0.000000	-0.009307	0.000000	-0.004046	-0.000684	0.000000	0.000000
56.428668	21.058580	14.839897	-0.068384	0.081303	2.819622	0.000000	-0.001692	0.000000	-0.004254	-0.000695	0.000000	0.000000
56.762001	21.109471	14.793232	-0.084287	0.058692	2.819290	0.000000	-0.001692	0.000000	-0.004485	-0.000695	0.000000	0.000000
57.095334	21.170963	14.761641	-0.100190	0.036082	2.818958	0.000000	-0.001692	0.000000	-0.004717	-0.000695	0.000000	0.000000
57.429918	21.243347	14.745090	-0.116152	0.013386	2.818624	0.000000	-0.001692	0.000000	-0.004950	-0.000695	0.000000	0.000000
57.727240	21.316651	14.743114	-0.188405	0.033234	2.818329	0.000000	0.005986	0.000000	-0.005156	-0.000709	0.000000	0.000000
58.276300	21.159092	14.989269	0.473311	-0.484233	2.799092	0.000000	-0.077156	0.000000	-0.005499	-0.000536	0.000000	0.000000
58.825360	20.289152	15.819104	1.101590	-1.036183	2.734422	0.000000	-0.158938	0.000000	-0.005743	-0.000354	0.000000	0.000000
59.374420	18.768272	17.291712	1.652071	-1.661924	2.625462	0.000000	-0.237907	0.000000	-0.005886	-0.000166	0.000000	0.000000
59.923480	16.703846	19.511965	2.085883	-2.406020	2.474142	0.000000	-0.312660	0.000000	-0.005925	0.000026	0.000000	0.000000
60.369440	15.086592	21.485134	1.553540	-2.000031	2.350147	0.000000	-0.243835	0.000000	-0.005947	-0.000128	0.000000	0.000000
60.810400	13.922591	23.036177	1.096310	-1.504308	2.257288	0.000000	-0.178167	0.000000	-0.006038	-0.000283	0.000000	0.000000
61.251360	13.138253	24.118108	0.689157	-0.940152	2.192977	0.000000	-0.114524	0.000000	-0.006197	-0.000440	0.000000	0.000000
61.692320	12.697754	24.681712	0.313485	-0.333230	2.156482	0.000000	-0.052182	0.000000	-0.006427	-0.000603	0.000000	0.000000
62.134530	12.581025	24.700760	-0.015181	0.224711	2.147399	0.000000	0.003978	0.000000	-0.006731	-0.000756	0.000000	0.000000
62.431853	12.597081	24.570896	-0.038819	0.212066	2.148806	0.000000	0.003978	0.000000	-0.006956	-0.000756	0.000000	0.000000
62.765186	12.631794	24.434244	-0.065320	0.197890	2.150384	0.000000	0.003978	0.000000	-0.007208	-0.000756	0.000000	0.000000
63.098520	12.684175	24.307042	-0.091822	0.183714	2.151962	0.000000	0.003978	0.000000	-0.007460	-0.000756	0.000000	0.000000
63.433103	12.754519	24.188868	-0.118422	0.169484	2.153546	0.000000	0.003978	0.000000	-0.007712	-0.000756	0.000000	0.000000
63.730426	12.831942	24.091889	-0.108282	0.093161	2.154951	0.000000	-0.001695	0.000000	-0.007937	-0.000736	0.000000	0.000000
64.171386	13.089914	23.744493	-0.479337	0.691750	2.168219	0.000000	0.060307	0.000000	-0.008307	-0.000945	0.000000	0.000000
64.612346	13.683421	22.881168	-0.872276	1.258869	2.209042	0.000000	0.123005	0.000000	-0.008772	-0.001165	0.000000	0.000000
65.053306	14.639556	21.541195	-1.305042	1.768721	2.277890	0.000000	0.187117	0.000000	-0.009336	-0.001398	0.000000	0.000000
65.494266	16.001962	19.785539	-1.797395	2.198115	2.375552	0.000000	0.253374	0.000000	-0.010007	-0.001648	0.000000	0.000000
65.940226	17.856199	17.669158	-2.376276	2.528054	2.504743	0.000000	0.322902	0.000000	-0.010802	-0.001917	0.000000	0.000000
66.489286	20.230264	15.301997	-1.923630	1.809377	2.662344	0.000000	0.247073	0.000000	-0.011755	-0.001552	0.000000	0.000000
67.038346	22.029452	13.648979	-1.335208	1.219543	2.776840	0.000000	0.166837	0.000000	-0.012501	-0.001159	0.000000	0.000000
67.587406	23.126808	12.592376	-0.652550	0.716549	2.846192	0.000000	0.083625	0.000000	-0.013024	-0.000746	0.000000	0.000000
68.136466	23.444909	12.056940	0.076159	0.264577	2.869163	0.000000	-0.001082	0.000000	-0.013317	-0.000319	0.000000	0.000000
68.435038	23.443630	11.886200	-0.004431	0.272539	2.871418	0.000000	0.007221	0.000000	-0.013423	-0.000356	0.000000	0.000000
68.768372	23.451324	11.714549	-0.018650	0.242413	2.873943	0.000000	0.007221	0.000000	-0.013542	-0.000356	0.000000	0.000000
69.101705	23.468497	11.562983	-0.032869	0.212286	2.876469	0.000000	0.007221	0.000000	-0.013660	-0.000356	0.000000	0.000000
69.436288	23.495267	11.431046	-0.047141	0.182046	2.879004	0.000000	0.007221	0.000000	-0.013780	-0.000356	0.000000	0.000000
69.733611	23.527203	11.330719	-0.128181	0.188035	2.881265	0.000000	0.015593	0.000000	-0.013885	-0.000394	0.000000	0.000000
70.282671	23.263938	11.351216	0.604810	-0.225593	2.866499	0.000000	-0.069638	0.000000	-0.013978	0.000057	0.000000	0.000000
