#ParticleID	Turn	x[m]	xp	y[m]	yp	z[m]	dE[GeV]# s	beta_x	beta_y	alpha_x	alpha_y	D_x	D_y	D_px	D_py	orbit_x	orbit_px	orbit_y	orbit_py
0.300000	11.846541	24.976575	-0.014631	-0.027132	2.616640	0.000000	0.000024	0.000000	-0.000066	0.000058	0.000000	0.000000
0.601250	11.863018	24.996558	-0.040066	-0.039202	2.616630	0.000000	0.000024	0.000000	-0.000048	0.000058	0.000000	0.000000
0.898573	11.894307	25.023411	-0.035992	-0.112477	2.616620	0.000000	-0.006394	0.000000	-0.000031	0.000058	0.000000	0.000000
1.339533	12.078584	24.845056	-0.383474	0.515408	2.630060	0.000000	0.067524	0.000000	-0.000006	0.000058	0.000000	0.000000
1.780493	12.575851	24.121221	-0.748476	1.119843	2.676234	0.000000	0.142211	0.000000	0.000020	0.000058	0.000000	0.000000
2.221453	13.408827	22.884839	-1.147674	1.673327	2.755667	0.000000	0.218517	0.000000	0.000045	0.000059	0.000000	0.000000
2.662413	14.615569	21.192165	-1.599306	2.150675	2.869264	0.000000	0.297311	0.000000	0.000072	0.000060	0.000000	0.000000
3.108373	16.272060	19.095389	-2.128317	2.531302	3.020177	0.000000	0.379980	0.000000	0.000099	0.000062	0.000000	0.000000
3.657433	18.396123	16.740482	-1.717291	1.782987	3.203523	0.000000	0.287002	0.000000	0.000132	0.000059	0.000000	0.000000
4.206493	19.999144	15.133172	-1.184962	1.161670	3.334345	0.000000	0.188935	0.000000	0.000163	0.000054	0.000000	0.000000
4.755553	20.967891	14.158976	-0.568932	0.623097	3.410325	0.000000	0.087517	0.000000	0.000191	0.000048	0.000000	0.000000
5.304613	21.233935	13.748503	0.087285	0.128905	3.430115	0.000000	-0.015452	0.000000	0.000216	0.000042	0.000000	0.000000
5.603185	21.219085	13.656781	0.017830	0.142448	3.428159	0.000000	-0.006506	0.000000	0.000228	0.000042	0.000000	0.000000
5.936519	21.212436	13.570117	0.002116	0.117545	3.425977	0.000000	-0.006506	0.000000	0.000242	0.000042	0.000000	0.000000
6.269852	21.216264	13.500054	-0.013598	0.092642	3.423794	0.000000	-0.006506	0.000000	0.000256	0.000042	0.000000	0.000000
6.604435	21.230641	13.446425	-0.029371	0.067645	3.421603	0.000000	-0.006506	0.000000	0.000271	0.000042	0.000000	0.000000
6.901758	21.252274	13.412804	-0.098784	0.080403	3.419656	0.000000	0.002407	0.000000	0.000283	0.000043	0.000000	0.000000
7.450818	20.998428	13.585065	0.558396	-0.395991	3.392774	0.000000	-0.100108	0.000000	0.000304	0.000033	0.000000	0.000000
7.999878	20.040401	14.292792	1.176134	-0.900591	3.310016	0.000000	-0.200848	0.000000	0.000320	0.000023	0.000000	0.000000
8.548938	18.445863	15.586396	1.710795	-1.469339	3.172848	0.000000	-0.298025	0.000000	0.000329	0.000013	0.000000	0.000000
9.097998	16.327446	17.558018	2.124612	-2.142745	2.983705	0.000000	-0.389915	0.000000	0.000333	0.000002	0.000000	0.000000
9.543958	14.674516	19.314887	1.595011	-1.780112	2.828112	0.000000	-0.308251	0.000000	0.000336	0.000011	0.000000	0.000000
9.984918	13.471901	20.694985	1.142594	-1.337721	2.709416	0.000000	-0.230583	0.000000	0.000343	0.000019	0.000000	0.000000
10.425878	12.643844	21.656496	0.742380	-0.834465	2.624354	0.000000	-0.155541	0.000000	0.000353	0.000028	0.000000	0.000000
10.866838	12.152513	22.155671	0.376083	-0.293240	2.571956	0.000000	-0.082271	0.000000	0.000368	0.000038	0.000000	0.000000
11.309048	11.975321	22.169279	0.056123	0.207085	2.551607	0.000000	-0.016173	0.000000	0.000387	0.000046	0.000000	0.000000
11.606371	11.949352	22.050296	0.031217	0.193098	2.546784	0.000000	-0.016173	0.000000	0.000401	0.000046	0.000000	0.000000
12.086371	11.938684	21.875760	-0.008991	0.170518	2.538999	0.000000	-0.016173	0.000000	0.000423	0.000046	0.000000	0.000000
12.566371	11.966616	21.722901	-0.049200	0.147938	2.531213	0.000000	-0.016173	0.000000	0.000445	0.000046	0.000000	0.000000
13.046371	12.033148	21.591719	-0.089409	0.125358	2.523427	0.000000	-0.016173	0.000000	0.000467	0.000046	0.000000	0.000000
13.526371	12.138281	21.482213	-0.129618	0.102778	2.515642	0.000000	-0.016173	0.000000	0.000490	0.000046	0.000000	0.000000
14.007621	12.282439	21.394184	-0.169931	0.080139	2.507836	0.000000	-0.016173	0.000000	0.000512	0.000046	0.000000	0.000000
14.304943	12.390892	21.350689	-0.164602	0.014069	2.503013	0.000000	-0.022281	0.000000	0.000526	0.000045	0.000000	0.000000
14.745903	12.694879	21.104586	-0.527365	0.541909	2.508791	0.000000	0.048611	0.000000	0.000549	0.000059	0.000000	0.000000
15.186863	13.328175	20.402103	-0.914222	1.045093	2.545916	0.000000	0.120056	0.000000	0.000578	0.000074	0.000000	0.000000
15.627823	14.319714	19.275201	-1.342850	1.500725	2.614809	0.000000	0.192867	0.000000	0.000614	0.000089	0.000000	0.000000
16.068783	15.714801	17.775154	-1.832830	1.888075	2.716257	0.000000	0.267875	0.000000	0.000657	0.000105	0.000000	0.000000
16.514743	17.600823	15.948715	-2.411324	2.190278	2.853108	0.000000	0.346396	0.000000	0.000708	0.000123	0.000000	0.000000
17.063803	20.022746	13.909272	-1.973495	1.546036	3.019524	0.000000	0.259105	0.000000	0.000769	0.000099	0.000000	0.000000
17.612863	21.884012	12.513029	-1.396261	1.011915	3.136691	0.000000	0.167218	0.000000	0.000816	0.000073	0.000000	0.000000
18.161923	23.053140	11.660535	-0.720397	0.549873	3.202531	0.000000	0.072367	0.000000	0.000849	0.000046	0.000000	0.000000
18.710983	23.447544	11.291069	0.006355	0.126998	3.215876	0.000000	-0.023767	0.000000	0.000867	0.000019	0.000000	0.000000
19.009556	23.483879	11.205834	-0.067235	0.129193	3.211264	0.000000	-0.015426	0.000000	0.000873	0.000021	0.000000	0.000000
19.342889	23.533455	11.129787	-0.081493	0.098950	3.206115	0.000000	-0.015426	0.000000	0.000880	0.000021	0.000000	0.000000
19.676223	23.592537	11.073901	-0.095752	0.068707	3.200966	0.000000	-0.015426	0.000000	0.000887	0.000021	0.000000	0.000000
20.010806	23.661692	11.037945	-0.227296	0.093039	3.195817	0.000000	0.000408	0.000000	0.000894	0.000025	0.000000	0.000000
20.308129	23.800783	10.990697	-0.302227	0.094373	3.195931	0.000000	0.008695	0.000000	0.000902	0.000028	0.000000	0.000000
20.857189	23.722188	11.109389	0.444532	-0.311820	3.174488	0.000000	-0.086662	0.000000	0.000909	-0.000002	0.000000	0.000000
21.406249	22.836001	11.683642	1.159890	-0.740224	3.101049	0.000000	-0.180481	0.000000	0.000900	-0.000031	0.000000	0.000000
21.955309	21.204822	12.754360	1.793315	-1.221354	2.976916	0.000000	-0.271100	0.000000	0.000875	-0.000060	0.000000	0.000000
22.504369	18.943876	14.397808	2.300064	-1.789481	2.804291	0.000000	-0.356911	0.000000	0.000834	-0.000087	0.000000	0.000000
22.950329	17.162426	15.873232	1.708607	-1.504954	2.662444	0.000000	-0.279720	0.000000	0.000800	-0.000066	0.000000	0.000000
23.391289	15.884697	17.049694	1.199933	-1.152821	2.555439	0.000000	-0.206171	0.000000	0.000775	-0.000046	0.000000	0.000000
23.832249	15.029809	17.891196	0.746082	-0.748236	2.480310	0.000000	-0.134970	0.000000	0.000760	-0.000026	0.000000	0.000000
24.273209	14.558703	18.359448	0.326319	-0.309605	2.436202	0.000000	-0.065306	0.000000	0.000752	-0.000007	0.000000	0.000000
24.715418	14.449961	18.432900	-0.043439	0.098160	2.422609	0.000000	-0.002284	0.000000	0.000754	0.000011	0.000000	0.000000
25.012741	14.481921	18.379371	-0.064054	0.081875	2.421926	0.000000	-0.002284	0.000000	0.000757	0.000011	0.000000	0.000000
25.346075	14.532328	18.330874	-0.087166	0.063617	2.421161	0.000000	-0.002284	0.000000	0.000761	0.000011	0.000000	0.000000
25.679408	14.598142	18.294549	-0.110278	0.045359	2.420396	0.000000	-0.002284	0.000000	0.000764	0.000011	0.000000	0.000000
26.013991	14.679401	18.270699	-0.014387	-0.121188	2.419603	0.000000	-0.021914	0.000000	0.000768	0.000005	0.000000	0.000000
26.311314	14.693979	18.347672	0.001126	-0.182366	2.413086	0.000000	-0.027788	0.000000	0.000769	0.000003	0.000000	0.000000
26.752274	14.874101	18.309487	-0.411144	0.268631	2.415936	0.000000	0.040748	0.000000	0.000775	0.000023	0.000000	0.000000
27.193234	15.424699	17.877445	-0.842198	0.707405	2.449072	0.000000	0.109748	0.000000	0.000790	0.000043	0.000000	0.000000
27.634194	16.370927	17.071204	-1.311732	1.113992	2.512873	0.000000	0.179998	0.000000	0.000813	0.000064	0.000000	0.000000
28.075154	17.756021	15.927449	-1.841198	1.469892	2.608064	0.000000	0.252297	0.000000	0.000846	0.000085	0.000000	0.000000
28.521114	19.667344	14.480988	-2.459754	1.759842	2.737334	0.000000	0.327915	0.000000	0.000889	0.000107	0.000000	0.000000
29.070174	22.096734	12.869242	-1.938575	1.192913	2.894669	0.000000	0.244521	0.000000	0.000940	0.000078	0.000000	0.000000
29.619234	23.874749	11.830024	-1.280458	0.710955	3.004972	0.000000	0.156791	0.000000	0.000974	0.000047	0.000000	0.000000
30.168294	24.875789	11.289313	-0.531891	0.279638	3.066287	0.000000	0.066281	0.000000	0.000991	0.000015	0.000000	0.000000
30.717354	25.029141	11.208595	0.254248	-0.131761	3.077526	0.000000	-0.025405	0.000000	0.000990	-0.000017	0.000000	0.000000
31.015927	24.919733	11.277968	0.177039	-0.129635	3.072326	0.000000	-0.017431	0.000000	0.000986	-0.000015	0.000000	0.000000
31.349260	24.806305	11.374409	0.163243	-0.159687	3.066521	0.000000	-0.017431	0.000000	0.000981	-0.000015	0.000000	0.000000
31.682593	24.702075	11.490885	0.149448	-0.189740	3.060715	0.000000	-0.017431	0.000000	0.000976	-0.000015	0.000000	0.000000
32.017177	24.606702	11.627946	0.135601	-0.219906	3.054888	0.000000	-0.017431	0.000000	0.000971	-0.000015	0.000000	0.000000
32.314499	24.529727	11.766681	0.059725	-0.216220	3.049710	0.000000	-0.009527	0.000000	0.000967	-0.000012	0.000000	0.000000
32.863559	24.043985	12.243441	0.819687	-0.657214	3.019609	0.000000	-0.100006	0.000000	0.000952	-0.000043	0.000000	0.000000
33.412619	22.750702	13.227183	1.521748	-1.145022	2.940260	0.000000	-0.188712	0.000000	0.000920	-0.000073	0.000000	0.000000
33.961679	20.741236	14.787977	2.116314	-1.714388	2.813070	0.000000	-0.274071	0.000000	0.000872	-0.000102	0.000000	0.000000
34.510739	18.157535	17.036997	2.561387	-2.405869	2.640293	0.000000	-0.354571	0.000000	0.000808	-0.000130	0.000000	0.000000
34.956699	16.148921	19.048607	1.958677	-2.085997	2.498563	0.000000	-0.281633	0.000000	0.000755	-0.000109	0.000000	0.000000
35.397659	14.651271	20.712071	1.450468	-1.671976	2.389798	0.000000	-0.212332	0.000000	0.000710	-0.000090	0.000000	0.000000
35.838619	13.571025	21.975327	1.008529	-1.181881	2.311024	0.000000	-0.145448	0.000000	0.000675	-0.000073	0.000000	0.000000
36.279579	12.858826	22.780899	0.612669	-0.638009	2.261342	0.000000	-0.080221	0.000000	0.000646	-0.000056	0.000000	0.000000
36.721789	12.481447	23.092436	0.275122	-0.121444	2.240162	0.000000	-0.021367	0.000000	0.000625	-0.000041	0.000000	0.000000
37.019112	12.325465	23.168537	0.249498	-0.134510	2.233821	0.000000	-0.021367	0.000000	0.000613	-0.000041	0.000000	0.000000
37.352445	12.168709	23.263093	0.220770	-0.149157	2.226712	0.000000	-0.021367	0.000000	0.000600	-0.000041	0.000000	0.000000
37.685779	12.031105	23.367414	0.192042	-0.163805	2.219603	0.000000	-0.021367	0.000000	0.000586	-0.000041	0.000000	0.000000
38.020362	11.912244	23.481946	0.163207	-0.178507	2.212468	0.000000	-0.021367	0.000000	0.000572	-0.000041	0.000000	0.000000
38.317684	11.822813	23.591979	0.166422	-0.249134	2.206127	0.000000	-0.026748	0.000000	0.000560	-0.000042	0.000000	0.000000
38.758644	11.826927	23.550390	-0.175801	0.343090	2.208277	0.000000	0.036443	0.000000	0.000545	-0.000028	0.000000	0.000000
39.199604	12.135247	22.991417	-0.526055	0.919703	2.238352	0.000000	0.100050	0.000000	0.000536	-0.000014	0.000000	0.000000
39.640564	12.761858	21.940494	-0.900343	1.454470	2.296693	0.000000	0.164796	0.000000	0.000533	-0.000000	0.000000	0.000000
40.081524	13.735389	20.445438	-1.315767	1.923059	2.383965	0.000000	0.231420	0.000000	0.000536	0.000014	0.000000	0.000000
40.527484	15.117872	18.551694	-1.795136	2.305442	2.502636	0.000000	0.301086	0.000000	0.000545	0.000028	0.000000	0.000000
41.076544	16.882623	16.423642	-1.399934	1.593215	2.647404	0.000000	0.225501	0.000000	0.000555	0.000010	0.000000	0.000000
41.625604	18.156184	15.011174	-0.905845	0.994470	2.749520	0.000000	0.145917	0.000000	0.000555	-0.000008	0.000000	0.000000
42.174664	18.848593	14.213682	-0.347770	0.466560	2.807173	0.000000	0.063744	0.000000	0.000546	-0.000026	0.000000	0.000000
42.723724	18.910942	13.974361	0.234869	-0.028116	2.819339	0.000000	-0.019560	0.000000	0.000527	-0.000043	0.000000	0.000000
43.022297	18.804942	13.975818	0.169344	-0.013124	2.815701	0.000000	-0.012226	0.000000	0.000514	-0.000042	0.000000	0.000000
43.502297	18.654975	14.004906	0.143087	-0.047475	2.809853	0.000000	-0.012226	0.000000	0.000494	-0.000042	0.000000	0.000000
43.982297	18.530215	14.066970	0.116830	-0.081826	2.804004	0.000000	-0.012226	0.000000	0.000474	-0.000042	0.000000	0.000000
44.462297	18.430662	14.162012	0.090573	-0.116177	2.798156	0.000000	-0.012226	0.000000	0.000454	-0.000042	0.000000	0.000000
44.942297	18.356315	14.290030	0.064315	-0.150528	2.792308	0.000000	-0.012226	0.000000	0.000434	-0.000042	0.000000	0.000000
45.423547	18.307308	14.451308	-0.052715	-0.113368	2.786462	0.000000	0.001580	0.000000	0.000413	-0.000040	0.000000	0.000000
45.720870	18.343497	14.524917	-0.116767	-0.096391	2.786943	0.000000	0.008837	0.000000	0.000402	-0.000039	0.000000	0.000000
46.269930	18.162826	14.911739	0.443848	-0.612279	2.769237	0.000000	-0.073327	0.000000	0.000377	-0.000052	0.000000	0.000000
46.818990	17.380178	15.885550	0.973111	-1.171779	2.706714	0.000000	-0.154191	0.000000	0.000345	-0.000063	0.000000	0.000000
47.368050	16.050836	17.515714	1.433635	-1.814742	2.600484	0.000000	-0.232321	0.000000	0.000307	-0.000074	0.000000	0.000000
47.917110	14.268703	19.918344	1.792893	-2.586966	2.452430	0.000000	-0.306332	0.000000	0.000264	-0.000083	0.000000	0.000000
48.363070	12.881591	22.054547	1.328482	-2.183006	2.331151	0.000000	-0.238004	0.000000	0.000229	-0.000077	0.000000	0.000000
48.804030	11.890083	23.764931	0.928536	-1.680997	2.240698	0.000000	-0.172784	0.000000	0.000196	-0.000071	0.000000	0.000000
49.244990	11.231329	24.997036	0.571013	-1.102505	2.178542	0.000000	-0.109531	0.000000	0.000166	-0.000067	0.000000	0.000000
49.685950	10.875232	25.694802	0.239578	-0.473849	2.143975	0.000000	-0.047524	0.000000	0.000137	-0.000063	0.000000	0.000000
50.128160	10.805658	25.826199	-0.054555	0.113071	2.136615	0.000000	0.008707	0.000000	0.000110	-0.000060	0.000000	0.000000
50.425482	10.846305	25.762429	-0.082153	0.101411	2.139221	0.000000	0.008707	0.000000	0.000093	-0.000060	0.000000	0.000000
50.758816	10.911386	25.699179	-0.113093	0.088339	2.142144	0.000000	0.008707	0.000000	0.000073	-0.000060	0.000000	0.000000
51.092149	10.997095	25.644643	-0.144032	0.075267	2.145066	0.000000	0.008707	0.000000	0.000053	-0.000060	0.000000	0.000000
51.426732	11.103642	25.599186	-0.085008	-0.145527	2.147978	0.000000	-0.008718	0.000000	0.000033	-0.000060	0.000000	0.000000
51.724055	11.162211	25.689249	-0.084610	-0.220398	2.145403	0.000000	-0.013979	0.000000	0.000015	-0.000060	0.000000	0.000000
52.165015	11.382492	25.597842	-0.416854	0.426900	2.152860	0.000000	0.047715	0.000000	-0.000012	-0.000060	0.000000	0.000000
52.605975	11.903044	24.941987	-0.768142	1.054775	2.187615	0.000000	0.109952	0.000000	-0.000038	-0.000061	0.000000	0.000000
53.046935	12.747649	23.751525	-1.154525	1.634658	2.250065	0.000000	0.173443	0.000000	-0.000065	-0.000062	0.000000	0.000000
53.487895	13.954893	22.080623	-1.593653	2.140165	2.340920	0.000000	0.238909	0.000000	-0.000093	-0.000064	0.000000	0.000000
53.933855	15.600614	19.980322	-2.109835	2.549628	2.462722	0.000000	0.307496	0.000000	-0.000122	-0.000067	0.000000	0.000000
54.482915	17.719318	17.617021	-1.726145	1.780055	2.611397	0.000000	0.233143	0.000000	-0.000158	-0.000062	0.000000	0.000000
55.031975	19.346834	16.024637	-1.220531	1.137271	2.718047	0.000000	0.154654	0.000000	-0.000190	-0.000057	0.000000	0.000000
55.581035	20.368203	15.089749	-0.628707	0.575492	2.780781	0.000000	0.073421	0.000000	-0.000220	-0.000050	0.000000	0.000000
56.130095	20.711283	14.745765	0.007525	0.054704	2.798485	0.000000	-0.009116	0.000000	-0.000245	-0.000042	0.000000	0.000000
56.428668	20.743484	14.696138	-0.061148	0.072896	2.797964	0.000000	-0.001789	0.000000	-0.000258	-0.000043	0.000000	0.000000
56.762001	20.789626	14.655141	-0.077277	0.050093	2.797382	0.000000	-0.001789	0.000000	-0.000272	-0.000043	0.000000	0.000000
57.095334	20.846521	14.629347	-0.093407	0.027291	2.796800	0.000000	-0.001789	0.000000	-0.000287	-0.000043	0.000000	0.000000
57.429918	20.914442	14.618742	-0.109597	0.004403	2.796216	0.000000	-0.001789	0.000000	-0.000301	-0.000043	0.000000	0.000000
57.727240	20.983891	14.622171	-0.178955	0.022361	2.795697	0.000000	0.005535	0.000000	-0.000314	-0.000044	0.000000	0.000000
58.276300	20.822265	14.878448	0.471559	-0.491875	2.776102	0.000000	-0.076880	0.000000	-0.000335	-0.000033	0.000000	0.000000
58.825360	19.960448	15.715224	1.088763	-1.041145	2.711559	0.000000	-0.157932	0.000000	-0.000350	-0.000022	0.000000	0.000000
59.374420	18.459314	17.192100	1.629064	-1.664572	2.603212	0.000000	-0.236184	0.000000	-0.000359	-0.000011	0.000000	0.000000
59.923480	16.424895	19.414269	2.054297	-2.406562	2.452983	0.000000	-0.310246	0.000000	-0.000362	0.000001	0.000000	0.000000
60.369440	14.832321	21.389414	1.529473	-2.003735	2.329926	0.000000	-0.241929	0.000000	-0.000364	-0.000009	0.000000	0.000000
60.810400	13.686554	22.945230	1.078740	-1.511104	2.237706	0.000000	-0.176764	0.000000	-0.000370	-0.000018	0.000000	0.000000
61.251360	12.915141	24.034493	0.677291	-0.949719	2.173755	0.000000	-0.113612	0.000000	-0.000380	-0.000028	0.000000	0.000000
61.692320	12.482841	24.607645	0.306784	-0.345123	2.137344	0.000000	-0.051754	0.000000	-0.000394	-0.000038	0.000000	0.000000
62.134530	12.369950	24.638070	-0.019354	0.214482	2.128063	0.000000	0.004276	0.000000	-0.000413	-0.000047	0.000000	0.000000
62.431853	12.388608	24.514282	-0.043399	0.201859	2.129349	0.000000	0.004276	0.000000	-0.000427	-0.000047	0.000000	0.000000
62.765186	12.426526	24.384427	-0.070356	0.187708	2.130790	0.000000	0.004276	0.000000	-0.000443	-0.000047	0.000000	0.000000
63.098520	12.482415	24.264005	-0.097313	0.173556	2.132231	0.000000	0.004276	0.000000	-0.000458	-0.000047	0.000000	0.000000
63.433103	12.556587	24.152620	-0.124371	0.159352	2.133677	0.000000	0.004276	0.000000	-0.000474	-0.000047	0.000000	0.000000
63.730426	12.637693	24.061615	-0.117282	0.087435	2.134963	0.000000	-0.000983	0.000000	-0.000488	-0.000046	0.000000	0.000000
64.171386	12.901901	23.719511	-0.484181	0.685436	2.148098	0.000000	0.060513	0.000000	-0.000511	-0.000059	0.000000	0.000000
64.612346	13.498175	22.861811	-0.873201	1.252251	2.188482	0.000000	0.122700	0.000000	-0.000540	-0.000072	0.000000	0.000000
65.053306	14.453755	21.527540	-1.302113	1.762090	2.256575	0.000000	0.186285	0.000000	-0.000575	-0.000087	0.000000	0.000000
65.494266	15.812296	19.777408	-1.790513	2.191756	2.353154	0.000000	0.251992	0.000000	-0.000617	-0.000102	0.000000	0.000000
65.940226	17.659044	17.666271	-2.365395	2.522442	2.480891	0.000000	0.320970	0.000000	-0.000666	-0.000119	0.000000	0.000000
66.489286	20.025894	15.304530	-1.919919	1.804415	2.636802	0.000000	0.245913	0.000000	-0.000725	-0.000096	0.000000	0.000000
67.038346	21.825752	13.656484	-1.338834	1.214911	2.750230	0.000000	0.166492	0.000000	-0.000771	-0.000072	0.000000	0.000000
67.587406	22.931494	12.604747	-0.663186	0.711941	2.819161	0.000000	0.084117	0.000000	-0.000803	-0.000046	0.000000	0.000000
68.136466	23.265021	12.074406	0.059303	0.259679	2.842374	0.000000	0.000249	0.000000	-0.000822	-0.000020	0.000000	0.000000
68.435038	23.269988	11.908380	-0.014735	0.264619	2.844687	0.000000	0.007727	0.000000	-0.000828	-0.000022	0.000000	0.000000
68.768372	23.284587	11.741951	-0.029063	0.234668	2.847270	0.000000	0.007727	0.000000	-0.000836	-0.000022	0.000000	0.000000
69.101705	23.308738	11.595489	-0.043391	0.204716	2.849853	0.000000	0.007727	0.000000	-0.000843	-0.000022	0.000000	0.000000
69.436288	23.342586	11.468559	-0.057772	0.174653	2.852446	0.000000	0.007727	0.000000	-0.000851	-0.000022	0.000000	0.000000
69.733611	23.380740	11.372645	-0.132079	0.177860	2.854750	0.000000	0.015239	0.000000	-0.000857	-0.000024	0.000000	0.000000
70.282671	23.124242	11.405039	0.596471	-0.237207	2.839930	0.000000	-0.069165	0.000000	-0.000863	0.000003	0.000000	0.000000
