#ParticleID	Turn	x[m]	xp	y[m]	yp	z[m]	dE[GeV]# s	beta_x	beta_y	alpha_x	alpha_y	D_x	D_y	D_px	D_py	orbit_x	orbit_px	orbit_y	orbit_py
0.300000	11.861171	25.027329	-0.015630	-0.026288	2.614413	0.000000	0.000162	0.000000	-0.000151	0.000133	0.000000	0.000000
0.601250	11.878241	25.046796	-0.041035	-0.038333	2.614422	0.000000	0.000162	0.000000	-0.000111	0.000133	0.000000	0.000000
0.898573	11.910097	25.073125	-0.036881	-0.111702	2.614430	0.000000	-0.006254	0.000000	-0.000072	0.000133	0.000000	0.000000
1.339533	12.095335	24.893510	-0.384746	0.517481	2.627889	0.000000	0.067608	0.000000	-0.000013	0.000132	0.000000	0.000000
1.780493	12.593925	24.167306	-0.750190	1.123120	2.674056	0.000000	0.142239	0.000000	0.000045	0.000132	0.000000	0.000000
2.221453	13.428649	22.927556	-1.149910	1.677659	2.753458	0.000000	0.218488	0.000000	0.000103	0.000134	0.000000	0.000000
2.662413	14.637644	21.230664	-1.602166	2.155865	2.866997	0.000000	0.297225	0.000000	0.000163	0.000137	0.000000	0.000000
3.108373	16.297034	19.128958	-2.131941	2.537118	3.017826	0.000000	0.379835	0.000000	0.000226	0.000143	0.000000	0.000000
3.657433	18.424742	16.768443	-1.720218	1.787435	3.201072	0.000000	0.286934	0.000000	0.000302	0.000134	0.000000	0.000000
4.206493	20.030521	15.156847	-1.186982	1.165068	3.331841	0.000000	0.188946	0.000000	0.000372	0.000123	0.000000	0.000000
4.755553	21.000943	14.179379	-0.569901	0.625687	3.407815	0.000000	0.087609	0.000000	0.000436	0.000110	0.000000	0.000000
5.304613	21.267458	13.766418	0.087439	0.130872	3.427647	0.000000	-0.015281	0.000000	0.000493	0.000095	0.000000	0.000000
5.603185	21.252485	13.673545	0.018047	0.144383	3.425719	0.000000	-0.006362	0.000000	0.000521	0.000096	0.000000	0.000000
5.936519	21.245684	13.585585	0.002357	0.119496	3.423566	0.000000	-0.006362	0.000000	0.000553	0.000096	0.000000	0.000000
6.269852	21.249342	13.514217	-0.013332	0.094610	3.421414	0.000000	-0.006362	0.000000	0.000586	0.000096	0.000000	0.000000
6.604435	21.263533	13.459264	-0.029081	0.069631	3.419253	0.000000	-0.006362	0.000000	0.000618	0.000096	0.000000	0.000000
6.901758	21.284986	13.424458	-0.098387	0.082337	3.417333	0.000000	0.002519	0.000000	0.000646	0.000098	0.000000	0.000000
7.450818	21.030120	13.594767	0.559874	-0.394348	3.390507	0.000000	-0.099924	0.000000	0.000694	0.000076	0.000000	0.000000
7.999878	20.069927	14.300799	1.178588	-0.899122	3.307849	0.000000	-0.200593	0.000000	0.000730	0.000053	0.000000	0.000000
8.548938	18.472232	15.592845	1.714052	-1.467940	3.170827	0.000000	-0.297703	0.000000	0.000752	0.000029	0.000000	0.000000
9.097998	16.349891	17.562936	2.128440	-2.141318	2.981871	0.000000	-0.389532	0.000000	0.000762	0.000005	0.000000	0.000000
9.543958	14.693886	19.318401	1.598087	-1.778384	2.826436	0.000000	-0.307911	0.000000	0.000768	0.000024	0.000000	0.000000
9.984918	13.488825	20.696885	1.145077	-1.335783	2.707871	0.000000	-0.230284	0.000000	0.000783	0.000044	0.000000	0.000000
10.425878	12.658797	21.656631	0.744383	-0.832403	2.622919	0.000000	-0.155279	0.000000	0.000807	0.000065	0.000000	0.000000
10.866838	12.165880	22.153972	0.377699	-0.291149	2.570611	0.000000	-0.082044	0.000000	0.000841	0.000086	0.000000	0.000000
11.309048	11.987410	22.165752	0.057316	0.209357	2.550331	0.000000	-0.015947	0.000000	0.000884	0.000106	0.000000	0.000000
11.606371	11.960726	22.045422	0.032432	0.195355	2.545558	0.000000	-0.015947	0.000000	0.000915	0.000106	0.000000	0.000000
12.086371	11.948875	21.868731	-0.007742	0.172751	2.537853	0.000000	-0.015947	0.000000	0.000966	0.000106	0.000000	0.000000
12.566371	11.975590	21.713740	-0.047915	0.150147	2.530147	0.000000	-0.015947	0.000000	0.001017	0.000106	0.000000	0.000000
13.046371	12.040872	21.580449	-0.088089	0.127543	2.522442	0.000000	-0.015947	0.000000	0.001068	0.000106	0.000000	0.000000
13.526371	12.144720	21.468858	-0.128262	0.104938	2.514737	0.000000	-0.015947	0.000000	0.001119	0.000106	0.000000	0.000000
14.007621	12.287557	21.378761	-0.168540	0.082275	2.507011	0.000000	-0.015947	0.000000	0.001170	0.000106	0.000000	0.000000
14.304943	12.395177	21.334001	-0.163375	0.016584	2.502238	0.000000	-0.022013	0.000000	0.001202	0.000103	0.000000	0.000000
14.745903	12.698127	21.085889	-0.526201	0.543926	2.508102	0.000000	0.048861	0.000000	0.001254	0.000135	0.000000	0.000000
15.186863	13.330425	20.381875	-0.913069	1.046519	2.545297	0.000000	0.120291	0.000000	0.001321	0.000168	0.000000	0.000000
15.627823	14.320963	19.253988	-1.341658	1.501495	2.614248	0.000000	0.193088	0.000000	0.001403	0.000203	0.000000	0.000000
16.068783	15.715002	17.753548	-1.831548	1.888153	2.715739	0.000000	0.268083	0.000000	0.001501	0.000241	0.000000	0.000000
16.514743	17.599878	15.927327	-2.409915	2.189672	2.852619	0.000000	0.346597	0.000000	0.001617	0.000281	0.000000	0.000000
17.063803	20.020247	13.888251	-1.971951	1.545919	3.019076	0.000000	0.259317	0.000000	0.001756	0.000226	0.000000	0.000000
17.612863	21.879852	12.491852	-1.394683	1.012283	3.136306	0.000000	0.167441	0.000000	0.001865	0.000168	0.000000	0.000000
18.161923	23.047322	11.638665	-0.718890	0.550752	3.202231	0.000000	0.072598	0.000000	0.001940	0.000106	0.000000	0.000000
18.710983	23.440178	11.267918	0.007688	0.128453	3.215682	0.000000	-0.023531	0.000000	0.001981	0.000043	0.000000	0.000000
19.009556	23.475360	11.182039	-0.065307	0.130242	3.211109	0.000000	-0.015270	0.000000	0.001995	0.000048	0.000000	0.000000
19.342889	23.523651	11.105316	-0.079567	0.099926	3.206003	0.000000	-0.015270	0.000000	0.002011	0.000048	0.000000	0.000000
19.676223	23.581449	11.048804	-0.093827	0.069611	3.200897	0.000000	-0.015270	0.000000	0.002027	0.000048	0.000000	0.000000
20.010806	23.649317	11.012267	-0.225312	0.093743	3.195792	0.000000	0.000564	0.000000	0.002043	0.000058	0.000000	0.000000
20.308129	23.787229	10.964620	-0.299595	0.094668	3.195943	0.000000	0.008770	0.000000	0.002060	0.000063	0.000000	0.000000
20.857189	23.705996	11.082594	0.446684	-0.310795	3.174531	0.000000	-0.086591	0.000000	0.002077	-0.000004	0.000000	0.000000
21.406249	22.817758	11.655299	1.161409	-0.738397	3.101138	0.000000	-0.180417	0.000000	0.002056	-0.000071	0.000000	0.000000
21.955309	21.185265	12.723531	1.794089	-1.218596	2.977068	0.000000	-0.271042	0.000000	0.001999	-0.000136	0.000000	0.000000
22.504369	18.923844	14.363379	2.300030	-1.785597	2.804519	0.000000	-0.356863	0.000000	0.001907	-0.000200	0.000000	0.000000
22.950329	17.142232	15.835716	1.708905	-1.501905	2.662736	0.000000	-0.279659	0.000000	0.001828	-0.000151	0.000000	0.000000
23.391289	15.864044	17.009934	1.200604	-1.150760	2.555789	0.000000	-0.206100	0.000000	0.001772	-0.000105	0.000000	0.000000
23.832249	15.008367	17.850101	0.747160	-0.747255	2.480713	0.000000	-0.134888	0.000000	0.001736	-0.000060	0.000000	0.000000
24.273209	14.536102	18.317989	0.327855	-0.309748	2.436652	0.000000	-0.065211	0.000000	0.001719	-0.000015	0.000000	0.000000
24.715418	14.425775	18.392064	-0.041760	0.097410	2.423102	0.000000	-0.002122	0.000000	0.001722	0.000025	0.000000	0.000000
25.012741	14.456746	18.338992	-0.062406	0.081091	2.422463	0.000000	-0.002122	0.000000	0.001730	0.000025	0.000000	0.000000
25.346075	14.506066	18.291029	-0.085553	0.062795	2.421748	0.000000	-0.002122	0.000000	0.001738	0.000025	0.000000	0.000000
25.679408	14.570817	18.255264	-0.108701	0.044500	2.421032	0.000000	-0.002122	0.000000	0.001747	0.000025	0.000000	0.000000
26.013991	14.651032	18.232001	-0.013076	-0.121772	2.420289	0.000000	-0.021757	0.000000	0.001755	0.000011	0.000000	0.000000
26.311314	14.664841	18.309334	0.001989	-0.182470	2.413817	0.000000	-0.027577	0.000000	0.001758	0.000007	0.000000	0.000000
26.752274	14.843901	18.271696	-0.409575	0.267498	2.416757	0.000000	0.040981	0.000000	0.001771	0.000052	0.000000	0.000000
27.193234	15.392794	17.841084	-0.839853	0.705294	2.449984	0.000000	0.110005	0.000000	0.001804	0.000098	0.000000	0.000000
27.634194	16.336602	17.037090	-1.308505	1.110999	2.513875	0.000000	0.180281	0.000000	0.001858	0.000145	0.000000	0.000000
28.075154	17.718452	15.896298	-1.836946	1.466152	2.609159	0.000000	0.252609	0.000000	0.001932	0.000194	0.000000	0.000000
28.521114	19.625520	14.453419	-2.454306	1.755541	2.738524	0.000000	0.328263	0.000000	0.002030	0.000246	0.000000	0.000000
29.070174	22.049625	12.845784	-1.934309	1.189632	2.895979	0.000000	0.244825	0.000000	0.002147	0.000178	0.000000	0.000000
29.619234	23.823801	11.809701	-1.277665	0.708461	3.006396	0.000000	0.157047	0.000000	0.002225	0.000107	0.000000	0.000000
30.168294	24.822709	11.271369	-0.530763	0.277756	3.067818	0.000000	0.066486	0.000000	0.002264	0.000034	0.000000	0.000000
30.717354	24.975779	11.192444	0.253635	-0.133165	3.079155	0.000000	-0.025255	0.000000	0.002263	-0.000039	0.000000	0.000000
31.015927	24.866240	11.262883	0.177238	-0.131440	3.073980	0.000000	-0.017363	0.000000	0.002253	-0.000033	0.000000	0.000000
31.349260	24.752690	11.360545	0.163412	-0.161547	3.068204	0.000000	-0.017363	0.000000	0.002242	-0.000033	0.000000	0.000000
31.682593	24.648358	11.478279	0.149586	-0.191654	3.062427	0.000000	-0.017363	0.000000	0.002231	-0.000033	0.000000	0.000000
32.017177	24.552903	11.616639	0.135708	-0.221874	3.056629	0.000000	-0.017363	0.000000	0.002220	-0.000033	0.000000	0.000000
32.314499	24.475875	11.756558	0.060616	-0.218588	3.051477	0.000000	-0.009539	0.000000	0.002210	-0.000027	0.000000	0.000000
32.863559	23.990108	12.235831	0.818800	-0.659436	3.021371	0.000000	-0.100078	0.000000	0.002175	-0.000098	0.000000	0.000000
33.412619	22.698705	13.222022	1.519141	-1.147256	2.942004	0.000000	-0.188844	0.000000	0.002102	-0.000168	0.000000	0.000000
33.961679	20.692899	14.785377	2.112164	-1.716798	2.814783	0.000000	-0.274263	0.000000	0.001991	-0.000234	0.000000	0.000000
34.510739	18.114393	17.037253	2.555977	-2.408628	2.641962	0.000000	-0.354820	0.000000	0.001846	-0.000296	0.000000	0.000000
34.956699	16.109991	19.051466	1.954476	-2.088997	2.500194	0.000000	-0.281834	0.000000	0.001724	-0.000250	0.000000	0.000000
35.397659	14.615532	20.717661	1.447304	-1.675097	2.391404	0.000000	-0.212490	0.000000	0.001623	-0.000207	0.000000	0.000000
35.838619	13.537640	21.983687	1.006261	-1.184979	2.312613	0.000000	-0.145564	0.000000	0.001541	-0.000166	0.000000	0.000000
36.279579	12.827062	22.791939	0.611196	-0.640944	2.262924	0.000000	-0.080294	0.000000	0.001477	-0.000127	0.000000	0.000000
36.721789	12.450645	23.105951	0.274070	-0.123664	2.241747	0.000000	-0.021360	0.000000	0.001429	-0.000093	0.000000	0.000000
37.019112	12.295304	23.183372	0.248396	-0.136729	2.235424	0.000000	-0.021360	0.000000	0.001401	-0.000093	0.000000	0.000000
37.352445	12.139301	23.279407	0.219613	-0.151376	2.228335	0.000000	-0.021360	0.000000	0.001370	-0.000093	0.000000	0.000000
37.685779	12.002487	23.385206	0.190830	-0.166023	2.221246	0.000000	-0.021360	0.000000	0.001339	-0.000093	0.000000	0.000000
38.020362	11.884457	23.501222	0.161938	-0.180725	2.214130	0.000000	-0.021360	0.000000	0.001308	-0.000093	0.000000	0.000000
38.317684	11.795794	23.612575	0.164840	-0.251023	2.207807	0.000000	-0.026708	0.000000	0.001280	-0.000096	0.000000	0.000000
38.758644	11.801032	23.572402	-0.176791	0.341779	2.210004	0.000000	0.036528	0.000000	0.001245	-0.000064	0.000000	0.000000
39.199604	12.109982	23.014302	-0.526500	0.919029	2.240138	0.000000	0.100181	0.000000	0.001224	-0.000032	0.000000	0.000000
39.640564	12.736758	21.963671	-0.900263	1.454463	2.298552	0.000000	0.164976	0.000000	0.001217	-0.000000	0.000000	0.000000
40.081524	13.709998	20.468312	-1.315160	1.923718	2.385912	0.000000	0.231650	0.000000	0.001223	0.000031	0.000000	0.000000
40.527484	15.091714	18.573668	-1.793986	2.306756	2.504687	0.000000	0.301371	0.000000	0.001244	0.000063	0.000000	0.000000
41.076544	16.855760	16.444507	-1.399765	1.593894	2.649582	0.000000	0.225716	0.000000	0.001268	0.000022	0.000000	0.000000
41.625604	18.129694	15.031601	-0.906666	0.994566	2.751796	0.000000	0.146058	0.000000	0.001269	-0.000019	0.000000	0.000000
42.174664	18.823525	14.234310	-0.349521	0.466081	2.809517	0.000000	0.063809	0.000000	0.001247	-0.000060	0.000000	0.000000
42.723724	18.888240	13.995842	0.232312	-0.029204	2.821721	0.000000	-0.019574	0.000000	0.001203	-0.000099	0.000000	0.000000
43.022297	18.783565	13.998023	0.167121	-0.014319	2.818085	0.000000	-0.012276	0.000000	0.001175	-0.000096	0.000000	0.000000
43.502297	18.635738	14.028233	0.140853	-0.048617	2.812239	0.000000	-0.012276	0.000000	0.001129	-0.000096	0.000000	0.000000
43.982297	18.513128	14.091368	0.114585	-0.082915	2.806393	0.000000	-0.012276	0.000000	0.001082	-0.000096	0.000000	0.000000
44.462297	18.415736	14.187429	0.088317	-0.117212	2.800546	0.000000	-0.012276	0.000000	0.001036	-0.000096	0.000000	0.000000
44.942297	18.343560	14.316415	0.062049	-0.151510	2.794700	0.000000	-0.012276	0.000000	0.000990	-0.000096	0.000000	0.000000
45.423547	18.296739	14.478612	-0.054940	-0.114161	2.788856	0.000000	0.001542	0.000000	0.000944	-0.000091	0.000000	0.000000
45.720870	18.334256	14.552682	-0.118774	-0.097251	2.789342	0.000000	0.008774	0.000000	0.000917	-0.000089	0.000000	0.000000
46.269930	18.155920	14.940922	0.441595	-0.614012	2.771610	0.000000	-0.073469	0.000000	0.000860	-0.000118	0.000000	0.000000
46.818990	17.375783	15.917176	0.970769	-1.174509	2.709026	0.000000	-0.154410	0.000000	0.000788	-0.000145	0.000000	0.000000
47.368050	16.048956	17.550981	1.431368	-1.818664	2.602702	0.000000	-0.232615	0.000000	0.000702	-0.000169	0.000000	0.000000
47.917110	14.269166	19.958708	1.790856	-2.592360	2.454520	0.000000	-0.306696	0.000000	0.000603	-0.000190	0.000000	0.000000
48.363070	12.883767	22.099343	1.326612	-2.187493	2.333134	0.000000	-0.238314	0.000000	0.000522	-0.000175	0.000000	0.000000
48.804030	11.893846	23.813221	0.926751	-1.684386	2.242596	0.000000	-0.173043	0.000000	0.000447	-0.000163	0.000000	0.000000
49.244990	11.236643	25.047776	0.569233	-1.104640	2.180374	0.000000	-0.109742	0.000000	0.000378	-0.000152	0.000000	0.000000
49.685950	10.882130	25.746836	0.237723	-0.474634	2.145759	0.000000	-0.047689	0.000000	0.000313	-0.000143	0.000000	0.000000
50.128160	10.814250	25.878314	-0.056584	0.113657	2.138370	0.000000	0.008592	0.000000	0.000251	-0.000137	0.000000	0.000000
50.425482	10.856099	25.814188	-0.084166	0.102019	2.140965	0.000000	0.008592	0.000000	0.000211	-0.000137	0.000000	0.000000
50.758816	10.922516	25.750525	-0.115088	0.088972	2.143875	0.000000	0.008592	0.000000	0.000165	-0.000137	0.000000	0.000000
51.092149	11.009549	25.695559	-0.146010	0.075925	2.146784	0.000000	0.008592	0.000000	0.000120	-0.000137	0.000000	0.000000
51.426732	11.117414	25.649655	-0.086857	-0.145254	2.149682	0.000000	-0.008848	0.000000	0.000074	-0.000137	0.000000	0.000000
51.724055	11.177074	25.739548	-0.086401	-0.220242	2.147092	0.000000	-0.014112	0.000000	0.000033	-0.000137	0.000000	0.000000
52.165015	11.399088	25.647416	-0.419032	0.428382	2.154533	0.000000	0.047625	0.000000	-0.000027	-0.000137	0.000000	0.000000
52.605975	11.921755	24.989693	-0.770805	1.057514	2.189291	0.000000	0.109906	0.000000	-0.000088	-0.000139	0.000000	0.000000
53.046935	12.768953	23.796307	-1.157794	1.638529	2.251764	0.000000	0.173440	0.000000	-0.000150	-0.000142	0.000000	0.000000
53.487895	13.979386	22.121557	-1.597677	2.144992	2.342662	0.000000	0.238951	0.000000	-0.000213	-0.000146	0.000000	0.000000
53.933855	15.629083	20.016606	-2.114801	2.555191	2.464529	0.000000	0.307583	0.000000	-0.000280	-0.000153	0.000000	0.000000
54.482915	17.752859	17.647999	-1.730412	1.784224	2.613279	0.000000	0.233171	0.000000	-0.000361	-0.000142	0.000000	0.000000
55.031975	19.384508	16.051669	-1.223799	1.140342	2.719968	0.000000	0.154621	0.000000	-0.000436	-0.000129	0.000000	0.000000
55.581035	20.408785	15.113910	-0.630748	0.577685	2.782702	0.000000	0.073326	0.000000	-0.000503	-0.000114	0.000000	0.000000
56.130095	20.753343	14.767928	0.006853	0.056174	2.800369	0.000000	-0.009271	0.000000	-0.000561	-0.000097	0.000000	0.000000
56.428668	20.786088	14.717313	-0.062046	0.074562	2.799825	0.000000	-0.001920	0.000000	-0.000590	-0.000099	0.000000	0.000000
56.762001	20.832818	14.675197	-0.078144	0.051787	2.799218	0.000000	-0.001920	0.000000	-0.000623	-0.000099	0.000000	0.000000
57.095334	20.890279	14.648264	-0.094242	0.029012	2.798610	0.000000	-0.001920	0.000000	-0.000656	-0.000099	0.000000	0.000000
57.429918	20.958749	14.636499	-0.110400	0.006151	2.798001	0.000000	-0.001920	0.000000	-0.000689	-0.000099	0.000000	0.000000
57.727240	21.028668	14.638881	-0.180033	0.024294	2.797459	0.000000	0.005433	0.000000	-0.000718	-0.000100	0.000000	0.000000
58.276300	20.867384	14.893282	0.471989	-0.490374	2.777820	0.000000	-0.077038	0.000000	-0.000767	-0.000076	0.000000	0.000000
58.825360	20.004271	15.728593	1.090671	-1.039970	2.713195	0.000000	-0.158143	0.000000	-0.000802	-0.000051	0.000000	0.000000
59.374420	18.500291	17.204308	1.632315	-1.663638	2.604730	0.000000	-0.236444	0.000000	-0.000822	-0.000025	0.000000	0.000000
59.923480	16.461675	19.425537	2.058665	-2.405801	2.454350	0.000000	-0.310552	0.000000	-0.000829	0.000002	0.000000	0.000000
60.369440	14.865678	21.399800	1.532824	-2.002543	2.331166	0.000000	-0.242204	0.000000	-0.000832	-0.000019	0.000000	0.000000
60.810400	13.717353	22.954380	1.081223	-1.509528	2.238839	0.000000	-0.177009	0.000000	-0.000846	-0.000041	0.000000	0.000000
61.251360	12.944091	24.042103	0.679018	-0.947832	2.174799	0.000000	-0.113830	0.000000	-0.000869	-0.000063	0.000000	0.000000
61.692320	12.510566	24.613480	0.307836	-0.343012	2.138316	0.000000	-0.051947	0.000000	-0.000902	-0.000086	0.000000	0.000000
62.134530	12.397019	24.641975	-0.018712	0.216431	2.128979	0.000000	0.004079	0.000000	-0.000945	-0.000107	0.000000	0.000000
62.431853	12.415279	24.517030	-0.042704	0.203800	2.130224	0.000000	0.004079	0.000000	-0.000977	-0.000107	0.000000	0.000000
62.765186	12.452714	24.385884	-0.069601	0.189639	2.131619	0.000000	0.004079	0.000000	-0.001013	-0.000107	0.000000	0.000000
63.098520	12.508081	24.264178	-0.096499	0.175478	2.133014	0.000000	0.004079	0.000000	-0.001048	-0.000107	0.000000	0.000000
63.433103	12.581688	24.151510	-0.123497	0.161265	2.134415	0.000000	0.004079	0.000000	-0.001084	-0.000107	0.000000	0.000000
63.730426	12.662258	24.059371	-0.116111	0.088976	2.135659	0.000000	-0.001214	0.000000	-0.001116	-0.000105	0.000000	0.000000
64.171386	12.925655	23.715951	-0.483537	0.686873	2.148725	0.000000	0.060299	0.000000	-0.001169	-0.000134	0.000000	0.000000
64.612346	13.521561	22.857063	-0.873052	1.253517	2.189053	0.000000	0.122500	0.000000	-0.001235	-0.000165	0.000000	0.000000
65.053306	14.477197	21.521786	-1.302452	1.763130	2.257104	0.000000	0.186098	0.000000	-0.001315	-0.000198	0.000000	0.000000
65.494266	15.836217	19.770872	-1.791351	2.192523	2.353654	0.000000	0.251817	0.000000	-0.001410	-0.000233	0.000000	0.000000
65.940226	17.683897	17.659212	-2.366751	2.522882	2.481375	0.000000	0.320804	0.000000	-0.001522	-0.000271	0.000000	0.000000
66.489286	20.051667	15.296971	-1.920360	1.804948	2.637263	0.000000	0.245734	0.000000	-0.001657	-0.000220	0.000000	0.000000
67.038346	21.851434	13.648297	-1.338337	1.215570	2.750645	0.000000	0.166302	0.000000	-0.001762	-0.000164	0.000000	0.000000
67.587406	22.956088	12.595761	-0.661793	0.712772	2.819508	0.000000	0.083917	0.000000	-0.001837	-0.000106	0.000000	0.000000
68.136466	23.287616	12.064396	0.061492	0.260740	2.842631	0.000000	0.000042	0.000000	-0.001878	-0.000046	0.000000	0.000000
68.435038	23.291625	11.897597	-0.013129	0.265894	2.844911	0.000000	0.007586	0.000000	-0.001894	-0.000051	0.000000	0.000000
68.768372	23.305148	11.730334	-0.027442	0.235896	2.847456	0.000000	0.007586	0.000000	-0.001910	-0.000051	0.000000	0.000000
69.101705	23.328215	11.583069	-0.041756	0.205899	2.850002	0.000000	0.007586	0.000000	-0.001927	-0.000051	0.000000	0.000000
69.436288	23.360963	11.455363	-0.056124	0.175789	2.852557	0.000000	0.007586	0.000000	-0.001944	-0.000051	0.000000	0.000000
69.733611	23.398136	11.358785	-0.131024	0.179186	2.854827	0.000000	0.015167	0.000000	-0.001959	-0.000056	0.000000	0.000000
70.282671	23.140184	11.389501	0.598046	-0.235460	2.839975	0.000000	-0.069237	0.000000	-0.001973	0.000008	0.000000	0.000000
