#ParticleID	Turn	x[m]	xp	y[m]	yp	z[m]	dE[GeV]# s	beta_x	beta_y	alpha_x	alpha_y	D_x	D_y	D_px	D_py	orbit_x	orbit_px	orbit_y	orbit_py
0.300000	11.839212	24.950797	-0.014116	-0.027559	2.617758	0.000000	-0.000046	0.000000	-0.000023	0.000020	0.000000	0.000000
0.601250	11.855384	24.971042	-0.039566	-0.039642	2.617738	0.000000	-0.000046	0.000000	-0.000017	0.000020	0.000000	0.000000
0.898573	11.886380	24.998161	-0.035533	-0.112870	2.617719	0.000000	-0.006466	0.000000	-0.000011	0.000020	0.000000	0.000000
1.339533	12.070163	24.820445	-0.382821	0.514357	2.631150	0.000000	0.067481	0.000000	-0.000002	0.000020	0.000000	0.000000
1.780493	12.566753	24.097811	-0.747600	1.118180	2.677326	0.000000	0.142196	0.000000	0.000007	0.000020	0.000000	0.000000
2.221453	13.398838	22.863139	-1.146535	1.671128	2.756775	0.000000	0.218530	0.000000	0.000016	0.000021	0.000000	0.000000
2.662413	14.604434	21.172605	-1.597852	2.148040	2.870400	0.000000	0.297353	0.000000	0.000025	0.000021	0.000000	0.000000
3.108373	16.259453	19.078333	-2.126476	2.528349	3.021356	0.000000	0.380052	0.000000	0.000035	0.000022	0.000000	0.000000
3.657433	18.381663	16.726274	-1.715801	1.780728	3.204750	0.000000	0.287036	0.000000	0.000047	0.000021	0.000000	0.000000
4.206493	19.983278	15.121141	-1.183930	1.159945	3.335599	0.000000	0.188928	0.000000	0.000058	0.000019	0.000000	0.000000
4.755553	20.951166	14.148606	-0.568432	0.621782	3.411581	0.000000	0.087470	0.000000	0.000068	0.000017	0.000000	0.000000
5.304613	21.216959	13.739397	0.087218	0.127907	3.431349	0.000000	-0.015539	0.000000	0.000076	0.000015	0.000000	0.000000
5.603185	21.202165	13.648259	0.017731	0.141466	3.429380	0.000000	-0.006579	0.000000	0.000081	0.000015	0.000000	0.000000
5.936519	21.195587	13.562253	0.002005	0.116554	3.427182	0.000000	-0.006579	0.000000	0.000086	0.000015	0.000000	0.000000
6.269852	21.199492	13.492854	-0.013722	0.091642	3.424984	0.000000	-0.006579	0.000000	0.000090	0.000015	0.000000	0.000000
6.604435	21.213956	13.439897	-0.029508	0.066636	3.422778	0.000000	-0.006579	0.000000	0.000095	0.000015	0.000000	0.000000
6.901758	21.235674	13.406879	-0.098974	0.079419	3.420817	0.000000	0.002351	0.000000	0.000100	0.000015	0.000000	0.000000
7.450818	20.982333	13.580132	0.557658	-0.396827	3.393908	0.000000	-0.100201	0.000000	0.000107	0.000012	0.000000	0.000000
7.999878	20.025393	14.288722	1.174899	-0.901339	3.311098	0.000000	-0.200976	0.000000	0.000113	0.000008	0.000000	0.000000
8.548938	18.432446	15.583118	1.709151	-1.470051	3.173857	0.000000	-0.298187	0.000000	0.000116	0.000004	0.000000	0.000000
9.097998	16.316012	17.555520	2.122676	-2.143472	2.984620	0.000000	-0.390107	0.000000	0.000118	0.000001	0.000000	0.000000
9.543958	14.664636	19.313103	1.593455	-1.780991	2.828948	0.000000	-0.308422	0.000000	0.000118	0.000004	0.000000	0.000000
9.984918	13.463257	20.694023	1.141340	-1.338707	2.710186	0.000000	-0.230734	0.000000	0.000121	0.000007	0.000000	0.000000
10.425878	12.636194	21.656431	0.741370	-0.835513	2.625068	0.000000	-0.155673	0.000000	0.000125	0.000010	0.000000	0.000000
10.866838	12.145662	22.156539	0.375271	-0.294304	2.572626	0.000000	-0.082386	0.000000	0.000130	0.000013	0.000000	0.000000
11.309048	11.969110	22.171078	0.055527	0.205930	2.552241	0.000000	-0.016288	0.000000	0.000136	0.000016	0.000000	0.000000
11.606371	11.943500	22.052779	0.030609	0.191951	2.547393	0.000000	-0.016288	0.000000	0.000141	0.000016	0.000000	0.000000
12.086371	11.933423	21.879338	-0.009617	0.169383	2.539567	0.000000	-0.016288	0.000000	0.000149	0.000016	0.000000	0.000000
12.566371	11.961965	21.727563	-0.049844	0.146815	2.531741	0.000000	-0.016288	0.000000	0.000157	0.000016	0.000000	0.000000
13.046371	12.029125	21.597452	-0.090071	0.124248	2.523915	0.000000	-0.016288	0.000000	0.000165	0.000016	0.000000	0.000000
13.526371	12.134902	21.489007	-0.130298	0.101680	2.516089	0.000000	-0.016288	0.000000	0.000172	0.000016	0.000000	0.000000
14.007621	12.279723	21.402030	-0.170630	0.079053	2.508242	0.000000	-0.016288	0.000000	0.000180	0.000016	0.000000	0.000000
14.304943	12.388596	21.359178	-0.165220	0.012791	2.503394	0.000000	-0.022416	0.000000	0.000185	0.000016	0.000000	0.000000
14.745903	12.693104	21.114095	-0.527947	0.540885	2.509129	0.000000	0.048484	0.000000	0.000193	0.000021	0.000000	0.000000
15.186863	13.326897	20.412389	-0.914796	1.044369	2.546217	0.000000	0.119937	0.000000	0.000204	0.000026	0.000000	0.000000
15.627823	14.318933	19.285987	-1.343439	1.500335	2.615082	0.000000	0.192755	0.000000	0.000216	0.000031	0.000000	0.000000
16.068783	15.714535	17.786138	-1.833461	1.888037	2.716507	0.000000	0.267768	0.000000	0.000231	0.000037	0.000000	0.000000
16.514743	17.601119	15.959587	-2.412014	2.190588	2.853343	0.000000	0.346294	0.000000	0.000249	0.000043	0.000000	0.000000
17.063803	20.023807	13.919956	-1.974258	1.546096	3.019738	0.000000	0.258996	0.000000	0.000271	0.000035	0.000000	0.000000
17.612863	21.885897	12.523792	-1.397048	1.011729	3.136872	0.000000	0.167105	0.000000	0.000287	0.000026	0.000000	0.000000
18.161923	23.055856	11.671650	-0.721156	0.549427	3.202668	0.000000	0.072250	0.000000	0.000299	0.000016	0.000000	0.000000
18.710983	23.451043	11.302834	0.005676	0.126259	3.215960	0.000000	-0.023886	0.000000	0.000305	0.000007	0.000000	0.000000
19.009556	23.487962	11.217928	-0.068211	0.128658	3.211328	0.000000	-0.015505	0.000000	0.000307	0.000007	0.000000	0.000000
19.342889	23.538189	11.142224	-0.082469	0.098452	3.206157	0.000000	-0.015505	0.000000	0.000310	0.000007	0.000000	0.000000
19.676223	23.597921	11.086659	-0.096727	0.068246	3.200987	0.000000	-0.015505	0.000000	0.000312	0.000007	0.000000	0.000000
20.010806	23.667729	11.050998	-0.228301	0.092680	3.195816	0.000000	0.000329	0.000000	0.000315	0.000009	0.000000	0.000000
20.308129	23.807417	11.003955	-0.303557	0.094220	3.195912	0.000000	0.008657	0.000000	0.000317	0.000010	0.000000	0.000000
20.857189	23.730158	11.123016	0.443437	-0.312345	3.174453	0.000000	-0.086697	0.000000	0.000320	-0.000001	0.000000	0.000000
21.406249	22.845019	11.698060	1.159108	-0.741158	3.100991	0.000000	-0.180513	0.000000	0.000317	-0.000011	0.000000	0.000000
21.955309	21.214523	12.770047	1.792904	-1.222762	2.976827	0.000000	-0.271128	0.000000	0.000308	-0.000021	0.000000	0.000000
22.504369	18.953841	14.415332	2.300057	-1.791461	2.804164	0.000000	-0.356934	0.000000	0.000294	-0.000031	0.000000	0.000000
22.950329	17.172491	15.892330	1.708438	-1.506510	2.662284	0.000000	-0.279749	0.000000	0.000282	-0.000023	0.000000	0.000000
23.391289	15.895009	17.069939	1.199579	-1.153875	2.555251	0.000000	-0.206206	0.000000	0.000273	-0.000016	0.000000	0.000000
23.832249	15.040532	17.912124	0.745525	-0.748739	2.480096	0.000000	-0.135011	0.000000	0.000267	-0.000009	0.000000	0.000000
24.273209	14.570020	18.380565	0.325534	-0.309536	2.435964	0.000000	-0.065354	0.000000	0.000265	-0.000002	0.000000	0.000000
24.715418	14.462086	18.453704	-0.044296	0.098540	2.422348	0.000000	-0.002366	0.000000	0.000265	0.000004	0.000000	0.000000
25.012741	14.494551	18.399944	-0.064895	0.082271	2.421644	0.000000	-0.002366	0.000000	0.000266	0.000004	0.000000	0.000000
25.346075	14.545512	18.351176	-0.087989	0.064033	2.420854	0.000000	-0.002366	0.000000	0.000268	0.000004	0.000000	0.000000
25.679408	14.611869	18.314567	-0.111083	0.045794	2.420064	0.000000	-0.002366	0.000000	0.000269	0.000004	0.000000	0.000000
26.013991	14.693660	18.290419	-0.015059	-0.120894	2.419246	0.000000	-0.021993	0.000000	0.000270	0.000002	0.000000	0.000000
26.311314	14.708632	18.367212	0.000679	-0.182313	2.412706	0.000000	-0.027894	0.000000	0.000271	0.000001	0.000000	0.000000
26.752274	14.889300	18.328748	-0.411945	0.269208	2.415510	0.000000	0.040631	0.000000	0.000273	0.000008	0.000000	0.000000
27.193234	15.440766	17.895978	-0.843391	0.708480	2.448600	0.000000	0.109618	0.000000	0.000278	0.000015	0.000000	0.000000
27.634194	16.388224	17.088593	-1.313370	1.115517	2.512355	0.000000	0.179854	0.000000	0.000286	0.000022	0.000000	0.000000
28.075154	17.774963	15.943327	-1.843353	1.471798	2.607499	0.000000	0.252138	0.000000	0.000298	0.000030	0.000000	0.000000
28.521114	19.688444	14.495041	-2.462514	1.762033	2.736720	0.000000	0.327738	0.000000	0.000313	0.000038	0.000000	0.000000
29.070174	22.120514	12.881199	-1.940740	1.194585	2.893995	0.000000	0.244367	0.000000	0.000330	0.000027	0.000000	0.000000
29.619234	23.900479	11.840384	-1.281880	0.712225	3.004241	0.000000	0.156661	0.000000	0.000343	0.000016	0.000000	0.000000
30.168294	24.902608	11.298462	-0.532473	0.280596	3.065502	0.000000	0.066177	0.000000	0.000349	0.000005	0.000000	0.000000
30.717354	25.056116	11.216831	0.254547	-0.131046	3.076691	0.000000	-0.025480	0.000000	0.000348	-0.000006	0.000000	0.000000
31.015927	24.946779	11.285665	0.176928	-0.128718	3.071478	0.000000	-0.017465	0.000000	0.000347	-0.000005	0.000000	0.000000
31.349260	24.833420	11.381485	0.163148	-0.158743	3.065658	0.000000	-0.017465	0.000000	0.000345	-0.000005	0.000000	0.000000
31.682593	24.729248	11.497322	0.149368	-0.188768	3.059838	0.000000	-0.017465	0.000000	0.000343	-0.000005	0.000000	0.000000
32.017177	24.633924	11.633723	0.135536	-0.218906	3.053996	0.000000	-0.017465	0.000000	0.000342	-0.000005	0.000000	0.000000
32.314499	24.556983	11.771858	0.059265	-0.215019	3.048805	0.000000	-0.009522	0.000000	0.000340	-0.000004	0.000000	0.000000
32.863559	24.071262	12.247344	0.820128	-0.656089	3.018707	0.000000	-0.099970	0.000000	0.000335	-0.000015	0.000000	0.000000
33.412619	22.777036	13.229846	1.523060	-1.143892	2.939367	0.000000	-0.188645	0.000000	0.000324	-0.000026	0.000000	0.000000
33.961679	20.765726	14.789347	2.118409	-1.713172	2.812193	0.000000	-0.273974	0.000000	0.000307	-0.000036	0.000000	0.000000
34.510739	18.179402	17.036926	2.564121	-2.404478	2.639440	0.000000	-0.354444	0.000000	0.000284	-0.000046	0.000000	0.000000
34.956699	16.168659	19.047223	1.960798	-2.084482	2.497728	0.000000	-0.281530	0.000000	0.000265	-0.000038	0.000000	0.000000
35.397659	14.669399	20.709305	1.452064	-1.670398	2.388977	0.000000	-0.212251	0.000000	0.000250	-0.000032	0.000000	0.000000
35.838619	13.587966	21.971161	1.009671	-1.180312	2.310211	0.000000	-0.145390	0.000000	0.000237	-0.000026	0.000000	0.000000
36.279579	12.874951	22.775374	0.613408	-0.636522	2.260534	0.000000	-0.080183	0.000000	0.000227	-0.000020	0.000000	0.000000
36.721789	12.497091	23.085657	0.275647	-0.120316	2.239352	0.000000	-0.021371	0.000000	0.000220	-0.000014	0.000000	0.000000
37.019112	12.340789	23.161087	0.250048	-0.133381	2.233002	0.000000	-0.021371	0.000000	0.000216	-0.000014	0.000000	0.000000
37.352445	12.183657	23.254890	0.221349	-0.148029	2.225884	0.000000	-0.021371	0.000000	0.000211	-0.000014	0.000000	0.000000
37.685779	12.045658	23.358459	0.192649	-0.162677	2.218765	0.000000	-0.021371	0.000000	0.000206	-0.000014	0.000000	0.000000
38.020362	11.926382	23.472236	0.163842	-0.177380	2.211619	0.000000	-0.021371	0.000000	0.000201	-0.000014	0.000000	0.000000
38.317684	11.836565	23.581599	0.167216	-0.248172	2.205270	0.000000	-0.026768	0.000000	0.000197	-0.000015	0.000000	0.000000
38.758644	11.840118	23.539287	-0.175308	0.343761	2.207396	0.000000	0.036400	0.000000	0.000192	-0.000010	0.000000	0.000000
39.199604	12.148128	22.979866	-0.525841	0.920053	2.237441	0.000000	0.099983	0.000000	0.000188	-0.000005	0.000000	0.000000
39.640564	12.774667	21.928788	-0.900398	1.454482	2.295745	0.000000	0.164705	0.000000	0.000187	-0.000000	0.000000	0.000000
40.081524	13.748360	20.433878	-1.316093	1.922734	2.382973	0.000000	0.231303	0.000000	0.000188	0.000005	0.000000	0.000000
40.527484	15.131249	18.540581	-1.795741	2.304785	2.501590	0.000000	0.300941	0.000000	0.000192	0.000010	0.000000	0.000000
41.076544	16.896380	16.413082	-1.400039	1.592877	2.646294	0.000000	0.225392	0.000000	0.000195	0.000003	0.000000	0.000000
41.625604	18.169770	15.000829	-0.905444	0.994428	2.748361	0.000000	0.145845	0.000000	0.000195	-0.000003	0.000000	0.000000
42.174664	18.861473	14.203228	-0.346893	0.466809	2.805978	0.000000	0.063711	0.000000	0.000192	-0.000009	0.000000	0.000000
42.723724	18.922629	13.963469	0.236161	-0.027560	2.818126	0.000000	-0.019552	0.000000	0.000185	-0.000015	0.000000	0.000000
43.022297	18.815960	13.964556	0.170468	-0.012513	2.814487	0.000000	-0.012201	0.000000	0.000181	-0.000015	0.000000	0.000000
43.502297	18.664912	13.993071	0.144216	-0.046892	2.808638	0.000000	-0.012201	0.000000	0.000174	-0.000015	0.000000	0.000000
43.982297	18.539065	14.054588	0.117965	-0.081270	2.802789	0.000000	-0.012201	0.000000	0.000167	-0.000015	0.000000	0.000000
44.462297	18.438420	14.149108	0.091713	-0.115648	2.796940	0.000000	-0.012201	0.000000	0.000160	-0.000015	0.000000	0.000000
44.942297	18.362976	14.276632	0.065461	-0.150026	2.791090	0.000000	-0.012201	0.000000	0.000152	-0.000015	0.000000	0.000000
45.423547	18.312862	14.437440	-0.051591	-0.112962	2.785243	0.000000	0.001599	0.000000	0.000145	-0.000014	0.000000	0.000000
45.720870	18.348381	14.510814	-0.115754	-0.095952	2.785723	0.000000	0.008869	0.000000	0.000141	-0.000014	0.000000	0.000000
46.269930	18.166527	14.896912	0.444993	-0.611396	2.768029	0.000000	-0.073255	0.000000	0.000132	-0.000018	0.000000	0.000000
46.818990	17.382599	15.869480	0.974307	-1.170390	2.705538	0.000000	-0.154080	0.000000	0.000121	-0.000022	0.000000	0.000000
47.368050	16.051969	17.497793	1.434800	-1.812747	2.599356	0.000000	-0.232172	0.000000	0.000108	-0.000026	0.000000	0.000000
47.917110	14.268629	19.897830	1.793945	-2.584223	2.451368	0.000000	-0.306147	0.000000	0.000093	-0.000029	0.000000	0.000000
48.363070	12.880632	22.031778	1.329446	-2.180723	2.330143	0.000000	-0.237846	0.000000	0.000080	-0.000027	0.000000	0.000000
48.804030	11.888308	23.740386	0.929452	-1.679273	2.239733	0.000000	-0.172652	0.000000	0.000069	-0.000025	0.000000	0.000000
49.244990	11.228759	24.971244	0.571923	-1.101418	2.177611	0.000000	-0.109423	0.000000	0.000058	-0.000023	0.000000	0.000000
49.685950	10.871853	25.668351	0.240524	-0.473449	2.143068	0.000000	-0.047441	0.000000	0.000048	-0.000022	0.000000	0.000000
50.128160	10.801416	25.799705	-0.053524	0.112774	2.135723	0.000000	0.008766	0.000000	0.000039	-0.000021	0.000000	0.000000
50.425482	10.841452	25.736115	-0.081129	0.101104	2.138335	0.000000	0.008766	0.000000	0.000032	-0.000021	0.000000	0.000000
50.758816	10.905854	25.673074	-0.112078	0.088019	2.141265	0.000000	0.008766	0.000000	0.000025	-0.000021	0.000000	0.000000
51.092149	10.990889	25.618756	-0.143026	0.074935	2.144194	0.000000	0.008766	0.000000	0.000018	-0.000021	0.000000	0.000000
51.426732	11.096766	25.573525	-0.084067	-0.145664	2.147112	0.000000	-0.008652	0.000000	0.000011	-0.000021	0.000000	0.000000
51.724055	11.154778	25.663673	-0.083696	-0.220476	2.144546	0.000000	-0.013911	0.000000	0.000005	-0.000021	0.000000	0.000000
52.165015	11.374178	25.572633	-0.415747	0.426148	2.152011	0.000000	0.047760	0.000000	-0.000004	-0.000021	0.000000	0.000000
52.605975	11.893656	24.917727	-0.766792	1.053383	2.186764	0.000000	0.109976	0.000000	-0.000014	-0.000021	0.000000	0.000000
53.046935	12.736947	23.728752	-1.152869	1.632690	2.249202	0.000000	0.173444	0.000000	-0.000023	-0.000022	0.000000	0.000000
53.487895	13.942577	22.059805	-1.591617	2.137711	2.340036	0.000000	0.238888	0.000000	-0.000033	-0.000023	0.000000	0.000000
53.933855	15.586286	19.961869	-2.107324	2.546800	2.461806	0.000000	0.307452	0.000000	-0.000043	-0.000024	0.000000	0.000000
54.482915	17.702423	17.601265	-1.723985	1.777936	2.610443	0.000000	0.233129	0.000000	-0.000056	-0.000022	0.000000	0.000000
55.031975	19.327843	16.010888	-1.218873	1.135709	2.717074	0.000000	0.154671	0.000000	-0.000067	-0.000020	0.000000	0.000000
55.581035	20.347734	15.077459	-0.627666	0.574377	2.779807	0.000000	0.073469	0.000000	-0.000077	-0.000018	0.000000	0.000000
56.130095	20.690057	14.734490	0.007875	0.053957	2.797530	0.000000	-0.009037	0.000000	-0.000086	-0.000015	0.000000	0.000000
56.428668	20.721977	14.685365	-0.060685	0.072049	2.797021	0.000000	-0.001722	0.000000	-0.000091	-0.000015	0.000000	0.000000
56.762001	20.767816	14.644937	-0.076830	0.049233	2.796452	0.000000	-0.001722	0.000000	-0.000096	-0.000015	0.000000	0.000000
57.095334	20.824418	14.619720	-0.092976	0.026417	2.795883	0.000000	-0.001722	0.000000	-0.000101	-0.000015	0.000000	0.000000
57.429918	20.892056	14.609705	-0.109181	0.003515	2.795311	0.000000	-0.001722	0.000000	-0.000106	-0.000015	0.000000	0.000000
57.727240	20.961262	14.613666	-0.178401	0.021379	2.794804	0.000000	0.005587	0.000000	-0.000111	-0.000015	0.000000	0.000000
58.276300	20.799453	14.870895	0.471350	-0.492636	2.775232	0.000000	-0.076800	0.000000	-0.000118	-0.000012	0.000000	0.000000
58.825360	19.938284	15.708415	1.087807	-1.041740	2.710731	0.000000	-0.157825	0.000000	-0.000123	-0.000008	0.000000	0.000000
59.374420	18.438581	17.185878	1.627427	-1.665045	2.602444	0.000000	-0.236051	0.000000	-0.000127	-0.000004	0.000000	0.000000
59.923480	16.406276	19.408522	2.052094	-2.406946	2.452292	0.000000	-0.310090	0.000000	-0.000128	0.000000	0.000000	0.000000
60.369440	14.815429	21.384115	1.527784	-2.004339	2.329299	0.000000	-0.241790	0.000000	-0.000128	-0.000003	0.000000	0.000000
60.810400	13.670951	22.940557	1.077490	-1.511903	2.237133	0.000000	-0.176640	0.000000	-0.000130	-0.000006	0.000000	0.000000
61.251360	12.900469	24.030602	0.676422	-0.950677	2.173227	0.000000	-0.113502	0.000000	-0.000134	-0.000010	0.000000	0.000000
61.692320	12.468782	24.604655	0.306259	-0.346196	2.136853	0.000000	-0.051656	0.000000	-0.000139	-0.000013	0.000000	0.000000
62.134530	12.356218	24.636062	-0.019671	0.213490	2.127601	0.000000	0.004377	0.000000	-0.000145	-0.000017	0.000000	0.000000
62.431853	12.375073	24.512863	-0.043743	0.200872	2.128908	0.000000	0.004377	0.000000	-0.000150	-0.000017	0.000000	0.000000
62.765186	12.413231	24.383664	-0.070731	0.186725	2.130372	0.000000	0.004377	0.000000	-0.000156	-0.000017	0.000000	0.000000
63.098520	12.469380	24.263897	-0.097718	0.172578	2.131836	0.000000	0.004377	0.000000	-0.000161	-0.000017	0.000000	0.000000
63.433103	12.543833	24.153165	-0.124807	0.158378	2.133306	0.000000	0.004377	0.000000	-0.000167	-0.000017	0.000000	0.000000
63.730426	12.625206	24.062738	-0.117868	0.086649	2.134612	0.000000	-0.000867	0.000000	-0.000172	-0.000016	0.000000	0.000000
64.171386	12.889818	23.721305	-0.484499	0.684703	2.147783	0.000000	0.060622	0.000000	-0.000180	-0.000021	0.000000	0.000000
64.612346	13.486271	22.864212	-0.873266	1.251603	2.188195	0.000000	0.122801	0.000000	-0.000190	-0.000025	0.000000	0.000000
65.053306	14.441813	21.530457	-1.301930	1.761557	2.256310	0.000000	0.186380	0.000000	-0.000202	-0.000030	0.000000	0.000000
65.494266	15.800099	19.780725	-1.790074	2.191362	2.352904	0.000000	0.252081	0.000000	-0.000217	-0.000036	0.000000	0.000000
65.940226	17.646362	17.669857	-2.364691	2.522215	2.480649	0.000000	0.321055	0.000000	-0.000234	-0.000042	0.000000	0.000000
66.489286	20.012727	15.308375	-1.919680	1.804142	2.636573	0.000000	0.246004	0.000000	-0.000255	-0.000034	0.000000	0.000000
67.038346	21.812616	13.660651	-1.339074	1.214573	2.750024	0.000000	0.166589	0.000000	-0.000271	-0.000025	0.000000	0.000000
67.587406	22.918898	12.609323	-0.663885	0.711516	2.818991	0.000000	0.084219	0.000000	-0.000283	-0.000016	0.000000	0.000000
68.136466	23.253431	12.079506	0.058197	0.259137	2.842249	0.000000	0.000354	0.000000	-0.000289	-0.000007	0.000000	0.000000
68.435038	23.258881	11.913874	-0.015547	0.263969	2.844580	0.000000	0.007799	0.000000	-0.000291	-0.000008	0.000000	0.000000
68.768372	23.274024	11.747870	-0.029882	0.234041	2.847182	0.000000	0.007799	0.000000	-0.000294	-0.000008	0.000000	0.000000
69.101705	23.298723	11.601819	-0.044216	0.204113	2.849784	0.000000	0.007799	0.000000	-0.000297	-0.000008	0.000000	0.000000
69.436288	23.333126	11.475285	-0.058605	0.174073	2.852396	0.000000	0.007799	0.000000	-0.000299	-0.000008	0.000000	0.000000
69.733611	23.371777	11.379710	-0.132612	0.177184	2.854717	0.000000	0.015276	0.000000	-0.000302	-0.000009	0.000000	0.000000
70.282671	23.116015	11.412959	0.595671	-0.238098	2.839913	0.000000	-0.069129	0.000000	-0.000304	0.000001	0.000000	0.000000
