#ParticleID	Turn	x[m]	xp	y[m]	yp	z[m]	dE[GeV]# s	beta_x	beta_y	alpha_x	alpha_y	D_x	D_y	D_px	D_py	orbit_x	orbit_px	orbit_y	orbit_py
0.300000	11.959586	25.322935	-0.019991	-0.021675	2.599413	0.000000	0.000472	0.000000	-0.000849	0.000738	0.000000	0.000000
0.601250	11.979222	25.339579	-0.045190	-0.033577	2.599333	0.000000	0.000472	0.000000	-0.000626	0.000738	0.000000	0.000000
0.898573	12.013488	25.363038	-0.040487	-0.107492	2.599254	0.000000	-0.005926	0.000000	-0.000407	0.000739	0.000000	0.000000
1.339533	12.203065	25.176345	-0.390810	0.529261	2.612514	0.000000	0.067541	0.000000	-0.000083	0.000733	0.000000	0.000000
1.780493	12.708283	24.436597	-0.758995	1.141937	2.658309	0.000000	0.141771	0.000000	0.000240	0.000735	0.000000	0.000000
2.221453	13.552230	23.177446	-1.161862	1.702658	2.737156	0.000000	0.217607	0.000000	0.000566	0.000745	0.000000	0.000000
2.662413	14.773473	21.456175	-1.617819	2.185910	2.849952	0.000000	0.295914	0.000000	0.000899	0.000764	0.000000	0.000000
3.108373	16.448907	19.325877	-2.152071	2.570873	2.999826	0.000000	0.378073	0.000000	0.001245	0.000792	0.000000	0.000000
3.657433	18.596609	16.932832	-1.735900	1.813201	3.181939	0.000000	0.285769	0.000000	0.001667	0.000744	0.000000	0.000000
4.206493	20.216850	15.296430	-1.197089	1.184682	3.311935	0.000000	0.188408	0.000000	0.002060	0.000684	0.000000	0.000000
4.755553	21.195154	14.300119	-0.573701	0.640546	3.387514	0.000000	0.087716	0.000000	0.002416	0.000612	0.000000	0.000000
5.304613	21.462393	13.872940	0.090228	0.142036	3.407340	0.000000	-0.014522	0.000000	0.002730	0.000528	0.000000	0.000000
5.603185	21.445383	13.773672	0.021513	0.155144	3.405441	0.000000	-0.005825	0.000000	0.002890	0.000535	0.000000	0.000000
5.936519	21.436224	13.678503	0.005962	0.130361	3.403321	0.000000	-0.005825	0.000000	0.003068	0.000535	0.000000	0.000000
6.269852	21.437433	13.599857	-0.009588	0.105578	3.401201	0.000000	-0.005825	0.000000	0.003247	0.000535	0.000000	0.000000
6.604435	21.449072	13.537531	-0.025197	0.080702	3.399073	0.000000	-0.005825	0.000000	0.003426	0.000535	0.000000	0.000000
6.901758	21.468187	13.496109	-0.093458	0.092895	3.397183	0.000000	0.002782	0.000000	0.003585	0.000544	0.000000	0.000000
7.450818	21.204692	13.655902	0.570790	-0.385627	3.370469	0.000000	-0.099019	0.000000	0.003851	0.000424	0.000000	0.000000
7.999878	20.229609	14.353112	1.194722	-0.891622	3.288324	0.000000	-0.199056	0.000000	0.004049	0.000296	0.000000	0.000000
8.548938	18.611821	15.637410	1.734257	-1.461133	3.152209	0.000000	-0.295558	0.000000	0.004175	0.000163	0.000000	0.000000
9.097998	16.465622	17.600286	2.151275	-2.134731	2.964541	0.000000	-0.386814	0.000000	0.004227	0.000027	0.000000	0.000000
9.543958	14.791128	19.349074	1.616715	-1.769869	2.810188	0.000000	-0.305608	0.000000	0.004264	0.000137	0.000000	0.000000
9.984918	13.571089	20.719447	1.160470	-1.325816	2.692477	0.000000	-0.228380	0.000000	0.004348	0.000248	0.000000	0.000000
10.425878	12.728645	21.669975	0.757251	-0.821432	2.608169	0.000000	-0.153757	0.000000	0.004482	0.000362	0.000000	0.000000
10.866838	12.225299	22.157402	0.388632	-0.279668	2.556302	0.000000	-0.080889	0.000000	0.004668	0.000480	0.000000	0.000000
11.309048	12.037897	22.158974	0.065800	0.222788	2.536264	0.000000	-0.014876	0.000000	0.004907	0.000591	0.000000	0.000000
11.606371	12.006145	22.030681	0.040994	0.208705	2.531666	0.000000	-0.014876	0.000000	0.005083	0.000591	0.000000	0.000000
12.086371	11.986013	21.841238	0.000947	0.185968	2.524241	0.000000	-0.014876	0.000000	0.005367	0.000591	0.000000	0.000000
12.566371	12.004326	21.673623	-0.039100	0.163231	2.516817	0.000000	-0.014876	0.000000	0.005650	0.000591	0.000000	0.000000
13.046371	12.061084	21.527835	-0.079146	0.140494	2.509393	0.000000	-0.014876	0.000000	0.005934	0.000591	0.000000	0.000000
13.526371	12.156287	21.403874	-0.119193	0.117757	2.501969	0.000000	-0.014876	0.000000	0.006218	0.000591	0.000000	0.000000
14.007621	12.290333	21.301503	-0.159344	0.094961	2.494526	0.000000	-0.014876	0.000000	0.006502	0.000591	0.000000	0.000000
14.304943	12.392446	21.249250	-0.155714	0.032288	2.489925	0.000000	-0.020589	0.000000	0.006678	0.000575	0.000000	0.000000
14.745903	12.688656	20.988363	-0.518271	0.557038	2.496119	0.000000	0.049982	0.000000	0.006971	0.000751	0.000000	0.000000
15.186863	13.313880	20.274091	-0.904520	1.056441	2.533452	0.000000	0.121115	0.000000	0.007342	0.000936	0.000000	0.000000
15.627823	14.296704	19.138934	-1.332115	1.507769	2.602348	0.000000	0.193618	0.000000	0.007798	0.001131	0.000000	0.000000
16.068783	15.682064	17.634541	-1.820601	1.890483	2.703587	0.000000	0.268314	0.000000	0.008342	0.001339	0.000000	0.000000
16.514743	17.556925	15.807787	-2.397233	2.188071	2.840015	0.000000	0.346543	0.000000	0.008989	0.001564	0.000000	0.000000
17.063803	19.964079	13.768872	-1.959587	1.546815	3.005958	0.000000	0.259657	0.000000	0.009765	0.001260	0.000000	0.000000
17.612863	21.811167	12.369921	-1.383440	1.015760	3.123026	0.000000	0.168184	0.000000	0.010368	0.000934	0.000000	0.000000
18.161923	22.967615	11.511279	-0.709511	0.557074	3.189149	0.000000	0.073742	0.000000	0.010788	0.000591	0.000000	0.000000
18.710983	23.351663	11.131782	0.014571	0.138076	3.203160	0.000000	-0.021999	0.000000	0.011015	0.000238	0.000000	0.000000
19.009556	23.379677	11.041899	-0.053455	0.136814	3.198768	0.000000	-0.014424	0.000000	0.011095	0.000265	0.000000	0.000000
19.342889	23.420079	10.960941	-0.067753	0.106061	3.193872	0.000000	-0.014424	0.000000	0.011183	0.000265	0.000000	0.000000
19.676223	23.470014	10.900485	-0.082051	0.075308	3.188975	0.000000	-0.014424	0.000000	0.011271	0.000265	0.000000	0.000000
20.010806	23.530013	10.860285	-0.212984	0.098248	3.184080	0.000000	0.001352	0.000000	0.011360	0.000321	0.000000	0.000000
20.308129	23.660682	10.810039	-0.281896	0.096113	3.184392	0.000000	0.008849	0.000000	0.011456	0.000350	0.000000	0.000000
20.857189	23.562345	10.924107	0.460017	-0.305056	3.163046	0.000000	-0.086167	0.000000	0.011546	-0.000023	0.000000	0.000000
21.406249	22.662133	11.488059	1.169420	-0.727960	3.090060	0.000000	-0.179653	0.000000	0.011431	-0.000395	0.000000	0.000000
21.955309	21.023680	12.542072	1.796172	-1.202731	2.966731	0.000000	-0.269958	0.000000	0.011113	-0.000760	0.000000	0.000000
22.504369	18.762813	14.161236	2.295975	-1.763194	2.795242	0.000000	-0.355486	0.000000	0.010598	-0.001112	0.000000	0.000000
22.950329	16.983021	15.615907	1.707835	-1.484377	2.654353	0.000000	-0.278468	0.000000	0.010162	-0.000843	0.000000	0.000000
23.391289	15.704119	16.777314	1.202690	-1.139036	2.548124	0.000000	-0.205101	0.000000	0.009848	-0.000585	0.000000	0.000000
23.832249	14.845001	17.609997	0.752521	-0.741856	2.473601	0.000000	-0.134064	0.000000	0.009645	-0.000334	0.000000	0.000000
24.273209	14.366388	18.076064	0.336751	-0.310914	2.429935	0.000000	-0.064551	0.000000	0.009553	-0.000086	0.000000	0.000000
24.715418	14.246515	18.154024	-0.032018	0.093676	2.416631	0.000000	-0.001150	0.000000	0.009570	0.000138	0.000000	0.000000
25.012741	14.271765	18.103232	-0.052909	0.077155	2.416248	0.000000	-0.001150	0.000000	0.009611	0.000138	0.000000	0.000000
25.346075	14.314845	18.057969	-0.076330	0.058632	2.415819	0.000000	-0.001150	0.000000	0.009657	0.000138	0.000000	0.000000
25.679408	14.373539	18.025055	-0.099752	0.040110	2.415390	0.000000	-0.001150	0.000000	0.009703	0.000138	0.000000	0.000000
26.013991	14.447863	18.004800	-0.006051	-0.124546	2.414935	0.000000	-0.020741	0.000000	0.009749	0.000059	0.000000	0.000000
26.311314	14.457539	18.083898	0.005466	-0.181454	2.408747	0.000000	-0.026089	0.000000	0.009766	0.000036	0.000000	0.000000
26.752274	14.631416	18.048040	-0.401155	0.262449	2.412262	0.000000	0.042360	0.000000	0.009838	0.000289	0.000000	0.000000
27.193234	15.170700	17.624432	-0.826113	0.694408	2.445934	0.000000	0.111289	0.000000	0.010022	0.000545	0.000000	0.000000
27.634194	16.100050	16.832349	-1.288837	1.094765	2.510145	0.000000	0.181480	0.000000	0.010319	0.000807	0.000000	0.000000
28.075154	17.461961	15.707833	-1.810478	1.445298	2.605623	0.000000	0.253730	0.000000	0.010735	0.001079	0.000000	0.000000
28.521114	19.342589	14.284974	-2.420025	1.731174	2.735072	0.000000	0.329338	0.000000	0.011279	0.001364	0.000000	0.000000
29.070174	21.734016	12.700445	-1.908257	1.171276	2.892653	0.000000	0.245983	0.000000	0.011926	0.000988	0.000000	0.000000
29.619234	23.485421	11.681679	-1.261609	0.694830	3.003401	0.000000	0.158280	0.000000	0.012361	0.000595	0.000000	0.000000
30.168294	24.472980	11.156097	-0.525787	0.267891	3.065357	0.000000	0.067779	0.000000	0.012577	0.000191	0.000000	0.000000
30.717354	24.626875	11.086255	0.247199	-0.139961	3.077423	0.000000	-0.023923	0.000000	0.012570	-0.000217	0.000000	0.000000
31.015927	24.517138	11.162594	0.177299	-0.141395	3.072468	0.000000	-0.016758	0.000000	0.012515	-0.000186	0.000000	0.000000
31.349260	24.403613	11.267010	0.163275	-0.171853	3.066944	0.000000	-0.016758	0.000000	0.012453	-0.000186	0.000000	0.000000
31.682593	24.299437	11.391732	0.149252	-0.202312	3.061420	0.000000	-0.016758	0.000000	0.012391	-0.000186	0.000000	0.000000
32.017177	24.204272	11.537342	0.135176	-0.232885	3.055876	0.000000	-0.016758	0.000000	0.012329	-0.000186	0.000000	0.000000
32.314499	24.127716	11.683852	0.066320	-0.232793	3.050955	0.000000	-0.009632	0.000000	0.012273	-0.000155	0.000000	0.000000
32.863559	23.641799	12.178055	0.813044	-0.672454	3.020943	0.000000	-0.100184	0.000000	0.012079	-0.000550	0.000000	0.000000
33.412619	22.362477	13.178460	1.502296	-1.160026	2.941824	0.000000	-0.188967	0.000000	0.011671	-0.000935	0.000000	0.000000
33.961679	20.380200	14.756336	2.085359	-1.730248	2.814994	0.000000	-0.274413	0.000000	0.011055	-0.001303	0.000000	0.000000
34.510739	17.835110	17.024087	2.521026	-2.423744	2.642698	0.000000	-0.355010	0.000000	0.010244	-0.001648	0.000000	0.000000
34.956699	15.857763	19.052898	1.927300	-2.105867	2.501374	0.000000	-0.281961	0.000000	0.009567	-0.001391	0.000000	0.000000
35.397659	14.383884	20.734722	1.426817	-1.693114	2.392969	0.000000	-0.212569	0.000000	0.009006	-0.001152	0.000000	0.000000
35.838619	13.321194	22.016970	0.991557	-1.203309	2.314509	0.000000	-0.145587	0.000000	0.008549	-0.000926	0.000000	0.000000
36.279579	12.621105	22.841297	0.601623	-0.658744	2.265106	0.000000	-0.080253	0.000000	0.008188	-0.000710	0.000000	0.000000
36.721789	12.250960	23.170494	0.266828	-0.136570	2.244175	0.000000	-0.020909	0.000000	0.007921	-0.000521	0.000000	0.000000
37.019112	12.100022	23.255592	0.240830	-0.149641	2.238113	0.000000	-0.020909	0.000000	0.007766	-0.000521	0.000000	0.000000
37.352445	11.949183	23.360237	0.211684	-0.164296	2.231317	0.000000	-0.020909	0.000000	0.007592	-0.000521	0.000000	0.000000
37.685779	11.817776	23.474652	0.182538	-0.178950	2.224521	0.000000	-0.020909	0.000000	0.007419	-0.000521	0.000000	0.000000
38.020362	11.705415	23.599321	0.153283	-0.193659	2.217700	0.000000	-0.020909	0.000000	0.007244	-0.000521	0.000000	0.000000
38.317684	11.621979	23.718401	0.153842	-0.261103	2.211636	0.000000	-0.025962	0.000000	0.007090	-0.000538	0.000000	0.000000
38.758644	11.635171	23.685826	-0.184018	0.334688	2.214344	0.000000	0.037389	0.000000	0.006893	-0.000357	0.000000	0.000000
39.199604	11.948950	23.132494	-0.530285	0.915248	2.244983	0.000000	0.101170	0.000000	0.006774	-0.000181	0.000000	0.000000
39.640564	12.577655	22.083589	-0.900784	1.454156	2.303901	0.000000	0.166106	0.000000	0.006732	-0.000007	0.000000	0.000000
40.081524	13.550020	20.586844	-1.312450	1.926888	2.391772	0.000000	0.232934	0.000000	0.006768	0.000167	0.000000	0.000000
40.527484	14.928037	18.687636	-1.788027	2.313407	2.511082	0.000000	0.302841	0.000000	0.006882	0.000344	0.000000	0.000000
41.076544	16.689146	16.552841	-1.400057	1.597251	2.656633	0.000000	0.226955	0.000000	0.007009	0.000119	0.000000	0.000000
41.625604	17.966936	15.137814	-0.913161	0.994885	2.759465	0.000000	0.147044	0.000000	0.007012	-0.000108	0.000000	0.000000
42.174664	18.671113	14.341749	-0.361748	0.463398	2.817755	0.000000	0.064523	0.000000	0.006890	-0.000333	0.000000	0.000000
42.723724	18.751922	14.107931	0.215219	-0.035074	2.830465	0.000000	-0.019149	0.000000	0.006647	-0.000553	0.000000	0.000000
43.022297	18.655868	14.114381	0.152626	-0.021353	2.826989	0.000000	-0.012173	0.000000	0.006487	-0.000536	0.000000	0.000000
43.502297	18.521985	14.151211	0.126297	-0.055376	2.821403	0.000000	-0.012173	0.000000	0.006230	-0.000536	0.000000	0.000000
43.982297	18.413377	14.220703	0.099969	-0.089399	2.815817	0.000000	-0.012173	0.000000	0.005972	-0.000536	0.000000	0.000000
44.462297	18.330045	14.322858	0.073640	-0.123423	2.810231	0.000000	-0.012173	0.000000	0.005715	-0.000536	0.000000	0.000000
44.942297	18.271988	14.457675	0.047312	-0.157446	2.804646	0.000000	-0.012173	0.000000	0.005458	-0.000536	0.000000	0.000000
45.423547	18.239381	14.625453	-0.069454	-0.119095	2.799063	0.000000	0.001695	0.000000	0.005200	-0.000510	0.000000	0.000000
45.720870	18.285565	14.702391	-0.131563	-0.103050	2.799719	0.000000	0.008697	0.000000	0.005048	-0.000497	0.000000	0.000000
46.269930	18.121883	15.099588	0.427588	-0.624583	2.782098	0.000000	-0.073894	0.000000	0.004731	-0.000656	0.000000	0.000000
46.818990	17.357144	16.090452	0.956519	-1.190608	2.719498	0.000000	-0.155185	0.000000	0.004330	-0.000802	0.000000	0.000000
47.368050	16.045395	17.745558	1.417860	-1.841444	2.613024	0.000000	-0.233735	0.000000	0.003853	-0.000935	0.000000	0.000000
47.917110	14.279333	20.182792	1.779018	-2.623450	2.464559	0.000000	-0.308155	0.000000	0.003307	-0.001051	0.000000	0.000000
48.363070	12.903901	22.349124	1.315588	-2.213628	2.342935	0.000000	-0.239505	0.000000	0.002856	-0.000971	0.000000	0.000000
48.804030	11.923358	24.083512	0.916084	-1.704463	2.252251	0.000000	-0.173981	0.000000	0.002443	-0.000903	0.000000	0.000000
49.244990	11.275460	25.332786	0.558444	-1.117743	2.189975	0.000000	-0.110429	0.000000	0.002058	-0.000845	0.000000	0.000000
49.685950	10.930593	26.040112	0.226325	-0.480167	2.155399	0.000000	-0.048125	0.000000	0.001697	-0.000796	0.000000	0.000000
50.128160	10.873165	26.173021	-0.069241	0.116127	2.148146	0.000000	0.008439	0.000000	0.001354	-0.000760	0.000000	0.000000
50.425482	10.922508	26.107390	-0.096717	0.104614	2.150881	0.000000	0.008439	0.000000	0.001128	-0.000760	0.000000	0.000000
50.758816	10.997254	26.041949	-0.127521	0.091707	2.153947	0.000000	0.008439	0.000000	0.000874	-0.000760	0.000000	0.000000
51.092149	11.092535	25.985114	-0.158324	0.078799	2.157013	0.000000	0.008439	0.000000	0.000621	-0.000760	0.000000	0.000000
51.426732	11.208598	25.937245	-0.098312	-0.144572	2.160069	0.000000	-0.009085	0.000000	0.000366	-0.000763	0.000000	0.000000
51.724055	11.275022	26.026693	-0.097481	-0.220300	2.157595	0.000000	-0.014369	0.000000	0.000139	-0.000764	0.000000	0.000000
52.165015	11.507793	25.931259	-0.432642	0.435900	2.165250	0.000000	0.047641	0.000000	-0.000197	-0.000764	0.000000	0.000000
52.605975	12.043706	25.263683	-0.787564	1.072263	2.200346	0.000000	0.110202	0.000000	-0.000536	-0.000774	0.000000	0.000000
53.046935	12.907237	24.054345	-1.178460	1.659837	2.263286	0.000000	0.174027	0.000000	-0.000881	-0.000792	0.000000	0.000000
53.487895	14.137830	22.358278	-1.623189	2.171889	2.354790	0.000000	0.239842	0.000000	-0.001236	-0.000819	0.000000	0.000000
53.933855	15.812732	20.227312	-2.146340	2.586436	2.477421	0.000000	0.308793	0.000000	-0.001609	-0.000856	0.000000	0.000000
54.482915	17.968605	17.829003	-1.757397	1.807487	2.627075	0.000000	0.233954	0.000000	-0.002064	-0.000797	0.000000	0.000000
55.031975	19.626276	16.210772	-1.244345	1.157279	2.734398	0.000000	0.154952	0.000000	-0.002482	-0.000723	0.000000	0.000000
55.581035	20.668690	15.257350	-0.643423	0.589499	2.797480	0.000000	0.073190	0.000000	-0.002856	-0.000637	0.000000	0.000000
56.130095	21.022245	14.900820	0.002929	0.063707	2.815196	0.000000	-0.009880	0.000000	-0.003179	-0.000539	0.000000	0.000000
56.428668	21.058410	14.844898	-0.067694	0.083529	2.814663	0.000000	-0.002330	0.000000	-0.003342	-0.000547	0.000000	0.000000
56.762001	21.108839	14.796749	-0.083595	0.060918	2.814069	0.000000	-0.002330	0.000000	-0.003525	-0.000547	0.000000	0.000000
57.095334	21.169870	14.763674	-0.099497	0.038307	2.813474	0.000000	-0.002330	0.000000	-0.003707	-0.000547	0.000000	0.000000
57.429918	21.241790	14.745634	-0.115458	0.015611	2.812878	0.000000	-0.002330	0.000000	-0.003890	-0.000547	0.000000	0.000000
57.727240	21.314675	14.742340	-0.187203	0.035140	2.812348	0.000000	0.005264	0.000000	-0.004053	-0.000558	0.000000	0.000000
58.276300	21.155870	14.986375	0.474439	-0.482250	2.792699	0.000000	-0.077680	0.000000	-0.004323	-0.000422	0.000000	0.000000
58.825360	20.284785	15.813941	1.102565	-1.033982	2.727748	0.000000	-0.159253	0.000000	-0.004516	-0.000279	0.000000	0.000000
59.374420	18.762941	17.283970	1.652821	-1.659352	2.618643	0.000000	-0.238007	0.000000	-0.004628	-0.000131	0.000000	0.000000
59.923480	16.697809	19.501155	2.086351	-2.402898	2.467318	0.000000	-0.312541	0.000000	-0.004659	0.000019	0.000000	0.000000
60.369440	15.080122	21.471565	1.554032	-1.996964	2.343333	0.000000	-0.243886	0.000000	-0.004678	-0.000102	0.000000	0.000000
60.810400	13.915643	23.020020	1.096878	-1.501464	2.250393	0.000000	-0.178393	0.000000	-0.004749	-0.000223	0.000000	0.000000
61.251360	13.130759	24.099609	0.689830	-0.937658	2.185909	0.000000	-0.114928	0.000000	-0.004875	-0.000347	0.000000	0.000000
61.692320	12.689618	24.661221	0.314294	-0.331197	2.149149	0.000000	-0.052769	0.000000	-0.005056	-0.000475	0.000000	0.000000
62.134530	12.572114	24.678722	-0.014627	0.226984	2.139700	0.000000	0.003289	0.000000	-0.005296	-0.000595	0.000000	0.000000
62.431853	12.587845	24.547513	-0.038282	0.214316	2.140855	0.000000	0.003289	0.000000	-0.005473	-0.000595	0.000000	0.000000
62.765186	12.622206	24.409370	-0.064801	0.200113	2.142150	0.000000	0.003289	0.000000	-0.005671	-0.000595	0.000000	0.000000
63.098520	12.674247	24.280696	-0.091320	0.185910	2.143445	0.000000	0.003289	0.000000	-0.005870	-0.000595	0.000000	0.000000
63.433103	12.744262	24.161061	-0.117939	0.171654	2.144744	0.000000	0.003289	0.000000	-0.006069	-0.000595	0.000000	0.000000
63.730426	12.821412	24.062782	-0.108327	0.096347	2.145898	0.000000	-0.002279	0.000000	-0.006246	-0.000580	0.000000	0.000000
64.171386	13.079359	23.712928	-0.479156	0.694097	2.158780	0.000000	0.059487	0.000000	-0.006537	-0.000744	0.000000	0.000000
64.612346	13.672659	22.847921	-0.871865	1.260270	2.199093	0.000000	0.121938	0.000000	-0.006904	-0.000918	0.000000	0.000000
65.053306	14.628398	21.507120	-1.304387	1.769109	2.267300	0.000000	0.185788	0.000000	-0.007348	-0.001101	0.000000	0.000000
65.494266	15.990212	19.751527	-1.796473	2.197469	2.364180	0.000000	0.251765	0.000000	-0.007877	-0.001298	0.000000	0.000000
65.940226	17.843594	17.636153	-2.375113	2.526433	2.492424	0.000000	0.320998	0.000000	-0.008502	-0.001510	0.000000	0.000000
66.489286	20.216773	15.270234	-1.922843	1.808577	2.648901	0.000000	0.245579	0.000000	-0.009253	-0.001222	0.000000	0.000000
67.038346	22.015481	13.617609	-1.334832	1.219513	2.762550	0.000000	0.165786	0.000000	-0.009840	-0.000913	0.000000	0.000000
67.587406	23.112768	12.560577	-0.652594	0.717293	2.831347	0.000000	0.083039	0.000000	-0.010253	-0.000588	0.000000	0.000000
68.136466	23.431198	12.023855	0.075706	0.266150	2.854068	0.000000	-0.001191	0.000000	-0.010483	-0.000252	0.000000	0.000000
68.435038	23.429402	11.852658	-0.003490	0.273221	2.856208	0.000000	0.006903	0.000000	-0.010567	-0.000280	0.000000	0.000000
68.768372	23.436471	11.680585	-0.017717	0.242999	2.858603	0.000000	0.006903	0.000000	-0.010660	-0.000280	0.000000	0.000000
69.101705	23.453024	11.528660	-0.031944	0.212776	2.860997	0.000000	0.006903	0.000000	-0.010754	-0.000280	0.000000	0.000000
69.436288	23.479178	11.396427	-0.046225	0.182440	2.863401	0.000000	0.006903	0.000000	-0.010848	-0.000280	0.000000	0.000000
69.733611	23.510521	11.295915	-0.125805	0.187573	2.865542	0.000000	0.015056	0.000000	-0.010931	-0.000310	0.000000	0.000000
70.282671	23.244941	11.316396	0.606629	-0.225102	2.850599	0.000000	-0.069670	0.000000	-0.011004	0.000045	0.000000	0.000000
