#ParticleID	Turn	x[m]	xp	y[m]	yp	z[m]	dE[GeV]# s	beta_x	beta_y	alpha_x	alpha_y	D_x	D_y	D_px	D_py	orbit_x	orbit_px	orbit_y	orbit_py
0.300000	11.842538	24.962525	-0.014351	-0.027365	2.617250	0.000000	-0.000014	0.000000	-0.000043	0.000038	0.000000	0.000000
0.601250	11.858849	24.982651	-0.039794	-0.039442	2.617235	0.000000	-0.000014	0.000000	-0.000031	0.000038	0.000000	0.000000
0.898573	11.889979	25.009649	-0.035742	-0.112691	2.617220	0.000000	-0.006433	0.000000	-0.000020	0.000038	0.000000	0.000000
1.339533	12.073987	24.831642	-0.383119	0.514835	2.630655	0.000000	0.067500	0.000000	-0.000004	0.000037	0.000000	0.000000
1.780493	12.570886	24.108462	-0.747999	1.118937	2.676831	0.000000	0.142203	0.000000	0.000013	0.000037	0.000000	0.000000
2.221453	13.403376	22.873013	-1.147053	1.672128	2.756272	0.000000	0.218524	0.000000	0.000029	0.000038	0.000000	0.000000
2.662413	14.609493	21.181505	-1.598514	2.149239	2.869884	0.000000	0.297334	0.000000	0.000046	0.000039	0.000000	0.000000
3.108373	16.265182	19.086093	-2.127313	2.529692	3.020821	0.000000	0.380019	0.000000	0.000064	0.000040	0.000000	0.000000
3.657433	18.388235	16.732739	-1.716479	1.781756	3.204193	0.000000	0.287021	0.000000	0.000086	0.000038	0.000000	0.000000
4.206493	19.990490	15.126616	-1.184400	1.160730	3.335030	0.000000	0.188931	0.000000	0.000106	0.000035	0.000000	0.000000
4.755553	20.958769	14.153325	-0.568660	0.622380	3.411011	0.000000	0.087492	0.000000	0.000124	0.000031	0.000000	0.000000
5.304613	21.224678	13.743541	0.087248	0.128361	3.430789	0.000000	-0.015500	0.000000	0.000140	0.000027	0.000000	0.000000
5.603185	21.209859	13.652137	0.017775	0.141913	3.428826	0.000000	-0.006546	0.000000	0.000148	0.000027	0.000000	0.000000
5.936519	21.203249	13.565832	0.002054	0.117005	3.426635	0.000000	-0.006546	0.000000	0.000157	0.000027	0.000000	0.000000
6.269852	21.207120	13.496131	-0.013667	0.092097	3.424444	0.000000	-0.006546	0.000000	0.000166	0.000027	0.000000	0.000000
6.604435	21.221545	13.442868	-0.029446	0.067095	3.422244	0.000000	-0.006546	0.000000	0.000175	0.000027	0.000000	0.000000
6.901758	21.243224	13.409576	-0.098888	0.079867	3.420290	0.000000	0.002377	0.000000	0.000183	0.000028	0.000000	0.000000
7.450818	20.989655	13.582378	0.557992	-0.396447	3.393393	0.000000	-0.100159	0.000000	0.000197	0.000022	0.000000	0.000000
7.999878	20.032221	14.290575	1.175460	-0.900999	3.310607	0.000000	-0.200918	0.000000	0.000207	0.000015	0.000000	0.000000
8.548938	18.438552	15.584610	1.709898	-1.469727	3.173399	0.000000	-0.298113	0.000000	0.000213	0.000008	0.000000	0.000000
9.097998	16.321216	17.556657	2.123556	-2.143141	2.984204	0.000000	-0.390020	0.000000	0.000216	0.000001	0.000000	0.000000
9.543958	14.669134	19.313916	1.594162	-1.780591	2.828569	0.000000	-0.308344	0.000000	0.000217	0.000007	0.000000	0.000000
9.984918	13.467193	20.694461	1.141910	-1.338259	2.709836	0.000000	-0.230665	0.000000	0.000222	0.000013	0.000000	0.000000
10.425878	12.639678	21.656461	0.741829	-0.835036	2.624744	0.000000	-0.155613	0.000000	0.000229	0.000018	0.000000	0.000000
10.866838	12.148783	22.156145	0.375640	-0.293820	2.572322	0.000000	-0.082334	0.000000	0.000238	0.000024	0.000000	0.000000
11.309048	11.971941	22.170260	0.055798	0.206456	2.551953	0.000000	-0.016236	0.000000	0.000250	0.000030	0.000000	0.000000
11.606371	11.946168	22.051649	0.030885	0.192473	2.547117	0.000000	-0.016236	0.000000	0.000259	0.000030	0.000000	0.000000
12.086371	11.935823	21.877710	-0.009333	0.169900	2.539309	0.000000	-0.016236	0.000000	0.000273	0.000030	0.000000	0.000000
12.566371	11.964088	21.725442	-0.049552	0.147326	2.531501	0.000000	-0.016236	0.000000	0.000288	0.000030	0.000000	0.000000
13.046371	12.030963	21.594844	-0.089770	0.124753	2.523694	0.000000	-0.016236	0.000000	0.000302	0.000030	0.000000	0.000000
13.526371	12.136447	21.485916	-0.129989	0.102179	2.515886	0.000000	-0.016236	0.000000	0.000317	0.000030	0.000000	0.000000
14.007621	12.280967	21.398460	-0.170312	0.079547	2.508058	0.000000	-0.016236	0.000000	0.000331	0.000030	0.000000	0.000000
14.304943	12.389650	21.355315	-0.164939	0.013373	2.503222	0.000000	-0.022355	0.000000	0.000340	0.000029	0.000000	0.000000
14.745903	12.693921	21.109769	-0.527683	0.541351	2.508976	0.000000	0.048542	0.000000	0.000355	0.000038	0.000000	0.000000
15.186863	13.327489	20.407709	-0.914536	1.044699	2.546080	0.000000	0.119991	0.000000	0.000374	0.000048	0.000000	0.000000
15.627823	14.319300	19.281079	-1.343172	1.500513	2.614958	0.000000	0.192806	0.000000	0.000397	0.000057	0.000000	0.000000
16.068783	15.714669	17.781140	-1.833176	1.888054	2.716394	0.000000	0.267817	0.000000	0.000425	0.000068	0.000000	0.000000
16.514743	17.600998	15.954640	-2.411702	2.190447	2.853236	0.000000	0.346341	0.000000	0.000458	0.000080	0.000000	0.000000
17.063803	20.023341	13.915094	-1.973912	1.546068	3.019641	0.000000	0.259045	0.000000	0.000497	0.000064	0.000000	0.000000
17.612863	21.885057	12.518895	-1.396691	1.011814	3.136790	0.000000	0.167156	0.000000	0.000528	0.000047	0.000000	0.000000
18.161923	23.054639	11.666593	-0.720811	0.549630	3.202606	0.000000	0.072303	0.000000	0.000549	0.000030	0.000000	0.000000
18.710983	23.449470	11.297480	0.005985	0.126595	3.215922	0.000000	-0.023832	0.000000	0.000561	0.000012	0.000000	0.000000
19.009556	23.486123	11.212425	-0.067767	0.128902	3.211299	0.000000	-0.015469	0.000000	0.000565	0.000014	0.000000	0.000000
19.342889	23.536054	11.136565	-0.082025	0.098679	3.206138	0.000000	-0.015469	0.000000	0.000569	0.000014	0.000000	0.000000
19.676223	23.595490	11.080853	-0.096283	0.068456	3.200978	0.000000	-0.015469	0.000000	0.000574	0.000014	0.000000	0.000000
20.010806	23.665001	11.045058	-0.227844	0.092844	3.195817	0.000000	0.000365	0.000000	0.000578	0.000016	0.000000	0.000000
20.308129	23.804418	10.997922	-0.302953	0.094290	3.195921	0.000000	0.008675	0.000000	0.000583	0.000018	0.000000	0.000000
20.857189	23.726551	11.116814	0.443935	-0.312106	3.174470	0.000000	-0.086681	0.000000	0.000588	-0.000001	0.000000	0.000000
21.406249	22.840935	11.691498	1.159464	-0.740733	3.101018	0.000000	-0.180499	0.000000	0.000582	-0.000020	0.000000	0.000000
21.955309	21.210127	12.762907	1.793093	-1.222121	2.976868	0.000000	-0.271115	0.000000	0.000566	-0.000039	0.000000	0.000000
22.504369	18.949323	14.407356	2.300062	-1.790560	2.804222	0.000000	-0.356924	0.000000	0.000539	-0.000057	0.000000	0.000000
22.950329	17.167926	15.883637	1.708516	-1.505801	2.662357	0.000000	-0.279736	0.000000	0.000517	-0.000043	0.000000	0.000000
23.391289	15.890331	17.060724	1.199741	-1.153395	2.555337	0.000000	-0.206190	0.000000	0.000501	-0.000030	0.000000	0.000000
23.832249	15.035666	17.902597	0.745779	-0.748510	2.480194	0.000000	-0.134993	0.000000	0.000491	-0.000017	0.000000	0.000000
24.273209	14.564883	18.370952	0.325891	-0.309567	2.436072	0.000000	-0.065332	0.000000	0.000486	-0.000004	0.000000	0.000000
24.715418	14.456581	18.444233	-0.043906	0.098367	2.422467	0.000000	-0.002329	0.000000	0.000487	0.000007	0.000000	0.000000
25.012741	14.488817	18.390579	-0.064512	0.082091	2.421772	0.000000	-0.002329	0.000000	0.000489	0.000007	0.000000	0.000000
25.346075	14.539525	18.341934	-0.087614	0.063844	2.420994	0.000000	-0.002329	0.000000	0.000492	0.000007	0.000000	0.000000
25.679408	14.605635	18.305454	-0.110716	0.045596	2.420215	0.000000	-0.002329	0.000000	0.000494	0.000007	0.000000	0.000000
26.013991	14.687183	18.281441	-0.014753	-0.121027	2.419409	0.000000	-0.021957	0.000000	0.000497	0.000003	0.000000	0.000000
26.311314	14.701976	18.358316	0.000883	-0.182337	2.412879	0.000000	-0.027846	0.000000	0.000497	0.000002	0.000000	0.000000
26.752274	14.882396	18.319979	-0.411580	0.268946	2.415704	0.000000	0.040684	0.000000	0.000501	0.000015	0.000000	0.000000
27.193234	15.433466	17.887540	-0.842848	0.707991	2.448815	0.000000	0.109677	0.000000	0.000510	0.000028	0.000000	0.000000
27.634194	16.380365	17.080676	-1.312625	1.114823	2.512591	0.000000	0.179919	0.000000	0.000526	0.000041	0.000000	0.000000
28.075154	17.766355	15.936098	-1.842373	1.470931	2.607756	0.000000	0.252210	0.000000	0.000547	0.000055	0.000000	0.000000
28.521114	19.678855	14.488643	-2.461258	1.761036	2.736999	0.000000	0.327819	0.000000	0.000574	0.000069	0.000000	0.000000
29.070174	22.109706	12.875754	-1.939755	1.193824	2.894302	0.000000	0.244437	0.000000	0.000607	0.000050	0.000000	0.000000
29.619234	23.888783	11.835667	-1.281233	0.711647	3.004574	0.000000	0.156720	0.000000	0.000630	0.000030	0.000000	0.000000
30.168294	24.890417	11.294296	-0.532207	0.280160	3.065859	0.000000	0.066224	0.000000	0.000641	0.000010	0.000000	0.000000
30.717354	25.043852	11.213080	0.254412	-0.131371	3.077071	0.000000	-0.025446	0.000000	0.000640	-0.000011	0.000000	0.000000
31.015927	24.934483	11.282159	0.176979	-0.129135	3.071864	0.000000	-0.017450	0.000000	0.000637	-0.000009	0.000000	0.000000
31.349260	24.821092	11.378262	0.163192	-0.159173	3.066050	0.000000	-0.017450	0.000000	0.000634	-0.000009	0.000000	0.000000
31.682593	24.716893	11.494389	0.149405	-0.189210	3.060237	0.000000	-0.017450	0.000000	0.000631	-0.000009	0.000000	0.000000
32.017177	24.621546	11.631091	0.135566	-0.219361	3.054402	0.000000	-0.017450	0.000000	0.000628	-0.000009	0.000000	0.000000
32.314499	24.544589	11.769499	0.059475	-0.215565	3.049216	0.000000	-0.009524	0.000000	0.000625	-0.000008	0.000000	0.000000
32.863559	24.058858	12.245564	0.819928	-0.656601	3.019117	0.000000	-0.099986	0.000000	0.000615	-0.000028	0.000000	0.000000
33.412619	22.765060	13.228630	1.522464	-1.144405	2.939773	0.000000	-0.188675	0.000000	0.000595	-0.000047	0.000000	0.000000
33.961679	20.754587	14.788719	2.117457	-1.713724	2.812592	0.000000	-0.274018	0.000000	0.000563	-0.000066	0.000000	0.000000
34.510739	18.169456	17.036952	2.562878	-2.405110	2.639828	0.000000	-0.354502	0.000000	0.000522	-0.000084	0.000000	0.000000
34.956699	16.159681	19.047846	1.959834	-2.085170	2.498108	0.000000	-0.281577	0.000000	0.000488	-0.000071	0.000000	0.000000
35.397659	14.661152	20.710556	1.451339	-1.671115	2.389351	0.000000	-0.212288	0.000000	0.000459	-0.000059	0.000000	0.000000
35.838619	13.580259	21.973048	1.009152	-1.181025	2.310581	0.000000	-0.145416	0.000000	0.000436	-0.000047	0.000000	0.000000
36.279579	12.867615	22.777880	0.613073	-0.637198	2.260902	0.000000	-0.080200	0.000000	0.000418	-0.000036	0.000000	0.000000
36.721789	12.489972	23.088733	0.275409	-0.120829	2.239720	0.000000	-0.021369	0.000000	0.000404	-0.000026	0.000000	0.000000
37.019112	12.333816	23.164468	0.249799	-0.133895	2.233375	0.000000	-0.021369	0.000000	0.000396	-0.000026	0.000000	0.000000
37.352445	12.176854	23.258614	0.221086	-0.148542	2.226260	0.000000	-0.021369	0.000000	0.000388	-0.000026	0.000000	0.000000
37.685779	12.039034	23.362525	0.192374	-0.163190	2.219146	0.000000	-0.021369	0.000000	0.000379	-0.000026	0.000000	0.000000
38.020362	11.919947	23.476646	0.163554	-0.177893	2.212005	0.000000	-0.021369	0.000000	0.000370	-0.000026	0.000000	0.000000
38.317684	11.830305	23.586314	0.166855	-0.248610	2.205660	0.000000	-0.026759	0.000000	0.000362	-0.000027	0.000000	0.000000
38.758644	11.834113	23.544331	-0.175531	0.343455	2.207797	0.000000	0.036420	0.000000	0.000352	-0.000018	0.000000	0.000000
39.199604	12.142263	22.985114	-0.525937	0.919893	2.237855	0.000000	0.100013	0.000000	0.000346	-0.000009	0.000000	0.000000
39.640564	12.768833	21.934107	-0.900372	1.454476	2.296176	0.000000	0.164746	0.000000	0.000344	-0.000000	0.000000	0.000000
40.081524	13.742452	20.439132	-1.315943	1.922881	2.383424	0.000000	0.231356	0.000000	0.000346	0.000009	0.000000	0.000000
40.527484	15.125154	18.545632	-1.795464	2.305083	2.502066	0.000000	0.301007	0.000000	0.000352	0.000018	0.000000	0.000000
41.076544	16.890110	16.417883	-1.399990	1.593030	2.646799	0.000000	0.225442	0.000000	0.000359	0.000006	0.000000	0.000000
41.625604	18.163576	15.005532	-0.905625	0.994446	2.748888	0.000000	0.145878	0.000000	0.000359	-0.000005	0.000000	0.000000
42.174664	18.855599	14.207982	-0.347291	0.466695	2.806522	0.000000	0.063726	0.000000	0.000353	-0.000017	0.000000	0.000000
42.723724	18.917298	13.968422	0.235574	-0.027813	2.818677	0.000000	-0.019556	0.000000	0.000341	-0.000028	0.000000	0.000000
43.022297	18.810933	13.969678	0.169957	-0.012792	2.815039	0.000000	-0.012212	0.000000	0.000333	-0.000027	0.000000	0.000000
43.502297	18.660376	13.998453	0.143703	-0.047157	2.809191	0.000000	-0.012212	0.000000	0.000319	-0.000027	0.000000	0.000000
43.982297	18.535023	14.060220	0.117449	-0.081523	2.803342	0.000000	-0.012212	0.000000	0.000306	-0.000027	0.000000	0.000000
44.462297	18.434874	14.154978	0.091195	-0.115889	2.797493	0.000000	-0.012212	0.000000	0.000293	-0.000027	0.000000	0.000000
44.942297	18.359930	14.282726	0.064940	-0.150255	2.791644	0.000000	-0.012212	0.000000	0.000280	-0.000027	0.000000	0.000000
45.423547	18.310319	14.443749	-0.052102	-0.113147	2.785798	0.000000	0.001590	0.000000	0.000267	-0.000026	0.000000	0.000000
45.720870	18.346142	14.517230	-0.116214	-0.096152	2.786278	0.000000	0.008854	0.000000	0.000260	-0.000025	0.000000	0.000000
46.269930	18.164826	14.903657	0.444472	-0.611798	2.768579	0.000000	-0.073288	0.000000	0.000243	-0.000033	0.000000	0.000000
46.818990	17.381481	15.876792	0.973762	-1.171022	2.706073	0.000000	-0.154131	0.000000	0.000223	-0.000041	0.000000	0.000000
47.368050	16.051438	17.505947	1.434269	-1.813655	2.599869	0.000000	-0.232240	0.000000	0.000199	-0.000048	0.000000	0.000000
47.917110	14.268649	19.907163	1.793465	-2.585471	2.451851	0.000000	-0.306231	0.000000	0.000171	-0.000054	0.000000	0.000000
48.363070	12.881056	22.042138	1.329006	-2.181762	2.330602	0.000000	-0.237918	0.000000	0.000148	-0.000050	0.000000	0.000000
48.804030	11.889104	23.751554	0.929035	-1.680058	2.240172	0.000000	-0.172712	0.000000	0.000127	-0.000046	0.000000	0.000000
49.244990	11.229917	24.982980	0.571508	-1.101913	2.178035	0.000000	-0.109472	0.000000	0.000107	-0.000043	0.000000	0.000000
49.685950	10.873380	25.680387	0.240093	-0.473631	2.143481	0.000000	-0.047479	0.000000	0.000089	-0.000041	0.000000	0.000000
50.128160	10.803336	25.811761	-0.053993	0.112909	2.136129	0.000000	0.008739	0.000000	0.000071	-0.000039	0.000000	0.000000
50.425482	10.843649	25.748088	-0.081595	0.101243	2.138738	0.000000	0.008739	0.000000	0.000060	-0.000039	0.000000	0.000000
50.758816	10.908361	25.684952	-0.112540	0.088165	2.141664	0.000000	0.008739	0.000000	0.000047	-0.000039	0.000000	0.000000
51.092149	10.993702	25.630536	-0.143484	0.075086	2.144591	0.000000	0.008739	0.000000	0.000034	-0.000039	0.000000	0.000000
51.426732	11.099884	25.585202	-0.084495	-0.145601	2.147506	0.000000	-0.008682	0.000000	0.000021	-0.000039	0.000000	0.000000
51.724055	11.158150	25.675311	-0.084112	-0.220441	2.144936	0.000000	-0.013942	0.000000	0.000010	-0.000039	0.000000	0.000000
52.165015	11.377951	25.584105	-0.416251	0.426490	2.152397	0.000000	0.047740	0.000000	-0.000008	-0.000039	0.000000	0.000000
52.605975	11.897918	24.928767	-0.767406	1.054016	2.187151	0.000000	0.109965	0.000000	-0.000025	-0.000039	0.000000	0.000000
53.046935	12.741806	23.739115	-1.153622	1.633585	2.249595	0.000000	0.173444	0.000000	-0.000042	-0.000040	0.000000	0.000000
53.487895	13.948170	22.069279	-1.592543	2.138827	2.340439	0.000000	0.238898	0.000000	-0.000060	-0.000041	0.000000	0.000000
53.933855	15.592794	19.970267	-2.108466	2.548087	2.462223	0.000000	0.307472	0.000000	-0.000079	-0.000043	0.000000	0.000000
54.482915	17.710099	17.608436	-1.724967	1.778900	2.610877	0.000000	0.233136	0.000000	-0.000102	-0.000040	0.000000	0.000000
55.031975	19.336471	16.017146	-1.219627	1.136420	2.717517	0.000000	0.154663	0.000000	-0.000123	-0.000037	0.000000	0.000000
55.581035	20.357035	15.083052	-0.628140	0.574884	2.780250	0.000000	0.073447	0.000000	-0.000142	-0.000032	0.000000	0.000000
56.130095	20.699704	14.739622	0.007715	0.054297	2.797965	0.000000	-0.009073	0.000000	-0.000158	-0.000027	0.000000	0.000000
56.428668	20.731752	14.690268	-0.060896	0.072434	2.797450	0.000000	-0.001752	0.000000	-0.000167	-0.000028	0.000000	0.000000
56.762001	20.777729	14.649582	-0.077034	0.049625	2.796875	0.000000	-0.001752	0.000000	-0.000176	-0.000028	0.000000	0.000000
57.095334	20.834464	14.624102	-0.093172	0.026815	2.796300	0.000000	-0.001752	0.000000	-0.000185	-0.000028	0.000000	0.000000
57.429918	20.902232	14.613819	-0.109371	0.003919	2.795723	0.000000	-0.001752	0.000000	-0.000195	-0.000028	0.000000	0.000000
57.727240	20.971549	14.617537	-0.178653	0.021826	2.795210	0.000000	0.005563	0.000000	-0.000203	-0.000028	0.000000	0.000000
58.276300	20.809824	14.874334	0.471444	-0.492290	2.775628	0.000000	-0.076837	0.000000	-0.000217	-0.000022	0.000000	0.000000
58.825360	19.948361	15.711515	1.088241	-1.041469	2.711108	0.000000	-0.157874	0.000000	-0.000227	-0.000014	0.000000	0.000000
59.374420	18.448008	17.188711	1.628170	-1.664830	2.602793	0.000000	-0.236111	0.000000	-0.000232	-0.000007	0.000000	0.000000
59.923480	16.414743	19.411139	2.053095	-2.406772	2.452606	0.000000	-0.310161	0.000000	-0.000234	0.000001	0.000000	0.000000
60.369440	14.823111	21.386529	1.528552	-2.004065	2.329584	0.000000	-0.241853	0.000000	-0.000235	-0.000006	0.000000	0.000000
60.810400	13.678047	22.942686	1.078058	-1.511540	2.237394	0.000000	-0.176696	0.000000	-0.000239	-0.000012	0.000000	0.000000
61.251360	12.907143	24.032376	0.676817	-0.950241	2.173467	0.000000	-0.113552	0.000000	-0.000246	-0.000018	0.000000	0.000000
61.692320	12.475178	24.606019	0.306497	-0.345708	2.137076	0.000000	-0.051701	0.000000	-0.000255	-0.000024	0.000000	0.000000
62.134530	12.362465	24.636979	-0.019528	0.213942	2.127812	0.000000	0.004331	0.000000	-0.000267	-0.000030	0.000000	0.000000
62.431853	12.381231	24.513512	-0.043587	0.201321	2.129108	0.000000	0.004331	0.000000	-0.000276	-0.000030	0.000000	0.000000
62.765186	12.419280	24.384014	-0.070561	0.187172	2.130562	0.000000	0.004331	0.000000	-0.000286	-0.000030	0.000000	0.000000
63.098520	12.475312	24.263949	-0.097534	0.173023	2.132016	0.000000	0.004331	0.000000	-0.000296	-0.000030	0.000000	0.000000
63.433103	12.549637	24.152920	-0.124609	0.158821	2.133475	0.000000	0.004331	0.000000	-0.000307	-0.000030	0.000000	0.000000
63.730426	12.630889	24.062230	-0.117602	0.087007	2.134772	0.000000	-0.000920	0.000000	-0.000316	-0.000030	0.000000	0.000000
64.171386	12.895318	23.720491	-0.484356	0.685037	2.147926	0.000000	0.060573	0.000000	-0.000330	-0.000038	0.000000	0.000000
64.612346	13.491690	22.863122	-0.873238	1.251898	2.188326	0.000000	0.122755	0.000000	-0.000349	-0.000047	0.000000	0.000000
65.053306	14.447250	21.529132	-1.302014	1.761800	2.256431	0.000000	0.186336	0.000000	-0.000372	-0.000056	0.000000	0.000000
65.494266	15.805654	19.779217	-1.790275	2.191542	2.353018	0.000000	0.252040	0.000000	-0.000399	-0.000066	0.000000	0.000000
65.940226	17.652138	17.668226	-2.365013	2.522319	2.480759	0.000000	0.321016	0.000000	-0.000430	-0.000077	0.000000	0.000000
66.489286	20.018725	15.306626	-1.919790	1.804267	2.636677	0.000000	0.245962	0.000000	-0.000469	-0.000062	0.000000	0.000000
67.038346	21.818602	13.658756	-1.338966	1.214727	2.750118	0.000000	0.166545	0.000000	-0.000498	-0.000046	0.000000	0.000000
67.587406	22.924639	12.607241	-0.663568	0.711709	2.819068	0.000000	0.084172	0.000000	-0.000519	-0.000030	0.000000	0.000000
68.136466	23.258715	12.077185	0.058700	0.259384	2.842306	0.000000	0.000307	0.000000	-0.000531	-0.000013	0.000000	0.000000
68.435038	23.263945	11.911374	-0.015178	0.264265	2.844629	0.000000	0.007766	0.000000	-0.000535	-0.000014	0.000000	0.000000
68.768372	23.278841	11.745177	-0.029510	0.234327	2.847222	0.000000	0.007766	0.000000	-0.000540	-0.000014	0.000000	0.000000
69.101705	23.303292	11.598939	-0.043841	0.204388	2.849816	0.000000	0.007766	0.000000	-0.000545	-0.000014	0.000000	0.000000
69.436288	23.337442	11.472224	-0.058227	0.174337	2.852419	0.000000	0.007766	0.000000	-0.000550	-0.000014	0.000000	0.000000
69.733611	23.375867	11.376495	-0.132370	0.177492	2.854732	0.000000	0.015259	0.000000	-0.000554	-0.000016	0.000000	0.000000
70.282671	23.119770	11.409354	0.596035	-0.237692	2.839921	0.000000	-0.069145	0.000000	-0.000558	0.000002	0.000000	0.000000
