#ParticleID	Turn	x[m]	xp	y[m]	yp	z[m]	dE[GeV]# s	beta_x	beta_y	alpha_x	alpha_y	D_x	D_y	D_px	D_py	orbit_x	orbit_px	orbit_y	orbit_py
0.300000	11.915296	25.205068	-0.018864	-0.023347	2.606201	0.000000	0.000582	0.000000	-0.000477	0.000418	0.000000	0.000000
0.601250	11.934281	25.222737	-0.044156	-0.035306	2.606251	0.000000	0.000582	0.000000	-0.000351	0.000418	0.000000	0.000000
0.898573	11.967960	25.247241	-0.039706	-0.109004	2.606299	0.000000	-0.005823	0.000000	-0.000226	0.000419	0.000000	0.000000
1.339533	12.156336	25.063225	-0.388967	0.524724	2.619781	0.000000	0.067830	0.000000	-0.000043	0.000415	0.000000	0.000000
1.780493	12.659378	24.328743	-0.756002	1.134579	2.665880	0.000000	0.142250	0.000000	0.000140	0.000416	0.000000	0.000000
2.221453	13.500074	23.077210	-1.157581	1.692813	2.745118	0.000000	0.218287	0.000000	0.000325	0.000422	0.000000	0.000000
2.662413	14.716838	21.365565	-1.612050	2.174025	2.858397	0.000000	0.296805	0.000000	0.000514	0.000433	0.000000	0.000000
3.108373	16.386278	19.246601	-2.144524	2.557473	3.008861	0.000000	0.379189	0.000000	0.000710	0.000449	0.000000	0.000000
3.657433	18.526587	16.866461	-1.730268	1.802999	3.191678	0.000000	0.286584	0.000000	0.000950	0.000422	0.000000	0.000000
4.206493	20.141776	15.239867	-1.193782	1.176950	3.322195	0.000000	0.188902	0.000000	0.001172	0.000388	0.000000	0.000000
4.755553	21.117739	14.250964	-0.572962	0.634733	3.398099	0.000000	0.087875	0.000000	0.001374	0.000347	0.000000	0.000000
5.304613	21.385524	13.829317	0.088340	0.137727	3.418048	0.000000	-0.014705	0.000000	0.001552	0.000299	0.000000	0.000000
5.603185	21.369874	13.732454	0.019216	0.151091	3.416198	0.000000	-0.005891	0.000000	0.001642	0.000303	0.000000	0.000000
5.936519	21.362265	13.640003	0.003612	0.126264	3.414134	0.000000	-0.005891	0.000000	0.001743	0.000303	0.000000	0.000000
6.269852	21.365058	13.564103	-0.011992	0.101436	3.412069	0.000000	-0.005891	0.000000	0.001844	0.000303	0.000000	0.000000
6.604435	21.378323	13.504563	-0.027655	0.076516	3.409997	0.000000	-0.005891	0.000000	0.001946	0.000303	0.000000	0.000000
6.901758	21.398909	13.465646	-0.096525	0.089010	3.408155	0.000000	0.002861	0.000000	0.002036	0.000308	0.000000	0.000000
7.450818	21.139971	13.629239	0.565487	-0.388711	3.381499	0.000000	-0.099291	0.000000	0.002187	0.000240	0.000000	0.000000
7.999878	20.171748	14.329480	1.187557	-0.894121	3.299192	0.000000	-0.199678	0.000000	0.002299	0.000167	0.000000	0.000000
8.548938	18.562633	15.616250	1.725740	-1.463222	3.162697	0.000000	-0.296521	0.000000	0.002370	0.000092	0.000000	0.000000
9.097998	16.426299	17.581210	2.142014	-2.136553	2.974436	0.000000	-0.388102	0.000000	0.002399	0.000014	0.000000	0.000000
9.543958	14.759364	19.331966	1.609047	-1.772547	2.819582	0.000000	-0.306657	0.000000	0.002419	0.000077	0.000000	0.000000
9.984918	13.545560	20.704978	1.153984	-1.329183	2.701499	0.000000	-0.229196	0.000000	0.002467	0.000140	0.000000	0.000000
10.425878	12.708427	21.658699	0.751648	-0.825338	2.616940	0.000000	-0.154348	0.000000	0.002543	0.000205	0.000000	0.000000
10.866838	12.209715	22.149732	0.383655	-0.283938	2.564940	0.000000	-0.081259	0.000000	0.002648	0.000271	0.000000	0.000000
11.309048	12.026485	22.155184	0.061797	0.217325	2.544886	0.000000	-0.015175	0.000000	0.002783	0.000335	0.000000	0.000000
11.606371	11.997117	22.030131	0.036980	0.203271	2.540275	0.000000	-0.015175	0.000000	0.002883	0.000335	0.000000	0.000000
12.086371	11.980847	21.845882	-0.003084	0.180582	2.532830	0.000000	-0.015175	0.000000	0.003043	0.000335	0.000000	0.000000
12.566371	12.003038	21.683413	-0.043149	0.157894	2.525386	0.000000	-0.015175	0.000000	0.003204	0.000335	0.000000	0.000000
13.046371	12.063692	21.542726	-0.083213	0.135205	2.517941	0.000000	-0.015175	0.000000	0.003365	0.000335	0.000000	0.000000
13.526371	12.162807	21.423820	-0.123277	0.112516	2.510496	0.000000	-0.015175	0.000000	0.003525	0.000335	0.000000	0.000000
14.007621	12.300793	21.326470	-0.163446	0.089769	2.503032	0.000000	-0.015175	0.000000	0.003687	0.000335	0.000000	0.000000
14.304943	12.405358	21.277277	-0.158941	0.025521	2.498420	0.000000	-0.021080	0.000000	0.003786	0.000326	0.000000	0.000000
14.745903	12.704512	21.021999	-0.521876	0.551159	2.504566	0.000000	0.049704	0.000000	0.003951	0.000425	0.000000	0.000000
15.186863	13.333052	20.312453	-0.908662	1.051718	2.541978	0.000000	0.121050	0.000000	0.004162	0.000530	0.000000	0.000000
15.627823	14.319707	19.180922	-1.336973	1.504421	2.611079	0.000000	0.193770	0.000000	0.004420	0.000641	0.000000	0.000000
16.068783	15.709571	17.678892	-1.826384	1.888667	2.712656	0.000000	0.268689	0.000000	0.004728	0.000758	0.000000	0.000000
16.514743	17.589791	15.853194	-2.404119	2.187801	2.849560	0.000000	0.347141	0.000000	0.005094	0.000886	0.000000	0.000000
17.063803	20.003897	13.815146	-1.965879	1.545712	3.016060	0.000000	0.259948	0.000000	0.005534	0.000714	0.000000	0.000000
17.612863	21.857107	12.417990	-1.388732	1.013734	3.133444	0.000000	0.168156	0.000000	0.005876	0.000529	0.000000	0.000000
18.161923	23.018461	11.562204	-0.713455	0.553973	3.199632	0.000000	0.073389	0.000000	0.006113	0.000335	0.000000	0.000000
18.710983	23.405885	11.186826	0.012238	0.133675	3.213453	0.000000	-0.022674	0.000000	0.006242	0.000134	0.000000	0.000000
19.009556	23.436944	11.098679	-0.058449	0.133944	3.209010	0.000000	-0.014725	0.000000	0.006287	0.000150	0.000000	0.000000
19.342889	23.480667	11.019573	-0.072720	0.103372	3.204052	0.000000	-0.014725	0.000000	0.006337	0.000150	0.000000	0.000000
19.676223	23.533904	10.960850	-0.086991	0.072799	3.199093	0.000000	-0.014725	0.000000	0.006387	0.000150	0.000000	0.000000
20.010806	23.597201	10.922267	-0.218230	0.096228	3.194136	0.000000	0.001101	0.000000	0.006437	0.000182	0.000000	0.000000
20.308129	23.730924	10.873201	-0.290002	0.095623	3.194412	0.000000	0.008986	0.000000	0.006492	0.000199	0.000000	0.000000
20.857189	23.640201	10.988747	0.454304	-0.307289	3.173093	0.000000	-0.086340	0.000000	0.006543	-0.000013	0.000000	0.000000
21.406249	22.744849	11.556132	1.166511	-0.732092	3.099885	0.000000	-0.180135	0.000000	0.006478	-0.000224	0.000000	0.000000
21.955309	21.108139	12.615777	1.796294	-1.209050	2.976086	0.000000	-0.270737	0.000000	0.006298	-0.000430	0.000000	0.000000
22.504369	18.845732	14.243165	2.299152	-1.772139	2.803890	0.000000	-0.356543	0.000000	0.006006	-0.000630	0.000000	0.000000
22.950329	17.064103	15.704842	1.709385	-1.491363	2.662404	0.000000	-0.279330	0.000000	0.005760	-0.000477	0.000000	0.000000
23.391289	15.784715	16.871321	1.202570	-1.143671	2.555714	0.000000	-0.205770	0.000000	0.005582	-0.000331	0.000000	0.000000
23.832249	14.926533	17.706926	0.750713	-0.743936	2.480856	0.000000	-0.134550	0.000000	0.005467	-0.000189	0.000000	0.000000
24.273209	14.450335	18.173635	0.333164	-0.310348	2.436979	0.000000	-0.064860	0.000000	0.005415	-0.000048	0.000000	0.000000
24.715418	14.334456	18.249959	-0.035923	0.094844	2.423582	0.000000	-0.001543	0.000000	0.005425	0.000078	0.000000	0.000000
25.012741	14.361992	18.198447	-0.056691	0.078406	2.423100	0.000000	-0.001543	0.000000	0.005448	0.000078	0.000000	0.000000
25.346075	14.407548	18.152320	-0.079975	0.059977	2.422560	0.000000	-0.001543	0.000000	0.005474	0.000078	0.000000	0.000000
25.679408	14.468626	18.118478	-0.103259	0.041548	2.422019	0.000000	-0.001543	0.000000	0.005500	0.000078	0.000000	0.000000
26.013991	14.545248	18.097232	-0.008630	-0.123764	2.421452	0.000000	-0.021187	0.000000	0.005526	0.000034	0.000000	0.000000
26.311314	14.556445	18.175804	0.004728	-0.182645	2.415142	0.000000	-0.026795	0.000000	0.005536	0.000020	0.000000	0.000000
26.752274	14.731972	18.139907	-0.404224	0.263736	2.418409	0.000000	0.041808	0.000000	0.005577	0.000164	0.000000	0.000000
27.193234	15.274971	17.714114	-0.831650	0.698116	2.451946	0.000000	0.110886	0.000000	0.005681	0.000309	0.000000	0.000000
27.634194	16.210262	16.917800	-1.297084	1.100728	2.516131	0.000000	0.181223	0.000000	0.005850	0.000457	0.000000	0.000000
28.075154	17.580596	15.787199	-1.821798	1.453250	2.611696	0.000000	0.253620	0.000000	0.006085	0.000611	0.000000	0.000000
28.521114	19.472515	14.356665	-2.434829	1.740668	2.741339	0.000000	0.329365	0.000000	0.006394	0.000773	0.000000	0.000000
29.070174	21.877822	12.763229	-1.919199	1.178307	2.899140	0.000000	0.245818	0.000000	0.006760	0.000560	0.000000	0.000000
29.619234	23.638519	11.737939	-1.267954	0.699888	3.009915	0.000000	0.157919	0.000000	0.007007	0.000337	0.000000	0.000000
30.168294	24.630174	11.207759	-0.527113	0.271329	3.071704	0.000000	0.067224	0.000000	0.007129	0.000108	0.000000	0.000000
30.717354	24.782705	11.134921	0.250975	-0.137900	3.083411	0.000000	-0.024662	0.000000	0.007125	-0.000123	0.000000	0.000000
31.015927	24.672841	11.209059	0.177679	-0.137698	3.078335	0.000000	-0.017096	0.000000	0.007094	-0.000105	0.000000	0.000000
31.349260	24.559034	11.310959	0.163743	-0.168000	3.072672	0.000000	-0.017096	0.000000	0.007059	-0.000105	0.000000	0.000000
31.682593	24.454518	11.433059	0.149806	-0.198302	3.067008	0.000000	-0.017096	0.000000	0.007024	-0.000105	0.000000	0.000000
32.017177	24.358953	11.575933	0.135817	-0.228717	3.061323	0.000000	-0.017096	0.000000	0.006989	-0.000105	0.000000	0.000000
32.314499	24.281921	11.719957	0.063709	-0.226956	3.056274	0.000000	-0.009585	0.000000	0.006958	-0.000087	0.000000	0.000000
32.863559	23.796186	12.208108	0.815496	-0.667270	3.026166	0.000000	-0.100293	0.000000	0.006848	-0.000311	0.000000	0.000000
33.412619	22.511655	13.202933	1.509657	-1.155121	2.946781	0.000000	-0.189226	0.000000	0.006617	-0.000529	0.000000	0.000000
33.961679	20.519111	14.775298	2.097141	-1.725261	2.819524	0.000000	-0.274812	0.000000	0.006269	-0.000738	0.000000	0.000000
34.510739	17.959368	17.037209	2.536438	-2.418306	2.646647	0.000000	-0.355533	0.000000	0.005809	-0.000934	0.000000	0.000000
34.956699	15.970156	19.060591	1.939288	-2.099542	2.504837	0.000000	-0.282408	0.000000	0.005425	-0.000788	0.000000	0.000000
35.397659	14.487234	20.736412	1.435843	-1.686100	2.396024	0.000000	-0.212939	0.000000	0.005108	-0.000652	0.000000	0.000000
35.838619	13.417876	22.012219	0.998019	-1.195933	2.317230	0.000000	-0.145888	0.000000	0.004849	-0.000524	0.000000	0.000000
36.279579	12.713204	22.829962	0.605805	-0.651345	2.267558	0.000000	-0.080493	0.000000	0.004645	-0.000401	0.000000	0.000000
36.721789	12.340341	23.152749	0.270131	-0.131417	2.246420	0.000000	-0.021283	0.000000	0.004494	-0.000294	0.000000	0.000000
37.019112	12.187395	23.234780	0.244279	-0.144481	2.240179	0.000000	-0.021283	0.000000	0.004407	-0.000294	0.000000	0.000000
37.352445	12.034203	23.335983	0.215296	-0.159127	2.233183	0.000000	-0.021283	0.000000	0.004308	-0.000294	0.000000	0.000000
37.685779	11.900333	23.446949	0.186313	-0.173773	2.226187	0.000000	-0.021283	0.000000	0.004210	-0.000294	0.000000	0.000000
38.020362	11.785392	23.568151	0.157222	-0.188473	2.219164	0.000000	-0.021283	0.000000	0.004112	-0.000294	0.000000	0.000000
38.317684	11.699581	23.684121	0.158958	-0.257486	2.212923	0.000000	-0.026502	0.000000	0.004024	-0.000304	0.000000	0.000000
38.758644	11.709041	23.648779	-0.180576	0.337323	2.215316	0.000000	0.036874	0.000000	0.003913	-0.000202	0.000000	0.000000
39.199604	12.020467	23.093625	-0.528360	0.916782	2.245679	0.000000	0.100671	0.000000	0.003846	-0.000102	0.000000	0.000000
39.640564	12.648089	22.043923	-0.900287	1.454523	2.304360	0.000000	0.165617	0.000000	0.003823	-0.000003	0.000000	0.000000
40.081524	13.620586	20.547436	-1.313353	1.926077	2.392027	0.000000	0.232449	0.000000	0.003844	0.000096	0.000000	0.000000
40.527484	14.999933	18.649594	-1.790313	2.311380	2.511159	0.000000	0.302346	0.000000	0.003909	0.000197	0.000000	0.000000
41.076544	16.761934	16.516507	-1.399570	1.596315	2.656486	0.000000	0.226468	0.000000	0.003982	0.000069	0.000000	0.000000
41.625604	18.037626	15.102009	-0.909950	0.994964	2.759052	0.000000	0.146574	0.000000	0.003984	-0.000060	0.000000	0.000000
42.174664	18.736877	14.305338	-0.356046	0.464491	2.817037	0.000000	0.064078	0.000000	0.003916	-0.000188	0.000000	0.000000
42.723724	18.810288	14.069743	0.223007	-0.032894	2.829410	0.000000	-0.019557	0.000000	0.003778	-0.000313	0.000000	0.000000
43.022297	18.710407	14.074439	0.159070	-0.018465	2.825798	0.000000	-0.012401	0.000000	0.003687	-0.000303	0.000000	0.000000
43.502297	18.570325	14.108541	0.132767	-0.052581	2.819991	0.000000	-0.012401	0.000000	0.003542	-0.000303	0.000000	0.000000
43.982297	18.455494	14.175395	0.106464	-0.086697	2.814184	0.000000	-0.012401	0.000000	0.003396	-0.000303	0.000000	0.000000
44.462297	18.365914	14.275000	0.080161	-0.120813	2.808378	0.000000	-0.012401	0.000000	0.003251	-0.000303	0.000000	0.000000
44.942297	18.301586	14.407356	0.053857	-0.154929	2.802571	0.000000	-0.012401	0.000000	0.003105	-0.000303	0.000000	0.000000
45.423547	18.262666	14.572756	-0.062998	-0.116931	2.796766	0.000000	0.001456	0.000000	0.002959	-0.000289	0.000000	0.000000
45.720870	18.304991	14.648434	-0.126011	-0.100327	2.797285	0.000000	0.008588	0.000000	0.002873	-0.000281	0.000000	0.000000
46.269930	18.134995	15.041690	0.433608	-0.620107	2.779496	0.000000	-0.073916	0.000000	0.002694	-0.000371	0.000000	0.000000
46.818990	17.363690	16.026508	0.962588	-1.184058	2.716744	0.000000	-0.155115	0.000000	0.002467	-0.000455	0.000000	0.000000
47.368050	16.045574	17.673032	1.423561	-1.832350	2.610138	0.000000	-0.233570	0.000000	0.002196	-0.000531	0.000000	0.000000
47.917110	14.273776	20.098540	1.783962	-2.611161	2.461567	0.000000	-0.307890	0.000000	0.001886	-0.000597	0.000000	0.000000
48.363070	12.894191	22.254643	1.320222	-2.203162	2.339857	0.000000	-0.239323	0.000000	0.001630	-0.000551	0.000000	0.000000
48.804030	11.909711	23.980736	0.920595	-1.696253	2.249064	0.000000	-0.173882	0.000000	0.001396	-0.000512	0.000000	0.000000
49.244990	11.257879	25.223889	0.563033	-1.112165	2.186652	0.000000	-0.110415	0.000000	0.001178	-0.000479	0.000000	0.000000
49.685950	10.908908	25.927545	0.231199	-0.477474	2.151912	0.000000	-0.048200	0.000000	0.000973	-0.000451	0.000000	0.000000
50.128160	10.847008	26.059401	-0.063780	0.115617	2.144460	0.000000	0.008250	0.000000	0.000779	-0.000430	0.000000	0.000000
50.425482	10.893118	25.994087	-0.091302	0.104055	2.147041	0.000000	0.008250	0.000000	0.000651	-0.000430	0.000000	0.000000
50.758816	10.964271	25.929038	-0.122158	0.091093	2.149935	0.000000	0.008250	0.000000	0.000507	-0.000430	0.000000	0.000000
51.092149	11.055995	25.872630	-0.153013	0.078131	2.152828	0.000000	0.008250	0.000000	0.000364	-0.000430	0.000000	0.000000
51.426732	11.168522	25.825224	-0.093378	-0.144387	2.155711	0.000000	-0.009238	0.000000	0.000220	-0.000432	0.000000	0.000000
51.724055	11.232034	25.914578	-0.092711	-0.219795	2.153093	0.000000	-0.014514	0.000000	0.000091	-0.000432	0.000000	0.000000
52.165015	11.460174	25.820010	-0.426763	0.433439	2.160516	0.000000	0.047378	0.000000	-0.000100	-0.000433	0.000000	0.000000
52.605975	11.990367	25.155872	-0.780309	1.066951	2.195326	0.000000	0.109813	0.000000	-0.000291	-0.000438	0.000000	0.000000
53.046935	12.846832	23.952387	-1.169501	1.651916	2.257921	0.000000	0.173504	0.000000	-0.000486	-0.000448	0.000000	0.000000
53.487895	14.068694	22.264316	-1.612120	2.161720	2.349015	0.000000	0.239176	0.000000	-0.000687	-0.000463	0.000000	0.000000
53.933855	15.732672	20.143242	-2.132652	2.574491	2.471158	0.000000	0.307974	0.000000	-0.000897	-0.000483	0.000000	0.000000
54.482915	17.874643	17.756239	-1.745697	1.798670	2.620230	0.000000	0.233344	0.000000	-0.001154	-0.000450	0.000000	0.000000
55.031975	19.521061	16.146245	-1.235448	1.150963	2.727107	0.000000	0.154568	0.000000	-0.001390	-0.000409	0.000000	0.000000
55.581035	20.555649	15.198582	-0.637947	0.585235	2.789887	0.000000	0.073044	0.000000	-0.001602	-0.000360	0.000000	0.000000
56.130095	20.905345	14.845746	0.004604	0.061192	2.807456	0.000000	-0.009781	0.000000	-0.001785	-0.000306	0.000000	0.000000
56.428668	20.939972	14.791726	-0.065150	0.080308	2.806851	0.000000	-0.002337	0.000000	-0.001877	-0.000310	0.000000	0.000000
56.762001	20.988734	14.745747	-0.081136	0.057628	2.806176	0.000000	-0.002337	0.000000	-0.001981	-0.000310	0.000000	0.000000
57.095334	21.048153	14.714889	-0.097122	0.034947	2.805500	0.000000	-0.002337	0.000000	-0.002084	-0.000310	0.000000	0.000000
57.429918	21.118513	14.699120	-0.113168	0.012182	2.804822	0.000000	-0.002337	0.000000	-0.002188	-0.000310	0.000000	0.000000
57.727240	21.190050	14.697889	-0.183844	0.031018	2.804220	0.000000	0.005129	0.000000	-0.002280	-0.000316	0.000000	0.000000
58.276300	21.029918	14.945783	0.473608	-0.485186	2.784456	0.000000	-0.077554	0.000000	-0.002433	-0.000240	0.000000	0.000000
58.825360	20.162057	15.776045	1.097605	-1.035945	2.719563	0.000000	-0.158866	0.000000	-0.002543	-0.000159	0.000000	0.000000
59.374420	18.647765	17.247806	1.644077	-1.660485	2.610693	0.000000	-0.237363	0.000000	-0.002608	-0.000076	0.000000	0.000000
59.923480	16.593992	19.465887	2.074432	-2.403290	2.459773	0.000000	-0.311651	0.000000	-0.002626	0.000009	0.000000	0.000000
60.369440	14.985630	21.437190	1.544928	-1.998512	2.336136	0.000000	-0.243177	0.000000	-0.002637	-0.000059	0.000000	0.000000
60.810400	13.828061	22.987557	1.090202	-1.504133	2.243437	0.000000	-0.177862	0.000000	-0.002678	-0.000128	0.000000	0.000000
61.251360	13.048106	24.069983	0.685280	-0.941324	2.179094	0.000000	-0.114572	0.000000	-0.002750	-0.000198	0.000000	0.000000
61.692320	12.610135	24.635223	0.311664	-0.335689	2.142376	0.000000	-0.052584	0.000000	-0.002853	-0.000270	0.000000	0.000000
62.134530	12.494183	24.656998	-0.016314	0.223124	2.132870	0.000000	0.003431	0.000000	-0.002989	-0.000338	0.000000	0.000000
62.431853	12.510961	24.528082	-0.040117	0.210466	2.133991	0.000000	0.003431	0.000000	-0.003089	-0.000338	0.000000	0.000000
62.765186	12.546602	24.392502	-0.066803	0.196274	2.135247	0.000000	0.003431	0.000000	-0.003202	-0.000338	0.000000	0.000000
63.098520	12.600032	24.266384	-0.093489	0.182082	2.136504	0.000000	0.003431	0.000000	-0.003315	-0.000338	0.000000	0.000000
63.433103	12.671555	24.149307	-0.120276	0.167837	2.137765	0.000000	0.003431	0.000000	-0.003428	-0.000338	0.000000	0.000000
63.730426	12.750149	24.053276	-0.111779	0.094129	2.138885	0.000000	-0.001987	0.000000	-0.003528	-0.000329	0.000000	0.000000
64.171386	13.010517	23.705447	-0.481086	0.691709	2.151735	0.000000	0.059602	0.000000	-0.003694	-0.000422	0.000000	0.000000
64.612346	13.604969	22.842546	-0.872366	1.257819	2.191908	0.000000	0.121874	0.000000	-0.003901	-0.000520	0.000000	0.000000
65.053306	14.560653	21.503835	-1.303490	1.766703	2.259862	0.000000	0.185540	0.000000	-0.004153	-0.000624	0.000000	0.000000
65.494266	15.921215	19.750224	-1.794151	2.195212	2.356374	0.000000	0.251326	0.000000	-0.004452	-0.000735	0.000000	0.000000
65.940226	17.772036	17.636693	-2.371359	2.524494	2.484120	0.000000	0.320368	0.000000	-0.004807	-0.000855	0.000000	0.000000
66.489286	20.142822	15.272658	-1.921709	1.806830	2.640018	0.000000	0.245218	0.000000	-0.005232	-0.000692	0.000000	0.000000
67.038346	21.942011	13.621799	-1.336364	1.217848	2.753308	0.000000	0.165708	0.000000	-0.005564	-0.000517	0.000000	0.000000
67.587406	23.042575	12.566535	-0.656659	0.715599	2.821974	0.000000	0.083250	0.000000	-0.005798	-0.000333	0.000000	0.000000
68.136466	23.366815	12.031706	0.069410	0.264313	2.844797	0.000000	-0.000689	0.000000	-0.005929	-0.000143	0.000000	0.000000
68.435038	23.367399	11.862245	-0.007407	0.270302	2.846965	0.000000	0.007107	0.000000	-0.005977	-0.000159	0.000000	0.000000
68.768372	23.377093	11.692094	-0.021673	0.240149	2.849387	0.000000	0.007107	0.000000	-0.006030	-0.000159	0.000000	0.000000
69.101705	23.396296	11.542046	-0.035939	0.209995	2.851809	0.000000	0.007107	0.000000	-0.006083	-0.000159	0.000000	0.000000
69.436288	23.425136	11.411651	-0.050258	0.179729	2.854240	0.000000	0.007107	0.000000	-0.006136	-0.000159	0.000000	0.000000
69.733611	23.458832	11.312760	-0.127399	0.183870	2.856402	0.000000	0.014951	0.000000	-0.006183	-0.000176	0.000000	0.000000
70.282671	23.195875	11.337595	0.603478	-0.229372	2.841448	0.000000	-0.069492	0.000000	-0.006225	0.000025	0.000000	0.000000
