#ParticleID	Turn	x[m]	xp	y[m]	yp	z[m]	dE[GeV]# s	beta_x	beta_y	alpha_x	alpha_y	D_x	D_y	D_px	D_py	orbit_x	orbit_px	orbit_y	orbit_py
0.300000	11.932182	25.255635	-0.019618	-0.022547	2.603632	0.000000	0.000645	0.000000	-0.000593	0.000519	0.000000	0.000000
0.601250	11.951611	25.272814	-0.044875	-0.034481	2.603670	0.000000	0.000645	0.000000	-0.000436	0.000519	0.000000	0.000000
0.898573	11.985707	25.296820	-0.040331	-0.108272	2.603708	0.000000	-0.005757	0.000000	-0.000282	0.000520	0.000000	0.000000
1.339533	12.174833	25.111584	-0.390015	0.526750	2.617161	0.000000	0.067828	0.000000	-0.000054	0.000515	0.000000	0.000000
1.780493	12.679018	24.374776	-0.757521	1.137807	2.663201	0.000000	0.142181	0.000000	0.000173	0.000517	0.000000	0.000000
2.221453	13.521304	23.119916	-1.159641	1.697097	2.742350	0.000000	0.218147	0.000000	0.000403	0.000524	0.000000	0.000000
2.662413	14.740177	21.404095	-1.614746	2.179171	2.855509	0.000000	0.296592	0.000000	0.000637	0.000538	0.000000	0.000000
3.108373	16.412380	19.280237	-2.147990	2.563251	3.005815	0.000000	0.378900	0.000000	0.000880	0.000557	0.000000	0.000000
3.657433	18.556132	16.894528	-1.732971	1.807411	3.188446	0.000000	0.286395	0.000000	0.001178	0.000524	0.000000	0.000000
4.206493	20.173814	15.263686	-1.195528	1.180310	3.318838	0.000000	0.188819	0.000000	0.001454	0.000481	0.000000	0.000000
4.755553	21.151140	14.271554	-0.573623	0.637281	3.394681	0.000000	0.087901	0.000000	0.001705	0.000430	0.000000	0.000000
5.304613	21.419058	13.847468	0.088812	0.139644	3.414633	0.000000	-0.014569	0.000000	0.001925	0.000371	0.000000	0.000000
5.603185	21.403066	13.749506	0.019799	0.152941	3.412791	0.000000	-0.005792	0.000000	0.002037	0.000376	0.000000	0.000000
5.936519	21.395060	13.655815	0.004219	0.128131	3.410735	0.000000	-0.005792	0.000000	0.002163	0.000376	0.000000	0.000000
6.269852	21.397441	13.578665	-0.011361	0.103321	3.408679	0.000000	-0.005792	0.000000	0.002288	0.000376	0.000000	0.000000
6.604435	21.410275	13.517858	-0.027000	0.078417	3.406615	0.000000	-0.005792	0.000000	0.002414	0.000376	0.000000	0.000000
6.901758	21.430467	13.477805	-0.095697	0.090826	3.404781	0.000000	0.002914	0.000000	0.002526	0.000383	0.000000	0.000000
7.450818	21.170065	13.639586	0.567347	-0.387206	3.378149	0.000000	-0.099131	0.000000	0.002713	0.000298	0.000000	0.000000
7.999878	20.199299	14.338301	1.190317	-0.892821	3.295933	0.000000	-0.199412	0.000000	0.002852	0.000208	0.000000	0.000000
8.548938	18.586742	15.623725	1.729204	-1.462036	3.159595	0.000000	-0.296154	0.000000	0.002941	0.000114	0.000000	0.000000
9.097998	16.446314	17.587423	2.145936	-2.135398	2.971553	0.000000	-0.387640	0.000000	0.002977	0.000018	0.000000	0.000000
9.543958	14.776206	19.337012	1.612244	-1.771066	2.816884	0.000000	-0.306263	0.000000	0.003002	0.000096	0.000000	0.000000
9.984918	13.559832	20.708617	1.156623	-1.327459	2.698948	0.000000	-0.228869	0.000000	0.003062	0.000174	0.000000	0.000000
10.425878	12.720572	21.660746	0.753851	-0.823448	2.614501	0.000000	-0.154083	0.000000	0.003156	0.000254	0.000000	0.000000
10.866838	12.220076	22.150075	0.385522	-0.281967	2.562579	0.000000	-0.081056	0.000000	0.003286	0.000337	0.000000	0.000000
11.309048	12.035323	22.153777	0.063246	0.219615	2.542572	0.000000	-0.014984	0.000000	0.003454	0.000416	0.000000	0.000000
11.606371	12.005089	22.027366	0.038443	0.205547	2.537993	0.000000	-0.014984	0.000000	0.003578	0.000416	0.000000	0.000000
12.086371	11.987404	21.840943	-0.001600	0.182835	2.530601	0.000000	-0.014984	0.000000	0.003777	0.000416	0.000000	0.000000
12.566371	12.008160	21.676323	-0.041642	0.160123	2.523209	0.000000	-0.014984	0.000000	0.003977	0.000416	0.000000	0.000000
13.046371	12.067356	21.533507	-0.081684	0.137411	2.515817	0.000000	-0.014984	0.000000	0.004176	0.000416	0.000000	0.000000
13.526371	12.164993	21.412493	-0.121726	0.114700	2.508425	0.000000	-0.014984	0.000000	0.004376	0.000416	0.000000	0.000000
14.007621	12.301475	21.313053	-0.161872	0.091929	2.501014	0.000000	-0.014984	0.000000	0.004576	0.000416	0.000000	0.000000
14.304943	12.405098	21.262585	-0.157623	0.028185	2.496434	0.000000	-0.020831	0.000000	0.004699	0.000404	0.000000	0.000000
14.745903	12.703094	21.005143	-0.520517	0.553375	2.502641	0.000000	0.049905	0.000000	0.004905	0.000528	0.000000	0.000000
15.186863	13.330423	20.293868	-0.907200	1.053384	2.540082	0.000000	0.121203	0.000000	0.005166	0.000658	0.000000	0.000000
15.627823	14.315759	19.161123	-1.335346	1.505460	2.609182	0.000000	0.193876	0.000000	0.005486	0.000795	0.000000	0.000000
16.068783	15.704145	17.658447	-1.824522	1.889031	2.710725	0.000000	0.268748	0.000000	0.005869	0.000942	0.000000	0.000000
16.514743	17.582661	15.832689	-2.401964	2.187493	2.847563	0.000000	0.347154	0.000000	0.006324	0.001100	0.000000	0.000000
17.063803	19.994514	13.794704	-1.963771	1.545836	3.013989	0.000000	0.260024	0.000000	0.006870	0.000886	0.000000	0.000000
17.612863	21.845585	12.397143	-1.386807	1.014303	3.131355	0.000000	0.168295	0.000000	0.007294	0.000656	0.000000	0.000000
18.161923	23.005046	11.540453	-0.711842	0.555028	3.197583	0.000000	0.073591	0.000000	0.007588	0.000415	0.000000	0.000000
18.710983	23.390950	11.163607	0.013430	0.135294	3.211503	0.000000	-0.022412	0.000000	0.007748	0.000167	0.000000	0.000000
19.009556	23.420785	11.074785	-0.056426	0.135052	3.207092	0.000000	-0.014577	0.000000	0.007804	0.000186	0.000000	0.000000
19.342889	23.463161	10.994967	-0.070704	0.104404	3.202171	0.000000	-0.014577	0.000000	0.007866	0.000186	0.000000	0.000000
19.676223	23.515056	10.935580	-0.084981	0.073757	3.197250	0.000000	-0.014577	0.000000	0.007928	0.000186	0.000000	0.000000
20.010806	23.577010	10.896381	-0.216126	0.096982	3.192330	0.000000	0.001240	0.000000	0.007991	0.000226	0.000000	0.000000
20.308129	23.709498	10.846880	-0.287001	0.095864	3.192634	0.000000	0.009006	0.000000	0.008058	0.000246	0.000000	0.000000
20.857189	23.615875	10.961766	0.456565	-0.306317	3.171330	0.000000	-0.086267	0.000000	0.008122	-0.000016	0.000000	0.000000
21.406249	22.718492	11.527668	1.167870	-0.730321	3.098190	0.000000	-0.180010	0.000000	0.008041	-0.000278	0.000000	0.000000
21.955309	21.080772	12.584898	1.796648	-1.206356	2.974511	0.000000	-0.270563	0.000000	0.007817	-0.000535	0.000000	0.000000
22.504369	18.818459	14.208773	2.298466	-1.768334	2.802486	0.000000	-0.356325	0.000000	0.007455	-0.000782	0.000000	0.000000
22.950329	17.037137	15.667451	1.709205	-1.488389	2.661145	0.000000	-0.279140	0.000000	0.007149	-0.000593	0.000000	0.000000
23.391289	15.757627	16.831756	1.202924	-1.141685	2.554572	0.000000	-0.205608	0.000000	0.006928	-0.000411	0.000000	0.000000
23.832249	14.898863	17.666096	0.751622	-0.743027	2.479805	0.000000	-0.134414	0.000000	0.006786	-0.000234	0.000000	0.000000
24.273209	14.421589	18.132503	0.334672	-0.310555	2.435994	0.000000	-0.064748	0.000000	0.006721	-0.000060	0.000000	0.000000
24.715418	14.304093	18.209495	-0.034265	0.094188	2.422640	0.000000	-0.001375	0.000000	0.006733	0.000097	0.000000	0.000000
25.012741	14.330656	18.158384	-0.055075	0.077715	2.422202	0.000000	-0.001375	0.000000	0.006762	0.000097	0.000000	0.000000
25.346075	14.375150	18.112730	-0.078406	0.059247	2.421711	0.000000	-0.001375	0.000000	0.006794	0.000097	0.000000	0.000000
25.679408	14.435197	18.079388	-0.101737	0.040779	2.421220	0.000000	-0.001375	0.000000	0.006826	0.000097	0.000000	0.000000
26.013991	14.510817	18.058668	-0.007434	-0.124259	2.420703	0.000000	-0.021014	0.000000	0.006859	0.000042	0.000000	0.000000
26.311314	14.521310	18.137554	0.005331	-0.182508	2.414441	0.000000	-0.026543	0.000000	0.006871	0.000025	0.000000	0.000000
26.752274	14.695946	18.101990	-0.402783	0.262845	2.417808	0.000000	0.042046	0.000000	0.006922	0.000203	0.000000	0.000000
27.193234	15.237304	17.677415	-0.829307	0.696236	2.451423	0.000000	0.111112	0.000000	0.007051	0.000383	0.000000	0.000000
27.634194	16.170130	16.883150	-1.293734	1.097944	2.515668	0.000000	0.181439	0.000000	0.007260	0.000568	0.000000	0.000000
28.075154	17.537068	15.755335	-1.817293	1.449687	2.611273	0.000000	0.253827	0.000000	0.007552	0.000759	0.000000	0.000000
28.521114	19.424487	14.328217	-2.428996	1.736514	2.740940	0.000000	0.329569	0.000000	0.007935	0.000960	0.000000	0.000000
29.070174	21.824229	12.738725	-1.914762	1.175172	2.898773	0.000000	0.246030	0.000000	0.008390	0.000695	0.000000	0.000000
29.619234	23.581043	11.716397	-1.265214	0.697552	3.009613	0.000000	0.158137	0.000000	0.008697	0.000418	0.000000	0.000000
30.168294	24.570756	11.188408	-0.526256	0.269628	3.071496	0.000000	0.067445	0.000000	0.008848	0.000134	0.000000	0.000000
30.717354	24.723415	11.117146	0.249892	-0.139087	3.083326	0.000000	-0.024441	0.000000	0.008843	-0.000153	0.000000	0.000000
31.015927	24.613521	11.192301	0.177681	-0.139413	3.078287	0.000000	-0.016996	0.000000	0.008804	-0.000130	0.000000	0.000000
31.349260	24.499724	11.295364	0.163711	-0.169775	3.072665	0.000000	-0.016996	0.000000	0.008761	-0.000130	0.000000	0.000000
31.682593	24.395240	11.418667	0.149741	-0.200136	3.067043	0.000000	-0.016996	0.000000	0.008717	-0.000130	0.000000	0.000000
32.017177	24.299730	11.562788	0.135718	-0.230611	3.061400	0.000000	-0.016996	0.000000	0.008674	-0.000130	0.000000	0.000000
32.314499	24.222784	11.707946	0.064651	-0.229384	3.056389	0.000000	-0.009601	0.000000	0.008635	-0.000109	0.000000	0.000000
32.863559	23.737053	12.198654	0.814492	-0.669507	3.026295	0.000000	-0.100318	0.000000	0.008499	-0.000386	0.000000	0.000000
33.412619	22.454605	13.195929	1.506771	-1.157328	2.946946	0.000000	-0.189260	0.000000	0.008212	-0.000657	0.000000	0.000000
33.961679	20.466084	14.770811	2.092567	-1.727600	2.819745	0.000000	-0.274856	0.000000	0.007779	-0.000916	0.000000	0.000000
34.510739	17.912039	17.035487	2.530486	-2.420947	2.646943	0.000000	-0.355591	0.000000	0.007209	-0.001159	0.000000	0.000000
34.956699	15.927436	19.061410	1.934657	-2.102471	2.505196	0.000000	-0.282450	0.000000	0.006732	-0.000978	0.000000	0.000000
35.397659	14.448024	20.739935	1.432348	-1.689210	2.396439	0.000000	-0.212969	0.000000	0.006338	-0.000810	0.000000	0.000000
35.838619	13.381263	22.018534	0.995504	-1.199080	2.317693	0.000000	-0.145905	0.000000	0.006017	-0.000650	0.000000	0.000000
36.279579	12.678389	22.839030	0.604159	-0.654386	2.268064	0.000000	-0.080496	0.000000	0.005764	-0.000499	0.000000	0.000000
36.721789	12.306610	23.164404	0.268884	-0.133620	2.246964	0.000000	-0.021214	0.000000	0.005576	-0.000366	0.000000	0.000000
37.019112	12.154422	23.247745	0.242978	-0.146685	2.240765	0.000000	-0.021214	0.000000	0.005467	-0.000366	0.000000	0.000000
37.352445	12.002118	23.350417	0.213934	-0.161332	2.233815	0.000000	-0.021214	0.000000	0.005345	-0.000366	0.000000	0.000000
37.685779	11.869176	23.462854	0.184890	-0.175979	2.226866	0.000000	-0.021214	0.000000	0.005223	-0.000366	0.000000	0.000000
38.020362	11.755208	23.585532	0.155737	-0.190680	2.219890	0.000000	-0.021214	0.000000	0.005101	-0.000366	0.000000	0.000000
38.317684	11.670294	23.702820	0.157082	-0.259218	2.213691	0.000000	-0.026383	0.000000	0.004992	-0.000378	0.000000	0.000000
38.758644	11.681115	23.668779	-0.181818	0.336118	2.216166	0.000000	0.037014	0.000000	0.004854	-0.000251	0.000000	0.000000
39.199604	11.993376	23.114427	-0.529024	0.916158	2.246613	0.000000	0.100837	0.000000	0.004771	-0.000127	0.000000	0.000000
39.640564	12.621346	22.064993	-0.900404	1.454508	2.305379	0.000000	0.165809	0.000000	0.004742	-0.000004	0.000000	0.000000
40.081524	13.593723	20.568232	-1.312929	1.926669	2.393134	0.000000	0.232670	0.000000	0.004767	0.000119	0.000000	0.000000
40.527484	14.972478	18.669560	-1.789347	2.312578	2.512359	0.000000	0.302602	0.000000	0.004848	0.000243	0.000000	0.000000
41.076544	16.734025	16.535454	-1.399656	1.596932	2.657800	0.000000	0.226681	0.000000	0.004938	0.000085	0.000000	0.000000
41.625604	18.010405	15.120553	-0.911078	0.995048	2.760471	0.000000	0.146740	0.000000	0.004940	-0.000075	0.000000	0.000000
42.174664	18.711434	14.324067	-0.358134	0.464049	2.818550	0.000000	0.064194	0.000000	0.004855	-0.000234	0.000000	0.000000
42.723724	18.787583	14.089254	0.220108	-0.033890	2.831005	0.000000	-0.019494	0.000000	0.004684	-0.000389	0.000000	0.000000
43.022297	18.689169	14.094672	0.156603	-0.019653	2.827417	0.000000	-0.012391	0.000000	0.004572	-0.000377	0.000000	0.000000
43.502297	18.551460	14.129892	0.130290	-0.053722	2.821650	0.000000	-0.012391	0.000000	0.004391	-0.000377	0.000000	0.000000
43.982297	18.439012	14.197818	0.103977	-0.087791	2.815883	0.000000	-0.012391	0.000000	0.004210	-0.000377	0.000000	0.000000
44.462297	18.351824	14.298450	0.077664	-0.121859	2.810117	0.000000	-0.012391	0.000000	0.004029	-0.000377	0.000000	0.000000
44.942297	18.289897	14.431788	0.051351	-0.155928	2.804350	0.000000	-0.012391	0.000000	0.003849	-0.000377	0.000000	0.000000
45.423547	18.253395	14.598126	-0.065469	-0.117757	2.798585	0.000000	0.001475	0.000000	0.003668	-0.000358	0.000000	0.000000
45.720870	18.297196	14.674283	-0.128195	-0.101294	2.799131	0.000000	0.008568	0.000000	0.003561	-0.000349	0.000000	0.000000
46.269930	18.129694	15.069047	0.431232	-0.621897	2.781355	0.000000	-0.073997	0.000000	0.003338	-0.000461	0.000000	0.000000
46.818990	17.360992	16.056346	0.960187	-1.186798	2.718594	0.000000	-0.155258	0.000000	0.003056	-0.000565	0.000000	0.000000
47.368050	16.045409	17.706501	1.421300	-1.836237	2.611955	0.000000	-0.233773	0.000000	0.002720	-0.000658	0.000000	0.000000
47.917110	14.275900	20.137047	1.781997	-2.616473	2.463326	0.000000	-0.308153	0.000000	0.002335	-0.000740	0.000000	0.000000
48.363070	12.897973	22.297537	1.318385	-2.207620	2.341568	0.000000	-0.239540	0.000000	0.002018	-0.000684	0.000000	0.000000
48.804030	11.915059	24.027124	0.918809	-1.699669	2.250744	0.000000	-0.174054	0.000000	0.001728	-0.000635	0.000000	0.000000
49.244990	11.264789	25.272777	0.561218	-1.114383	2.188316	0.000000	-0.110543	0.000000	0.001457	-0.000594	0.000000	0.000000
49.685950	10.917445	25.977823	0.229273	-0.478393	2.153576	0.000000	-0.048286	0.000000	0.001203	-0.000560	0.000000	0.000000
50.128160	10.857316	26.109899	-0.065926	0.116065	2.146142	0.000000	0.008213	0.000000	0.000961	-0.000535	0.000000	0.000000
50.425482	10.904695	26.044313	-0.093429	0.104524	2.148743	0.000000	0.008213	0.000000	0.000802	-0.000535	0.000000	0.000000
50.758816	10.977260	25.978943	-0.124264	0.091586	2.151659	0.000000	0.008213	0.000000	0.000624	-0.000535	0.000000	0.000000
51.092149	11.070381	25.922198	-0.155099	0.078647	2.154574	0.000000	0.008213	0.000000	0.000446	-0.000535	0.000000	0.000000
51.426732	11.184296	25.874440	-0.095315	-0.144246	2.157479	0.000000	-0.009290	0.000000	0.000267	-0.000537	0.000000	0.000000
51.724055	11.248950	25.963703	-0.094582	-0.219781	2.154877	0.000000	-0.014569	0.000000	0.000108	-0.000537	0.000000	0.000000
52.165015	11.478911	25.868548	-0.429070	0.434750	2.162331	0.000000	0.047369	0.000000	-0.000129	-0.000537	0.000000	0.000000
52.605975	12.011354	25.202704	-0.783157	1.069497	2.197193	0.000000	0.109852	0.000000	-0.000367	-0.000544	0.000000	0.000000
53.046935	12.870598	23.996471	-1.173019	1.655582	2.259861	0.000000	0.173592	0.000000	-0.000609	-0.000556	0.000000	0.000000
53.487895	14.095893	22.304738	-1.616468	2.166338	2.351052	0.000000	0.239315	0.000000	-0.000859	-0.000575	0.000000	0.000000
53.933855	15.764169	20.179200	-2.138031	2.579848	2.473318	0.000000	0.308167	0.000000	-0.001120	-0.000601	0.000000	0.000000
54.482915	17.911612	17.787101	-1.750292	1.802663	2.622537	0.000000	0.233466	0.000000	-0.001439	-0.000559	0.000000	0.000000
55.031975	19.562456	16.173347	-1.238938	1.153874	2.729513	0.000000	0.154614	0.000000	-0.001733	-0.000508	0.000000	0.000000
55.581035	20.600119	15.222988	-0.640089	0.587273	2.792347	0.000000	0.073012	0.000000	-0.001995	-0.000448	0.000000	0.000000
56.130095	20.951325	14.868327	0.003960	0.062501	2.809919	0.000000	-0.009892	0.000000	-0.002223	-0.000379	0.000000	0.000000
56.428668	20.986518	14.813390	-0.066085	0.081857	2.809313	0.000000	-0.002414	0.000000	-0.002338	-0.000385	0.000000	0.000000
56.762001	21.035892	14.766370	-0.082037	0.059205	2.808636	0.000000	-0.002414	0.000000	-0.002466	-0.000385	0.000000	0.000000
57.095334	21.095901	14.734451	-0.097990	0.036552	2.807960	0.000000	-0.002414	0.000000	-0.002594	-0.000385	0.000000	0.000000
57.429918	21.166830	14.717600	-0.114002	0.013814	2.807281	0.000000	-0.002414	0.000000	-0.002723	-0.000385	0.000000	0.000000
57.727240	21.238856	14.715389	-0.185034	0.032882	2.806678	0.000000	0.005092	0.000000	-0.002838	-0.000393	0.000000	0.000000
58.276300	21.079110	14.961497	0.474059	-0.483781	2.786908	0.000000	-0.077669	0.000000	-0.003027	-0.000298	0.000000	0.000000
58.825360	20.209855	15.790414	1.099664	-1.034899	2.721957	0.000000	-0.159058	0.000000	-0.003163	-0.000197	0.000000	0.000000
59.374420	18.692485	17.261174	1.647601	-1.659722	2.612975	0.000000	-0.237629	0.000000	-0.003243	-0.000093	0.000000	0.000000
59.923480	16.634164	19.478526	2.079173	-2.402753	2.461895	0.000000	-0.311988	0.000000	-0.003266	0.000012	0.000000	0.000000
60.369440	15.022086	21.449137	1.548564	-1.997524	2.338122	0.000000	-0.243464	0.000000	-0.003279	-0.000073	0.000000	0.000000
60.810400	13.861744	22.998431	1.092892	-1.502728	2.245318	0.000000	-0.178100	0.000000	-0.003330	-0.000158	0.000000	0.000000
61.251360	13.079789	24.079446	0.687145	-0.939567	2.180898	0.000000	-0.114763	0.000000	-0.003419	-0.000245	0.000000	0.000000
61.692320	12.640500	24.643005	0.312789	-0.333661	2.144130	0.000000	-0.052730	0.000000	-0.003547	-0.000335	0.000000	0.000000
62.134530	12.523851	24.662898	-0.015595	0.224937	2.134601	0.000000	0.003289	0.000000	-0.003715	-0.000419	0.000000	0.000000
62.431853	12.540185	24.532906	-0.039341	0.212271	2.135703	0.000000	0.003289	0.000000	-0.003840	-0.000419	0.000000	0.000000
62.765186	12.575286	24.396125	-0.065963	0.198072	2.136939	0.000000	0.003289	0.000000	-0.003980	-0.000419	0.000000	0.000000
63.098520	12.628136	24.268810	-0.092586	0.183872	2.138175	0.000000	0.003289	0.000000	-0.004119	-0.000419	0.000000	0.000000
63.433103	12.699032	24.150538	-0.119308	0.169620	2.139415	0.000000	0.003289	0.000000	-0.004260	-0.000419	0.000000	0.000000
63.730426	12.777031	24.053454	-0.110438	0.095410	2.140517	0.000000	-0.002176	0.000000	-0.004384	-0.000408	0.000000	0.000000
64.171386	13.036456	23.704511	-0.480320	0.692954	2.153332	0.000000	0.059454	0.000000	-0.004590	-0.000524	0.000000	0.000000
64.612346	13.630445	22.840561	-0.872137	1.258971	2.193496	0.000000	0.121766	0.000000	-0.004847	-0.000645	0.000000	0.000000
65.053306	14.586121	21.500913	-1.303786	1.767712	2.261469	0.000000	0.185472	0.000000	-0.005160	-0.000774	0.000000	0.000000
65.494266	15.947127	19.746518	-1.794982	2.196033	2.358028	0.000000	0.251298	0.000000	-0.005531	-0.000912	0.000000	0.000000
65.940226	17.798880	17.632377	-2.372731	2.525067	2.485852	0.000000	0.320378	0.000000	-0.005971	-0.001061	0.000000	0.000000
66.489286	20.170537	15.267744	-1.922090	1.807428	2.641837	0.000000	0.245174	0.000000	-0.006499	-0.000859	0.000000	0.000000
67.038346	21.969508	13.616228	-1.335738	1.218509	2.755162	0.000000	0.165607	0.000000	-0.006912	-0.000642	0.000000	0.000000
67.587406	23.068794	12.560205	-0.655077	0.716367	2.823811	0.000000	0.083093	0.000000	-0.007202	-0.000414	0.000000	0.000000
68.136466	23.390795	12.024461	0.071831	0.265241	2.846562	0.000000	-0.000901	0.000000	-0.007365	-0.000178	0.000000	0.000000
68.435038	23.390379	11.854253	-0.005749	0.271546	2.848705	0.000000	0.006987	0.000000	-0.007424	-0.000197	0.000000	0.000000
68.768372	23.398962	11.683286	-0.020000	0.241353	2.851100	0.000000	0.006987	0.000000	-0.007489	-0.000197	0.000000	0.000000
69.101705	23.417046	11.532448	-0.034251	0.211161	2.853494	0.000000	0.006987	0.000000	-0.007555	-0.000197	0.000000	0.000000
69.436288	23.444752	11.401286	-0.048556	0.180855	2.855898	0.000000	0.006987	0.000000	-0.007621	-0.000197	0.000000	0.000000
69.733611	23.477446	11.301730	-0.126476	0.185280	2.858037	0.000000	0.014925	0.000000	-0.007680	-0.000218	0.000000	0.000000
70.282671	23.213163	11.324837	0.604955	-0.227618	2.843065	0.000000	-0.069566	0.000000	-0.007731	0.000032	0.000000	0.000000
