#ParticleID	Turn	x[m]	xp	y[m]	yp	z[m]	dE[GeV]# s	beta_x	beta_y	alpha_x	alpha_y	D_x	D_y	D_px	D_py	orbit_x	orbit_px	orbit_y	orbit_py
0.300000	11.964589	25.302263	-0.018149	-0.022519	2.598578	0.000000	-0.000217	0.000000	-0.001064	0.000914	0.000000	0.000000
0.601250	11.983111	25.319420	-0.043336	-0.034431	2.598237	0.000000	-0.000217	0.000000	-0.000789	0.000914	0.000000	0.000000
0.898573	12.016271	25.343390	-0.038583	-0.108310	2.597900	0.000000	-0.006619	0.000000	-0.000517	0.000915	0.000000	0.000000
1.339533	12.204208	25.157643	-0.388921	0.527941	2.610772	0.000000	0.066808	0.000000	-0.000116	0.000907	0.000000	0.000000
1.780493	12.707762	24.419261	-0.757035	1.140174	2.656158	0.000000	0.140987	0.000000	0.000284	0.000909	0.000000	0.000000
2.221453	13.549947	23.161829	-1.159743	1.700532	2.734573	0.000000	0.216763	0.000000	0.000688	0.000922	0.000000	0.000000
2.662413	14.769251	21.442552	-1.615446	2.183520	2.846906	0.000000	0.294997	0.000000	0.001099	0.000945	0.000000	0.000000
3.108373	16.442460	19.314456	-2.149340	2.568334	2.996274	0.000000	0.377072	0.000000	0.001528	0.000979	0.000000	0.000000
3.657433	18.587195	16.923885	-1.733150	1.811187	3.177776	0.000000	0.284892	0.000000	0.002050	0.000921	0.000000	0.000000
4.206493	20.204555	15.289463	-1.194510	1.183050	3.307240	0.000000	0.187672	0.000000	0.002536	0.000847	0.000000	0.000000
4.755553	21.180260	14.294781	-0.571469	0.639180	3.382377	0.000000	0.087138	0.000000	0.002977	0.000757	0.000000	0.000000
5.304613	21.445358	13.868998	0.091959	0.140839	3.401861	0.000000	-0.014931	0.000000	0.003365	0.000655	0.000000	0.000000
5.603185	21.427110	13.770583	0.023577	0.153720	3.399783	0.000000	-0.006295	0.000000	0.003563	0.000663	0.000000	0.000000
5.936519	21.416580	13.676362	0.008011	0.128942	3.397463	0.000000	-0.006295	0.000000	0.003784	0.000663	0.000000	0.000000
6.269852	21.416428	13.598660	-0.007554	0.104164	3.395144	0.000000	-0.006295	0.000000	0.004005	0.000663	0.000000	0.000000
6.604435	21.426710	13.537279	-0.023178	0.079293	3.392816	0.000000	-0.006295	0.000000	0.004227	0.000663	0.000000	0.000000
6.901758	21.444633	13.496691	-0.090989	0.091264	3.390748	0.000000	0.002232	0.000000	0.004425	0.000675	0.000000	0.000000
7.450818	21.178909	13.658304	0.572420	-0.387327	3.363728	0.000000	-0.099358	0.000000	0.004755	0.000526	0.000000	0.000000
7.999878	20.202568	14.357484	1.195398	-0.893513	3.281410	0.000000	-0.199177	0.000000	0.005000	0.000368	0.000000	0.000000
8.548938	18.584582	15.644043	1.733929	-1.463352	3.145258	0.000000	-0.295457	0.000000	0.005157	0.000203	0.000000	0.000000
9.097998	16.439265	17.609636	2.149961	-2.137439	2.957690	0.000000	-0.386492	0.000000	0.005223	0.000035	0.000000	0.000000
9.543958	14.765679	19.360825	1.615937	-1.772458	2.803431	0.000000	-0.305456	0.000000	0.005269	0.000171	0.000000	0.000000
9.984918	13.546085	20.733413	1.160213	-1.328188	2.685728	0.000000	-0.228401	0.000000	0.005375	0.000308	0.000000	0.000000
10.425878	12.703641	21.685910	0.757506	-0.823477	2.601340	0.000000	-0.153951	0.000000	0.005541	0.000449	0.000000	0.000000
10.866838	12.199849	22.174970	0.389411	-0.281291	2.549305	0.000000	-0.081259	0.000000	0.005771	0.000595	0.000000	0.000000
11.309048	12.011536	22.177751	0.066744	0.222187	2.529008	0.000000	-0.015340	0.000000	0.006068	0.000733	0.000000	0.000000
11.606371	11.979239	22.049812	0.041880	0.208119	2.524229	0.000000	-0.015340	0.000000	0.006286	0.000733	0.000000	0.000000
12.086371	11.958301	21.860920	0.001741	0.185407	2.516514	0.000000	-0.015340	0.000000	0.006638	0.000733	0.000000	0.000000
12.566371	11.975897	21.693831	-0.038399	0.162695	2.508799	0.000000	-0.015340	0.000000	0.006990	0.000733	0.000000	0.000000
13.046371	12.032026	21.548545	-0.078538	0.139983	2.501084	0.000000	-0.015340	0.000000	0.007342	0.000733	0.000000	0.000000
13.526371	12.126690	21.425063	-0.118678	0.117271	2.493369	0.000000	-0.015340	0.000000	0.007694	0.000733	0.000000	0.000000
14.007621	12.260286	21.323148	-0.158922	0.094500	2.485633	0.000000	-0.015340	0.000000	0.008046	0.000733	0.000000	0.000000
14.304943	12.362156	21.271179	-0.155892	0.032646	2.480852	0.000000	-0.020938	0.000000	0.008264	0.000714	0.000000	0.000000
14.745903	12.658257	21.009708	-0.517774	0.557985	2.486773	0.000000	0.049399	0.000000	0.008627	0.000931	0.000000	0.000000
15.186863	13.282787	20.294340	-0.903328	1.057932	2.523711	0.000000	0.120289	0.000000	0.009087	0.001160	0.000000	0.000000
15.627823	14.264306	19.157623	-1.330179	1.509735	2.592084	0.000000	0.192537	0.000000	0.009652	0.001401	0.000000	0.000000
16.068783	15.647696	17.651278	-1.817840	1.892831	2.692665	0.000000	0.266964	0.000000	0.010326	0.001659	0.000000	0.000000
16.514743	17.519862	15.822197	-2.393565	2.190743	2.828286	0.000000	0.344908	0.000000	0.011127	0.001937	0.000000	0.000000
17.063803	19.923793	13.780637	-1.957092	1.548868	2.993265	0.000000	0.258411	0.000000	0.012089	0.001561	0.000000	0.000000
17.612863	21.769011	12.379652	-1.382275	1.017346	3.109628	0.000000	0.167354	0.000000	0.012837	0.001157	0.000000	0.000000
18.161923	22.925050	11.519440	-0.709743	0.558310	3.175320	0.000000	0.073346	0.000000	0.013356	0.000733	0.000000	0.000000
18.710983	23.310163	11.138720	0.012968	0.139053	3.189182	0.000000	-0.021952	0.000000	0.013639	0.000295	0.000000	0.000000
19.009556	23.338186	11.048674	-0.053557	0.137130	3.184715	0.000000	-0.014605	0.000000	0.013737	0.000329	0.000000	0.000000
19.342889	23.378665	10.967499	-0.067881	0.106394	3.179737	0.000000	-0.014605	0.000000	0.013847	0.000329	0.000000	0.000000
19.676223	23.428694	10.906816	-0.082204	0.075657	3.174759	0.000000	-0.014605	0.000000	0.013956	0.000329	0.000000	0.000000
20.010806	23.488804	10.866377	-0.212958	0.098643	3.169781	0.000000	0.001100	0.000000	0.014066	0.000398	0.000000	0.000000
20.308129	23.619512	10.815869	-0.280288	0.095859	3.169999	0.000000	0.008360	0.000000	0.014185	0.000433	0.000000	0.000000
20.857189	23.520148	10.930319	0.460287	-0.305495	3.148489	0.000000	-0.086194	0.000000	0.014296	-0.000028	0.000000	0.000000
21.406249	22.620335	11.494890	1.168330	-0.728617	3.075640	0.000000	-0.179219	0.000000	0.014154	-0.000489	0.000000	0.000000
21.955309	20.983691	12.549806	1.793787	-1.203656	2.952741	0.000000	-0.269071	0.000000	0.013761	-0.000942	0.000000	0.000000
22.504369	18.725935	14.170225	2.292445	-1.764459	2.781971	0.000000	-0.354164	0.000000	0.013123	-0.001377	0.000000	0.000000
22.950329	16.948718	15.625992	1.705197	-1.485366	2.641690	0.000000	-0.277470	0.000000	0.012583	-0.001044	0.000000	0.000000
23.391289	15.671691	16.788194	1.200883	-1.139755	2.535900	0.000000	-0.204420	0.000000	0.012194	-0.000724	0.000000	0.000000
23.832249	14.813780	17.621407	0.751470	-0.742270	2.461653	0.000000	-0.133691	0.000000	0.011943	-0.000413	0.000000	0.000000
24.273209	14.335754	18.087711	0.336411	-0.311001	2.418104	0.000000	-0.064480	0.000000	0.011829	-0.000107	0.000000	0.000000
24.715418	14.215893	18.165573	-0.032522	0.094900	2.404763	0.000000	-0.001220	0.000000	0.011849	0.000171	0.000000	0.000000
25.012741	14.241457	18.114051	-0.053459	0.078386	2.404349	0.000000	-0.001220	0.000000	0.011900	0.000171	0.000000	0.000000
25.346075	14.284920	18.067966	-0.076932	0.059871	2.403886	0.000000	-0.001220	0.000000	0.011958	0.000171	0.000000	0.000000
25.679408	14.344032	18.034224	-0.100404	0.041356	2.403422	0.000000	-0.001220	0.000000	0.012015	0.000171	0.000000	0.000000
26.013991	14.418810	18.013133	-0.006990	-0.123360	2.402933	0.000000	-0.020714	0.000000	0.012072	0.000073	0.000000	0.000000
26.311314	14.429036	18.091549	0.003598	-0.179238	2.396747	0.000000	-0.025898	0.000000	0.012094	0.000045	0.000000	0.000000
26.752274	14.604299	18.053644	-0.402410	0.264856	2.400263	0.000000	0.042246	0.000000	0.012183	0.000358	0.000000	0.000000
27.193234	15.144481	17.627854	-0.826817	0.696896	2.433775	0.000000	0.110867	0.000000	0.012410	0.000676	0.000000	0.000000
27.634194	16.074287	16.833556	-1.289026	1.097218	2.497664	0.000000	0.180745	0.000000	0.012780	0.001000	0.000000	0.000000
28.075154	17.436241	15.706894	-1.810169	1.447602	2.592655	0.000000	0.252671	0.000000	0.013294	0.001336	0.000000	0.000000
28.521114	19.316598	14.281968	-2.419274	1.733275	2.721442	0.000000	0.327946	0.000000	0.013969	0.001690	0.000000	0.000000
29.070174	21.707917	12.695173	-1.908468	1.173214	2.878238	0.000000	0.245039	0.000000	0.014771	0.001224	0.000000	0.000000
29.619234	23.460208	11.674259	-1.262746	0.696748	2.988499	0.000000	0.157803	0.000000	0.015310	0.000737	0.000000	0.000000
30.168294	24.449560	11.146494	-0.527754	0.269930	3.050277	0.000000	0.067778	0.000000	0.015578	0.000237	0.000000	0.000000
30.717354	24.606013	11.074277	0.244546	-0.137654	3.062477	0.000000	-0.023445	0.000000	0.015569	-0.000268	0.000000	0.000000
31.015927	24.496735	11.149750	0.176425	-0.139908	3.057599	0.000000	-0.016531	0.000000	0.015500	-0.000230	0.000000	0.000000
31.349260	24.383795	11.253183	0.162394	-0.170390	3.052166	0.000000	-0.016531	0.000000	0.015423	-0.000230	0.000000	0.000000
31.682593	24.280210	11.376936	0.148363	-0.200871	3.046732	0.000000	-0.016531	0.000000	0.015347	-0.000230	0.000000	0.000000
32.017177	24.185642	11.521589	0.134280	-0.231466	3.041278	0.000000	-0.016531	0.000000	0.015270	-0.000230	0.000000	0.000000
32.314499	24.109678	11.667234	0.067116	-0.232243	3.036442	0.000000	-0.009648	0.000000	0.015201	-0.000193	0.000000	0.000000
32.863559	23.623139	12.160592	0.813277	-0.671420	3.006592	0.000000	-0.099740	0.000000	0.014961	-0.000682	0.000000	0.000000
33.412619	22.343768	13.159606	1.501939	-1.158438	2.927931	0.000000	-0.188073	0.000000	0.014455	-0.001158	0.000000	0.000000
33.961679	20.362037	14.735448	2.084420	-1.727999	2.801848	0.000000	-0.273088	0.000000	0.013692	-0.001615	0.000000	0.000000
34.510739	17.818079	17.000381	2.519547	-2.420681	2.630571	0.000000	-0.353283	0.000000	0.012686	-0.002042	0.000000	0.000000
34.956699	15.841699	19.026761	1.926169	-2.103266	2.490099	0.000000	-0.280528	0.000000	0.011847	-0.001724	0.000000	0.000000
35.397659	14.368552	20.706617	1.426040	-1.691149	2.382390	0.000000	-0.211414	0.000000	0.011153	-0.001427	0.000000	0.000000
35.838619	13.306326	21.987484	0.991108	-1.202066	2.304485	0.000000	-0.144694	0.000000	0.010586	-0.001147	0.000000	0.000000
36.279579	12.606442	22.811077	0.601486	-0.658276	2.255502	0.000000	-0.079610	0.000000	0.010139	-0.000880	0.000000	0.000000
36.721789	12.236261	23.140197	0.266407	-0.135732	2.234865	0.000000	-0.020382	0.000000	0.009808	-0.000646	0.000000	0.000000
37.019112	12.085581	23.224800	0.240384	-0.148818	2.228996	0.000000	-0.020382	0.000000	0.009616	-0.000646	0.000000	0.000000
37.352445	11.935050	23.328902	0.211209	-0.163488	2.222418	0.000000	-0.020382	0.000000	0.009401	-0.000646	0.000000	0.000000
37.685779	11.803969	23.442784	0.182034	-0.178158	2.215839	0.000000	-0.020382	0.000000	0.009185	-0.000646	0.000000	0.000000
38.020362	11.691956	23.566929	0.152750	-0.192884	2.209235	0.000000	-0.020382	0.000000	0.008969	-0.000646	0.000000	0.000000
38.317684	11.608835	23.685570	0.152780	-0.259343	2.203365	0.000000	-0.025327	0.000000	0.008778	-0.000666	0.000000	0.000000
38.758644	11.622826	23.651825	-0.184809	0.335569	2.206353	0.000000	0.037817	0.000000	0.008533	-0.000443	0.000000	0.000000
39.199604	11.937195	23.098109	-0.530841	0.915207	2.237163	0.000000	0.101397	0.000000	0.008386	-0.000225	0.000000	0.000000
39.640564	12.566308	22.049624	-0.901133	1.453193	2.296150	0.000000	0.166135	0.000000	0.008334	-0.000009	0.000000	0.000000
40.081524	13.538922	20.554086	-1.312610	1.925045	2.383984	0.000000	0.232765	0.000000	0.008378	0.000206	0.000000	0.000000
40.527484	14.917072	18.656812	-1.788041	2.310800	2.503152	0.000000	0.302476	0.000000	0.008519	0.000425	0.000000	0.000000
41.076544	16.678494	16.524297	-1.400510	1.595589	2.648548	0.000000	0.226846	0.000000	0.008676	0.000147	0.000000	0.000000
41.625604	17.957038	15.110598	-0.914016	0.994054	2.751393	0.000000	0.147192	0.000000	0.008679	-0.000134	0.000000	0.000000
42.174664	18.662348	14.314998	-0.362940	0.463343	2.809864	0.000000	0.064926	0.000000	0.008529	-0.000413	0.000000	0.000000
42.723724	18.744584	14.080813	0.213775	-0.034356	2.822919	0.000000	-0.018500	0.000000	0.008227	-0.000685	0.000000	0.000000
43.022297	18.648966	14.087183	0.151872	-0.021221	2.819638	0.000000	-0.011644	0.000000	0.008029	-0.000664	0.000000	0.000000
43.502297	18.515808	14.123918	0.125540	-0.055310	2.814368	0.000000	-0.011644	0.000000	0.007710	-0.000664	0.000000	0.000000
43.982297	18.407929	14.193378	0.099208	-0.089399	2.809097	0.000000	-0.011644	0.000000	0.007391	-0.000664	0.000000	0.000000
44.462297	18.325329	14.295564	0.072875	-0.123488	2.803827	0.000000	-0.011644	0.000000	0.007072	-0.000664	0.000000	0.000000
44.942297	18.268008	14.430475	0.046543	-0.157577	2.798556	0.000000	-0.011644	0.000000	0.006754	-0.000664	0.000000	0.000000
45.423547	18.236142	14.598410	-0.070210	-0.119425	2.793290	0.000000	0.002195	0.000000	0.006434	-0.000632	0.000000	0.000000
45.720870	18.282784	14.675551	-0.131824	-0.103909	2.794132	0.000000	0.009108	0.000000	0.006246	-0.000616	0.000000	0.000000
46.269930	18.119387	15.073278	0.427259	-0.624683	2.776856	0.000000	-0.073311	0.000000	0.005853	-0.000812	0.000000	0.000000
46.818990	17.354977	16.063855	0.956141	-1.189956	2.714712	0.000000	-0.154442	0.000000	0.005357	-0.000994	0.000000	0.000000
47.368050	16.043589	17.717836	1.417452	-1.839995	2.608794	0.000000	-0.232849	0.000000	0.004765	-0.001158	0.000000	0.000000
47.917110	14.277901	20.153028	1.778602	-2.621104	2.460974	0.000000	-0.307145	0.000000	0.004089	-0.001301	0.000000	0.000000
48.363070	12.902761	22.317629	1.315215	-2.212061	2.339884	0.000000	-0.238577	0.000000	0.003531	-0.001203	0.000000	0.000000
48.804030	11.922485	24.051030	0.915751	-1.703763	2.249688	0.000000	-0.173125	0.000000	0.003020	-0.001118	0.000000	0.000000
49.244990	11.274830	25.300092	0.558139	-1.117942	2.187864	0.000000	-0.109632	0.000000	0.002543	-0.001046	0.000000	0.000000
49.685950	10.930193	26.007991	0.226037	-0.481255	2.153711	0.000000	-0.047377	0.000000	0.002095	-0.000987	0.000000	0.000000
50.128160	10.872992	26.142239	-0.069605	0.114534	2.146859	0.000000	0.009168	0.000000	0.001670	-0.000942	0.000000	0.000000
50.425482	10.922552	26.077558	-0.097083	0.103011	2.149865	0.000000	0.009168	0.000000	0.001390	-0.000942	0.000000	0.000000
50.758816	10.997543	26.013190	-0.127889	0.090093	2.153235	0.000000	0.009168	0.000000	0.001076	-0.000942	0.000000	0.000000
51.092149	11.093071	25.957434	-0.158694	0.077175	2.156605	0.000000	0.009168	0.000000	0.000762	-0.000942	0.000000	0.000000
51.426732	11.209382	25.910654	-0.098677	-0.145991	2.159966	0.000000	-0.008355	0.000000	0.000447	-0.000946	0.000000	0.000000
51.724055	11.276023	26.000951	-0.097851	-0.221724	2.157763	0.000000	-0.013638	0.000000	0.000165	-0.000946	0.000000	0.000000
52.165015	11.509108	25.907069	-0.433046	0.433819	2.165820	0.000000	0.048381	0.000000	-0.000252	-0.000947	0.000000	0.000000
52.605975	12.045370	25.241585	-0.788018	1.069619	2.201325	0.000000	0.110962	0.000000	-0.000672	-0.000959	0.000000	0.000000
53.046935	12.909300	24.034788	-1.178984	1.656749	2.264686	0.000000	0.174818	0.000000	-0.001099	-0.000982	0.000000	0.000000
53.487895	14.140356	22.341595	-1.623804	2.168498	2.356630	0.000000	0.240674	0.000000	-0.001539	-0.001016	0.000000	0.000000
53.933855	15.815812	20.213741	-2.147065	2.582888	2.479729	0.000000	0.309678	0.000000	-0.002002	-0.001062	0.000000	0.000000
54.482915	17.972394	17.818947	-1.758075	1.804623	2.629952	0.000000	0.234756	0.000000	-0.002566	-0.000988	0.000000	0.000000
55.031975	19.630699	16.203595	-1.244935	1.154893	2.737784	0.000000	0.155654	0.000000	-0.003084	-0.000896	0.000000	0.000000
55.581035	20.673634	15.252618	-0.643888	0.587421	2.801306	0.000000	0.073777	0.000000	-0.003547	-0.000789	0.000000	0.000000
56.130095	21.027568	14.898274	0.002617	0.061788	2.819383	0.000000	-0.009421	0.000000	-0.003948	-0.000668	0.000000	0.000000
56.428668	21.064130	14.843340	-0.068365	0.081880	2.819044	0.000000	-0.001813	0.000000	-0.004150	-0.000678	0.000000	0.000000
56.762001	21.115006	14.796289	-0.084264	0.059273	2.818666	0.000000	-0.001813	0.000000	-0.004376	-0.000678	0.000000	0.000000
57.095334	21.176482	14.764310	-0.100162	0.036665	2.818287	0.000000	-0.001813	0.000000	-0.004602	-0.000678	0.000000	0.000000
57.429918	21.248847	14.747367	-0.116121	0.013973	2.817907	0.000000	-0.001813	0.000000	-0.004829	-0.000678	0.000000	0.000000
57.727240	21.322130	14.745043	-0.188327	0.033793	2.817571	0.000000	0.005854	0.000000	-0.005031	-0.000691	0.000000	0.000000
58.276300	21.164389	14.990609	0.473571	-0.483715	2.798261	0.000000	-0.077262	0.000000	-0.005364	-0.000523	0.000000	0.000000
58.825360	20.294073	15.819882	1.102015	-1.035668	2.733535	0.000000	-0.159016	0.000000	-0.005603	-0.000345	0.000000	0.000000
59.374420	18.772649	17.291914	1.652629	-1.661377	2.624536	0.000000	-0.237957	0.000000	-0.005743	-0.000162	0.000000	0.000000
59.923480	16.707552	19.511536	2.086535	-2.405401	2.473196	0.000000	-0.312679	0.000000	-0.005780	0.000025	0.000000	0.000000
60.369440	15.089774	21.484132	1.554065	-1.999369	2.349187	0.000000	-0.243878	0.000000	-0.005802	-0.000125	0.000000	0.000000
60.810400	13.925354	23.034588	1.096736	-1.503636	2.256301	0.000000	-0.178235	0.000000	-0.005891	-0.000276	0.000000	0.000000
61.251360	13.140678	24.115937	0.689503	-0.939502	2.191950	0.000000	-0.114618	0.000000	-0.006046	-0.000430	0.000000	0.000000
61.692320	12.699904	24.678989	0.313767	-0.332629	2.155403	0.000000	-0.052302	0.000000	-0.006270	-0.000588	0.000000	0.000000
62.134530	12.582951	24.697540	-0.014991	0.225326	2.146252	0.000000	0.003840	0.000000	-0.006567	-0.000737	0.000000	0.000000
62.431853	12.598892	24.567311	-0.038626	0.212677	2.147613	0.000000	0.003840	0.000000	-0.006786	-0.000737	0.000000	0.000000
62.765186	12.633475	24.430254	-0.065122	0.198495	2.149139	0.000000	0.003840	0.000000	-0.007032	-0.000737	0.000000	0.000000
63.098520	12.685722	24.302652	-0.091619	0.184313	2.150665	0.000000	0.003840	0.000000	-0.007278	-0.000737	0.000000	0.000000
63.433103	12.755929	24.184078	-0.118215	0.170078	2.152196	0.000000	0.003840	0.000000	-0.007525	-0.000737	0.000000	0.000000
63.730426	12.833230	24.086746	-0.108123	0.093873	2.153555	0.000000	-0.001820	0.000000	-0.007744	-0.000718	0.000000	0.000000
64.171386	13.091078	23.738786	-0.479206	0.692309	2.166751	0.000000	0.060145	0.000000	-0.008105	-0.000922	0.000000	0.000000
64.612346	13.684486	22.875043	-0.872166	1.259250	2.207483	0.000000	0.122805	0.000000	-0.008558	-0.001137	0.000000	0.000000
65.053306	14.640539	21.534816	-1.304949	1.768905	2.276221	0.000000	0.186875	0.000000	-0.009109	-0.001364	0.000000	0.000000
65.494266	16.002882	19.779082	-1.797316	2.198094	2.373751	0.000000	0.253088	0.000000	-0.009764	-0.001608	0.000000	0.000000
65.940226	17.857065	17.662809	-2.376215	2.527832	2.502785	0.000000	0.322568	0.000000	-0.010539	-0.001871	0.000000	0.000000
66.489286	20.231057	15.295800	-1.923520	1.809303	2.660199	0.000000	0.246805	0.000000	-0.011469	-0.001514	0.000000	0.000000
67.038346	22.030119	13.642777	-1.335055	1.219614	2.774551	0.000000	0.166641	0.000000	-0.012196	-0.001131	0.000000	0.000000
67.587406	23.127299	12.586011	-0.652362	0.716769	2.843803	0.000000	0.083503	0.000000	-0.012707	-0.000728	0.000000	0.000000
68.136466	23.445187	12.050241	0.076369	0.264963	2.866721	0.000000	-0.001127	0.000000	-0.012993	-0.000311	0.000000	0.000000
68.435038	23.443696	11.879334	-0.004067	0.272806	2.868953	0.000000	0.007151	0.000000	-0.013097	-0.000347	0.000000	0.000000
68.768372	23.451147	11.707513	-0.018286	0.242658	2.871452	0.000000	0.007151	0.000000	-0.013212	-0.000347	0.000000	0.000000
69.101705	23.468077	11.555790	-0.032504	0.212509	2.873952	0.000000	0.007151	0.000000	-0.013328	-0.000347	0.000000	0.000000
69.436288	23.494603	11.423711	-0.046776	0.182248	2.876461	0.000000	0.007151	0.000000	-0.013444	-0.000347	0.000000	0.000000
69.733611	23.526316	11.323272	-0.127653	0.188120	2.878698	0.000000	0.015495	0.000000	-0.013547	-0.000384	0.000000	0.000000
70.282671	23.262488	11.343562	0.605301	-0.225299	2.863898	0.000000	-0.069652	0.000000	-0.013638	0.000056	0.000000	0.000000
