#ParticleID	Turn	x[m]	xp	y[m]	yp	z[m]	dE[GeV]# s	beta_x	beta_y	alpha_x	alpha_y	D_x	D_y	D_px	D_py	orbit_x	orbit_px	orbit_y	orbit_py
0.300000	11.937903	25.149677	-0.012950	-0.026002	2.602728	0.000000	-0.001771	0.000000	-0.001257	0.001057	0.000000	0.000000
0.601250	11.953309	25.168955	-0.038189	-0.037989	2.601876	0.000000	-0.001771	0.000000	-0.000938	0.001057	0.000000	0.000000
0.898573	11.983424	25.195062	-0.033539	-0.111587	2.601035	0.000000	-0.008187	0.000000	-0.000624	0.001059	0.000000	0.000000
1.339533	12.166564	25.013923	-0.382996	0.520810	2.613172	0.000000	0.065312	0.000000	-0.000160	0.001049	0.000000	0.000000
1.780493	12.664427	24.283415	-0.749958	1.129515	2.657851	0.000000	0.139544	0.000000	0.000303	0.001051	0.000000	0.000000
2.221453	13.499771	23.036765	-1.151193	1.686831	2.735577	0.000000	0.215354	0.000000	0.000769	0.001064	0.000000	0.000000
2.662413	14.710773	21.330686	-1.605033	2.167399	2.847232	0.000000	0.293605	0.000000	0.001243	0.001090	0.000000	0.000000
3.108373	16.373715	19.217776	-2.136573	2.550532	2.995918	0.000000	0.375680	0.000000	0.001738	0.001129	0.000000	0.000000
3.657433	18.505284	16.844419	-1.721993	1.797438	3.176585	0.000000	0.283524	0.000000	0.002340	0.001063	0.000000	0.000000
4.206493	20.111690	15.223322	-1.185747	1.172374	3.305240	0.000000	0.186355	0.000000	0.002901	0.000978	0.000000	0.000000
4.755553	21.079422	14.239027	-0.565715	0.630818	3.379609	0.000000	0.085897	0.000000	0.003411	0.000876	0.000000	0.000000
5.304613	21.340086	13.821433	0.094301	0.134194	3.398379	0.000000	-0.016072	0.000000	0.003860	0.000758	0.000000	0.000000
5.603185	21.320158	13.727169	0.026349	0.146757	3.395915	0.000000	-0.007482	0.000000	0.004089	0.000768	0.000000	0.000000
5.936519	21.307807	13.637600	0.010704	0.121952	3.393165	0.000000	-0.007482	0.000000	0.004345	0.000768	0.000000	0.000000
6.269852	21.305886	13.564567	-0.004942	0.097146	3.390415	0.000000	-0.007482	0.000000	0.004601	0.000768	0.000000	0.000000
6.604435	21.314447	13.507891	-0.020646	0.072247	3.387655	0.000000	-0.007482	0.000000	0.004858	0.000768	0.000000	0.000000
6.901758	21.330890	13.471498	-0.087925	0.083951	3.385203	0.000000	0.000980	0.000000	0.005086	0.000781	0.000000	0.000000
7.450818	21.063938	13.640806	0.571629	-0.394108	3.357497	0.000000	-0.100421	0.000000	0.005469	0.000610	0.000000	0.000000
7.999878	20.090580	14.347371	1.190810	-0.900246	3.274613	0.000000	-0.200031	0.000000	0.005754	0.000428	0.000000	0.000000
8.548938	18.479578	15.641531	1.725867	-1.470519	3.138027	0.000000	-0.296086	0.000000	0.005937	0.000239	0.000000	0.000000
9.097998	16.344757	17.615487	2.138990	-2.145552	2.950164	0.000000	-0.386884	0.000000	0.006015	0.000045	0.000000	0.000000
9.543958	14.679749	19.374172	1.607565	-1.781033	2.795677	0.000000	-0.306042	0.000000	0.006070	0.000202	0.000000	0.000000
9.984918	13.466531	20.754405	1.154056	-1.336844	2.677652	0.000000	-0.229189	0.000000	0.006194	0.000360	0.000000	0.000000
10.425878	12.628647	21.714437	0.753283	-0.831817	2.592843	0.000000	-0.154951	0.000000	0.006388	0.000522	0.000000	0.000000
10.866838	12.127806	22.210578	0.386931	-0.288935	2.540281	0.000000	-0.082483	0.000000	0.006655	0.000690	0.000000	0.000000
11.309048	11.940976	22.219674	0.065464	0.215949	2.519346	0.000000	-0.016725	0.000000	0.006999	0.000849	0.000000	0.000000
11.606371	11.909483	22.095424	0.040458	0.201944	2.514121	0.000000	-0.016725	0.000000	0.007251	0.000849	0.000000	0.000000
12.086371	11.890020	21.912411	0.000088	0.179334	2.505685	0.000000	-0.016725	0.000000	0.007659	0.000849	0.000000	0.000000
12.566371	11.909313	21.751103	-0.040282	0.156724	2.497249	0.000000	-0.016725	0.000000	0.008067	0.000849	0.000000	0.000000
13.046371	11.967362	21.611500	-0.080652	0.134114	2.488814	0.000000	-0.016725	0.000000	0.008474	0.000849	0.000000	0.000000
13.526371	12.064165	21.493603	-0.121022	0.111504	2.480378	0.000000	-0.016725	0.000000	0.008882	0.000849	0.000000	0.000000
14.007621	12.200128	21.397189	-0.161497	0.088836	2.471920	0.000000	-0.016725	0.000000	0.009291	0.000849	0.000000	0.000000
14.304943	12.303563	21.348585	-0.159124	0.027567	2.466692	0.000000	-0.022214	0.000000	0.009543	0.000827	0.000000	0.000000
14.745903	12.601992	21.090634	-0.519782	0.555101	2.471913	0.000000	0.047751	0.000000	0.009963	0.001079	0.000000	0.000000
15.186863	13.227828	20.376776	-0.904206	1.057374	2.507969	0.000000	0.118249	0.000000	0.010497	0.001342	0.000000	0.000000
15.627823	14.209695	19.239487	-1.329971	1.511528	2.575267	0.000000	0.190080	0.000000	0.011150	0.001621	0.000000	0.000000
16.068783	15.592500	17.730518	-1.816542	1.896890	2.674567	0.000000	0.264059	0.000000	0.011930	0.001919	0.000000	0.000000
16.514743	17.463153	15.896774	-2.391152	2.196937	2.808672	0.000000	0.341522	0.000000	0.012856	0.002240	0.000000	0.000000
17.063803	19.865772	13.849611	-1.956865	1.552840	2.971829	0.000000	0.255684	0.000000	0.013969	0.001806	0.000000	0.000000
17.612863	21.712069	12.445306	-1.384234	1.019383	3.086779	0.000000	0.165339	0.000000	0.014834	0.001339	0.000000	0.000000
18.161923	22.871483	11.583819	-0.713736	0.558561	3.151493	0.000000	0.072082	0.000000	0.015436	0.000849	0.000000	0.000000
18.710983	23.262013	11.203778	0.007229	0.137539	3.164831	0.000000	-0.022441	0.000000	0.015763	0.000343	0.000000	0.000000
19.009556	23.292669	11.114855	-0.058051	0.135373	3.160135	0.000000	-0.015309	0.000000	0.015877	0.000381	0.000000	0.000000
19.342889	23.336156	11.034786	-0.072410	0.104833	3.154904	0.000000	-0.015309	0.000000	0.016004	0.000381	0.000000	0.000000
19.676223	23.389216	10.975077	-0.086769	0.074294	3.149674	0.000000	-0.015309	0.000000	0.016131	0.000381	0.000000	0.000000
20.010806	23.452392	10.935483	-0.217378	0.097821	3.144444	0.000000	0.000270	0.000000	0.016259	0.000462	0.000000	0.000000
20.308129	23.585788	10.885389	-0.283439	0.094817	3.144399	0.000000	0.007307	0.000000	0.016396	0.000502	0.000000	0.000000
20.857189	23.490465	11.002061	0.456140	-0.308514	3.122520	0.000000	-0.086417	0.000000	0.016526	-0.000032	0.000000	0.000000
21.406249	22.595581	11.571144	1.163476	-0.733830	3.049795	0.000000	-0.178608	0.000000	0.016362	-0.000565	0.000000	0.000000
21.955309	20.964415	12.633188	1.788561	-1.211438	2.927513	0.000000	-0.267639	0.000000	0.015907	-0.001088	0.000000	0.000000
22.504369	18.712318	14.263859	2.287201	-1.775368	2.757839	0.000000	-0.351939	0.000000	0.015171	-0.001591	0.000000	0.000000
22.950329	16.939334	15.728411	1.700587	-1.493895	2.618488	0.000000	-0.275849	0.000000	0.014547	-0.001206	0.000000	0.000000
23.391289	15.666088	16.896997	1.196743	-1.145570	2.513338	0.000000	-0.203385	0.000000	0.014098	-0.000836	0.000000	0.000000
23.832249	14.811649	17.734060	0.747616	-0.745102	2.439455	0.000000	-0.133230	0.000000	0.013808	-0.000476	0.000000	0.000000
24.273209	14.336940	18.201507	0.332671	-0.310721	2.396001	0.000000	-0.064588	0.000000	0.013677	-0.000122	0.000000	0.000000
24.715418	14.220419	18.277715	-0.036959	0.098866	2.382484	0.000000	-0.001739	0.000000	0.013701	0.000200	0.000000	0.000000
25.012741	14.248622	18.223808	-0.057896	0.082440	2.381907	0.000000	-0.001739	0.000000	0.013760	0.000200	0.000000	0.000000
25.346075	14.295043	18.174987	-0.081369	0.064025	2.381261	0.000000	-0.001739	0.000000	0.013827	0.000200	0.000000	0.000000
25.679408	14.357113	18.138442	-0.104841	0.045610	2.380615	0.000000	-0.001739	0.000000	0.013893	0.000200	0.000000	0.000000
26.013991	14.434860	18.114473	-0.011297	-0.119828	2.379943	0.000000	-0.021046	0.000000	0.013960	0.000086	0.000000	0.000000
26.311314	14.447619	18.190783	-0.001323	-0.174958	2.373653	0.000000	-0.026069	0.000000	0.013985	0.000054	0.000000	0.000000
26.752274	14.627471	18.147920	-0.407910	0.271773	2.376948	0.000000	0.041480	0.000000	0.014089	0.000416	0.000000	0.000000
27.193234	15.172881	17.714965	-0.833147	0.706136	2.409955	0.000000	0.109497	0.000000	0.014353	0.000783	0.000000	0.000000
27.634194	16.108797	16.911621	-1.296480	1.108358	2.473049	0.000000	0.178753	0.000000	0.014781	0.001159	0.000000	0.000000
28.075154	17.478028	15.774446	-1.819096	1.460133	2.566944	0.000000	0.250034	0.000000	0.015377	0.001547	0.000000	0.000000
28.521114	19.367367	14.337823	-2.430157	1.746671	2.694311	0.000000	0.324633	0.000000	0.016158	0.001957	0.000000	0.000000
29.070174	21.770273	12.737746	-1.918274	1.184049	2.849415	0.000000	0.242626	0.000000	0.017086	0.001418	0.000000	0.000000
29.619234	23.532529	11.705942	-1.270764	0.705798	2.958532	0.000000	0.156336	0.000000	0.017711	0.000854	0.000000	0.000000
30.168294	24.529498	11.168897	-0.533405	0.277843	3.019731	0.000000	0.067286	0.000000	0.018021	0.000275	0.000000	0.000000
30.717354	24.690670	11.088349	0.241666	-0.130312	3.031932	0.000000	-0.022954	0.000000	0.018012	-0.000309	0.000000	0.000000
31.015927	24.582291	11.159804	0.174843	-0.133100	3.027135	0.000000	-0.016285	0.000000	0.017933	-0.000266	0.000000	0.000000
31.349260	24.470387	11.258670	0.160869	-0.163498	3.021795	0.000000	-0.016285	0.000000	0.017844	-0.000266	0.000000	0.000000
31.682593	24.367799	11.377801	0.146894	-0.193896	3.016455	0.000000	-0.016285	0.000000	0.017756	-0.000266	0.000000	0.000000
32.017177	24.274196	11.517759	0.132867	-0.224408	3.011095	0.000000	-0.016285	0.000000	0.017667	-0.000266	0.000000	0.000000
32.314499	24.199113	11.659158	0.066925	-0.225796	3.006346	0.000000	-0.009641	0.000000	0.017588	-0.000223	0.000000	0.000000
32.863559	23.711083	12.145175	0.816087	-0.664389	2.976799	0.000000	-0.098769	0.000000	0.017310	-0.000789	0.000000	0.000000
33.412619	22.426966	13.135955	1.507544	-1.150326	2.899006	0.000000	-0.186157	0.000000	0.016724	-0.001340	0.000000	0.000000
33.961679	20.437584	14.702085	2.092408	-1.718231	2.774338	0.000000	-0.270263	0.000000	0.015842	-0.001868	0.000000	0.000000
34.510739	17.883635	16.955140	2.529335	-2.408569	2.604997	0.000000	-0.349604	0.000000	0.014679	-0.002362	0.000000	0.000000
34.956699	15.899323	18.970912	1.933846	-2.091483	2.466142	0.000000	-0.277483	0.000000	0.013708	-0.001994	0.000000	0.000000
35.397659	14.420088	20.640786	1.432023	-1.680285	2.359745	0.000000	-0.208967	0.000000	0.012905	-0.001651	0.000000	0.000000
35.838619	13.353163	21.912689	0.995677	-1.192611	2.282878	0.000000	-0.142815	0.000000	0.012249	-0.001327	0.000000	0.000000
36.279579	12.649748	22.728744	0.604856	-0.650661	2.234669	0.000000	-0.078276	0.000000	0.011732	-0.001018	0.000000	0.000000
36.721789	12.277045	23.052058	0.268361	-0.129206	2.214555	0.000000	-0.019447	0.000000	0.011348	-0.000746	0.000000	0.000000
37.019112	12.125184	23.132788	0.242399	-0.142319	2.208995	0.000000	-0.019447	0.000000	0.011127	-0.000746	0.000000	0.000000
37.352445	11.973287	23.232568	0.213293	-0.157021	2.202761	0.000000	-0.019447	0.000000	0.010878	-0.000746	0.000000	0.000000
37.685779	11.840794	23.342149	0.184186	-0.171722	2.196528	0.000000	-0.019447	0.000000	0.010629	-0.000746	0.000000	0.000000
38.020362	11.727317	23.461997	0.154971	-0.186479	2.190270	0.000000	-0.019447	0.000000	0.010379	-0.000746	0.000000	0.000000
38.317684	11.642848	23.576856	0.154749	-0.251963	2.184707	0.000000	-0.024277	0.000000	0.010157	-0.000770	0.000000	0.000000
38.758644	11.655431	23.537891	-0.183601	0.339978	2.188090	0.000000	0.038393	0.000000	0.009875	-0.000512	0.000000	0.000000
39.199604	11.969047	22.981665	-0.530339	0.916443	2.219075	0.000000	0.101507	0.000000	0.009705	-0.000259	0.000000	0.000000
39.640564	12.598028	21.933496	-0.901314	1.451199	2.278015	0.000000	0.165780	0.000000	0.009646	-0.000010	0.000000	0.000000
40.081524	13.571127	20.441087	-1.313485	1.919908	2.365585	0.000000	0.231941	0.000000	0.009696	0.000239	0.000000	0.000000
40.527484	14.950447	18.549660	-1.789684	2.302768	2.484261	0.000000	0.301175	0.000000	0.009860	0.000493	0.000000	0.000000
41.076544	16.713029	16.424119	-1.400882	1.590773	2.629089	0.000000	0.226162	0.000000	0.010042	0.000171	0.000000	0.000000
41.625604	17.991288	15.014080	-0.913083	0.992116	2.731733	0.000000	0.147140	0.000000	0.010047	-0.000155	0.000000	0.000000
42.174664	18.694883	14.219084	-0.360765	0.464148	2.790372	0.000000	0.065504	0.000000	0.009873	-0.000478	0.000000	0.000000
42.723724	18.774090	13.982486	0.217038	-0.030750	2.803961	0.000000	-0.017302	0.000000	0.009524	-0.000792	0.000000	0.000000
43.022297	18.676218	13.987134	0.155629	-0.018398	2.801029	0.000000	-0.010576	0.000000	0.009295	-0.000768	0.000000	0.000000
43.502297	18.539450	14.021273	0.129305	-0.052726	2.796322	0.000000	-0.010576	0.000000	0.008926	-0.000768	0.000000	0.000000
43.982297	18.427953	14.088369	0.102981	-0.087055	2.791614	0.000000	-0.010576	0.000000	0.008557	-0.000768	0.000000	0.000000
44.462297	18.341726	14.188420	0.076658	-0.121384	2.786906	0.000000	-0.010576	0.000000	0.008189	-0.000768	0.000000	0.000000
44.942297	18.280770	14.321426	0.050334	-0.155713	2.782198	0.000000	-0.010576	0.000000	0.007820	-0.000768	0.000000	0.000000
45.423547	18.245250	14.487685	-0.066455	-0.118350	2.777496	0.000000	0.003186	0.000000	0.007451	-0.000731	0.000000	0.000000
45.720870	18.289662	14.564226	-0.127661	-0.103608	2.778662	0.000000	0.009998	0.000000	0.007233	-0.000713	0.000000	0.000000
46.269930	18.121559	14.959804	0.431553	-0.621037	2.762069	0.000000	-0.071933	0.000000	0.006779	-0.000940	0.000000	0.000000
46.818990	17.352452	15.944446	0.960259	-1.182705	2.700884	0.000000	-0.152603	0.000000	0.006204	-0.001150	0.000000	0.000000
47.368050	16.036714	17.588281	1.421099	-1.828624	2.596183	0.000000	-0.230584	0.000000	0.005520	-0.001340	0.000000	0.000000
47.917110	14.267339	20.008393	1.781513	-2.604805	2.449815	0.000000	-0.304496	0.000000	0.004737	-0.001506	0.000000	0.000000
48.363070	12.889607	22.159964	1.318031	-2.199221	2.329928	0.000000	-0.236200	0.000000	0.004091	-0.001392	0.000000	0.000000
48.804030	11.906799	23.883800	0.918617	-1.694967	2.240803	0.000000	-0.170990	0.000000	0.003500	-0.001294	0.000000	0.000000
49.244990	11.256517	25.127050	0.561188	-1.113589	2.179944	0.000000	-0.107714	0.000000	0.002948	-0.001211	0.000000	0.000000
49.685950	10.909036	25.833155	0.229410	-0.481544	2.146662	0.000000	-0.045651	0.000000	0.002430	-0.001141	0.000000	0.000000
50.128160	10.848630	25.969717	-0.065881	0.110248	2.140600	0.000000	0.010751	0.000000	0.001938	-0.001090	0.000000	0.000000
50.425482	10.895990	25.907604	-0.093406	0.098660	2.144120	0.000000	0.010751	0.000000	0.001614	-0.001090	0.000000	0.000000
50.758816	10.968547	25.846161	-0.124265	0.085668	2.148067	0.000000	0.010751	0.000000	0.001251	-0.001090	0.000000	0.000000
51.092149	11.061677	25.793380	-0.155125	0.072677	2.152015	0.000000	0.010751	0.000000	0.000887	-0.001090	0.000000	0.000000
51.426732	11.175619	25.749632	-0.095436	-0.149257	2.155955	0.000000	-0.006739	0.000000	0.000523	-0.001094	0.000000	0.000000
51.724055	11.240351	25.841896	-0.094769	-0.224718	2.154276	0.000000	-0.012012	0.000000	0.000197	-0.001095	0.000000	0.000000
52.165015	11.470314	25.752502	-0.429068	0.426674	2.163095	0.000000	0.049928	0.000000	-0.000285	-0.001096	0.000000	0.000000
52.605975	12.002587	25.095037	-0.782962	1.058648	2.199332	0.000000	0.112448	0.000000	-0.000771	-0.001109	0.000000	0.000000
53.046935	12.861475	23.899427	-1.172618	1.642451	2.263403	0.000000	0.176261	0.000000	-0.001265	-0.001136	0.000000	0.000000
53.487895	14.086206	22.220081	-1.615836	2.151523	2.356044	0.000000	0.242093	0.000000	-0.001774	-0.001175	0.000000	0.000000
53.933855	15.753664	20.108291	-2.137105	2.564000	2.479843	0.000000	0.311090	0.000000	-0.002309	-0.001228	0.000000	0.000000
54.482915	17.900095	17.731752	-1.749749	1.790085	2.630922	0.000000	0.236151	0.000000	-0.002961	-0.001142	0.000000	0.000000
55.031975	19.550381	16.130470	-1.238836	1.143671	2.739587	0.000000	0.157006	0.000000	-0.003560	-0.001037	0.000000	0.000000
55.581035	20.588002	15.190377	-0.640451	0.578714	2.803902	0.000000	0.075059	0.000000	-0.004096	-0.000913	0.000000	0.000000
56.130095	20.939707	14.844506	0.003145	0.054977	2.822718	0.000000	-0.008234	0.000000	-0.004559	-0.000772	0.000000	0.000000
56.428668	20.975991	14.793614	-0.067934	0.075092	2.822779	0.000000	-0.000580	0.000000	-0.004793	-0.000785	0.000000	0.000000
56.762001	21.026601	14.751105	-0.083898	0.052433	2.822847	0.000000	-0.000580	0.000000	-0.005055	-0.000785	0.000000	0.000000
57.095334	21.087855	14.723703	-0.099863	0.029774	2.822915	0.000000	-0.000580	0.000000	-0.005316	-0.000785	0.000000	0.000000
57.429918	21.160042	14.711390	-0.115887	0.007029	2.822984	0.000000	-0.000580	0.000000	-0.005579	-0.000785	0.000000	0.000000
57.727240	21.233208	14.713204	-0.188263	0.026938	2.823046	0.000000	0.007150	0.000000	-0.005812	-0.000800	0.000000	0.000000
58.276300	21.077008	14.965849	0.470665	-0.489834	2.804447	0.000000	-0.076154	0.000000	-0.006199	-0.000606	0.000000	0.000000
58.825360	20.211418	15.801628	1.096343	-1.041488	2.740310	0.000000	-0.158116	0.000000	-0.006475	-0.000400	0.000000	0.000000
59.374420	18.697571	17.280056	1.644594	-1.667309	2.631768	0.000000	-0.237281	0.000000	-0.006637	-0.000188	0.000000	0.000000
59.923480	16.642362	19.506414	2.076708	-2.411865	2.480742	0.000000	-0.312241	0.000000	-0.006681	0.000028	0.000000	0.000000
60.369440	15.032410	21.485131	1.546284	-2.006592	2.356975	0.000000	-0.243245	0.000000	-0.006707	-0.000146	0.000000	0.000000
60.810400	13.874110	23.042137	1.090608	-1.511260	2.264428	0.000000	-0.177399	0.000000	-0.006810	-0.000320	0.000000	0.000000
61.251360	13.094215	24.130245	0.684746	-0.947182	2.200517	0.000000	-0.113569	0.000000	-0.006990	-0.000498	0.000000	0.000000
61.692320	12.657106	24.699959	0.310164	-0.340018	2.164517	0.000000	-0.051026	0.000000	-0.007249	-0.000681	0.000000	0.000000
62.134530	12.542880	24.724781	-0.017421	0.217971	2.156029	0.000000	0.005283	0.000000	-0.007593	-0.000853	0.000000	0.000000
62.431853	12.560290	24.598911	-0.041133	0.205374	2.157853	0.000000	0.005283	0.000000	-0.007847	-0.000853	0.000000	0.000000
62.765186	12.596573	24.466702	-0.067717	0.191252	2.159899	0.000000	0.005283	0.000000	-0.008131	-0.000853	0.000000	0.000000
63.098520	12.650579	24.343908	-0.094300	0.177129	2.161944	0.000000	0.005283	0.000000	-0.008415	-0.000853	0.000000	0.000000
63.433103	12.722609	24.230122	-0.120984	0.162954	2.163997	0.000000	0.005283	0.000000	-0.008701	-0.000853	0.000000	0.000000
63.730426	12.801572	24.137024	-0.110709	0.085981	2.165819	0.000000	-0.000467	0.000000	-0.008955	-0.000830	0.000000	0.000000
64.171386	13.061372	23.795381	-0.481121	0.685942	2.179736	0.000000	0.061821	0.000000	-0.009373	-0.001067	0.000000	0.000000
64.612346	13.656168	22.936486	-0.873496	1.254698	2.221351	0.000000	0.124825	0.000000	-0.009897	-0.001315	0.000000	0.000000
65.053306	14.613105	21.599419	-1.305750	1.766378	2.291141	0.000000	0.189264	0.000000	-0.010534	-0.001578	0.000000	0.000000
65.494266	15.975862	19.845011	-1.797620	2.197708	2.389909	0.000000	0.255875	0.000000	-0.011291	-0.001860	0.000000	0.000000
65.940226	17.830032	17.728120	-2.375984	2.529594	2.520398	0.000000	0.325784	0.000000	-0.012188	-0.002164	0.000000	0.000000
66.489286	20.204283	15.360050	-1.924464	1.809591	2.679553	0.000000	0.249427	0.000000	-0.013264	-0.001752	0.000000	0.000000
67.038346	22.004892	13.707552	-1.337123	1.218442	2.795276	0.000000	0.168618	0.000000	-0.014105	-0.001308	0.000000	0.000000
67.587406	23.104821	12.652938	-0.655419	0.714050	2.865503	0.000000	0.084799	0.000000	-0.014697	-0.000842	0.000000	0.000000
68.136466	23.426477	12.121103	0.072532	0.260501	2.888982	0.000000	-0.000538	0.000000	-0.015027	-0.000361	0.000000	0.000000
68.435038	23.427786	11.952391	-0.008826	0.269269	2.891458	0.000000	0.007924	0.000000	-0.015147	-0.000402	0.000000	0.000000
68.768372	23.438414	11.782849	-0.023056	0.239359	2.894233	0.000000	0.007924	0.000000	-0.015281	-0.000402	0.000000	0.000000
69.101705	23.458527	11.633246	-0.037285	0.209448	2.897008	0.000000	0.007924	0.000000	-0.015415	-0.000402	0.000000	0.000000
69.436288	23.488256	11.503135	-0.051568	0.179426	2.899794	0.000000	0.007924	0.000000	-0.015550	-0.000402	0.000000	0.000000
69.733611	23.522864	11.404291	-0.133450	0.186224	2.902280	0.000000	0.016461	0.000000	-0.015669	-0.000446	0.000000	0.000000
70.282671	23.265430	11.427906	0.599515	-0.229498	2.887815	0.000000	-0.069451	0.000000	-0.015774	0.000064	0.000000	0.000000
