#ParticleID	Turn	x[m]	xp	y[m]	yp	z[m]	dE[GeV]# s	beta_x	beta_y	alpha_x	alpha_y	D_x	D_y	D_px	D_py	orbit_x	orbit_px	orbit_y	orbit_py
0.300000	11.918041	25.213524	-0.018999	-0.023211	2.605784	0.000000	0.000596	0.000000	-0.000495	0.000434	0.000000	0.000000
0.601250	11.937106	25.231109	-0.044285	-0.035165	2.605833	0.000000	0.000596	0.000000	-0.000364	0.000434	0.000000	0.000000
0.898573	11.970860	25.255528	-0.039820	-0.108879	2.605881	0.000000	-0.005808	0.000000	-0.000235	0.000434	0.000000	0.000000
1.339533	12.159369	25.071306	-0.389151	0.525065	2.619360	0.000000	0.067833	0.000000	-0.000045	0.000431	0.000000	0.000000
1.780493	12.662610	24.336433	-0.756264	1.135121	2.665451	0.000000	0.142243	0.000000	0.000145	0.000432	0.000000	0.000000
2.221453	13.503578	23.084341	-1.157932	1.693531	2.744678	0.000000	0.218268	0.000000	0.000337	0.000438	0.000000	0.000000
2.662413	14.720701	21.371997	-1.612508	2.174887	2.857940	0.000000	0.296775	0.000000	0.000533	0.000449	0.000000	0.000000
3.108373	16.390609	19.252214	-2.145110	2.558441	3.008380	0.000000	0.379147	0.000000	0.000737	0.000466	0.000000	0.000000
3.657433	18.531502	16.871141	-1.730729	1.803738	3.191170	0.000000	0.286557	0.000000	0.000985	0.000438	0.000000	0.000000
4.206493	20.147118	15.243835	-1.194085	1.177513	3.321669	0.000000	0.188892	0.000000	0.001216	0.000402	0.000000	0.000000
4.755553	21.123321	14.254390	-0.573084	0.635161	3.397565	0.000000	0.087882	0.000000	0.001426	0.000360	0.000000	0.000000
5.304613	21.391141	13.832333	0.088407	0.138050	3.417516	0.000000	-0.014680	0.000000	0.001610	0.000310	0.000000	0.000000
5.603185	21.375443	13.735285	0.019300	0.151405	3.415669	0.000000	-0.005872	0.000000	0.001704	0.000315	0.000000	0.000000
5.936519	21.367776	13.642623	0.003700	0.126580	3.413607	0.000000	-0.005872	0.000000	0.001809	0.000315	0.000000	0.000000
6.269852	21.370510	13.566511	-0.011900	0.101755	3.411545	0.000000	-0.005872	0.000000	0.001913	0.000315	0.000000	0.000000
6.604435	21.383712	13.506757	-0.027559	0.076837	3.409475	0.000000	-0.005872	0.000000	0.002019	0.000315	0.000000	0.000000
6.901758	21.404240	13.467648	-0.096403	0.089318	3.407635	0.000000	0.002873	0.000000	0.002112	0.000320	0.000000	0.000000
7.450818	21.145075	13.630932	0.565783	-0.388453	3.380985	0.000000	-0.099263	0.000000	0.002269	0.000249	0.000000	0.000000
7.999878	20.176441	14.330910	1.188008	-0.893896	3.298694	0.000000	-0.199634	0.000000	0.002385	0.000174	0.000000	0.000000
8.548938	18.566760	15.617445	1.726312	-1.463014	3.162225	0.000000	-0.296461	0.000000	0.002459	0.000095	0.000000	0.000000
9.097998	16.429747	17.582182	2.142667	-2.136347	2.973999	0.000000	-0.388028	0.000000	0.002489	0.000015	0.000000	0.000000
9.543958	14.762286	19.332732	1.609577	-1.772288	2.819175	0.000000	-0.306593	0.000000	0.002510	0.000080	0.000000	0.000000
9.984918	13.548056	20.705499	1.154420	-1.328885	2.701116	0.000000	-0.229142	0.000000	0.002560	0.000145	0.000000	0.000000
10.425878	12.710573	21.658946	0.752009	-0.825015	2.616575	0.000000	-0.154303	0.000000	0.002638	0.000212	0.000000	0.000000
10.866838	12.211570	22.149689	0.383958	-0.283603	2.564589	0.000000	-0.081224	0.000000	0.002747	0.000282	0.000000	0.000000
11.309048	12.028095	22.154845	0.062029	0.217706	2.544545	0.000000	-0.015141	0.000000	0.002888	0.000347	0.000000	0.000000
11.606371	11.998587	22.029566	0.037215	0.203650	2.539940	0.000000	-0.015141	0.000000	0.002991	0.000347	0.000000	0.000000
12.086371	11.982089	21.844955	-0.002845	0.180957	2.532505	0.000000	-0.015141	0.000000	0.003158	0.000347	0.000000	0.000000
12.566371	12.004049	21.682128	-0.042905	0.158265	2.525071	0.000000	-0.015141	0.000000	0.003324	0.000347	0.000000	0.000000
13.046371	12.064467	21.541087	-0.082965	0.135572	2.517636	0.000000	-0.015141	0.000000	0.003491	0.000347	0.000000	0.000000
13.526371	12.163342	21.421830	-0.123025	0.112880	2.510202	0.000000	-0.015141	0.000000	0.003658	0.000347	0.000000	0.000000
14.007621	12.301083	21.324133	-0.163190	0.090128	2.502748	0.000000	-0.015141	0.000000	0.003825	0.000347	0.000000	0.000000
14.304943	12.405495	21.274728	-0.158724	0.025959	2.498142	0.000000	-0.021038	0.000000	0.003928	0.000338	0.000000	0.000000
14.745903	12.704459	21.019095	-0.521656	0.551520	2.504300	0.000000	0.049740	0.000000	0.004100	0.000441	0.000000	0.000000
15.186863	13.332804	20.309270	-0.908429	1.051985	2.541718	0.000000	0.121080	0.000000	0.004318	0.000550	0.000000	0.000000
15.627823	14.319250	19.177547	-1.336717	1.504581	2.610822	0.000000	0.193793	0.000000	0.004585	0.000665	0.000000	0.000000
16.068783	15.708883	17.675421	-1.826095	1.888714	2.712397	0.000000	0.268706	0.000000	0.004905	0.000787	0.000000	0.000000
16.514743	17.588839	15.849726	-2.403787	2.187736	2.849294	0.000000	0.347152	0.000000	0.005285	0.000919	0.000000	0.000000
17.063803	20.002594	13.811704	-1.965548	1.545721	3.015787	0.000000	0.259967	0.000000	0.005742	0.000740	0.000000	0.000000
17.612863	21.855465	12.414493	-1.388422	1.013819	3.133172	0.000000	0.168183	0.000000	0.006096	0.000549	0.000000	0.000000
18.161923	23.016510	11.558565	-0.713188	0.554140	3.199368	0.000000	0.073424	0.000000	0.006342	0.000347	0.000000	0.000000
18.710983	23.403678	11.182953	0.012444	0.133937	3.213207	0.000000	-0.022631	0.000000	0.006476	0.000139	0.000000	0.000000
19.009556	23.434535	11.094694	-0.058115	0.134125	3.208769	0.000000	-0.014699	0.000000	0.006523	0.000156	0.000000	0.000000
19.342889	23.478036	11.015472	-0.072387	0.103541	3.203818	0.000000	-0.014699	0.000000	0.006575	0.000156	0.000000	0.000000
19.676223	23.531051	10.956640	-0.086659	0.072956	3.198866	0.000000	-0.014699	0.000000	0.006627	0.000156	0.000000	0.000000
20.010806	23.594126	10.917957	-0.217883	0.096350	3.193915	0.000000	0.001125	0.000000	0.006679	0.000189	0.000000	0.000000
20.308129	23.727645	10.868820	-0.289516	0.095665	3.194196	0.000000	0.008992	0.000000	0.006735	0.000206	0.000000	0.000000
20.857189	23.636449	10.984255	0.454676	-0.307126	3.172880	0.000000	-0.086328	0.000000	0.006788	-0.000013	0.000000	0.000000
21.406249	22.740759	11.551392	1.166743	-0.731796	3.099683	0.000000	-0.180116	0.000000	0.006721	-0.000232	0.000000	0.000000
21.955309	21.103870	12.610632	1.796368	-1.208599	2.975901	0.000000	-0.270713	0.000000	0.006534	-0.000447	0.000000	0.000000
22.504369	18.841459	14.237432	2.299062	-1.771503	2.803729	0.000000	-0.356514	0.000000	0.006232	-0.000654	0.000000	0.000000
22.950329	17.059864	15.698607	1.709372	-1.490866	2.662265	0.000000	-0.279304	0.000000	0.005976	-0.000495	0.000000	0.000000
23.391289	15.780443	16.864721	1.202640	-1.143339	2.555591	0.000000	-0.205747	0.000000	0.005791	-0.000343	0.000000	0.000000
23.832249	14.922158	17.700114	0.750870	-0.743783	2.480747	0.000000	-0.134529	0.000000	0.005672	-0.000196	0.000000	0.000000
24.273209	14.445777	18.166772	0.333416	-0.310381	2.436880	0.000000	-0.064842	0.000000	0.005618	-0.000050	0.000000	0.000000
24.715418	14.329631	18.243206	-0.035646	0.094729	2.423490	0.000000	-0.001515	0.000000	0.005628	0.000081	0.000000	0.000000
25.012741	14.357005	18.191765	-0.056421	0.078285	2.423016	0.000000	-0.001515	0.000000	0.005652	0.000081	0.000000	0.000000
25.346075	14.402383	18.145720	-0.079712	0.059850	2.422483	0.000000	-0.001515	0.000000	0.005679	0.000081	0.000000	0.000000
25.679408	14.463288	18.111965	-0.103004	0.041414	2.421951	0.000000	-0.001515	0.000000	0.005706	0.000081	0.000000	0.000000
26.013991	14.539742	18.090810	-0.008427	-0.123852	2.421393	0.000000	-0.021159	0.000000	0.005734	0.000035	0.000000	0.000000
26.311314	14.550819	18.169438	0.004839	-0.182634	2.415090	0.000000	-0.026755	0.000000	0.005744	0.000021	0.000000	0.000000
26.752274	14.726190	18.133606	-0.403979	0.263576	2.418374	0.000000	0.041848	0.000000	0.005786	0.000170	0.000000	0.000000
27.193234	15.268913	17.708027	-0.831259	0.697792	2.451924	0.000000	0.110925	0.000000	0.005894	0.000320	0.000000	0.000000
27.634194	16.203795	16.912063	-1.296530	1.100254	2.516121	0.000000	0.181263	0.000000	0.006069	0.000475	0.000000	0.000000
28.075154	17.573568	15.781934	-1.821057	1.452649	2.611695	0.000000	0.253660	0.000000	0.006313	0.000634	0.000000	0.000000
28.521114	19.464747	14.351977	-2.433871	1.739970	2.741346	0.000000	0.329406	0.000000	0.006633	0.000802	0.000000	0.000000
29.070174	21.869137	12.759205	-1.918465	1.177778	2.899156	0.000000	0.245858	0.000000	0.007014	0.000581	0.000000	0.000000
29.619234	23.629187	11.734416	-1.267495	0.699491	3.009945	0.000000	0.157957	0.000000	0.007270	0.000350	0.000000	0.000000
30.168294	24.620511	11.204610	-0.526959	0.271037	3.071750	0.000000	0.067260	0.000000	0.007397	0.000112	0.000000	0.000000
30.717354	24.773048	11.132045	0.250813	-0.138108	3.083476	0.000000	-0.024628	0.000000	0.007392	-0.000128	0.000000	0.000000
31.015927	24.663175	11.206356	0.177686	-0.137989	3.078406	0.000000	-0.017081	0.000000	0.007360	-0.000109	0.000000	0.000000
31.349260	24.549366	11.308453	0.163744	-0.168301	3.072749	0.000000	-0.017081	0.000000	0.007323	-0.000109	0.000000	0.000000
31.682593	24.444851	11.430757	0.149802	-0.198612	3.067092	0.000000	-0.017081	0.000000	0.007287	-0.000109	0.000000	0.000000
32.017177	24.349291	11.573841	0.135807	-0.229037	3.061413	0.000000	-0.017081	0.000000	0.007251	-0.000109	0.000000	0.000000
32.314499	24.272268	11.718058	0.063861	-0.227360	3.056370	0.000000	-0.009587	0.000000	0.007218	-0.000091	0.000000	0.000000
32.863559	23.786535	12.206635	0.815331	-0.667645	3.026264	0.000000	-0.100299	0.000000	0.007105	-0.000323	0.000000	0.000000
33.412619	22.502347	13.201871	1.509184	-1.155493	2.946882	0.000000	-0.189237	0.000000	0.006865	-0.000549	0.000000	0.000000
33.961679	20.510462	14.774662	2.096393	-1.725658	2.819630	0.000000	-0.274826	0.000000	0.006503	-0.000766	0.000000	0.000000
34.510739	17.951650	17.037043	2.535465	-2.418757	2.646760	0.000000	-0.355552	0.000000	0.006027	-0.000969	0.000000	0.000000
34.956699	15.963193	19.060856	1.938531	-2.100039	2.504956	0.000000	-0.282423	0.000000	0.005629	-0.000817	0.000000	0.000000
35.397659	14.480845	20.737133	1.435272	-1.686623	2.396149	0.000000	-0.212950	0.000000	0.005299	-0.000677	0.000000	0.000000
35.838619	13.411912	22.013408	0.997608	-1.196458	2.317359	0.000000	-0.145895	0.000000	0.005031	-0.000543	0.000000	0.000000
36.279579	12.707534	22.831609	0.605535	-0.651849	2.267693	0.000000	-0.080497	0.000000	0.004819	-0.000416	0.000000	0.000000
36.721789	12.334848	23.154823	0.269929	-0.131786	2.246559	0.000000	-0.021275	0.000000	0.004662	-0.000305	0.000000	0.000000
37.019112	12.182025	23.237073	0.244068	-0.144849	2.240324	0.000000	-0.021275	0.000000	0.004571	-0.000305	0.000000	0.000000
37.352445	12.028977	23.338521	0.215076	-0.159495	2.233335	0.000000	-0.021275	0.000000	0.004470	-0.000305	0.000000	0.000000
37.685779	11.895258	23.449733	0.186083	-0.174141	2.226345	0.000000	-0.021275	0.000000	0.004368	-0.000305	0.000000	0.000000
38.020362	11.780474	23.571181	0.156981	-0.188842	2.219329	0.000000	-0.021275	0.000000	0.004266	-0.000305	0.000000	0.000000
38.317684	11.694809	23.687372	0.158656	-0.257782	2.213094	0.000000	-0.026485	0.000000	0.004175	-0.000315	0.000000	0.000000
38.758644	11.704488	23.652251	-0.180775	0.337119	2.215498	0.000000	0.036895	0.000000	0.004059	-0.000209	0.000000	0.000000
39.199604	12.016047	23.097233	-0.528465	0.916678	2.245875	0.000000	0.100697	0.000000	0.003990	-0.000106	0.000000	0.000000
39.640564	12.643722	22.047573	-0.900302	1.454525	2.304569	0.000000	0.165648	0.000000	0.003966	-0.000003	0.000000	0.000000
40.081524	13.616196	20.551036	-1.313279	1.926184	2.392251	0.000000	0.232486	0.000000	0.003987	0.000100	0.000000	0.000000
40.527484	14.995441	18.653049	-1.790150	2.311590	2.511399	0.000000	0.302390	0.000000	0.004055	0.000204	0.000000	0.000000
41.076544	16.757361	16.519782	-1.399578	1.596424	2.656746	0.000000	0.226504	0.000000	0.004131	0.000071	0.000000	0.000000
41.625604	18.033159	15.105211	-0.910129	0.994981	2.759329	0.000000	0.146600	0.000000	0.004133	-0.000063	0.000000	0.000000
42.174664	18.732695	14.308570	-0.356383	0.464417	2.817328	0.000000	0.064095	0.000000	0.004062	-0.000195	0.000000	0.000000
42.723724	18.806549	14.073107	0.222537	-0.033063	2.829713	0.000000	-0.019550	0.000000	0.003919	-0.000325	0.000000	0.000000
43.022297	18.706907	14.077923	0.158668	-0.018662	2.826104	0.000000	-0.012402	0.000000	0.003825	-0.000315	0.000000	0.000000
43.502297	18.567212	14.112211	0.132363	-0.052770	2.820302	0.000000	-0.012402	0.000000	0.003674	-0.000315	0.000000	0.000000
43.982297	18.452769	14.179242	0.106058	-0.086878	2.814500	0.000000	-0.012402	0.000000	0.003523	-0.000315	0.000000	0.000000
44.462297	18.363580	14.279016	0.079753	-0.120986	2.808698	0.000000	-0.012402	0.000000	0.003372	-0.000315	0.000000	0.000000
44.942297	18.299643	14.411535	0.053448	-0.155094	2.802897	0.000000	-0.012402	0.000000	0.003221	-0.000315	0.000000	0.000000
45.423547	18.261117	14.577089	-0.063401	-0.117066	2.797097	0.000000	0.001457	0.000000	0.003069	-0.000299	0.000000	0.000000
45.720870	18.303684	14.652845	-0.126369	-0.100482	2.797620	0.000000	0.008582	0.000000	0.002980	-0.000292	0.000000	0.000000
46.269930	18.134097	15.046348	0.433217	-0.620402	2.779831	0.000000	-0.073933	0.000000	0.002794	-0.000385	0.000000	0.000000
46.818990	17.363221	16.031577	0.962192	-1.184514	2.717074	0.000000	-0.155142	0.000000	0.002559	-0.000472	0.000000	0.000000
47.368050	16.045524	17.678707	1.423187	-1.833000	2.610461	0.000000	-0.233608	0.000000	0.002277	-0.000550	0.000000	0.000000
47.917110	14.274105	20.105058	1.783636	-2.612051	2.461876	0.000000	-0.307939	0.000000	0.001956	-0.000619	0.000000	0.000000
48.363070	12.894794	22.261895	1.319918	-2.203907	2.340155	0.000000	-0.239364	0.000000	0.001691	-0.000572	0.000000	0.000000
48.804030	11.910573	23.988570	0.920300	-1.696821	2.249355	0.000000	-0.173914	0.000000	0.001448	-0.000531	0.000000	0.000000
49.244990	11.258999	25.232138	0.562734	-1.112530	2.186938	0.000000	-0.110440	0.000000	0.001221	-0.000497	0.000000	0.000000
49.685950	10.910296	25.936020	0.230882	-0.477620	2.152196	0.000000	-0.048218	0.000000	0.001009	-0.000468	0.000000	0.000000
50.128160	10.848688	26.067906	-0.064133	0.115699	2.144745	0.000000	0.008240	0.000000	0.000807	-0.000447	0.000000	0.000000
50.425482	10.895007	26.002542	-0.091652	0.104141	2.147328	0.000000	0.008240	0.000000	0.000674	-0.000447	0.000000	0.000000
50.758816	10.966392	25.937434	-0.122504	0.091183	2.150223	0.000000	0.008240	0.000000	0.000525	-0.000447	0.000000	0.000000
51.092149	11.058345	25.880965	-0.153356	0.078225	2.153119	0.000000	0.008240	0.000000	0.000377	-0.000447	0.000000	0.000000
51.426732	11.171101	25.833495	-0.093696	-0.144356	2.156003	0.000000	-0.009251	0.000000	0.000227	-0.000448	0.000000	0.000000
51.724055	11.234800	25.922829	-0.093019	-0.219785	2.153386	0.000000	-0.014527	0.000000	0.000094	-0.000449	0.000000	0.000000
52.165015	11.463239	25.828156	-0.427142	0.433667	2.160813	0.000000	0.047372	0.000000	-0.000104	-0.000449	0.000000	0.000000
52.605975	11.993802	25.163725	-0.780776	1.067386	2.195629	0.000000	0.109816	0.000000	-0.000303	-0.000454	0.000000	0.000000
53.046935	12.850723	23.959773	-1.170078	1.652538	2.258234	0.000000	0.173514	0.000000	-0.000505	-0.000465	0.000000	0.000000
53.487895	14.073148	22.271082	-1.612833	2.162501	2.349341	0.000000	0.239194	0.000000	-0.000713	-0.000480	0.000000	0.000000
53.933855	15.737831	20.149254	-2.133535	2.575395	2.471502	0.000000	0.308001	0.000000	-0.000932	-0.000502	0.000000	0.000000
54.482915	17.880701	17.761390	-1.746451	1.799345	2.620596	0.000000	0.233360	0.000000	-0.001198	-0.000467	0.000000	0.000000
55.031975	19.527845	16.150760	-1.236021	1.151457	2.727486	0.000000	0.154572	0.000000	-0.001443	-0.000424	0.000000	0.000000
55.581035	20.562938	15.202638	-0.638299	0.585583	2.790273	0.000000	0.073036	0.000000	-0.001663	-0.000374	0.000000	0.000000
56.130095	20.912883	14.849489	0.004498	0.061419	2.807841	0.000000	-0.009802	0.000000	-0.001853	-0.000317	0.000000	0.000000
56.428668	20.947602	14.795313	-0.065302	0.080573	2.807234	0.000000	-0.002352	0.000000	-0.001949	-0.000322	0.000000	0.000000
56.762001	20.996463	14.749156	-0.081282	0.057897	2.806558	0.000000	-0.002352	0.000000	-0.002056	-0.000322	0.000000	0.000000
57.095334	21.055978	14.718117	-0.097263	0.035221	2.805881	0.000000	-0.002352	0.000000	-0.002163	-0.000322	0.000000	0.000000
57.429918	21.126430	14.702163	-0.113304	0.012460	2.805202	0.000000	-0.002352	0.000000	-0.002271	-0.000322	0.000000	0.000000
57.727240	21.198047	14.700765	-0.184035	0.031333	2.804598	0.000000	0.005120	0.000000	-0.002367	-0.000328	0.000000	0.000000
58.276300	21.037975	14.948356	0.473685	-0.484946	2.784831	0.000000	-0.077575	0.000000	-0.002525	-0.000249	0.000000	0.000000
58.825360	20.169882	15.778387	1.097945	-1.035763	2.719928	0.000000	-0.158899	0.000000	-0.002639	-0.000165	0.000000	0.000000
59.374420	18.655083	17.249972	1.644657	-1.660349	2.611038	0.000000	-0.237407	0.000000	-0.002706	-0.000079	0.000000	0.000000
59.923480	16.600561	19.467920	2.075211	-2.403188	2.460092	0.000000	-0.311706	0.000000	-0.002725	0.000009	0.000000	0.000000
60.369440	14.991588	21.439097	1.545526	-1.998336	2.336433	0.000000	-0.243225	0.000000	-0.002737	-0.000061	0.000000	0.000000
60.810400	13.833563	22.989276	1.090645	-1.503890	2.243716	0.000000	-0.177902	0.000000	-0.002780	-0.000133	0.000000	0.000000
61.251360	13.053278	24.071460	0.685588	-0.941024	2.179360	0.000000	-0.114605	0.000000	-0.002854	-0.000205	0.000000	0.000000
61.692320	12.615089	24.636414	0.311851	-0.335346	2.142633	0.000000	-0.052610	0.000000	-0.002961	-0.000280	0.000000	0.000000
62.134530	12.499021	24.657873	-0.016195	0.223433	2.133121	0.000000	0.003405	0.000000	-0.003102	-0.000351	0.000000	0.000000
62.431853	12.515725	24.528774	-0.039989	0.210773	2.134238	0.000000	0.003405	0.000000	-0.003206	-0.000351	0.000000	0.000000
62.765186	12.551276	24.392990	-0.066664	0.196580	2.135490	0.000000	0.003405	0.000000	-0.003323	-0.000351	0.000000	0.000000
63.098520	12.604611	24.266668	-0.093340	0.182386	2.136741	0.000000	0.003405	0.000000	-0.003440	-0.000351	0.000000	0.000000
63.433103	12.676030	24.149387	-0.120116	0.168140	2.137998	0.000000	0.003405	0.000000	-0.003557	-0.000351	0.000000	0.000000
63.730426	12.754526	24.053177	-0.111560	0.094354	2.139114	0.000000	-0.002021	0.000000	-0.003661	-0.000341	0.000000	0.000000
64.171386	13.014740	23.705154	-0.480961	0.691925	2.151957	0.000000	0.059574	0.000000	-0.003833	-0.000438	0.000000	0.000000
64.612346	13.609117	22.842073	-0.872328	1.258015	2.192126	0.000000	0.121852	0.000000	-0.004048	-0.000540	0.000000	0.000000
65.053306	14.564800	21.503204	-1.303538	1.766871	2.260080	0.000000	0.185523	0.000000	-0.004310	-0.000647	0.000000	0.000000
65.494266	15.925434	19.749463	-1.794286	2.195345	2.356597	0.000000	0.251314	0.000000	-0.004620	-0.000762	0.000000	0.000000
65.940226	17.776407	17.635836	-2.371582	2.524581	2.484351	0.000000	0.320362	0.000000	-0.004987	-0.000887	0.000000	0.000000
66.489286	20.147335	15.271708	-1.921771	1.806925	2.640259	0.000000	0.245204	0.000000	-0.005429	-0.000718	0.000000	0.000000
67.038346	21.946489	13.620743	-1.336262	1.217957	2.753550	0.000000	0.165687	0.000000	-0.005774	-0.000537	0.000000	0.000000
67.587406	23.046845	12.565351	-0.656401	0.715729	2.822211	0.000000	0.083222	0.000000	-0.006016	-0.000346	0.000000	0.000000
68.136466	23.370720	12.030366	0.069805	0.264473	2.845021	0.000000	-0.000725	0.000000	-0.006152	-0.000149	0.000000	0.000000
68.435038	23.371138	11.860779	-0.007131	0.270510	2.847185	0.000000	0.007086	0.000000	-0.006202	-0.000165	0.000000	0.000000
68.768372	23.380646	11.690492	-0.021395	0.240350	2.849602	0.000000	0.007086	0.000000	-0.006257	-0.000165	0.000000	0.000000
69.101705	23.399664	11.540312	-0.035658	0.210190	2.852019	0.000000	0.007086	0.000000	-0.006312	-0.000165	0.000000	0.000000
69.436288	23.428315	11.409790	-0.049975	0.179916	2.854445	0.000000	0.007086	0.000000	-0.006367	-0.000165	0.000000	0.000000
69.733611	23.461843	11.310788	-0.127237	0.184100	2.856602	0.000000	0.014944	0.000000	-0.006416	-0.000182	0.000000	0.000000
70.282671	23.198659	11.335338	0.603729	-0.229081	2.841645	0.000000	-0.069504	0.000000	-0.006459	0.000026	0.000000	0.000000
