#ParticleID	Turn	x[m]	xp	y[m]	yp	z[m]	dE[GeV]# s	beta_x	beta_y	alpha_x	alpha_y	D_x	D_y	D_px	D_py	orbit_x	orbit_px	orbit_y	orbit_py
0.300000	11.961053	25.275680	-0.017081	-0.023178	2.599108	0.000000	-0.000553	0.000000	-0.001123	0.000960	0.000000	0.000000
0.601250	11.978933	25.293238	-0.042274	-0.035103	2.598653	0.000000	-0.000553	0.000000	-0.000834	0.000960	0.000000	0.000000
0.898573	12.011464	25.317611	-0.037531	-0.108932	2.598203	0.000000	-0.006958	0.000000	-0.000549	0.000961	0.000000	0.000000
1.339533	12.198423	25.132712	-0.387731	0.526649	2.610907	0.000000	0.066475	0.000000	-0.000127	0.000953	0.000000	0.000000
1.780493	12.700855	24.395742	-0.755654	1.138273	2.656128	0.000000	0.140656	0.000000	0.000293	0.000955	0.000000	0.000000
2.221453	13.541723	23.140224	-1.158108	1.698108	2.734376	0.000000	0.216428	0.000000	0.000717	0.000968	0.000000	0.000000
2.662413	14.759457	21.423275	-1.613483	2.180683	2.846540	0.000000	0.294655	0.000000	0.001148	0.000992	0.000000	0.000000
3.108373	16.430745	19.297844	-2.146957	2.565216	2.995733	0.000000	0.376719	0.000000	0.001598	0.001028	0.000000	0.000000
3.657433	18.573004	16.910291	-1.731019	1.808771	3.177022	0.000000	0.284559	0.000000	0.002147	0.000967	0.000000	0.000000
4.206493	20.188246	15.278214	-1.192779	1.181165	3.306288	0.000000	0.187367	0.000000	0.002657	0.000889	0.000000	0.000000
4.755553	21.162342	14.285372	-0.570260	0.637692	3.381245	0.000000	0.086866	0.000000	0.003120	0.000795	0.000000	0.000000
5.304613	21.426452	13.861054	0.092562	0.139641	3.400571	0.000000	-0.015164	0.000000	0.003528	0.000688	0.000000	0.000000
5.603185	21.407771	13.763401	0.024292	0.152443	3.398409	0.000000	-0.006544	0.000000	0.003736	0.000697	0.000000	0.000000
5.936519	21.396770	13.670033	0.008712	0.127661	3.395995	0.000000	-0.006544	0.000000	0.003968	0.000697	0.000000	0.000000
6.269852	21.396155	13.593187	-0.006867	0.102879	3.393581	0.000000	-0.006544	0.000000	0.004200	0.000697	0.000000	0.000000
6.604435	21.405982	13.532666	-0.022506	0.078005	3.391159	0.000000	-0.006544	0.000000	0.004433	0.000697	0.000000	0.000000
6.901758	21.423511	13.492844	-0.090173	0.089905	3.389007	0.000000	0.001962	0.000000	0.004641	0.000709	0.000000	0.000000
7.450818	21.157293	13.655902	0.572514	-0.388613	3.361839	0.000000	-0.099570	0.000000	0.004987	0.000553	0.000000	0.000000
7.999878	20.181253	14.356497	1.194765	-0.894816	3.279410	0.000000	-0.199326	0.000000	0.005246	0.000387	0.000000	0.000000
8.548938	18.564342	15.644544	1.732613	-1.464767	3.143185	0.000000	-0.295541	0.000000	0.005411	0.000214	0.000000	0.000000
9.097998	16.420801	17.611806	2.148053	-2.139067	2.955585	0.000000	-0.386509	0.000000	0.005480	0.000038	0.000000	0.000000
9.543958	14.748691	19.364485	1.614512	-1.774142	2.801303	0.000000	-0.305527	0.000000	0.005529	0.000181	0.000000	0.000000
9.984918	13.530163	20.738562	1.159207	-1.329855	2.683551	0.000000	-0.228526	0.000000	0.005640	0.000325	0.000000	0.000000
10.425878	12.688438	21.692498	0.756874	-0.825051	2.599087	0.000000	-0.154133	0.000000	0.005816	0.000472	0.000000	0.000000
10.866838	12.185051	22.182879	0.389125	-0.282699	2.546947	0.000000	-0.081500	0.000000	0.006058	0.000625	0.000000	0.000000
11.309048	11.996848	22.186806	0.066670	0.221135	2.526516	0.000000	-0.015619	0.000000	0.006369	0.000770	0.000000	0.000000
11.606371	11.964604	22.059489	0.041777	0.207079	2.521643	0.000000	-0.015619	0.000000	0.006598	0.000770	0.000000	0.000000
12.086371	11.943789	21.871585	0.001588	0.184387	2.513776	0.000000	-0.015619	0.000000	0.006968	0.000770	0.000000	0.000000
12.566371	11.961555	21.705466	-0.038600	0.161694	2.505909	0.000000	-0.015619	0.000000	0.007338	0.000770	0.000000	0.000000
13.046371	12.017901	21.561132	-0.078788	0.139002	2.498042	0.000000	-0.015619	0.000000	0.007708	0.000770	0.000000	0.000000
13.526371	12.112829	21.438583	-0.118977	0.116309	2.490175	0.000000	-0.015619	0.000000	0.008077	0.000770	0.000000	0.000000
14.007621	12.246735	21.337584	-0.159270	0.093558	2.482288	0.000000	-0.015619	0.000000	0.008448	0.000770	0.000000	0.000000
14.304943	12.348818	21.286177	-0.156424	0.031905	2.477412	0.000000	-0.021184	0.000000	0.008677	0.000750	0.000000	0.000000
14.745903	12.645270	21.025174	-0.518021	0.557665	2.483187	0.000000	0.049063	0.000000	0.009058	0.000979	0.000000	0.000000
15.186863	13.269910	20.309892	-0.903303	1.058047	2.519934	0.000000	0.119859	0.000000	0.009542	0.001218	0.000000	0.000000
15.627823	14.251304	19.172875	-1.329881	1.510280	2.588068	0.000000	0.192007	0.000000	0.010135	0.001472	0.000000	0.000000
16.068783	15.634332	17.665858	-1.817258	1.893780	2.688361	0.000000	0.266327	0.000000	0.010843	0.001742	0.000000	0.000000
16.514743	17.505891	15.835737	-2.392684	2.192068	2.823636	0.000000	0.344158	0.000000	0.011684	0.002035	0.000000	0.000000
17.063803	19.909173	13.792948	-1.956714	1.549763	2.988200	0.000000	0.257817	0.000000	0.012695	0.001640	0.000000	0.000000
17.612863	21.754303	12.391171	-1.382422	1.017878	3.104247	0.000000	0.166927	0.000000	0.013480	0.001216	0.000000	0.000000
18.161923	22.910813	11.530547	-0.710400	0.558517	3.169728	0.000000	0.073095	0.000000	0.014026	0.000770	0.000000	0.000000
18.710983	23.296921	11.149765	0.011849	0.138951	3.183489	0.000000	-0.022022	0.000000	0.014323	0.000310	0.000000	0.000000
19.009556	23.325360	11.059871	-0.054279	0.136902	3.178975	0.000000	-0.014740	0.000000	0.014426	0.000346	0.000000	0.000000
19.342889	23.366324	10.978838	-0.068612	0.106198	3.173947	0.000000	-0.014740	0.000000	0.014541	0.000346	0.000000	0.000000
19.676223	23.416842	10.918274	-0.082945	0.075494	3.168919	0.000000	-0.014740	0.000000	0.014657	0.000346	0.000000	0.000000
20.010806	23.477450	10.877933	-0.213651	0.098571	3.163891	0.000000	0.000936	0.000000	0.014772	0.000419	0.000000	0.000000
20.308129	23.608588	10.827453	-0.280569	0.095665	3.164055	0.000000	0.008130	0.000000	0.014897	0.000455	0.000000	0.000000
20.857189	23.509726	10.942297	0.459667	-0.306020	3.142465	0.000000	-0.086232	0.000000	0.015014	-0.000029	0.000000	0.000000
21.406249	22.610748	11.507650	1.167413	-0.729512	3.069654	0.000000	-0.179064	0.000000	0.014865	-0.000514	0.000000	0.000000
21.955309	20.975217	12.563791	1.792635	-1.204986	2.946910	0.000000	-0.268727	0.000000	0.014451	-0.000989	0.000000	0.000000
22.504369	18.718781	14.185967	2.291135	-1.766319	2.776409	0.000000	-0.353638	0.000000	0.013782	-0.001446	0.000000	0.000000
22.950329	16.942584	15.643242	1.704109	-1.486820	2.636354	0.000000	-0.277082	0.000000	0.013215	-0.001096	0.000000	0.000000
23.391289	15.666410	16.806540	1.199982	-1.140751	2.530723	0.000000	-0.204166	0.000000	0.012806	-0.000760	0.000000	0.000000
23.832249	14.809213	17.640418	0.750717	-0.742761	2.456571	0.000000	-0.133568	0.000000	0.012543	-0.000434	0.000000	0.000000
24.273209	14.331792	18.106928	0.335772	-0.310965	2.413053	0.000000	-0.064487	0.000000	0.012423	-0.000112	0.000000	0.000000
24.715418	14.212461	18.184517	-0.033291	0.095685	2.399679	0.000000	-0.001310	0.000000	0.012445	0.000180	0.000000	0.000000
25.012741	14.238484	18.132524	-0.054234	0.079185	2.399236	0.000000	-0.001310	0.000000	0.012498	0.000180	0.000000	0.000000
25.346075	14.282467	18.085900	-0.077714	0.060686	2.398740	0.000000	-0.001310	0.000000	0.012558	0.000180	0.000000	0.000000
25.679408	14.342102	18.051609	-0.101193	0.042188	2.398243	0.000000	-0.001310	0.000000	0.012618	0.000180	0.000000	0.000000
26.013991	14.417410	18.029956	-0.007797	-0.122648	2.397720	0.000000	-0.020762	0.000000	0.012679	0.000077	0.000000	0.000000
26.311314	14.428111	18.107950	0.002571	-0.178270	2.391518	0.000000	-0.025899	0.000000	0.012702	0.000048	0.000000	0.000000
26.752274	14.604283	18.068996	-0.403446	0.266258	2.395000	0.000000	0.042111	0.000000	0.012795	0.000377	0.000000	0.000000
27.193234	15.145410	17.641797	-0.827909	0.698668	2.428412	0.000000	0.110596	0.000000	0.013035	0.000710	0.000000	0.000000
27.634194	16.076239	16.845794	-1.290225	1.099280	2.492134	0.000000	0.180335	0.000000	0.013423	0.001051	0.000000	0.000000
28.075154	17.439345	15.717209	-1.811533	1.449858	2.586888	0.000000	0.252116	0.000000	0.013963	0.001404	0.000000	0.000000
28.521114	19.321080	14.290189	-2.420885	1.735637	2.715363	0.000000	0.327241	0.000000	0.014672	0.001776	0.000000	0.000000
29.070174	21.714207	12.701026	-1.910040	1.175157	2.871789	0.000000	0.244534	0.000000	0.015514	0.001286	0.000000	0.000000
29.619234	23.468186	11.678131	-1.264162	0.698414	2.981806	0.000000	0.157509	0.000000	0.016081	0.000774	0.000000	0.000000
30.168294	24.458980	11.148628	-0.528909	0.271437	3.043469	0.000000	0.067702	0.000000	0.016362	0.000249	0.000000	0.000000
30.717354	24.616521	11.074793	0.243734	-0.136198	3.055688	0.000000	-0.023303	0.000000	0.016353	-0.000281	0.000000	0.000000
31.015927	24.507448	11.149522	0.176055	-0.138647	3.050833	0.000000	-0.016461	0.000000	0.016281	-0.000242	0.000000	0.000000
31.349260	24.394752	11.252111	0.162032	-0.169118	3.045426	0.000000	-0.016461	0.000000	0.016200	-0.000242	0.000000	0.000000
31.682593	24.291405	11.375013	0.148009	-0.199589	3.040020	0.000000	-0.016461	0.000000	0.016120	-0.000242	0.000000	0.000000
32.017177	24.197072	11.518805	0.133933	-0.230175	3.034593	0.000000	-0.016461	0.000000	0.016039	-0.000242	0.000000	0.000000
32.314499	24.121328	11.663671	0.067188	-0.231164	3.029782	0.000000	-0.009649	0.000000	0.015967	-0.000203	0.000000	0.000000
32.863559	23.634477	12.155770	0.813746	-0.670182	3.000000	0.000000	-0.099528	0.000000	0.015714	-0.000716	0.000000	0.000000
33.412619	22.354357	13.153310	1.502769	-1.156955	2.921537	0.000000	-0.187653	0.000000	0.015183	-0.001217	0.000000	0.000000
33.961679	20.371500	14.727358	2.085547	-1.726166	2.795776	0.000000	-0.272468	0.000000	0.014382	-0.001696	0.000000	0.000000
34.510739	17.826125	16.990051	2.520886	-2.418371	2.624939	0.000000	-0.352475	0.000000	0.013326	-0.002145	0.000000	0.000000
34.956699	15.848628	19.014443	1.927223	-2.101071	2.484834	0.000000	-0.279858	0.000000	0.012444	-0.001811	0.000000	0.000000
35.397659	14.374624	20.692472	1.426875	-1.689185	2.377424	0.000000	-0.210876	0.000000	0.011715	-0.001499	0.000000	0.000000
35.838619	13.311723	21.971751	0.991764	-1.200421	2.299756	0.000000	-0.144280	0.000000	0.011119	-0.001205	0.000000	0.000000
36.279579	12.611313	22.794069	0.601995	-0.657026	2.250951	0.000000	-0.079314	0.000000	0.010650	-0.000924	0.000000	0.000000
36.721789	12.240733	23.122274	0.266655	-0.134604	2.230435	0.000000	-0.020165	0.000000	0.010302	-0.000678	0.000000	0.000000
37.019112	12.089903	23.206208	0.240638	-0.147695	2.224641	0.000000	-0.020165	0.000000	0.010100	-0.000678	0.000000	0.000000
37.352445	11.939200	23.309564	0.211471	-0.162373	2.218145	0.000000	-0.020165	0.000000	0.009874	-0.000678	0.000000	0.000000
37.685779	11.807942	23.422705	0.182303	-0.177050	2.211649	0.000000	-0.020165	0.000000	0.009648	-0.000678	0.000000	0.000000
38.020362	11.695747	23.546110	0.153026	-0.191782	2.205129	0.000000	-0.020165	0.000000	0.009421	-0.000678	0.000000	0.000000
38.317684	11.612457	23.664104	0.152946	-0.257957	2.199333	0.000000	-0.025077	0.000000	0.009220	-0.000700	0.000000	0.000000
38.758644	11.626335	23.629390	-0.184727	0.336371	2.202420	0.000000	0.037965	0.000000	0.008963	-0.000465	0.000000	0.000000
39.199604	11.940666	23.075235	-0.530839	0.915388	2.233281	0.000000	0.101445	0.000000	0.008808	-0.000236	0.000000	0.000000
39.640564	12.569817	22.026862	-0.901212	1.452745	2.292270	0.000000	0.166083	0.000000	0.008754	-0.000010	0.000000	0.000000
40.081524	13.542544	20.531982	-1.312774	1.923986	2.380058	0.000000	0.232613	0.000000	0.008800	0.000217	0.000000	0.000000
40.527484	14.920900	18.635889	-1.788307	2.309186	2.499130	0.000000	0.302224	0.000000	0.008948	0.000447	0.000000	0.000000
41.076544	16.682553	16.504778	-1.400634	1.594606	2.644416	0.000000	0.226724	0.000000	0.009113	0.000154	0.000000	0.000000
41.625604	17.961158	15.091836	-0.913987	0.993635	2.747231	0.000000	0.147204	0.000000	0.009117	-0.000141	0.000000	0.000000
42.174664	18.666351	14.296398	-0.362758	0.463457	2.805753	0.000000	0.065070	0.000000	0.008958	-0.000434	0.000000	0.000000
42.723724	18.748302	14.061791	0.214096	-0.033699	2.818938	0.000000	-0.018225	0.000000	0.008641	-0.000719	0.000000	0.000000
43.022297	18.652387	14.067882	0.152363	-0.020766	2.815738	0.000000	-0.011406	0.000000	0.008433	-0.000697	0.000000	0.000000
43.502297	18.518758	14.104202	0.126032	-0.054901	2.810598	0.000000	-0.011406	0.000000	0.008098	-0.000697	0.000000	0.000000
43.982297	18.410406	14.173292	0.099700	-0.089036	2.805458	0.000000	-0.011406	0.000000	0.007763	-0.000697	0.000000	0.000000
44.462297	18.327333	14.275151	0.073369	-0.123171	2.800318	0.000000	-0.011406	0.000000	0.007429	-0.000697	0.000000	0.000000
44.942297	18.269538	14.409779	0.047038	-0.157306	2.795178	0.000000	-0.011406	0.000000	0.007094	-0.000697	0.000000	0.000000
45.423547	18.237195	14.577476	-0.069720	-0.119304	2.790042	0.000000	0.002418	0.000000	0.006758	-0.000664	0.000000	0.000000
45.720870	18.283547	14.654551	-0.131204	-0.103979	2.790960	0.000000	0.009302	0.000000	0.006561	-0.000647	0.000000	0.000000
46.269930	18.119446	15.052016	0.427893	-0.624129	2.773838	0.000000	-0.073017	0.000000	0.006148	-0.000853	0.000000	0.000000
46.818990	17.354338	16.041630	0.956742	-1.188737	2.711905	0.000000	-0.154054	0.000000	0.005627	-0.001044	0.000000	0.000000
47.368050	16.042308	17.693878	1.417977	-1.838026	2.606252	0.000000	-0.232375	0.000000	0.005005	-0.001216	0.000000	0.000000
47.917110	14.276084	20.126442	1.779011	-2.618245	2.458746	0.000000	-0.306594	0.000000	0.004295	-0.001367	0.000000	0.000000
48.363070	12.900570	22.288778	1.315614	-2.209847	2.337916	0.000000	-0.238081	0.000000	0.003709	-0.001263	0.000000	0.000000
48.804030	11.919927	24.020553	0.916162	-1.702297	2.247953	0.000000	-0.172676	0.000000	0.003172	-0.001174	0.000000	0.000000
49.244990	11.271888	25.268680	0.558582	-1.117290	2.186340	0.000000	-0.109225	0.000000	0.002671	-0.001099	0.000000	0.000000
49.685950	10.926831	25.976378	0.226533	-0.481448	2.152381	0.000000	-0.047006	0.000000	0.002201	-0.001036	0.000000	0.000000
50.128160	10.869153	26.111168	-0.069065	0.113650	2.145706	0.000000	0.009514	0.000000	0.001754	-0.000990	0.000000	0.000000
50.425482	10.918394	26.047016	-0.096550	0.102116	2.148829	0.000000	0.009514	0.000000	0.001460	-0.000990	0.000000	0.000000
50.758816	10.993032	25.983249	-0.127364	0.089185	2.152330	0.000000	0.009514	0.000000	0.001130	-0.000990	0.000000	0.000000
51.092149	11.088214	25.928103	-0.158178	0.076254	2.155831	0.000000	0.009514	0.000000	0.000800	-0.000990	0.000000	0.000000
51.426732	11.204183	25.881944	-0.098213	-0.146692	2.159324	0.000000	-0.008004	0.000000	0.000469	-0.000993	0.000000	0.000000
51.724055	11.270551	25.972663	-0.097412	-0.222384	2.157239	0.000000	-0.013286	0.000000	0.000174	-0.000994	0.000000	0.000000
52.165015	11.503183	25.879690	-0.432470	0.432423	2.165469	0.000000	0.048723	0.000000	-0.000264	-0.000995	0.000000	0.000000
52.605975	12.038860	25.215740	-0.787279	1.067550	2.201144	0.000000	0.111297	0.000000	-0.000706	-0.001008	0.000000	0.000000
53.046935	12.902046	24.011032	-1.178048	1.654102	2.264673	0.000000	0.175150	0.000000	-0.001155	-0.001032	0.000000	0.000000
53.487895	14.132165	22.320387	-1.622627	2.165392	2.356785	0.000000	0.241008	0.000000	-0.001617	-0.001067	0.000000	0.000000
53.933855	15.806431	20.195459	-2.145589	2.579463	2.480057	0.000000	0.310018	0.000000	-0.002103	-0.001115	0.000000	0.000000
54.482915	17.961504	17.803987	-1.756849	1.801968	2.630490	0.000000	0.235082	0.000000	-0.002695	-0.001038	0.000000	0.000000
55.031975	19.618625	16.191218	-1.244048	1.152820	2.738521	0.000000	0.155960	0.000000	-0.003239	-0.000942	0.000000	0.000000
55.581035	20.660787	15.242268	-0.643404	0.585782	2.802225	0.000000	0.074057	0.000000	-0.003726	-0.000829	0.000000	0.000000
56.130095	21.014415	14.889540	0.002662	0.060468	2.820467	0.000000	-0.009174	0.000000	-0.004147	-0.000701	0.000000	0.000000
56.428668	21.050985	14.835370	-0.068383	0.080599	2.820216	0.000000	-0.001551	0.000000	-0.004359	-0.000712	0.000000	0.000000
56.762001	21.101876	14.789175	-0.084291	0.057985	2.819937	0.000000	-0.001551	0.000000	-0.004597	-0.000712	0.000000	0.000000
57.095334	21.163373	14.758057	-0.100200	0.035370	2.819657	0.000000	-0.001551	0.000000	-0.004834	-0.000712	0.000000	0.000000
57.429918	21.235767	14.741984	-0.116168	0.012670	2.819377	0.000000	-0.001551	0.000000	-0.005073	-0.000712	0.000000	0.000000
57.727240	21.309082	14.740435	-0.188463	0.032543	2.819129	0.000000	0.006136	0.000000	-0.005284	-0.000726	0.000000	0.000000
58.276300	21.151722	14.987310	0.473000	-0.484865	2.799976	0.000000	-0.077032	0.000000	-0.005635	-0.000549	0.000000	0.000000
58.825360	20.282251	15.817826	1.101049	-1.036801	2.735372	0.000000	-0.158844	0.000000	-0.005886	-0.000363	0.000000	0.000000
59.374420	18.762076	17.291123	1.651337	-1.662572	2.626459	0.000000	-0.237844	0.000000	-0.006032	-0.000170	0.000000	0.000000
59.923480	16.698542	19.512120	2.085010	-2.406743	2.475166	0.000000	-0.312629	0.000000	-0.006072	0.000026	0.000000	0.000000
60.369440	15.081986	21.485964	1.552843	-2.000817	2.351191	0.000000	-0.243778	0.000000	-0.006095	-0.000131	0.000000	0.000000
60.810400	13.918538	23.037708	1.095751	-1.505115	2.258366	0.000000	-0.178082	0.000000	-0.006188	-0.000290	0.000000	0.000000
61.251360	13.134642	24.120345	0.688711	-0.940945	2.194102	0.000000	-0.114412	0.000000	-0.006351	-0.000451	0.000000	0.000000
61.692320	12.694493	24.684628	0.313131	-0.333972	2.157669	0.000000	-0.052040	0.000000	-0.006587	-0.000618	0.000000	0.000000
62.134530	12.578041	24.704296	-0.015420	0.223958	2.148662	0.000000	0.004140	0.000000	-0.006898	-0.000775	0.000000	0.000000
62.431853	12.594240	24.574879	-0.039063	0.211319	2.150123	0.000000	0.004140	0.000000	-0.007129	-0.000775	0.000000	0.000000
62.765186	12.629118	24.438723	-0.065571	0.197149	2.151761	0.000000	0.004140	0.000000	-0.007387	-0.000775	0.000000	0.000000
63.098520	12.681668	24.312013	-0.092079	0.182979	2.153399	0.000000	0.004140	0.000000	-0.007645	-0.000775	0.000000	0.000000
63.433103	12.752186	24.194328	-0.118685	0.168757	2.155044	0.000000	0.004140	0.000000	-0.007904	-0.000775	0.000000	0.000000
63.730426	12.829767	24.097782	-0.108501	0.092311	2.156503	0.000000	-0.001546	0.000000	-0.008134	-0.000754	0.000000	0.000000
64.171386	13.087906	23.751061	-0.479510	0.691077	2.169853	0.000000	0.060496	0.000000	-0.008514	-0.000968	0.000000	0.000000
64.612346	13.681543	22.888243	-0.872410	1.258403	2.210780	0.000000	0.123238	0.000000	-0.008990	-0.001194	0.000000	0.000000
65.053306	14.637772	21.548586	-1.305143	1.768484	2.279754	0.000000	0.187395	0.000000	-0.009568	-0.001433	0.000000	0.000000
65.494266	16.000243	19.793040	-1.797467	2.198117	2.377565	0.000000	0.253702	0.000000	-0.010256	-0.001689	0.000000	0.000000
65.940226	17.854521	17.676550	-2.376314	2.528293	2.506933	0.000000	0.323283	0.000000	-0.011070	-0.001965	0.000000	0.000000
66.489286	20.228651	15.309230	-1.923749	1.809446	2.664746	0.000000	0.247380	0.000000	-0.012047	-0.001591	0.000000	0.000000
67.038346	22.027994	13.656235	-1.335403	1.219445	2.779406	0.000000	0.167065	0.000000	-0.012811	-0.001188	0.000000	0.000000
67.587406	23.125587	12.599840	-0.652809	0.716276	2.848872	0.000000	0.083768	0.000000	-0.013348	-0.000764	0.000000	0.000000
68.136466	23.443993	12.064810	0.075853	0.264110	2.871905	0.000000	-0.001026	0.000000	-0.013648	-0.000327	0.000000	0.000000
68.435038	23.442984	11.894282	-0.004893	0.272200	2.874187	0.000000	0.007305	0.000000	-0.013757	-0.000365	0.000000	0.000000
68.768372	23.450985	11.722849	-0.019112	0.242099	2.876743	0.000000	0.007305	0.000000	-0.013878	-0.000365	0.000000	0.000000
69.101705	23.468466	11.571483	-0.033331	0.211998	2.879300	0.000000	0.007305	0.000000	-0.014000	-0.000365	0.000000	0.000000
69.436288	23.495546	11.439730	-0.047604	0.181784	2.881866	0.000000	0.007305	0.000000	-0.014122	-0.000365	0.000000	0.000000
69.733611	23.527764	11.339548	-0.128810	0.187900	2.884155	0.000000	0.015705	0.000000	-0.014230	-0.000404	0.000000	0.000000
70.282671	23.265176	11.360329	0.604211	-0.225978	2.869427	0.000000	-0.069619	0.000000	-0.014325	0.000058	0.000000	0.000000
