#ParticleID	Turn	x[m]	xp	y[m]	yp	z[m]	dE[GeV]# s	beta_x	beta_y	alpha_x	alpha_y	D_x	D_y	D_px	D_py	orbit_x	orbit_px	orbit_y	orbit_py
0.300000	11.948489	25.299700	-0.020074	-0.021908	2.601135	0.000000	0.000620	0.000000	-0.000725	0.000633	0.000000	0.000000
0.601250	11.968183	25.316488	-0.045297	-0.033821	2.601131	0.000000	0.000620	0.000000	-0.000535	0.000633	0.000000	0.000000
0.898573	12.002520	25.340096	-0.040661	-0.107694	2.601127	0.000000	-0.005779	0.000000	-0.000346	0.000634	0.000000	0.000000
1.339533	12.192125	25.153847	-0.390738	0.528459	2.614507	0.000000	0.067738	0.000000	-0.000068	0.000629	0.000000	0.000000
1.780493	12.697152	24.415060	-0.758672	1.140569	2.660444	0.000000	0.142021	0.000000	0.000209	0.000631	0.000000	0.000000
2.221453	13.540680	23.157343	-1.161272	1.700787	2.739459	0.000000	0.217914	0.000000	0.000489	0.000640	0.000000	0.000000
2.662413	14.761254	21.437916	-1.616935	2.183621	2.852449	0.000000	0.296283	0.000000	0.000775	0.000656	0.000000	0.000000
3.108373	16.435726	19.309815	-2.150845	2.568265	3.002548	0.000000	0.378510	0.000000	0.001072	0.000680	0.000000	0.000000
3.657433	18.582280	16.919277	-1.735117	1.811230	3.184933	0.000000	0.286114	0.000000	0.001435	0.000639	0.000000	0.000000
4.206493	20.201896	15.284763	-1.196808	1.183207	3.315144	0.000000	0.188653	0.000000	0.001772	0.000587	0.000000	0.000000
4.755553	21.180145	14.289854	-0.573945	0.639462	3.390876	0.000000	0.087856	0.000000	0.002078	0.000525	0.000000	0.000000
5.304613	21.447906	13.863690	0.089474	0.141265	3.410791	0.000000	-0.014492	0.000000	0.002347	0.000453	0.000000	0.000000
5.603185	21.431436	13.764819	0.020606	0.154473	3.408935	0.000000	-0.005756	0.000000	0.002484	0.000459	0.000000	0.000000
5.936519	21.422886	13.670101	0.005045	0.129679	3.406863	0.000000	-0.005756	0.000000	0.002637	0.000459	0.000000	0.000000
6.269852	21.424709	13.591914	-0.010515	0.104884	3.404791	0.000000	-0.005756	0.000000	0.002790	0.000459	0.000000	0.000000
6.604435	21.436971	13.530055	-0.026133	0.079997	3.402711	0.000000	-0.005756	0.000000	0.002944	0.000459	0.000000	0.000000
6.901758	21.456643	13.489057	-0.094615	0.092300	3.400864	0.000000	0.002898	0.000000	0.003080	0.000467	0.000000	0.000000
7.450818	21.194602	13.649392	0.569275	-0.386027	3.374217	0.000000	-0.099022	0.000000	0.003309	0.000364	0.000000	0.000000
7.999878	20.221322	14.346942	1.192957	-0.891854	3.292065	0.000000	-0.199179	0.000000	0.003479	0.000254	0.000000	0.000000
8.548938	18.605557	15.631400	1.732366	-1.461214	3.155869	0.000000	-0.295799	0.000000	0.003587	0.000139	0.000000	0.000000
9.097998	16.461456	17.594267	2.149395	-2.134663	2.968045	0.000000	-0.387169	0.000000	0.003631	0.000022	0.000000	0.000000
9.543958	14.788528	19.343075	1.615101	-1.770017	2.813559	0.000000	-0.305877	0.000000	0.003662	0.000117	0.000000	0.000000
9.984918	13.569835	20.713654	1.159031	-1.326161	2.695761	0.000000	-0.228566	0.000000	0.003735	0.000212	0.000000	0.000000
10.425878	12.728607	21.664558	0.755920	-0.821958	2.611409	0.000000	-0.153860	0.000000	0.003850	0.000310	0.000000	0.000000
10.866838	12.226405	22.152517	0.387349	-0.280352	2.559540	0.000000	-0.080910	0.000000	0.004009	0.000411	0.000000	0.000000
11.309048	12.040126	22.154757	0.064708	0.221649	2.539545	0.000000	-0.014863	0.000000	0.004214	0.000507	0.000000	0.000000
11.606371	12.009021	22.027141	0.039910	0.207569	2.534975	0.000000	-0.014863	0.000000	0.004365	0.000507	0.000000	0.000000
12.086371	11.989923	21.838785	-0.000123	0.184839	2.527597	0.000000	-0.014863	0.000000	0.004608	0.000507	0.000000	0.000000
12.566371	12.009258	21.672250	-0.040157	0.162109	2.520220	0.000000	-0.014863	0.000000	0.004852	0.000507	0.000000	0.000000
13.046371	12.067025	21.527536	-0.080191	0.139379	2.512842	0.000000	-0.014863	0.000000	0.005095	0.000507	0.000000	0.000000
13.526371	12.163224	21.404643	-0.120224	0.116648	2.505464	0.000000	-0.014863	0.000000	0.005338	0.000507	0.000000	0.000000
14.007621	12.298256	21.303337	-0.160362	0.093859	2.498068	0.000000	-0.014863	0.000000	0.005583	0.000507	0.000000	0.000000
14.304943	12.400976	21.251731	-0.156423	0.030679	2.493497	0.000000	-0.020641	0.000000	0.005733	0.000494	0.000000	0.000000
14.745903	12.697883	20.992227	-0.519192	0.555527	2.499727	0.000000	0.050021	0.000000	0.005984	0.000645	0.000000	0.000000
15.186863	13.323998	20.279230	-0.905691	1.055097	2.537149	0.000000	0.121247	0.000000	0.006303	0.000803	0.000000	0.000000
15.627823	14.307943	19.145179	-1.333588	1.506654	2.606184	0.000000	0.193845	0.000000	0.006694	0.000971	0.000000	0.000000
16.068783	15.694702	17.641674	-1.822439	1.889649	2.707618	0.000000	0.268640	0.000000	0.007161	0.001149	0.000000	0.000000
16.514743	17.571291	15.815577	-2.399492	2.187533	2.844298	0.000000	0.346971	0.000000	0.007716	0.001342	0.000000	0.000000
17.063803	19.980638	13.777332	-1.961493	1.546198	3.010541	0.000000	0.259945	0.000000	0.008382	0.001081	0.000000	0.000000
17.612863	21.829480	12.379153	-1.384872	1.015016	3.127806	0.000000	0.168325	0.000000	0.008900	0.000801	0.000000	0.000000
18.161923	22.987133	11.521442	-0.710376	0.556146	3.194020	0.000000	0.073731	0.000000	0.009260	0.000507	0.000000	0.000000
18.710983	23.371762	11.143102	0.014329	0.136899	3.208013	0.000000	-0.022163	0.000000	0.009455	0.000204	0.000000	0.000000
19.009556	23.400469	11.053642	-0.054576	0.136105	3.203623	0.000000	-0.014461	0.000000	0.009523	0.000228	0.000000	0.000000
19.342889	23.441616	10.973144	-0.068863	0.105390	3.198727	0.000000	-0.014461	0.000000	0.009599	0.000228	0.000000	0.000000
19.676223	23.492286	10.913122	-0.083150	0.074676	3.193831	0.000000	-0.014461	0.000000	0.009675	0.000228	0.000000	0.000000
20.010806	23.553018	10.873332	-0.214185	0.097719	3.188936	0.000000	0.001338	0.000000	0.009751	0.000276	0.000000	0.000000
20.308129	23.684375	10.823401	-0.284037	0.096050	3.189256	0.000000	0.008967	0.000000	0.009833	0.000300	0.000000	0.000000
20.857189	23.587958	10.937734	0.458671	-0.305483	3.167945	0.000000	-0.086202	0.000000	0.009910	-0.000019	0.000000	0.000000
21.406249	22.688770	11.502353	1.168967	-0.728781	3.094884	0.000000	-0.179841	0.000000	0.009812	-0.000339	0.000000	0.000000
21.955309	21.050369	12.557484	1.796651	-1.204002	2.971370	0.000000	-0.270296	0.000000	0.009539	-0.000653	0.000000	0.000000
22.504369	18.788563	14.178292	2.297363	-1.765001	2.799590	0.000000	-0.355965	0.000000	0.009097	-0.000954	0.000000	0.000000
22.950329	17.007867	15.634358	1.708685	-1.485787	2.658456	0.000000	-0.278844	0.000000	0.008723	-0.000723	0.000000	0.000000
23.391289	15.728500	16.796773	1.203005	-1.139958	2.552043	0.000000	-0.205376	0.000000	0.008453	-0.000502	0.000000	0.000000
23.832249	14.869365	17.630023	0.752312	-0.742251	2.477394	0.000000	-0.134242	0.000000	0.008280	-0.000286	0.000000	0.000000
24.273209	14.391186	18.096189	0.336004	-0.310765	2.433658	0.000000	-0.064635	0.000000	0.008200	-0.000074	0.000000	0.000000
24.715418	14.272214	18.173789	-0.032810	0.093727	2.420340	0.000000	-0.001228	0.000000	0.008215	0.000119	0.000000	0.000000
25.012741	14.297925	18.122962	-0.053665	0.077224	2.419939	0.000000	-0.001228	0.000000	0.008250	0.000119	0.000000	0.000000
25.346075	14.341495	18.077647	-0.077046	0.058721	2.419490	0.000000	-0.001228	0.000000	0.008289	0.000119	0.000000	0.000000
25.679408	14.400653	18.044667	-0.100426	0.040219	2.419042	0.000000	-0.001228	0.000000	0.008329	0.000119	0.000000	0.000000
26.013991	14.475413	18.024333	-0.006460	-0.124576	2.418567	0.000000	-0.020849	0.000000	0.008368	0.000051	0.000000	0.000000
26.311314	14.485332	18.103430	0.005644	-0.182118	2.412350	0.000000	-0.026286	0.000000	0.008383	0.000031	0.000000	0.000000
26.752274	14.659328	18.067927	-0.401621	0.262314	2.415808	0.000000	0.042253	0.000000	0.008445	0.000248	0.000000	0.000000
27.193234	15.199293	17.644209	-0.827244	0.694810	2.449477	0.000000	0.111271	0.000000	0.008602	0.000468	0.000000	0.000000
27.634194	16.129911	16.851557	-1.290679	1.095685	2.513739	0.000000	0.181551	0.000000	0.008858	0.000693	0.000000	0.000000
28.075154	17.493732	15.726040	-1.813112	1.446696	2.609324	0.000000	0.253892	0.000000	0.009215	0.000926	0.000000	0.000000
28.521114	19.376981	14.301804	-2.423535	1.732959	2.738934	0.000000	0.329591	0.000000	0.009682	0.001171	0.000000	0.000000
29.070174	21.771590	12.715654	-1.910710	1.172530	2.896704	0.000000	0.246113	0.000000	0.010237	0.000848	0.000000	0.000000
29.619234	23.524947	11.695785	-1.262843	0.695639	3.007545	0.000000	0.158282	0.000000	0.010611	0.000510	0.000000	0.000000
30.168294	24.513107	11.169545	-0.525724	0.268310	3.069494	0.000000	0.067651	0.000000	0.010796	0.000163	0.000000	0.000000
30.717354	24.666217	11.099445	0.248552	-0.139902	3.081454	0.000000	-0.024178	0.000000	0.010790	-0.000186	0.000000	0.000000
31.015927	24.556361	11.175434	0.177556	-0.140814	3.076458	0.000000	-0.016876	0.000000	0.010742	-0.000159	0.000000	0.000000
31.349260	24.442658	11.279450	0.163554	-0.171233	3.070885	0.000000	-0.016876	0.000000	0.010689	-0.000159	0.000000	0.000000
31.682593	24.338289	11.403745	0.149552	-0.201652	3.065313	0.000000	-0.016876	0.000000	0.010636	-0.000159	0.000000	0.000000
32.017177	24.242916	11.548900	0.135497	-0.232185	3.059720	0.000000	-0.016876	0.000000	0.010582	-0.000159	0.000000	0.000000
32.314499	24.166135	11.694996	0.065595	-0.231556	3.054755	0.000000	-0.009618	0.000000	0.010535	-0.000133	0.000000	0.000000
32.863559	23.680355	12.187964	0.813575	-0.671449	3.024693	0.000000	-0.100288	0.000000	0.010369	-0.000472	0.000000	0.000000
33.412619	22.399839	13.187336	1.504052	-1.159181	2.945431	0.000000	-0.189185	0.000000	0.010018	-0.000802	0.000000	0.000000
33.961679	20.415109	14.764305	2.088226	-1.729499	2.818371	0.000000	-0.274739	0.000000	0.009490	-0.001118	0.000000	0.000000
34.510739	17.866462	17.031210	2.524815	-2.423033	2.645761	0.000000	-0.355437	0.000000	0.008794	-0.001415	0.000000	0.000000
34.956699	15.886229	19.059201	1.930245	-2.104874	2.504174	0.000000	-0.282318	0.000000	0.008213	-0.001194	0.000000	0.000000
35.397659	14.410148	20.739994	1.429024	-1.691853	2.395552	0.000000	-0.212859	0.000000	0.007732	-0.000988	0.000000	0.000000
35.838619	13.345847	22.021010	0.993121	-1.201839	2.316917	0.000000	-0.145814	0.000000	0.007339	-0.000794	0.000000	0.000000
36.279579	12.644666	22.843959	0.602612	-0.657134	2.267377	0.000000	-0.080422	0.000000	0.007030	-0.000609	0.000000	0.000000
36.721789	12.273897	23.171705	0.267668	-0.135544	2.246347	0.000000	-0.021088	0.000000	0.006801	-0.000447	0.000000	0.000000
37.019112	12.122447	23.256191	0.241709	-0.148611	2.240210	0.000000	-0.021088	0.000000	0.006668	-0.000447	0.000000	0.000000
37.352445	11.971009	23.360149	0.212605	-0.163261	2.233329	0.000000	-0.021088	0.000000	0.006519	-0.000447	0.000000	0.000000
37.685779	11.838974	23.473873	0.183502	-0.177911	2.226449	0.000000	-0.021088	0.000000	0.006370	-0.000447	0.000000	0.000000
38.020362	11.725955	23.597844	0.154289	-0.192615	2.219543	0.000000	-0.021088	0.000000	0.006221	-0.000447	0.000000	0.000000
38.317684	11.641913	23.716293	0.155210	-0.260595	2.213404	0.000000	-0.026198	0.000000	0.006088	-0.000461	0.000000	0.000000
38.758644	11.654100	23.683299	-0.183077	0.335126	2.215990	0.000000	0.037195	0.000000	0.005919	-0.000306	0.000000	0.000000
39.199604	11.967222	23.129628	-0.529728	0.915595	2.246535	0.000000	0.101016	0.000000	0.005817	-0.000155	0.000000	0.000000
39.640564	12.595589	22.080476	-0.900586	1.454398	2.305387	0.000000	0.165989	0.000000	0.005782	-0.000006	0.000000	0.000000
40.081524	13.567918	20.583587	-1.312599	1.927016	2.393218	0.000000	0.232853	0.000000	0.005812	0.000144	0.000000	0.000000
40.527484	14.946186	18.684361	-1.788511	2.313392	2.512512	0.000000	0.302793	0.000000	0.005910	0.000296	0.000000	0.000000
41.076544	16.707405	16.549565	-1.399834	1.597321	2.658040	0.000000	0.226863	0.000000	0.006020	0.000103	0.000000	0.000000
41.625604	17.984553	15.134435	-0.912253	0.995041	2.760809	0.000000	0.146910	0.000000	0.006023	-0.000092	0.000000	0.000000
42.174664	18.687383	14.338159	-0.360220	0.463649	2.818997	0.000000	0.064349	0.000000	0.005919	-0.000286	0.000000	0.000000
42.723724	18.766240	14.104009	0.217258	-0.034711	2.831569	0.000000	-0.019358	0.000000	0.005710	-0.000474	0.000000	0.000000
43.022297	18.669233	14.110076	0.154235	-0.020723	2.828026	0.000000	-0.012319	0.000000	0.005572	-0.000460	0.000000	0.000000
43.502297	18.533802	14.146306	0.127912	-0.054755	2.822334	0.000000	-0.012319	0.000000	0.005352	-0.000460	0.000000	0.000000
43.982297	18.423641	14.215207	0.101590	-0.088788	2.816642	0.000000	-0.012319	0.000000	0.005131	-0.000460	0.000000	0.000000
44.462297	18.338750	14.316779	0.075268	-0.122821	2.810949	0.000000	-0.012319	0.000000	0.004910	-0.000460	0.000000	0.000000
44.942297	18.279127	14.451023	0.048945	-0.156854	2.805257	0.000000	-0.012319	0.000000	0.004690	-0.000460	0.000000	0.000000
45.423547	18.244944	14.618235	-0.067841	-0.118548	2.799567	0.000000	0.001552	0.000000	0.004468	-0.000438	0.000000	0.000000
45.720870	18.290164	14.694853	-0.130245	-0.102280	2.800159	0.000000	0.008599	0.000000	0.004338	-0.000426	0.000000	0.000000
46.269930	18.124992	15.091061	0.429014	-0.623548	2.782438	0.000000	-0.074003	0.000000	0.004066	-0.000563	0.000000	0.000000
46.818990	17.358709	16.080601	0.957955	-1.189234	2.719722	0.000000	-0.155301	0.000000	0.003722	-0.000689	0.000000	0.000000
47.368050	16.045467	17.733954	1.419207	-1.839631	2.613119	0.000000	-0.233855	0.000000	0.003312	-0.000803	0.000000	0.000000
47.917110	14.278062	20.168881	1.780186	-2.621070	2.464515	0.000000	-0.308274	0.000000	0.002843	-0.000903	0.000000	0.000000
48.363070	12.901657	22.333192	1.316686	-2.211525	2.342776	0.000000	-0.239628	0.000000	0.002456	-0.000834	0.000000	0.000000
48.804030	11.920189	24.065868	0.917152	-1.702720	2.251981	0.000000	-0.174110	0.000000	0.002102	-0.000775	0.000000	0.000000
49.244990	11.271365	25.313788	0.559530	-1.116440	2.189593	0.000000	-0.110567	0.000000	0.001771	-0.000725	0.000000	0.000000
49.685950	10.925531	26.020178	0.227479	-0.479363	2.154904	0.000000	-0.048275	0.000000	0.001461	-0.000683	0.000000	0.000000
50.128160	10.867049	26.152612	-0.067936	0.116291	2.147534	0.000000	0.008266	0.000000	0.001167	-0.000652	0.000000	0.000000
50.425482	10.915620	26.086886	-0.095423	0.104769	2.150186	0.000000	0.008266	0.000000	0.000973	-0.000652	0.000000	0.000000
50.758816	10.989507	26.021346	-0.126238	0.091851	2.153159	0.000000	0.008266	0.000000	0.000755	-0.000652	0.000000	0.000000
51.092149	11.083938	25.964418	-0.157054	0.078933	2.156132	0.000000	0.008266	0.000000	0.000538	-0.000652	0.000000	0.000000
51.426732	11.199154	25.916463	-0.097130	-0.144281	2.159094	0.000000	-0.009250	0.000000	0.000319	-0.000655	0.000000	0.000000
51.724055	11.264880	26.005741	-0.096336	-0.219934	2.156538	0.000000	-0.014532	0.000000	0.000125	-0.000655	0.000000	0.000000
52.165015	11.496545	25.910230	-0.431235	0.435707	2.164069	0.000000	0.047449	0.000000	-0.000164	-0.000656	0.000000	0.000000
52.605975	12.031095	25.243066	-0.785831	1.071522	2.199026	0.000000	0.109978	0.000000	-0.000455	-0.000664	0.000000	0.000000
53.046935	12.892945	24.034612	-1.176323	1.658581	2.261813	0.000000	0.173767	0.000000	-0.000751	-0.000679	0.000000	0.000000
53.487895	14.121462	22.339856	-1.620551	2.170175	2.353146	0.000000	0.239542	0.000000	-0.001055	-0.000703	0.000000	0.000000
53.933855	15.793769	20.210589	-2.143082	2.584346	2.475581	0.000000	0.308449	0.000000	-0.001375	-0.000734	0.000000	0.000000
54.482915	17.946341	17.814231	-1.754606	1.805988	2.625002	0.000000	0.233672	0.000000	-0.001765	-0.000683	0.000000	0.000000
55.031975	19.601335	16.197365	-1.242216	1.156264	2.732132	0.000000	0.154740	0.000000	-0.002123	-0.000620	0.000000	0.000000
55.581035	20.641879	15.244820	-0.642101	0.588897	2.795067	0.000000	0.073053	0.000000	-0.002444	-0.000546	0.000000	0.000000
56.130095	20.994501	14.888744	0.003351	0.063474	2.812685	0.000000	-0.009939	0.000000	-0.002721	-0.000463	0.000000	0.000000
56.428668	21.030251	14.833081	-0.067007	0.083087	2.812101	0.000000	-0.002424	0.000000	-0.002862	-0.000470	0.000000	0.000000
56.762001	21.080229	14.785233	-0.082928	0.060459	2.811450	0.000000	-0.002424	0.000000	-0.003018	-0.000470	0.000000	0.000000
57.095334	21.140822	14.752469	-0.098850	0.037832	2.810798	0.000000	-0.002424	0.000000	-0.003175	-0.000470	0.000000	0.000000
57.429918	21.212316	14.734753	-0.114831	0.015119	2.810145	0.000000	-0.002424	0.000000	-0.003332	-0.000470	0.000000	0.000000
57.727240	21.284830	14.731758	-0.186247	0.034437	2.809564	0.000000	0.005129	0.000000	-0.003472	-0.000479	0.000000	0.000000
58.276300	21.125547	14.976403	0.474390	-0.482661	2.789828	0.000000	-0.077725	0.000000	-0.003703	-0.000363	0.000000	0.000000
58.825360	20.255076	15.804283	1.101517	-1.034134	2.724850	0.000000	-0.159207	0.000000	-0.003869	-0.000240	0.000000	0.000000
59.374420	18.734897	17.274357	1.650846	-1.659256	2.615780	0.000000	-0.237869	0.000000	-0.003966	-0.000113	0.000000	0.000000
59.923480	16.672366	19.491321	2.083584	-2.402550	2.464550	0.000000	-0.312314	0.000000	-0.003993	0.000016	0.000000	0.000000
60.369440	15.056835	21.461551	1.551936	-1.996896	2.340650	0.000000	-0.243726	0.000000	-0.004009	-0.000088	0.000000	0.000000
60.810400	13.893932	23.010091	1.095369	-1.501691	2.247755	0.000000	-0.178300	0.000000	-0.004071	-0.000192	0.000000	0.000000
61.251360	13.110145	24.090017	0.688840	-0.938169	2.183279	0.000000	-0.114902	0.000000	-0.004179	-0.000299	0.000000	0.000000
61.692320	12.669671	24.652202	0.313778	-0.331967	2.146491	0.000000	-0.052809	0.000000	-0.004334	-0.000408	0.000000	0.000000
62.134530	12.552434	24.670490	-0.014959	0.226401	2.136976	0.000000	0.003223	0.000000	-0.004540	-0.000511	0.000000	0.000000
62.431853	12.568373	24.539629	-0.038651	0.213732	2.138086	0.000000	0.003223	0.000000	-0.004692	-0.000511	0.000000	0.000000
62.765186	12.602994	24.401876	-0.065212	0.199528	2.139331	0.000000	0.003223	0.000000	-0.004862	-0.000511	0.000000	0.000000
63.098520	12.655322	24.273592	-0.091773	0.185324	2.140576	0.000000	0.003223	0.000000	-0.005033	-0.000511	0.000000	0.000000
63.433103	12.725654	24.154350	-0.118434	0.171066	2.141825	0.000000	0.003223	0.000000	-0.005204	-0.000511	0.000000	0.000000
63.730426	12.803114	24.056414	-0.109162	0.096285	2.142935	0.000000	-0.002294	0.000000	-0.005356	-0.000498	0.000000	0.000000
64.171386	13.061642	23.706681	-0.479601	0.693876	2.155754	0.000000	0.059396	0.000000	-0.005606	-0.000639	0.000000	0.000000
64.612346	13.655198	22.841924	-0.871941	1.259899	2.195960	0.000000	0.121770	0.000000	-0.005921	-0.000788	0.000000	0.000000
65.053306	14.610884	21.501491	-1.304100	1.768605	2.264015	0.000000	0.185538	0.000000	-0.006302	-0.000945	0.000000	0.000000
65.494266	15.972336	19.746368	-1.795816	2.196852	2.360695	0.000000	0.251430	0.000000	-0.006756	-0.001113	0.000000	0.000000
65.940226	17.825013	17.631568	-2.374088	2.525751	2.488685	0.000000	0.320575	0.000000	-0.007292	-0.001296	0.000000	0.000000
66.489286	20.197529	15.266264	-1.922488	1.808056	2.644863	0.000000	0.245279	0.000000	-0.007937	-0.001049	0.000000	0.000000
67.038346	21.996307	13.614107	-1.335161	1.219121	2.758304	0.000000	0.165617	0.000000	-0.008441	-0.000784	0.000000	0.000000
67.587406	23.094379	12.557424	-0.653575	0.717004	2.826991	0.000000	0.083004	0.000000	-0.008795	-0.000504	0.000000	0.000000
68.136466	23.414240	12.020960	0.074147	0.265947	2.849700	0.000000	-0.001088	0.000000	-0.008993	-0.000216	0.000000	0.000000
68.435038	23.412936	11.850105	-0.004285	0.272634	2.851831	0.000000	0.006906	0.000000	-0.009065	-0.000241	0.000000	0.000000
68.768372	23.420538	11.678422	-0.018522	0.242414	2.854213	0.000000	0.006906	0.000000	-0.009145	-0.000241	0.000000	0.000000
69.101705	23.437631	11.526887	-0.032759	0.212194	2.856595	0.000000	0.006906	0.000000	-0.009225	-0.000241	0.000000	0.000000
69.436288	23.464334	11.395043	-0.047050	0.181860	2.858986	0.000000	0.006906	0.000000	-0.009306	-0.000241	0.000000	0.000000
69.733611	23.496149	11.294886	-0.125843	0.186636	2.861114	0.000000	0.014954	0.000000	-0.009377	-0.000266	0.000000	0.000000
70.282671	23.230855	11.316389	0.606151	-0.226036	2.846144	0.000000	-0.069632	0.000000	-0.009440	0.000039	0.000000	0.000000
