#ParticleID	Turn	x[m]	xp	y[m]	yp	z[m]	dE[GeV]# s	beta_x	beta_y	alpha_x	alpha_y	D_x	D_y	D_px	D_py	orbit_x	orbit_px	orbit_y	orbit_py
0.300000	11.964323	25.325826	-0.019545	-0.021789	2.598661	0.000000	0.000269	0.000000	-0.000937	0.000812	0.000000	0.000000
0.601250	11.983687	25.342539	-0.044734	-0.033690	2.598497	0.000000	0.000269	0.000000	-0.000693	0.000812	0.000000	0.000000
0.898573	12.017679	25.366065	-0.039998	-0.107611	2.598336	0.000000	-0.006130	0.000000	-0.000452	0.000813	0.000000	0.000000
1.339533	12.206874	25.179441	-0.390405	0.529224	2.611470	0.000000	0.067312	0.000000	-0.000095	0.000806	0.000000	0.000000
1.780493	12.711775	24.439689	-0.758654	1.141984	2.657126	0.000000	0.141513	0.000000	0.000260	0.000808	0.000000	0.000000
2.221453	13.555458	23.180459	-1.161572	1.702787	2.735822	0.000000	0.217317	0.000000	0.000619	0.000819	0.000000	0.000000
2.662413	14.776477	21.459038	-1.617566	2.186115	2.848451	0.000000	0.295587	0.000000	0.000984	0.000840	0.000000	0.000000
3.108373	16.451718	19.328523	-2.151848	2.571149	2.998137	0.000000	0.377706	0.000000	0.001365	0.000870	0.000000	0.000000
3.657433	18.599117	16.935221	-1.735529	1.813388	3.180024	0.000000	0.285460	0.000000	0.001829	0.000818	0.000000	0.000000
4.206493	20.218906	15.298652	-1.196594	1.184793	3.309831	0.000000	0.188163	0.000000	0.002261	0.000752	0.000000	0.000000
4.755553	21.196638	14.302253	-0.573115	0.640591	3.385260	0.000000	0.087541	0.000000	0.002653	0.000673	0.000000	0.000000
5.304613	21.463221	13.875059	0.090866	0.142017	3.404980	0.000000	-0.014624	0.000000	0.002997	0.000581	0.000000	0.000000
5.603185	21.445754	13.775853	0.022276	0.155042	3.403027	0.000000	-0.005952	0.000000	0.003173	0.000589	0.000000	0.000000
5.936519	21.436087	13.680752	0.006725	0.130263	3.400846	0.000000	-0.005952	0.000000	0.003369	0.000589	0.000000	0.000000
6.269852	21.436788	13.602169	-0.008826	0.105484	3.398666	0.000000	-0.005952	0.000000	0.003566	0.000589	0.000000	0.000000
6.604435	21.447916	13.539904	-0.024435	0.080613	3.396478	0.000000	-0.005952	0.000000	0.003763	0.000589	0.000000	0.000000
6.901758	21.466580	13.498533	-0.092523	0.092721	3.394534	0.000000	0.002621	0.000000	0.003938	0.000599	0.000000	0.000000
7.450818	21.202108	13.658560	0.571651	-0.385880	3.367729	0.000000	-0.099094	0.000000	0.004230	0.000466	0.000000	0.000000
7.999878	20.226155	14.356104	1.195448	-0.891972	3.285548	0.000000	-0.199043	0.000000	0.004448	0.000326	0.000000	0.000000
8.548938	18.607666	15.640859	1.734796	-1.461607	3.149452	0.000000	-0.295456	0.000000	0.004587	0.000179	0.000000	0.000000
9.097998	16.460988	17.604351	2.151586	-2.135363	2.961856	0.000000	-0.386625	0.000000	0.004645	0.000030	0.000000	0.000000
9.543958	14.786194	19.353673	1.617061	-1.770404	2.807568	0.000000	-0.305485	0.000000	0.004685	0.000151	0.000000	0.000000
9.984918	13.565820	20.724478	1.160878	-1.326239	2.689888	0.000000	-0.228324	0.000000	0.004778	0.000273	0.000000	0.000000
10.425878	12.722981	21.675328	0.757740	-0.821722	2.605577	0.000000	-0.153767	0.000000	0.004926	0.000398	0.000000	0.000000
10.866838	12.219163	22.162951	0.389225	-0.279811	2.553672	0.000000	-0.080966	0.000000	0.005130	0.000528	0.000000	0.000000
11.309048	12.031190	22.164577	0.066368	0.223023	2.533562	0.000000	-0.014984	0.000000	0.005393	0.000650	0.000000	0.000000
11.606371	11.999105	22.036144	0.041547	0.208941	2.528914	0.000000	-0.014984	0.000000	0.005587	0.000650	0.000000	0.000000
12.086371	11.978455	21.846473	0.001475	0.186208	2.521409	0.000000	-0.014984	0.000000	0.005899	0.000650	0.000000	0.000000
12.566371	11.996274	21.678625	-0.038597	0.163475	2.513905	0.000000	-0.014984	0.000000	0.006211	0.000650	0.000000	0.000000
13.046371	12.052562	21.532601	-0.078670	0.140741	2.506400	0.000000	-0.014984	0.000000	0.006523	0.000650	0.000000	0.000000
13.526371	12.147319	21.408402	-0.118742	0.118008	2.498896	0.000000	-0.014984	0.000000	0.006836	0.000650	0.000000	0.000000
14.007621	12.280943	21.305788	-0.158918	0.095215	2.491372	0.000000	-0.014984	0.000000	0.007149	0.000650	0.000000	0.000000
14.304943	12.382803	21.253389	-0.155523	0.032891	2.486721	0.000000	-0.020650	0.000000	0.007342	0.000633	0.000000	0.000000
14.745903	12.678762	20.991920	-0.517859	0.557742	2.492841	0.000000	0.049839	0.000000	0.007664	0.000827	0.000000	0.000000
15.186863	13.303539	20.276988	-0.903869	1.057213	2.530057	0.000000	0.120887	0.000000	0.008072	0.001029	0.000000	0.000000
15.627823	14.285702	19.141119	-1.331196	1.508574	2.598790	0.000000	0.193301	0.000000	0.008573	0.001244	0.000000	0.000000
16.068783	15.670160	17.635998	-1.819377	1.891283	2.699818	0.000000	0.267905	0.000000	0.009172	0.001473	0.000000	0.000000
16.514743	17.543847	15.808507	-2.395666	2.188848	2.835983	0.000000	0.346036	0.000000	0.009883	0.001720	0.000000	0.000000
17.063803	19.949556	13.768778	-1.958400	1.547478	3.001612	0.000000	0.259283	0.000000	0.010737	0.001386	0.000000	0.000000
17.612863	21.795649	12.369118	-1.382710	1.016359	3.118457	0.000000	0.167952	0.000000	0.011401	0.001027	0.000000	0.000000
18.161923	22.951611	11.509820	-0.709282	0.557653	3.184453	0.000000	0.073657	0.000000	0.011862	0.000650	0.000000	0.000000
18.710983	23.335712	11.129672	0.014286	0.138678	3.198436	0.000000	-0.021934	0.000000	0.012112	0.000262	0.000000	0.000000
19.009556	23.363503	11.039615	-0.053116	0.137115	3.194027	0.000000	-0.014453	0.000000	0.012200	0.000292	0.000000	0.000000
19.342889	23.403682	10.958458	-0.067423	0.106353	3.189112	0.000000	-0.014453	0.000000	0.012297	0.000292	0.000000	0.000000
19.676223	23.453401	10.897810	-0.081731	0.075591	3.184198	0.000000	-0.014453	0.000000	0.012394	0.000292	0.000000	0.000000
20.010806	23.513189	10.857423	-0.212590	0.098508	3.179284	0.000000	0.001299	0.000000	0.012492	0.000354	0.000000	0.000000
20.308129	23.643644	10.807016	-0.280840	0.096076	3.179573	0.000000	0.008700	0.000000	0.012597	0.000385	0.000000	0.000000
20.857189	23.544455	10.921084	0.460511	-0.305016	3.158178	0.000000	-0.086161	0.000000	0.012696	-0.000025	0.000000	0.000000
21.406249	22.644005	11.484958	1.169315	-0.727842	3.085248	0.000000	-0.179494	0.000000	0.012569	-0.000435	0.000000	0.000000
21.955309	21.005951	12.538812	1.795471	-1.202527	2.962075	0.000000	-0.269649	0.000000	0.012220	-0.000836	0.000000	0.000000
22.504369	18.746099	14.157725	2.294720	-1.762893	2.790843	0.000000	-0.355033	0.000000	0.011654	-0.001223	0.000000	0.000000
22.950329	16.967187	15.612190	1.706957	-1.484142	2.650170	0.000000	-0.278121	0.000000	0.011174	-0.000927	0.000000	0.000000
23.391289	15.688864	16.773449	1.202174	-1.138899	2.544100	0.000000	-0.204858	0.000000	0.010829	-0.000643	0.000000	0.000000
23.832249	14.830028	17.606067	0.752348	-0.741821	2.469680	0.000000	-0.133922	0.000000	0.010606	-0.000367	0.000000	0.000000
24.273209	14.351410	18.072155	0.336913	-0.310982	2.426063	0.000000	-0.064508	0.000000	0.010504	-0.000095	0.000000	0.000000
24.715418	14.231250	18.150209	-0.031877	0.093936	2.412756	0.000000	-0.001140	0.000000	0.010523	0.000152	0.000000	0.000000
25.012741	14.256424	18.099264	-0.052791	0.077410	2.412372	0.000000	-0.001140	0.000000	0.010568	0.000152	0.000000	0.000000
25.346075	14.299433	18.053834	-0.076237	0.058882	2.411941	0.000000	-0.001140	0.000000	0.010618	0.000152	0.000000	0.000000
25.679408	14.358074	18.020754	-0.099684	0.040355	2.411510	0.000000	-0.001140	0.000000	0.010669	0.000152	0.000000	0.000000
26.013991	14.432360	18.000337	-0.006133	-0.124269	2.411054	0.000000	-0.020700	0.000000	0.010720	0.000065	0.000000	0.000000
26.311314	14.442084	18.079282	0.004984	-0.180739	2.404876	0.000000	-0.025982	0.000000	0.010739	0.000040	0.000000	0.000000
26.752274	14.616238	18.042848	-0.401290	0.263035	2.408410	0.000000	0.042370	0.000000	0.010818	0.000318	0.000000	0.000000
27.193234	15.155506	17.618785	-0.825909	0.694838	2.442048	0.000000	0.111200	0.000000	0.011020	0.000599	0.000000	0.000000
27.634194	16.084551	16.826387	-1.288285	1.095019	2.506169	0.000000	0.181292	0.000000	0.011348	0.000888	0.000000	0.000000
28.075154	17.445854	15.701714	-1.809557	1.445362	2.601504	0.000000	0.253439	0.000000	0.011804	0.001186	0.000000	0.000000
28.521114	19.325574	14.278835	-2.418720	1.731067	2.730751	0.000000	0.328943	0.000000	0.012403	0.001500	0.000000	0.000000
29.070174	21.715949	12.694323	-1.907513	1.171305	2.888094	0.000000	0.245729	0.000000	0.013115	0.001087	0.000000	0.000000
29.619234	23.466925	11.675430	-1.261469	0.694999	2.998702	0.000000	0.158173	0.000000	0.013593	0.000654	0.000000	0.000000
30.168294	24.454698	11.149570	-0.526255	0.268214	3.060620	0.000000	0.067820	0.000000	0.013831	0.000210	0.000000	0.000000
30.717354	24.609429	11.079279	0.246159	-0.139461	3.072752	0.000000	-0.023732	0.000000	0.013823	-0.000238	0.000000	0.000000
31.015927	24.499835	11.155536	0.177014	-0.141248	3.067827	0.000000	-0.016668	0.000000	0.013762	-0.000204	0.000000	0.000000
31.349260	24.386503	11.259861	0.162982	-0.171725	3.062339	0.000000	-0.016668	0.000000	0.013694	-0.000204	0.000000	0.000000
31.682593	24.282525	11.384503	0.148950	-0.202202	3.056852	0.000000	-0.016668	0.000000	0.013626	-0.000204	0.000000	0.000000
32.017177	24.187565	11.530045	0.134866	-0.232793	3.051343	0.000000	-0.016668	0.000000	0.013557	-0.000204	0.000000	0.000000
32.314499	24.111218	11.676494	0.066730	-0.233071	3.046456	0.000000	-0.009641	0.000000	0.013496	-0.000171	0.000000	0.000000
32.863559	23.625120	12.170909	0.812921	-0.672547	3.016497	0.000000	-0.100051	0.000000	0.013283	-0.000605	0.000000	0.000000
33.412619	22.346177	13.171337	1.501644	-1.159943	2.937526	0.000000	-0.188695	0.000000	0.012834	-0.001028	0.000000	0.000000
33.961679	20.364821	14.749049	2.084217	-1.729985	2.810940	0.000000	-0.274008	0.000000	0.012157	-0.001433	0.000000	0.000000
34.510739	17.821139	17.016441	2.519464	-2.423286	2.638975	0.000000	-0.354483	0.000000	0.011264	-0.001813	0.000000	0.000000
34.956699	15.844945	19.044972	1.926090	-2.105605	2.497928	0.000000	-0.281523	0.000000	0.010519	-0.001530	0.000000	0.000000
35.397659	14.371945	20.726688	1.425926	-1.693082	2.389750	0.000000	-0.212215	0.000000	0.009903	-0.001267	0.000000	0.000000
35.838619	13.309884	22.009026	0.990947	-1.203507	2.311472	0.000000	-0.145312	0.000000	0.009400	-0.001018	0.000000	0.000000
36.279579	12.610196	22.833635	0.601269	-0.659162	2.262207	0.000000	-0.080054	0.000000	0.009003	-0.000781	0.000000	0.000000
36.721789	12.240247	23.163287	0.266458	-0.136714	2.241374	0.000000	-0.020732	0.000000	0.008709	-0.000573	0.000000	0.000000
37.019112	12.089534	23.248471	0.240442	-0.149790	2.235381	0.000000	-0.020732	0.000000	0.008539	-0.000573	0.000000	0.000000
37.352445	11.938962	23.353218	0.211276	-0.164450	2.228661	0.000000	-0.020732	0.000000	0.008348	-0.000573	0.000000	0.000000
37.685779	11.807833	23.467738	0.182110	-0.179109	2.221941	0.000000	-0.020732	0.000000	0.008157	-0.000573	0.000000	0.000000
38.020362	11.695766	23.592515	0.152835	-0.193824	2.215196	0.000000	-0.020732	0.000000	0.007965	-0.000573	0.000000	0.000000
38.317684	11.612597	23.711701	0.153157	-0.260872	2.209201	0.000000	-0.025743	0.000000	0.007795	-0.000591	0.000000	0.000000
38.758644	11.626298	23.678998	-0.184504	0.334745	2.212011	0.000000	0.037548	0.000000	0.007578	-0.000393	0.000000	0.000000
39.199604	11.940426	23.125689	-0.530595	0.915127	2.242719	0.000000	0.101271	0.000000	0.007447	-0.000199	0.000000	0.000000
39.640564	12.569336	22.076958	-0.900933	1.453861	2.301674	0.000000	0.166150	0.000000	0.007401	-0.000008	0.000000	0.000000
40.081524	13.541775	20.580531	-1.312445	1.926432	2.389550	0.000000	0.232922	0.000000	0.007440	0.000183	0.000000	0.000000
40.527484	14.919748	18.681763	-1.787883	2.312826	2.508833	0.000000	0.302775	0.000000	0.007565	0.000378	0.000000	0.000000
41.076544	16.680901	16.547480	-1.400238	1.596855	2.654356	0.000000	0.226960	0.000000	0.007705	0.000131	0.000000	0.000000
41.625604	17.959076	15.132785	-0.913654	0.994648	2.757212	0.000000	0.147121	0.000000	0.007708	-0.000119	0.000000	0.000000
42.174664	18.663949	14.336892	-0.362514	0.463305	2.815576	0.000000	0.064669	0.000000	0.007574	-0.000367	0.000000	0.000000
42.723724	18.745713	14.103099	0.214233	-0.035030	2.828408	0.000000	-0.018935	0.000000	0.007306	-0.000608	0.000000	0.000000
43.022297	18.650067	14.109655	0.151935	-0.021527	2.824997	0.000000	-0.012007	0.000000	0.007130	-0.000589	0.000000	0.000000
43.502297	18.516848	14.146658	0.125603	-0.055562	2.819517	0.000000	-0.012007	0.000000	0.006847	-0.000589	0.000000	0.000000
43.982297	18.408908	14.216334	0.099272	-0.089597	2.814037	0.000000	-0.012007	0.000000	0.006565	-0.000589	0.000000	0.000000
44.462297	18.326246	14.318685	0.072941	-0.123632	2.808557	0.000000	-0.012007	0.000000	0.006282	-0.000589	0.000000	0.000000
44.942297	18.268862	14.453708	0.046609	-0.157667	2.803076	0.000000	-0.012007	0.000000	0.005999	-0.000589	0.000000	0.000000
45.423547	18.236931	14.621704	-0.070146	-0.119346	2.797599	0.000000	0.001854	0.000000	0.005715	-0.000561	0.000000	0.000000
45.720870	18.283531	14.698791	-0.132049	-0.103493	2.798319	0.000000	0.008821	0.000000	0.005548	-0.000547	0.000000	0.000000
46.269930	18.120396	15.096429	0.427055	-0.624941	2.780808	0.000000	-0.073727	0.000000	0.005200	-0.000721	0.000000	0.000000
46.818990	17.356227	16.087657	0.955974	-1.190906	2.718348	0.000000	-0.154980	0.000000	0.004759	-0.000882	0.000000	0.000000
47.368050	16.045036	17.743078	1.417339	-1.841705	2.612041	0.000000	-0.233497	0.000000	0.004233	-0.001028	0.000000	0.000000
47.917110	14.279483	20.180599	1.778555	-2.623694	2.463766	0.000000	-0.307889	0.000000	0.003633	-0.001156	0.000000	0.000000
48.363070	12.904425	22.347196	1.315156	-2.213957	2.342299	0.000000	-0.239256	0.000000	0.003138	-0.001068	0.000000	0.000000
48.804030	11.924237	24.081917	0.915668	-1.704870	2.251762	0.000000	-0.173746	0.000000	0.002684	-0.000993	0.000000	0.000000
49.244990	11.276689	25.331582	0.558027	-1.118210	2.189623	0.000000	-0.110204	0.000000	0.002260	-0.000929	0.000000	0.000000
49.685950	10.932183	26.039340	0.225890	-0.480673	2.155179	0.000000	-0.047908	0.000000	0.001863	-0.000876	0.000000	0.000000
50.128160	10.875145	26.172704	-0.069744	0.115716	2.148054	0.000000	0.008659	0.000000	0.001485	-0.000836	0.000000	0.000000
50.425482	10.924786	26.107317	-0.097216	0.104204	2.150877	0.000000	0.008659	0.000000	0.001237	-0.000836	0.000000	0.000000
50.758816	10.999864	26.042150	-0.128016	0.091297	2.154042	0.000000	0.008659	0.000000	0.000958	-0.000836	0.000000	0.000000
51.092149	11.095475	25.985588	-0.158816	0.078391	2.157207	0.000000	0.008659	0.000000	0.000679	-0.000836	0.000000	0.000000
51.426732	11.211866	25.937992	-0.098774	-0.144986	2.160362	0.000000	-0.008868	0.000000	0.000399	-0.000840	0.000000	0.000000
51.724055	11.278563	26.027687	-0.097932	-0.220739	2.157975	0.000000	-0.014152	0.000000	0.000150	-0.000840	0.000000	0.000000
52.165015	11.511760	25.932627	-0.433186	0.435494	2.165760	0.000000	0.047870	0.000000	-0.000220	-0.000841	0.000000	0.000000
52.605975	12.048190	25.265387	-0.788225	1.071908	2.200993	0.000000	0.110446	0.000000	-0.000593	-0.000851	0.000000	0.000000
53.046935	12.912354	24.056336	-1.179269	1.659549	2.264078	0.000000	0.174289	0.000000	-0.000973	-0.000872	0.000000	0.000000
53.487895	14.143722	22.360491	-1.624180	2.171681	2.355737	0.000000	0.240126	0.000000	-0.001363	-0.000902	0.000000	0.000000
53.933855	15.819588	20.229674	-2.147558	2.586314	2.478536	0.000000	0.309104	0.000000	-0.001774	-0.000942	0.000000	0.000000
54.482915	17.976689	17.831525	-1.758451	1.807328	2.628394	0.000000	0.234226	0.000000	-0.002274	-0.000877	0.000000	0.000000
55.031975	19.635367	16.213500	-1.245165	1.157071	2.735894	0.000000	0.155179	0.000000	-0.002734	-0.000796	0.000000	0.000000
55.581035	20.678500	15.260344	-0.643952	0.589226	2.799122	0.000000	0.073367	0.000000	-0.003145	-0.000700	0.000000	0.000000
56.130095	21.032438	14.904159	0.002725	0.063351	2.816951	0.000000	-0.009758	0.000000	-0.003501	-0.000593	0.000000	0.000000
56.428668	21.068824	14.848376	-0.068064	0.083302	2.816478	0.000000	-0.002184	0.000000	-0.003680	-0.000602	0.000000	0.000000
56.762001	21.119498	14.800376	-0.083958	0.060697	2.815951	0.000000	-0.002184	0.000000	-0.003881	-0.000602	0.000000	0.000000
57.095334	21.180768	14.767446	-0.099853	0.038092	2.815424	0.000000	-0.002184	0.000000	-0.004082	-0.000602	0.000000	0.000000
57.429918	21.252924	14.749548	-0.115807	0.015402	2.814895	0.000000	-0.002184	0.000000	-0.004283	-0.000602	0.000000	0.000000
57.727240	21.326016	14.746375	-0.187762	0.035065	2.814425	0.000000	0.005441	0.000000	-0.004462	-0.000614	0.000000	0.000000
58.276300	21.167603	14.990557	0.474262	-0.482445	2.794881	0.000000	-0.077571	0.000000	-0.004759	-0.000464	0.000000	0.000000
58.825360	20.296489	15.818404	1.102783	-1.034312	2.729988	0.000000	-0.159215	0.000000	-0.004971	-0.000307	0.000000	0.000000
59.374420	18.774198	17.288869	1.653420	-1.659838	2.620897	0.000000	-0.238040	0.000000	-0.005095	-0.000144	0.000000	0.000000
59.923480	16.708229	19.506674	2.087289	-2.403573	2.469537	0.000000	-0.312646	0.000000	-0.005128	0.000022	0.000000	0.000000
60.369440	15.089823	21.477633	1.554719	-1.997527	2.345520	0.000000	-0.243936	0.000000	-0.005148	-0.000111	0.000000	0.000000
60.810400	13.924845	23.026510	1.097337	-1.501879	2.252577	0.000000	-0.178387	0.000000	-0.005227	-0.000245	0.000000	0.000000
61.251360	13.139650	24.106385	0.690079	-0.937907	2.188121	0.000000	-0.114867	0.000000	-0.005365	-0.000382	0.000000	0.000000
61.692320	12.698374	24.668135	0.314345	-0.331269	2.151417	0.000000	-0.052650	0.000000	-0.005564	-0.000523	0.000000	0.000000
62.134530	12.580907	24.685616	-0.014599	0.226800	2.142058	0.000000	0.003434	0.000000	-0.005827	-0.000655	0.000000	0.000000
62.431853	12.596616	24.554516	-0.038237	0.214136	2.143273	0.000000	0.003434	0.000000	-0.006022	-0.000655	0.000000	0.000000
62.765186	12.630941	24.416491	-0.064738	0.199939	2.144636	0.000000	0.003434	0.000000	-0.006240	-0.000655	0.000000	0.000000
63.098520	12.682933	24.287931	-0.091239	0.185741	2.145999	0.000000	0.003434	0.000000	-0.006458	-0.000655	0.000000	0.000000
63.433103	12.752887	24.168407	-0.117839	0.171490	2.147367	0.000000	0.003434	0.000000	-0.006677	-0.000655	0.000000	0.000000
63.730426	12.829970	24.070230	-0.108008	0.095810	2.148581	0.000000	-0.002171	0.000000	-0.006872	-0.000637	0.000000	0.000000
64.171386	13.087704	23.720764	-0.479020	0.693766	2.161554	0.000000	0.059664	0.000000	-0.007193	-0.000819	0.000000	0.000000
64.612346	13.680941	22.855961	-0.871904	1.260160	2.201997	0.000000	0.122188	0.000000	-0.007595	-0.001009	0.000000	0.000000
65.053306	14.636765	21.515170	-1.304601	1.769227	2.270372	0.000000	0.186113	0.000000	-0.008084	-0.001211	0.000000	0.000000
65.494266	15.998810	19.759393	-1.796869	2.197810	2.367463	0.000000	0.252171	0.000000	-0.008665	-0.001427	0.000000	0.000000
65.940226	17.852594	17.643632	-2.375685	2.526968	2.495968	0.000000	0.321488	0.000000	-0.009353	-0.001661	0.000000	0.000000
66.489286	20.226162	15.277269	-1.923104	1.808908	2.652753	0.000000	0.245953	0.000000	-0.010179	-0.001344	0.000000	0.000000
67.038346	22.024920	13.624404	-1.334771	1.219663	2.766627	0.000000	0.166034	0.000000	-0.010825	-0.001004	0.000000	0.000000
67.587406	23.121925	12.567318	-0.652222	0.717268	2.835562	0.000000	0.083154	0.000000	-0.011279	-0.000646	0.000000	0.000000
68.136466	23.439768	12.030727	0.076360	0.265949	2.858332	0.000000	-0.001210	0.000000	-0.011532	-0.000277	0.000000	0.000000
68.435038	23.437881	11.859485	-0.003362	0.273318	2.860495	0.000000	0.006958	0.000000	-0.011624	-0.000308	0.000000	0.000000
68.768372	23.444862	11.687341	-0.017584	0.243112	2.862918	0.000000	0.006958	0.000000	-0.011727	-0.000308	0.000000	0.000000
69.101705	23.461326	11.535336	-0.031806	0.212905	2.865340	0.000000	0.006958	0.000000	-0.011830	-0.000308	0.000000	0.000000
69.436288	23.487386	11.403012	-0.046082	0.182585	2.867771	0.000000	0.006958	0.000000	-0.011933	-0.000308	0.000000	0.000000
69.733611	23.518660	11.302401	-0.126208	0.188000	2.869937	0.000000	0.015188	0.000000	-0.012024	-0.000341	0.000000	0.000000
70.282671	23.253383	11.322508	0.606482	-0.224844	2.855035	0.000000	-0.069678	0.000000	-0.012105	0.000050	0.000000	0.000000
