#ParticleID	Turn	x[m]	xp	y[m]	yp	z[m]	dE[GeV]# s	beta_x	beta_y	alpha_x	alpha_y	D_x	D_y	D_px	D_py	orbit_x	orbit_px	orbit_y	orbit_py
0.300000	11.920697	25.221616	-0.019126	-0.023081	2.605380	0.000000	0.000608	0.000000	-0.000512	0.000449	0.000000	0.000000
0.601250	11.939836	25.239123	-0.044406	-0.035032	2.605428	0.000000	0.000608	0.000000	-0.000377	0.000449	0.000000	0.000000
0.898573	11.973661	25.263461	-0.039926	-0.108760	2.605476	0.000000	-0.005796	0.000000	-0.000244	0.000450	0.000000	0.000000
1.339533	12.162295	25.079042	-0.389324	0.525391	2.618951	0.000000	0.067836	0.000000	-0.000046	0.000446	0.000000	0.000000
1.780493	12.665723	24.343796	-0.756512	1.135639	2.665035	0.000000	0.142235	0.000000	0.000151	0.000447	0.000000	0.000000
2.221453	13.506949	23.091171	-1.158266	1.694218	2.744248	0.000000	0.218249	0.000000	0.000349	0.000454	0.000000	0.000000
2.662413	14.724413	21.378157	-1.612944	2.175711	2.857492	0.000000	0.296744	0.000000	0.000552	0.000465	0.000000	0.000000
3.108373	16.394767	19.257590	-2.145669	2.559366	3.007910	0.000000	0.379105	0.000000	0.000763	0.000482	0.000000	0.000000
3.657433	18.536217	16.875626	-1.731168	1.804445	3.190672	0.000000	0.286531	0.000000	0.001020	0.000454	0.000000	0.000000
4.206493	20.152238	15.247640	-1.194371	1.178052	3.321153	0.000000	0.188881	0.000000	0.001259	0.000417	0.000000	0.000000
4.755553	21.128667	14.257677	-0.573197	0.635570	3.397041	0.000000	0.087888	0.000000	0.001476	0.000372	0.000000	0.000000
5.304613	21.396516	13.835228	0.088475	0.138358	3.416994	0.000000	-0.014658	0.000000	0.001667	0.000321	0.000000	0.000000
5.603185	21.380768	13.738003	0.019385	0.151703	3.415148	0.000000	-0.005855	0.000000	0.001764	0.000326	0.000000	0.000000
5.936519	21.373043	13.645141	0.003788	0.126881	3.413088	0.000000	-0.005855	0.000000	0.001873	0.000326	0.000000	0.000000
6.269852	21.375716	13.568828	-0.011808	0.102059	3.411028	0.000000	-0.005855	0.000000	0.001981	0.000326	0.000000	0.000000
6.604435	21.388856	13.508870	-0.027463	0.077144	3.408960	0.000000	-0.005855	0.000000	0.002090	0.000326	0.000000	0.000000
6.901758	21.409325	13.469578	-0.096281	0.089612	3.407123	0.000000	0.002883	0.000000	0.002187	0.000331	0.000000	0.000000
7.450818	21.149936	13.632569	0.566072	-0.388209	3.380476	0.000000	-0.099236	0.000000	0.002349	0.000258	0.000000	0.000000
7.999878	20.180903	14.332298	1.188443	-0.893683	3.298201	0.000000	-0.199592	0.000000	0.002470	0.000180	0.000000	0.000000
8.548938	18.570678	15.618612	1.726862	-1.462819	3.161756	0.000000	-0.296404	0.000000	0.002546	0.000099	0.000000	0.000000
9.097998	16.433013	17.583140	2.143293	-2.136155	2.973565	0.000000	-0.387956	0.000000	0.002577	0.000016	0.000000	0.000000
9.543958	14.765045	19.333497	1.610087	-1.772044	2.818770	0.000000	-0.306531	0.000000	0.002599	0.000083	0.000000	0.000000
9.984918	13.550407	20.706033	1.154839	-1.328604	2.700734	0.000000	-0.229091	0.000000	0.002651	0.000150	0.000000	0.000000
10.425878	12.712586	21.659222	0.752357	-0.824708	2.616212	0.000000	-0.154261	0.000000	0.002732	0.000220	0.000000	0.000000
10.866838	12.213302	22.149689	0.384251	-0.283285	2.564238	0.000000	-0.081191	0.000000	0.002845	0.000292	0.000000	0.000000
11.309048	12.029589	22.154563	0.062256	0.218072	2.544202	0.000000	-0.015110	0.000000	0.002990	0.000360	0.000000	0.000000
11.606371	11.999946	22.029068	0.037444	0.204013	2.539603	0.000000	-0.015110	0.000000	0.003097	0.000360	0.000000	0.000000
12.086371	11.983227	21.844110	-0.002612	0.181317	2.532177	0.000000	-0.015110	0.000000	0.003270	0.000360	0.000000	0.000000
12.566371	12.004962	21.680940	-0.042669	0.158620	2.524752	0.000000	-0.015110	0.000000	0.003442	0.000360	0.000000	0.000000
13.046371	12.065151	21.539558	-0.082725	0.135924	2.517327	0.000000	-0.015110	0.000000	0.003615	0.000360	0.000000	0.000000
13.526371	12.163794	21.419966	-0.122781	0.113228	2.509902	0.000000	-0.015110	0.000000	0.003788	0.000360	0.000000	0.000000
14.007621	12.301298	21.321935	-0.162942	0.090472	2.502457	0.000000	-0.015110	0.000000	0.003961	0.000360	0.000000	0.000000
14.304943	12.405562	21.272326	-0.158514	0.026381	2.497857	0.000000	-0.020997	0.000000	0.004068	0.000350	0.000000	0.000000
14.745903	12.704343	21.016352	-0.521442	0.551868	2.504025	0.000000	0.049774	0.000000	0.004245	0.000457	0.000000	0.000000
15.186863	13.332499	20.306256	-0.908201	1.052245	2.541449	0.000000	0.121107	0.000000	0.004472	0.000569	0.000000	0.000000
15.627823	14.318740	19.174346	-1.336467	1.504740	2.610555	0.000000	0.193813	0.000000	0.004749	0.000688	0.000000	0.000000
16.068783	15.708146	17.672123	-1.825810	1.888764	2.712126	0.000000	0.268720	0.000000	0.005080	0.000815	0.000000	0.000000
16.514743	17.587842	15.846426	-2.403459	2.187678	2.849015	0.000000	0.347159	0.000000	0.005473	0.000952	0.000000	0.000000
17.063803	20.001252	13.808422	-1.965223	1.545734	3.015500	0.000000	0.259983	0.000000	0.005946	0.000767	0.000000	0.000000
17.612863	21.853790	12.411153	-1.388122	1.013905	3.132884	0.000000	0.168208	0.000000	0.006313	0.000568	0.000000	0.000000
18.161923	23.014538	11.555087	-0.712932	0.554304	3.199089	0.000000	0.073458	0.000000	0.006568	0.000359	0.000000	0.000000
18.710983	23.401461	11.179245	0.012638	0.134191	3.212943	0.000000	-0.022590	0.000000	0.006707	0.000144	0.000000	0.000000
19.009556	23.432124	11.090880	-0.057794	0.134301	3.208511	0.000000	-0.014675	0.000000	0.006755	0.000161	0.000000	0.000000
19.342889	23.475411	11.011545	-0.072067	0.103704	3.203565	0.000000	-0.014675	0.000000	0.006809	0.000161	0.000000	0.000000
19.676223	23.528213	10.952608	-0.086340	0.073107	3.198620	0.000000	-0.014675	0.000000	0.006862	0.000161	0.000000	0.000000
20.010806	23.591074	10.913828	-0.217549	0.096469	3.193675	0.000000	0.001148	0.000000	0.006916	0.000196	0.000000	0.000000
20.308129	23.724397	10.864622	-0.289046	0.095704	3.193961	0.000000	0.008996	0.000000	0.006975	0.000213	0.000000	0.000000
20.857189	23.632745	10.979951	0.455034	-0.306969	3.172648	0.000000	-0.086316	0.000000	0.007030	-0.000014	0.000000	0.000000
21.406249	22.736730	11.546849	1.166963	-0.731512	3.099461	0.000000	-0.180098	0.000000	0.006960	-0.000240	0.000000	0.000000
21.955309	21.099673	12.605703	1.796433	-1.208168	2.975697	0.000000	-0.270688	0.000000	0.006767	-0.000463	0.000000	0.000000
22.504369	18.837265	14.231940	2.298966	-1.770894	2.803550	0.000000	-0.356484	0.000000	0.006453	-0.000677	0.000000	0.000000
22.950329	17.055709	15.692635	1.709353	-1.490390	2.662106	0.000000	-0.279278	0.000000	0.006188	-0.000513	0.000000	0.000000
23.391289	15.776262	16.858401	1.202703	-1.143020	2.555449	0.000000	-0.205723	0.000000	0.005997	-0.000356	0.000000	0.000000
23.832249	14.917879	17.693591	0.751019	-0.743637	2.480619	0.000000	-0.134509	0.000000	0.005874	-0.000203	0.000000	0.000000
24.273209	14.441326	18.160199	0.333657	-0.310413	2.436762	0.000000	-0.064824	0.000000	0.005818	-0.000052	0.000000	0.000000
24.715418	14.324922	18.236739	-0.035381	0.094621	2.423379	0.000000	-0.001488	0.000000	0.005828	0.000084	0.000000	0.000000
25.012741	14.352140	18.185364	-0.056162	0.078172	2.422912	0.000000	-0.001488	0.000000	0.005853	0.000084	0.000000	0.000000
25.346075	14.397348	18.139396	-0.079461	0.059730	2.422388	0.000000	-0.001488	0.000000	0.005881	0.000084	0.000000	0.000000
25.679408	14.458088	18.105723	-0.102759	0.041288	2.421863	0.000000	-0.001488	0.000000	0.005909	0.000084	0.000000	0.000000
26.013991	14.534381	18.084655	-0.008233	-0.123934	2.421313	0.000000	-0.021132	0.000000	0.005937	0.000036	0.000000	0.000000
26.311314	14.545344	18.163334	0.004941	-0.182619	2.415018	0.000000	-0.026716	0.000000	0.005948	0.000022	0.000000	0.000000
26.752274	14.720569	18.127562	-0.403746	0.263427	2.418318	0.000000	0.041886	0.000000	0.005992	0.000176	0.000000	0.000000
27.193234	15.263028	17.702183	-0.830885	0.697485	2.451881	0.000000	0.110962	0.000000	0.006103	0.000332	0.000000	0.000000
27.634194	16.197517	16.906552	-1.295998	1.099804	2.516088	0.000000	0.181299	0.000000	0.006285	0.000491	0.000000	0.000000
28.075154	17.566751	15.776872	-1.820343	1.452075	2.611670	0.000000	0.253696	0.000000	0.006538	0.000657	0.000000	0.000000
28.521114	19.457216	14.347464	-2.432948	1.739303	2.741326	0.000000	0.329443	0.000000	0.006869	0.000831	0.000000	0.000000
29.070174	21.860723	12.755326	-1.917760	1.177274	2.899144	0.000000	0.245895	0.000000	0.007263	0.000602	0.000000	0.000000
29.619234	23.620154	11.731015	-1.267056	0.699114	3.009945	0.000000	0.157994	0.000000	0.007528	0.000362	0.000000	0.000000
30.168294	24.611163	11.201564	-0.526816	0.270760	3.071765	0.000000	0.067295	0.000000	0.007659	0.000116	0.000000	0.000000
30.717354	24.763711	11.129257	0.250650	-0.138304	3.083511	0.000000	-0.024595	0.000000	0.007655	-0.000132	0.000000	0.000000
31.015927	24.653832	11.203732	0.177690	-0.138266	3.078446	0.000000	-0.017066	0.000000	0.007621	-0.000113	0.000000	0.000000
31.349260	24.540021	11.306016	0.163742	-0.168587	3.072795	0.000000	-0.017066	0.000000	0.007584	-0.000113	0.000000	0.000000
31.682593	24.435509	11.428514	0.149795	-0.198908	3.067145	0.000000	-0.017066	0.000000	0.007546	-0.000113	0.000000	0.000000
32.017177	24.339955	11.571800	0.135795	-0.229342	3.061472	0.000000	-0.017066	0.000000	0.007508	-0.000113	0.000000	0.000000
32.314499	24.262944	11.716199	0.064009	-0.227746	3.056434	0.000000	-0.009590	0.000000	0.007475	-0.000094	0.000000	0.000000
32.863559	23.777213	12.205184	0.815171	-0.668002	3.026330	0.000000	-0.100304	0.000000	0.007357	-0.000334	0.000000	0.000000
33.412619	22.493354	13.200813	1.508728	-1.155848	2.946953	0.000000	-0.189245	0.000000	0.007109	-0.000569	0.000000	0.000000
33.961679	20.502105	14.774008	2.095671	-1.726036	2.819707	0.000000	-0.274837	0.000000	0.006735	-0.000793	0.000000	0.000000
34.510739	17.944193	17.036836	2.534526	-2.419185	2.646846	0.000000	-0.355567	0.000000	0.006241	-0.001003	0.000000	0.000000
34.956699	15.956463	19.061059	1.937801	-2.100511	2.505049	0.000000	-0.282434	0.000000	0.005828	-0.000847	0.000000	0.000000
35.397659	14.474670	20.737771	1.434721	-1.687122	2.396249	0.000000	-0.212958	0.000000	0.005488	-0.000701	0.000000	0.000000
35.838619	13.406146	22.014492	0.997211	-1.196961	2.317465	0.000000	-0.145901	0.000000	0.005209	-0.000563	0.000000	0.000000
36.279579	12.702053	22.833132	0.605275	-0.652333	2.267804	0.000000	-0.080500	0.000000	0.004990	-0.000431	0.000000	0.000000
36.721789	12.329539	23.156757	0.269733	-0.132138	2.246675	0.000000	-0.021266	0.000000	0.004828	-0.000316	0.000000	0.000000
37.019112	12.176834	23.239217	0.243864	-0.145202	2.240447	0.000000	-0.021266	0.000000	0.004734	-0.000316	0.000000	0.000000
37.352445	12.023926	23.340900	0.214862	-0.159848	2.233464	0.000000	-0.021266	0.000000	0.004628	-0.000316	0.000000	0.000000
37.685779	11.890352	23.452347	0.185859	-0.174494	2.226481	0.000000	-0.021266	0.000000	0.004523	-0.000316	0.000000	0.000000
38.020362	11.775721	23.574032	0.156748	-0.189195	2.219471	0.000000	-0.021266	0.000000	0.004417	-0.000316	0.000000	0.000000
38.317684	11.690197	23.690433	0.158362	-0.258063	2.213242	0.000000	-0.026469	0.000000	0.004323	-0.000327	0.000000	0.000000
38.758644	11.700088	23.655523	-0.180968	0.336924	2.215659	0.000000	0.036916	0.000000	0.004203	-0.000217	0.000000	0.000000
39.199604	12.011777	23.100634	-0.528567	0.916579	2.246048	0.000000	0.100723	0.000000	0.004131	-0.000109	0.000000	0.000000
39.640564	12.639505	22.051016	-0.900318	1.454524	2.304756	0.000000	0.165679	0.000000	0.004107	-0.000003	0.000000	0.000000
40.081524	13.611957	20.554433	-1.313209	1.926282	2.392452	0.000000	0.232522	0.000000	0.004129	0.000103	0.000000	0.000000
40.527484	14.991106	18.656308	-1.789995	2.311787	2.511615	0.000000	0.302432	0.000000	0.004199	0.000211	0.000000	0.000000
41.076544	16.752952	16.522874	-1.399589	1.596527	2.656980	0.000000	0.226538	0.000000	0.004277	0.000074	0.000000	0.000000
41.625604	18.028854	15.108237	-0.910304	0.994996	2.759580	0.000000	0.146626	0.000000	0.004279	-0.000065	0.000000	0.000000
42.174664	18.728667	14.311624	-0.356709	0.464347	2.817594	0.000000	0.064112	0.000000	0.004206	-0.000202	0.000000	0.000000
42.723724	18.802950	14.076287	0.222082	-0.033224	2.829991	0.000000	-0.019542	0.000000	0.004058	-0.000336	0.000000	0.000000
43.022297	18.703539	14.081218	0.158279	-0.018852	2.826384	0.000000	-0.012402	0.000000	0.003960	-0.000326	0.000000	0.000000
43.502297	18.564218	14.115684	0.131973	-0.052952	2.820588	0.000000	-0.012402	0.000000	0.003804	-0.000326	0.000000	0.000000
43.982297	18.450152	14.182886	0.105666	-0.087052	2.814791	0.000000	-0.012402	0.000000	0.003647	-0.000326	0.000000	0.000000
44.462297	18.361339	14.282824	0.079360	-0.121152	2.808995	0.000000	-0.012402	0.000000	0.003491	-0.000326	0.000000	0.000000
44.942297	18.297781	14.415498	0.053053	-0.155252	2.803198	0.000000	-0.012402	0.000000	0.003335	-0.000326	0.000000	0.000000
45.423547	18.259636	14.581201	-0.063790	-0.117197	2.797404	0.000000	0.001458	0.000000	0.003178	-0.000310	0.000000	0.000000
45.720870	18.302435	14.657033	-0.126714	-0.100634	2.797930	0.000000	0.008578	0.000000	0.003086	-0.000302	0.000000	0.000000
46.269930	18.133243	15.050774	0.432841	-0.620686	2.780143	0.000000	-0.073947	0.000000	0.002893	-0.000399	0.000000	0.000000
46.818990	17.362780	16.036398	0.961811	-1.184951	2.717383	0.000000	-0.155167	0.000000	0.002649	-0.000489	0.000000	0.000000
47.368050	16.045485	17.684109	1.422828	-1.833622	2.610762	0.000000	-0.233643	0.000000	0.002358	-0.000570	0.000000	0.000000
47.917110	14.274430	20.111266	1.783324	-2.612902	2.462167	0.000000	-0.307983	0.000000	0.002025	-0.000641	0.000000	0.000000
48.363070	12.895383	22.268806	1.319626	-2.204620	2.340437	0.000000	-0.239401	0.000000	0.001750	-0.000592	0.000000	0.000000
48.804030	11.911411	23.996039	0.920016	-1.697366	2.249630	0.000000	-0.173945	0.000000	0.001498	-0.000550	0.000000	0.000000
49.244990	11.260085	25.240005	0.562446	-1.112882	2.187209	0.000000	-0.110463	0.000000	0.001264	-0.000514	0.000000	0.000000
49.685950	10.911640	25.944106	0.230577	-0.477763	2.152465	0.000000	-0.048234	0.000000	0.001044	-0.000485	0.000000	0.000000
50.128160	10.850313	26.076022	-0.064472	0.115775	2.145016	0.000000	0.008232	0.000000	0.000835	-0.000463	0.000000	0.000000
50.425482	10.896832	26.010613	-0.091988	0.104220	2.147601	0.000000	0.008232	0.000000	0.000698	-0.000463	0.000000	0.000000
50.758816	10.968441	25.945451	-0.122837	0.091266	2.150499	0.000000	0.008232	0.000000	0.000543	-0.000463	0.000000	0.000000
51.092149	11.060615	25.888925	-0.153686	0.078311	2.153397	0.000000	0.008232	0.000000	0.000389	-0.000463	0.000000	0.000000
51.426732	11.173590	25.841396	-0.094003	-0.144330	2.156284	0.000000	-0.009261	0.000000	0.000234	-0.000464	0.000000	0.000000
51.724055	11.237470	25.930713	-0.093315	-0.219779	2.153669	0.000000	-0.014538	0.000000	0.000096	-0.000465	0.000000	0.000000
52.165015	11.466198	25.835942	-0.427507	0.433881	2.161099	0.000000	0.047369	0.000000	-0.000108	-0.000465	0.000000	0.000000
52.605975	11.997117	25.171234	-0.781227	1.067798	2.195922	0.000000	0.109819	0.000000	-0.000314	-0.000470	0.000000	0.000000
53.046935	12.854478	23.966837	-1.170635	1.653130	2.258537	0.000000	0.173526	0.000000	-0.000524	-0.000481	0.000000	0.000000
53.487895	14.077446	22.277556	-1.613520	2.163245	2.349659	0.000000	0.239214	0.000000	-0.000739	-0.000497	0.000000	0.000000
53.933855	15.742809	20.155009	-2.134385	2.576257	2.471837	0.000000	0.308029	0.000000	-0.000966	-0.000520	0.000000	0.000000
54.482915	17.886544	17.766325	-1.747178	1.799988	2.620953	0.000000	0.233377	0.000000	-0.001242	-0.000484	0.000000	0.000000
55.031975	19.534389	16.155088	-1.236573	1.151927	2.727857	0.000000	0.154577	0.000000	-0.001496	-0.000439	0.000000	0.000000
55.581035	20.569969	15.206531	-0.638638	0.585913	2.790651	0.000000	0.073029	0.000000	-0.001723	-0.000387	0.000000	0.000000
56.130095	20.920153	14.853085	0.004396	0.061632	2.808218	0.000000	-0.009821	0.000000	-0.001920	-0.000328	0.000000	0.000000
56.428668	20.954961	14.798760	-0.065449	0.080824	2.807611	0.000000	-0.002366	0.000000	-0.002019	-0.000333	0.000000	0.000000
56.762001	21.003918	14.752435	-0.081424	0.058152	2.806933	0.000000	-0.002366	0.000000	-0.002130	-0.000333	0.000000	0.000000
57.095334	21.063526	14.721224	-0.097399	0.035481	2.806256	0.000000	-0.002366	0.000000	-0.002241	-0.000333	0.000000	0.000000
57.429918	21.134068	14.705095	-0.113435	0.012724	2.805576	0.000000	-0.002366	0.000000	-0.002353	-0.000333	0.000000	0.000000
57.727240	21.205762	14.703539	-0.184221	0.031633	2.804972	0.000000	0.005112	0.000000	-0.002452	-0.000340	0.000000	0.000000
58.276300	21.045748	14.950841	0.473759	-0.484719	2.785202	0.000000	-0.077595	0.000000	-0.002616	-0.000258	0.000000	0.000000
58.825360	20.177432	15.780653	1.098273	-1.035592	2.720289	0.000000	-0.158930	0.000000	-0.002734	-0.000171	0.000000	0.000000
59.374420	18.662144	17.252074	1.645216	-1.660222	2.611382	0.000000	-0.237450	0.000000	-0.002803	-0.000081	0.000000	0.000000
59.923480	16.606902	19.469898	2.075961	-2.403095	2.460410	0.000000	-0.311759	0.000000	-0.002823	0.000010	0.000000	0.000000
60.369440	14.997341	21.440959	1.546102	-1.998172	2.336730	0.000000	-0.243270	0.000000	-0.002835	-0.000064	0.000000	0.000000
60.810400	13.838876	22.990962	1.091072	-1.503660	2.243996	0.000000	-0.177941	0.000000	-0.002879	-0.000137	0.000000	0.000000
61.251360	13.058274	24.072916	0.685884	-0.940739	2.179627	0.000000	-0.114636	0.000000	-0.002956	-0.000212	0.000000	0.000000
61.692320	12.619875	24.637599	0.312031	-0.335019	2.142891	0.000000	-0.052635	0.000000	-0.003067	-0.000290	0.000000	0.000000
62.134530	12.503695	24.658756	-0.016080	0.223726	2.133375	0.000000	0.003380	0.000000	-0.003213	-0.000363	0.000000	0.000000
62.431853	12.520329	24.529483	-0.039865	0.211065	2.134488	0.000000	0.003380	0.000000	-0.003321	-0.000363	0.000000	0.000000
62.765186	12.555794	24.393504	-0.066531	0.196870	2.135736	0.000000	0.003380	0.000000	-0.003442	-0.000363	0.000000	0.000000
63.098520	12.609037	24.266989	-0.093197	0.182676	2.136983	0.000000	0.003380	0.000000	-0.003563	-0.000363	0.000000	0.000000
63.433103	12.680356	24.149515	-0.119962	0.168428	2.138236	0.000000	0.003380	0.000000	-0.003684	-0.000363	0.000000	0.000000
63.730426	12.758757	24.053135	-0.111349	0.094566	2.139348	0.000000	-0.002052	0.000000	-0.003792	-0.000353	0.000000	0.000000
64.171386	13.018823	23.704928	-0.480840	0.692128	2.152185	0.000000	0.059548	0.000000	-0.003970	-0.000454	0.000000	0.000000
64.612346	13.613126	22.841676	-0.872292	1.258202	2.192351	0.000000	0.121832	0.000000	-0.004193	-0.000559	0.000000	0.000000
65.053306	14.568808	21.502656	-1.303584	1.767033	2.260307	0.000000	0.185509	0.000000	-0.004463	-0.000670	0.000000	0.000000
65.494266	15.929512	19.748791	-1.794416	2.195474	2.356828	0.000000	0.251306	0.000000	-0.004785	-0.000790	0.000000	0.000000
65.940226	17.780632	17.635069	-2.371798	2.524668	2.484592	0.000000	0.320358	0.000000	-0.005166	-0.000919	0.000000	0.000000
66.489286	20.151698	15.270849	-1.921831	1.807019	2.640511	0.000000	0.245193	0.000000	-0.005623	-0.000744	0.000000	0.000000
67.038346	21.950817	13.619780	-1.336163	1.218062	2.753806	0.000000	0.165668	0.000000	-0.005980	-0.000556	0.000000	0.000000
67.587406	23.050972	12.564266	-0.656151	0.715853	2.822463	0.000000	0.083195	0.000000	-0.006231	-0.000358	0.000000	0.000000
68.136466	23.374493	12.029132	0.070187	0.264625	2.845261	0.000000	-0.000758	0.000000	-0.006372	-0.000154	0.000000	0.000000
68.435038	23.374752	11.859426	-0.006867	0.270709	2.847420	0.000000	0.007066	0.000000	-0.006423	-0.000171	0.000000	0.000000
68.768372	23.384083	11.689008	-0.021128	0.240543	2.849832	0.000000	0.007066	0.000000	-0.006480	-0.000171	0.000000	0.000000
69.101705	23.402922	11.538702	-0.035389	0.210376	2.852245	0.000000	0.007066	0.000000	-0.006537	-0.000171	0.000000	0.000000
69.436288	23.431392	11.408057	-0.049703	0.180096	2.854666	0.000000	0.007066	0.000000	-0.006594	-0.000171	0.000000	0.000000
69.733611	23.464761	11.308949	-0.127085	0.184322	2.856820	0.000000	0.014939	0.000000	-0.006645	-0.000189	0.000000	0.000000
70.282671	23.201360	11.333225	0.603968	-0.228801	2.841859	0.000000	-0.069516	0.000000	-0.006689	0.000027	0.000000	0.000000
