#ParticleID	Turn	x[m]	xp	y[m]	yp	z[m]	dE[GeV]# s	beta_x	beta_y	alpha_x	alpha_y	D_x	D_y	D_px	D_py	orbit_x	orbit_px	orbit_y	orbit_py
0.300000	11.856563	25.011448	-0.015320	-0.026552	2.615114	0.000000	0.000119	0.000000	-0.000124	0.000109	0.000000	0.000000
0.601250	11.873449	25.031076	-0.040734	-0.038605	2.615117	0.000000	0.000119	0.000000	-0.000091	0.000109	0.000000	0.000000
0.898573	11.905129	25.057570	-0.036605	-0.111945	2.615120	0.000000	-0.006297	0.000000	-0.000059	0.000109	0.000000	0.000000
1.339533	12.090068	24.878349	-0.384350	0.516832	2.628573	0.000000	0.067582	0.000000	-0.000011	0.000108	0.000000	0.000000
1.780493	12.588246	24.152886	-0.749655	1.122095	2.674742	0.000000	0.142231	0.000000	0.000037	0.000109	0.000000	0.000000
2.221453	13.422424	22.914190	-1.149211	1.676303	2.754154	0.000000	0.218498	0.000000	0.000085	0.000110	0.000000	0.000000
2.662413	14.630715	21.218619	-1.601272	2.154241	2.867711	0.000000	0.297252	0.000000	0.000134	0.000113	0.000000	0.000000
3.108373	16.289198	19.118455	-2.130807	2.535298	3.018567	0.000000	0.379881	0.000000	0.000186	0.000117	0.000000	0.000000
3.657433	18.415766	16.759695	-1.719303	1.786043	3.201845	0.000000	0.286956	0.000000	0.000248	0.000110	0.000000	0.000000
4.206493	20.020684	15.149440	-1.186353	1.164005	3.332631	0.000000	0.188943	0.000000	0.000306	0.000101	0.000000	0.000000
4.755553	20.990585	14.172996	-0.569601	0.624876	3.408607	0.000000	0.087580	0.000000	0.000359	0.000091	0.000000	0.000000
5.304613	21.256955	13.760814	0.087387	0.130256	3.428426	0.000000	-0.015334	0.000000	0.000406	0.000078	0.000000	0.000000
5.603185	21.242023	13.668301	0.017975	0.143777	3.426489	0.000000	-0.006407	0.000000	0.000429	0.000079	0.000000	0.000000
5.936519	21.235272	13.580746	0.002278	0.118886	3.424327	0.000000	-0.006407	0.000000	0.000456	0.000079	0.000000	0.000000
6.269852	21.238986	13.509786	-0.013419	0.093995	3.422165	0.000000	-0.006407	0.000000	0.000482	0.000079	0.000000	0.000000
6.604435	21.253237	13.455248	-0.029175	0.069010	3.419995	0.000000	-0.006407	0.000000	0.000509	0.000079	0.000000	0.000000
6.901758	21.274749	13.420812	-0.098515	0.081732	3.418067	0.000000	0.002484	0.000000	0.000532	0.000081	0.000000	0.000000
7.450818	21.020207	13.591731	0.559407	-0.394861	3.391223	0.000000	-0.099982	0.000000	0.000571	0.000063	0.000000	0.000000
7.999878	20.060696	14.298293	1.177817	-0.899581	3.308534	0.000000	-0.200673	0.000000	0.000601	0.000044	0.000000	0.000000
8.548938	18.463992	15.590826	1.713030	-1.468377	3.171466	0.000000	-0.297804	0.000000	0.000619	0.000024	0.000000	0.000000
9.097998	16.342882	17.561395	2.127240	-2.141764	2.982452	0.000000	-0.389653	0.000000	0.000627	0.000004	0.000000	0.000000
9.543958	14.687840	19.317299	1.597123	-1.778923	2.826966	0.000000	-0.308018	0.000000	0.000632	0.000020	0.000000	0.000000
9.984918	13.483547	20.696287	1.144298	-1.336388	2.708361	0.000000	-0.230378	0.000000	0.000645	0.000037	0.000000	0.000000
10.425878	12.654138	21.656584	0.743754	-0.833047	2.623374	0.000000	-0.155362	0.000000	0.000665	0.000053	0.000000	0.000000
10.866838	12.161719	22.154498	0.377190	-0.291803	2.571038	0.000000	-0.082116	0.000000	0.000692	0.000071	0.000000	0.000000
11.309048	11.983652	22.166849	0.056940	0.208646	2.550736	0.000000	-0.016018	0.000000	0.000727	0.000087	0.000000	0.000000
11.606371	11.957193	22.046941	0.032049	0.194649	2.545948	0.000000	-0.016018	0.000000	0.000753	0.000087	0.000000	0.000000
12.086371	11.945714	21.870924	-0.008135	0.172052	2.538217	0.000000	-0.016018	0.000000	0.000795	0.000087	0.000000	0.000000
12.566371	11.972813	21.716600	-0.048320	0.149456	2.530487	0.000000	-0.016018	0.000000	0.000837	0.000087	0.000000	0.000000
13.046371	12.038489	21.583969	-0.088504	0.126859	2.522756	0.000000	-0.016018	0.000000	0.000879	0.000087	0.000000	0.000000
13.526371	12.142741	21.473030	-0.128689	0.104263	2.515026	0.000000	-0.016018	0.000000	0.000921	0.000087	0.000000	0.000000
14.007621	12.285993	21.383580	-0.168978	0.081607	2.507275	0.000000	-0.016018	0.000000	0.000963	0.000087	0.000000	0.000000
14.304943	12.393875	21.339215	-0.163760	0.015797	2.502487	0.000000	-0.022097	0.000000	0.000989	0.000085	0.000000	0.000000
14.745903	12.697152	21.091733	-0.526567	0.543294	2.508323	0.000000	0.048783	0.000000	0.001032	0.000111	0.000000	0.000000
15.186863	13.329764	20.388198	-0.913434	1.046072	2.545497	0.000000	0.120217	0.000000	0.001087	0.000138	0.000000	0.000000
15.627823	14.320620	19.260620	-1.342035	1.501254	2.614430	0.000000	0.193020	0.000000	0.001155	0.000167	0.000000	0.000000
16.068783	15.714991	17.760304	-1.831955	1.888127	2.715907	0.000000	0.268018	0.000000	0.001235	0.000198	0.000000	0.000000
16.514743	17.600232	15.934016	-2.410364	2.189861	2.852779	0.000000	0.346535	0.000000	0.001331	0.000231	0.000000	0.000000
17.063803	20.021095	13.894826	-1.972440	1.545955	3.019223	0.000000	0.259251	0.000000	0.001446	0.000186	0.000000	0.000000
17.612863	21.881226	12.498476	-1.395181	1.012167	3.136434	0.000000	0.167372	0.000000	0.001535	0.000138	0.000000	0.000000
18.161923	23.049217	11.645507	-0.719363	0.550477	3.202332	0.000000	0.072526	0.000000	0.001597	0.000087	0.000000	0.000000
18.710983	23.442558	11.275161	0.007272	0.127997	3.215750	0.000000	-0.023605	0.000000	0.001630	0.000035	0.000000	0.000000
19.009556	23.478102	11.189483	-0.065911	0.129914	3.211165	0.000000	-0.015319	0.000000	0.001642	0.000039	0.000000	0.000000
19.342889	23.526796	11.112971	-0.080171	0.099621	3.206045	0.000000	-0.015319	0.000000	0.001655	0.000039	0.000000	0.000000
19.676223	23.584996	11.056655	-0.094430	0.069328	3.200926	0.000000	-0.015319	0.000000	0.001668	0.000039	0.000000	0.000000
20.010806	23.653267	11.020299	-0.225934	0.093524	3.195807	0.000000	0.000515	0.000000	0.001682	0.000048	0.000000	0.000000
20.308129	23.791548	10.972777	-0.300421	0.094577	3.195947	0.000000	0.008747	0.000000	0.001696	0.000052	0.000000	0.000000
20.857189	23.711142	11.090974	0.446011	-0.311115	3.174525	0.000000	-0.086613	0.000000	0.001709	-0.000003	0.000000	0.000000
21.406249	22.823544	11.664163	1.160936	-0.738967	3.101118	0.000000	-0.180437	0.000000	0.001692	-0.000058	0.000000	0.000000
21.955309	21.191458	12.733171	1.793852	-1.219457	2.977027	0.000000	-0.271061	0.000000	0.001645	-0.000112	0.000000	0.000000
22.504369	18.930179	14.374143	2.300048	-1.786810	2.804454	0.000000	-0.356879	0.000000	0.001569	-0.000164	0.000000	0.000000
22.950329	17.148612	15.847444	1.708817	-1.502857	2.662651	0.000000	-0.279679	0.000000	0.001505	-0.000125	0.000000	0.000000
23.391289	15.870564	17.022362	1.200398	-1.151403	2.555686	0.000000	-0.206123	0.000000	0.001459	-0.000086	0.000000	0.000000
23.832249	15.015132	17.862945	0.746825	-0.747560	2.480592	0.000000	-0.134914	0.000000	0.001429	-0.000049	0.000000	0.000000
24.273209	14.543227	18.330946	0.327375	-0.309702	2.436516	0.000000	-0.065241	0.000000	0.001415	-0.000012	0.000000	0.000000
24.715418	14.433395	18.404825	-0.042285	0.097645	2.422953	0.000000	-0.002173	0.000000	0.001418	0.000021	0.000000	0.000000
25.012741	14.464675	18.351610	-0.062921	0.081336	2.422301	0.000000	-0.002173	0.000000	0.001424	0.000021	0.000000	0.000000
25.346075	14.514335	18.303480	-0.086057	0.063053	2.421570	0.000000	-0.002173	0.000000	0.001431	0.000021	0.000000	0.000000
25.679408	14.579418	18.267540	-0.109193	0.044769	2.420838	0.000000	-0.002173	0.000000	0.001438	0.000021	0.000000	0.000000
26.013991	14.659959	18.244093	-0.013484	-0.121589	2.420080	0.000000	-0.021806	0.000000	0.001444	0.000009	0.000000	0.000000
26.311314	14.674007	18.321313	0.001722	-0.182437	2.413594	0.000000	-0.027644	0.000000	0.001447	0.000005	0.000000	0.000000
26.752274	14.853398	18.283504	-0.410064	0.267852	2.416505	0.000000	0.040908	0.000000	0.001458	0.000043	0.000000	0.000000
27.193234	15.402823	17.852445	-0.840586	0.705954	2.449704	0.000000	0.109925	0.000000	0.001485	0.000081	0.000000	0.000000
27.634194	16.347389	17.047750	-1.309515	1.111934	2.513567	0.000000	0.180193	0.000000	0.001529	0.000120	0.000000	0.000000
28.075154	17.730254	15.906032	-1.838278	1.467320	2.608822	0.000000	0.252512	0.000000	0.001591	0.000160	0.000000	0.000000
28.521114	19.638655	14.462035	-2.456013	1.756885	2.738157	0.000000	0.328154	0.000000	0.001671	0.000202	0.000000	0.000000
29.070174	22.064416	12.853115	-1.935645	1.190657	2.895575	0.000000	0.244730	0.000000	0.001767	0.000146	0.000000	0.000000
29.619234	23.839793	11.816053	-1.278538	0.709240	3.005956	0.000000	0.156967	0.000000	0.001832	0.000088	0.000000	0.000000
30.168294	24.839366	11.276978	-0.531113	0.278344	3.067345	0.000000	0.066421	0.000000	0.001864	0.000028	0.000000	0.000000
30.717354	24.992520	11.197492	0.253831	-0.132726	3.078651	0.000000	-0.025302	0.000000	0.001863	-0.000032	0.000000	0.000000
31.015927	24.883021	11.267598	0.177179	-0.130875	3.073469	0.000000	-0.017384	0.000000	0.001854	-0.000027	0.000000	0.000000
31.349260	24.769508	11.364878	0.163362	-0.160965	3.067683	0.000000	-0.017384	0.000000	0.001845	-0.000027	0.000000	0.000000
31.682593	24.665205	11.482218	0.149546	-0.191055	3.061897	0.000000	-0.017384	0.000000	0.001836	-0.000027	0.000000	0.000000
32.017177	24.569774	11.620172	0.135677	-0.221258	3.056090	0.000000	-0.017384	0.000000	0.001827	-0.000027	0.000000	0.000000
32.314499	24.492761	11.759721	0.060338	-0.217846	3.050929	0.000000	-0.009535	0.000000	0.001819	-0.000023	0.000000	0.000000
32.863559	24.006999	12.238207	0.819081	-0.658740	3.020825	0.000000	-0.100056	0.000000	0.001790	-0.000081	0.000000	0.000000
33.412619	22.715004	13.223630	1.519961	-1.146556	2.941464	0.000000	-0.188803	0.000000	0.001730	-0.000138	0.000000	0.000000
33.961679	20.708049	14.786182	2.113467	-1.716042	2.814252	0.000000	-0.274203	0.000000	0.001639	-0.000193	0.000000	0.000000
34.510739	18.127913	17.037162	2.557674	-2.407763	2.641444	0.000000	-0.354743	0.000000	0.001519	-0.000244	0.000000	0.000000
34.956699	16.122190	19.050558	1.955795	-2.088056	2.499688	0.000000	-0.281772	0.000000	0.001419	-0.000206	0.000000	0.000000
35.397659	14.626729	20.715897	1.448297	-1.674119	2.390905	0.000000	-0.212441	0.000000	0.001336	-0.000170	0.000000	0.000000
35.838619	13.548097	21.981055	1.006974	-1.184008	2.312119	0.000000	-0.145528	0.000000	0.001269	-0.000137	0.000000	0.000000
36.279579	12.837010	22.788467	0.611660	-0.640025	2.262433	0.000000	-0.080271	0.000000	0.001215	-0.000105	0.000000	0.000000
36.721789	12.460290	23.101704	0.274402	-0.122970	2.241254	0.000000	-0.021362	0.000000	0.001176	-0.000077	0.000000	0.000000
37.019112	12.304746	23.178712	0.248744	-0.136035	2.234926	0.000000	-0.021362	0.000000	0.001153	-0.000077	0.000000	0.000000
37.352445	12.148506	23.274284	0.219978	-0.150682	2.227830	0.000000	-0.021362	0.000000	0.001128	-0.000077	0.000000	0.000000
37.685779	12.011443	23.379621	0.191212	-0.165329	2.220735	0.000000	-0.021362	0.000000	0.001102	-0.000077	0.000000	0.000000
38.020362	11.893151	23.495173	0.162338	-0.180031	2.213613	0.000000	-0.021362	0.000000	0.001077	-0.000077	0.000000	0.000000
38.317684	11.804246	23.606113	0.165338	-0.250433	2.207284	0.000000	-0.026721	0.000000	0.001054	-0.000079	0.000000	0.000000
38.758644	11.809130	23.565498	-0.176478	0.342187	2.209467	0.000000	0.036501	0.000000	0.001025	-0.000052	0.000000	0.000000
39.199604	12.117879	23.007127	-0.526357	0.919238	2.239582	0.000000	0.100140	0.000000	0.001007	-0.000026	0.000000	0.000000
39.640564	12.744600	21.956406	-0.900284	1.454463	2.297973	0.000000	0.164920	0.000000	0.001002	-0.000000	0.000000	0.000000
40.081524	13.717928	20.461144	-1.315345	1.923509	2.385306	0.000000	0.231578	0.000000	0.001007	0.000026	0.000000	0.000000
40.527484	15.099880	18.566783	-1.794341	2.306342	2.504048	0.000000	0.301282	0.000000	0.001024	0.000052	0.000000	0.000000
41.076544	16.864140	16.437972	-1.399813	1.593680	2.648903	0.000000	0.225649	0.000000	0.001044	0.000018	0.000000	0.000000
41.625604	18.137952	15.025206	-0.906404	0.994534	2.751087	0.000000	0.146014	0.000000	0.001044	-0.000015	0.000000	0.000000
42.174664	18.831333	14.227853	-0.348970	0.466230	2.808786	0.000000	0.063788	0.000000	0.001027	-0.000049	0.000000	0.000000
42.723724	18.895305	13.989119	0.233115	-0.028865	2.820978	0.000000	-0.019570	0.000000	0.000991	-0.000082	0.000000	0.000000
43.022297	18.790214	13.991075	0.167818	-0.013946	2.817341	0.000000	-0.012260	0.000000	0.000967	-0.000079	0.000000	0.000000
43.502297	18.641716	14.020934	0.141554	-0.048260	2.811494	0.000000	-0.012260	0.000000	0.000929	-0.000079	0.000000	0.000000
43.982297	18.518431	14.083735	0.115289	-0.082575	2.805647	0.000000	-0.012260	0.000000	0.000891	-0.000079	0.000000	0.000000
44.462297	18.420361	14.179478	0.089024	-0.116889	2.799801	0.000000	-0.012260	0.000000	0.000853	-0.000079	0.000000	0.000000
44.942297	18.347504	14.308162	0.062760	-0.151203	2.793954	0.000000	-0.012260	0.000000	0.000815	-0.000079	0.000000	0.000000
45.423547	18.299997	14.470073	-0.054242	-0.113913	2.788109	0.000000	0.001554	0.000000	0.000777	-0.000075	0.000000	0.000000
45.720870	18.337097	14.543999	-0.118144	-0.096983	2.788593	0.000000	0.008794	0.000000	0.000755	-0.000073	0.000000	0.000000
46.269930	18.158030	14.931795	0.442300	-0.613470	2.770869	0.000000	-0.073424	0.000000	0.000708	-0.000097	0.000000	0.000000
46.818990	17.377108	15.907286	0.971500	-1.173655	2.708304	0.000000	-0.154342	0.000000	0.000649	-0.000119	0.000000	0.000000
47.368050	16.049496	17.539952	1.432074	-1.817437	2.602009	0.000000	-0.232523	0.000000	0.000578	-0.000139	0.000000	0.000000
47.917110	14.268978	19.946085	1.791489	-2.590673	2.453867	0.000000	-0.306583	0.000000	0.000497	-0.000156	0.000000	0.000000
48.363070	12.883046	22.085334	1.327194	-2.186090	2.332515	0.000000	-0.238217	0.000000	0.000430	-0.000144	0.000000	0.000000
48.804030	11.892631	23.798119	0.927307	-1.683327	2.242003	0.000000	-0.172962	0.000000	0.000368	-0.000134	0.000000	0.000000
49.244990	11.234945	25.031908	0.569789	-1.103973	2.179801	0.000000	-0.109676	0.000000	0.000311	-0.000125	0.000000	0.000000
49.685950	10.879938	25.730564	0.238303	-0.474389	2.145201	0.000000	-0.047637	0.000000	0.000258	-0.000118	0.000000	0.000000
50.128160	10.811528	25.862016	-0.055949	0.113473	2.137821	0.000000	0.008628	0.000000	0.000207	-0.000112	0.000000	0.000000
50.425482	10.853000	25.798002	-0.083536	0.101829	2.140420	0.000000	0.008628	0.000000	0.000174	-0.000112	0.000000	0.000000
50.758816	10.919000	25.734467	-0.114464	0.088774	2.143333	0.000000	0.008628	0.000000	0.000136	-0.000112	0.000000	0.000000
51.092149	11.005618	25.679636	-0.145392	0.075719	2.146246	0.000000	0.008628	0.000000	0.000099	-0.000112	0.000000	0.000000
51.426732	11.113071	25.633872	-0.086279	-0.145339	2.149149	0.000000	-0.008808	0.000000	0.000061	-0.000113	0.000000	0.000000
51.724055	11.172390	25.723819	-0.085841	-0.220291	2.146564	0.000000	-0.014070	0.000000	0.000028	-0.000113	0.000000	0.000000
52.165015	11.393862	25.631913	-0.418350	0.427918	2.154009	0.000000	0.047653	0.000000	-0.000022	-0.000113	0.000000	0.000000
52.605975	11.915867	24.974775	-0.769971	1.056657	2.188766	0.000000	0.109920	0.000000	-0.000072	-0.000114	0.000000	0.000000
53.046935	12.762252	23.782303	-1.156769	1.637318	2.251231	0.000000	0.173441	0.000000	-0.000123	-0.000117	0.000000	0.000000
53.487895	13.971686	22.108756	-1.596415	2.143483	2.342116	0.000000	0.238938	0.000000	-0.000175	-0.000120	0.000000	0.000000
53.933855	15.620136	20.005259	-2.113244	2.553451	2.463963	0.000000	0.307556	0.000000	-0.000230	-0.000126	0.000000	0.000000
54.482915	17.742322	17.638312	-1.729075	1.782920	2.612689	0.000000	0.233162	0.000000	-0.000297	-0.000117	0.000000	0.000000
55.031975	19.372676	16.043215	-1.222776	1.139382	2.719365	0.000000	0.154631	0.000000	-0.000358	-0.000107	0.000000	0.000000
55.581035	20.396042	15.106354	-0.630110	0.576999	2.782099	0.000000	0.073355	0.000000	-0.000413	-0.000094	0.000000	0.000000
56.130095	20.740140	14.760997	0.007061	0.055715	2.799777	0.000000	-0.009223	0.000000	-0.000461	-0.000080	0.000000	0.000000
56.428668	20.772715	14.710691	-0.061766	0.074041	2.799241	0.000000	-0.001879	0.000000	-0.000485	-0.000081	0.000000	0.000000
56.762001	20.819262	14.668925	-0.077874	0.051257	2.798641	0.000000	-0.001879	0.000000	-0.000513	-0.000081	0.000000	0.000000
57.095334	20.876548	14.642348	-0.093982	0.028474	2.798042	0.000000	-0.001879	0.000000	-0.000540	-0.000081	0.000000	0.000000
57.429918	20.944847	14.630946	-0.110150	0.005605	2.797440	0.000000	-0.001879	0.000000	-0.000567	-0.000081	0.000000	0.000000
57.727240	21.014619	14.633655	-0.179697	0.023689	2.796906	0.000000	0.005465	0.000000	-0.000591	-0.000083	0.000000	0.000000
58.276300	20.853231	14.888643	0.471852	-0.490844	2.777280	0.000000	-0.076988	0.000000	-0.000631	-0.000063	0.000000	0.000000
58.825360	19.990526	15.724413	1.090071	-1.040337	2.712680	0.000000	-0.158077	0.000000	-0.000660	-0.000042	0.000000	0.000000
59.374420	18.487441	17.200491	1.631294	-1.663931	2.604253	0.000000	-0.236363	0.000000	-0.000677	-0.000020	0.000000	0.000000
59.923480	16.450143	19.422014	2.057293	-2.406039	2.453920	0.000000	-0.310456	0.000000	-0.000682	0.000002	0.000000	0.000000
60.369440	14.855221	21.396553	1.531772	-2.002916	2.330775	0.000000	-0.242118	0.000000	-0.000685	-0.000016	0.000000	0.000000
60.810400	13.707699	22.951520	1.080443	-1.510021	2.238482	0.000000	-0.176933	0.000000	-0.000696	-0.000034	0.000000	0.000000
61.251360	12.935019	24.039725	0.678475	-0.948422	2.174470	0.000000	-0.113762	0.000000	-0.000715	-0.000052	0.000000	0.000000
61.692320	12.501879	24.611657	0.307504	-0.343672	2.138009	0.000000	-0.051887	0.000000	-0.000742	-0.000071	0.000000	0.000000
62.134530	12.388539	24.640755	-0.018915	0.215822	2.128690	0.000000	0.004140	0.000000	-0.000777	-0.000088	0.000000	0.000000
62.431853	12.406925	24.516173	-0.042923	0.203194	2.129947	0.000000	0.004140	0.000000	-0.000804	-0.000088	0.000000	0.000000
62.765186	12.444512	24.385429	-0.069839	0.189036	2.131357	0.000000	0.004140	0.000000	-0.000833	-0.000088	0.000000	0.000000
63.098520	12.500044	24.264125	-0.096756	0.174878	2.132766	0.000000	0.004140	0.000000	-0.000863	-0.000088	0.000000	0.000000
63.433103	12.573829	24.151857	-0.123773	0.160667	2.134181	0.000000	0.004140	0.000000	-0.000892	-0.000088	0.000000	0.000000
63.730426	12.654568	24.060073	-0.116480	0.088495	2.135439	0.000000	-0.001142	0.000000	-0.000919	-0.000086	0.000000	0.000000
64.171386	12.918222	23.717063	-0.483741	0.686425	2.148526	0.000000	0.060366	0.000000	-0.000962	-0.000110	0.000000	0.000000
64.612346	13.514245	22.858546	-0.873102	1.253122	2.188871	0.000000	0.122562	0.000000	-0.001016	-0.000136	0.000000	0.000000
65.053306	14.469866	21.523582	-1.302349	1.762805	2.256935	0.000000	0.186156	0.000000	-0.001082	-0.000163	0.000000	0.000000
65.494266	15.828739	19.772912	-1.791092	2.192284	2.353494	0.000000	0.251871	0.000000	-0.001160	-0.000192	0.000000	0.000000
65.940226	17.676130	17.661415	-2.366331	2.522745	2.481220	0.000000	0.320856	0.000000	-0.001253	-0.000223	0.000000	0.000000
66.489286	20.043617	15.299330	-1.920225	1.804782	2.637114	0.000000	0.245790	0.000000	-0.001364	-0.000181	0.000000	0.000000
67.038346	21.843416	13.650851	-1.338496	1.215365	2.750510	0.000000	0.166361	0.000000	-0.001450	-0.000135	0.000000	0.000000
67.587406	22.948414	12.598565	-0.662232	0.712513	2.819395	0.000000	0.083980	0.000000	-0.001512	-0.000087	0.000000	0.000000
68.136466	23.280570	12.067518	0.060805	0.260409	2.842546	0.000000	0.000107	0.000000	-0.001546	-0.000038	0.000000	0.000000
68.435038	23.284880	11.900961	-0.013633	0.265496	2.844836	0.000000	0.007630	0.000000	-0.001558	-0.000042	0.000000	0.000000
68.768372	23.298741	11.733958	-0.027951	0.235513	2.847393	0.000000	0.007630	0.000000	-0.001572	-0.000042	0.000000	0.000000
69.101705	23.322147	11.586944	-0.042269	0.205530	2.849951	0.000000	0.007630	0.000000	-0.001586	-0.000042	0.000000	0.000000
69.436288	23.355241	11.459480	-0.056641	0.175434	2.852517	0.000000	0.007630	0.000000	-0.001600	-0.000042	0.000000	0.000000
69.733611	23.392721	11.363110	-0.131355	0.178771	2.854798	0.000000	0.015189	0.000000	-0.001613	-0.000046	0.000000	0.000000
70.282671	23.135224	11.394350	0.597554	-0.236006	2.839956	0.000000	-0.069214	0.000000	-0.001623	0.000006	0.000000	0.000000
