#ParticleID	Turn	x[m]	xp	y[m]	yp	z[m]	dE[GeV]# s	beta_x	beta_y	alpha_x	alpha_y	D_x	D_y	D_px	D_py	orbit_x	orbit_px	orbit_y	orbit_py
0.300000	11.918578	25.215169	-0.019025	-0.023184	2.605702	0.000000	0.000599	0.000000	-0.000498	0.000437	0.000000	0.000000
0.601250	11.937658	25.232739	-0.044310	-0.035138	2.605751	0.000000	0.000599	0.000000	-0.000367	0.000437	0.000000	0.000000
0.898573	11.971426	25.257141	-0.039842	-0.108854	2.605799	0.000000	-0.005806	0.000000	-0.000237	0.000437	0.000000	0.000000
1.339533	12.159961	25.072878	-0.389186	0.525132	2.619278	0.000000	0.067834	0.000000	-0.000045	0.000434	0.000000	0.000000
1.780493	12.663240	24.337929	-0.756315	1.135227	2.665367	0.000000	0.142242	0.000000	0.000146	0.000435	0.000000	0.000000
2.221453	13.504261	23.085729	-1.158001	1.693671	2.744591	0.000000	0.218265	0.000000	0.000340	0.000441	0.000000	0.000000
2.662413	14.721454	21.373249	-1.612597	2.175055	2.857850	0.000000	0.296769	0.000000	0.000536	0.000453	0.000000	0.000000
3.108373	16.391452	19.253306	-2.145224	2.558629	3.008286	0.000000	0.379139	0.000000	0.000742	0.000469	0.000000	0.000000
3.657433	18.532459	16.872052	-1.730819	1.803882	3.191070	0.000000	0.286552	0.000000	0.000992	0.000441	0.000000	0.000000
4.206493	20.148158	15.244608	-1.194144	1.177623	3.321565	0.000000	0.188890	0.000000	0.001225	0.000405	0.000000	0.000000
4.755553	21.124407	14.255057	-0.573107	0.635244	3.397460	0.000000	0.087884	0.000000	0.001436	0.000362	0.000000	0.000000
5.304613	21.392234	13.832920	0.088421	0.138113	3.417412	0.000000	-0.014676	0.000000	0.001621	0.000313	0.000000	0.000000
5.603185	21.376526	13.735836	0.019316	0.151465	3.415565	0.000000	-0.005868	0.000000	0.001716	0.000317	0.000000	0.000000
5.936519	21.368848	13.643134	0.003717	0.126641	3.413503	0.000000	-0.005868	0.000000	0.001821	0.000317	0.000000	0.000000
6.269852	21.371570	13.566981	-0.011882	0.101817	3.411441	0.000000	-0.005868	0.000000	0.001927	0.000317	0.000000	0.000000
6.604435	21.384760	13.507185	-0.027540	0.076900	3.409372	0.000000	-0.005868	0.000000	0.002033	0.000317	0.000000	0.000000
6.901758	21.405276	13.468039	-0.096379	0.089378	3.407533	0.000000	0.002875	0.000000	0.002127	0.000322	0.000000	0.000000
7.450818	21.146066	13.631263	0.565842	-0.388403	3.380883	0.000000	-0.099258	0.000000	0.002285	0.000251	0.000000	0.000000
7.999878	20.177351	14.331190	1.188095	-0.893852	3.298595	0.000000	-0.199626	0.000000	0.002402	0.000175	0.000000	0.000000
8.548938	18.567561	15.617679	1.726423	-1.462974	3.162131	0.000000	-0.296450	0.000000	0.002476	0.000096	0.000000	0.000000
9.097998	16.430415	17.582373	2.142794	-2.136307	2.973913	0.000000	-0.388014	0.000000	0.002507	0.000015	0.000000	0.000000
9.543958	14.762851	19.332883	1.609681	-1.772238	2.819094	0.000000	-0.306581	0.000000	0.002528	0.000080	0.000000	0.000000
9.984918	13.548538	20.705602	1.154505	-1.328828	2.701040	0.000000	-0.229132	0.000000	0.002578	0.000146	0.000000	0.000000
10.425878	12.710987	21.658997	0.752079	-0.824952	2.616503	0.000000	-0.154295	0.000000	0.002657	0.000214	0.000000	0.000000
10.866838	12.211927	22.149683	0.384017	-0.283539	2.564520	0.000000	-0.081217	0.000000	0.002767	0.000284	0.000000	0.000000
11.309048	12.028404	22.154782	0.062075	0.217780	2.544477	0.000000	-0.015135	0.000000	0.002908	0.000350	0.000000	0.000000
11.606371	11.998869	22.029459	0.037261	0.203724	2.539873	0.000000	-0.015135	0.000000	0.003012	0.000350	0.000000	0.000000
12.086371	11.982326	21.844777	-0.002798	0.181030	2.532440	0.000000	-0.015135	0.000000	0.003180	0.000350	0.000000	0.000000
12.566371	12.004241	21.681881	-0.042857	0.158337	2.525008	0.000000	-0.015135	0.000000	0.003348	0.000350	0.000000	0.000000
13.046371	12.064612	21.540770	-0.082917	0.135644	2.517575	0.000000	-0.015135	0.000000	0.003516	0.000350	0.000000	0.000000
13.526371	12.163441	21.421445	-0.122976	0.112950	2.510143	0.000000	-0.015135	0.000000	0.003684	0.000350	0.000000	0.000000
14.007621	12.301134	21.323680	-0.163140	0.090198	2.502691	0.000000	-0.015135	0.000000	0.003852	0.000350	0.000000	0.000000
14.304943	12.405516	21.274234	-0.158681	0.026044	2.498086	0.000000	-0.021029	0.000000	0.003956	0.000340	0.000000	0.000000
14.745903	12.704443	21.018532	-0.521613	0.551590	2.504246	0.000000	0.049747	0.000000	0.004129	0.000444	0.000000	0.000000
15.186863	13.332750	20.308652	-0.908383	1.052037	2.541666	0.000000	0.121085	0.000000	0.004349	0.000554	0.000000	0.000000
15.627823	14.319155	19.176892	-1.336667	1.504613	2.610770	0.000000	0.193797	0.000000	0.004618	0.000669	0.000000	0.000000
16.068783	15.708743	17.674747	-1.826038	1.888723	2.712344	0.000000	0.268709	0.000000	0.004940	0.000793	0.000000	0.000000
16.514743	17.588647	15.849053	-2.403721	2.187723	2.849240	0.000000	0.347153	0.000000	0.005323	0.000926	0.000000	0.000000
17.063803	20.002332	13.811035	-1.965482	1.545723	3.015732	0.000000	0.259971	0.000000	0.005783	0.000746	0.000000	0.000000
17.612863	21.855136	12.413812	-1.388362	1.013836	3.133116	0.000000	0.168189	0.000000	0.006139	0.000553	0.000000	0.000000
18.161923	23.016122	11.557857	-0.713136	0.554173	3.199315	0.000000	0.073431	0.000000	0.006388	0.000350	0.000000	0.000000
18.710983	23.403239	11.182198	0.012483	0.133989	3.213156	0.000000	-0.022623	0.000000	0.006522	0.000140	0.000000	0.000000
19.009556	23.434057	11.093919	-0.058050	0.134161	3.208720	0.000000	-0.014694	0.000000	0.006569	0.000157	0.000000	0.000000
19.342889	23.477514	11.014674	-0.072322	0.103574	3.203770	0.000000	-0.014694	0.000000	0.006621	0.000157	0.000000	0.000000
19.676223	23.530486	10.955821	-0.086594	0.072986	3.198819	0.000000	-0.014694	0.000000	0.006674	0.000157	0.000000	0.000000
20.010806	23.593518	10.917118	-0.217815	0.096374	3.193870	0.000000	0.001130	0.000000	0.006726	0.000190	0.000000	0.000000
20.308129	23.726997	10.867967	-0.289421	0.095673	3.194151	0.000000	0.008993	0.000000	0.006783	0.000208	0.000000	0.000000
20.857189	23.635709	10.983380	0.454749	-0.307094	3.172837	0.000000	-0.086326	0.000000	0.006836	-0.000013	0.000000	0.000000
21.406249	22.739953	11.550468	1.166788	-0.731738	3.099641	0.000000	-0.180113	0.000000	0.006769	-0.000234	0.000000	0.000000
21.955309	21.103030	12.609630	1.796382	-1.208512	2.975863	0.000000	-0.270708	0.000000	0.006581	-0.000450	0.000000	0.000000
22.504369	18.840618	14.236316	2.299043	-1.771379	2.803696	0.000000	-0.356508	0.000000	0.006276	-0.000658	0.000000	0.000000
22.950329	17.059031	15.697393	1.709369	-1.490769	2.662235	0.000000	-0.279299	0.000000	0.006018	-0.000499	0.000000	0.000000
23.391289	15.779604	16.863437	1.202653	-1.143274	2.555565	0.000000	-0.205742	0.000000	0.005832	-0.000346	0.000000	0.000000
23.832249	14.921298	17.698788	0.750900	-0.743753	2.480723	0.000000	-0.134525	0.000000	0.005712	-0.000197	0.000000	0.000000
24.273209	14.444883	18.165436	0.333465	-0.310387	2.436858	0.000000	-0.064838	0.000000	0.005658	-0.000051	0.000000	0.000000
24.715418	14.328685	18.241892	-0.035592	0.094707	2.423470	0.000000	-0.001510	0.000000	0.005668	0.000082	0.000000	0.000000
25.012741	14.356027	18.190464	-0.056368	0.078262	2.422997	0.000000	-0.001510	0.000000	0.005692	0.000082	0.000000	0.000000
25.346075	14.401370	18.144435	-0.079661	0.059825	2.422467	0.000000	-0.001510	0.000000	0.005720	0.000082	0.000000	0.000000
25.679408	14.462242	18.110697	-0.102954	0.041388	2.421936	0.000000	-0.001510	0.000000	0.005747	0.000082	0.000000	0.000000
26.013991	14.538663	18.089560	-0.008387	-0.123869	2.421379	0.000000	-0.021153	0.000000	0.005774	0.000035	0.000000	0.000000
26.311314	14.549717	18.168198	0.004860	-0.182632	2.415078	0.000000	-0.026747	0.000000	0.005785	0.000021	0.000000	0.000000
26.752274	14.725058	18.132379	-0.403931	0.263545	2.418366	0.000000	0.041855	0.000000	0.005827	0.000171	0.000000	0.000000
27.193234	15.267727	17.706841	-0.831183	0.697729	2.451918	0.000000	0.110933	0.000000	0.005936	0.000323	0.000000	0.000000
27.634194	16.202529	16.910946	-1.296422	1.100162	2.516117	0.000000	0.181270	0.000000	0.006112	0.000478	0.000000	0.000000
28.075154	17.572193	15.780908	-1.820912	1.452532	2.611693	0.000000	0.253668	0.000000	0.006358	0.000639	0.000000	0.000000
28.521114	19.463227	14.351062	-2.433684	1.739834	2.741345	0.000000	0.329414	0.000000	0.006681	0.000808	0.000000	0.000000
29.070174	21.867438	12.758420	-1.918322	1.177675	2.899157	0.000000	0.245866	0.000000	0.007064	0.000585	0.000000	0.000000
29.619234	23.627363	11.733728	-1.267406	0.699414	3.009948	0.000000	0.157965	0.000000	0.007321	0.000352	0.000000	0.000000
30.168294	24.618622	11.203995	-0.526930	0.270980	3.071756	0.000000	0.067267	0.000000	0.007449	0.000113	0.000000	0.000000
30.717354	24.771161	11.131483	0.250780	-0.138149	3.083487	0.000000	-0.024622	0.000000	0.007445	-0.000129	0.000000	0.000000
31.015927	24.661287	11.205827	0.177687	-0.138046	3.078418	0.000000	-0.017078	0.000000	0.007412	-0.000110	0.000000	0.000000
31.349260	24.547477	11.307962	0.163744	-0.168359	3.072762	0.000000	-0.017078	0.000000	0.007375	-0.000110	0.000000	0.000000
31.682593	24.442962	11.430306	0.149800	-0.198672	3.067106	0.000000	-0.017078	0.000000	0.007339	-0.000110	0.000000	0.000000
32.017177	24.347403	11.573432	0.135805	-0.229099	3.061429	0.000000	-0.017078	0.000000	0.007302	-0.000110	0.000000	0.000000
32.314499	24.270383	11.717686	0.063891	-0.227438	3.056386	0.000000	-0.009588	0.000000	0.007270	-0.000091	0.000000	0.000000
32.863559	23.784651	12.206345	0.815298	-0.667717	3.026281	0.000000	-0.100300	0.000000	0.007155	-0.000325	0.000000	0.000000
33.412619	22.500529	13.201661	1.509092	-1.155565	2.946900	0.000000	-0.189239	0.000000	0.006914	-0.000553	0.000000	0.000000
33.961679	20.508773	14.774535	2.096247	-1.725735	2.819649	0.000000	-0.274829	0.000000	0.006550	-0.000771	0.000000	0.000000
34.510739	17.950143	17.037007	2.535275	-2.418845	2.646781	0.000000	-0.355555	0.000000	0.006069	-0.000976	0.000000	0.000000
34.956699	15.961833	19.060904	1.938384	-2.100135	2.504977	0.000000	-0.282425	0.000000	0.005669	-0.000823	0.000000	0.000000
35.397659	14.479597	20.737270	1.435161	-1.686725	2.396171	0.000000	-0.212952	0.000000	0.005337	-0.000681	0.000000	0.000000
35.838619	13.410747	22.013636	0.997527	-1.196561	2.317383	0.000000	-0.145897	0.000000	0.005066	-0.000547	0.000000	0.000000
36.279579	12.706426	22.831926	0.605483	-0.651948	2.267717	0.000000	-0.080498	0.000000	0.004853	-0.000419	0.000000	0.000000
36.721789	12.333776	23.155224	0.269889	-0.131857	2.246585	0.000000	-0.021273	0.000000	0.004695	-0.000308	0.000000	0.000000
37.019112	12.180977	23.237516	0.244027	-0.144921	2.240351	0.000000	-0.021273	0.000000	0.004604	-0.000308	0.000000	0.000000
37.352445	12.027957	23.339012	0.215032	-0.159567	2.233363	0.000000	-0.021273	0.000000	0.004501	-0.000308	0.000000	0.000000
37.685779	11.894267	23.450272	0.186038	-0.174213	2.226374	0.000000	-0.021273	0.000000	0.004399	-0.000308	0.000000	0.000000
38.020362	11.779514	23.571768	0.156934	-0.188914	2.219360	0.000000	-0.021273	0.000000	0.004296	-0.000308	0.000000	0.000000
38.317684	11.693877	23.688001	0.158597	-0.257839	2.213126	0.000000	-0.026482	0.000000	0.004204	-0.000318	0.000000	0.000000
38.758644	11.703599	23.652924	-0.180814	0.337079	2.215533	0.000000	0.036899	0.000000	0.004088	-0.000211	0.000000	0.000000
39.199604	12.015184	23.097932	-0.528485	0.916658	2.245912	0.000000	0.100703	0.000000	0.004018	-0.000106	0.000000	0.000000
39.640564	12.642869	22.048281	-0.900305	1.454525	2.304609	0.000000	0.165654	0.000000	0.003994	-0.000003	0.000000	0.000000
40.081524	13.615339	20.551734	-1.313264	1.926204	2.392293	0.000000	0.232493	0.000000	0.004016	0.000100	0.000000	0.000000
40.527484	14.994564	18.653718	-1.790118	2.311631	2.511444	0.000000	0.302399	0.000000	0.004084	0.000205	0.000000	0.000000
41.076544	16.756469	16.520416	-1.399580	1.596446	2.656795	0.000000	0.226511	0.000000	0.004160	0.000072	0.000000	0.000000
41.625604	18.032288	15.105832	-0.910164	0.994985	2.759382	0.000000	0.146606	0.000000	0.004162	-0.000063	0.000000	0.000000
42.174664	18.731880	14.309196	-0.356449	0.464403	2.817384	0.000000	0.064099	0.000000	0.004091	-0.000197	0.000000	0.000000
42.723724	18.805820	14.073759	0.222446	-0.033095	2.829771	0.000000	-0.019548	0.000000	0.003947	-0.000327	0.000000	0.000000
43.022297	18.706225	14.078598	0.158590	-0.018701	2.826162	0.000000	-0.012402	0.000000	0.003852	-0.000317	0.000000	0.000000
43.502297	18.566605	14.112922	0.132284	-0.052807	2.820362	0.000000	-0.012402	0.000000	0.003700	-0.000317	0.000000	0.000000
43.982297	18.452239	14.179988	0.105979	-0.086913	2.814561	0.000000	-0.012402	0.000000	0.003548	-0.000317	0.000000	0.000000
44.462297	18.363126	14.279795	0.079674	-0.121020	2.808760	0.000000	-0.012402	0.000000	0.003396	-0.000317	0.000000	0.000000
44.942297	18.299265	14.412345	0.053368	-0.155126	2.802959	0.000000	-0.012402	0.000000	0.003244	-0.000317	0.000000	0.000000
45.423547	18.260817	14.577929	-0.063480	-0.117093	2.797161	0.000000	0.001457	0.000000	0.003091	-0.000302	0.000000	0.000000
45.720870	18.303430	14.653701	-0.126439	-0.100513	2.797684	0.000000	0.008581	0.000000	0.003001	-0.000294	0.000000	0.000000
46.269930	18.133924	15.047252	0.433141	-0.620460	2.779895	0.000000	-0.073936	0.000000	0.002814	-0.000388	0.000000	0.000000
46.818990	17.363131	16.032561	0.962115	-1.184603	2.717138	0.000000	-0.155148	0.000000	0.002577	-0.000475	0.000000	0.000000
47.368050	16.045515	17.679809	1.423114	-1.833126	2.610523	0.000000	-0.233615	0.000000	0.002293	-0.000554	0.000000	0.000000
47.917110	14.274170	20.106324	1.783573	-2.612224	2.461936	0.000000	-0.307948	0.000000	0.001970	-0.000623	0.000000	0.000000
48.363070	12.894913	22.263304	1.319859	-2.204052	2.340213	0.000000	-0.239372	0.000000	0.001703	-0.000576	0.000000	0.000000
48.804030	11.910742	23.990092	0.920242	-1.696932	2.249411	0.000000	-0.173921	0.000000	0.001458	-0.000535	0.000000	0.000000
49.244990	11.259219	25.233741	0.562675	-1.112601	2.186993	0.000000	-0.110445	0.000000	0.001230	-0.000500	0.000000	0.000000
49.685950	10.910568	25.937668	0.230820	-0.477648	2.152251	0.000000	-0.048222	0.000000	0.001016	-0.000471	0.000000	0.000000
50.128160	10.849017	26.069559	-0.064201	0.115715	2.144800	0.000000	0.008238	0.000000	0.000813	-0.000450	0.000000	0.000000
50.425482	10.895376	26.004185	-0.091720	0.104158	2.147383	0.000000	0.008238	0.000000	0.000679	-0.000450	0.000000	0.000000
50.758816	10.966806	25.939066	-0.122571	0.091200	2.150279	0.000000	0.008238	0.000000	0.000529	-0.000450	0.000000	0.000000
51.092149	11.058804	25.882585	-0.153423	0.078243	2.153175	0.000000	0.008238	0.000000	0.000379	-0.000450	0.000000	0.000000
51.426732	11.171604	25.835104	-0.093759	-0.144351	2.156060	0.000000	-0.009253	0.000000	0.000229	-0.000452	0.000000	0.000000
51.724055	11.235340	25.924434	-0.093079	-0.219784	2.153444	0.000000	-0.014529	0.000000	0.000094	-0.000452	0.000000	0.000000
52.165015	11.463838	25.829740	-0.427216	0.433711	2.160871	0.000000	0.047371	0.000000	-0.000105	-0.000452	0.000000	0.000000
52.605975	11.994473	25.165253	-0.780867	1.067470	2.195688	0.000000	0.109816	0.000000	-0.000305	-0.000457	0.000000	0.000000
53.046935	12.851483	23.961210	-1.170191	1.652659	2.258295	0.000000	0.173517	0.000000	-0.000509	-0.000468	0.000000	0.000000
53.487895	14.074018	22.272398	-1.612972	2.162653	2.349405	0.000000	0.239198	0.000000	-0.000719	-0.000484	0.000000	0.000000
53.933855	15.738839	20.150424	-2.133707	2.575570	2.471570	0.000000	0.308007	0.000000	-0.000939	-0.000505	0.000000	0.000000
54.482915	17.881883	17.762393	-1.746598	1.799476	2.620668	0.000000	0.233363	0.000000	-0.001207	-0.000470	0.000000	0.000000
55.031975	19.529170	16.151639	-1.236133	1.151553	2.727561	0.000000	0.154573	0.000000	-0.001454	-0.000427	0.000000	0.000000
55.581035	20.564361	15.203428	-0.638368	0.585650	2.790349	0.000000	0.073034	0.000000	-0.001675	-0.000377	0.000000	0.000000
56.130095	20.914354	14.850218	0.004478	0.061463	2.807916	0.000000	-0.009806	0.000000	-0.001866	-0.000319	0.000000	0.000000
56.428668	20.949091	14.796011	-0.065332	0.080624	2.807310	0.000000	-0.002355	0.000000	-0.001963	-0.000324	0.000000	0.000000
56.762001	20.997972	14.749820	-0.081311	0.057949	2.806633	0.000000	-0.002355	0.000000	-0.002071	-0.000324	0.000000	0.000000
57.095334	21.057506	14.718746	-0.097291	0.035274	2.805956	0.000000	-0.002355	0.000000	-0.002179	-0.000324	0.000000	0.000000
57.429918	21.127976	14.702757	-0.113330	0.012514	2.805276	0.000000	-0.002355	0.000000	-0.002287	-0.000324	0.000000	0.000000
57.727240	21.199609	14.701326	-0.184073	0.031394	2.804673	0.000000	0.005119	0.000000	-0.002384	-0.000330	0.000000	0.000000
58.276300	21.039547	14.948859	0.473700	-0.484900	2.784905	0.000000	-0.077579	0.000000	-0.002544	-0.000251	0.000000	0.000000
58.825360	20.171409	15.778844	1.098012	-1.035728	2.720000	0.000000	-0.158905	0.000000	-0.002658	-0.000166	0.000000	0.000000
59.374420	18.656511	17.250395	1.644770	-1.660322	2.611107	0.000000	-0.237416	0.000000	-0.002726	-0.000079	0.000000	0.000000
59.923480	16.601843	19.468317	2.075363	-2.403168	2.460155	0.000000	-0.311717	0.000000	-0.002745	0.000009	0.000000	0.000000
60.369440	14.992752	21.439470	1.545643	-1.998302	2.336492	0.000000	-0.243234	0.000000	-0.002756	-0.000062	0.000000	0.000000
60.810400	13.834638	22.989613	1.090731	-1.503843	2.243772	0.000000	-0.177910	0.000000	-0.002799	-0.000133	0.000000	0.000000
61.251360	13.054289	24.071750	0.685648	-0.940965	2.179413	0.000000	-0.114611	0.000000	-0.002874	-0.000207	0.000000	0.000000
61.692320	12.616057	24.636649	0.311887	-0.335279	2.142684	0.000000	-0.052616	0.000000	-0.002982	-0.000282	0.000000	0.000000
62.134530	12.499965	24.658046	-0.016171	0.223493	2.133171	0.000000	0.003400	0.000000	-0.003124	-0.000353	0.000000	0.000000
62.431853	12.516656	24.528911	-0.039964	0.210832	2.134287	0.000000	0.003400	0.000000	-0.003229	-0.000353	0.000000	0.000000
62.765186	12.552189	24.393087	-0.066637	0.196639	2.135538	0.000000	0.003400	0.000000	-0.003347	-0.000353	0.000000	0.000000
63.098520	12.605505	24.266726	-0.093311	0.182445	2.136789	0.000000	0.003400	0.000000	-0.003464	-0.000353	0.000000	0.000000
63.433103	12.676904	24.149406	-0.120085	0.168199	2.138044	0.000000	0.003400	0.000000	-0.003582	-0.000353	0.000000	0.000000
63.730426	12.755381	24.053161	-0.111517	0.094398	2.139160	0.000000	-0.002027	0.000000	-0.003687	-0.000344	0.000000	0.000000
64.171386	13.015565	23.705101	-0.480936	0.691966	2.152001	0.000000	0.059569	0.000000	-0.003860	-0.000441	0.000000	0.000000
64.612346	13.609927	22.841984	-0.872321	1.258053	2.192169	0.000000	0.121848	0.000000	-0.004077	-0.000543	0.000000	0.000000
65.053306	14.565610	21.503085	-1.303547	1.766904	2.260124	0.000000	0.185520	0.000000	-0.004340	-0.000652	0.000000	0.000000
65.494266	15.926258	19.749319	-1.794312	2.195370	2.356641	0.000000	0.251312	0.000000	-0.004653	-0.000768	0.000000	0.000000
65.940226	17.777261	17.635673	-2.371626	2.524598	2.484397	0.000000	0.320361	0.000000	-0.005023	-0.000893	0.000000	0.000000
66.489286	20.148217	15.271527	-1.921783	1.806944	2.640307	0.000000	0.245202	0.000000	-0.005468	-0.000723	0.000000	0.000000
67.038346	21.947364	13.620541	-1.336242	1.217978	2.753599	0.000000	0.165683	0.000000	-0.005815	-0.000541	0.000000	0.000000
67.587406	23.047679	12.565124	-0.656350	0.715754	2.822260	0.000000	0.083216	0.000000	-0.006059	-0.000348	0.000000	0.000000
68.136466	23.371482	12.030109	0.069883	0.264504	2.845067	0.000000	-0.000731	0.000000	-0.006196	-0.000150	0.000000	0.000000
68.435038	23.371868	11.860498	-0.007077	0.270551	2.847230	0.000000	0.007082	0.000000	-0.006246	-0.000166	0.000000	0.000000
68.768372	23.381340	11.690184	-0.021340	0.240389	2.849646	0.000000	0.007082	0.000000	-0.006301	-0.000166	0.000000	0.000000
69.101705	23.400322	11.539979	-0.035603	0.210227	2.852062	0.000000	0.007082	0.000000	-0.006357	-0.000166	0.000000	0.000000
69.436288	23.428936	11.409431	-0.049920	0.179953	2.854487	0.000000	0.007082	0.000000	-0.006412	-0.000166	0.000000	0.000000
69.733611	23.462432	11.310408	-0.127206	0.184145	2.856644	0.000000	0.014943	0.000000	-0.006462	-0.000184	0.000000	0.000000
70.282671	23.199203	11.334903	0.603778	-0.229024	2.841685	0.000000	-0.069506	0.000000	-0.006505	0.000026	0.000000	0.000000
