#ParticleID	Turn	x[m]	xp	y[m]	yp	z[m]	dE[GeV]# s	beta_x	beta_y	alpha_x	alpha_y	D_x	D_y	D_px	D_py	orbit_x	orbit_px	orbit_y	orbit_py
0.300000	11.965522	25.319604	-0.019029	-0.022030	2.598456	0.000000	0.000078	0.000000	-0.000995	0.000859	0.000000	0.000000
0.601250	11.984574	25.336464	-0.044215	-0.033934	2.598221	0.000000	0.000078	0.000000	-0.000737	0.000859	0.000000	0.000000
0.898573	12.018257	25.360136	-0.039466	-0.107844	2.597989	0.000000	-0.006322	0.000000	-0.000481	0.000860	0.000000	0.000000
1.339533	12.206992	25.173785	-0.389872	0.528840	2.611016	0.000000	0.067110	0.000000	-0.000104	0.000853	0.000000	0.000000
1.780493	12.711422	24.434433	-0.758098	1.141465	2.656560	0.000000	0.141298	0.000000	0.000272	0.000855	0.000000	0.000000
2.221453	13.554602	23.175711	-1.160965	1.702157	2.735138	0.000000	0.217085	0.000000	0.000651	0.000867	0.000000	0.000000
2.662413	14.775064	21.454883	-1.616883	2.185403	2.847640	0.000000	0.295336	0.000000	0.001038	0.000889	0.000000	0.000000
3.108373	16.449662	19.325025	-2.151058	2.570389	2.997188	0.000000	0.377432	0.000000	0.001441	0.000921	0.000000	0.000000
3.657433	18.596207	16.932463	-1.734741	1.812787	3.178908	0.000000	0.285219	0.000000	0.001932	0.000866	0.000000	0.000000
4.206493	20.215174	15.296483	-1.195864	1.184309	3.308570	0.000000	0.187961	0.000000	0.002389	0.000796	0.000000	0.000000
4.755553	21.192174	14.300566	-0.572492	0.640188	3.383878	0.000000	0.087381	0.000000	0.002804	0.000712	0.000000	0.000000
5.304613	21.458166	13.873782	0.091338	0.141667	3.403504	0.000000	-0.014738	0.000000	0.003169	0.000615	0.000000	0.000000
5.603185	21.440361	13.774823	0.022839	0.154630	3.401501	0.000000	-0.006083	0.000000	0.003355	0.000623	0.000000	0.000000
5.936519	21.430321	13.679995	0.007284	0.129853	3.399265	0.000000	-0.006083	0.000000	0.003562	0.000623	0.000000	0.000000
6.269852	21.430650	13.601686	-0.008272	0.105075	3.397030	0.000000	-0.006083	0.000000	0.003770	0.000623	0.000000	0.000000
6.604435	21.441409	13.539694	-0.023885	0.080205	3.394786	0.000000	-0.006083	0.000000	0.003979	0.000623	0.000000	0.000000
6.901758	21.459748	13.498564	-0.091850	0.092253	3.392793	0.000000	0.002469	0.000000	0.004164	0.000634	0.000000	0.000000
7.450818	21.194677	13.659111	0.572080	-0.386364	3.365904	0.000000	-0.099189	0.000000	0.004474	0.000494	0.000000	0.000000
7.999878	20.218404	14.357213	1.195605	-0.892507	3.283675	0.000000	-0.199079	0.000000	0.004705	0.000345	0.000000	0.000000
8.548938	18.599898	15.642604	1.734668	-1.462230	3.147566	0.000000	-0.295432	0.000000	0.004852	0.000190	0.000000	0.000000
9.097998	16.453506	17.606857	2.151182	-2.136121	2.959996	0.000000	-0.386541	0.000000	0.004913	0.000032	0.000000	0.000000
9.543958	14.778996	19.356853	1.616813	-1.771132	2.805732	0.000000	-0.305448	0.000000	0.004956	0.000160	0.000000	0.000000
9.984918	13.558772	20.728282	1.160779	-1.326910	2.688053	0.000000	-0.228333	0.000000	0.005055	0.000289	0.000000	0.000000
10.425878	12.715956	21.679690	0.757787	-0.822305	2.603718	0.000000	-0.153823	0.000000	0.005212	0.000422	0.000000	0.000000
10.866838	12.212034	22.167780	0.389420	-0.280279	2.551766	0.000000	-0.081070	0.000000	0.005428	0.000559	0.000000	0.000000
11.309048	12.023826	22.169758	0.066613	0.222834	2.531585	0.000000	-0.015114	0.000000	0.005706	0.000689	0.000000	0.000000
11.606371	11.991599	22.041436	0.041776	0.208756	2.526887	0.000000	-0.015114	0.000000	0.005911	0.000689	0.000000	0.000000
12.086371	11.970742	21.851939	0.001678	0.186030	2.519301	0.000000	-0.015114	0.000000	0.006242	0.000689	0.000000	0.000000
12.566371	11.988378	21.684258	-0.038420	0.163304	2.511716	0.000000	-0.015114	0.000000	0.006572	0.000689	0.000000	0.000000
13.046371	12.044508	21.538395	-0.078518	0.140578	2.504131	0.000000	-0.015114	0.000000	0.006903	0.000689	0.000000	0.000000
13.526371	12.139133	21.414349	-0.118616	0.117852	2.496545	0.000000	-0.015114	0.000000	0.007234	0.000689	0.000000	0.000000
14.007621	12.272648	21.311882	-0.158818	0.095066	2.488940	0.000000	-0.015114	0.000000	0.007565	0.000689	0.000000	0.000000
14.304943	12.374451	21.259574	-0.155586	0.032962	2.484239	0.000000	-0.020749	0.000000	0.007770	0.000670	0.000000	0.000000
14.745903	12.670392	20.997967	-0.517736	0.557980	2.490284	0.000000	0.049676	0.000000	0.008110	0.000875	0.000000	0.000000
15.186863	13.294990	20.282751	-0.903555	1.057607	2.527391	0.000000	0.120657	0.000000	0.008543	0.001090	0.000000	0.000000
15.627823	14.276807	19.146465	-1.330680	1.509105	2.595979	0.000000	0.193002	0.000000	0.009073	0.001317	0.000000	0.000000
16.068783	15.660738	17.640814	-1.818635	1.891925	2.696826	0.000000	0.267532	0.000000	0.009707	0.001559	0.000000	0.000000
16.514743	17.533699	15.812682	-2.394677	2.189587	2.832769	0.000000	0.345585	0.000000	0.010460	0.001821	0.000000	0.000000
17.063803	19.938543	13.772224	-1.957734	1.548042	2.998133	0.000000	0.258938	0.000000	0.011364	0.001467	0.000000	0.000000
17.612863	21.784143	12.372008	-1.382409	1.016790	3.114783	0.000000	0.167721	0.000000	0.012066	0.001087	0.000000	0.000000
18.161923	22.940012	11.512288	-0.709363	0.557983	3.180661	0.000000	0.073546	0.000000	0.012555	0.000688	0.000000	0.000000
18.710983	23.324422	11.131817	0.013832	0.138931	3.194602	0.000000	-0.021924	0.000000	0.012820	0.000277	0.000000	0.000000
19.009556	23.352229	11.041723	-0.053165	0.137191	3.190172	0.000000	-0.014504	0.000000	0.012912	0.000309	0.000000	0.000000
19.342889	23.392444	10.960514	-0.067480	0.106434	3.185234	0.000000	-0.014504	0.000000	0.013015	0.000309	0.000000	0.000000
19.676223	23.442202	10.899810	-0.081794	0.075678	3.180296	0.000000	-0.014504	0.000000	0.013118	0.000309	0.000000	0.000000
20.010806	23.502035	10.859364	-0.212605	0.098610	3.175360	0.000000	0.001229	0.000000	0.013222	0.000374	0.000000	0.000000
20.308129	23.632514	10.808889	-0.280428	0.096004	3.175622	0.000000	0.008566	0.000000	0.013333	0.000407	0.000000	0.000000
20.857189	23.533073	10.923069	0.460561	-0.305147	3.154182	0.000000	-0.086169	0.000000	0.013438	-0.000027	0.000000	0.000000
21.406249	22.632754	11.487129	1.169000	-0.728041	3.081288	0.000000	-0.179375	0.000000	0.013304	-0.000460	0.000000	0.000000
21.955309	20.995209	12.541257	1.794810	-1.202810	2.958234	0.000000	-0.269406	0.000000	0.012934	-0.000885	0.000000	0.000000
22.504369	18.736214	14.160551	2.293754	-1.763280	2.787198	0.000000	-0.354671	0.000000	0.012335	-0.001294	0.000000	0.000000
22.950329	16.958009	15.615349	1.706232	-1.484445	2.646691	0.000000	-0.277848	0.000000	0.011827	-0.000981	0.000000	0.000000
23.391289	15.680205	16.776849	1.201672	-1.139117	2.540741	0.000000	-0.204672	0.000000	0.011461	-0.000681	0.000000	0.000000
23.832249	14.821708	17.609626	0.752048	-0.741944	2.466396	0.000000	-0.133820	0.000000	0.011226	-0.000388	0.000000	0.000000
24.273209	14.343263	18.075783	0.336803	-0.311004	2.422811	0.000000	-0.064489	0.000000	0.011118	-0.000100	0.000000	0.000000
24.715418	14.223124	18.153803	-0.032034	0.094279	2.409493	0.000000	-0.001161	0.000000	0.011138	0.000161	0.000000	0.000000
25.012741	14.248395	18.102653	-0.052960	0.077756	2.409100	0.000000	-0.001161	0.000000	0.011185	0.000161	0.000000	0.000000
25.346075	14.291521	18.056991	-0.076420	0.059231	2.408659	0.000000	-0.001161	0.000000	0.011239	0.000161	0.000000	0.000000
25.679408	14.350287	18.023679	-0.099880	0.040706	2.408219	0.000000	-0.001161	0.000000	0.011293	0.000161	0.000000	0.000000
26.013991	14.424710	18.003026	-0.006405	-0.123938	2.407752	0.000000	-0.020694	0.000000	0.011346	0.000069	0.000000	0.000000
26.311314	14.434592	18.081779	0.004462	-0.180130	2.401574	0.000000	-0.025932	0.000000	0.011367	0.000042	0.000000	0.000000
26.752274	14.609137	18.044778	-0.401651	0.263707	2.405108	0.000000	0.042336	0.000000	0.011450	0.000337	0.000000	0.000000
27.193234	15.148671	17.620101	-0.826127	0.695543	2.438700	0.000000	0.111082	0.000000	0.011664	0.000635	0.000000	0.000000
27.634194	16.077867	16.827073	-1.288372	1.095723	2.502733	0.000000	0.181087	0.000000	0.012011	0.000940	0.000000	0.000000
28.075154	17.439218	15.701779	-1.809519	1.446034	2.597932	0.000000	0.253145	0.000000	0.012495	0.001256	0.000000	0.000000
28.521114	19.318911	14.278297	-2.418574	1.731689	2.726997	0.000000	0.328557	0.000000	0.013129	0.001588	0.000000	0.000000
29.070174	21.709314	12.693120	-1.907618	1.171871	2.884123	0.000000	0.245466	0.000000	0.013882	0.001151	0.000000	0.000000
29.619234	23.460575	11.673605	-1.261812	0.695552	2.994597	0.000000	0.158039	0.000000	0.014389	0.000692	0.000000	0.000000
30.168294	24.448863	11.147121	-0.526806	0.268793	3.056465	0.000000	0.067818	0.000000	0.014640	0.000222	0.000000	0.000000
30.717354	24.604297	11.076159	0.245439	-0.138813	3.068631	0.000000	-0.023603	0.000000	0.014632	-0.000252	0.000000	0.000000
31.015927	24.494830	11.152167	0.176773	-0.140821	3.063728	0.000000	-0.016607	0.000000	0.014567	-0.000216	0.000000	0.000000
31.349260	24.381660	11.256209	0.162739	-0.171304	3.058265	0.000000	-0.016607	0.000000	0.014495	-0.000216	0.000000	0.000000
31.682593	24.277845	11.380572	0.148706	-0.201786	3.052801	0.000000	-0.016607	0.000000	0.014423	-0.000216	0.000000	0.000000
32.017177	24.183049	11.525838	0.134620	-0.232383	3.047317	0.000000	-0.016607	0.000000	0.014351	-0.000216	0.000000	0.000000
32.314499	24.106864	11.672037	0.066940	-0.232895	3.042453	0.000000	-0.009645	0.000000	0.014286	-0.000181	0.000000	0.000000
32.863559	23.620594	12.166193	0.812995	-0.672239	3.012539	0.000000	-0.099928	0.000000	0.014060	-0.000641	0.000000	0.000000
33.412619	22.341616	13.166212	1.501576	-1.159483	2.933694	0.000000	-0.188448	0.000000	0.013585	-0.001089	0.000000	0.000000
33.961679	20.360368	14.743338	2.084006	-1.729341	2.807313	0.000000	-0.273643	0.000000	0.012868	-0.001517	0.000000	0.000000
34.510739	17.816939	17.009925	2.519119	-2.422415	2.635629	0.000000	-0.354006	0.000000	0.011923	-0.001919	0.000000	0.000000
34.956699	15.840963	19.037761	1.925827	-2.104858	2.494815	0.000000	-0.281127	0.000000	0.011134	-0.001620	0.000000	0.000000
35.397659	14.368128	20.718907	1.425748	-1.692509	2.386829	0.000000	-0.211897	0.000000	0.010482	-0.001341	0.000000	0.000000
35.838619	13.306168	22.000835	0.990850	-1.203132	2.308703	0.000000	-0.145066	0.000000	0.009949	-0.001078	0.000000	0.000000
36.279579	12.606518	22.825214	0.601249	-0.659002	2.259554	0.000000	-0.079876	0.000000	0.009530	-0.000827	0.000000	0.000000
36.721789	12.236548	23.154818	0.266355	-0.136461	2.238802	0.000000	-0.020588	0.000000	0.009218	-0.000607	0.000000	0.000000
37.019112	12.085898	23.239853	0.240333	-0.149540	2.232861	0.000000	-0.020588	0.000000	0.009038	-0.000607	0.000000	0.000000
37.352445	11.935401	23.344434	0.211159	-0.164204	2.226201	0.000000	-0.020588	0.000000	0.008835	-0.000607	0.000000	0.000000
37.685779	11.804352	23.458792	0.181986	-0.178868	2.219540	0.000000	-0.020588	0.000000	0.008633	-0.000607	0.000000	0.000000
38.020362	11.692371	23.583409	0.152703	-0.193587	2.212855	0.000000	-0.020588	0.000000	0.008430	-0.000607	0.000000	0.000000
38.317684	11.609280	23.702461	0.152884	-0.260369	2.206912	0.000000	-0.025569	0.000000	0.008250	-0.000626	0.000000	0.000000
38.758644	11.623186	23.669422	-0.184709	0.335000	2.209799	0.000000	0.037665	0.000000	0.008020	-0.000416	0.000000	0.000000
39.199604	11.937468	23.115999	-0.530741	0.915122	2.240553	0.000000	0.101332	0.000000	0.007882	-0.000211	0.000000	0.000000
39.640564	12.566488	22.067381	-0.901028	1.453596	2.299526	0.000000	0.166156	0.000000	0.007834	-0.000009	0.000000	0.000000
40.081524	13.538996	20.571289	-1.312493	1.925918	2.387391	0.000000	0.232873	0.000000	0.007874	0.000194	0.000000	0.000000
40.527484	14.917012	18.673063	-1.787896	2.312095	2.506634	0.000000	0.302671	0.000000	0.008007	0.000400	0.000000	0.000000
41.076544	16.678256	16.539419	-1.400362	1.596391	2.652113	0.000000	0.226928	0.000000	0.008155	0.000138	0.000000	0.000000
41.625604	17.956632	15.125093	-0.913877	0.994419	2.754972	0.000000	0.147160	0.000000	0.008158	-0.000126	0.000000	0.000000
42.174664	18.661798	14.329327	-0.362821	0.463294	2.813384	0.000000	0.064779	0.000000	0.008016	-0.000388	0.000000	0.000000
42.723724	18.743927	14.095424	0.213865	-0.034821	2.826312	0.000000	-0.018757	0.000000	0.007733	-0.000644	0.000000	0.000000
43.022297	18.648385	14.101950	0.151753	-0.021479	2.822954	0.000000	-0.011861	0.000000	0.007546	-0.000624	0.000000	0.000000
43.502297	18.515342	14.138916	0.125421	-0.055532	2.817560	0.000000	-0.011861	0.000000	0.007247	-0.000624	0.000000	0.000000
43.982297	18.407578	14.208572	0.099088	-0.089586	2.812167	0.000000	-0.011861	0.000000	0.006947	-0.000624	0.000000	0.000000
44.462297	18.325092	14.310920	0.072756	-0.123639	2.806773	0.000000	-0.011861	0.000000	0.006648	-0.000624	0.000000	0.000000
44.942297	18.267886	14.445960	0.046424	-0.157693	2.801379	0.000000	-0.011861	0.000000	0.006348	-0.000624	0.000000	0.000000
45.423547	18.236134	14.613989	-0.070329	-0.119428	2.795989	0.000000	0.001992	0.000000	0.006048	-0.000594	0.000000	0.000000
45.720870	18.282845	14.691127	-0.132098	-0.103719	2.796759	0.000000	0.008935	0.000000	0.005871	-0.000579	0.000000	0.000000
46.269930	18.119762	15.088894	0.426989	-0.624950	2.779343	0.000000	-0.073566	0.000000	0.005502	-0.000763	0.000000	0.000000
46.818990	17.355656	16.080018	0.955895	-1.190698	2.717009	0.000000	-0.154773	0.000000	0.005035	-0.000934	0.000000	0.000000
47.368050	16.044538	17.735091	1.417250	-1.841265	2.610856	0.000000	-0.233251	0.000000	0.004479	-0.001088	0.000000	0.000000
47.917110	14.279065	20.171997	1.778461	-2.622991	2.462759	0.000000	-0.307608	0.000000	0.003844	-0.001223	0.000000	0.000000
48.363070	12.904070	22.338071	1.315072	-2.213479	2.341440	0.000000	-0.238998	0.000000	0.003320	-0.001130	0.000000	0.000000
48.804030	11.923939	24.072483	0.915595	-1.704641	2.251038	0.000000	-0.173508	0.000000	0.002839	-0.001051	0.000000	0.000000
49.244990	11.276442	25.322064	0.557963	-1.118242	2.189024	0.000000	-0.109984	0.000000	0.002391	-0.000983	0.000000	0.000000
49.685950	10.931983	26.029965	0.225831	-0.480963	2.154697	0.000000	-0.047701	0.000000	0.001970	-0.000927	0.000000	0.000000
50.128160	10.874988	26.163696	-0.069821	0.115272	2.147682	0.000000	0.008860	0.000000	0.001571	-0.000885	0.000000	0.000000
50.425482	10.924676	26.098574	-0.097295	0.103757	2.150579	0.000000	0.008860	0.000000	0.001307	-0.000885	0.000000	0.000000
50.758816	10.999806	26.033705	-0.128096	0.090848	2.153828	0.000000	0.008860	0.000000	0.001012	-0.000885	0.000000	0.000000
51.092149	11.095470	25.977443	-0.158896	0.077938	2.157076	0.000000	0.008860	0.000000	0.000717	-0.000885	0.000000	0.000000
51.426732	11.211915	25.930151	-0.098854	-0.145378	2.160315	0.000000	-0.008666	0.000000	0.000421	-0.000889	0.000000	0.000000
51.724055	11.278660	26.020081	-0.098014	-0.221131	2.158003	0.000000	-0.013950	0.000000	0.000157	-0.000889	0.000000	0.000000
52.165015	11.511924	25.925454	-0.433273	0.434907	2.165899	0.000000	0.048074	0.000000	-0.000235	-0.000890	0.000000	0.000000
52.605975	12.048428	25.258809	-0.788320	1.071153	2.201244	0.000000	0.110655	0.000000	-0.000630	-0.000901	0.000000	0.000000
53.046935	12.912672	24.050486	-1.179376	1.658660	2.264444	0.000000	0.174506	0.000000	-0.001032	-0.000923	0.000000	0.000000
53.487895	14.144132	22.355471	-1.624304	2.170699	2.356224	0.000000	0.240354	0.000000	-0.001445	-0.000955	0.000000	0.000000
53.933855	15.820105	20.225559	-2.147701	2.585281	2.479150	0.000000	0.309346	0.000000	-0.001880	-0.000998	0.000000	0.000000
54.482915	17.977343	17.828431	-1.758589	1.806497	2.629164	0.000000	0.234446	0.000000	-0.002410	-0.000928	0.000000	0.000000
55.031975	19.636150	16.211238	-1.245290	1.156383	2.736803	0.000000	0.155372	0.000000	-0.002896	-0.000842	0.000000	0.000000
55.581035	20.679394	15.258784	-0.644058	0.588633	2.800152	0.000000	0.073529	0.000000	-0.003332	-0.000741	0.000000	0.000000
56.130095	21.033420	14.903220	0.002646	0.062809	2.818081	0.000000	-0.009630	0.000000	-0.003708	-0.000627	0.000000	0.000000
56.428668	21.069910	14.847718	-0.068239	0.082832	2.817661	0.000000	-0.002040	0.000000	-0.003898	-0.000637	0.000000	0.000000
56.762001	21.120701	14.800032	-0.084133	0.060227	2.817194	0.000000	-0.002040	0.000000	-0.004111	-0.000637	0.000000	0.000000
57.095334	21.182087	14.767415	-0.100027	0.037623	2.816726	0.000000	-0.002040	0.000000	-0.004323	-0.000637	0.000000	0.000000
57.429918	21.254360	14.749830	-0.115981	0.014934	2.816256	0.000000	-0.002040	0.000000	-0.004536	-0.000637	0.000000	0.000000
57.727240	21.327556	14.746935	-0.188060	0.034674	2.815840	0.000000	0.005604	0.000000	-0.004726	-0.000650	0.000000	0.000000
58.276300	21.169433	14.991556	0.474018	-0.482863	2.796389	0.000000	-0.077454	0.000000	-0.005040	-0.000492	0.000000	0.000000
58.825360	20.298546	15.819887	1.102610	-1.034787	2.731560	0.000000	-0.159148	0.000000	-0.005264	-0.000325	0.000000	0.000000
59.374420	18.776403	17.290913	1.653330	-1.660403	2.622498	0.000000	-0.238023	0.000000	-0.005395	-0.000152	0.000000	0.000000
59.923480	16.710492	19.509396	2.087290	-2.404268	2.471136	0.000000	-0.312681	0.000000	-0.005431	0.000023	0.000000	0.000000
60.369440	15.092099	21.480964	1.554690	-1.998199	2.347114	0.000000	-0.243931	0.000000	-0.005452	-0.000118	0.000000	0.000000
60.810400	13.927167	23.030402	1.097269	-1.502491	2.254187	0.000000	-0.178341	0.000000	-0.005535	-0.000259	0.000000	0.000000
61.251360	13.142051	24.110776	0.689969	-0.938433	2.189768	0.000000	-0.114779	0.000000	-0.005681	-0.000404	0.000000	0.000000
61.692320	12.700890	24.672940	0.314188	-0.331685	2.153124	0.000000	-0.052520	0.000000	-0.005891	-0.000553	0.000000	0.000000
62.134530	12.583582	24.690730	-0.014707	0.226325	2.143846	0.000000	0.003587	0.000000	-0.006170	-0.000693	0.000000	0.000000
62.431853	12.599354	24.559911	-0.038340	0.213666	2.145119	0.000000	0.003587	0.000000	-0.006376	-0.000693	0.000000	0.000000
62.765186	12.633746	24.422197	-0.064835	0.199474	2.146546	0.000000	0.003587	0.000000	-0.006607	-0.000693	0.000000	0.000000
63.098520	12.685801	24.293945	-0.091330	0.185282	2.147973	0.000000	0.003587	0.000000	-0.006838	-0.000693	0.000000	0.000000
63.433103	12.755814	24.174727	-0.117925	0.171037	2.149405	0.000000	0.003587	0.000000	-0.007070	-0.000693	0.000000	0.000000
63.730426	12.832945	24.076821	-0.107966	0.095115	2.150676	0.000000	-0.002042	0.000000	-0.007276	-0.000675	0.000000	0.000000
64.171386	13.090661	23.727889	-0.479042	0.693260	2.163736	0.000000	0.059847	0.000000	-0.007616	-0.000866	0.000000	0.000000
64.612346	13.683934	22.863445	-0.871989	1.259866	2.204294	0.000000	0.122428	0.000000	-0.008042	-0.001068	0.000000	0.000000
65.053306	14.639844	21.522823	-1.304753	1.769159	2.272815	0.000000	0.186414	0.000000	-0.008559	-0.001282	0.000000	0.000000
65.494266	16.002030	19.767016	-1.797093	2.197972	2.370085	0.000000	0.252536	0.000000	-0.009174	-0.001511	0.000000	0.000000
65.940226	17.856025	17.651014	-2.375975	2.527347	2.498807	0.000000	0.321921	0.000000	-0.009903	-0.001758	0.000000	0.000000
66.489286	20.229808	15.284358	-1.923287	1.809102	2.655849	0.000000	0.246291	0.000000	-0.010777	-0.001423	0.000000	0.000000
67.038346	22.028666	13.631391	-1.334839	1.219683	2.769917	0.000000	0.166270	0.000000	-0.011461	-0.001063	0.000000	0.000000
67.587406	23.125655	12.574386	-0.652174	0.717116	2.838978	0.000000	0.083284	0.000000	-0.011941	-0.000684	0.000000	0.000000
68.136466	23.443371	12.038068	0.076518	0.265612	2.861802	0.000000	-0.001190	0.000000	-0.012209	-0.000293	0.000000	0.000000
68.435038	23.441579	11.866913	-0.003538	0.273191	2.863992	0.000000	0.007028	0.000000	-0.012307	-0.000326	0.000000	0.000000
68.768372	23.448678	11.694848	-0.017758	0.243005	2.866443	0.000000	0.007028	0.000000	-0.012415	-0.000326	0.000000	0.000000
69.101705	23.465257	11.542906	-0.031978	0.212819	2.868894	0.000000	0.007028	0.000000	-0.012524	-0.000326	0.000000	0.000000
69.436288	23.491431	11.410632	-0.046252	0.182520	2.871355	0.000000	0.007028	0.000000	-0.012633	-0.000326	0.000000	0.000000
69.733611	23.522817	11.310049	-0.126728	0.188136	2.873548	0.000000	0.015309	0.000000	-0.012730	-0.000361	0.000000	0.000000
70.282671	23.258038	11.330121	0.606101	-0.224916	2.858686	0.000000	-0.069673	0.000000	-0.012815	0.000053	0.000000	0.000000
