#ParticleID	Turn	x[m]	xp	y[m]	yp	z[m]	dE[GeV]# s	beta_x	beta_y	alpha_x	alpha_y	D_x	D_y	D_px	D_py	orbit_x	orbit_px	orbit_y	orbit_py
0.300000	11.940074	25.277759	-0.019886	-0.022215	2.602427	0.000000	0.000648	0.000000	-0.000653	0.000571	0.000000	0.000000
0.601250	11.959659	25.294735	-0.045126	-0.034138	2.602450	0.000000	0.000648	0.000000	-0.000481	0.000571	0.000000	0.000000
0.898573	11.993899	25.318534	-0.040538	-0.107970	2.602473	0.000000	-0.005753	0.000000	-0.000311	0.000572	0.000000	0.000000
1.339533	12.183299	25.132779	-0.390414	0.527619	2.615898	0.000000	0.067800	0.000000	-0.000060	0.000567	0.000000	0.000000
1.780493	12.687937	24.394968	-0.758132	1.139204	2.661897	0.000000	0.142120	0.000000	0.000190	0.000569	0.000000	0.000000
2.221453	13.530875	23.138666	-1.160492	1.698958	2.740990	0.000000	0.218052	0.000000	0.000442	0.000577	0.000000	0.000000
2.662413	14.750629	21.421028	-1.615877	2.181411	2.854076	0.000000	0.296461	0.000000	0.000700	0.000592	0.000000	0.000000
3.108373	16.423998	19.295035	-2.149456	2.565773	3.004292	0.000000	0.378731	0.000000	0.000968	0.000613	0.000000	0.000000
3.657433	18.569197	16.906897	-1.734089	1.809333	3.186816	0.000000	0.286277	0.000000	0.001296	0.000577	0.000000	0.000000
4.206493	20.187896	15.274206	-1.196217	1.181770	3.317131	0.000000	0.188754	0.000000	0.001600	0.000530	0.000000	0.000000
4.755553	21.165736	14.280672	-0.573833	0.638383	3.392929	0.000000	0.087892	0.000000	0.001876	0.000473	0.000000	0.000000
5.304613	21.433627	13.855534	0.089097	0.140467	3.412870	0.000000	-0.014522	0.000000	0.002118	0.000409	0.000000	0.000000
5.603185	21.417429	13.757106	0.020147	0.153726	3.411025	0.000000	-0.005764	0.000000	0.002242	0.000414	0.000000	0.000000
5.936519	21.409188	13.662890	0.004577	0.128923	3.408966	0.000000	-0.005764	0.000000	0.002380	0.000414	0.000000	0.000000
6.269852	21.411326	13.585208	-0.010993	0.104121	3.406906	0.000000	-0.005764	0.000000	0.002518	0.000414	0.000000	0.000000
6.604435	21.423911	13.523864	-0.026621	0.079225	3.404839	0.000000	-0.005764	0.000000	0.002657	0.000414	0.000000	0.000000
6.901758	21.443875	13.483327	-0.095222	0.091587	3.403003	0.000000	0.002919	0.000000	0.002780	0.000421	0.000000	0.000000
7.450818	21.182720	13.644357	0.568257	-0.386589	3.376370	0.000000	-0.099070	0.000000	0.002986	0.000328	0.000000	0.000000
7.999878	20.210748	14.342456	1.191599	-0.892304	3.294189	0.000000	-0.199295	0.000000	0.003139	0.000229	0.000000	0.000000
8.548938	18.596619	15.627355	1.730766	-1.461582	3.157921	0.000000	-0.295982	0.000000	0.003236	0.000126	0.000000	0.000000
9.097998	16.454365	17.590584	2.147666	-2.134977	2.969984	0.000000	-0.387416	0.000000	0.003276	0.000020	0.000000	0.000000
9.543958	14.782850	19.339736	1.613666	-1.770493	2.815403	0.000000	-0.306077	0.000000	0.003304	0.000105	0.000000	0.000000
9.984918	13.565327	20.710787	1.157812	-1.326768	2.697534	0.000000	-0.228720	0.000000	0.003370	0.000191	0.000000	0.000000
10.425878	12.725099	21.662270	0.754862	-0.822670	2.613135	0.000000	-0.153969	0.000000	0.003473	0.000280	0.000000	0.000000
10.866838	12.223775	22.150889	0.386402	-0.281136	2.561243	0.000000	-0.080976	0.000000	0.003617	0.000371	0.000000	0.000000
11.309048	12.038294	22.153845	0.063942	0.220628	2.541247	0.000000	-0.014915	0.000000	0.003802	0.000457	0.000000	0.000000
11.606371	12.007644	22.026834	0.039143	0.206554	2.536677	0.000000	-0.014915	0.000000	0.003938	0.000457	0.000000	0.000000
12.086371	11.989284	21.839448	-0.000893	0.183833	2.529298	0.000000	-0.014915	0.000000	0.004158	0.000457	0.000000	0.000000
12.566371	12.009358	21.673875	-0.040929	0.161112	2.521920	0.000000	-0.014915	0.000000	0.004377	0.000457	0.000000	0.000000
13.046371	12.067867	21.530114	-0.080964	0.138390	2.514541	0.000000	-0.014915	0.000000	0.004597	0.000457	0.000000	0.000000
13.526371	12.164810	21.408165	-0.121000	0.115669	2.507162	0.000000	-0.014915	0.000000	0.004816	0.000457	0.000000	0.000000
14.007621	12.300590	21.307797	-0.161140	0.092888	2.499765	0.000000	-0.014915	0.000000	0.005036	0.000457	0.000000	0.000000
14.304943	12.403775	21.256763	-0.157030	0.029404	2.495193	0.000000	-0.020730	0.000000	0.005172	0.000445	0.000000	0.000000
14.745903	12.701239	20.998320	-0.519878	0.554413	2.501418	0.000000	0.049975	0.000000	0.005399	0.000581	0.000000	0.000000
15.186863	13.327988	20.286222	-0.906487	1.054194	2.538858	0.000000	0.121243	0.000000	0.005686	0.000724	0.000000	0.000000
15.627823	14.312672	19.152869	-1.334528	1.506004	2.607938	0.000000	0.193884	0.000000	0.006039	0.000875	0.000000	0.000000
16.068783	15.700304	17.649829	-1.823563	1.889283	2.709441	0.000000	0.268725	0.000000	0.006460	0.001037	0.000000	0.000000
16.514743	17.577936	15.823955	-2.400835	2.187454	2.846220	0.000000	0.347100	0.000000	0.006960	0.001211	0.000000	0.000000
17.063803	19.988635	13.785901	-1.962710	1.545969	3.012577	0.000000	0.260013	0.000000	0.007562	0.000975	0.000000	0.000000
17.612863	21.838654	12.388081	-1.385884	1.014618	3.129909	0.000000	0.168328	0.000000	0.008028	0.000723	0.000000	0.000000
18.161923	22.997237	11.530923	-0.711117	0.555551	3.196140	0.000000	0.073668	0.000000	0.008353	0.000457	0.000000	0.000000
18.710983	23.382491	11.153369	0.013909	0.136062	3.210099	0.000000	-0.022291	0.000000	0.008529	0.000184	0.000000	0.000000
19.009556	23.411771	11.064237	-0.055513	0.135563	3.205700	0.000000	-0.014516	0.000000	0.008590	0.000205	0.000000	0.000000
19.342889	23.453540	10.984088	-0.069795	0.104882	3.200793	0.000000	-0.014516	0.000000	0.008659	0.000205	0.000000	0.000000
19.676223	23.504831	10.924394	-0.084077	0.074202	3.195885	0.000000	-0.014516	0.000000	0.008727	0.000205	0.000000	0.000000
20.010806	23.566181	10.884909	-0.215172	0.097336	3.190980	0.000000	0.001294	0.000000	0.008796	0.000249	0.000000	0.000000
20.308129	23.698112	10.835202	-0.285579	0.095962	3.191294	0.000000	0.008997	0.000000	0.008870	0.000271	0.000000	0.000000
20.857189	23.603137	10.949807	0.457596	-0.305896	3.169989	0.000000	-0.086235	0.000000	0.008940	-0.000017	0.000000	0.000000
21.406249	22.704855	11.515063	1.168437	-0.729548	3.096885	0.000000	-0.179937	0.000000	0.008851	-0.000306	0.000000	0.000000
21.955309	21.066756	12.571239	1.796707	-1.205176	2.973278	0.000000	-0.270452	0.000000	0.008605	-0.000589	0.000000	0.000000
22.504369	18.804617	14.193576	2.298008	-1.766665	2.801358	0.000000	-0.356178	0.000000	0.008206	-0.000861	0.000000	0.000000
22.950329	17.023542	15.650944	1.709012	-1.487086	2.660105	0.000000	-0.279017	0.000000	0.007869	-0.000652	0.000000	0.000000
23.391289	15.744056	16.814300	1.203008	-1.140818	2.553601	0.000000	-0.205509	0.000000	0.007626	-0.000453	0.000000	0.000000
23.832249	14.885080	17.648091	0.751987	-0.742635	2.478885	0.000000	-0.134338	0.000000	0.007469	-0.000258	0.000000	0.000000
24.273209	14.407346	18.114373	0.335337	-0.310655	2.435108	0.000000	-0.064694	0.000000	0.007398	-0.000066	0.000000	0.000000
24.715418	14.289122	18.191666	-0.033537	0.093935	2.421773	0.000000	-0.001302	0.000000	0.007411	0.000107	0.000000	0.000000
25.012741	14.315258	18.140710	-0.054368	0.077447	2.421354	0.000000	-0.001302	0.000000	0.007442	0.000107	0.000000	0.000000
25.346075	14.359288	18.095241	-0.077722	0.058962	2.420885	0.000000	-0.001302	0.000000	0.007478	0.000107	0.000000	0.000000
25.679408	14.418888	18.062095	-0.101076	0.040477	2.420415	0.000000	-0.001302	0.000000	0.007514	0.000107	0.000000	0.000000
26.013991	14.494073	18.041583	-0.006932	-0.124440	2.419919	0.000000	-0.020933	0.000000	0.007549	0.000046	0.000000	0.000000
26.311314	14.504270	18.120587	0.005529	-0.182364	2.413680	0.000000	-0.026421	0.000000	0.007563	0.000028	0.000000	0.000000
26.752274	14.678559	18.085097	-0.402182	0.262531	2.417091	0.000000	0.042150	0.000000	0.007618	0.000224	0.000000	0.000000
27.193234	15.219210	17.660993	-0.828275	0.695479	2.450736	0.000000	0.111199	0.000000	0.007761	0.000422	0.000000	0.000000
27.634194	16.150940	16.867570	-1.292226	1.096778	2.514996	0.000000	0.181510	0.000000	0.007991	0.000625	0.000000	0.000000
28.075154	17.516343	15.740933	-1.815243	1.448164	2.610602	0.000000	0.253883	0.000000	0.008313	0.000835	0.000000	0.000000
28.521114	19.401716	14.315280	-2.426326	1.734718	2.740256	0.000000	0.329611	0.000000	0.008734	0.001056	0.000000	0.000000
29.070174	21.798935	12.727482	-1.912763	1.173829	2.898076	0.000000	0.246092	0.000000	0.009235	0.000765	0.000000	0.000000
29.619234	23.554026	11.706413	-1.264021	0.696568	3.008927	0.000000	0.158219	0.000000	0.009572	0.000460	0.000000	0.000000
30.168294	24.542933	11.179333	-0.525948	0.268935	3.070846	0.000000	0.067546	0.000000	0.009739	0.000147	0.000000	0.000000
30.717354	24.695754	11.108694	0.249295	-0.139539	3.082736	0.000000	-0.024322	0.000000	0.009734	-0.000168	0.000000	0.000000
31.015927	24.585867	11.184278	0.177642	-0.140135	3.077717	0.000000	-0.016942	0.000000	0.009691	-0.000144	0.000000	0.000000
31.349260	24.472101	11.287831	0.163656	-0.170524	3.072117	0.000000	-0.016942	0.000000	0.009643	-0.000144	0.000000	0.000000
31.682593	24.367659	11.411643	0.149670	-0.200913	3.066518	0.000000	-0.016942	0.000000	0.009595	-0.000144	0.000000	0.000000
32.017177	24.272202	11.556293	0.135632	-0.231416	3.060898	0.000000	-0.016942	0.000000	0.009547	-0.000144	0.000000	0.000000
32.314499	24.195322	11.701932	0.065100	-0.230464	3.055907	0.000000	-0.009609	0.000000	0.009504	-0.000120	0.000000	0.000000
32.863559	23.709578	12.193769	0.814038	-0.670484	3.025825	0.000000	-0.100313	0.000000	0.009354	-0.000425	0.000000	0.000000
33.412619	22.428078	13.192104	1.505444	-1.158273	2.946509	0.000000	-0.189243	0.000000	0.009038	-0.000723	0.000000	0.000000
33.961679	20.441408	14.768055	2.090455	-1.728581	2.819360	0.000000	-0.274828	0.000000	0.008562	-0.001009	0.000000	0.000000
34.510739	17.889990	17.033886	2.527731	-2.422038	2.646630	0.000000	-0.355553	0.000000	0.007934	-0.001276	0.000000	0.000000
34.956699	15.907514	19.060877	1.932514	-2.103707	2.504943	0.000000	-0.282417	0.000000	0.007409	-0.001077	0.000000	0.000000
35.397659	14.429724	20.740559	1.430732	-1.690551	2.396237	0.000000	-0.212941	0.000000	0.006976	-0.000891	0.000000	0.000000
35.838619	13.364161	22.020375	0.994343	-1.200463	2.317534	0.000000	-0.145880	0.000000	0.006622	-0.000716	0.000000	0.000000
36.279579	12.662113	22.842093	0.603403	-0.655747	2.267939	0.000000	-0.080474	0.000000	0.006343	-0.000549	0.000000	0.000000
36.721789	12.290830	23.168634	0.268298	-0.134585	2.246867	0.000000	-0.021164	0.000000	0.006136	-0.000403	0.000000	0.000000
37.019112	12.138998	23.252549	0.242366	-0.147651	2.240694	0.000000	-0.021164	0.000000	0.006016	-0.000403	0.000000	0.000000
37.352445	11.987112	23.355866	0.213293	-0.162299	2.233774	0.000000	-0.021164	0.000000	0.005882	-0.000403	0.000000	0.000000
37.685779	11.854607	23.468948	0.184220	-0.176946	2.226853	0.000000	-0.021164	0.000000	0.005748	-0.000403	0.000000	0.000000
38.020362	11.741097	23.592274	0.155039	-0.191649	2.219907	0.000000	-0.021164	0.000000	0.005613	-0.000403	0.000000	0.000000
38.317684	11.656604	23.710143	0.156187	-0.259935	2.213733	0.000000	-0.026307	0.000000	0.005493	-0.000416	0.000000	0.000000
38.758644	11.668077	23.676643	-0.182417	0.335609	2.216257	0.000000	0.037094	0.000000	0.005341	-0.000276	0.000000	0.000000
39.199604	11.980746	23.122636	-0.529354	0.915880	2.246748	0.000000	0.100920	0.000000	0.005249	-0.000140	0.000000	0.000000
39.640564	12.608899	22.073333	-0.900481	1.454473	2.305555	0.000000	0.165897	0.000000	0.005218	-0.000005	0.000000	0.000000
40.081524	13.581242	20.576485	-1.312758	1.926878	2.393348	0.000000	0.232763	0.000000	0.005245	0.000130	0.000000	0.000000
40.527484	14.959749	18.677501	-1.788929	2.313032	2.512610	0.000000	0.302704	0.000000	0.005334	0.000267	0.000000	0.000000
41.076544	16.721122	16.543009	-1.399728	1.597157	2.658097	0.000000	0.226773	0.000000	0.005433	0.000093	0.000000	0.000000
41.625604	17.997857	15.127969	-0.911633	0.995061	2.760816	0.000000	0.146820	0.000000	0.005436	-0.000083	0.000000	0.000000
42.174664	18.699743	14.331578	-0.359131	0.463852	2.818945	0.000000	0.064262	0.000000	0.005342	-0.000258	0.000000	0.000000
42.723724	18.777190	14.097101	0.218738	-0.034311	2.831449	0.000000	-0.019441	0.000000	0.005153	-0.000428	0.000000	0.000000
43.022297	18.679458	14.102840	0.155456	-0.020183	2.827880	0.000000	-0.012367	0.000000	0.005030	-0.000415	0.000000	0.000000
43.502297	18.542853	14.138560	0.129138	-0.054233	2.822142	0.000000	-0.012367	0.000000	0.004831	-0.000415	0.000000	0.000000
43.982297	18.431513	14.206967	0.102820	-0.088282	2.816405	0.000000	-0.012367	0.000000	0.004632	-0.000415	0.000000	0.000000
44.462297	18.345438	14.308062	0.076503	-0.122332	2.810668	0.000000	-0.012367	0.000000	0.004433	-0.000415	0.000000	0.000000
44.942297	18.284628	14.441844	0.050185	-0.156381	2.804931	0.000000	-0.012367	0.000000	0.004234	-0.000415	0.000000	0.000000
45.423547	18.249250	14.608609	-0.066618	-0.118140	2.799196	0.000000	0.001502	0.000000	0.004034	-0.000395	0.000000	0.000000
45.720870	18.293738	14.684990	-0.129197	-0.101761	2.799760	0.000000	0.008575	0.000000	0.003917	-0.000385	0.000000	0.000000
46.269930	18.127376	15.080453	0.430147	-0.622708	2.782004	0.000000	-0.074013	0.000000	0.003671	-0.000508	0.000000	0.000000
46.818990	17.359859	16.068862	0.959094	-1.188011	2.719255	0.000000	-0.155295	0.000000	0.003361	-0.000621	0.000000	0.000000
47.368050	16.045424	17.720615	1.420275	-1.837939	2.612621	0.000000	-0.233833	0.000000	0.002991	-0.000724	0.000000	0.000000
47.917110	14.276948	20.153362	1.781109	-2.618787	2.463990	0.000000	-0.308235	0.000000	0.002568	-0.000814	0.000000	0.000000
48.363070	12.899768	22.315770	1.317553	-2.209576	2.342230	0.000000	-0.239604	0.000000	0.002219	-0.000752	0.000000	0.000000
48.804030	11.917563	24.046899	0.917998	-1.701186	2.251409	0.000000	-0.174100	0.000000	0.001899	-0.000699	0.000000	0.000000
49.244990	11.268002	25.293672	0.560392	-1.115391	2.188991	0.000000	-0.110572	0.000000	0.001601	-0.000654	0.000000	0.000000
49.685950	10.921397	25.999368	0.228395	-0.478847	2.154267	0.000000	-0.048297	0.000000	0.001321	-0.000617	0.000000	0.000000
50.128160	10.862074	26.131591	-0.066908	0.116211	2.146855	0.000000	0.008223	0.000000	0.001055	-0.000588	0.000000	0.000000
50.425482	10.910036	26.065915	-0.094403	0.104679	2.149475	0.000000	0.008223	0.000000	0.000880	-0.000588	0.000000	0.000000
50.758816	10.983246	26.000438	-0.125228	0.091751	2.152412	0.000000	0.008223	0.000000	0.000684	-0.000588	0.000000	0.000000
51.092149	11.077007	25.943581	-0.156053	0.078823	2.155349	0.000000	0.008223	0.000000	0.000488	-0.000588	0.000000	0.000000
51.426732	11.191558	25.895702	-0.096201	-0.144233	2.158276	0.000000	-0.009286	0.000000	0.000291	-0.000591	0.000000	0.000000
51.724055	11.256735	25.984954	-0.095439	-0.219825	2.155690	0.000000	-0.014567	0.000000	0.000116	-0.000591	0.000000	0.000000
52.165015	11.487529	25.889590	-0.430127	0.435266	2.163173	0.000000	0.047392	0.000000	-0.000145	-0.000591	0.000000	0.000000
52.605975	12.021001	25.223051	-0.784463	1.070551	2.198073	0.000000	0.109897	0.000000	-0.000407	-0.000599	0.000000	0.000000
53.046935	12.881518	24.015670	-1.174633	1.657125	2.260790	0.000000	0.173661	0.000000	-0.000674	-0.000613	0.000000	0.000000
53.487895	14.108388	22.322386	-1.618462	2.168300	2.352041	0.000000	0.239408	0.000000	-0.000948	-0.000633	0.000000	0.000000
53.933855	15.778633	20.194945	-2.140499	2.582139	2.474380	0.000000	0.308286	0.000000	-0.001237	-0.000662	0.000000	0.000000
54.482915	17.928582	17.800674	-1.752399	1.804362	2.623686	0.000000	0.233550	0.000000	-0.001588	-0.000616	0.000000	0.000000
55.031975	19.581455	16.185325	-1.240538	1.155103	2.730727	0.000000	0.154661	0.000000	-0.001911	-0.000559	0.000000	0.000000
55.581035	20.620525	15.233837	-0.641070	0.588117	2.793600	0.000000	0.073019	0.000000	-0.002200	-0.000493	0.000000	0.000000
56.130095	20.972421	14.878432	0.003665	0.063022	2.811187	0.000000	-0.009925	0.000000	-0.002451	-0.000417	0.000000	0.000000
56.428668	21.007881	14.823117	-0.066526	0.082498	2.810587	0.000000	-0.002430	0.000000	-0.002577	-0.000424	0.000000	0.000000
56.762001	21.057544	14.775665	-0.082463	0.059858	2.809919	0.000000	-0.002430	0.000000	-0.002718	-0.000424	0.000000	0.000000
57.095334	21.117832	14.743307	-0.098400	0.037217	2.809250	0.000000	-0.002430	0.000000	-0.002860	-0.000424	0.000000	0.000000
57.429918	21.189031	14.726006	-0.114398	0.014492	2.808579	0.000000	-0.002430	0.000000	-0.003001	-0.000424	0.000000	0.000000
57.727240	21.261289	14.723388	-0.185608	0.033676	2.807982	0.000000	0.005097	0.000000	-0.003127	-0.000432	0.000000	0.000000
58.276300	21.101750	14.968744	0.474238	-0.483199	2.788221	0.000000	-0.077706	0.000000	-0.003336	-0.000327	0.000000	0.000000
58.825360	20.231883	15.797114	1.100585	-1.034486	2.723252	0.000000	-0.159137	0.000000	-0.003486	-0.000217	0.000000	0.000000
59.374420	18.713125	17.267493	1.649198	-1.659450	2.614225	0.000000	-0.237748	0.000000	-0.003574	-0.000103	0.000000	0.000000
59.923480	16.652735	19.484602	2.081336	-2.402599	2.463071	0.000000	-0.312145	0.000000	-0.003598	0.000014	0.000000	0.000000
60.369440	15.038963	21.454979	1.550220	-1.997163	2.339236	0.000000	-0.243593	0.000000	-0.003613	-0.000080	0.000000	0.000000
60.810400	13.877362	23.003859	1.094112	-1.502171	2.246386	0.000000	-0.178202	0.000000	-0.003669	-0.000174	0.000000	0.000000
61.251360	13.094503	24.084300	0.687984	-0.938839	2.181936	0.000000	-0.114838	0.000000	-0.003766	-0.000270	0.000000	0.000000
61.692320	12.654625	24.647152	0.313285	-0.332796	2.145153	0.000000	-0.052780	0.000000	-0.003907	-0.000368	0.000000	0.000000
62.134530	12.537676	24.666233	-0.015276	0.225694	2.135624	0.000000	0.003244	0.000000	-0.004092	-0.000461	0.000000	0.000000
62.431853	12.553812	24.535791	-0.038996	0.213026	2.136726	0.000000	0.003244	0.000000	-0.004230	-0.000461	0.000000	0.000000
62.765186	12.588674	24.398508	-0.065589	0.198824	2.137961	0.000000	0.003244	0.000000	-0.004383	-0.000461	0.000000	0.000000
63.098520	12.641264	24.270693	-0.092182	0.184622	2.139196	0.000000	0.003244	0.000000	-0.004537	-0.000461	0.000000	0.000000
63.433103	12.711880	24.151920	-0.118874	0.170366	2.140436	0.000000	0.003244	0.000000	-0.004691	-0.000461	0.000000	0.000000
63.730426	12.789611	24.054395	-0.109817	0.095895	2.141537	0.000000	-0.002244	0.000000	-0.004829	-0.000449	0.000000	0.000000
64.171386	13.048599	23.705021	-0.479968	0.693448	2.154347	0.000000	0.059411	0.000000	-0.005054	-0.000577	0.000000	0.000000
64.612346	13.642375	22.840646	-0.872037	1.259451	2.194523	0.000000	0.121749	0.000000	-0.005338	-0.000711	0.000000	0.000000
65.053306	14.598052	21.500598	-1.303932	1.768157	2.262524	0.000000	0.185480	0.000000	-0.005682	-0.000853	0.000000	0.000000
65.494266	15.959269	19.745846	-1.795377	2.196423	2.359128	0.000000	0.251333	0.000000	-0.006091	-0.001004	0.000000	0.000000
65.940226	17.811462	17.631399	-2.373379	2.525374	2.487016	0.000000	0.320440	0.000000	-0.006575	-0.001169	0.000000	0.000000
66.489286	20.183529	15.266459	-1.922275	1.807722	2.643076	0.000000	0.245199	0.000000	-0.007157	-0.000946	0.000000	0.000000
67.038346	21.982402	13.614635	-1.335452	1.218809	2.756442	0.000000	0.165593	0.000000	-0.007611	-0.000707	0.000000	0.000000
67.587406	23.081096	12.558280	-0.654346	0.716693	2.825099	0.000000	0.083039	0.000000	-0.007930	-0.000455	0.000000	0.000000
68.136466	23.402058	12.022160	0.072955	0.265615	2.847826	0.000000	-0.000994	0.000000	-0.008109	-0.000195	0.000000	0.000000
68.435038	23.401199	11.851626	-0.005016	0.272091	2.849960	0.000000	0.006942	0.000000	-0.008174	-0.000217	0.000000	0.000000
68.768372	23.409292	11.680302	-0.019261	0.241883	2.852347	0.000000	0.006942	0.000000	-0.008246	-0.000217	0.000000	0.000000
69.101705	23.426881	11.529115	-0.033506	0.211675	2.854733	0.000000	0.006942	0.000000	-0.008319	-0.000217	0.000000	0.000000
69.436288	23.454085	11.397614	-0.047804	0.181354	2.857128	0.000000	0.006942	0.000000	-0.008392	-0.000217	0.000000	0.000000
69.733611	23.486339	11.297760	-0.126124	0.185936	2.859260	0.000000	0.014930	0.000000	-0.008456	-0.000240	0.000000	0.000000
70.282671	23.221519	11.320082	0.605574	-0.226834	2.844285	0.000000	-0.069599	0.000000	-0.008513	0.000035	0.000000	0.000000
