#ParticleID	Turn	x[m]	xp	y[m]	yp	z[m]	dE[GeV]# s	beta_x	beta_y	alpha_x	alpha_y	D_x	D_y	D_px	D_py	orbit_x	orbit_px	orbit_y	orbit_py
0.300000	11.965562	25.317791	-0.018920	-0.022087	2.598447	0.000000	0.000040	0.000000	-0.001006	0.000867	0.000000	0.000000
0.601250	11.984548	25.334685	-0.044105	-0.033992	2.598198	0.000000	0.000040	0.000000	-0.000744	0.000867	0.000000	0.000000
0.898573	12.018165	25.358392	-0.039354	-0.107899	2.597952	0.000000	-0.006360	0.000000	-0.000487	0.000868	0.000000	0.000000
1.339533	12.206801	25.172109	-0.389756	0.528740	2.610958	0.000000	0.067070	0.000000	-0.000106	0.000861	0.000000	0.000000
1.780493	12.711126	24.432864	-0.757971	1.141324	2.656481	0.000000	0.141256	0.000000	0.000274	0.000863	0.000000	0.000000
2.221453	13.554189	23.174281	-1.160823	1.701982	2.735036	0.000000	0.217041	0.000000	0.000657	0.000875	0.000000	0.000000
2.662413	14.774518	21.453618	-1.616718	2.185203	2.847515	0.000000	0.295290	0.000000	0.001047	0.000897	0.000000	0.000000
3.108373	16.448957	19.323947	-2.150863	2.570172	2.997038	0.000000	0.377382	0.000000	0.001454	0.000929	0.000000	0.000000
3.657433	18.595295	16.931595	-1.734556	1.812618	3.178727	0.000000	0.285174	0.000000	0.001950	0.000874	0.000000	0.000000
4.206493	20.214073	15.295781	-1.195701	1.184174	3.308362	0.000000	0.187922	0.000000	0.002411	0.000804	0.000000	0.000000
4.755553	21.190914	14.299997	-0.572363	0.640079	3.383647	0.000000	0.087349	0.000000	0.002830	0.000719	0.000000	0.000000
5.304613	21.456788	13.873322	0.091425	0.141576	3.403254	0.000000	-0.014762	0.000000	0.003198	0.000621	0.000000	0.000000
5.603185	21.438921	13.774424	0.022942	0.154527	3.401241	0.000000	-0.006110	0.000000	0.003386	0.000629	0.000000	0.000000
5.936519	21.428812	13.679665	0.007386	0.129750	3.398995	0.000000	-0.006110	0.000000	0.003596	0.000629	0.000000	0.000000
6.269852	21.429073	13.601424	-0.008170	0.104973	3.396748	0.000000	-0.006110	0.000000	0.003805	0.000629	0.000000	0.000000
6.604435	21.439765	13.539501	-0.023785	0.080103	3.394494	0.000000	-0.006110	0.000000	0.004016	0.000629	0.000000	0.000000
6.901758	21.458045	13.498433	-0.091728	0.092139	3.392491	0.000000	0.002438	0.000000	0.004203	0.000640	0.000000	0.000000
7.450818	21.192873	13.659103	0.572143	-0.386477	3.365585	0.000000	-0.099210	0.000000	0.004516	0.000499	0.000000	0.000000
7.999878	20.216567	14.357333	1.195604	-0.892627	3.283344	0.000000	-0.199089	0.000000	0.004749	0.000349	0.000000	0.000000
8.548938	18.598096	15.642866	1.734603	-1.462367	3.147232	0.000000	-0.295432	0.000000	0.004898	0.000192	0.000000	0.000000
9.097998	16.451808	17.607284	2.151057	-2.136284	2.959664	0.000000	-0.386530	0.000000	0.004960	0.000033	0.000000	0.000000
9.543958	14.777390	19.357427	1.616727	-1.771293	2.805403	0.000000	-0.305445	0.000000	0.005003	0.000162	0.000000	0.000000
9.984918	13.557225	20.728996	1.160729	-1.327063	2.687721	0.000000	-0.228339	0.000000	0.005103	0.000292	0.000000	0.000000
10.425878	12.714438	21.680534	0.757770	-0.822442	2.603381	0.000000	-0.153837	0.000000	0.005261	0.000426	0.000000	0.000000
10.866838	12.210516	22.168735	0.389436	-0.280394	2.551419	0.000000	-0.081093	0.000000	0.005479	0.000564	0.000000	0.000000
11.309048	12.022279	22.170803	0.066645	0.222770	2.531223	0.000000	-0.015142	0.000000	0.005760	0.000695	0.000000	0.000000
11.606371	11.990035	22.042519	0.041804	0.208694	2.526514	0.000000	-0.015142	0.000000	0.005967	0.000695	0.000000	0.000000
12.086371	11.969153	21.853081	0.001701	0.185969	2.518912	0.000000	-0.015142	0.000000	0.006301	0.000695	0.000000	0.000000
12.566371	11.986770	21.685458	-0.038403	0.163245	2.511310	0.000000	-0.015142	0.000000	0.006635	0.000695	0.000000	0.000000
13.046371	12.042886	21.539651	-0.078506	0.140520	2.503709	0.000000	-0.015142	0.000000	0.006968	0.000695	0.000000	0.000000
13.526371	12.137502	21.415660	-0.118609	0.117796	2.496107	0.000000	-0.015142	0.000000	0.007302	0.000695	0.000000	0.000000
14.007621	12.271013	21.313246	-0.158817	0.095012	2.488485	0.000000	-0.015142	0.000000	0.007637	0.000695	0.000000	0.000000
14.304943	12.372816	21.260971	-0.155614	0.032946	2.483774	0.000000	-0.020772	0.000000	0.007844	0.000677	0.000000	0.000000
14.745903	12.668767	20.999361	-0.517728	0.558002	2.489802	0.000000	0.049641	0.000000	0.008187	0.000883	0.000000	0.000000
15.186863	13.293344	20.284109	-0.903511	1.057666	2.526888	0.000000	0.120610	0.000000	0.008624	0.001100	0.000000	0.000000
15.627823	14.275108	19.147755	-1.330597	1.509198	2.595447	0.000000	0.192942	0.000000	0.009160	0.001329	0.000000	0.000000
16.068783	15.658953	17.642005	-1.818511	1.892048	2.696259	0.000000	0.267457	0.000000	0.009799	0.001574	0.000000	0.000000
16.514743	17.531792	15.813748	-2.394509	2.189737	2.832159	0.000000	0.345496	0.000000	0.010559	0.001838	0.000000	0.000000
17.063803	19.936492	13.773145	-1.957628	1.548153	2.997471	0.000000	0.258870	0.000000	0.011472	0.001481	0.000000	0.000000
17.612863	21.782020	12.372823	-1.382372	1.016869	3.114084	0.000000	0.167674	0.000000	0.012181	0.001098	0.000000	0.000000
18.161923	22.937893	11.513029	-0.709398	0.558036	3.179937	0.000000	0.073521	0.000000	0.012674	0.000695	0.000000	0.000000
18.710983	23.322382	11.132512	0.013729	0.138962	3.193869	0.000000	-0.021925	0.000000	0.012942	0.000280	0.000000	0.000000
19.009556	23.350206	11.042417	-0.053198	0.137194	3.189434	0.000000	-0.014516	0.000000	0.013035	0.000312	0.000000	0.000000
19.342889	23.390443	10.961207	-0.067514	0.106439	3.184492	0.000000	-0.014516	0.000000	0.013139	0.000312	0.000000	0.000000
19.676223	23.440224	10.900499	-0.081830	0.075684	3.179549	0.000000	-0.014516	0.000000	0.013243	0.000312	0.000000	0.000000
20.010806	23.500081	10.860048	-0.212632	0.098621	3.174608	0.000000	0.001213	0.000000	0.013348	0.000378	0.000000	0.000000
20.308129	23.630579	10.809565	-0.280382	0.095987	3.174864	0.000000	0.008539	0.000000	0.013460	0.000411	0.000000	0.000000
20.857189	23.531121	10.923774	0.460546	-0.305184	3.153415	0.000000	-0.086172	0.000000	0.013566	-0.000027	0.000000	0.000000
21.406249	22.630851	11.487888	1.168923	-0.728100	3.080528	0.000000	-0.179354	0.000000	0.013431	-0.000464	0.000000	0.000000
21.955309	20.993417	12.542096	1.794676	-1.202896	2.957495	0.000000	-0.269360	0.000000	0.013057	-0.000893	0.000000	0.000000
22.504369	18.734589	14.161506	2.293573	-1.763400	2.786496	0.000000	-0.354602	0.000000	0.012452	-0.001307	0.000000	0.000000
22.950329	16.956518	15.616404	1.706092	-1.484539	2.646020	0.000000	-0.277796	0.000000	0.011940	-0.000990	0.000000	0.000000
23.391289	15.678817	16.777977	1.201570	-1.139183	2.540092	0.000000	-0.204637	0.000000	0.011571	-0.000687	0.000000	0.000000
23.832249	14.820393	17.610799	0.751979	-0.741979	2.465761	0.000000	-0.133802	0.000000	0.011333	-0.000392	0.000000	0.000000
24.273209	14.341994	18.076973	0.336765	-0.311006	2.422181	0.000000	-0.064487	0.000000	0.011224	-0.000101	0.000000	0.000000
24.715418	14.221877	18.154978	-0.032083	0.094355	2.408861	0.000000	-0.001167	0.000000	0.011244	0.000162	0.000000	0.000000
25.012741	14.247177	18.103783	-0.053011	0.077832	2.408465	0.000000	-0.001167	0.000000	0.011292	0.000162	0.000000	0.000000
25.346075	14.290338	18.058069	-0.076473	0.059309	2.408022	0.000000	-0.001167	0.000000	0.011346	0.000162	0.000000	0.000000
25.679408	14.349141	18.024705	-0.099935	0.040785	2.407579	0.000000	-0.001167	0.000000	0.011400	0.000162	0.000000	0.000000
26.013991	14.423601	18.003999	-0.006472	-0.123866	2.407110	0.000000	-0.020695	0.000000	0.011455	0.000070	0.000000	0.000000
26.311314	14.433523	18.082711	0.004353	-0.180011	2.400932	0.000000	-0.025925	0.000000	0.011475	0.000043	0.000000	0.000000
26.752274	14.608155	18.045594	-0.401738	0.263850	2.404464	0.000000	0.042326	0.000000	0.011560	0.000340	0.000000	0.000000
27.193234	15.147759	17.620781	-0.826197	0.695704	2.438046	0.000000	0.111056	0.000000	0.011776	0.000641	0.000000	0.000000
27.634194	16.077013	16.827604	-1.288427	1.095894	2.502061	0.000000	0.181044	0.000000	0.012126	0.000949	0.000000	0.000000
28.075154	17.438412	15.702156	-1.809563	1.446207	2.597233	0.000000	0.253084	0.000000	0.012614	0.001268	0.000000	0.000000
28.521114	19.318151	14.278515	-2.418612	1.731859	2.726261	0.000000	0.328479	0.000000	0.013254	0.001603	0.000000	0.000000
29.070174	21.708623	12.693161	-1.907689	1.172019	2.883344	0.000000	0.245412	0.000000	0.014014	0.001162	0.000000	0.000000
29.619234	23.459983	11.673490	-1.261910	0.695688	2.993791	0.000000	0.158010	0.000000	0.014526	0.000699	0.000000	0.000000
30.168294	24.448395	11.146858	-0.526924	0.268927	3.055648	0.000000	0.067815	0.000000	0.014780	0.000224	0.000000	0.000000
30.717354	24.603966	11.075744	0.245310	-0.138671	3.067820	0.000000	-0.023580	0.000000	0.014772	-0.000255	0.000000	0.000000
31.015927	24.494524	11.151691	0.176726	-0.140717	3.062920	0.000000	-0.016596	0.000000	0.014706	-0.000218	0.000000	0.000000
31.349260	24.381384	11.255664	0.162693	-0.171200	3.057461	0.000000	-0.016596	0.000000	0.014634	-0.000218	0.000000	0.000000
31.682593	24.277601	11.379958	0.148659	-0.201682	3.052002	0.000000	-0.016596	0.000000	0.014561	-0.000218	0.000000	0.000000
32.017177	24.182836	11.525154	0.134573	-0.232279	3.046523	0.000000	-0.016596	0.000000	0.014488	-0.000218	0.000000	0.000000
32.314499	24.106682	11.671291	0.066971	-0.232832	3.041663	0.000000	-0.009645	0.000000	0.014423	-0.000183	0.000000	0.000000
32.863559	23.620378	12.165365	0.813022	-0.672152	3.011756	0.000000	-0.099903	0.000000	0.014194	-0.000647	0.000000	0.000000
33.412619	22.341368	13.165275	1.501596	-1.159366	2.932936	0.000000	-0.188399	0.000000	0.013714	-0.001099	0.000000	0.000000
33.961679	20.360095	14.742255	2.084017	-1.729186	2.806595	0.000000	-0.273570	0.000000	0.012991	-0.001532	0.000000	0.000000
34.510739	17.816649	17.008650	2.519119	-2.422211	2.634965	0.000000	-0.353911	0.000000	0.012037	-0.001937	0.000000	0.000000
34.956699	15.840664	19.036317	1.925828	-2.104675	2.494197	0.000000	-0.281049	0.000000	0.011241	-0.001635	0.000000	0.000000
35.397659	14.367821	20.717319	1.425753	-1.692358	2.386248	0.000000	-0.211833	0.000000	0.010582	-0.001354	0.000000	0.000000
35.838619	13.305851	21.999133	0.990860	-1.203021	2.308152	0.000000	-0.145017	0.000000	0.010044	-0.001088	0.000000	0.000000
36.279579	12.606187	22.823434	0.601264	-0.658935	2.259025	0.000000	-0.079841	0.000000	0.009621	-0.000835	0.000000	0.000000
36.721789	12.236200	23.152999	0.266349	-0.136385	2.238288	0.000000	-0.020560	0.000000	0.009306	-0.000612	0.000000	0.000000
37.019112	12.085554	23.237989	0.240327	-0.149466	2.232357	0.000000	-0.020560	0.000000	0.009124	-0.000612	0.000000	0.000000
37.352445	11.935061	23.342521	0.211153	-0.164130	2.225708	0.000000	-0.020560	0.000000	0.008920	-0.000612	0.000000	0.000000
37.685779	11.804017	23.456829	0.181978	-0.178795	2.219059	0.000000	-0.020560	0.000000	0.008715	-0.000612	0.000000	0.000000
38.020362	11.692041	23.581398	0.152695	-0.193515	2.212385	0.000000	-0.020560	0.000000	0.008511	-0.000612	0.000000	0.000000
38.317684	11.608955	23.700408	0.152852	-0.260250	2.206452	0.000000	-0.025536	0.000000	0.008329	-0.000632	0.000000	0.000000
38.758644	11.622886	23.667288	-0.184735	0.335064	2.209353	0.000000	0.037686	0.000000	0.008097	-0.000420	0.000000	0.000000
39.199604	11.937188	23.113834	-0.530761	0.915127	2.240115	0.000000	0.101342	0.000000	0.007957	-0.000213	0.000000	0.000000
39.640564	12.566224	22.065236	-0.901044	1.453543	2.299091	0.000000	0.166155	0.000000	0.007908	-0.000009	0.000000	0.000000
40.081524	13.538746	20.569214	-1.312507	1.925809	2.386953	0.000000	0.232861	0.000000	0.007949	0.000196	0.000000	0.000000
40.527484	14.916776	18.671106	-1.787908	2.311936	2.506187	0.000000	0.302648	0.000000	0.008083	0.000404	0.000000	0.000000
41.076544	16.678041	16.537601	-1.400385	1.596291	2.651656	0.000000	0.226919	0.000000	0.008232	0.000139	0.000000	0.000000
41.625604	17.956448	15.123354	-0.913908	0.994372	2.754514	0.000000	0.147166	0.000000	0.008236	-0.000128	0.000000	0.000000
42.174664	18.661651	14.327612	-0.362857	0.463297	2.812935	0.000000	0.064800	0.000000	0.008093	-0.000392	0.000000	0.000000
42.723724	18.743820	14.093679	0.213826	-0.034769	2.825880	0.000000	-0.018722	0.000000	0.007806	-0.000650	0.000000	0.000000
43.022297	18.648282	14.100191	0.151745	-0.021456	2.822533	0.000000	-0.011832	0.000000	0.007618	-0.000630	0.000000	0.000000
43.502297	18.515246	14.137136	0.125413	-0.055513	2.817155	0.000000	-0.011832	0.000000	0.007316	-0.000630	0.000000	0.000000
43.982297	18.407489	14.206777	0.099081	-0.089571	2.811778	0.000000	-0.011832	0.000000	0.007013	-0.000630	0.000000	0.000000
44.462297	18.325011	14.309113	0.072748	-0.123629	2.806401	0.000000	-0.011832	0.000000	0.006711	-0.000630	0.000000	0.000000
44.942297	18.267812	14.444144	0.046416	-0.157687	2.801024	0.000000	-0.011832	0.000000	0.006409	-0.000630	0.000000	0.000000
45.423547	18.236068	14.612170	-0.070337	-0.119436	2.795650	0.000000	0.002019	0.000000	0.006105	-0.000600	0.000000	0.000000
45.720870	18.282784	14.689313	-0.132083	-0.103753	2.796430	0.000000	0.008957	0.000000	0.005927	-0.000585	0.000000	0.000000
46.269930	18.119682	15.087089	0.427003	-0.624931	2.779033	0.000000	-0.073533	0.000000	0.005554	-0.000771	0.000000	0.000000
46.818990	17.355560	16.078164	0.955906	-1.190626	2.716724	0.000000	-0.154731	0.000000	0.005083	-0.000943	0.000000	0.000000
47.368050	16.044428	17.733126	1.417258	-1.841133	2.610601	0.000000	-0.233200	0.000000	0.004522	-0.001099	0.000000	0.000000
47.917110	14.278946	20.169853	1.778463	-2.622792	2.462541	0.000000	-0.307549	0.000000	0.003880	-0.001235	0.000000	0.000000
48.363070	12.903946	22.335774	1.315076	-2.213333	2.341251	0.000000	-0.238945	0.000000	0.003351	-0.001141	0.000000	0.000000
48.804030	11.923809	24.070085	0.915601	-1.704557	2.250875	0.000000	-0.173459	0.000000	0.002866	-0.001061	0.000000	0.000000
49.244990	11.276305	25.319621	0.557970	-1.118223	2.188886	0.000000	-0.109939	0.000000	0.002414	-0.000993	0.000000	0.000000
49.685950	10.931837	26.027535	0.225841	-0.481010	2.154583	0.000000	-0.047659	0.000000	0.001989	-0.000936	0.000000	0.000000
50.128160	10.874831	26.161336	-0.069812	0.115179	2.147589	0.000000	0.008900	0.000000	0.001585	-0.000894	0.000000	0.000000
50.425482	10.924513	26.096269	-0.097286	0.103663	2.150501	0.000000	0.008900	0.000000	0.001320	-0.000894	0.000000	0.000000
50.758816	10.999638	26.031464	-0.128087	0.090753	2.153766	0.000000	0.008900	0.000000	0.001022	-0.000894	0.000000	0.000000
51.092149	11.095297	25.975265	-0.158889	0.077842	2.157030	0.000000	0.008900	0.000000	0.000724	-0.000894	0.000000	0.000000
51.426732	11.211737	25.928037	-0.098848	-0.145457	2.160285	0.000000	-0.008625	0.000000	0.000425	-0.000897	0.000000	0.000000
51.724055	11.278478	26.018015	-0.098010	-0.221209	2.157988	0.000000	-0.013910	0.000000	0.000158	-0.000898	0.000000	0.000000
52.165015	11.511736	25.923481	-0.433264	0.434775	2.165905	0.000000	0.048114	0.000000	-0.000238	-0.000899	0.000000	0.000000
52.605975	12.048228	25.256973	-0.788307	1.070974	2.201272	0.000000	0.110696	0.000000	-0.000636	-0.000910	0.000000	0.000000
53.046935	12.912457	24.048826	-1.179357	1.658442	2.264494	0.000000	0.174548	0.000000	-0.001042	-0.000932	0.000000	0.000000
53.487895	14.143895	22.354017	-1.624279	2.170452	2.356296	0.000000	0.240398	0.000000	-0.001459	-0.000964	0.000000	0.000000
53.933855	15.819840	20.224335	-2.147667	2.585015	2.479247	0.000000	0.309391	0.000000	-0.001898	-0.001007	0.000000	0.000000
54.482915	17.977043	17.827467	-1.758564	1.806287	2.629289	0.000000	0.234488	0.000000	-0.002433	-0.000937	0.000000	0.000000
55.031975	19.635824	16.210482	-1.245275	1.156214	2.736955	0.000000	0.155410	0.000000	-0.002924	-0.000850	0.000000	0.000000
55.581035	20.679055	15.258198	-0.644054	0.588492	2.800327	0.000000	0.073561	0.000000	-0.003364	-0.000749	0.000000	0.000000
56.130095	21.033083	14.902778	0.002637	0.062686	2.818275	0.000000	-0.009604	0.000000	-0.003744	-0.000633	0.000000	0.000000
56.428668	21.069587	14.847343	-0.068263	0.082720	2.817866	0.000000	-0.002011	0.000000	-0.003936	-0.000643	0.000000	0.000000
56.762001	21.120394	14.799730	-0.084158	0.060116	2.817410	0.000000	-0.002011	0.000000	-0.004150	-0.000643	0.000000	0.000000
57.095334	21.181797	14.767188	-0.100052	0.037512	2.816954	0.000000	-0.002011	0.000000	-0.004365	-0.000643	0.000000	0.000000
57.429918	21.254087	14.749677	-0.116006	0.014823	2.816497	0.000000	-0.002011	0.000000	-0.004580	-0.000643	0.000000	0.000000
57.727240	21.327299	14.746848	-0.188105	0.034575	2.816091	0.000000	0.005637	0.000000	-0.004771	-0.000656	0.000000	0.000000
58.276300	21.169228	14.991578	0.473964	-0.482962	2.796658	0.000000	-0.077430	0.000000	-0.005088	-0.000496	0.000000	0.000000
58.825360	20.298403	15.820020	1.102551	-1.034893	2.731842	0.000000	-0.159132	0.000000	-0.005315	-0.000328	0.000000	0.000000
59.374420	18.776325	17.291170	1.653271	-1.660525	2.622788	0.000000	-0.238017	0.000000	-0.005447	-0.000153	0.000000	0.000000
59.923480	16.710478	19.509796	2.087236	-2.404412	2.471427	0.000000	-0.312684	0.000000	-0.005483	0.000024	0.000000	0.000000
60.369440	15.092131	21.481493	1.554642	-1.998344	2.347405	0.000000	-0.243927	0.000000	-0.005504	-0.000119	0.000000	0.000000
60.810400	13.927240	23.031056	1.097224	-1.502629	2.254483	0.000000	-0.178329	0.000000	-0.005588	-0.000262	0.000000	0.000000
61.251360	13.142163	24.111545	0.689926	-0.938557	2.190072	0.000000	-0.114760	0.000000	-0.005735	-0.000408	0.000000	0.000000
61.692320	12.701040	24.673810	0.314143	-0.331790	2.153440	0.000000	-0.052493	0.000000	-0.005948	-0.000558	0.000000	0.000000
62.134530	12.583772	24.691683	-0.014737	0.226210	2.144179	0.000000	0.003619	0.000000	-0.006229	-0.000700	0.000000	0.000000
62.431853	12.599562	24.560932	-0.038370	0.213552	2.145463	0.000000	0.003619	0.000000	-0.006437	-0.000700	0.000000	0.000000
62.765186	12.633973	24.423294	-0.064864	0.199362	2.146903	0.000000	0.003619	0.000000	-0.006671	-0.000700	0.000000	0.000000
63.098520	12.686048	24.295116	-0.091359	0.185171	2.148343	0.000000	0.003619	0.000000	-0.006904	-0.000700	0.000000	0.000000
63.433103	12.756081	24.175971	-0.117954	0.170927	2.149788	0.000000	0.003619	0.000000	-0.007138	-0.000700	0.000000	0.000000
63.730426	12.833227	24.078132	-0.107973	0.094963	2.151070	0.000000	-0.002015	0.000000	-0.007346	-0.000681	0.000000	0.000000
64.171386	13.090952	23.729317	-0.479055	0.693146	2.164148	0.000000	0.059885	0.000000	-0.007689	-0.000875	0.000000	0.000000
64.612346	13.684237	22.864956	-0.872010	1.259796	2.204729	0.000000	0.122477	0.000000	-0.008119	-0.001078	0.000000	0.000000
65.053306	14.640165	21.524377	-1.304780	1.769135	2.273279	0.000000	0.186474	0.000000	-0.008641	-0.001294	0.000000	0.000000
65.494266	16.002374	19.768573	-1.797129	2.197996	2.370583	0.000000	0.252609	0.000000	-0.009262	-0.001525	0.000000	0.000000
65.940226	17.856402	17.652529	-2.376017	2.527416	2.499347	0.000000	0.322007	0.000000	-0.009998	-0.001775	0.000000	0.000000
66.489286	20.230218	15.285821	-1.923319	1.809134	2.656439	0.000000	0.246358	0.000000	-0.010880	-0.001437	0.000000	0.000000
67.038346	22.029099	13.632840	-1.334860	1.219680	2.770544	0.000000	0.166318	0.000000	-0.011570	-0.001073	0.000000	0.000000
67.587406	23.126100	12.575861	-0.652183	0.717077	2.839630	0.000000	0.083311	0.000000	-0.012055	-0.000690	0.000000	0.000000
68.136466	23.443818	12.039606	0.076521	0.265535	2.862466	0.000000	-0.001184	0.000000	-0.012326	-0.000295	0.000000	0.000000
68.435038	23.442056	11.868477	-0.003592	0.273151	2.864661	0.000000	0.007043	0.000000	-0.012424	-0.000329	0.000000	0.000000
68.768372	23.449191	11.696436	-0.017812	0.242970	2.867119	0.000000	0.007043	0.000000	-0.012534	-0.000329	0.000000	0.000000
69.101705	23.465805	11.544516	-0.032032	0.212789	2.869576	0.000000	0.007043	0.000000	-0.012644	-0.000329	0.000000	0.000000
69.436288	23.492015	11.412261	-0.046305	0.182495	2.872042	0.000000	0.007043	0.000000	-0.012754	-0.000329	0.000000	0.000000
69.733611	23.523436	11.311690	-0.126841	0.188147	2.874241	0.000000	0.015333	0.000000	-0.012852	-0.000365	0.000000	0.000000
70.282671	23.258769	11.331775	0.606009	-0.224950	2.859387	0.000000	-0.069671	0.000000	-0.012938	0.000053	0.000000	0.000000
