#ParticleID	Turn	x[m]	xp	y[m]	yp	z[m]	dE[GeV]# s	beta_x	beta_y	alpha_x	alpha_y	D_x	D_y	D_px	D_py	orbit_x	orbit_px	orbit_y	orbit_py
0.300000	11.858537	25.018262	-0.015453	-0.026439	2.614813	0.000000	0.000138	0.000000	-0.000136	0.000119	0.000000	0.000000
0.601250	11.875502	25.037821	-0.040863	-0.038489	2.614819	0.000000	0.000138	0.000000	-0.000100	0.000119	0.000000	0.000000
0.898573	11.907258	25.064244	-0.036724	-0.111841	2.614824	0.000000	-0.006279	0.000000	-0.000064	0.000119	0.000000	0.000000
1.339533	12.092325	24.884854	-0.384520	0.517111	2.628280	0.000000	0.067594	0.000000	-0.000012	0.000118	0.000000	0.000000
1.780493	12.590680	24.159074	-0.749885	1.122535	2.674448	0.000000	0.142234	0.000000	0.000040	0.000119	0.000000	0.000000
2.221453	13.425093	22.919925	-1.149511	1.676885	2.753856	0.000000	0.218494	0.000000	0.000093	0.000121	0.000000	0.000000
2.662413	14.633686	21.223787	-1.601656	2.154938	2.867405	0.000000	0.297241	0.000000	0.000147	0.000124	0.000000	0.000000
3.108373	16.292558	19.122962	-2.131294	2.536079	3.018250	0.000000	0.379861	0.000000	0.000203	0.000128	0.000000	0.000000
3.657433	18.419615	16.763449	-1.719696	1.786641	3.201514	0.000000	0.286947	0.000000	0.000271	0.000120	0.000000	0.000000
4.206493	20.024903	15.152618	-1.186623	1.164461	3.332293	0.000000	0.188945	0.000000	0.000335	0.000111	0.000000	0.000000
4.755553	20.995028	14.175735	-0.569730	0.625224	3.408268	0.000000	0.087593	0.000000	0.000392	0.000099	0.000000	0.000000
5.304613	21.261460	13.763218	0.087409	0.130520	3.428092	0.000000	-0.015311	0.000000	0.000443	0.000085	0.000000	0.000000
5.603185	21.246511	13.670551	0.018006	0.144037	3.426159	0.000000	-0.006388	0.000000	0.000469	0.000086	0.000000	0.000000
5.936519	21.239738	13.582823	0.002312	0.119148	3.424001	0.000000	-0.006388	0.000000	0.000498	0.000086	0.000000	0.000000
6.269852	21.243429	13.511687	-0.013382	0.094259	3.421843	0.000000	-0.006388	0.000000	0.000526	0.000086	0.000000	0.000000
6.604435	21.257654	13.456971	-0.029135	0.069276	3.419677	0.000000	-0.006388	0.000000	0.000555	0.000086	0.000000	0.000000
6.901758	21.279141	13.422377	-0.098461	0.081992	3.417752	0.000000	0.002499	0.000000	0.000581	0.000088	0.000000	0.000000
7.450818	21.024461	13.593034	0.559607	-0.394641	3.390916	0.000000	-0.099957	0.000000	0.000624	0.000068	0.000000	0.000000
7.999878	20.064657	14.299368	1.178147	-0.899384	3.308241	0.000000	-0.200639	0.000000	0.000656	0.000048	0.000000	0.000000
8.548938	18.467529	15.591692	1.713468	-1.468189	3.171193	0.000000	-0.297761	0.000000	0.000676	0.000026	0.000000	0.000000
9.097998	16.345891	17.562056	2.127755	-2.141573	2.982203	0.000000	-0.389601	0.000000	0.000685	0.000004	0.000000	0.000000
9.543958	14.690436	19.317772	1.597536	-1.778692	2.826739	0.000000	-0.307972	0.000000	0.000690	0.000022	0.000000	0.000000
9.984918	13.485813	20.696543	1.144632	-1.336128	2.708151	0.000000	-0.230337	0.000000	0.000704	0.000040	0.000000	0.000000
10.425878	12.656139	21.656604	0.744023	-0.832771	2.623179	0.000000	-0.155326	0.000000	0.000726	0.000058	0.000000	0.000000
10.866838	12.163507	22.154272	0.377408	-0.291522	2.570855	0.000000	-0.082085	0.000000	0.000756	0.000077	0.000000	0.000000
11.309048	11.985267	22.166378	0.057101	0.208951	2.550563	0.000000	-0.015987	0.000000	0.000794	0.000095	0.000000	0.000000
11.606371	11.958712	22.046288	0.032213	0.194952	2.545781	0.000000	-0.015987	0.000000	0.000823	0.000095	0.000000	0.000000
12.086371	11.947073	21.869982	-0.007967	0.172352	2.538061	0.000000	-0.015987	0.000000	0.000868	0.000095	0.000000	0.000000
12.566371	11.974008	21.715372	-0.048146	0.149752	2.530342	0.000000	-0.015987	0.000000	0.000914	0.000095	0.000000	0.000000
13.046371	12.039515	21.582458	-0.088326	0.127152	2.522622	0.000000	-0.015987	0.000000	0.000960	0.000095	0.000000	0.000000
13.526371	12.143594	21.471240	-0.128506	0.104553	2.514902	0.000000	-0.015987	0.000000	0.001006	0.000095	0.000000	0.000000
14.007621	12.286668	21.381512	-0.168790	0.081894	2.507162	0.000000	-0.015987	0.000000	0.001052	0.000095	0.000000	0.000000
14.304943	12.394438	21.336977	-0.163595	0.016135	2.502381	0.000000	-0.022061	0.000000	0.001080	0.000093	0.000000	0.000000
14.745903	12.697574	21.089225	-0.526410	0.543565	2.508229	0.000000	0.048817	0.000000	0.001127	0.000121	0.000000	0.000000
15.186863	13.330052	20.385484	-0.913278	1.046264	2.545412	0.000000	0.120249	0.000000	0.001187	0.000151	0.000000	0.000000
15.627823	14.320772	19.257774	-1.341874	1.501357	2.614352	0.000000	0.193049	0.000000	0.001261	0.000183	0.000000	0.000000
16.068783	15.715001	17.757405	-1.831781	1.888138	2.715835	0.000000	0.268046	0.000000	0.001349	0.000216	0.000000	0.000000
16.514743	17.600086	15.931146	-2.410172	2.189780	2.852711	0.000000	0.346561	0.000000	0.001453	0.000253	0.000000	0.000000
17.063803	20.020738	13.892005	-1.972231	1.545939	3.019161	0.000000	0.259279	0.000000	0.001579	0.000204	0.000000	0.000000
17.612863	21.880644	12.495634	-1.394967	1.012217	3.136380	0.000000	0.167401	0.000000	0.001676	0.000151	0.000000	0.000000
18.161923	23.048412	11.642571	-0.719160	0.550595	3.202289	0.000000	0.072557	0.000000	0.001744	0.000095	0.000000	0.000000
18.710983	23.441545	11.272053	0.007450	0.128193	3.215722	0.000000	-0.023574	0.000000	0.001781	0.000038	0.000000	0.000000
19.009556	23.476933	11.186289	-0.065652	0.130055	3.211141	0.000000	-0.015298	0.000000	0.001794	0.000043	0.000000	0.000000
19.342889	23.525455	11.109686	-0.079912	0.099752	3.206028	0.000000	-0.015298	0.000000	0.001808	0.000043	0.000000	0.000000
19.676223	23.583482	11.053286	-0.094171	0.069450	3.200914	0.000000	-0.015298	0.000000	0.001822	0.000043	0.000000	0.000000
20.010806	23.651581	11.016853	-0.225667	0.093618	3.195801	0.000000	0.000536	0.000000	0.001837	0.000052	0.000000	0.000000
20.308129	23.789703	10.969276	-0.300067	0.094616	3.195946	0.000000	0.008756	0.000000	0.001852	0.000057	0.000000	0.000000
20.857189	23.708942	11.087378	0.446300	-0.310977	3.174528	0.000000	-0.086604	0.000000	0.001867	-0.000003	0.000000	0.000000
21.406249	22.821070	11.660359	1.161140	-0.738722	3.101127	0.000000	-0.180428	0.000000	0.001848	-0.000064	0.000000	0.000000
21.955309	21.188808	12.729033	1.793955	-1.219087	2.977045	0.000000	-0.271053	0.000000	0.001797	-0.000123	0.000000	0.000000
22.504369	18.927468	14.369523	2.300041	-1.786289	2.804482	0.000000	-0.356872	0.000000	0.001714	-0.000180	0.000000	0.000000
22.950329	17.145881	15.842410	1.708856	-1.502448	2.662688	0.000000	-0.279670	0.000000	0.001644	-0.000136	0.000000	0.000000
23.391289	15.867773	17.017028	1.200487	-1.151127	2.555730	0.000000	-0.206113	0.000000	0.001593	-0.000094	0.000000	0.000000
23.832249	15.012235	17.857432	0.746969	-0.747429	2.480644	0.000000	-0.134903	0.000000	0.001560	-0.000054	0.000000	0.000000
24.273209	14.540175	18.325385	0.327581	-0.309722	2.436575	0.000000	-0.065228	0.000000	0.001545	-0.000014	0.000000	0.000000
24.715418	14.430131	18.399348	-0.042059	0.097544	2.423017	0.000000	-0.002151	0.000000	0.001548	0.000023	0.000000	0.000000
25.012741	14.461278	18.346194	-0.062700	0.081231	2.422371	0.000000	-0.002151	0.000000	0.001555	0.000023	0.000000	0.000000
25.346075	14.510792	18.298136	-0.085841	0.062942	2.421647	0.000000	-0.002151	0.000000	0.001563	0.000023	0.000000	0.000000
25.679408	14.575733	18.262271	-0.108981	0.044653	2.420922	0.000000	-0.002151	0.000000	0.001570	0.000023	0.000000	0.000000
26.013991	14.656134	18.238902	-0.013309	-0.121667	2.420170	0.000000	-0.021785	0.000000	0.001578	0.000010	0.000000	0.000000
26.311314	14.670079	18.316171	0.001837	-0.182451	2.413690	0.000000	-0.027615	0.000000	0.001580	0.000006	0.000000	0.000000
26.752274	14.849327	18.278435	-0.409854	0.267700	2.416614	0.000000	0.040939	0.000000	0.001592	0.000047	0.000000	0.000000
27.193234	15.398525	17.847568	-0.840271	0.705671	2.449824	0.000000	0.109959	0.000000	0.001622	0.000088	0.000000	0.000000
27.634194	16.342765	17.043174	-1.309082	1.111533	2.513699	0.000000	0.180231	0.000000	0.001670	0.000131	0.000000	0.000000
28.075154	17.725195	15.901854	-1.837706	1.466819	2.608967	0.000000	0.252554	0.000000	0.001737	0.000175	0.000000	0.000000
28.521114	19.633024	14.458337	-2.455281	1.756308	2.738315	0.000000	0.328201	0.000000	0.001825	0.000221	0.000000	0.000000
29.070174	22.058074	12.849968	-1.935072	1.190217	2.895749	0.000000	0.244771	0.000000	0.001930	0.000160	0.000000	0.000000
29.619234	23.832936	11.813326	-1.278163	0.708906	3.006145	0.000000	0.157002	0.000000	0.002000	0.000096	0.000000	0.000000
30.168294	24.832223	11.274570	-0.530962	0.278091	3.067548	0.000000	0.066449	0.000000	0.002035	0.000031	0.000000	0.000000
30.717354	24.985341	11.195325	0.253747	-0.132915	3.078868	0.000000	-0.025282	0.000000	0.002034	-0.000035	0.000000	0.000000
31.015927	24.875825	11.265574	0.177205	-0.131118	3.073689	0.000000	-0.017375	0.000000	0.002025	-0.000030	0.000000	0.000000
31.349260	24.762296	11.363018	0.163384	-0.161215	3.067907	0.000000	-0.017375	0.000000	0.002015	-0.000030	0.000000	0.000000
31.682593	24.657980	11.480527	0.149563	-0.191312	3.062125	0.000000	-0.017375	0.000000	0.002005	-0.000030	0.000000	0.000000
32.017177	24.562539	11.618655	0.135691	-0.221523	3.056321	0.000000	-0.017375	0.000000	0.001995	-0.000030	0.000000	0.000000
32.314499	24.485519	11.758363	0.060458	-0.218164	3.051164	0.000000	-0.009537	0.000000	0.001986	-0.000025	0.000000	0.000000
32.863559	23.999755	12.237186	0.818961	-0.659038	3.021060	0.000000	-0.100065	0.000000	0.001955	-0.000089	0.000000	0.000000
33.412619	22.708013	13.222939	1.519609	-1.146856	2.941696	0.000000	-0.188820	0.000000	0.001890	-0.000151	0.000000	0.000000
33.961679	20.701550	14.785835	2.112909	-1.716366	2.814480	0.000000	-0.274229	0.000000	0.001790	-0.000210	0.000000	0.000000
34.510739	18.122113	17.037199	2.556947	-2.408134	2.641667	0.000000	-0.354776	0.000000	0.001659	-0.000266	0.000000	0.000000
34.956699	16.116957	19.050946	1.955229	-2.088459	2.499906	0.000000	-0.281798	0.000000	0.001550	-0.000225	0.000000	0.000000
35.397659	14.621926	20.716652	1.447871	-1.674539	2.391120	0.000000	-0.212462	0.000000	0.001459	-0.000186	0.000000	0.000000
35.838619	13.543611	21.982182	1.006668	-1.184425	2.312331	0.000000	-0.145543	0.000000	0.001385	-0.000149	0.000000	0.000000
36.279579	12.832742	22.789955	0.611461	-0.640419	2.262644	0.000000	-0.080281	0.000000	0.001327	-0.000114	0.000000	0.000000
36.721789	12.456152	23.103524	0.274260	-0.123268	2.241466	0.000000	-0.021361	0.000000	0.001284	-0.000084	0.000000	0.000000
37.019112	12.300695	23.180709	0.248595	-0.136333	2.235140	0.000000	-0.021361	0.000000	0.001259	-0.000084	0.000000	0.000000
37.352445	12.144556	23.276480	0.219821	-0.150980	2.228047	0.000000	-0.021361	0.000000	0.001232	-0.000084	0.000000	0.000000
37.685779	12.007600	23.382015	0.191048	-0.165627	2.220954	0.000000	-0.021361	0.000000	0.001204	-0.000084	0.000000	0.000000
38.020362	11.889420	23.497766	0.162167	-0.180329	2.213835	0.000000	-0.021361	0.000000	0.001176	-0.000084	0.000000	0.000000
38.317684	11.800618	23.608883	0.165125	-0.250687	2.207509	0.000000	-0.026716	0.000000	0.001151	-0.000087	0.000000	0.000000
38.758644	11.805654	23.568458	-0.176612	0.342012	2.209698	0.000000	0.036513	0.000000	0.001119	-0.000057	0.000000	0.000000
39.199604	12.114489	23.010204	-0.526418	0.919148	2.239821	0.000000	0.100158	0.000000	0.001100	-0.000029	0.000000	0.000000
39.640564	12.741233	21.959521	-0.900275	1.454463	2.298222	0.000000	0.164944	0.000000	0.001094	-0.000000	0.000000	0.000000
40.081524	13.714523	20.464218	-1.315265	1.923598	2.385566	0.000000	0.231609	0.000000	0.001100	0.000028	0.000000	0.000000
40.527484	15.096373	18.569736	-1.794188	2.306519	2.504322	0.000000	0.301320	0.000000	0.001119	0.000057	0.000000	0.000000
41.076544	16.860541	16.440775	-1.399792	1.593771	2.649194	0.000000	0.225678	0.000000	0.001140	0.000020	0.000000	0.000000
41.625604	18.134405	15.027949	-0.906516	0.994548	2.751391	0.000000	0.146033	0.000000	0.001141	-0.000017	0.000000	0.000000
42.174664	18.827978	14.230623	-0.349206	0.466166	2.809100	0.000000	0.063797	0.000000	0.001121	-0.000054	0.000000	0.000000
42.723724	18.892269	13.992003	0.232771	-0.029010	2.821297	0.000000	-0.019571	0.000000	0.001082	-0.000089	0.000000	0.000000
43.022297	18.787357	13.994056	0.167519	-0.014106	2.817661	0.000000	-0.012267	0.000000	0.001056	-0.000086	0.000000	0.000000
43.502297	18.639146	14.024066	0.141253	-0.048414	2.811814	0.000000	-0.012267	0.000000	0.001015	-0.000086	0.000000	0.000000
43.982297	18.516151	14.087010	0.114987	-0.082721	2.805967	0.000000	-0.012267	0.000000	0.000973	-0.000086	0.000000	0.000000
44.462297	18.418371	14.182889	0.088721	-0.117028	2.800121	0.000000	-0.012267	0.000000	0.000932	-0.000086	0.000000	0.000000
44.942297	18.345806	14.311703	0.062455	-0.151335	2.794274	0.000000	-0.012267	0.000000	0.000890	-0.000086	0.000000	0.000000
45.423547	18.298594	14.473737	-0.054541	-0.114019	2.788430	0.000000	0.001549	0.000000	0.000849	-0.000082	0.000000	0.000000
45.720870	18.335872	14.547725	-0.118414	-0.097098	2.788914	0.000000	0.008785	0.000000	0.000824	-0.000080	0.000000	0.000000
46.269930	18.157118	14.935712	0.441998	-0.613703	2.771187	0.000000	-0.073443	0.000000	0.000773	-0.000106	0.000000	0.000000
46.818990	17.376533	15.911530	0.971186	-1.174021	2.708614	0.000000	-0.154371	0.000000	0.000708	-0.000130	0.000000	0.000000
47.368050	16.049259	17.544685	1.431771	-1.817964	2.602306	0.000000	-0.232563	0.000000	0.000631	-0.000152	0.000000	0.000000
47.917110	14.269053	19.951502	1.791217	-2.591397	2.454147	0.000000	-0.306631	0.000000	0.000542	-0.000171	0.000000	0.000000
48.363070	12.883351	22.091346	1.326944	-2.186692	2.332781	0.000000	-0.238259	0.000000	0.000469	-0.000158	0.000000	0.000000
48.804030	11.893148	23.804600	0.927068	-1.683781	2.242257	0.000000	-0.172997	0.000000	0.000402	-0.000146	0.000000	0.000000
49.244990	11.235670	25.038717	0.569550	-1.104259	2.180047	0.000000	-0.109704	0.000000	0.000340	-0.000137	0.000000	0.000000
49.685950	10.880875	25.737547	0.238054	-0.474494	2.145441	0.000000	-0.047659	0.000000	0.000281	-0.000129	0.000000	0.000000
50.128160	10.812692	25.869010	-0.056222	0.113552	2.138057	0.000000	0.008612	0.000000	0.000226	-0.000123	0.000000	0.000000
50.425482	10.854326	25.804948	-0.083806	0.101910	2.140654	0.000000	0.008612	0.000000	0.000189	-0.000123	0.000000	0.000000
50.758816	10.920505	25.741358	-0.114732	0.088859	2.143565	0.000000	0.008612	0.000000	0.000149	-0.000123	0.000000	0.000000
51.092149	11.007301	25.686469	-0.145657	0.075807	2.146477	0.000000	0.008612	0.000000	0.000108	-0.000123	0.000000	0.000000
51.426732	11.114931	25.640645	-0.086527	-0.145303	2.149378	0.000000	-0.008825	0.000000	0.000067	-0.000123	0.000000	0.000000
51.724055	11.174396	25.730569	-0.086082	-0.220270	2.146790	0.000000	-0.014088	0.000000	0.000030	-0.000123	0.000000	0.000000
52.165015	11.396101	25.638566	-0.418643	0.428117	2.154234	0.000000	0.047641	0.000000	-0.000024	-0.000123	0.000000	0.000000
52.605975	11.918390	24.981177	-0.770329	1.057025	2.188991	0.000000	0.109914	0.000000	-0.000079	-0.000125	0.000000	0.000000
53.046935	12.765124	23.788313	-1.157208	1.637838	2.251460	0.000000	0.173440	0.000000	-0.000134	-0.000127	0.000000	0.000000
53.487895	13.974986	22.114250	-1.596956	2.144131	2.342350	0.000000	0.238943	0.000000	-0.000191	-0.000132	0.000000	0.000000
53.933855	15.623971	20.010129	-2.113912	2.554198	2.464206	0.000000	0.307567	0.000000	-0.000251	-0.000137	0.000000	0.000000
54.482915	17.746839	17.642469	-1.729648	1.783480	2.612942	0.000000	0.233166	0.000000	-0.000324	-0.000128	0.000000	0.000000
55.031975	19.377748	16.046843	-1.223215	1.139794	2.719624	0.000000	0.154627	0.000000	-0.000391	-0.000116	0.000000	0.000000
55.581035	20.401505	15.109597	-0.630384	0.577293	2.782358	0.000000	0.073343	0.000000	-0.000452	-0.000103	0.000000	0.000000
56.130095	20.745801	14.763972	0.006972	0.055912	2.800031	0.000000	-0.009244	0.000000	-0.000504	-0.000087	0.000000	0.000000
56.428668	20.778449	14.713533	-0.061886	0.074264	2.799491	0.000000	-0.001897	0.000000	-0.000530	-0.000089	0.000000	0.000000
56.762001	20.825074	14.671617	-0.077990	0.051484	2.798888	0.000000	-0.001897	0.000000	-0.000560	-0.000089	0.000000	0.000000
57.095334	20.882436	14.644887	-0.094094	0.028705	2.798286	0.000000	-0.001897	0.000000	-0.000589	-0.000089	0.000000	0.000000
57.429918	20.950808	14.633329	-0.110258	0.005839	2.797681	0.000000	-0.001897	0.000000	-0.000619	-0.000089	0.000000	0.000000
57.727240	21.020644	14.635898	-0.179841	0.023949	2.797143	0.000000	0.005451	0.000000	-0.000645	-0.000090	0.000000	0.000000
58.276300	20.859301	14.890634	0.471910	-0.490642	2.777511	0.000000	-0.077010	0.000000	-0.000689	-0.000069	0.000000	0.000000
58.825360	19.996421	15.726207	1.090328	-1.040180	2.712901	0.000000	-0.158105	0.000000	-0.000720	-0.000046	0.000000	0.000000
59.374420	18.492952	17.202130	1.631732	-1.663805	2.604458	0.000000	-0.236398	0.000000	-0.000739	-0.000022	0.000000	0.000000
59.923480	16.455089	19.423527	2.057881	-2.405937	2.454104	0.000000	-0.310497	0.000000	-0.000745	0.000002	0.000000	0.000000
60.369440	14.859706	21.397947	1.532223	-2.002756	2.330943	0.000000	-0.242155	0.000000	-0.000748	-0.000017	0.000000	0.000000
60.810400	13.711840	22.952747	1.080777	-1.509809	2.238635	0.000000	-0.176966	0.000000	-0.000760	-0.000037	0.000000	0.000000
61.251360	12.938910	24.040746	0.678708	-0.948169	2.174611	0.000000	-0.113791	0.000000	-0.000781	-0.000057	0.000000	0.000000
61.692320	12.505606	24.612440	0.307646	-0.343389	2.138140	0.000000	-0.051912	0.000000	-0.000810	-0.000077	0.000000	0.000000
62.134530	12.392177	24.641279	-0.018828	0.216083	2.128814	0.000000	0.004114	0.000000	-0.000849	-0.000097	0.000000	0.000000
62.431853	12.410509	24.516541	-0.042829	0.203454	2.130066	0.000000	0.004114	0.000000	-0.000878	-0.000097	0.000000	0.000000
62.765186	12.448031	24.385625	-0.069737	0.189295	2.131469	0.000000	0.004114	0.000000	-0.000910	-0.000097	0.000000	0.000000
63.098520	12.503492	24.264148	-0.096646	0.175136	2.132873	0.000000	0.004114	0.000000	-0.000942	-0.000097	0.000000	0.000000
63.433103	12.577201	24.151708	-0.123655	0.160924	2.134281	0.000000	0.004114	0.000000	-0.000975	-0.000097	0.000000	0.000000
63.730426	12.657868	24.059772	-0.116322	0.088702	2.135533	0.000000	-0.001173	0.000000	-0.001003	-0.000094	0.000000	0.000000
64.171386	12.921412	23.716586	-0.483654	0.686617	2.148611	0.000000	0.060337	0.000000	-0.001051	-0.000121	0.000000	0.000000
64.612346	13.517385	22.857910	-0.873081	1.253292	2.188949	0.000000	0.122536	0.000000	-0.001110	-0.000148	0.000000	0.000000
65.053306	14.473013	21.522811	-1.302393	1.762945	2.257008	0.000000	0.186131	0.000000	-0.001182	-0.000178	0.000000	0.000000
65.494266	15.831949	19.772037	-1.791203	2.192387	2.353562	0.000000	0.251848	0.000000	-0.001267	-0.000210	0.000000	0.000000
65.940226	17.679465	17.660470	-2.366512	2.522804	2.481286	0.000000	0.320834	0.000000	-0.001368	-0.000244	0.000000	0.000000
66.489286	20.047073	15.298317	-1.920283	1.804853	2.637178	0.000000	0.245766	0.000000	-0.001489	-0.000197	0.000000	0.000000
67.038346	21.846859	13.649755	-1.338429	1.215453	2.750568	0.000000	0.166336	0.000000	-0.001584	-0.000148	0.000000	0.000000
67.587406	22.951710	12.597361	-0.662044	0.712624	2.819443	0.000000	0.083953	0.000000	-0.001651	-0.000095	0.000000	0.000000
68.136466	23.283596	12.066178	0.061099	0.260551	2.842582	0.000000	0.000079	0.000000	-0.001688	-0.000041	0.000000	0.000000
68.435038	23.287777	11.899517	-0.013416	0.265667	2.844868	0.000000	0.007611	0.000000	-0.001702	-0.000046	0.000000	0.000000
68.768372	23.301494	11.732402	-0.027733	0.235677	2.847420	0.000000	0.007611	0.000000	-0.001717	-0.000046	0.000000	0.000000
69.101705	23.324754	11.585280	-0.042049	0.205688	2.849972	0.000000	0.007611	0.000000	-0.001732	-0.000046	0.000000	0.000000
69.436288	23.357700	11.457712	-0.056419	0.175586	2.852534	0.000000	0.007611	0.000000	-0.001748	-0.000046	0.000000	0.000000
69.733611	23.395048	11.361253	-0.131213	0.178949	2.854810	0.000000	0.015180	0.000000	-0.001761	-0.000050	0.000000	0.000000
70.282671	23.137356	11.392268	0.597765	-0.235772	2.839964	0.000000	-0.069224	0.000000	-0.001773	0.000007	0.000000	0.000000
