#ParticleID	Turn	x[m]	xp	y[m]	yp	z[m]	dE[GeV]# s	beta_x	beta_y	alpha_x	alpha_y	D_x	D_y	D_px	D_py	orbit_x	orbit_px	orbit_y	orbit_py
0.300000	11.957660	25.254483	-0.016310	-0.023677	2.599629	0.000000	-0.000788	0.000000	-0.001158	0.000986	0.000000	0.000000
0.601250	11.975079	25.272344	-0.041510	-0.035612	2.599095	0.000000	-0.000788	0.000000	-0.000860	0.000986	0.000000	0.000000
0.898573	12.007157	25.297023	-0.036778	-0.109403	2.598567	0.000000	-0.007195	0.000000	-0.000567	0.000987	0.000000	0.000000
1.339533	12.193407	25.112777	-0.386861	0.525644	2.611158	0.000000	0.066246	0.000000	-0.000134	0.000978	0.000000	0.000000
1.780493	12.695008	24.376913	-0.754626	1.136779	2.656268	0.000000	0.140432	0.000000	0.000297	0.000981	0.000000	0.000000
2.221453	13.534887	23.122904	-1.156875	1.696194	2.734408	0.000000	0.216206	0.000000	0.000732	0.000994	0.000000	0.000000
2.662413	14.751428	21.407796	-1.611990	2.178435	2.846463	0.000000	0.294433	0.000000	0.001175	0.001018	0.000000	0.000000
3.108373	16.421249	19.284481	-2.145133	2.562738	2.995544	0.000000	0.376493	0.000000	0.001637	0.001055	0.000000	0.000000
3.657433	18.561620	16.899325	-1.729410	1.806856	3.176697	0.000000	0.284341	0.000000	0.002200	0.000993	0.000000	0.000000
4.206493	20.175276	15.269106	-1.191499	1.179674	3.305834	0.000000	0.187162	0.000000	0.002724	0.000913	0.000000	0.000000
4.755553	21.148198	14.277715	-0.569398	0.636521	3.380671	0.000000	0.086677	0.000000	0.003200	0.000817	0.000000	0.000000
5.304613	21.411627	13.854546	0.092945	0.138707	3.399888	0.000000	-0.015333	0.000000	0.003619	0.000706	0.000000	0.000000
5.603185	21.392672	13.757481	0.024746	0.151457	3.397667	0.000000	-0.006721	0.000000	0.003832	0.000716	0.000000	0.000000
5.936519	21.381371	13.664771	0.009155	0.126672	3.395188	0.000000	-0.006721	0.000000	0.004071	0.000716	0.000000	0.000000
6.269852	21.380465	13.588585	-0.006436	0.101887	3.392709	0.000000	-0.006721	0.000000	0.004309	0.000716	0.000000	0.000000
6.604435	21.390008	13.528729	-0.022086	0.077009	3.390221	0.000000	-0.006721	0.000000	0.004549	0.000716	0.000000	0.000000
6.901758	21.407291	13.489500	-0.089664	0.088864	3.388011	0.000000	0.001773	0.000000	0.004762	0.000728	0.000000	0.000000
7.450818	21.140820	13.653656	0.572472	-0.389585	3.360739	0.000000	-0.099725	0.000000	0.005118	0.000568	0.000000	0.000000
7.999878	20.165132	14.355314	1.194174	-0.895789	3.278227	0.000000	-0.199445	0.000000	0.005383	0.000398	0.000000	0.000000
8.548938	18.549154	15.644465	1.731515	-1.465810	3.141943	0.000000	-0.295621	0.000000	0.005553	0.000221	0.000000	0.000000
9.097998	16.407059	17.612948	2.146526	-2.140255	2.954308	0.000000	-0.386549	0.000000	0.005625	0.000039	0.000000	0.000000
9.543958	14.736137	19.366721	1.613355	-1.775387	2.799999	0.000000	-0.305599	0.000000	0.005675	0.000186	0.000000	0.000000
9.984918	13.518484	20.741905	1.158369	-1.331103	2.682204	0.000000	-0.228633	0.000000	0.005790	0.000334	0.000000	0.000000
10.425878	12.677372	21.696923	0.756316	-0.826243	2.597681	0.000000	-0.154274	0.000000	0.005970	0.000485	0.000000	0.000000
10.866838	12.174365	22.188313	0.388822	-0.283783	2.545464	0.000000	-0.081678	0.000000	0.006218	0.000643	0.000000	0.000000
11.309048	11.986326	22.193130	0.066536	0.220279	2.524937	0.000000	-0.015822	0.000000	0.006539	0.000791	0.000000	0.000000
11.606371	11.954168	22.066318	0.041621	0.206232	2.519997	0.000000	-0.015822	0.000000	0.006774	0.000791	0.000000	0.000000
12.086371	11.933519	21.879221	0.001398	0.183554	2.512023	0.000000	-0.015822	0.000000	0.007154	0.000791	0.000000	0.000000
12.566371	11.951485	21.713894	-0.038825	0.160877	2.504048	0.000000	-0.015822	0.000000	0.007534	0.000791	0.000000	0.000000
13.046371	12.008064	21.570337	-0.079048	0.138199	2.496074	0.000000	-0.015822	0.000000	0.007914	0.000791	0.000000	0.000000
13.526371	12.103257	21.448552	-0.119271	0.115521	2.488099	0.000000	-0.015822	0.000000	0.008294	0.000791	0.000000	0.000000
14.007621	12.237463	21.348305	-0.159599	0.092784	2.480104	0.000000	-0.015822	0.000000	0.008674	0.000791	0.000000	0.000000
14.304943	12.339747	21.297357	-0.156864	0.031242	2.475161	0.000000	-0.021368	0.000000	0.008910	0.000771	0.000000	0.000000
14.745903	12.636506	21.036800	-0.518270	0.557317	2.480832	0.000000	0.048820	0.000000	0.009301	0.001005	0.000000	0.000000
15.186863	13.261293	20.321677	-0.903372	1.058031	2.517445	0.000000	0.119554	0.000000	0.009798	0.001251	0.000000	0.000000
15.627823	14.242681	19.184522	-1.329775	1.510596	2.585415	0.000000	0.191636	0.000000	0.010407	0.001512	0.000000	0.000000
16.068783	15.625551	17.677079	-1.816972	1.894413	2.685510	0.000000	0.265886	0.000000	0.011134	0.001790	0.000000	0.000000
16.514743	17.496798	15.846244	-2.392212	2.192999	2.820552	0.000000	0.343641	0.000000	0.011999	0.002090	0.000000	0.000000
17.063803	19.899773	13.802604	-1.956582	1.550374	2.984834	0.000000	0.257403	0.000000	0.013037	0.001684	0.000000	0.000000
17.612863	21.744972	12.400304	-1.382637	1.018212	3.100664	0.000000	0.166625	0.000000	0.013843	0.001249	0.000000	0.000000
18.161923	22.901917	11.539448	-0.710944	0.558600	3.165998	0.000000	0.072910	0.000000	0.014404	0.000791	0.000000	0.000000
18.710983	23.288793	11.158709	0.011016	0.138789	3.179683	0.000000	-0.022085	0.000000	0.014709	0.000319	0.000000	0.000000
19.009556	23.317586	11.068957	-0.054887	0.136681	3.175135	0.000000	-0.014841	0.000000	0.014815	0.000355	0.000000	0.000000
19.342889	23.358958	10.988062	-0.069226	0.106004	3.170070	0.000000	-0.014841	0.000000	0.014933	0.000355	0.000000	0.000000
19.676223	23.409888	10.927619	-0.083564	0.075327	3.165005	0.000000	-0.014841	0.000000	0.015052	0.000355	0.000000	0.000000
20.010806	23.470912	10.887380	-0.214244	0.098478	3.159940	0.000000	0.000815	0.000000	0.015171	0.000430	0.000000	0.000000
20.308129	23.602413	10.836945	-0.280931	0.095517	3.160065	0.000000	0.007970	0.000000	0.015299	0.000468	0.000000	0.000000
20.857189	23.504055	10.952099	0.459118	-0.306439	3.138420	0.000000	-0.086263	0.000000	0.015419	-0.000030	0.000000	0.000000
21.406249	22.605757	11.518076	1.166715	-0.730231	3.065630	0.000000	-0.178965	0.000000	0.015266	-0.000527	0.000000	0.000000
21.955309	20.971038	12.575201	1.791836	-1.206057	2.942986	0.000000	-0.268501	0.000000	0.014841	-0.001015	0.000000	0.000000
22.504369	18.715488	14.198791	2.290288	-1.767820	2.772660	0.000000	-0.353288	0.000000	0.014154	-0.001485	0.000000	0.000000
22.950329	16.939963	15.657278	1.703383	-1.487993	2.632754	0.000000	-0.276826	0.000000	0.013572	-0.001125	0.000000	0.000000
23.391289	15.664373	16.821455	1.199352	-1.141552	2.527226	0.000000	-0.204001	0.000000	0.013152	-0.000781	0.000000	0.000000
23.832249	14.807692	17.655865	0.750156	-0.743153	2.453132	0.000000	-0.133492	0.000000	0.012882	-0.000445	0.000000	0.000000
24.273209	14.330741	18.122535	0.335255	-0.310930	2.409632	0.000000	-0.064499	0.000000	0.012759	-0.000115	0.000000	0.000000
24.715418	14.211862	18.199899	-0.033908	0.096263	2.396233	0.000000	-0.001382	0.000000	0.012781	0.000185	0.000000	0.000000
25.012741	14.238252	18.147558	-0.054853	0.079775	2.395767	0.000000	-0.001382	0.000000	0.012836	0.000185	0.000000	0.000000
25.346075	14.282648	18.100537	-0.078334	0.061290	2.395245	0.000000	-0.001382	0.000000	0.012898	0.000185	0.000000	0.000000
25.679408	14.342698	18.065838	-0.101816	0.042805	2.394722	0.000000	-0.001382	0.000000	0.012959	0.000185	0.000000	0.000000
26.013991	14.418423	18.043768	-0.008414	-0.122129	2.394174	0.000000	-0.020805	0.000000	0.013021	0.000080	0.000000	0.000000
26.311314	14.429486	18.121454	0.001836	-0.177611	2.387958	0.000000	-0.025914	0.000000	0.013045	0.000050	0.000000	0.000000
26.752274	14.606329	18.081756	-0.404234	0.267276	2.391410	0.000000	0.042004	0.000000	0.013141	0.000387	0.000000	0.000000
27.193234	15.148193	17.653516	-0.828787	0.699998	2.424749	0.000000	0.110397	0.000000	0.013387	0.000729	0.000000	0.000000
27.634194	16.079861	16.856220	-1.291234	1.100861	2.488351	0.000000	0.180039	0.000000	0.013786	0.001080	0.000000	0.000000
28.075154	17.443947	15.726150	-1.812720	1.451618	2.582940	0.000000	0.251722	0.000000	0.014341	0.001442	0.000000	0.000000
28.521114	19.326877	14.297490	-2.422317	1.737504	2.711200	0.000000	0.326743	0.000000	0.015069	0.001824	0.000000	0.000000
29.070174	21.721556	12.706469	-1.911366	1.176677	2.867368	0.000000	0.244175	0.000000	0.015934	0.001321	0.000000	0.000000
29.619234	23.476908	11.682038	-1.265283	0.699696	2.977213	0.000000	0.157294	0.000000	0.016516	0.000796	0.000000	0.000000
30.168294	24.468795	11.151212	-0.529746	0.272573	3.038792	0.000000	0.067636	0.000000	0.016806	0.000256	0.000000	0.000000
30.717354	24.627071	11.076171	0.243243	-0.135127	3.051016	0.000000	-0.023219	0.000000	0.016796	-0.000289	0.000000	0.000000
31.015927	24.518137	11.150331	0.175807	-0.137679	3.046175	0.000000	-0.016420	0.000000	0.016722	-0.000248	0.000000	0.000000
31.349260	24.405604	11.252270	0.161791	-0.168140	3.040784	0.000000	-0.016420	0.000000	0.016640	-0.000248	0.000000	0.000000
31.682593	24.302416	11.374518	0.147775	-0.198601	3.035394	0.000000	-0.016420	0.000000	0.016557	-0.000248	0.000000	0.000000
32.017177	24.208236	11.517645	0.133707	-0.229177	3.029983	0.000000	-0.016420	0.000000	0.016474	-0.000248	0.000000	0.000000
32.314499	24.132635	11.661910	0.067192	-0.230282	3.025187	0.000000	-0.009649	0.000000	0.016400	-0.000208	0.000000	0.000000
32.863559	23.645562	12.152995	0.814130	-0.669202	2.995452	0.000000	-0.099381	0.000000	0.016140	-0.000736	0.000000	0.000000
33.412619	22.364805	13.149379	1.503506	-1.155808	2.917123	0.000000	-0.187362	0.000000	0.015594	-0.001250	0.000000	0.000000
33.961679	20.380944	14.722047	2.086582	-1.724771	2.791580	0.000000	-0.272038	0.000000	0.014772	-0.001742	0.000000	0.000000
34.510739	17.834273	16.983039	2.522142	-2.416628	2.621042	0.000000	-0.351915	0.000000	0.013687	-0.002203	0.000000	0.000000
34.956699	15.855749	19.005915	1.928209	-2.099391	2.481187	0.000000	-0.279395	0.000000	0.012781	-0.001860	0.000000	0.000000
35.397659	14.380957	20.682531	1.427647	-1.687654	2.373980	0.000000	-0.210503	0.000000	0.012032	-0.001540	0.000000	0.000000
35.838619	13.317444	21.960557	0.992359	-1.199108	2.296473	0.000000	-0.143993	0.000000	0.011421	-0.001237	0.000000	0.000000
36.279579	12.616569	22.781839	0.602441	-0.655990	2.247787	0.000000	-0.079111	0.000000	0.010939	-0.000949	0.000000	0.000000
36.721789	12.245650	23.109266	0.266900	-0.133700	2.227353	0.000000	-0.020019	0.000000	0.010581	-0.000696	0.000000	0.000000
37.019112	12.094672	23.192664	0.240891	-0.146796	2.221608	0.000000	-0.020019	0.000000	0.010374	-0.000696	0.000000	0.000000
37.352445	11.943798	23.295422	0.211731	-0.161478	2.215167	0.000000	-0.020019	0.000000	0.010142	-0.000696	0.000000	0.000000
37.685779	11.812364	23.407968	0.182571	-0.176160	2.208726	0.000000	-0.020019	0.000000	0.009910	-0.000696	0.000000	0.000000
38.020362	11.699986	23.530779	0.153302	-0.190897	2.202260	0.000000	-0.020019	0.000000	0.009677	-0.000696	0.000000	0.000000
38.317684	11.616528	23.648252	0.153169	-0.256903	2.196512	0.000000	-0.024912	0.000000	0.009470	-0.000719	0.000000	0.000000
38.758644	11.630249	23.612796	-0.184596	0.336992	2.199664	0.000000	0.038059	0.000000	0.009206	-0.000478	0.000000	0.000000
39.199604	11.944503	23.058292	-0.530795	0.915549	2.230555	0.000000	0.101468	0.000000	0.009047	-0.000242	0.000000	0.000000
39.640564	12.573653	22.009981	-0.901251	1.452437	2.289540	0.000000	0.166037	0.000000	0.008992	-0.000010	0.000000	0.000000
40.081524	13.546456	20.515570	-1.312900	1.923223	2.377291	0.000000	0.232496	0.000000	0.009039	0.000223	0.000000	0.000000
40.527484	14.924977	18.620338	-1.788531	2.308006	2.496292	0.000000	0.302035	0.000000	0.009191	0.000459	0.000000	0.000000
41.076544	16.686800	16.490253	-1.400704	1.593894	2.641495	0.000000	0.226628	0.000000	0.009360	0.000158	0.000000	0.000000
41.625604	17.965397	15.077855	-0.913896	0.993341	2.744285	0.000000	0.147203	0.000000	0.009364	-0.000145	0.000000	0.000000
42.174664	18.670405	14.282519	-0.362513	0.463560	2.802835	0.000000	0.065163	0.000000	0.009202	-0.000446	0.000000	0.000000
42.723724	18.752004	14.047576	0.214479	-0.033191	2.816106	0.000000	-0.018039	0.000000	0.008876	-0.000739	0.000000	0.000000
43.022297	18.655804	14.053436	0.152839	-0.020385	2.812960	0.000000	-0.011242	0.000000	0.008662	-0.000716	0.000000	0.000000
43.502297	18.521717	14.089406	0.126508	-0.054554	2.807908	0.000000	-0.011242	0.000000	0.008318	-0.000716	0.000000	0.000000
43.982297	18.412907	14.158180	0.100178	-0.088724	2.802855	0.000000	-0.011242	0.000000	0.007974	-0.000716	0.000000	0.000000
44.462297	18.329375	14.259756	0.073848	-0.122893	2.797803	0.000000	-0.011242	0.000000	0.007631	-0.000716	0.000000	0.000000
44.942297	18.271120	14.394135	0.047517	-0.157063	2.792750	0.000000	-0.011242	0.000000	0.007287	-0.000716	0.000000	0.000000
45.423547	18.238314	14.561615	-0.069244	-0.119174	2.787702	0.000000	0.002570	0.000000	0.006942	-0.000682	0.000000	0.000000
45.720870	18.284385	14.638618	-0.130654	-0.103974	2.788671	0.000000	0.009437	0.000000	0.006739	-0.000665	0.000000	0.000000
46.269930	18.119661	15.035818	0.428458	-0.623646	2.771653	0.000000	-0.072809	0.000000	0.006316	-0.000876	0.000000	0.000000
46.818990	17.353934	16.024628	0.957282	-1.187743	2.709867	0.000000	-0.153779	0.000000	0.005780	-0.001072	0.000000	0.000000
47.368050	16.041332	17.675476	1.418453	-1.836450	2.604399	0.000000	-0.232038	0.000000	0.005141	-0.001249	0.000000	0.000000
47.917110	14.274624	20.105945	1.779389	-2.615975	2.457112	0.000000	-0.306200	0.000000	0.004412	-0.001404	0.000000	0.000000
48.363070	12.898772	22.266472	1.315980	-2.208070	2.336464	0.000000	-0.237726	0.000000	0.003810	-0.001297	0.000000	0.000000
48.804030	11.917796	23.996931	0.916536	-1.701094	2.246663	0.000000	-0.172356	0.000000	0.003258	-0.001206	0.000000	0.000000
49.244990	11.269413	25.244274	0.558982	-1.116716	2.185197	0.000000	-0.108937	0.000000	0.002744	-0.001129	0.000000	0.000000
49.685950	10.923981	25.951754	0.226976	-0.481529	2.151371	0.000000	-0.046746	0.000000	0.002261	-0.001064	0.000000	0.000000
50.128160	10.865881	26.086906	-0.068577	0.113014	2.144818	0.000000	0.009754	0.000000	0.001802	-0.001016	0.000000	0.000000
50.425482	10.914834	26.023135	-0.096069	0.101471	2.148020	0.000000	0.009754	0.000000	0.001500	-0.001016	0.000000	0.000000
50.758816	10.989154	25.959801	-0.126890	0.088530	2.151611	0.000000	0.009754	0.000000	0.001161	-0.001016	0.000000	0.000000
51.092149	11.084021	25.905095	-0.157712	0.075589	2.155201	0.000000	0.009754	0.000000	0.000822	-0.001016	0.000000	0.000000
51.426732	11.199681	25.859384	-0.097790	-0.147185	2.158782	0.000000	-0.007759	0.000000	0.000482	-0.001020	0.000000	0.000000
51.724055	11.265799	25.950399	-0.097011	-0.222840	2.156779	0.000000	-0.013039	0.000000	0.000179	-0.001021	0.000000	0.000000
52.165015	11.498023	25.858087	-0.431950	0.431386	2.165127	0.000000	0.048959	0.000000	-0.000271	-0.001022	0.000000	0.000000
52.605975	12.033176	25.195291	-0.786615	1.065980	2.200915	0.000000	0.111526	0.000000	-0.000724	-0.001035	0.000000	0.000000
53.046935	12.895698	23.992177	-1.177211	1.652070	2.264556	0.000000	0.175374	0.000000	-0.001185	-0.001059	0.000000	0.000000
53.487895	14.124983	22.303495	-1.621578	2.162991	2.356778	0.000000	0.241231	0.000000	-0.001660	-0.001096	0.000000	0.000000
53.933855	15.798194	20.180836	-2.144276	2.576800	2.480162	0.000000	0.310241	0.000000	-0.002160	-0.001146	0.000000	0.000000
54.482915	17.951928	17.791941	-1.755754	1.799914	2.630732	0.000000	0.235300	0.000000	-0.002768	-0.001066	0.000000	0.000000
55.031975	19.607993	16.181164	-1.243248	1.151228	2.738894	0.000000	0.156169	0.000000	-0.003327	-0.000967	0.000000	0.000000
55.581035	20.649458	15.233765	-0.642958	0.584538	2.802722	0.000000	0.074251	0.000000	-0.003826	-0.000851	0.000000	0.000000
56.130095	21.002800	14.882254	0.002723	0.059483	2.821077	0.000000	-0.008997	0.000000	-0.004259	-0.000720	0.000000	0.000000
56.428668	21.039346	14.828663	-0.068349	0.079628	2.820887	0.000000	-0.001365	0.000000	-0.004477	-0.000732	0.000000	0.000000
56.762001	21.090217	14.783117	-0.084266	0.057007	2.820675	0.000000	-0.001365	0.000000	-0.004721	-0.000732	0.000000	0.000000
57.095334	21.151701	14.752653	-0.100183	0.034385	2.820464	0.000000	-0.001365	0.000000	-0.004965	-0.000732	0.000000	0.000000
57.429918	21.224086	14.737241	-0.116160	0.011679	2.820252	0.000000	-0.001365	0.000000	-0.005209	-0.000732	0.000000	0.000000
57.727240	21.297400	14.736283	-0.188496	0.031575	2.820065	0.000000	0.006333	0.000000	-0.005427	-0.000746	0.000000	0.000000
58.276300	21.140286	14.984163	0.472577	-0.485739	2.801020	0.000000	-0.076868	0.000000	-0.005787	-0.000564	0.000000	0.000000
58.825360	20.271479	15.815615	1.100266	-1.037644	2.736504	0.000000	-0.158714	0.000000	-0.006045	-0.000373	0.000000	0.000000
59.374420	18.752338	17.289843	1.650250	-1.663443	2.627656	0.000000	-0.237752	0.000000	-0.006195	-0.000174	0.000000	0.000000
59.923480	16.690135	19.511834	2.083696	-2.407703	2.476405	0.000000	-0.312576	0.000000	-0.006236	0.000027	0.000000	0.000000
60.369440	15.074627	21.486578	1.551798	-2.001874	2.352462	0.000000	-0.243693	0.000000	-0.006260	-0.000135	0.000000	0.000000
60.810400	13.912004	23.039274	1.094922	-1.506217	2.259684	0.000000	-0.177964	0.000000	-0.006355	-0.000298	0.000000	0.000000
61.251360	13.128759	24.122882	0.688060	-0.942042	2.195484	0.000000	-0.114259	0.000000	-0.006523	-0.000464	0.000000	0.000000
61.692320	12.689116	24.688110	0.312627	-0.335014	2.159132	0.000000	-0.051851	0.000000	-0.006765	-0.000635	0.000000	0.000000
62.134530	12.573050	24.708657	-0.015759	0.222911	2.150226	0.000000	0.004354	0.000000	-0.007085	-0.000796	0.000000	0.000000
62.431853	12.589454	24.579859	-0.039412	0.210280	2.151757	0.000000	0.004354	0.000000	-0.007322	-0.000796	0.000000	0.000000
62.765186	12.624568	24.444393	-0.065931	0.196119	2.153474	0.000000	0.004354	0.000000	-0.007587	-0.000796	0.000000	0.000000
63.098520	12.677362	24.318367	-0.092449	0.181958	2.155191	0.000000	0.004354	0.000000	-0.007852	-0.000796	0.000000	0.000000
63.433103	12.748131	24.201362	-0.119067	0.167744	2.156914	0.000000	0.004354	0.000000	-0.008118	-0.000796	0.000000	0.000000
63.730426	12.825940	24.105418	-0.108839	0.091161	2.158443	0.000000	-0.001347	0.000000	-0.008355	-0.000774	0.000000	0.000000
64.171386	13.084337	23.759614	-0.479767	0.690157	2.171902	0.000000	0.060746	0.000000	-0.008744	-0.000995	0.000000	0.000000
64.612346	13.678162	22.897492	-0.872598	1.257756	2.212963	0.000000	0.123542	0.000000	-0.009233	-0.001226	0.000000	0.000000
65.053306	14.634519	21.558280	-1.305269	1.768138	2.282099	0.000000	0.187757	0.000000	-0.009828	-0.001472	0.000000	0.000000
65.494266	15.997063	19.802906	-1.797535	2.198090	2.380101	0.000000	0.254126	0.000000	-0.010534	-0.001734	0.000000	0.000000
65.940226	17.851365	17.686299	-2.376319	2.528582	2.509695	0.000000	0.323774	0.000000	-0.011370	-0.002018	0.000000	0.000000
66.489286	20.225555	15.318795	-1.923897	1.809512	2.667777	0.000000	0.247779	0.000000	-0.012374	-0.001634	0.000000	0.000000
67.038346	22.025115	13.665855	-1.335686	1.219293	2.782648	0.000000	0.167363	0.000000	-0.013158	-0.001220	0.000000	0.000000
67.587406	23.123070	12.609757	-0.653209	0.715893	2.852262	0.000000	0.083960	0.000000	-0.013709	-0.000785	0.000000	0.000000
68.136466	23.441961	12.075289	0.075363	0.263469	2.875377	0.000000	-0.000945	0.000000	-0.014018	-0.000336	0.000000	0.000000
68.435038	23.441339	11.905065	-0.005554	0.271713	2.877696	0.000000	0.007418	0.000000	-0.014129	-0.000375	0.000000	0.000000
68.768372	23.449782	11.733946	-0.019774	0.241646	2.880293	0.000000	0.007418	0.000000	-0.014254	-0.000375	0.000000	0.000000
69.101705	23.467705	11.582870	-0.033994	0.211580	2.882891	0.000000	0.007418	0.000000	-0.014379	-0.000375	0.000000	0.000000
69.436288	23.495229	11.451386	-0.048268	0.181401	2.885499	0.000000	0.007418	0.000000	-0.014505	-0.000375	0.000000	0.000000
69.733611	23.527850	11.351419	-0.129659	0.187668	2.887825	0.000000	0.015851	0.000000	-0.014616	-0.000415	0.000000	0.000000
70.282671	23.266189	11.372635	0.603382	-0.226545	2.873147	0.000000	-0.069591	0.000000	-0.014714	0.000060	0.000000	0.000000
