#ParticleID	Turn	x[m]	xp	y[m]	yp	z[m]	dE[GeV]# s	beta_x	beta_y	alpha_x	alpha_y	D_x	D_y	D_px	D_py	orbit_x	orbit_px	orbit_y	orbit_py
0.300000	11.922611	25.075778	-0.010815	-0.027570	2.605163	0.000000	-0.002375	0.000000	-0.001292	0.001080	0.000000	0.000000
0.601250	11.936740	25.096011	-0.036085	-0.039593	2.604123	0.000000	-0.002375	0.000000	-0.000967	0.001080	0.000000	0.000000
0.898573	11.965613	25.123083	-0.031503	-0.113056	2.603095	0.000000	-0.008798	0.000000	-0.000646	0.001081	0.000000	0.000000
1.339533	12.146766	24.944073	-0.380500	0.517469	2.614964	0.000000	0.064751	0.000000	-0.000172	0.001071	0.000000	0.000000
1.780493	12.642188	24.217284	-0.746890	1.124453	2.659396	0.000000	0.139025	0.000000	0.000300	0.001072	0.000000	0.000000
2.221453	13.474527	22.975774	-1.147411	1.680279	2.736893	0.000000	0.214872	0.000000	0.000776	0.001086	0.000000	0.000000
2.662413	14.681820	21.276023	-1.600366	2.159656	2.848334	0.000000	0.293155	0.000000	0.001260	0.001113	0.000000	0.000000
3.108373	16.340126	19.170424	-2.130798	2.541948	2.996815	0.000000	0.375256	0.000000	0.001764	0.001152	0.000000	0.000000
3.657433	18.465785	16.805361	-1.717056	1.790824	3.177230	0.000000	0.283075	0.000000	0.002379	0.001085	0.000000	0.000000
4.206493	20.067399	15.190666	-1.181996	1.167258	3.305623	0.000000	0.185889	0.000000	0.002952	0.000998	0.000000	0.000000
4.755553	21.031794	14.211336	-0.563414	0.626837	3.379723	0.000000	0.085422	0.000000	0.003472	0.000894	0.000000	0.000000
5.304613	21.290813	13.797623	0.094989	0.131064	3.398224	0.000000	-0.016546	0.000000	0.003931	0.000774	0.000000	0.000000
5.603185	21.270390	13.705285	0.027162	0.143527	3.395612	0.000000	-0.007962	0.000000	0.004165	0.000784	0.000000	0.000000
5.936519	21.257509	13.617874	0.011479	0.118704	3.392696	0.000000	-0.007962	0.000000	0.004426	0.000784	0.000000	0.000000
6.269852	21.255084	13.547012	-0.004204	0.093882	3.389781	0.000000	-0.007962	0.000000	0.004688	0.000784	0.000000	0.000000
6.604435	21.263164	13.492526	-0.019945	0.068966	3.386855	0.000000	-0.007962	0.000000	0.004950	0.000784	0.000000	0.000000
6.901758	21.279201	13.458088	-0.087082	0.080595	3.384255	0.000000	0.000491	0.000000	0.005183	0.000798	0.000000	0.000000
7.450818	21.012282	13.630898	0.570733	-0.397166	3.356282	0.000000	-0.100876	0.000000	0.005574	0.000623	0.000000	0.000000
7.999878	20.040841	14.340756	1.188239	-0.903223	3.273153	0.000000	-0.200443	0.000000	0.005866	0.000438	0.000000	0.000000
8.548938	18.433505	15.638241	1.721801	-1.473627	3.136350	0.000000	-0.296447	0.000000	0.006054	0.000245	0.000000	0.000000
9.097998	16.303841	17.615786	2.133717	-2.149013	2.948302	0.000000	-0.387188	0.000000	0.006134	0.000047	0.000000	0.000000
9.543958	14.642992	19.377699	1.603472	-1.784774	2.793666	0.000000	-0.306396	0.000000	0.006191	0.000207	0.000000	0.000000
9.984918	13.432936	20.761294	1.150951	-1.340692	2.675470	0.000000	-0.229597	0.000000	0.006317	0.000368	0.000000	0.000000
10.425878	12.597408	21.724705	0.751024	-0.835598	2.590464	0.000000	-0.155417	0.000000	0.006516	0.000534	0.000000	0.000000
10.866838	12.098227	22.224088	0.385415	-0.292475	2.537678	0.000000	-0.083013	0.000000	0.006789	0.000705	0.000000	0.000000
11.309048	11.912439	22.236146	0.064515	0.212842	2.516485	0.000000	-0.017310	0.000000	0.007141	0.000868	0.000000	0.000000
11.606371	11.881527	22.113736	0.039452	0.198865	2.511080	0.000000	-0.017310	0.000000	0.007399	0.000868	0.000000	0.000000
12.086371	11.863075	21.933656	-0.001010	0.176301	2.502355	0.000000	-0.017310	0.000000	0.007815	0.000868	0.000000	0.000000
12.566371	11.883466	21.775238	-0.041472	0.153737	2.493629	0.000000	-0.017310	0.000000	0.008232	0.000868	0.000000	0.000000
13.046371	11.942701	21.638482	-0.081933	0.131172	2.484904	0.000000	-0.017310	0.000000	0.008649	0.000868	0.000000	0.000000
13.526371	12.040779	21.523387	-0.122395	0.108608	2.476179	0.000000	-0.017310	0.000000	0.009065	0.000868	0.000000	0.000000
14.007621	12.178107	21.429739	-0.162962	0.085985	2.467431	0.000000	-0.017310	0.000000	0.009483	0.000868	0.000000	0.000000
14.304943	12.282430	21.382824	-0.160753	0.024776	2.462022	0.000000	-0.022777	0.000000	0.009741	0.000845	0.000000	0.000000
14.745903	12.582106	21.126909	-0.520983	0.553291	2.466960	0.000000	0.047065	0.000000	0.010170	0.001102	0.000000	0.000000
15.186863	13.208839	20.414180	-0.905034	1.056628	2.502674	0.000000	0.117431	0.000000	0.010715	0.001371	0.000000	0.000000
15.627823	14.191295	19.277063	-1.330464	1.511878	2.569566	0.000000	0.189120	0.000000	0.011382	0.001656	0.000000	0.000000
16.068783	15.574408	17.767300	-1.816725	1.898321	2.668395	0.000000	0.262947	0.000000	0.012178	0.001960	0.000000	0.000000
16.514743	17.445114	15.931801	-2.391038	2.199397	2.801949	0.000000	0.340243	0.000000	0.013125	0.002288	0.000000	0.000000
17.063803	19.848057	13.882482	-1.957526	1.554312	2.964443	0.000000	0.254634	0.000000	0.014261	0.001844	0.000000	0.000000
17.612863	21.695505	12.477045	-1.385621	1.019975	3.078866	0.000000	0.164536	0.000000	0.015145	0.001368	0.000000	0.000000
18.161923	22.856810	11.615366	-0.715749	0.558314	3.143198	0.000000	0.071540	0.000000	0.015759	0.000867	0.000000	0.000000
18.710983	23.249838	11.236060	0.004734	0.136436	3.156306	0.000000	-0.022711	0.000000	0.016094	0.000351	0.000000	0.000000
19.009556	23.281854	11.147783	-0.060346	0.134341	3.151512	0.000000	-0.015623	0.000000	0.016211	0.000390	0.000000	0.000000
19.342889	23.326875	11.068370	-0.074716	0.103900	3.146175	0.000000	-0.015623	0.000000	0.016341	0.000390	0.000000	0.000000
19.676223	23.381475	11.009250	-0.089085	0.073459	3.140837	0.000000	-0.015623	0.000000	0.016471	0.000390	0.000000	0.000000
20.010806	23.446204	10.970182	-0.219674	0.097257	3.135498	0.000000	-0.000088	0.000000	0.016601	0.000472	0.000000	0.000000
20.308129	23.580979	10.920393	-0.285546	0.094333	3.135345	0.000000	0.006903	0.000000	0.016742	0.000513	0.000000	0.000000
20.857189	23.488043	11.038134	0.453928	-0.309989	3.113322	0.000000	-0.086527	0.000000	0.016874	-0.000032	0.000000	0.000000
21.406249	22.595568	11.609430	1.161316	-0.736402	3.040621	0.000000	-0.178421	0.000000	0.016707	-0.000576	0.000000	0.000000
21.955309	20.966664	12.674987	1.786602	-1.215291	2.918531	0.000000	-0.267159	0.000000	0.016243	-0.001110	0.000000	0.000000
22.504369	18.716524	14.310724	2.285581	-1.780777	2.749213	0.000000	-0.351173	0.000000	0.015491	-0.001624	0.000000	0.000000
22.950329	16.944932	15.779609	1.699021	-1.498130	2.610165	0.000000	-0.275303	0.000000	0.014855	-0.001230	0.000000	0.000000
23.391289	15.673057	16.951350	1.195165	-1.148450	2.505218	0.000000	-0.203050	0.000000	0.014396	-0.000853	0.000000	0.000000
23.832249	14.820036	17.790309	0.745955	-0.746497	2.431443	0.000000	-0.133102	0.000000	0.014101	-0.000486	0.000000	0.000000
24.273209	14.346853	18.258307	0.330851	-0.310566	2.388002	0.000000	-0.064666	0.000000	0.013966	-0.000124	0.000000	0.000000
24.715418	14.232046	18.333687	-0.039099	0.100576	2.374404	0.000000	-0.001989	0.000000	0.013991	0.000204	0.000000	0.000000
25.012741	14.261517	18.278750	-0.060022	0.084195	2.373751	0.000000	-0.001989	0.000000	0.014052	0.000204	0.000000	0.000000
25.346075	14.309350	18.228742	-0.083479	0.065829	2.373020	0.000000	-0.001989	0.000000	0.014120	0.000204	0.000000	0.000000
25.679408	14.372822	18.190978	-0.106936	0.047464	2.372289	0.000000	-0.001989	0.000000	0.014188	0.000204	0.000000	0.000000
26.013991	14.451965	18.165753	-0.013237	-0.118340	2.371531	0.000000	-0.021229	0.000000	0.014256	0.000089	0.000000	0.000000
26.311314	14.465867	18.241167	-0.003309	-0.173388	2.365186	0.000000	-0.026217	0.000000	0.014283	0.000056	0.000000	0.000000
26.752274	14.647679	18.196319	-0.410380	0.274686	2.368365	0.000000	0.041113	0.000000	0.014389	0.000426	0.000000	0.000000
27.193234	15.195528	17.760247	-0.836216	0.710259	2.401156	0.000000	0.108907	0.000000	0.014659	0.000800	0.000000	0.000000
27.634194	16.134473	16.952796	-1.300288	1.113503	2.463930	0.000000	0.177932	0.000000	0.015096	0.001184	0.000000	0.000000
28.075154	17.507467	15.810711	-1.823818	1.466065	2.557399	0.000000	0.248973	0.000000	0.015705	0.001581	0.000000	0.000000
28.521114	19.401544	14.368524	-2.436029	1.753130	2.684221	0.000000	0.323319	0.000000	0.016503	0.001999	0.000000	0.000000
29.070174	21.810495	12.762103	-1.923297	1.189194	2.838676	0.000000	0.241648	0.000000	0.017451	0.001449	0.000000	0.000000
29.619234	23.577653	11.725191	-1.274580	0.709998	2.947340	0.000000	0.155713	0.000000	0.018090	0.000873	0.000000	0.000000
30.168294	24.578033	11.183910	-0.535743	0.281397	3.008291	0.000000	0.067029	0.000000	0.018407	0.000281	0.000000	0.000000
30.717354	24.740879	11.099694	0.240973	-0.127151	3.020452	0.000000	-0.022840	0.000000	0.018398	-0.000315	0.000000	0.000000
31.015927	24.632823	11.169299	0.174297	-0.129969	3.015674	0.000000	-0.016225	0.000000	0.018317	-0.000271	0.000000	0.000000
31.349260	24.521273	11.266061	0.160354	-0.160317	3.010356	0.000000	-0.016225	0.000000	0.018227	-0.000271	0.000000	0.000000
31.682593	24.419018	11.383055	0.146411	-0.190665	3.005038	0.000000	-0.016225	0.000000	0.018136	-0.000271	0.000000	0.000000
32.017177	24.325727	11.520834	0.132416	-0.221127	2.999700	0.000000	-0.016225	0.000000	0.018046	-0.000271	0.000000	0.000000
32.314499	24.250914	11.660264	0.066606	-0.222574	2.994970	0.000000	-0.009634	0.000000	0.017965	-0.000228	0.000000	0.000000
32.863559	23.762278	12.142682	0.817493	-0.661017	2.965534	0.000000	-0.098396	0.000000	0.017681	-0.000805	0.000000	0.000000
33.412619	22.475693	13.129571	1.510574	-1.146563	2.888056	0.000000	-0.185424	0.000000	0.017083	-0.001369	0.000000	0.000000
33.961679	20.482162	14.691241	2.096847	-1.713811	2.763904	0.000000	-0.269185	0.000000	0.016182	-0.001908	0.000000	0.000000
34.510739	17.922678	16.938951	2.534864	-2.403178	2.595269	0.000000	-0.348199	0.000000	0.014994	-0.002413	0.000000	0.000000
34.956699	15.933956	18.949921	1.938175	-2.086116	2.457004	0.000000	-0.276323	0.000000	0.014003	-0.002037	0.000000	0.000000
35.397659	14.451334	20.615173	1.435367	-1.675197	2.351085	0.000000	-0.208036	0.000000	0.013183	-0.001686	0.000000	0.000000
35.838619	13.381826	21.882802	0.998190	-1.188034	2.274593	0.000000	-0.142102	0.000000	0.012513	-0.001355	0.000000	0.000000
36.279579	12.676509	22.695126	0.606654	-0.646802	2.226662	0.000000	-0.077772	0.000000	0.011985	-0.001039	0.000000	0.000000
36.721789	12.302498	23.015408	0.269508	-0.126018	2.206734	0.000000	-0.019117	0.000000	0.011593	-0.000762	0.000000	0.000000
37.019112	12.149944	23.094246	0.243585	-0.139142	2.201277	0.000000	-0.019117	0.000000	0.011367	-0.000762	0.000000	0.000000
37.352445	11.997241	23.191911	0.214522	-0.153855	2.195159	0.000000	-0.019117	0.000000	0.011113	-0.000762	0.000000	0.000000
37.685779	11.863914	23.299386	0.185460	-0.168568	2.189040	0.000000	-0.019117	0.000000	0.010859	-0.000762	0.000000	0.000000
38.020362	11.749571	23.417127	0.156288	-0.183336	2.182899	0.000000	-0.019117	0.000000	0.010604	-0.000762	0.000000	0.000000
38.317684	11.664305	23.530123	0.156089	-0.248605	2.177438	0.000000	-0.023919	0.000000	0.010377	-0.000786	0.000000	0.000000
38.758644	11.675916	23.488754	-0.182734	0.342051	2.180944	0.000000	0.038566	0.000000	0.010089	-0.000522	0.000000	0.000000
39.199604	11.988960	22.931300	-0.529905	0.917139	2.211968	0.000000	0.101496	0.000000	0.009916	-0.000264	0.000000	0.000000
39.640564	12.617744	21.883136	-0.901295	1.450484	2.270864	0.000000	0.165585	0.000000	0.009856	-0.000009	0.000000	0.000000
40.081524	13.591011	20.391966	-1.313879	1.917815	2.358306	0.000000	0.231561	0.000000	0.009908	0.000245	0.000000	0.000000
40.527484	14.970885	18.502982	-1.790517	2.299389	2.476767	0.000000	0.300604	0.000000	0.010075	0.000505	0.000000	0.000000
41.076544	16.733961	16.380363	-1.400929	1.588786	2.621345	0.000000	0.225838	0.000000	0.010262	0.000175	0.000000	0.000000
41.625604	18.011840	14.971806	-0.912340	0.991380	2.723881	0.000000	0.147068	0.000000	0.010267	-0.000158	0.000000	0.000000
42.174664	18.714205	14.176957	-0.359283	0.464609	2.782553	0.000000	0.065685	0.000000	0.010089	-0.000487	0.000000	0.000000
42.723724	18.791421	13.939183	0.219154	-0.029057	2.796318	0.000000	-0.016870	0.000000	0.009733	-0.000809	0.000000	0.000000
43.022297	18.692253	13.942941	0.157797	-0.016939	2.793510	0.000000	-0.010176	0.000000	0.009499	-0.000784	0.000000	0.000000
43.502297	18.553400	13.975732	0.131479	-0.051375	2.789002	0.000000	-0.010176	0.000000	0.009123	-0.000784	0.000000	0.000000
43.982297	18.439814	14.041581	0.105160	-0.085811	2.784494	0.000000	-0.010176	0.000000	0.008746	-0.000784	0.000000	0.000000
44.462297	18.351493	14.140488	0.078842	-0.120247	2.779986	0.000000	-0.010176	0.000000	0.008370	-0.000784	0.000000	0.000000
44.942297	18.288438	14.272454	0.052523	-0.154683	2.775478	0.000000	-0.010176	0.000000	0.007993	-0.000784	0.000000	0.000000
45.423547	18.250809	14.437773	-0.064289	-0.117674	2.770975	0.000000	0.003553	0.000000	0.007616	-0.000746	0.000000	0.000000
45.720870	18.293931	14.513932	-0.125429	-0.103180	2.772256	0.000000	0.010339	0.000000	0.007394	-0.000728	0.000000	0.000000
46.269930	18.123309	14.908211	0.433870	-0.619084	2.755916	0.000000	-0.071388	0.000000	0.006930	-0.000960	0.000000	0.000000
46.818990	17.351680	15.889814	0.962495	-1.179088	2.695095	0.000000	-0.151865	0.000000	0.006343	-0.001175	0.000000	0.000000
47.368050	16.033594	17.528655	1.423096	-1.823086	2.590863	0.000000	-0.229666	0.000000	0.005644	-0.001369	0.000000	0.000000
47.917110	14.262213	19.941461	1.783128	-2.596952	2.445061	0.000000	-0.303416	0.000000	0.004844	-0.001539	0.000000	0.000000
48.363070	12.883065	22.086708	1.319587	-2.192948	2.325642	0.000000	-0.235237	0.000000	0.004184	-0.001422	0.000000	0.000000
48.804030	11.898877	23.805816	0.920188	-1.690554	2.236931	0.000000	-0.170132	0.000000	0.003580	-0.001322	0.000000	0.000000
49.244990	11.247172	25.046074	0.562847	-1.111238	2.176440	0.000000	-0.106950	0.000000	0.003016	-0.001237	0.000000	0.000000
49.685950	10.898157	25.751058	0.231233	-0.481362	2.143487	0.000000	-0.044973	0.000000	0.002487	-0.001166	0.000000	0.000000
50.128160	10.836034	25.888427	-0.063853	0.108484	2.137717	0.000000	0.011360	0.000000	0.001985	-0.001113	0.000000	0.000000
50.425482	10.882195	25.827373	-0.091404	0.096864	2.141425	0.000000	0.011360	0.000000	0.001654	-0.001113	0.000000	0.000000
50.758816	10.953427	25.767139	-0.122291	0.083837	2.145583	0.000000	0.011360	0.000000	0.001283	-0.001113	0.000000	0.000000
51.092149	11.045250	25.715590	-0.153178	0.070810	2.149741	0.000000	0.011360	0.000000	0.000912	-0.001113	0.000000	0.000000
51.426732	11.157898	25.673102	-0.093660	-0.150539	2.153892	0.000000	-0.006113	0.000000	0.000540	-0.001117	0.000000	0.000000
51.724055	11.221585	25.766141	-0.093076	-0.225856	2.152407	0.000000	-0.011381	0.000000	0.000207	-0.001118	0.000000	0.000000
52.165015	11.449850	25.678631	-0.426903	0.423554	2.161504	0.000000	0.050514	0.000000	-0.000285	-0.001119	0.000000	0.000000
52.605975	11.979965	25.024743	-0.780225	1.053688	2.198000	0.000000	0.112996	0.000000	-0.000781	-0.001133	0.000000	0.000000
53.046935	12.836139	23.834239	-1.169184	1.635877	2.262316	0.000000	0.176778	0.000000	-0.001286	-0.001159	0.000000	0.000000
53.487895	14.057474	22.161295	-1.611548	2.143634	2.355190	0.000000	0.242585	0.000000	-0.001806	-0.001199	0.000000	0.000000
53.933855	15.720646	20.057001	-2.131758	2.555151	2.479214	0.000000	0.311562	0.000000	-0.002352	-0.001253	0.000000	0.000000
54.482915	17.861639	17.688989	-1.745262	1.783315	2.630570	0.000000	0.236640	0.000000	-0.003017	-0.001166	0.000000	0.000000
55.031975	19.507611	16.094227	-1.235526	1.138496	2.739518	0.000000	0.157502	0.000000	-0.003629	-0.001058	0.000000	0.000000
55.581035	20.542349	15.159114	-0.638554	0.574767	2.804115	0.000000	0.075553	0.000000	-0.004176	-0.000932	0.000000	0.000000
56.130095	20.892806	14.817035	0.003496	0.051976	2.823210	0.000000	-0.007751	0.000000	-0.004649	-0.000789	0.000000	0.000000
56.428668	20.928838	14.767969	-0.067527	0.072022	2.823421	0.000000	-0.000091	0.000000	-0.004888	-0.000801	0.000000	0.000000
56.762001	20.979189	14.727517	-0.083527	0.049334	2.823658	0.000000	-0.000091	0.000000	-0.005155	-0.000801	0.000000	0.000000
57.095334	21.040207	14.702191	-0.099526	0.026645	2.823895	0.000000	-0.000091	0.000000	-0.005423	-0.000801	0.000000	0.000000
57.429918	21.112180	14.691980	-0.115586	0.003872	2.824133	0.000000	-0.000091	0.000000	-0.005691	-0.000801	0.000000	0.000000
57.727240	21.185178	14.695680	-0.187914	0.023740	2.824346	0.000000	0.007649	0.000000	-0.005929	-0.000817	0.000000	0.000000
58.276300	21.029475	14.951587	0.469407	-0.492613	2.806017	0.000000	-0.075700	0.000000	-0.006324	-0.000619	0.000000	0.000000
58.825360	20.166111	15.790276	1.093567	-1.044045	2.742121	0.000000	-0.157717	0.000000	-0.006607	-0.000409	0.000000	0.000000
59.374420	18.656061	17.271470	1.640497	-1.669825	2.633785	0.000000	-0.236944	0.000000	-0.006772	-0.000193	0.000000	0.000000
59.923480	16.605950	19.500647	2.071579	-2.414520	2.482927	0.000000	-0.311971	0.000000	-0.006817	0.000027	0.000000	0.000000
60.369440	15.000069	21.481931	1.542253	-2.009675	2.359295	0.000000	-0.242918	0.000000	-0.006845	-0.000150	0.000000	0.000000
60.810400	13.844914	23.041788	1.087480	-1.514624	2.266908	0.000000	-0.177010	0.000000	-0.006950	-0.000327	0.000000	0.000000
61.251360	13.067433	24.132928	0.682379	-0.950674	2.203187	0.000000	-0.113113	0.000000	-0.007134	-0.000509	0.000000	0.000000
61.692320	12.632117	24.705718	0.308448	-0.343480	2.167408	0.000000	-0.050500	0.000000	-0.007399	-0.000696	0.000000	0.000000
62.134530	12.519149	24.733527	-0.018583	0.214595	2.159178	0.000000	0.005871	0.000000	-0.007750	-0.000872	0.000000	0.000000
62.431853	12.537263	24.609658	-0.042341	0.202020	2.161182	0.000000	0.005871	0.000000	-0.008009	-0.000872	0.000000	0.000000
62.765186	12.574368	24.479677	-0.068976	0.187923	2.163430	0.000000	0.005871	0.000000	-0.008300	-0.000872	0.000000	0.000000
63.098520	12.629231	24.359095	-0.095611	0.173825	2.165678	0.000000	0.005871	0.000000	-0.008591	-0.000872	0.000000	0.000000
63.433103	12.702155	24.247511	-0.122346	0.159675	2.167934	0.000000	0.005871	0.000000	-0.008882	-0.000872	0.000000	0.000000
63.730426	12.781940	24.156359	-0.112117	0.082566	2.169936	0.000000	0.000101	0.000000	-0.009142	-0.000848	0.000000	0.000000
64.171386	13.042791	23.817476	-0.482113	0.683125	2.184136	0.000000	0.062499	0.000000	-0.009568	-0.001090	0.000000	0.000000
64.612346	13.638290	22.960756	-0.874118	1.252607	2.226086	0.000000	0.125620	0.000000	-0.010104	-0.001343	0.000000	0.000000
65.053306	14.595616	21.625180	-1.306030	1.765108	2.296267	0.000000	0.190186	0.000000	-0.010755	-0.001612	0.000000	0.000000
65.494266	15.958463	19.871513	-1.797569	2.197318	2.395486	0.000000	0.256934	0.000000	-0.011528	-0.001899	0.000000	0.000000
65.940226	17.812429	17.754566	-2.375591	2.530104	2.526500	0.000000	0.326994	0.000000	-0.012444	-0.002210	0.000000	0.000000
66.489286	20.186625	15.386263	-1.924796	1.809523	2.686285	0.000000	0.250429	0.000000	-0.013543	-0.001789	0.000000	0.000000
67.038346	21.987971	13.734164	-1.338158	1.217791	2.802513	0.000000	0.169395	0.000000	-0.014402	-0.001336	0.000000	0.000000
67.587406	23.089379	12.680609	-0.657086	0.712770	2.873113	0.000000	0.085336	0.000000	-0.015006	-0.000860	0.000000	0.000000
68.136466	23.413153	12.150567	0.070350	0.258499	2.896825	0.000000	-0.000250	0.000000	-0.015344	-0.000369	0.000000	0.000000
68.435038	23.415827	11.982928	-0.011125	0.267524	2.899402	0.000000	0.008253	0.000000	-0.015466	-0.000411	0.000000	0.000000
68.768372	23.427990	11.814515	-0.025363	0.237716	2.902290	0.000000	0.008253	0.000000	-0.015603	-0.000411	0.000000	0.000000
69.101705	23.449644	11.665974	-0.039600	0.207908	2.905178	0.000000	0.008253	0.000000	-0.015740	-0.000411	0.000000	0.000000
69.436288	23.480924	11.536859	-0.053890	0.177988	2.908077	0.000000	0.008253	0.000000	-0.015878	-0.000411	0.000000	0.000000
69.733611	23.516922	11.438839	-0.135918	0.185053	2.910664	0.000000	0.016834	0.000000	-0.016000	-0.000456	0.000000	0.000000
70.282671	23.262287	11.464274	0.596916	-0.231662	2.896332	0.000000	-0.069350	0.000000	-0.016108	0.000064	0.000000	0.000000
