#ParticleID	Turn	x[m]	xp	y[m]	yp	z[m]	dE[GeV]# s	beta_x	beta_y	alpha_x	alpha_y	D_x	D_y	D_px	D_py	orbit_x	orbit_px	orbit_y	orbit_py
0.300000	11.837885	24.946105	-0.014022	-0.027637	2.617961	0.000000	-0.000059	0.000000	-0.000015	0.000014	0.000000	0.000000
0.601250	11.854001	24.966397	-0.039475	-0.039722	2.617939	0.000000	-0.000059	0.000000	-0.000011	0.000014	0.000000	0.000000
0.898573	11.884943	24.993564	-0.035448	-0.112941	2.617918	0.000000	-0.006479	0.000000	-0.000007	0.000014	0.000000	0.000000
1.339533	12.068636	24.815964	-0.382702	0.514165	2.631347	0.000000	0.067473	0.000000	-0.000001	0.000013	0.000000	0.000000
1.780493	12.565103	24.093549	-0.747441	1.117878	2.677525	0.000000	0.142193	0.000000	0.000005	0.000014	0.000000	0.000000
2.221453	13.397026	22.859189	-1.146328	1.670727	2.756976	0.000000	0.218532	0.000000	0.000011	0.000014	0.000000	0.000000
2.662413	14.602413	21.169045	-1.597588	2.147560	2.870606	0.000000	0.297360	0.000000	0.000017	0.000014	0.000000	0.000000
3.108373	16.257163	19.075228	-2.126141	2.527811	3.021570	0.000000	0.380065	0.000000	0.000023	0.000015	0.000000	0.000000
3.657433	18.379036	16.723687	-1.715530	1.780317	3.204973	0.000000	0.287042	0.000000	0.000031	0.000014	0.000000	0.000000
4.206493	19.980395	15.118951	-1.183742	1.159631	3.335826	0.000000	0.188927	0.000000	0.000038	0.000013	0.000000	0.000000
4.755553	20.948126	14.146718	-0.568340	0.621542	3.411809	0.000000	0.087462	0.000000	0.000045	0.000011	0.000000	0.000000
5.304613	21.213873	13.737739	0.087207	0.127725	3.431573	0.000000	-0.015555	0.000000	0.000051	0.000010	0.000000	0.000000
5.603185	21.199089	13.646707	0.017714	0.141287	3.429602	0.000000	-0.006593	0.000000	0.000054	0.000010	0.000000	0.000000
5.936519	21.192523	13.560821	0.001985	0.116373	3.427401	0.000000	-0.006593	0.000000	0.000057	0.000010	0.000000	0.000000
6.269852	21.196442	13.491543	-0.013744	0.091460	3.425200	0.000000	-0.006593	0.000000	0.000060	0.000010	0.000000	0.000000
6.604435	21.210921	13.438708	-0.029532	0.066453	3.422991	0.000000	-0.006593	0.000000	0.000064	0.000010	0.000000	0.000000
6.901758	21.232654	13.405799	-0.099007	0.079240	3.421028	0.000000	0.002341	0.000000	0.000067	0.000010	0.000000	0.000000
7.450818	20.979404	13.579234	0.557524	-0.396979	3.394113	0.000000	-0.100218	0.000000	0.000071	0.000008	0.000000	0.000000
7.999878	20.022661	14.287980	1.174675	-0.901475	3.311294	0.000000	-0.201000	0.000000	0.000075	0.000005	0.000000	0.000000
8.548938	18.430003	15.582521	1.708852	-1.470180	3.174040	0.000000	-0.298216	0.000000	0.000077	0.000003	0.000000	0.000000
9.097998	16.313929	17.555064	2.122324	-2.143604	2.984786	0.000000	-0.390142	0.000000	0.000078	0.000000	0.000000	0.000000
9.543958	14.662836	19.312777	1.593173	-1.781151	2.829100	0.000000	-0.308453	0.000000	0.000079	0.000002	0.000000	0.000000
9.984918	13.461681	20.693846	1.141113	-1.338887	2.710325	0.000000	-0.230761	0.000000	0.000080	0.000005	0.000000	0.000000
10.425878	12.634799	21.656418	0.741187	-0.835704	2.625198	0.000000	-0.155697	0.000000	0.000083	0.000007	0.000000	0.000000
10.866838	12.144412	22.156696	0.375124	-0.294498	2.572747	0.000000	-0.082407	0.000000	0.000086	0.000009	0.000000	0.000000
11.309048	11.967975	22.171405	0.055419	0.205720	2.552356	0.000000	-0.016309	0.000000	0.000091	0.000011	0.000000	0.000000
11.606371	11.942430	22.053230	0.030499	0.191742	2.547504	0.000000	-0.016309	0.000000	0.000094	0.000011	0.000000	0.000000
12.086371	11.932461	21.879989	-0.009731	0.169177	2.539670	0.000000	-0.016309	0.000000	0.000099	0.000011	0.000000	0.000000
12.566371	11.961113	21.728411	-0.049961	0.146611	2.531837	0.000000	-0.016309	0.000000	0.000104	0.000011	0.000000	0.000000
13.046371	12.028386	21.598496	-0.090191	0.124045	2.524003	0.000000	-0.016309	0.000000	0.000110	0.000011	0.000000	0.000000
13.526371	12.134280	21.490244	-0.130421	0.101480	2.516170	0.000000	-0.016309	0.000000	0.000115	0.000011	0.000000	0.000000
14.007621	12.279222	21.403458	-0.170756	0.078855	2.508316	0.000000	-0.016309	0.000000	0.000120	0.000011	0.000000	0.000000
14.304943	12.388171	21.360723	-0.165332	0.012559	2.503464	0.000000	-0.022441	0.000000	0.000123	0.000011	0.000000	0.000000
14.745903	12.692773	21.115826	-0.528053	0.540699	2.509190	0.000000	0.048461	0.000000	0.000129	0.000014	0.000000	0.000000
15.186863	13.326656	20.414261	-0.914900	1.044237	2.546272	0.000000	0.119915	0.000000	0.000135	0.000017	0.000000	0.000000
15.627823	14.318781	19.287950	-1.343546	1.500264	2.615131	0.000000	0.192735	0.000000	0.000144	0.000021	0.000000	0.000000
16.068783	15.714477	17.788137	-1.833575	1.888029	2.716553	0.000000	0.267749	0.000000	0.000154	0.000025	0.000000	0.000000
16.514743	17.601162	15.961566	-2.412138	2.190644	2.853385	0.000000	0.346275	0.000000	0.000166	0.000029	0.000000	0.000000
17.063803	20.023987	13.921900	-1.974395	1.546106	3.019776	0.000000	0.258976	0.000000	0.000180	0.000023	0.000000	0.000000
17.612863	21.886226	12.525751	-1.397190	1.011695	3.136905	0.000000	0.167084	0.000000	0.000191	0.000017	0.000000	0.000000
18.161923	23.056335	11.673674	-0.721294	0.549345	3.202693	0.000000	0.072229	0.000000	0.000199	0.000011	0.000000	0.000000
18.710983	23.451664	11.304976	0.005552	0.126124	3.215975	0.000000	-0.023907	0.000000	0.000203	0.000004	0.000000	0.000000
19.009556	23.488690	11.220130	-0.068389	0.128561	3.211340	0.000000	-0.015519	0.000000	0.000204	0.000005	0.000000	0.000000
19.342889	23.539035	11.144489	-0.082647	0.098361	3.206165	0.000000	-0.015519	0.000000	0.000206	0.000005	0.000000	0.000000
19.676223	23.598885	11.088982	-0.096904	0.068162	3.200990	0.000000	-0.015519	0.000000	0.000208	0.000005	0.000000	0.000000
20.010806	23.668812	11.053376	-0.228484	0.092614	3.195816	0.000000	0.000315	0.000000	0.000209	0.000006	0.000000	0.000000
20.308129	23.808608	11.006369	-0.303799	0.094192	3.195908	0.000000	0.008650	0.000000	0.000211	0.000006	0.000000	0.000000
20.857189	23.731593	11.125498	0.443237	-0.312440	3.174447	0.000000	-0.086703	0.000000	0.000213	-0.000000	0.000000	0.000000
21.406249	22.846646	11.700686	1.158965	-0.741328	3.100980	0.000000	-0.180519	0.000000	0.000211	-0.000007	0.000000	0.000000
21.955309	21.216274	12.772904	1.792828	-1.223019	2.976810	0.000000	-0.271133	0.000000	0.000205	-0.000014	0.000000	0.000000
22.504369	18.955642	14.418524	2.300054	-1.791823	2.804140	0.000000	-0.356938	0.000000	0.000195	-0.000020	0.000000	0.000000
22.950329	17.174311	15.895810	1.708406	-1.506793	2.662255	0.000000	-0.279755	0.000000	0.000187	-0.000016	0.000000	0.000000
23.391289	15.896875	17.073628	1.199513	-1.154067	2.555216	0.000000	-0.206212	0.000000	0.000181	-0.000011	0.000000	0.000000
23.832249	15.042473	17.915938	0.745424	-0.748831	2.480057	0.000000	-0.135019	0.000000	0.000178	-0.000006	0.000000	0.000000
24.273209	14.572070	18.384414	0.325390	-0.309524	2.435920	0.000000	-0.065363	0.000000	0.000176	-0.000002	0.000000	0.000000
24.715418	14.464284	18.457495	-0.044452	0.098609	2.422301	0.000000	-0.002381	0.000000	0.000176	0.000003	0.000000	0.000000
25.012741	14.496841	18.403694	-0.065048	0.082343	2.421592	0.000000	-0.002381	0.000000	0.000177	0.000003	0.000000	0.000000
25.346075	14.547903	18.354877	-0.088139	0.064108	2.420798	0.000000	-0.002381	0.000000	0.000178	0.000003	0.000000	0.000000
25.679408	14.614360	18.318216	-0.111230	0.045873	2.420003	0.000000	-0.002381	0.000000	0.000179	0.000003	0.000000	0.000000
26.013991	14.696247	18.294015	-0.015181	-0.120840	2.419181	0.000000	-0.022007	0.000000	0.000180	0.000001	0.000000	0.000000
26.311314	14.711292	18.370774	0.000598	-0.182304	2.412637	0.000000	-0.027914	0.000000	0.000180	0.000001	0.000000	0.000000
26.752274	14.892059	18.332260	-0.412092	0.269313	2.415433	0.000000	0.040609	0.000000	0.000181	0.000005	0.000000	0.000000
27.193234	15.443683	17.899358	-0.843609	0.708676	2.448515	0.000000	0.109595	0.000000	0.000185	0.000010	0.000000	0.000000
27.634194	16.391365	17.091764	-1.313668	1.115795	2.512261	0.000000	0.179828	0.000000	0.000190	0.000015	0.000000	0.000000
28.075154	17.778404	15.946223	-1.843746	1.472146	2.607397	0.000000	0.252110	0.000000	0.000198	0.000020	0.000000	0.000000
28.521114	19.692277	14.497604	-2.463016	1.762433	2.736609	0.000000	0.327706	0.000000	0.000208	0.000025	0.000000	0.000000
29.070174	22.124834	12.883380	-1.941134	1.194890	2.893873	0.000000	0.244339	0.000000	0.000220	0.000018	0.000000	0.000000
29.619234	23.905154	11.842274	-1.282139	0.712457	3.004108	0.000000	0.156638	0.000000	0.000228	0.000011	0.000000	0.000000
30.168294	24.907483	11.300131	-0.532579	0.280771	3.065359	0.000000	0.066159	0.000000	0.000232	0.000003	0.000000	0.000000
30.717354	25.061019	11.218334	0.254600	-0.130916	3.076539	0.000000	-0.025494	0.000000	0.000232	-0.000004	0.000000	0.000000
31.015927	24.951696	11.287069	0.176907	-0.128551	3.071324	0.000000	-0.017471	0.000000	0.000231	-0.000003	0.000000	0.000000
31.349260	24.838350	11.382777	0.163130	-0.158571	3.065501	0.000000	-0.017471	0.000000	0.000229	-0.000003	0.000000	0.000000
31.682593	24.734189	11.498498	0.149353	-0.188592	3.059678	0.000000	-0.017471	0.000000	0.000228	-0.000003	0.000000	0.000000
32.017177	24.638874	11.634779	0.135524	-0.218724	3.053834	0.000000	-0.017471	0.000000	0.000227	-0.000003	0.000000	0.000000
32.314499	24.561940	11.772804	0.059181	-0.214800	3.048640	0.000000	-0.009521	0.000000	0.000226	-0.000003	0.000000	0.000000
32.863559	24.076224	12.248058	0.820207	-0.655885	3.018543	0.000000	-0.099963	0.000000	0.000223	-0.000010	0.000000	0.000000
33.412619	22.781827	13.230336	1.523298	-1.143686	2.939205	0.000000	-0.188632	0.000000	0.000215	-0.000017	0.000000	0.000000
33.961679	20.770182	14.789601	2.118789	-1.712951	2.812034	0.000000	-0.273956	0.000000	0.000204	-0.000024	0.000000	0.000000
34.510739	18.183382	17.036919	2.564618	-2.404225	2.639285	0.000000	-0.354421	0.000000	0.000189	-0.000030	0.000000	0.000000
34.956699	16.172251	19.046978	1.961184	-2.084207	2.497576	0.000000	-0.281511	0.000000	0.000176	-0.000026	0.000000	0.000000
35.397659	14.672699	20.708809	1.452354	-1.670111	2.388828	0.000000	-0.212237	0.000000	0.000166	-0.000021	0.000000	0.000000
35.838619	13.591050	21.970410	1.009878	-1.180026	2.310064	0.000000	-0.145379	0.000000	0.000158	-0.000017	0.000000	0.000000
36.279579	12.877888	22.774377	0.613542	-0.636251	2.260387	0.000000	-0.080177	0.000000	0.000151	-0.000013	0.000000	0.000000
36.721789	12.499940	23.084431	0.275742	-0.120110	2.239205	0.000000	-0.021371	0.000000	0.000146	-0.000010	0.000000	0.000000
37.019112	12.343581	23.159738	0.250148	-0.133176	2.232853	0.000000	-0.021371	0.000000	0.000143	-0.000010	0.000000	0.000000
37.352445	12.186381	23.253405	0.221453	-0.147824	2.225733	0.000000	-0.021371	0.000000	0.000140	-0.000010	0.000000	0.000000
37.685779	12.048310	23.356837	0.192759	-0.162472	2.218612	0.000000	-0.021371	0.000000	0.000137	-0.000010	0.000000	0.000000
38.020362	11.928959	23.470477	0.163957	-0.177175	2.211465	0.000000	-0.021371	0.000000	0.000134	-0.000010	0.000000	0.000000
38.317684	11.839073	23.579718	0.167359	-0.247997	2.205114	0.000000	-0.026772	0.000000	0.000131	-0.000010	0.000000	0.000000
38.758644	11.842524	23.537274	-0.175219	0.343883	2.207236	0.000000	0.036392	0.000000	0.000127	-0.000007	0.000000	0.000000
39.199604	12.150478	22.977770	-0.525803	0.920117	2.237275	0.000000	0.099971	0.000000	0.000125	-0.000003	0.000000	0.000000
39.640564	12.777005	21.926664	-0.900409	1.454485	2.295573	0.000000	0.164688	0.000000	0.000124	-0.000000	0.000000	0.000000
40.081524	13.750728	20.431780	-1.316153	1.922676	2.382793	0.000000	0.231282	0.000000	0.000125	0.000003	0.000000	0.000000
40.527484	15.133692	18.538563	-1.795853	2.304666	2.501400	0.000000	0.300914	0.000000	0.000127	0.000006	0.000000	0.000000
41.076544	16.898894	16.411165	-1.400059	1.592817	2.646093	0.000000	0.225372	0.000000	0.000130	0.000002	0.000000	0.000000
41.625604	18.172254	14.998949	-0.905372	0.994420	2.748150	0.000000	0.145832	0.000000	0.000130	-0.000002	0.000000	0.000000
42.174664	18.863830	14.201329	-0.346734	0.466855	2.805761	0.000000	0.063706	0.000000	0.000128	-0.000006	0.000000	0.000000
42.723724	18.924770	13.961489	0.236396	-0.027458	2.817905	0.000000	-0.019551	0.000000	0.000123	-0.000010	0.000000	0.000000
43.022297	18.817979	13.962509	0.170672	-0.012402	2.814267	0.000000	-0.012196	0.000000	0.000120	-0.000010	0.000000	0.000000
43.502297	18.666734	13.990919	0.144421	-0.046785	2.808417	0.000000	-0.012196	0.000000	0.000115	-0.000010	0.000000	0.000000
43.982297	18.540690	14.052336	0.118171	-0.081168	2.802568	0.000000	-0.012196	0.000000	0.000111	-0.000010	0.000000	0.000000
44.462297	18.439846	14.146761	0.091920	-0.115551	2.796718	0.000000	-0.012196	0.000000	0.000106	-0.000010	0.000000	0.000000
44.942297	18.364203	14.274194	0.065670	-0.149934	2.790869	0.000000	-0.012196	0.000000	0.000101	-0.000010	0.000000	0.000000
45.423547	18.313888	14.434917	-0.051386	-0.112887	2.785022	0.000000	0.001603	0.000000	0.000096	-0.000009	0.000000	0.000000
45.720870	18.349285	14.508247	-0.115570	-0.095872	2.785501	0.000000	0.008875	0.000000	0.000094	-0.000009	0.000000	0.000000
46.269930	18.167216	14.894214	0.445201	-0.611236	2.767810	0.000000	-0.073242	0.000000	0.000088	-0.000012	0.000000	0.000000
46.818990	17.383054	15.866556	0.974525	-1.170137	2.705324	0.000000	-0.154060	0.000000	0.000080	-0.000015	0.000000	0.000000
47.368050	16.052189	17.494531	1.435013	-1.812384	2.599151	0.000000	-0.232145	0.000000	0.000072	-0.000017	0.000000	0.000000
47.917110	14.268627	19.894096	1.794138	-2.583723	2.451175	0.000000	-0.306113	0.000000	0.000062	-0.000019	0.000000	0.000000
48.363070	12.880468	22.027633	1.329622	-2.180307	2.329960	0.000000	-0.237818	0.000000	0.000053	-0.000018	0.000000	0.000000
48.804030	11.887994	23.735917	0.929620	-1.678959	2.239558	0.000000	-0.172628	0.000000	0.000046	-0.000017	0.000000	0.000000
49.244990	11.228301	24.966549	0.572090	-1.101220	2.177442	0.000000	-0.109404	0.000000	0.000039	-0.000016	0.000000	0.000000
49.685950	10.871247	25.663535	0.240696	-0.473376	2.142903	0.000000	-0.047425	0.000000	0.000032	-0.000015	0.000000	0.000000
50.128160	10.800653	25.794882	-0.053336	0.112721	2.135560	0.000000	0.008777	0.000000	0.000026	-0.000014	0.000000	0.000000
50.425482	10.840577	25.731324	-0.080943	0.101048	2.138174	0.000000	0.008777	0.000000	0.000021	-0.000014	0.000000	0.000000
50.758816	10.904856	25.668321	-0.111893	0.087961	2.141104	0.000000	0.008777	0.000000	0.000017	-0.000014	0.000000	0.000000
51.092149	10.989768	25.614042	-0.142843	0.074874	2.144035	0.000000	0.008777	0.000000	0.000012	-0.000014	0.000000	0.000000
51.426732	11.095523	25.568852	-0.083895	-0.145688	2.146954	0.000000	-0.008640	0.000000	0.000007	-0.000014	0.000000	0.000000
51.724055	11.153434	25.659016	-0.083530	-0.220490	2.144389	0.000000	-0.013899	0.000000	0.000003	-0.000014	0.000000	0.000000
52.165015	11.372672	25.568043	-0.415545	0.426012	2.151856	0.000000	0.047768	0.000000	-0.000003	-0.000014	0.000000	0.000000
52.605975	11.891955	24.913309	-0.766546	1.053130	2.186609	0.000000	0.109980	0.000000	-0.000009	-0.000014	0.000000	0.000000
53.046935	12.735006	23.724604	-1.152567	1.632332	2.249045	0.000000	0.173445	0.000000	-0.000015	-0.000015	0.000000	0.000000
53.487895	13.940343	22.056014	-1.591247	2.137264	2.339876	0.000000	0.238885	0.000000	-0.000022	-0.000015	0.000000	0.000000
53.933855	15.583686	19.958508	-2.106867	2.546285	2.461639	0.000000	0.307444	0.000000	-0.000029	-0.000016	0.000000	0.000000
54.482915	17.699357	17.598395	-1.723592	1.777550	2.610269	0.000000	0.233127	0.000000	-0.000037	-0.000015	0.000000	0.000000
55.031975	19.324395	16.008384	-1.218571	1.135425	2.716896	0.000000	0.154674	0.000000	-0.000045	-0.000013	0.000000	0.000000
55.581035	20.344017	15.075220	-0.627476	0.574174	2.779629	0.000000	0.073478	0.000000	-0.000052	-0.000012	0.000000	0.000000
56.130095	20.686202	14.732436	0.007939	0.053821	2.797356	0.000000	-0.009022	0.000000	-0.000058	-0.000010	0.000000	0.000000
56.428668	20.718071	14.683402	-0.060600	0.071895	2.796849	0.000000	-0.001710	0.000000	-0.000061	-0.000010	0.000000	0.000000
56.762001	20.763853	14.643078	-0.076748	0.049077	2.796282	0.000000	-0.001710	0.000000	-0.000064	-0.000010	0.000000	0.000000
57.095334	20.820402	14.617966	-0.092896	0.026258	2.795715	0.000000	-0.001710	0.000000	-0.000067	-0.000010	0.000000	0.000000
57.429918	20.887988	14.608058	-0.109105	0.003354	2.795147	0.000000	-0.001710	0.000000	-0.000071	-0.000010	0.000000	0.000000
57.727240	20.957149	14.612116	-0.178300	0.021200	2.794641	0.000000	0.005596	0.000000	-0.000074	-0.000010	0.000000	0.000000
58.276300	20.795307	14.869518	0.471313	-0.492774	2.775074	0.000000	-0.076786	0.000000	-0.000079	-0.000008	0.000000	0.000000
58.825360	19.934254	15.707173	1.087633	-1.041848	2.710580	0.000000	-0.157806	0.000000	-0.000082	-0.000005	0.000000	0.000000
59.374420	18.434811	17.184743	1.627130	-1.665131	2.602304	0.000000	-0.236027	0.000000	-0.000084	-0.000003	0.000000	0.000000
59.923480	16.402890	19.407473	2.051694	-2.407016	2.452166	0.000000	-0.310062	0.000000	-0.000085	0.000000	0.000000	0.000000
60.369440	14.812357	21.383147	1.527478	-2.004449	2.329184	0.000000	-0.241764	0.000000	-0.000085	-0.000002	0.000000	0.000000
60.810400	13.668112	22.939703	1.077263	-1.512049	2.237029	0.000000	-0.176617	0.000000	-0.000087	-0.000004	0.000000	0.000000
61.251360	12.897799	24.029891	0.676265	-0.950851	2.173131	0.000000	-0.113481	0.000000	-0.000089	-0.000006	0.000000	0.000000
61.692320	12.466223	24.604107	0.306164	-0.346391	2.136763	0.000000	-0.051638	0.000000	-0.000092	-0.000009	0.000000	0.000000
62.134530	12.353718	24.635693	-0.019728	0.213309	2.127517	0.000000	0.004395	0.000000	-0.000097	-0.000011	0.000000	0.000000
62.431853	12.372608	24.512601	-0.043805	0.200692	2.128827	0.000000	0.004395	0.000000	-0.000100	-0.000011	0.000000	0.000000
62.765186	12.410809	24.383522	-0.070798	0.186545	2.130296	0.000000	0.004395	0.000000	-0.000104	-0.000011	0.000000	0.000000
63.098520	12.467006	24.263874	-0.097791	0.172399	2.131764	0.000000	0.004395	0.000000	-0.000107	-0.000011	0.000000	0.000000
63.433103	12.541510	24.153261	-0.124885	0.158200	2.133238	0.000000	0.004395	0.000000	-0.000111	-0.000011	0.000000	0.000000
63.730426	12.622931	24.062940	-0.117974	0.086505	2.134548	0.000000	-0.000845	0.000000	-0.000114	-0.000011	0.000000	0.000000
64.171386	12.887616	23.721629	-0.484557	0.684569	2.147725	0.000000	0.060642	0.000000	-0.000120	-0.000014	0.000000	0.000000
64.612346	13.484100	22.864647	-0.873277	1.251485	2.188143	0.000000	0.122820	0.000000	-0.000126	-0.000017	0.000000	0.000000
65.053306	14.439634	21.530986	-1.301896	1.761460	2.256262	0.000000	0.186397	0.000000	-0.000135	-0.000020	0.000000	0.000000
65.494266	15.797874	19.781327	-1.789993	2.191290	2.352858	0.000000	0.252097	0.000000	-0.000144	-0.000024	0.000000	0.000000
65.940226	17.644047	17.670508	-2.364561	2.522173	2.480605	0.000000	0.321070	0.000000	-0.000156	-0.000028	0.000000	0.000000
66.489286	20.010322	15.309073	-1.919635	1.804092	2.636531	0.000000	0.246020	0.000000	-0.000170	-0.000022	0.000000	0.000000
67.038346	21.810216	13.661409	-1.339117	1.214512	2.749986	0.000000	0.166606	0.000000	-0.000180	-0.000017	0.000000	0.000000
67.587406	22.916595	12.610155	-0.664011	0.711438	2.818959	0.000000	0.084237	0.000000	-0.000188	-0.000011	0.000000	0.000000
68.136466	23.251311	12.080433	0.057996	0.259038	2.842226	0.000000	0.000373	0.000000	-0.000192	-0.000005	0.000000	0.000000
68.435038	23.256849	11.914874	-0.015694	0.263851	2.844559	0.000000	0.007812	0.000000	-0.000194	-0.000005	0.000000	0.000000
68.768372	23.272090	11.748948	-0.030030	0.233927	2.847165	0.000000	0.007812	0.000000	-0.000196	-0.000005	0.000000	0.000000
69.101705	23.296889	11.602971	-0.044366	0.204003	2.849771	0.000000	0.007812	0.000000	-0.000197	-0.000005	0.000000	0.000000
69.436288	23.331392	11.476509	-0.058756	0.173967	2.852386	0.000000	0.007812	0.000000	-0.000199	-0.000005	0.000000	0.000000
69.733611	23.370133	11.380996	-0.132708	0.177061	2.854710	0.000000	0.015283	0.000000	-0.000201	-0.000006	0.000000	0.000000
70.282671	23.114506	11.414401	0.595525	-0.238260	2.839909	0.000000	-0.069122	0.000000	-0.000202	0.000001	0.000000	0.000000
