#ParticleID	Turn	x[m]	xp	y[m]	yp	z[m]	dE[GeV]# s	beta_x	beta_y	alpha_x	alpha_y	D_x	D_y	D_px	D_py	orbit_x	orbit_px	orbit_y	orbit_py
0.300000	11.867855	25.050198	-0.016073	-0.025907	2.613397	0.000000	0.000223	0.000000	-0.000190	0.000167	0.000000	0.000000
0.601250	11.885187	25.069432	-0.041463	-0.037941	2.613414	0.000000	0.000223	0.000000	-0.000140	0.000167	0.000000	0.000000
0.898573	11.917294	25.095525	-0.037273	-0.111352	2.613431	0.000000	-0.006191	0.000000	-0.000090	0.000167	0.000000	0.000000
1.339533	12.102958	24.915340	-0.385313	0.518416	2.626897	0.000000	0.067645	0.000000	-0.000017	0.000166	0.000000	0.000000
1.780493	12.602140	24.188069	-0.750958	1.124598	2.673060	0.000000	0.142250	0.000000	0.000056	0.000166	0.000000	0.000000
2.221453	13.437648	22.946800	-1.150913	1.679611	2.752447	0.000000	0.218474	0.000000	0.000130	0.000168	0.000000	0.000000
2.662413	14.647655	21.248009	-1.603452	2.158204	2.865959	0.000000	0.297184	0.000000	0.000205	0.000173	0.000000	0.000000
3.108373	16.308350	19.144080	-2.133572	2.539738	3.016748	0.000000	0.379766	0.000000	0.000283	0.000179	0.000000	0.000000
3.657433	18.437696	16.781039	-1.721532	1.789440	3.199947	0.000000	0.286901	0.000000	0.000379	0.000168	0.000000	0.000000
4.206493	20.044712	15.167511	-1.187885	1.166599	3.330691	0.000000	0.188950	0.000000	0.000468	0.000155	0.000000	0.000000
4.755553	21.015880	14.188569	-0.570328	0.626854	3.406662	0.000000	0.087649	0.000000	0.000548	0.000138	0.000000	0.000000
5.304613	21.282595	13.774486	0.087518	0.131758	3.426513	0.000000	-0.015203	0.000000	0.000619	0.000119	0.000000	0.000000
5.603185	21.267560	13.681096	0.018156	0.145253	3.424596	0.000000	-0.006297	0.000000	0.000655	0.000121	0.000000	0.000000
5.936519	21.260682	13.592553	0.002478	0.120375	3.422457	0.000000	-0.006297	0.000000	0.000696	0.000121	0.000000	0.000000
6.269852	21.264257	13.520596	-0.013201	0.095496	3.420318	0.000000	-0.006297	0.000000	0.000736	0.000121	0.000000	0.000000
6.604435	21.278355	13.465049	-0.028938	0.070524	3.418170	0.000000	-0.006297	0.000000	0.000776	0.000121	0.000000	0.000000
6.901758	21.299722	13.429710	-0.098195	0.083207	3.416262	0.000000	0.002568	0.000000	0.000812	0.000123	0.000000	0.000000
7.450818	21.044382	13.599141	0.560552	-0.393609	3.389461	0.000000	-0.099841	0.000000	0.000872	0.000096	0.000000	0.000000
7.999878	20.083200	14.304411	1.179705	-0.898462	3.306849	0.000000	-0.200477	0.000000	0.000917	0.000067	0.000000	0.000000
8.548938	18.484071	15.595758	1.715528	-1.467312	3.169893	0.000000	-0.297557	0.000000	0.000946	0.000037	0.000000	0.000000
9.097998	16.359954	17.565163	2.130171	-2.140679	2.981023	0.000000	-0.389357	0.000000	0.000957	0.000006	0.000000	0.000000
9.543958	14.702558	19.319999	1.599480	-1.777609	2.825659	0.000000	-0.307756	0.000000	0.000965	0.000031	0.000000	0.000000
9.984918	13.496389	20.697758	1.146202	-1.334913	2.707155	0.000000	-0.230147	0.000000	0.000984	0.000056	0.000000	0.000000
10.425878	12.665467	21.656713	0.745293	-0.831477	2.622252	0.000000	-0.155161	0.000000	0.001015	0.000082	0.000000	0.000000
10.866838	12.171828	22.153228	0.378435	-0.290209	2.569985	0.000000	-0.081942	0.000000	0.001056	0.000108	0.000000	0.000000
11.309048	11.992775	22.164186	0.057863	0.210380	2.549736	0.000000	-0.015845	0.000000	0.001110	0.000133	0.000000	0.000000
11.606371	11.965763	22.043250	0.032988	0.196372	2.544985	0.000000	-0.015845	0.000000	0.001150	0.000133	0.000000	0.000000
12.086371	11.953370	21.865588	-0.007170	0.173757	2.537316	0.000000	-0.015845	0.000000	0.001214	0.000133	0.000000	0.000000
12.566371	11.979529	21.709637	-0.047328	0.151141	2.529647	0.000000	-0.015845	0.000000	0.001278	0.000133	0.000000	0.000000
13.046371	12.044241	21.575397	-0.087486	0.128526	2.521977	0.000000	-0.015845	0.000000	0.001342	0.000133	0.000000	0.000000
13.526371	12.147503	21.462866	-0.127645	0.105911	2.514308	0.000000	-0.015845	0.000000	0.001406	0.000133	0.000000	0.000000
14.007621	12.289738	21.371839	-0.167907	0.083237	2.506618	0.000000	-0.015845	0.000000	0.001471	0.000133	0.000000	0.000000
14.304943	12.396978	21.326508	-0.162817	0.017719	2.501868	0.000000	-0.021892	0.000000	0.001510	0.000130	0.000000	0.000000
14.745903	12.699455	21.077490	-0.525668	0.544837	2.507769	0.000000	0.048974	0.000000	0.001576	0.000170	0.000000	0.000000
15.186863	13.331295	20.372783	-0.912539	1.047165	2.544997	0.000000	0.120396	0.000000	0.001660	0.000211	0.000000	0.000000
15.627823	14.321371	19.244450	-1.341105	1.501846	2.613972	0.000000	0.193187	0.000000	0.001763	0.000255	0.000000	0.000000
16.068783	15.714923	17.743830	-1.830950	1.888191	2.715481	0.000000	0.268175	0.000000	0.001886	0.000302	0.000000	0.000000
16.514743	17.599265	15.917704	-2.409255	2.189402	2.852374	0.000000	0.346684	0.000000	0.002032	0.000353	0.000000	0.000000
17.063803	20.018908	13.878790	-1.971235	1.545869	3.018848	0.000000	0.259411	0.000000	0.002207	0.000285	0.000000	0.000000
17.612863	21.877748	12.482317	-1.393959	1.012450	3.136105	0.000000	0.167541	0.000000	0.002344	0.000211	0.000000	0.000000
18.161923	23.044460	11.628815	-0.718205	0.551150	3.202068	0.000000	0.072702	0.000000	0.002438	0.000133	0.000000	0.000000
18.710983	23.436617	11.257491	0.008287	0.129109	3.215567	0.000000	-0.023424	0.000000	0.002490	0.000054	0.000000	0.000000
19.009556	23.471277	11.171322	-0.064436	0.130713	3.211011	0.000000	-0.015199	0.000000	0.002508	0.000060	0.000000	0.000000
19.342889	23.518988	11.094295	-0.078697	0.100365	3.205925	0.000000	-0.015199	0.000000	0.002528	0.000060	0.000000	0.000000
19.676223	23.576206	11.037501	-0.092958	0.070017	3.200838	0.000000	-0.015199	0.000000	0.002548	0.000060	0.000000	0.000000
20.010806	23.643493	11.000704	-0.224415	0.094060	3.195753	0.000000	0.000635	0.000000	0.002568	0.000073	0.000000	0.000000
20.308129	23.780872	10.952877	-0.298401	0.094798	3.195920	0.000000	0.008802	0.000000	0.002589	0.000079	0.000000	0.000000
20.857189	23.698446	11.070530	0.447654	-0.310337	3.174521	0.000000	-0.086560	0.000000	0.002610	-0.000005	0.000000	0.000000
21.406249	22.809289	11.642543	1.162086	-0.737578	3.101151	0.000000	-0.180386	0.000000	0.002584	-0.000089	0.000000	0.000000
21.955309	21.176216	12.709659	1.794422	-1.217358	2.977109	0.000000	-0.271015	0.000000	0.002512	-0.000172	0.000000	0.000000
22.504369	18.914602	14.347892	2.299992	-1.783854	2.804596	0.000000	-0.356838	0.000000	0.002396	-0.000251	0.000000	0.000000
22.950329	17.132934	15.818845	1.709022	-1.500537	2.662844	0.000000	-0.279630	0.000000	0.002298	-0.000190	0.000000	0.000000
23.391289	15.854553	16.992057	1.200894	-1.149837	2.555924	0.000000	-0.206067	0.000000	0.002227	-0.000132	0.000000	0.000000
23.832249	14.998529	17.831627	0.747638	-0.746818	2.480872	0.000000	-0.134850	0.000000	0.002181	-0.000075	0.000000	0.000000
24.273209	14.525747	18.299355	0.328543	-0.309817	2.436833	0.000000	-0.065168	0.000000	0.002161	-0.000019	0.000000	0.000000
24.715418	14.414708	18.373714	-0.041006	0.097072	2.423302	0.000000	-0.002048	0.000000	0.002165	0.000031	0.000000	0.000000
25.012741	14.445234	18.320847	-0.061667	0.080738	2.422684	0.000000	-0.002048	0.000000	0.002174	0.000031	0.000000	0.000000
25.346075	14.494067	18.273126	-0.084830	0.062425	2.421991	0.000000	-0.002048	0.000000	0.002184	0.000031	0.000000	0.000000
25.679408	14.558341	18.237613	-0.107994	0.044112	2.421297	0.000000	-0.002048	0.000000	0.002195	0.000031	0.000000	0.000000
26.013991	14.638089	18.214614	-0.012490	-0.122035	2.420577	0.000000	-0.021686	0.000000	0.002205	0.000014	0.000000	0.000000
26.311314	14.651555	18.292110	0.002370	-0.182515	2.414125	0.000000	-0.027481	0.000000	0.002209	0.000008	0.000000	0.000000
26.752274	14.830141	18.254716	-0.408872	0.266991	2.417106	0.000000	0.041086	0.000000	0.002226	0.000065	0.000000	0.000000
27.193234	15.378269	17.824745	-0.838797	0.704348	2.450374	0.000000	0.110121	0.000000	0.002267	0.000123	0.000000	0.000000
27.634194	16.320987	17.021760	-1.307050	1.109656	2.514306	0.000000	0.180408	0.000000	0.002335	0.000183	0.000000	0.000000
28.075154	17.701371	15.882297	-1.835025	1.464472	2.609630	0.000000	0.252749	0.000000	0.002428	0.000244	0.000000	0.000000
28.521114	19.606517	14.441026	-2.451843	1.753610	2.739038	0.000000	0.328418	0.000000	0.002552	0.000309	0.000000	0.000000
29.070174	22.028236	12.835237	-1.932384	1.188158	2.896545	0.000000	0.244961	0.000000	0.002698	0.000224	0.000000	0.000000
29.619234	23.800683	11.800561	-1.276410	0.707342	3.007013	0.000000	0.157163	0.000000	0.002796	0.000135	0.000000	0.000000
30.168294	24.798637	11.263297	-0.530263	0.276911	3.068483	0.000000	0.066579	0.000000	0.002845	0.000043	0.000000	0.000000
30.717354	24.951592	11.185176	0.253345	-0.133795	3.079865	0.000000	-0.025186	0.000000	0.002844	-0.000049	0.000000	0.000000
31.015927	24.842000	11.256095	0.177319	-0.132253	3.074703	0.000000	-0.017332	0.000000	0.002831	-0.000042	0.000000	0.000000
31.349260	24.728400	11.354307	0.163479	-0.162385	3.068939	0.000000	-0.017332	0.000000	0.002817	-0.000042	0.000000	0.000000
31.682593	24.624028	11.472608	0.149639	-0.192516	3.063176	0.000000	-0.017332	0.000000	0.002803	-0.000042	0.000000	0.000000
32.017177	24.528542	11.611553	0.135747	-0.222761	3.057391	0.000000	-0.017332	0.000000	0.002789	-0.000042	0.000000	0.000000
32.314499	24.451497	11.752004	0.061013	-0.219657	3.052250	0.000000	-0.009544	0.000000	0.002777	-0.000035	0.000000	0.000000
32.863559	23.965725	12.232413	0.818393	-0.660439	3.022143	0.000000	-0.100110	0.000000	0.002733	-0.000124	0.000000	0.000000
33.412619	22.675179	13.219712	1.517956	-1.148267	2.942769	0.000000	-0.188902	0.000000	0.002641	-0.000211	0.000000	0.000000
33.961679	20.671035	14.784225	2.110281	-1.717888	2.815534	0.000000	-0.274347	0.000000	0.002502	-0.000294	0.000000	0.000000
34.510739	18.094885	17.037393	2.553525	-2.409878	2.642695	0.000000	-0.354930	0.000000	0.002319	-0.000372	0.000000	0.000000
34.956699	16.092392	19.052785	1.952572	-2.090354	2.500912	0.000000	-0.281923	0.000000	0.002166	-0.000314	0.000000	0.000000
35.397659	14.599380	20.720216	1.445868	-1.676509	2.392111	0.000000	-0.212560	0.000000	0.002040	-0.000260	0.000000	0.000000
35.838619	13.522557	21.987494	1.005231	-1.186380	2.313314	0.000000	-0.145615	0.000000	0.001937	-0.000209	0.000000	0.000000
36.279579	12.812716	22.796958	0.610525	-0.642270	2.263623	0.000000	-0.080326	0.000000	0.001855	-0.000160	0.000000	0.000000
36.721789	12.436740	23.112087	0.273588	-0.124664	2.242447	0.000000	-0.021356	0.000000	0.001795	-0.000117	0.000000	0.000000
37.019112	12.281693	23.190102	0.247891	-0.137728	2.236132	0.000000	-0.021356	0.000000	0.001760	-0.000117	0.000000	0.000000
37.352445	12.126034	23.286802	0.219083	-0.152375	2.229052	0.000000	-0.021356	0.000000	0.001721	-0.000117	0.000000	0.000000
37.685779	11.989582	23.393268	0.190274	-0.167021	2.221973	0.000000	-0.021356	0.000000	0.001682	-0.000117	0.000000	0.000000
38.020362	11.871932	23.509951	0.161358	-0.181723	2.214867	0.000000	-0.021356	0.000000	0.001643	-0.000117	0.000000	0.000000
38.317684	11.783620	23.621898	0.164117	-0.251871	2.208552	0.000000	-0.026689	0.000000	0.001608	-0.000121	0.000000	0.000000
38.758644	11.789373	23.582360	-0.177248	0.341192	2.210770	0.000000	0.036567	0.000000	0.001564	-0.000080	0.000000	0.000000
39.199604	12.098616	23.024649	-0.526711	0.918731	2.240932	0.000000	0.100241	0.000000	0.001537	-0.000040	0.000000	0.000000
39.640564	12.725476	21.974144	-0.900239	1.454466	2.299379	0.000000	0.165057	0.000000	0.001528	-0.000001	0.000000	0.000000
40.081524	13.698596	20.478642	-1.314900	1.924021	2.386778	0.000000	0.231753	0.000000	0.001537	0.000039	0.000000	0.000000
40.527484	15.079981	18.583587	-1.793484	2.307354	2.505600	0.000000	0.301499	0.000000	0.001563	0.000079	0.000000	0.000000
41.076544	16.843728	16.453919	-1.399704	1.594206	2.650551	0.000000	0.225813	0.000000	0.001593	0.000028	0.000000	0.000000
41.625604	18.117846	15.040811	-0.907049	0.994614	2.752810	0.000000	0.146122	0.000000	0.001594	-0.000024	0.000000	0.000000
42.174664	18.812331	14.243605	-0.350321	0.465870	2.810563	0.000000	0.063838	0.000000	0.001567	-0.000075	0.000000	0.000000
42.723724	18.878123	14.005516	0.231152	-0.029690	2.822784	0.000000	-0.019579	0.000000	0.001512	-0.000125	0.000000	0.000000
43.022297	18.774049	14.008023	0.166112	-0.014855	2.819149	0.000000	-0.012297	0.000000	0.001476	-0.000121	0.000000	0.000000
43.502297	18.627192	14.038735	0.139840	-0.049129	2.813304	0.000000	-0.012297	0.000000	0.001418	-0.000121	0.000000	0.000000
43.982297	18.505557	14.102350	0.113567	-0.083403	2.807459	0.000000	-0.012297	0.000000	0.001360	-0.000121	0.000000	0.000000
44.462297	18.409144	14.198868	0.087294	-0.117676	2.801615	0.000000	-0.012297	0.000000	0.001302	-0.000121	0.000000	0.000000
44.942297	18.337952	14.328289	0.061022	-0.151950	2.795770	0.000000	-0.012297	0.000000	0.001244	-0.000121	0.000000	0.000000
45.423547	18.292122	14.490898	-0.055949	-0.114516	2.789927	0.000000	0.001526	0.000000	0.001186	-0.000115	0.000000	0.000000
45.720870	18.330240	14.565174	-0.119684	-0.097638	2.790415	0.000000	0.008746	0.000000	0.001151	-0.000112	0.000000	0.000000
46.269930	18.152960	14.954052	0.440580	-0.614792	2.772672	0.000000	-0.073532	0.000000	0.001080	-0.000148	0.000000	0.000000
46.818990	17.373952	15.931405	0.969719	-1.175737	2.710062	0.000000	-0.154508	0.000000	0.000989	-0.000182	0.000000	0.000000
47.368050	16.048250	17.566848	1.430356	-1.820429	2.603696	0.000000	-0.232746	0.000000	0.000881	-0.000212	0.000000	0.000000
47.917110	14.269503	19.976869	1.789952	-2.594787	2.455457	0.000000	-0.306859	0.000000	0.000757	-0.000238	0.000000	0.000000
48.363070	12.884865	22.119500	1.325779	-2.189513	2.334024	0.000000	-0.238452	0.000000	0.000655	-0.000220	0.000000	0.000000
48.804030	11.895652	23.834949	0.925954	-1.685911	2.243448	0.000000	-0.173159	0.000000	0.000561	-0.000204	0.000000	0.000000
49.244990	11.239143	25.070606	0.568436	-1.105602	2.181197	0.000000	-0.109836	0.000000	0.000474	-0.000191	0.000000	0.000000
49.685950	10.885341	25.770250	0.236889	-0.474988	2.146561	0.000000	-0.047762	0.000000	0.000393	-0.000180	0.000000	0.000000
50.128160	10.818224	25.901764	-0.057499	0.113921	2.139160	0.000000	0.008540	0.000000	0.000315	-0.000172	0.000000	0.000000
50.425482	10.860614	25.837479	-0.085073	0.102293	2.141750	0.000000	0.008540	0.000000	0.000264	-0.000172	0.000000	0.000000
50.758816	10.927634	25.773629	-0.115987	0.089257	2.144654	0.000000	0.008540	0.000000	0.000207	-0.000172	0.000000	0.000000
51.092149	11.015263	25.718469	-0.146901	0.076221	2.147558	0.000000	0.008540	0.000000	0.000150	-0.000172	0.000000	0.000000
51.426732	11.123721	25.672364	-0.087688	-0.145131	2.150451	0.000000	-0.008905	0.000000	0.000092	-0.000172	0.000000	0.000000
51.724055	11.183873	25.762181	-0.087207	-0.220172	2.147855	0.000000	-0.014171	0.000000	0.000041	-0.000172	0.000000	0.000000
52.165015	11.406667	25.669723	-0.420014	0.429048	2.155289	0.000000	0.047586	0.000000	-0.000035	-0.000172	0.000000	0.000000
52.605975	11.930289	25.011161	-0.772008	1.058745	2.190049	0.000000	0.109886	0.000000	-0.000111	-0.000174	0.000000	0.000000
53.046935	12.778658	23.816459	-1.159272	1.640270	2.252532	0.000000	0.173440	0.000000	-0.000189	-0.000178	0.000000	0.000000
53.487895	13.990534	22.139978	-1.599498	2.147164	2.343451	0.000000	0.238971	0.000000	-0.000269	-0.000184	0.000000	0.000000
53.933855	15.642031	20.032935	-2.117050	2.557693	2.465348	0.000000	0.307623	0.000000	-0.000352	-0.000192	0.000000	0.000000
54.482915	17.768103	17.661941	-1.732342	1.786099	2.614132	0.000000	0.233185	0.000000	-0.000454	-0.000179	0.000000	0.000000
55.031975	19.401620	16.063835	-1.225275	1.141724	2.720839	0.000000	0.154607	0.000000	-0.000548	-0.000163	0.000000	0.000000
55.581035	20.427206	15.124786	-0.631666	0.578671	2.783575	0.000000	0.073284	0.000000	-0.000633	-0.000144	0.000000	0.000000
56.130095	20.772426	14.777906	0.006556	0.056835	2.801225	0.000000	-0.009341	0.000000	-0.000706	-0.000122	0.000000	0.000000
56.428668	20.805413	14.726846	-0.062445	0.075312	2.800671	0.000000	-0.001979	0.000000	-0.000743	-0.000124	0.000000	0.000000
56.762001	20.852405	14.684226	-0.078529	0.052549	2.800053	0.000000	-0.001979	0.000000	-0.000784	-0.000124	0.000000	0.000000
57.095334	20.910119	14.656781	-0.094613	0.029786	2.799435	0.000000	-0.001979	0.000000	-0.000825	-0.000124	0.000000	0.000000
57.429918	20.978833	14.644494	-0.110757	0.006938	2.798814	0.000000	-0.001979	0.000000	-0.000867	-0.000124	0.000000	0.000000
57.727240	21.048960	14.646405	-0.180516	0.025165	2.798262	0.000000	0.005388	0.000000	-0.000903	-0.000126	0.000000	0.000000
58.276300	20.887826	14.899961	0.472189	-0.489698	2.778603	0.000000	-0.077108	0.000000	-0.000964	-0.000096	0.000000	0.000000
58.825360	20.024119	15.734612	1.091540	-1.039441	2.713942	0.000000	-0.158238	0.000000	-0.001008	-0.000064	0.000000	0.000000
59.374420	18.518845	17.209805	1.633793	-1.663218	2.605424	0.000000	-0.236562	0.000000	-0.001034	-0.000031	0.000000	0.000000
59.923480	16.478323	19.430611	2.060647	-2.405459	2.454975	0.000000	-0.310690	0.000000	-0.001042	0.000003	0.000000	0.000000
60.369440	14.880773	21.404475	1.534345	-2.002007	2.331734	0.000000	-0.242328	0.000000	-0.001047	-0.000024	0.000000	0.000000
60.810400	13.731286	22.958499	1.082351	-1.508819	2.239359	0.000000	-0.177120	0.000000	-0.001064	-0.000052	0.000000	0.000000
61.251360	12.957184	24.045529	0.679804	-0.946983	2.175279	0.000000	-0.113928	0.000000	-0.001092	-0.000079	0.000000	0.000000
61.692320	12.523101	24.616108	0.308316	-0.342062	2.138763	0.000000	-0.052033	0.000000	-0.001134	-0.000108	0.000000	0.000000
62.134530	12.409253	24.643733	-0.018416	0.217306	2.129402	0.000000	0.003990	0.000000	-0.001188	-0.000135	0.000000	0.000000
62.431853	12.427330	24.518270	-0.042384	0.204671	2.130629	0.000000	0.003990	0.000000	-0.001228	-0.000135	0.000000	0.000000
62.765186	12.464542	24.386544	-0.069255	0.190506	2.132004	0.000000	0.003990	0.000000	-0.001273	-0.000135	0.000000	0.000000
63.098520	12.519669	24.264262	-0.096125	0.176341	2.133379	0.000000	0.003990	0.000000	-0.001318	-0.000135	0.000000	0.000000
63.433103	12.593017	24.151017	-0.123097	0.162124	2.134759	0.000000	0.003990	0.000000	-0.001363	-0.000135	0.000000	0.000000
63.730426	12.673342	24.058369	-0.115575	0.089665	2.135985	0.000000	-0.001317	0.000000	-0.001403	-0.000132	0.000000	0.000000
64.171386	12.936368	23.714361	-0.483239	0.687515	2.149020	0.000000	0.060203	0.000000	-0.001470	-0.000169	0.000000	0.000000
64.612346	13.532101	22.854942	-0.872978	1.254084	2.189324	0.000000	0.122411	0.000000	-0.001552	-0.000207	0.000000	0.000000
65.053306	14.487754	21.519214	-1.302596	1.763595	2.257357	0.000000	0.186015	0.000000	-0.001653	-0.000249	0.000000	0.000000
65.494266	15.846983	19.767952	-1.791719	2.192866	2.353894	0.000000	0.251740	0.000000	-0.001772	-0.000293	0.000000	0.000000
65.940226	17.695074	17.656057	-2.367351	2.523079	2.481610	0.000000	0.320732	0.000000	-0.001913	-0.000341	0.000000	0.000000
66.489286	20.063246	15.293592	-1.920547	1.805186	2.637488	0.000000	0.245655	0.000000	-0.002083	-0.000276	0.000000	0.000000
67.038346	21.862960	13.644638	-1.338104	1.215865	2.750850	0.000000	0.166217	0.000000	-0.002216	-0.000206	0.000000	0.000000
67.587406	22.967114	12.591746	-0.661156	0.713143	2.819684	0.000000	0.083827	0.000000	-0.002309	-0.000133	0.000000	0.000000
68.136466	23.297732	12.059922	0.062484	0.261214	2.842766	0.000000	-0.000051	0.000000	-0.002361	-0.000057	0.000000	0.000000
68.435038	23.301307	11.892778	-0.012401	0.266466	2.845031	0.000000	0.007522	0.000000	-0.002380	-0.000064	0.000000	0.000000
68.768372	23.314344	11.725140	-0.026709	0.236447	2.847560	0.000000	0.007522	0.000000	-0.002401	-0.000064	0.000000	0.000000
69.101705	23.336918	11.577515	-0.041016	0.206429	2.850088	0.000000	0.007522	0.000000	-0.002423	-0.000064	0.000000	0.000000
69.436288	23.369170	11.449461	-0.055377	0.176298	2.852627	0.000000	0.007522	0.000000	-0.002444	-0.000064	0.000000	0.000000
69.733611	23.405898	11.352585	-0.130548	0.179782	2.854882	0.000000	0.015135	0.000000	-0.002463	-0.000070	0.000000	0.000000
70.282671	23.147293	11.382547	0.598754	-0.234676	2.840015	0.000000	-0.069269	0.000000	-0.002479	0.000010	0.000000	0.000000
