#ParticleID	Turn	x[m]	xp	y[m]	yp	z[m]	dE[GeV]# s	beta_x	beta_y	alpha_x	alpha_y	D_x	D_y	D_px	D_py	orbit_x	orbit_px	orbit_y	orbit_py
0.300000	11.910788	25.191043	-0.018634	-0.023575	2.606886	0.000000	0.000557	0.000000	-0.000448	0.000393	0.000000	0.000000
0.601250	11.929637	25.208851	-0.043935	-0.035540	2.606935	0.000000	0.000557	0.000000	-0.000329	0.000393	0.000000	0.000000
0.898573	11.963187	25.233496	-0.039510	-0.109212	2.606984	0.000000	-0.005849	0.000000	-0.000213	0.000393	0.000000	0.000000
1.339533	12.151336	25.049824	-0.388657	0.524157	2.620469	0.000000	0.067821	0.000000	-0.000040	0.000390	0.000000	0.000000
1.780493	12.654045	24.315992	-0.755563	1.133679	2.666578	0.000000	0.142260	0.000000	0.000132	0.000391	0.000000	0.000000
2.221453	13.494286	23.065385	-1.156993	1.691620	2.745835	0.000000	0.218315	0.000000	0.000305	0.000397	0.000000	0.000000
2.662413	14.710450	21.354902	-1.611286	2.172595	2.859142	0.000000	0.296852	0.000000	0.000483	0.000407	0.000000	0.000000
3.108373	16.379110	19.237298	-2.143545	2.555869	3.009642	0.000000	0.379255	0.000000	0.000667	0.000422	0.000000	0.000000
3.657433	18.518444	16.858705	-1.729497	1.801773	3.192502	0.000000	0.286624	0.000000	0.000892	0.000397	0.000000	0.000000
4.206493	20.132916	15.233292	-1.193273	1.176015	3.323046	0.000000	0.188915	0.000000	0.001101	0.000364	0.000000	0.000000
4.755553	21.108473	14.245288	-0.572751	0.634023	3.398962	0.000000	0.087861	0.000000	0.001291	0.000326	0.000000	0.000000
5.304613	21.376193	13.824322	0.088236	0.137191	3.418905	0.000000	-0.014747	0.000000	0.001458	0.000281	0.000000	0.000000
5.603185	21.360619	13.727769	0.019086	0.150570	3.417052	0.000000	-0.005923	0.000000	0.001543	0.000285	0.000000	0.000000
5.936519	21.353099	13.635667	0.003475	0.125738	3.414982	0.000000	-0.005923	0.000000	0.001638	0.000285	0.000000	0.000000
6.269852	21.355986	13.560119	-0.012135	0.100906	3.412913	0.000000	-0.005923	0.000000	0.001733	0.000285	0.000000	0.000000
6.604435	21.369349	13.500936	-0.027805	0.075980	3.410836	0.000000	-0.005923	0.000000	0.001828	0.000285	0.000000	0.000000
6.901758	21.390025	13.462339	-0.096716	0.088495	3.408990	0.000000	0.002840	0.000000	0.001913	0.000290	0.000000	0.000000
7.450818	21.131455	13.626448	0.565004	-0.389142	3.382324	0.000000	-0.099339	0.000000	0.002054	0.000225	0.000000	0.000000
7.999878	20.163905	14.327128	1.186817	-0.894498	3.299991	0.000000	-0.199752	0.000000	0.002160	0.000157	0.000000	0.000000
8.548938	18.555722	15.614293	1.724795	-1.463573	3.163453	0.000000	-0.296619	0.000000	0.002226	0.000086	0.000000	0.000000
9.097998	16.420511	17.579632	2.140932	-2.136901	2.975133	0.000000	-0.388224	0.000000	0.002254	0.000014	0.000000	0.000000
9.543958	14.754451	19.330734	1.608168	-1.772982	2.820230	0.000000	-0.306762	0.000000	0.002273	0.000072	0.000000	0.000000
9.984918	13.541350	20.704157	1.153264	-1.329683	2.702108	0.000000	-0.229285	0.000000	0.002318	0.000131	0.000000	0.000000
10.425878	12.704795	21.658337	0.751053	-0.825879	2.617517	0.000000	-0.154422	0.000000	0.002389	0.000192	0.000000	0.000000
10.866838	12.206561	22.149855	0.383158	-0.284495	2.565494	0.000000	-0.081319	0.000000	0.002488	0.000255	0.000000	0.000000
11.309048	12.023733	22.155798	0.061416	0.216693	2.545426	0.000000	-0.015232	0.000000	0.002615	0.000314	0.000000	0.000000
11.606371	11.994592	22.031120	0.036595	0.202643	2.540803	0.000000	-0.015232	0.000000	0.002708	0.000314	0.000000	0.000000
12.086371	11.978695	21.847470	-0.003476	0.179961	2.533341	0.000000	-0.015232	0.000000	0.002859	0.000314	0.000000	0.000000
12.566371	12.001267	21.685595	-0.043548	0.157279	2.525878	0.000000	-0.015232	0.000000	0.003010	0.000314	0.000000	0.000000
13.046371	12.062307	21.545494	-0.083620	0.134597	2.518416	0.000000	-0.015232	0.000000	0.003161	0.000314	0.000000	0.000000
13.526371	12.161817	21.427168	-0.123691	0.111915	2.510954	0.000000	-0.015232	0.000000	0.003312	0.000314	0.000000	0.000000
14.007621	12.300204	21.330394	-0.163867	0.089174	2.503472	0.000000	-0.015232	0.000000	0.003463	0.000314	0.000000	0.000000
14.304943	12.405023	21.281553	-0.159301	0.024799	2.498849	0.000000	-0.021152	0.000000	0.003557	0.000306	0.000000	0.000000
14.745903	12.704489	21.026857	-0.522238	0.550566	2.504975	0.000000	0.049643	0.000000	0.003712	0.000400	0.000000	0.000000
15.186863	13.333348	20.317769	-0.909041	1.051282	2.542374	0.000000	0.120999	0.000000	0.003910	0.000498	0.000000	0.000000
15.627823	14.320341	19.186550	-1.337388	1.504161	2.611470	0.000000	0.193728	0.000000	0.004152	0.000602	0.000000	0.000000
16.068783	15.710580	17.684672	-1.826852	1.888596	2.713048	0.000000	0.268657	0.000000	0.004442	0.000713	0.000000	0.000000
16.514743	17.591225	15.858962	-2.404654	2.187918	2.849960	0.000000	0.347117	0.000000	0.004786	0.000832	0.000000	0.000000
17.063803	20.005897	13.820865	-1.966417	1.545703	3.016469	0.000000	0.259913	0.000000	0.005199	0.000670	0.000000	0.000000
17.612863	21.859663	12.423794	-1.389237	1.013599	3.133849	0.000000	0.168108	0.000000	0.005520	0.000497	0.000000	0.000000
18.161923	23.021524	11.568235	-0.713895	0.553700	3.200021	0.000000	0.073330	0.000000	0.005743	0.000314	0.000000	0.000000
18.710983	23.409373	11.193244	0.011893	0.133245	3.213814	0.000000	-0.022745	0.000000	0.005864	0.000126	0.000000	0.000000
19.009556	23.440766	11.105279	-0.059001	0.133645	3.209361	0.000000	-0.014767	0.000000	0.005906	0.000141	0.000000	0.000000
19.342889	23.484856	11.026366	-0.073271	0.103093	3.204392	0.000000	-0.014767	0.000000	0.005953	0.000141	0.000000	0.000000
19.676223	23.538460	10.967821	-0.087540	0.072542	3.199423	0.000000	-0.014767	0.000000	0.006000	0.000141	0.000000	0.000000
20.010806	23.602124	10.929404	-0.218802	0.096026	3.194454	0.000000	0.001061	0.000000	0.006048	0.000171	0.000000	0.000000
20.308129	23.736184	10.880453	-0.290799	0.095553	3.194721	0.000000	0.008974	0.000000	0.006098	0.000187	0.000000	0.000000
20.857189	23.646239	10.996185	0.453690	-0.307560	3.173397	0.000000	-0.086360	0.000000	0.006146	-0.000012	0.000000	0.000000
21.406249	22.751448	11.563985	1.166124	-0.732585	3.100172	0.000000	-0.180163	0.000000	0.006086	-0.000210	0.000000	0.000000
21.955309	21.115041	12.624301	1.796163	-1.209798	2.976345	0.000000	-0.270773	0.000000	0.005917	-0.000404	0.000000	0.000000
22.504369	18.852654	14.252665	2.299289	-1.773195	2.804111	0.000000	-0.356586	0.000000	0.005643	-0.000592	0.000000	0.000000
22.950329	17.070978	15.715175	1.709396	-1.492189	2.662594	0.000000	-0.279370	0.000000	0.005411	-0.000448	0.000000	0.000000
23.391289	15.791650	16.882258	1.202446	-1.144224	2.555877	0.000000	-0.205805	0.000000	0.005244	-0.000311	0.000000	0.000000
23.832249	14.933646	17.718217	0.750449	-0.744191	2.480997	0.000000	-0.134582	0.000000	0.005136	-0.000177	0.000000	0.000000
24.273209	14.457750	18.185013	0.332747	-0.310294	2.437104	0.000000	-0.064889	0.000000	0.005087	-0.000045	0.000000	0.000000
24.715418	14.342314	18.261154	-0.036382	0.095037	2.423695	0.000000	-0.001589	0.000000	0.005096	0.000074	0.000000	0.000000
25.012741	14.370121	18.209525	-0.057140	0.078608	2.423201	0.000000	-0.001589	0.000000	0.005118	0.000074	0.000000	0.000000
25.346075	14.415971	18.163259	-0.080412	0.060190	2.422646	0.000000	-0.001589	0.000000	0.005143	0.000074	0.000000	0.000000
25.679408	14.477337	18.129272	-0.103684	0.041771	2.422092	0.000000	-0.001589	0.000000	0.005167	0.000074	0.000000	0.000000
26.013991	14.554239	18.107873	-0.008970	-0.123616	2.421511	0.000000	-0.021234	0.000000	0.005192	0.000032	0.000000	0.000000
26.311314	14.565636	18.186352	0.004539	-0.182657	2.415187	0.000000	-0.026862	0.000000	0.005201	0.000019	0.000000	0.000000
26.752274	14.741424	18.150340	-0.404634	0.264008	2.418429	0.000000	0.041742	0.000000	0.005239	0.000154	0.000000	0.000000
27.193234	15.284883	17.724189	-0.832299	0.698659	2.451941	0.000000	0.110819	0.000000	0.005337	0.000290	0.000000	0.000000
27.634194	16.220852	16.927288	-1.298000	1.101518	2.516107	0.000000	0.181156	0.000000	0.005496	0.000430	0.000000	0.000000
28.075154	17.592112	15.795900	-1.823022	1.454251	2.611655	0.000000	0.253551	0.000000	0.005717	0.000574	0.000000	0.000000
28.521114	19.485254	14.364407	-2.436409	1.741829	2.741284	0.000000	0.329293	0.000000	0.006007	0.000726	0.000000	0.000000
29.070174	21.892077	12.769866	-1.920411	1.179187	2.899066	0.000000	0.245749	0.000000	0.006351	0.000526	0.000000	0.000000
29.619234	23.653844	11.743741	-1.268716	0.700549	3.009819	0.000000	0.157854	0.000000	0.006583	0.000317	0.000000	0.000000
30.168294	24.646053	11.212936	-0.527373	0.271818	3.071580	0.000000	0.067164	0.000000	0.006698	0.000101	0.000000	0.000000
30.717354	24.798585	11.139640	0.251234	-0.137549	3.083255	0.000000	-0.024717	0.000000	0.006694	-0.000116	0.000000	0.000000
31.015927	24.688736	11.213491	0.177664	-0.137213	3.078171	0.000000	-0.017121	0.000000	0.006665	-0.000099	0.000000	0.000000
31.349260	24.574936	11.315062	0.163737	-0.167499	3.072497	0.000000	-0.017121	0.000000	0.006632	-0.000099	0.000000	0.000000
31.682593	24.470421	11.436823	0.149809	-0.197785	3.066823	0.000000	-0.017121	0.000000	0.006599	-0.000099	0.000000	0.000000
32.017177	24.374851	11.579345	0.135829	-0.228184	3.061127	0.000000	-0.017121	0.000000	0.006566	-0.000099	0.000000	0.000000
32.314499	24.297805	11.723051	0.063458	-0.226288	3.056068	0.000000	-0.009581	0.000000	0.006537	-0.000082	0.000000	0.000000
32.863559	23.812065	12.210495	0.815769	-0.666650	3.025959	0.000000	-0.100281	0.000000	0.006434	-0.000292	0.000000	0.000000
33.412619	22.526971	13.204638	1.510435	-1.154502	2.946570	0.000000	-0.189206	0.000000	0.006217	-0.000497	0.000000	0.000000
33.961679	20.533342	14.776296	2.098372	-1.724600	2.819306	0.000000	-0.274784	0.000000	0.005889	-0.000693	0.000000	0.000000
34.510739	17.972063	17.037424	2.538038	-2.417555	2.646421	0.000000	-0.355497	0.000000	0.005458	-0.000877	0.000000	0.000000
34.956699	15.981609	19.060088	1.940533	-2.098717	2.504604	0.000000	-0.282379	0.000000	0.005097	-0.000740	0.000000	0.000000
35.397659	14.497743	20.735152	1.436783	-1.685232	2.395784	0.000000	-0.212917	0.000000	0.004799	-0.000613	0.000000	0.000000
35.838619	13.427685	22.010184	0.998696	-1.195062	2.316983	0.000000	-0.145873	0.000000	0.004556	-0.000492	0.000000	0.000000
36.279579	12.722528	22.827170	0.606248	-0.650512	2.267305	0.000000	-0.080485	0.000000	0.004365	-0.000377	0.000000	0.000000
36.721789	12.349371	23.149252	0.270462	-0.130806	2.246160	0.000000	-0.021296	0.000000	0.004223	-0.000276	0.000000	0.000000
37.019112	12.196224	23.230919	0.244625	-0.143870	2.239911	0.000000	-0.021296	0.000000	0.004140	-0.000276	0.000000	0.000000
37.352445	12.042797	23.331714	0.215658	-0.158516	2.232904	0.000000	-0.021296	0.000000	0.004048	-0.000276	0.000000	0.000000
37.685779	11.908680	23.442273	0.186692	-0.173161	2.225897	0.000000	-0.021296	0.000000	0.003956	-0.000276	0.000000	0.000000
38.020362	11.793480	23.563066	0.157617	-0.187862	2.218865	0.000000	-0.021296	0.000000	0.003864	-0.000276	0.000000	0.000000
38.317684	11.707431	23.678671	0.159454	-0.256992	2.212615	0.000000	-0.026526	0.000000	0.003781	-0.000286	0.000000	0.000000
38.758644	11.716533	23.642960	-0.180251	0.337664	2.214988	0.000000	0.036841	0.000000	0.003677	-0.000189	0.000000	0.000000
39.199604	12.027742	23.087580	-0.528191	0.916955	2.245331	0.000000	0.100629	0.000000	0.003614	-0.000095	0.000000	0.000000
39.640564	12.655278	22.037806	-0.900266	1.454520	2.303989	0.000000	0.165565	0.000000	0.003592	-0.000003	0.000000	0.000000
40.081524	13.627818	20.541406	-1.313478	1.925898	2.391632	0.000000	0.232386	0.000000	0.003612	0.000090	0.000000	0.000000
40.527484	15.007335	18.643809	-1.790586	2.311028	2.510737	0.000000	0.302272	0.000000	0.003673	0.000185	0.000000	0.000000
41.076544	16.769474	16.511021	-1.399560	1.596131	2.656031	0.000000	0.226409	0.000000	0.003742	0.000065	0.000000	0.000000
41.625604	18.044994	15.096645	-0.909660	0.994934	2.758569	0.000000	0.146530	0.000000	0.003744	-0.000057	0.000000	0.000000
42.174664	18.743781	14.299927	-0.355496	0.464613	2.816530	0.000000	0.064052	0.000000	0.003680	-0.000177	0.000000	0.000000
42.723724	18.816466	14.064112	0.223779	-0.032611	2.828885	0.000000	-0.019566	0.000000	0.003550	-0.000294	0.000000	0.000000
43.022297	18.716191	14.068610	0.159732	-0.018138	2.825268	0.000000	-0.012397	0.000000	0.003465	-0.000285	0.000000	0.000000
43.502297	18.575472	14.102404	0.133432	-0.052268	2.819455	0.000000	-0.012397	0.000000	0.003328	-0.000285	0.000000	0.000000
43.982297	18.460002	14.168964	0.107131	-0.086397	2.813641	0.000000	-0.012397	0.000000	0.003192	-0.000285	0.000000	0.000000
44.462297	18.369781	14.268287	0.080830	-0.120527	2.807827	0.000000	-0.012397	0.000000	0.003055	-0.000285	0.000000	0.000000
44.942297	18.304808	14.400376	0.054530	-0.154657	2.802013	0.000000	-0.012397	0.000000	0.002918	-0.000285	0.000000	0.000000
45.423547	18.265239	14.565520	-0.062335	-0.116709	2.796201	0.000000	0.001457	0.000000	0.002781	-0.000271	0.000000	0.000000
45.720870	18.307169	14.641070	-0.125420	-0.100073	2.796716	0.000000	0.008598	0.000000	0.002701	-0.000264	0.000000	0.000000
46.269930	18.136497	15.033919	0.434252	-0.619619	2.778927	0.000000	-0.073887	0.000000	0.002532	-0.000349	0.000000	0.000000
46.818990	17.364484	16.018056	0.963242	-1.183302	2.716182	0.000000	-0.155067	0.000000	0.002319	-0.000427	0.000000	0.000000
47.368050	16.045676	17.663577	1.424178	-1.831272	2.609593	0.000000	-0.233504	0.000000	0.002064	-0.000498	0.000000	0.000000
47.917110	14.273251	20.087685	1.784501	-2.609684	2.461045	0.000000	-0.307806	0.000000	0.001773	-0.000561	0.000000	0.000000
48.363070	12.893210	22.242571	1.320725	-2.201927	2.339354	0.000000	-0.239254	0.000000	0.001533	-0.000518	0.000000	0.000000
48.804030	11.908301	23.967698	0.921083	-1.695313	2.248576	0.000000	-0.173825	0.000000	0.001313	-0.000481	0.000000	0.000000
49.244990	11.256043	25.210167	0.563528	-1.111561	2.186174	0.000000	-0.110370	0.000000	0.001107	-0.000450	0.000000	0.000000
49.685950	10.906628	25.913449	0.231723	-0.477235	2.151438	0.000000	-0.048168	0.000000	0.000915	-0.000424	0.000000	0.000000
50.128160	10.844248	26.045260	-0.063199	0.115477	2.143987	0.000000	0.008269	0.000000	0.000732	-0.000404	0.000000	0.000000
50.425482	10.890013	25.980032	-0.090726	0.103909	2.146565	0.000000	0.008269	0.000000	0.000612	-0.000404	0.000000	0.000000
50.758816	10.960784	25.915082	-0.121587	0.090940	2.149456	0.000000	0.008269	0.000000	0.000477	-0.000404	0.000000	0.000000
51.092149	11.052130	25.858778	-0.152448	0.077971	2.152347	0.000000	0.008269	0.000000	0.000343	-0.000404	0.000000	0.000000
51.426732	11.164281	25.811481	-0.092853	-0.144442	2.155228	0.000000	-0.009216	0.000000	0.000207	-0.000406	0.000000	0.000000
51.724055	11.227482	25.900869	-0.092204	-0.219816	2.152608	0.000000	-0.014490	0.000000	0.000087	-0.000406	0.000000	0.000000
52.165015	11.455128	25.806479	-0.426138	0.433058	2.160028	0.000000	0.047389	0.000000	-0.000092	-0.000406	0.000000	0.000000
52.605975	11.984712	25.142831	-0.779538	1.066226	2.194829	0.000000	0.109811	0.000000	-0.000272	-0.000411	0.000000	0.000000
53.046935	12.840425	23.940126	-1.168549	1.650880	2.257408	0.000000	0.173489	0.000000	-0.000456	-0.000420	0.000000	0.000000
53.487895	14.061357	22.253088	-1.610944	2.160420	2.348481	0.000000	0.239148	0.000000	-0.000644	-0.000435	0.000000	0.000000
53.933855	15.724173	20.133268	-2.131198	2.572987	2.470596	0.000000	0.307932	0.000000	-0.000842	-0.000454	0.000000	0.000000
54.482915	17.864665	17.747697	-1.744454	1.797547	2.619636	0.000000	0.233321	0.000000	-0.001083	-0.000423	0.000000	0.000000
55.031975	19.509884	16.138764	-1.234504	1.150141	2.726491	0.000000	0.154564	0.000000	-0.001305	-0.000384	0.000000	0.000000
55.581035	20.543639	15.191865	-0.637367	0.584655	2.789263	0.000000	0.073060	0.000000	-0.001503	-0.000339	0.000000	0.000000
56.130095	20.892925	14.839552	0.004780	0.060813	2.806835	0.000000	-0.009746	0.000000	-0.001675	-0.000287	0.000000	0.000000
56.428668	20.927400	14.785794	-0.064900	0.079866	2.806232	0.000000	-0.002309	0.000000	-0.001762	-0.000291	0.000000	0.000000
56.762001	20.975998	14.740112	-0.080895	0.057178	2.805560	0.000000	-0.002309	0.000000	-0.001859	-0.000291	0.000000	0.000000
57.095334	21.035260	14.709556	-0.096890	0.034490	2.804887	0.000000	-0.002309	0.000000	-0.001957	-0.000291	0.000000	0.000000
57.429918	21.105467	14.694095	-0.112945	0.011717	2.804212	0.000000	-0.002309	0.000000	-0.002054	-0.000291	0.000000	0.000000
57.727240	21.176875	14.693143	-0.183530	0.030494	2.803612	0.000000	0.005147	0.000000	-0.002141	-0.000297	0.000000	0.000000
58.276300	21.016645	14.941542	0.473478	-0.485586	2.783854	0.000000	-0.077518	0.000000	-0.002284	-0.000225	0.000000	0.000000
58.825360	20.149169	15.772190	1.097041	-1.036249	2.718980	0.000000	-0.158811	0.000000	-0.002388	-0.000150	0.000000	0.000000
59.374420	18.635716	17.244246	1.643120	-1.660717	2.610141	0.000000	-0.237290	0.000000	-0.002448	-0.000071	0.000000	0.000000
59.923480	16.583177	19.462554	2.073147	-2.403465	2.459265	0.000000	-0.311561	0.000000	-0.002466	0.000008	0.000000	0.000000
60.369440	14.975823	21.434071	1.543942	-1.998809	2.335664	0.000000	-0.243099	0.000000	-0.002476	-0.000056	0.000000	0.000000
60.810400	13.819007	22.984754	1.089471	-1.504542	2.242995	0.000000	-0.177796	0.000000	-0.002515	-0.000120	0.000000	0.000000
61.251360	13.039596	24.067585	0.684771	-0.941824	2.178675	0.000000	-0.114516	0.000000	-0.002582	-0.000186	0.000000	0.000000
61.692320	12.601985	24.633300	0.311354	-0.336259	2.141973	0.000000	-0.052538	0.000000	-0.002679	-0.000254	0.000000	0.000000
62.134530	12.486227	24.655601	-0.016511	0.222609	2.132477	0.000000	0.003477	0.000000	-0.002807	-0.000317	0.000000	0.000000
62.431853	12.503127	24.526990	-0.040329	0.209953	2.133605	0.000000	0.003477	0.000000	-0.002901	-0.000317	0.000000	0.000000
62.765186	12.538914	24.391751	-0.067033	0.195763	2.134869	0.000000	0.003477	0.000000	-0.003007	-0.000317	0.000000	0.000000
63.098520	12.592504	24.265972	-0.093736	0.181574	2.136134	0.000000	0.003477	0.000000	-0.003113	-0.000317	0.000000	0.000000
63.433103	12.664197	24.149235	-0.120540	0.167331	2.137403	0.000000	0.003477	0.000000	-0.003219	-0.000317	0.000000	0.000000
63.730426	12.742953	24.053503	-0.112138	0.093749	2.138531	0.000000	-0.001931	0.000000	-0.003314	-0.000309	0.000000	0.000000
64.171386	13.003574	23.706001	-0.481292	0.691347	2.151395	0.000000	0.059650	0.000000	-0.003469	-0.000397	0.000000	0.000000
64.612346	13.598150	22.843403	-0.872427	1.257491	2.191575	0.000000	0.121914	0.000000	-0.003664	-0.000489	0.000000	0.000000
65.053306	14.553837	21.504956	-1.303411	1.766424	2.259530	0.000000	0.185572	0.000000	-0.003901	-0.000586	0.000000	0.000000
65.494266	15.914279	19.751558	-1.793929	2.194994	2.356037	0.000000	0.251349	0.000000	-0.004182	-0.000690	0.000000	0.000000
65.940226	17.764851	17.638185	-2.370991	2.524352	2.483771	0.000000	0.320384	0.000000	-0.004515	-0.000803	0.000000	0.000000
66.489286	20.135402	15.274302	-1.921607	1.806675	2.639657	0.000000	0.245245	0.000000	-0.004914	-0.000650	0.000000	0.000000
67.038346	21.934649	13.623619	-1.336533	1.217668	2.752945	0.000000	0.165745	0.000000	-0.005227	-0.000486	0.000000	0.000000
67.587406	23.035555	12.568566	-0.657084	0.715382	2.821622	0.000000	0.083298	0.000000	-0.005446	-0.000313	0.000000	0.000000
68.136466	23.360395	12.033999	0.068760	0.264044	2.844467	0.000000	-0.000631	0.000000	-0.005569	-0.000135	0.000000	0.000000
68.435038	23.361254	11.864745	-0.007865	0.269957	2.846642	0.000000	0.007143	0.000000	-0.005614	-0.000150	0.000000	0.000000
68.768372	23.371254	11.694821	-0.022134	0.239815	2.849073	0.000000	0.007143	0.000000	-0.005664	-0.000150	0.000000	0.000000
69.101705	23.390766	11.544992	-0.036404	0.209673	2.851504	0.000000	0.007143	0.000000	-0.005714	-0.000150	0.000000	0.000000
69.436288	23.419919	11.414808	-0.050727	0.179418	2.853944	0.000000	0.007143	0.000000	-0.005764	-0.000150	0.000000	0.000000
69.733611	23.453891	11.316100	-0.127671	0.183490	2.856113	0.000000	0.014963	0.000000	-0.005808	-0.000165	0.000000	0.000000
70.282671	23.191316	11.341405	0.603058	-0.229854	2.841166	0.000000	-0.069471	0.000000	-0.005847	0.000024	0.000000	0.000000
