#ParticleID	Turn	x[m]	xp	y[m]	yp	z[m]	dE[GeV]# s	beta_x	beta_y	alpha_x	alpha_y	D_x	D_y	D_px	D_py	orbit_x	orbit_px	orbit_y	orbit_py
0.300000	11.869181	25.054714	-0.016160	-0.025831	2.613196	0.000000	0.000235	0.000000	-0.000198	0.000173	0.000000	0.000000
0.601250	11.886566	25.073902	-0.041547	-0.037863	2.613214	0.000000	0.000235	0.000000	-0.000145	0.000173	0.000000	0.000000
0.898573	11.918721	25.099948	-0.037350	-0.111283	2.613233	0.000000	-0.006179	0.000000	-0.000094	0.000174	0.000000	0.000000
1.339533	12.104469	24.919651	-0.385424	0.518601	2.626700	0.000000	0.067652	0.000000	-0.000018	0.000172	0.000000	0.000000
1.780493	12.603767	24.192169	-0.751109	1.124889	2.672863	0.000000	0.142252	0.000000	0.000058	0.000173	0.000000	0.000000
2.221453	13.439430	22.950600	-1.151111	1.679997	2.752246	0.000000	0.218471	0.000000	0.000135	0.000175	0.000000	0.000000
2.662413	14.649637	21.251434	-1.603706	2.158666	2.865752	0.000000	0.297175	0.000000	0.000213	0.000180	0.000000	0.000000
3.108373	16.310589	19.147066	-2.133894	2.540256	3.016534	0.000000	0.379753	0.000000	0.000295	0.000186	0.000000	0.000000
3.657433	18.440258	16.783526	-1.721791	1.789835	3.199724	0.000000	0.286895	0.000000	0.000394	0.000175	0.000000	0.000000
4.206493	20.047518	15.169617	-1.188063	1.166902	3.330463	0.000000	0.188950	0.000000	0.000487	0.000161	0.000000	0.000000
4.755553	21.018832	14.190384	-0.570412	0.627084	3.406433	0.000000	0.087657	0.000000	0.000571	0.000144	0.000000	0.000000
5.304613	21.285587	13.776080	0.087535	0.131933	3.426287	0.000000	-0.015188	0.000000	0.000644	0.000124	0.000000	0.000000
5.603185	21.270539	13.682587	0.018179	0.145425	3.424373	0.000000	-0.006284	0.000000	0.000682	0.000126	0.000000	0.000000
5.936519	21.263645	13.593929	0.002502	0.120548	3.422236	0.000000	-0.006284	0.000000	0.000724	0.000126	0.000000	0.000000
6.269852	21.267202	13.521856	-0.013174	0.095671	3.420100	0.000000	-0.006284	0.000000	0.000766	0.000126	0.000000	0.000000
6.604435	21.281283	13.466191	-0.028909	0.070701	3.417955	0.000000	-0.006284	0.000000	0.000808	0.000126	0.000000	0.000000
6.901758	21.302631	13.430747	-0.098156	0.083379	3.416049	0.000000	0.002578	0.000000	0.000845	0.000128	0.000000	0.000000
7.450818	21.047197	13.600005	0.560687	-0.393463	3.389252	0.000000	-0.099824	0.000000	0.000908	0.000100	0.000000	0.000000
7.999878	20.085819	14.305125	1.179927	-0.898332	3.306650	0.000000	-0.200454	0.000000	0.000954	0.000069	0.000000	0.000000
8.548938	18.486406	15.596334	1.715821	-1.467188	3.169707	0.000000	-0.297528	0.000000	0.000984	0.000038	0.000000	0.000000
9.097998	16.361937	17.565603	2.130513	-2.140553	2.980854	0.000000	-0.389323	0.000000	0.000996	0.000006	0.000000	0.000000
9.543958	14.704266	19.320316	1.599755	-1.777456	2.825504	0.000000	-0.307725	0.000000	0.001004	0.000032	0.000000	0.000000
9.984918	13.497878	20.697932	1.146425	-1.334741	2.707012	0.000000	-0.230120	0.000000	0.001024	0.000058	0.000000	0.000000
10.425878	12.666779	21.656730	0.745473	-0.831295	2.622119	0.000000	-0.155137	0.000000	0.001056	0.000085	0.000000	0.000000
10.866838	12.172997	22.153084	0.378581	-0.290024	2.569860	0.000000	-0.081922	0.000000	0.001099	0.000113	0.000000	0.000000
11.309048	11.993828	22.163879	0.057971	0.210582	2.549617	0.000000	-0.015824	0.000000	0.001155	0.000139	0.000000	0.000000
11.606371	11.966750	22.042823	0.033098	0.196572	2.544871	0.000000	-0.015824	0.000000	0.001197	0.000139	0.000000	0.000000
12.086371	11.954251	21.864970	-0.007057	0.173955	2.537208	0.000000	-0.015824	0.000000	0.001263	0.000139	0.000000	0.000000
12.566371	11.980299	21.708829	-0.047212	0.151338	2.529546	0.000000	-0.015824	0.000000	0.001330	0.000139	0.000000	0.000000
13.046371	12.044897	21.574401	-0.087367	0.128721	2.521884	0.000000	-0.015824	0.000000	0.001397	0.000139	0.000000	0.000000
13.526371	12.148044	21.461686	-0.127522	0.106103	2.514221	0.000000	-0.015824	0.000000	0.001463	0.000139	0.000000	0.000000
14.007621	12.290159	21.370474	-0.167782	0.083427	2.506539	0.000000	-0.015824	0.000000	0.001530	0.000139	0.000000	0.000000
14.304943	12.397324	21.325031	-0.162706	0.017944	2.501793	0.000000	-0.021868	0.000000	0.001572	0.000135	0.000000	0.000000
14.745903	12.699707	21.075834	-0.525562	0.545017	2.507702	0.000000	0.048996	0.000000	0.001640	0.000176	0.000000	0.000000
15.186863	13.331457	20.370990	-0.912433	1.047293	2.544936	0.000000	0.120416	0.000000	0.001727	0.000220	0.000000	0.000000
15.627823	14.321440	19.242568	-1.340995	1.501915	2.613916	0.000000	0.193206	0.000000	0.001834	0.000266	0.000000	0.000000
16.068783	15.714895	17.741912	-1.830831	1.888199	2.715429	0.000000	0.268193	0.000000	0.001962	0.000315	0.000000	0.000000
16.514743	17.599129	15.915805	-2.409122	2.189349	2.852324	0.000000	0.346702	0.000000	0.002114	0.000368	0.000000	0.000000
17.063803	20.018628	13.876922	-1.971092	1.545859	3.018800	0.000000	0.259430	0.000000	0.002297	0.000296	0.000000	0.000000
17.612863	21.877315	12.480434	-1.393815	1.012484	3.136063	0.000000	0.167560	0.000000	0.002439	0.000219	0.000000	0.000000
18.161923	23.043877	11.626871	-0.718070	0.551229	3.202033	0.000000	0.072723	0.000000	0.002537	0.000139	0.000000	0.000000
18.710983	23.435896	11.255432	0.008405	0.129239	3.215542	0.000000	-0.023403	0.000000	0.002591	0.000056	0.000000	0.000000
19.009556	23.470452	11.169206	-0.064264	0.130807	3.210989	0.000000	-0.015185	0.000000	0.002609	0.000062	0.000000	0.000000
19.342889	23.518049	11.092120	-0.078525	0.100452	3.205907	0.000000	-0.015185	0.000000	0.002630	0.000062	0.000000	0.000000
19.676223	23.575152	11.035270	-0.092786	0.070097	3.200824	0.000000	-0.015185	0.000000	0.002651	0.000062	0.000000	0.000000
20.010806	23.642324	10.998421	-0.224238	0.094122	3.195743	0.000000	0.000648	0.000000	0.002672	0.000076	0.000000	0.000000
20.308129	23.779598	10.950558	-0.298165	0.094823	3.195913	0.000000	0.008809	0.000000	0.002694	0.000083	0.000000	0.000000
20.857189	23.696936	11.068149	0.447846	-0.310246	3.174517	0.000000	-0.086553	0.000000	0.002716	-0.000005	0.000000	0.000000
21.406249	22.807597	11.640025	1.162218	-0.737416	3.101151	0.000000	-0.180380	0.000000	0.002689	-0.000093	0.000000	0.000000
21.955309	21.174412	12.706922	1.794487	-1.217114	2.977115	0.000000	-0.271009	0.000000	0.002614	-0.000178	0.000000	0.000000
22.504369	18.912761	14.344836	2.299983	-1.783510	2.804609	0.000000	-0.356833	0.000000	0.002493	-0.000261	0.000000	0.000000
22.950329	17.131083	15.815516	1.709044	-1.500268	2.662863	0.000000	-0.279624	0.000000	0.002391	-0.000198	0.000000	0.000000
23.391289	15.852665	16.988530	1.200950	-1.149656	2.555949	0.000000	-0.206060	0.000000	0.002317	-0.000137	0.000000	0.000000
23.832249	14.996573	17.827983	0.747731	-0.746732	2.480902	0.000000	-0.134842	0.000000	0.002270	-0.000078	0.000000	0.000000
24.273209	14.523690	18.295679	0.328678	-0.309831	2.436867	0.000000	-0.065159	0.000000	0.002248	-0.000020	0.000000	0.000000
24.715418	14.412509	18.370094	-0.040857	0.097006	2.423340	0.000000	-0.002034	0.000000	0.002252	0.000033	0.000000	0.000000
25.012741	14.442949	18.317267	-0.061521	0.080668	2.422726	0.000000	-0.002034	0.000000	0.002262	0.000033	0.000000	0.000000
25.346075	14.491685	18.269594	-0.084688	0.062352	2.422037	0.000000	-0.002034	0.000000	0.002273	0.000033	0.000000	0.000000
25.679408	14.555866	18.234131	-0.107854	0.044036	2.421348	0.000000	-0.002034	0.000000	0.002284	0.000033	0.000000	0.000000
26.013991	14.635522	18.211185	-0.012375	-0.122087	2.420632	0.000000	-0.021671	0.000000	0.002295	0.000014	0.000000	0.000000
26.311314	14.648919	18.288712	0.002445	-0.182523	2.414184	0.000000	-0.027462	0.000000	0.002299	0.000009	0.000000	0.000000
26.752274	14.827412	18.251366	-0.408734	0.266891	2.417174	0.000000	0.041107	0.000000	0.002316	0.000068	0.000000	0.000000
27.193234	15.375390	17.821521	-0.838589	0.704161	2.450449	0.000000	0.110143	0.000000	0.002359	0.000128	0.000000	0.000000
27.634194	16.317892	17.018735	-1.306762	1.109391	2.514389	0.000000	0.180433	0.000000	0.002429	0.000190	0.000000	0.000000
28.075154	17.697987	15.879535	-1.834645	1.464141	2.609722	0.000000	0.252776	0.000000	0.002527	0.000254	0.000000	0.000000
28.521114	19.602753	14.438580	-2.451356	1.753230	2.739138	0.000000	0.328448	0.000000	0.002655	0.000321	0.000000	0.000000
29.070174	22.024000	12.833156	-1.932004	1.187868	2.896655	0.000000	0.244988	0.000000	0.002807	0.000233	0.000000	0.000000
29.619234	23.796106	11.798757	-1.276162	0.707121	3.007133	0.000000	0.157185	0.000000	0.002910	0.000140	0.000000	0.000000
30.168294	24.793872	11.261704	-0.530165	0.276744	3.068613	0.000000	0.066597	0.000000	0.002961	0.000045	0.000000	0.000000
30.717354	24.946806	11.183741	0.253286	-0.133919	3.080004	0.000000	-0.025172	0.000000	0.002959	-0.000051	0.000000	0.000000
31.015927	24.837203	11.254755	0.177335	-0.132414	3.074843	0.000000	-0.017326	0.000000	0.002946	-0.000043	0.000000	0.000000
31.349260	24.723594	11.353076	0.163492	-0.162550	3.069083	0.000000	-0.017326	0.000000	0.002931	-0.000043	0.000000	0.000000
31.682593	24.619214	11.471488	0.149649	-0.192687	3.063322	0.000000	-0.017326	0.000000	0.002917	-0.000043	0.000000	0.000000
32.017177	24.523723	11.610549	0.135754	-0.222936	3.057539	0.000000	-0.017326	0.000000	0.002902	-0.000043	0.000000	0.000000
32.314499	24.446674	11.751106	0.061091	-0.219868	3.052401	0.000000	-0.009545	0.000000	0.002889	-0.000036	0.000000	0.000000
32.863559	23.960903	12.231739	0.818311	-0.660638	3.022294	0.000000	-0.100116	0.000000	0.002844	-0.000129	0.000000	0.000000
33.412619	22.670526	13.219256	1.517721	-1.148467	2.942918	0.000000	-0.188914	0.000000	0.002748	-0.000219	0.000000	0.000000
33.961679	20.666711	14.783998	2.109908	-1.718103	2.815681	0.000000	-0.274363	0.000000	0.002604	-0.000306	0.000000	0.000000
34.510739	18.091027	17.037422	2.553039	-2.410125	2.642838	0.000000	-0.354951	0.000000	0.002413	-0.000387	0.000000	0.000000
34.956699	16.088913	19.053048	1.952195	-2.090622	2.501053	0.000000	-0.281940	0.000000	0.002254	-0.000327	0.000000	0.000000
35.397659	14.596187	20.720723	1.445584	-1.676788	2.392250	0.000000	-0.212573	0.000000	0.002122	-0.000270	0.000000	0.000000
35.838619	13.519575	21.988249	1.005027	-1.186657	2.313451	0.000000	-0.145625	0.000000	0.002015	-0.000217	0.000000	0.000000
36.279579	12.809881	22.797952	0.610392	-0.642532	2.263759	0.000000	-0.080332	0.000000	0.001931	-0.000166	0.000000	0.000000
36.721789	12.433992	23.113301	0.273492	-0.124861	2.242584	0.000000	-0.021355	0.000000	0.001868	-0.000122	0.000000	0.000000
37.019112	12.279003	23.191433	0.247791	-0.137925	2.236271	0.000000	-0.021355	0.000000	0.001832	-0.000122	0.000000	0.000000
37.352445	12.123413	23.288266	0.218978	-0.152572	2.229193	0.000000	-0.021355	0.000000	0.001791	-0.000122	0.000000	0.000000
37.685779	11.987033	23.394862	0.190164	-0.167218	2.222115	0.000000	-0.021355	0.000000	0.001750	-0.000122	0.000000	0.000000
38.020362	11.869458	23.511678	0.161243	-0.181920	2.215011	0.000000	-0.021355	0.000000	0.001710	-0.000122	0.000000	0.000000
38.317684	11.781216	23.623742	0.163974	-0.252038	2.208698	0.000000	-0.026685	0.000000	0.001673	-0.000126	0.000000	0.000000
38.758644	11.787072	23.584329	-0.177339	0.341077	2.210921	0.000000	0.036575	0.000000	0.001627	-0.000083	0.000000	0.000000
39.199604	12.096373	23.026694	-0.526753	0.918673	2.241087	0.000000	0.100253	0.000000	0.001600	-0.000042	0.000000	0.000000
39.640564	12.723250	21.976213	-0.900235	1.454467	2.299541	0.000000	0.165073	0.000000	0.001590	-0.000001	0.000000	0.000000
40.081524	13.696348	20.480684	-1.314849	1.924081	2.386948	0.000000	0.231774	0.000000	0.001599	0.000040	0.000000	0.000000
40.527484	15.077668	18.585546	-1.793386	2.307473	2.505779	0.000000	0.301524	0.000000	0.001626	0.000082	0.000000	0.000000
41.076544	16.841357	16.455778	-1.399694	1.594268	2.650742	0.000000	0.225832	0.000000	0.001657	0.000029	0.000000	0.000000
41.625604	18.115513	15.042629	-0.907126	0.994624	2.753010	0.000000	0.146134	0.000000	0.001658	-0.000025	0.000000	0.000000
42.174664	18.810128	14.245440	-0.350480	0.465828	2.810768	0.000000	0.063844	0.000000	0.001630	-0.000078	0.000000	0.000000
42.723724	18.876134	14.007426	0.230923	-0.029785	2.822993	0.000000	-0.019580	0.000000	0.001573	-0.000130	0.000000	0.000000
43.022297	18.772179	14.009996	0.165913	-0.014961	2.819358	0.000000	-0.012301	0.000000	0.001535	-0.000126	0.000000	0.000000
43.502297	18.625514	14.040808	0.139639	-0.049230	2.813514	0.000000	-0.012301	0.000000	0.001475	-0.000126	0.000000	0.000000
43.982297	18.504071	14.104518	0.113366	-0.083499	2.807669	0.000000	-0.012301	0.000000	0.001415	-0.000126	0.000000	0.000000
44.462297	18.407852	14.201126	0.087092	-0.117768	2.801825	0.000000	-0.012301	0.000000	0.001354	-0.000126	0.000000	0.000000
44.942297	18.336855	14.330632	0.060818	-0.152037	2.795981	0.000000	-0.012301	0.000000	0.001294	-0.000126	0.000000	0.000000
45.423547	18.291221	14.493322	-0.056149	-0.114586	2.790138	0.000000	0.001523	0.000000	0.001233	-0.000120	0.000000	0.000000
45.720870	18.329459	14.567639	-0.119864	-0.097715	2.790627	0.000000	0.008741	0.000000	0.001198	-0.000117	0.000000	0.000000
46.269930	18.152387	14.956643	0.440379	-0.614946	2.772881	0.000000	-0.073544	0.000000	0.001124	-0.000154	0.000000	0.000000
46.818990	17.373602	15.934214	0.969512	-1.175980	2.710266	0.000000	-0.154527	0.000000	0.001029	-0.000189	0.000000	0.000000
47.368050	16.048121	17.569980	1.430157	-1.820777	2.603891	0.000000	-0.232772	0.000000	0.000917	-0.000221	0.000000	0.000000
47.917110	14.269579	19.980453	1.789775	-2.595266	2.455642	0.000000	-0.306891	0.000000	0.000788	-0.000248	0.000000	0.000000
48.363070	12.885091	22.123477	1.325615	-2.189911	2.334200	0.000000	-0.238480	0.000000	0.000681	-0.000229	0.000000	0.000000
48.804030	11.896017	23.839238	0.925797	-1.686212	2.243616	0.000000	-0.173182	0.000000	0.000584	-0.000213	0.000000	0.000000
49.244990	11.239644	25.075112	0.568278	-1.105792	2.181359	0.000000	-0.109854	0.000000	0.000493	-0.000199	0.000000	0.000000
49.685950	10.885983	25.774871	0.236725	-0.475058	2.146720	0.000000	-0.047776	0.000000	0.000408	-0.000187	0.000000	0.000000
50.128160	10.819016	25.906392	-0.057679	0.113973	2.139316	0.000000	0.008530	0.000000	0.000328	-0.000179	0.000000	0.000000
50.425482	10.861513	25.842075	-0.085252	0.102347	2.141905	0.000000	0.008530	0.000000	0.000275	-0.000179	0.000000	0.000000
50.758816	10.928652	25.778188	-0.116165	0.089313	2.144808	0.000000	0.008530	0.000000	0.000215	-0.000179	0.000000	0.000000
51.092149	11.016399	25.722991	-0.147077	0.076279	2.147711	0.000000	0.008530	0.000000	0.000156	-0.000179	0.000000	0.000000
51.426732	11.124974	25.676846	-0.087852	-0.145107	2.150603	0.000000	-0.008917	0.000000	0.000096	-0.000179	0.000000	0.000000
51.724055	11.185223	25.766648	-0.087366	-0.220158	2.148005	0.000000	-0.014182	0.000000	0.000043	-0.000179	0.000000	0.000000
52.165015	11.408171	25.674126	-0.420208	0.429179	2.155438	0.000000	0.047578	0.000000	-0.000036	-0.000179	0.000000	0.000000
52.605975	11.931981	25.015397	-0.772246	1.058988	2.190199	0.000000	0.109882	0.000000	-0.000116	-0.000181	0.000000	0.000000
53.046935	12.780582	23.820436	-1.159564	1.640614	2.252684	0.000000	0.173440	0.000000	-0.000197	-0.000185	0.000000	0.000000
53.487895	13.992743	22.143613	-1.599858	2.147593	2.343607	0.000000	0.238975	0.000000	-0.000280	-0.000192	0.000000	0.000000
53.933855	15.644597	20.036157	-2.117495	2.558187	2.465510	0.000000	0.307632	0.000000	-0.000367	-0.000200	0.000000	0.000000
54.482915	17.771122	17.664693	-1.732723	1.786469	2.614301	0.000000	0.233187	0.000000	-0.000473	-0.000186	0.000000	0.000000
55.031975	19.405009	16.066237	-1.225567	1.141997	2.721012	0.000000	0.154604	0.000000	-0.000571	-0.000169	0.000000	0.000000
55.581035	20.430854	15.126933	-0.631847	0.578865	2.783748	0.000000	0.073276	0.000000	-0.000658	-0.000149	0.000000	0.000000
56.130095	20.776204	14.779875	0.006498	0.056965	2.801395	0.000000	-0.009355	0.000000	-0.000734	-0.000127	0.000000	0.000000
56.428668	20.809239	14.728728	-0.062524	0.075460	2.800839	0.000000	-0.001990	0.000000	-0.000773	-0.000129	0.000000	0.000000
56.762001	20.856282	14.686009	-0.078605	0.052699	2.800218	0.000000	-0.001990	0.000000	-0.000816	-0.000129	0.000000	0.000000
57.095334	20.914046	14.658463	-0.094686	0.029939	2.799598	0.000000	-0.001990	0.000000	-0.000859	-0.000129	0.000000	0.000000
57.429918	20.982807	14.646073	-0.110828	0.007093	2.798975	0.000000	-0.001990	0.000000	-0.000902	-0.000129	0.000000	0.000000
57.727240	21.052976	14.647890	-0.180611	0.025337	2.798422	0.000000	0.005379	0.000000	-0.000940	-0.000131	0.000000	0.000000
58.276300	20.891871	14.901280	0.472229	-0.489565	2.778758	0.000000	-0.077122	0.000000	-0.001004	-0.000100	0.000000	0.000000
58.825360	20.028045	15.735801	1.091713	-1.039336	2.714090	0.000000	-0.158256	0.000000	-0.001049	-0.000067	0.000000	0.000000
59.374420	18.522515	17.210890	1.634085	-1.663135	2.605562	0.000000	-0.236585	0.000000	-0.001077	-0.000032	0.000000	0.000000
59.923480	16.481616	19.431612	2.061039	-2.405391	2.455100	0.000000	-0.310718	0.000000	-0.001085	0.000003	0.000000	0.000000
60.369440	14.883758	21.405399	1.534646	-2.001901	2.331847	0.000000	-0.242352	0.000000	-0.001090	-0.000025	0.000000	0.000000
60.810400	13.734041	22.959312	1.082574	-1.508679	2.239463	0.000000	-0.177141	0.000000	-0.001107	-0.000054	0.000000	0.000000
61.251360	12.959772	24.046206	0.679960	-0.946815	2.175375	0.000000	-0.113947	0.000000	-0.001137	-0.000082	0.000000	0.000000
61.692320	12.525579	24.616627	0.308411	-0.341874	2.138853	0.000000	-0.052050	0.000000	-0.001180	-0.000112	0.000000	0.000000
62.134530	12.411671	24.644081	-0.018357	0.217478	2.129486	0.000000	0.003973	0.000000	-0.001236	-0.000140	0.000000	0.000000
62.431853	12.429712	24.518515	-0.042320	0.204843	2.130709	0.000000	0.003973	0.000000	-0.001278	-0.000140	0.000000	0.000000
62.765186	12.466880	24.386675	-0.069186	0.190677	2.132080	0.000000	0.003973	0.000000	-0.001325	-0.000140	0.000000	0.000000
63.098520	12.521959	24.264279	-0.096051	0.176512	2.133452	0.000000	0.003973	0.000000	-0.001372	-0.000140	0.000000	0.000000
63.433103	12.595256	24.150920	-0.123017	0.162293	2.134828	0.000000	0.003973	0.000000	-0.001419	-0.000140	0.000000	0.000000
63.730426	12.675532	24.058172	-0.115469	0.089801	2.136051	0.000000	-0.001337	0.000000	-0.001460	-0.000137	0.000000	0.000000
64.171386	12.938483	23.714049	-0.483180	0.687642	2.149079	0.000000	0.060184	0.000000	-0.001529	-0.000175	0.000000	0.000000
64.612346	13.534182	22.854525	-0.872962	1.254195	2.189378	0.000000	0.122394	0.000000	-0.001615	-0.000216	0.000000	0.000000
65.053306	14.489839	21.518708	-1.302624	1.763686	2.257408	0.000000	0.185999	0.000000	-0.001720	-0.000259	0.000000	0.000000
65.494266	15.849108	19.767377	-1.791792	2.192934	2.353943	0.000000	0.251725	0.000000	-0.001844	-0.000305	0.000000	0.000000
65.940226	17.697279	17.655437	-2.367469	2.523118	2.481657	0.000000	0.320718	0.000000	-0.001991	-0.000355	0.000000	0.000000
66.489286	20.065530	15.292928	-1.920584	1.805232	2.637534	0.000000	0.245640	0.000000	-0.002168	-0.000287	0.000000	0.000000
67.038346	21.865232	13.643918	-1.338057	1.215923	2.750893	0.000000	0.166200	0.000000	-0.002306	-0.000215	0.000000	0.000000
67.587406	22.969287	12.590956	-0.661030	0.713216	2.819720	0.000000	0.083810	0.000000	-0.002403	-0.000138	0.000000	0.000000
68.136466	23.299725	12.059042	0.062681	0.261307	2.842795	0.000000	-0.000070	0.000000	-0.002457	-0.000060	0.000000	0.000000
68.435038	23.303214	11.891829	-0.012257	0.266578	2.845056	0.000000	0.007510	0.000000	-0.002477	-0.000066	0.000000	0.000000
68.768372	23.316154	11.724118	-0.026563	0.236556	2.847582	0.000000	0.007510	0.000000	-0.002499	-0.000066	0.000000	0.000000
69.101705	23.338632	11.576421	-0.040870	0.206533	2.850107	0.000000	0.007510	0.000000	-0.002521	-0.000066	0.000000	0.000000
69.436288	23.370785	11.448299	-0.055230	0.176398	2.852642	0.000000	0.007510	0.000000	-0.002543	-0.000066	0.000000	0.000000
69.733611	23.407426	11.351364	-0.130454	0.179899	2.854895	0.000000	0.015128	0.000000	-0.002563	-0.000073	0.000000	0.000000
70.282671	23.148691	11.381177	0.598893	-0.234521	2.840025	0.000000	-0.069276	0.000000	-0.002580	0.000010	0.000000	0.000000
