#ParticleID	Turn	x[m]	xp	y[m]	yp	z[m]	dE[GeV]# s	beta_x	beta_y	alpha_x	alpha_y	D_x	D_y	D_px	D_py	orbit_x	orbit_px	orbit_y	orbit_py
0.300000	11.965556	25.316780	-0.018862	-0.022118	2.598446	0.000000	0.000020	0.000000	-0.001011	0.000871	0.000000	0.000000
0.601250	11.984507	25.333692	-0.044047	-0.034023	2.598189	0.000000	0.000020	0.000000	-0.000748	0.000871	0.000000	0.000000
0.898573	12.018090	25.357418	-0.039296	-0.107928	2.597936	0.000000	-0.006380	0.000000	-0.000489	0.000873	0.000000	0.000000
1.339533	12.206674	25.171172	-0.389694	0.528685	2.610932	0.000000	0.067050	0.000000	-0.000106	0.000865	0.000000	0.000000
1.780493	12.710942	24.431985	-0.757903	1.141247	2.656444	0.000000	0.141235	0.000000	0.000275	0.000867	0.000000	0.000000
2.221453	13.553942	23.173479	-1.160746	1.701886	2.734988	0.000000	0.217019	0.000000	0.000660	0.000879	0.000000	0.000000
2.662413	14.774199	21.452908	-1.616629	2.185092	2.847454	0.000000	0.295266	0.000000	0.001052	0.000901	0.000000	0.000000
3.108373	16.448552	19.323340	-2.150757	2.570052	2.996964	0.000000	0.377356	0.000000	0.001461	0.000934	0.000000	0.000000
3.657433	18.594778	16.931105	-1.734456	1.812523	3.178638	0.000000	0.285151	0.000000	0.001959	0.000878	0.000000	0.000000
4.206493	20.213454	15.295383	-1.195614	1.184100	3.308259	0.000000	0.187902	0.000000	0.002422	0.000807	0.000000	0.000000
4.755553	21.190210	14.299672	-0.572295	0.640019	3.383532	0.000000	0.087333	0.000000	0.002843	0.000722	0.000000	0.000000
5.304613	21.456023	13.873057	0.091469	0.141526	3.403129	0.000000	-0.014775	0.000000	0.003213	0.000624	0.000000	0.000000
5.603185	21.438125	13.774193	0.022995	0.154472	3.401111	0.000000	-0.006124	0.000000	0.003402	0.000632	0.000000	0.000000
5.936519	21.427981	13.679471	0.007438	0.129694	3.398859	0.000000	-0.006124	0.000000	0.003612	0.000632	0.000000	0.000000
6.269852	21.428207	13.601267	-0.008119	0.104917	3.396607	0.000000	-0.006124	0.000000	0.003823	0.000632	0.000000	0.000000
6.604435	21.438865	13.539382	-0.023734	0.080047	3.394347	0.000000	-0.006124	0.000000	0.004035	0.000632	0.000000	0.000000
6.901758	21.457115	13.498346	-0.091666	0.092078	3.392339	0.000000	0.002422	0.000000	0.004222	0.000643	0.000000	0.000000
7.450818	21.191893	13.659084	0.572173	-0.386538	3.365424	0.000000	-0.099221	0.000000	0.004537	0.000501	0.000000	0.000000
7.999878	20.215573	14.357382	1.195599	-0.892692	3.283178	0.000000	-0.199095	0.000000	0.004771	0.000350	0.000000	0.000000
8.548938	18.597127	15.642990	1.734564	-1.462440	3.147063	0.000000	-0.295432	0.000000	0.004921	0.000193	0.000000	0.000000
9.097998	16.450899	17.607495	2.150987	-2.136370	2.959497	0.000000	-0.386525	0.000000	0.004983	0.000033	0.000000	0.000000
9.543958	14.776533	19.357715	1.616678	-1.771379	2.805236	0.000000	-0.305444	0.000000	0.005026	0.000163	0.000000	0.000000
9.984918	13.556402	20.729359	1.160699	-1.327144	2.687553	0.000000	-0.228342	0.000000	0.005127	0.000294	0.000000	0.000000
10.425878	12.713634	21.680965	0.757759	-0.822516	2.603210	0.000000	-0.153845	0.000000	0.005286	0.000428	0.000000	0.000000
10.866838	12.209715	22.169228	0.389442	-0.280456	2.551242	0.000000	-0.081105	0.000000	0.005505	0.000567	0.000000	0.000000
11.309048	12.021466	22.171344	0.066659	0.222733	2.531039	0.000000	-0.015157	0.000000	0.005787	0.000699	0.000000	0.000000
11.606371	11.989214	22.043082	0.041816	0.208658	2.526324	0.000000	-0.015157	0.000000	0.005995	0.000699	0.000000	0.000000
12.086371	11.968321	21.853678	0.001710	0.185934	2.518714	0.000000	-0.015157	0.000000	0.006331	0.000699	0.000000	0.000000
12.566371	11.985931	21.686088	-0.038396	0.163211	2.511103	0.000000	-0.015157	0.000000	0.006666	0.000699	0.000000	0.000000
13.046371	12.042042	21.540313	-0.078502	0.140487	2.503493	0.000000	-0.015157	0.000000	0.007001	0.000699	0.000000	0.000000
13.526371	12.136655	21.416353	-0.118608	0.117763	2.495882	0.000000	-0.015157	0.000000	0.007337	0.000699	0.000000	0.000000
14.007621	12.270167	21.313970	-0.158819	0.094981	2.488252	0.000000	-0.015157	0.000000	0.007673	0.000699	0.000000	0.000000
14.304943	12.371971	21.261714	-0.155631	0.032933	2.483535	0.000000	-0.020784	0.000000	0.007881	0.000680	0.000000	0.000000
14.745903	12.667929	21.000106	-0.517726	0.558009	2.489556	0.000000	0.049623	0.000000	0.008226	0.000888	0.000000	0.000000
15.186863	13.292497	20.284837	-0.903490	1.057693	2.526629	0.000000	0.120586	0.000000	0.008665	0.001105	0.000000	0.000000
15.627823	14.274236	19.148449	-1.330557	1.509245	2.595174	0.000000	0.192910	0.000000	0.009203	0.001336	0.000000	0.000000
16.068783	15.658038	17.642650	-1.818450	1.892112	2.695968	0.000000	0.267419	0.000000	0.009845	0.001581	0.000000	0.000000
16.514743	17.530817	15.814327	-2.394425	2.189815	2.831846	0.000000	0.345450	0.000000	0.010609	0.001847	0.000000	0.000000
17.063803	19.935446	13.773650	-1.957577	1.548209	2.997131	0.000000	0.258834	0.000000	0.011526	0.001488	0.000000	0.000000
17.612863	21.780941	12.373274	-1.382357	1.016909	3.113724	0.000000	0.167650	0.000000	0.012239	0.001103	0.000000	0.000000
18.161923	22.936819	11.513443	-0.709418	0.558062	3.179565	0.000000	0.073508	0.000000	0.012734	0.000698	0.000000	0.000000
18.710983	23.321351	11.132904	0.013673	0.138976	3.193492	0.000000	-0.021926	0.000000	0.013003	0.000281	0.000000	0.000000
19.009556	23.349185	11.042810	-0.053218	0.137193	3.189054	0.000000	-0.014522	0.000000	0.013097	0.000313	0.000000	0.000000
19.342889	23.389436	10.961600	-0.067535	0.106439	3.184109	0.000000	-0.014522	0.000000	0.013201	0.000313	0.000000	0.000000
19.676223	23.439231	10.900891	-0.081851	0.075686	3.179164	0.000000	-0.014522	0.000000	0.013306	0.000313	0.000000	0.000000
20.010806	23.499102	10.860438	-0.212649	0.098626	3.174220	0.000000	0.001205	0.000000	0.013411	0.000380	0.000000	0.000000
20.308129	23.629612	10.809952	-0.280362	0.095978	3.174474	0.000000	0.008525	0.000000	0.013524	0.000413	0.000000	0.000000
20.857189	23.530150	10.924177	0.460535	-0.305204	3.153020	0.000000	-0.086173	0.000000	0.013630	-0.000027	0.000000	0.000000
21.406249	22.629908	11.488321	1.168882	-0.728134	3.080136	0.000000	-0.179342	0.000000	0.013494	-0.000466	0.000000	0.000000
21.955309	20.992533	12.542575	1.794607	-1.202945	2.957114	0.000000	-0.269337	0.000000	0.013119	-0.000898	0.000000	0.000000
22.504369	18.733790	14.162050	2.293480	-1.763467	2.786134	0.000000	-0.354567	0.000000	0.012511	-0.001313	0.000000	0.000000
22.950329	16.955789	15.617004	1.706020	-1.484592	2.645674	0.000000	-0.277770	0.000000	0.011997	-0.000995	0.000000	0.000000
23.391289	15.678140	16.778616	1.201517	-1.139219	2.539757	0.000000	-0.204619	0.000000	0.011625	-0.000690	0.000000	0.000000
23.832249	14.819754	17.611465	0.751943	-0.741998	2.465433	0.000000	-0.133793	0.000000	0.011386	-0.000394	0.000000	0.000000
24.273209	14.341380	18.077647	0.336743	-0.311006	2.421856	0.000000	-0.064486	0.000000	0.011277	-0.000102	0.000000	0.000000
24.715418	14.221277	18.155644	-0.032111	0.094395	2.408534	0.000000	-0.001170	0.000000	0.011297	0.000163	0.000000	0.000000
25.012741	14.246594	18.104425	-0.053040	0.077873	2.408137	0.000000	-0.001170	0.000000	0.011345	0.000163	0.000000	0.000000
25.346075	14.289775	18.058684	-0.076503	0.059350	2.407693	0.000000	-0.001170	0.000000	0.011400	0.000163	0.000000	0.000000
25.679408	14.348599	18.025292	-0.099966	0.040826	2.407248	0.000000	-0.001170	0.000000	0.011454	0.000163	0.000000	0.000000
26.013991	14.423080	18.004558	-0.006508	-0.123828	2.406778	0.000000	-0.020696	0.000000	0.011509	0.000070	0.000000	0.000000
26.311314	14.433023	18.083248	0.004296	-0.179950	2.400599	0.000000	-0.025922	0.000000	0.011529	0.000043	0.000000	0.000000
26.752274	14.607701	18.046070	-0.401786	0.263926	2.404130	0.000000	0.042321	0.000000	0.011614	0.000342	0.000000	0.000000
27.193234	15.147344	17.621186	-0.826236	0.695790	2.437708	0.000000	0.111042	0.000000	0.011831	0.000644	0.000000	0.000000
27.634194	16.076631	16.827929	-1.288461	1.095987	2.501713	0.000000	0.181021	0.000000	0.012183	0.000953	0.000000	0.000000
28.075154	17.438061	15.702397	-1.809592	1.446302	2.596871	0.000000	0.253053	0.000000	0.012674	0.001274	0.000000	0.000000
28.521114	19.317829	14.278669	-2.418640	1.731953	2.725880	0.000000	0.328438	0.000000	0.013317	0.001611	0.000000	0.000000
29.070174	21.708346	12.693218	-1.907732	1.172100	2.882941	0.000000	0.245384	0.000000	0.014081	0.001167	0.000000	0.000000
29.619234	23.459764	11.673461	-1.261965	0.695761	2.993373	0.000000	0.157994	0.000000	0.014595	0.000702	0.000000	0.000000
30.168294	24.448242	11.146749	-0.526986	0.268999	3.055224	0.000000	0.067813	0.000000	0.014850	0.000225	0.000000	0.000000
30.717354	24.603883	11.075555	0.245245	-0.138596	3.067399	0.000000	-0.023568	0.000000	0.014841	-0.000256	0.000000	0.000000
31.015927	24.494454	11.151469	0.176702	-0.140661	3.062501	0.000000	-0.016590	0.000000	0.014776	-0.000220	0.000000	0.000000
31.349260	24.381331	11.255404	0.162669	-0.171143	3.057044	0.000000	-0.016590	0.000000	0.014703	-0.000220	0.000000	0.000000
31.682593	24.277563	11.379661	0.148635	-0.201626	3.051587	0.000000	-0.016590	0.000000	0.014630	-0.000220	0.000000	0.000000
32.017177	24.182814	11.524819	0.134549	-0.232223	3.046110	0.000000	-0.016590	0.000000	0.014556	-0.000220	0.000000	0.000000
32.314499	24.106675	11.670922	0.066986	-0.232796	3.041252	0.000000	-0.009645	0.000000	0.014491	-0.000184	0.000000	0.000000
32.863559	23.620353	12.164951	0.813038	-0.672104	3.011350	0.000000	-0.099891	0.000000	0.014262	-0.000650	0.000000	0.000000
33.412619	22.341324	13.164800	1.501611	-1.159302	2.932543	0.000000	-0.188374	0.000000	0.013779	-0.001104	0.000000	0.000000
33.961679	20.360032	14.741702	2.084030	-1.729103	2.806222	0.000000	-0.273532	0.000000	0.013052	-0.001539	0.000000	0.000000
34.510739	17.816569	17.007993	2.519128	-2.422102	2.634621	0.000000	-0.353862	0.000000	0.012094	-0.001947	0.000000	0.000000
34.956699	15.840572	19.035570	1.925836	-2.104577	2.493876	0.000000	-0.281008	0.000000	0.011294	-0.001643	0.000000	0.000000
35.397659	14.367720	20.716492	1.425762	-1.692276	2.385946	0.000000	-0.211800	0.000000	0.010632	-0.001360	0.000000	0.000000
35.838619	13.305740	21.998244	0.990869	-1.202959	2.307865	0.000000	-0.144992	0.000000	0.010092	-0.001093	0.000000	0.000000
36.279579	12.606066	22.822501	0.601275	-0.658896	2.258750	0.000000	-0.079823	0.000000	0.009666	-0.000839	0.000000	0.000000
36.721789	12.236069	23.152041	0.266348	-0.136343	2.238021	0.000000	-0.020546	0.000000	0.009350	-0.000615	0.000000	0.000000
37.019112	12.085423	23.237006	0.240326	-0.149424	2.232095	0.000000	-0.020546	0.000000	0.009167	-0.000615	0.000000	0.000000
37.352445	11.934931	23.341511	0.211151	-0.164089	2.225452	0.000000	-0.020546	0.000000	0.008962	-0.000615	0.000000	0.000000
37.685779	11.803888	23.455792	0.181977	-0.178754	2.218808	0.000000	-0.020546	0.000000	0.008757	-0.000615	0.000000	0.000000
38.020362	11.691913	23.580333	0.152693	-0.193475	2.212140	0.000000	-0.020546	0.000000	0.008551	-0.000615	0.000000	0.000000
38.317684	11.608829	23.699320	0.152839	-0.260185	2.206212	0.000000	-0.025519	0.000000	0.008368	-0.000635	0.000000	0.000000
38.758644	11.622770	23.666156	-0.184746	0.335099	2.209120	0.000000	0.037697	0.000000	0.008135	-0.000422	0.000000	0.000000
39.199604	11.937081	23.112685	-0.530771	0.915131	2.239887	0.000000	0.101347	0.000000	0.007995	-0.000214	0.000000	0.000000
39.640564	12.566125	22.064096	-0.901052	1.453516	2.298864	0.000000	0.166154	0.000000	0.007946	-0.000009	0.000000	0.000000
40.081524	13.538655	20.568111	-1.312514	1.925751	2.386724	0.000000	0.232854	0.000000	0.007987	0.000197	0.000000	0.000000
40.527484	14.916692	18.670065	-1.787916	2.311852	2.505953	0.000000	0.302636	0.000000	0.008121	0.000406	0.000000	0.000000
41.076544	16.677968	16.536633	-1.400395	1.596238	2.651417	0.000000	0.226914	0.000000	0.008271	0.000140	0.000000	0.000000
41.625604	17.956389	15.122428	-0.913921	0.994347	2.754274	0.000000	0.147169	0.000000	0.008274	-0.000128	0.000000	0.000000
42.174664	18.661608	14.326697	-0.362872	0.463299	2.812699	0.000000	0.064810	0.000000	0.008131	-0.000394	0.000000	0.000000
42.723724	18.743794	14.092748	0.213810	-0.034741	2.825653	0.000000	-0.018705	0.000000	0.007843	-0.000653	0.000000	0.000000
43.022297	18.648256	14.099252	0.151745	-0.021442	2.822311	0.000000	-0.011817	0.000000	0.007654	-0.000633	0.000000	0.000000
43.502297	18.515220	14.136185	0.125413	-0.055502	2.816943	0.000000	-0.011817	0.000000	0.007350	-0.000633	0.000000	0.000000
43.982297	18.407463	14.205816	0.099080	-0.089562	2.811574	0.000000	-0.011817	0.000000	0.007046	-0.000633	0.000000	0.000000
44.462297	18.324985	14.308144	0.072748	-0.123622	2.806206	0.000000	-0.011817	0.000000	0.006743	-0.000633	0.000000	0.000000
44.942297	18.267787	14.443170	0.046416	-0.157682	2.800837	0.000000	-0.011817	0.000000	0.006439	-0.000633	0.000000	0.000000
45.423547	18.236043	14.611193	-0.070337	-0.119438	2.795472	0.000000	0.002033	0.000000	0.006134	-0.000603	0.000000	0.000000
45.720870	18.282759	14.688337	-0.132072	-0.103769	2.796257	0.000000	0.008969	0.000000	0.005955	-0.000587	0.000000	0.000000
46.269930	18.119644	15.086115	0.427014	-0.624919	2.778869	0.000000	-0.073516	0.000000	0.005581	-0.000774	0.000000	0.000000
46.818990	17.355510	16.077161	0.955915	-1.190584	2.716573	0.000000	-0.154709	0.000000	0.005107	-0.000947	0.000000	0.000000
47.368050	16.044368	17.732062	1.417264	-1.841060	2.610467	0.000000	-0.233173	0.000000	0.004543	-0.001104	0.000000	0.000000
47.917110	14.278878	20.168688	1.778467	-2.622681	2.462425	0.000000	-0.307519	0.000000	0.003899	-0.001241	0.000000	0.000000
48.363070	12.903873	22.334524	1.315080	-2.213251	2.341151	0.000000	-0.238917	0.000000	0.003367	-0.001146	0.000000	0.000000
48.804030	11.923731	24.068777	0.915606	-1.704509	2.250789	0.000000	-0.173434	0.000000	0.002880	-0.001066	0.000000	0.000000
49.244990	11.276221	25.318286	0.557976	-1.118210	2.188813	0.000000	-0.109915	0.000000	0.002425	-0.000997	0.000000	0.000000
49.685950	10.931746	26.026205	0.225849	-0.481033	2.154521	0.000000	-0.047637	0.000000	0.001998	-0.000940	0.000000	0.000000
50.128160	10.874732	26.160042	-0.069805	0.115130	2.147539	0.000000	0.008921	0.000000	0.001593	-0.000898	0.000000	0.000000
50.425482	10.924410	26.095004	-0.097279	0.103614	2.150458	0.000000	0.008921	0.000000	0.001326	-0.000898	0.000000	0.000000
50.758816	10.999530	26.030232	-0.128080	0.090703	2.153731	0.000000	0.008921	0.000000	0.001026	-0.000898	0.000000	0.000000
51.092149	11.095184	25.974067	-0.158882	0.077792	2.157004	0.000000	0.008921	0.000000	0.000727	-0.000898	0.000000	0.000000
51.426732	11.211619	25.926873	-0.098843	-0.145499	2.160268	0.000000	-0.008604	0.000000	0.000427	-0.000902	0.000000	0.000000
51.724055	11.278357	26.016875	-0.098005	-0.221250	2.157977	0.000000	-0.013888	0.000000	0.000159	-0.000902	0.000000	0.000000
52.165015	11.511608	25.922390	-0.433256	0.434706	2.165906	0.000000	0.048135	0.000000	-0.000239	-0.000903	0.000000	0.000000
52.605975	12.048091	25.255955	-0.788296	1.070878	2.201284	0.000000	0.110717	0.000000	-0.000639	-0.000914	0.000000	0.000000
53.046935	12.912308	24.047903	-1.179342	1.658324	2.264517	0.000000	0.174569	0.000000	-0.001047	-0.000936	0.000000	0.000000
53.487895	14.143730	22.353206	-1.624259	2.170317	2.356331	0.000000	0.240420	0.000000	-0.001466	-0.000968	0.000000	0.000000
53.933855	15.819654	20.223650	-2.147642	2.584870	2.479293	0.000000	0.309415	0.000000	-0.001907	-0.001012	0.000000	0.000000
54.482915	17.976830	17.826924	-1.758544	1.806173	2.629351	0.000000	0.234509	0.000000	-0.002445	-0.000942	0.000000	0.000000
55.031975	19.635592	16.210052	-1.245263	1.156122	2.737030	0.000000	0.155429	0.000000	-0.002938	-0.000854	0.000000	0.000000
55.581035	20.678812	15.257859	-0.644050	0.588416	2.800414	0.000000	0.073578	0.000000	-0.003380	-0.000752	0.000000	0.000000
56.130095	21.032838	14.902516	0.002633	0.062621	2.818373	0.000000	-0.009590	0.000000	-0.003762	-0.000636	0.000000	0.000000
56.428668	21.069349	14.847117	-0.068275	0.082661	2.817969	0.000000	-0.001996	0.000000	-0.003955	-0.000646	0.000000	0.000000
56.762001	21.120164	14.799544	-0.084170	0.060056	2.817519	0.000000	-0.001996	0.000000	-0.004170	-0.000646	0.000000	0.000000
57.095334	21.181575	14.767042	-0.100064	0.037452	2.817069	0.000000	-0.001996	0.000000	-0.004386	-0.000646	0.000000	0.000000
57.429918	21.253873	14.749572	-0.116018	0.014763	2.816618	0.000000	-0.001996	0.000000	-0.004602	-0.000646	0.000000	0.000000
57.727240	21.327092	14.746778	-0.188127	0.034522	2.816218	0.000000	0.005654	0.000000	-0.004794	-0.000659	0.000000	0.000000
58.276300	21.169049	14.991566	0.473935	-0.483016	2.796795	0.000000	-0.077417	0.000000	-0.005112	-0.000499	0.000000	0.000000
58.825360	20.298257	15.820068	1.102518	-1.034950	2.731985	0.000000	-0.159124	0.000000	-0.005340	-0.000329	0.000000	0.000000
59.374420	18.776218	17.291283	1.653235	-1.660588	2.622935	0.000000	-0.238013	0.000000	-0.005473	-0.000154	0.000000	0.000000
59.923480	16.710412	19.509984	2.087200	-2.404487	2.471575	0.000000	-0.312685	0.000000	-0.005509	0.000024	0.000000	0.000000
60.369440	15.092094	21.481749	1.554612	-1.998420	2.347553	0.000000	-0.243924	0.000000	-0.005530	-0.000119	0.000000	0.000000
60.810400	13.927229	23.031377	1.097197	-1.502702	2.254634	0.000000	-0.178323	0.000000	-0.005614	-0.000263	0.000000	0.000000
61.251360	13.142175	24.111928	0.689900	-0.938624	2.190227	0.000000	-0.114749	0.000000	-0.005763	-0.000410	0.000000	0.000000
61.692320	12.701074	24.674248	0.314118	-0.331848	2.153602	0.000000	-0.052478	0.000000	-0.005976	-0.000561	0.000000	0.000000
62.134530	12.583827	24.692166	-0.014754	0.226148	2.144350	0.000000	0.003636	0.000000	-0.006259	-0.000703	0.000000	0.000000
62.431853	12.599627	24.561452	-0.038386	0.213491	2.145640	0.000000	0.003636	0.000000	-0.006468	-0.000703	0.000000	0.000000
62.765186	12.634050	24.423855	-0.064881	0.199301	2.147086	0.000000	0.003636	0.000000	-0.006702	-0.000703	0.000000	0.000000
63.098520	12.686135	24.295717	-0.091376	0.185111	2.148532	0.000000	0.003636	0.000000	-0.006937	-0.000703	0.000000	0.000000
63.433103	12.756179	24.176613	-0.117970	0.170868	2.149984	0.000000	0.003636	0.000000	-0.007172	-0.000703	0.000000	0.000000
63.730426	12.833335	24.078809	-0.107980	0.094883	2.151272	0.000000	-0.002000	0.000000	-0.007381	-0.000684	0.000000	0.000000
64.171386	13.091066	23.730057	-0.479064	0.693086	2.164359	0.000000	0.059905	0.000000	-0.007725	-0.000879	0.000000	0.000000
64.612346	13.684358	22.865740	-0.872021	1.259758	2.204952	0.000000	0.122502	0.000000	-0.008157	-0.001084	0.000000	0.000000
65.053306	14.640296	21.525185	-1.304794	1.769121	2.273517	0.000000	0.186505	0.000000	-0.008682	-0.001301	0.000000	0.000000
65.494266	16.002517	19.769383	-1.797146	2.198007	2.370840	0.000000	0.252646	0.000000	-0.009306	-0.001532	0.000000	0.000000
65.940226	17.856560	17.653319	-2.376038	2.527451	2.499625	0.000000	0.322051	0.000000	-0.010045	-0.001783	0.000000	0.000000
66.489286	20.230393	15.286585	-1.923336	1.809150	2.656743	0.000000	0.246393	0.000000	-0.010932	-0.001444	0.000000	0.000000
67.038346	22.029287	13.633598	-1.334873	1.219677	2.770867	0.000000	0.166343	0.000000	-0.011625	-0.001078	0.000000	0.000000
67.587406	23.126297	12.576632	-0.652191	0.717056	2.839966	0.000000	0.083326	0.000000	-0.012112	-0.000694	0.000000	0.000000
68.136466	23.444018	12.040412	0.076519	0.265494	2.862809	0.000000	-0.001180	0.000000	-0.012385	-0.000297	0.000000	0.000000
68.435038	23.442273	11.869297	-0.003623	0.273129	2.865006	0.000000	0.007051	0.000000	-0.012483	-0.000331	0.000000	0.000000
68.768372	23.449428	11.697270	-0.017842	0.242951	2.867467	0.000000	0.007051	0.000000	-0.012594	-0.000331	0.000000	0.000000
69.101705	23.466063	11.545363	-0.032062	0.212772	2.869927	0.000000	0.007051	0.000000	-0.012704	-0.000331	0.000000	0.000000
69.436288	23.492294	11.413118	-0.046335	0.182480	2.872397	0.000000	0.007051	0.000000	-0.012815	-0.000331	0.000000	0.000000
69.733611	23.523733	11.312555	-0.126901	0.188151	2.874599	0.000000	0.015346	0.000000	-0.012913	-0.000366	0.000000	0.000000
70.282671	23.259127	11.332649	0.605959	-0.224971	2.859749	0.000000	-0.069670	0.000000	-0.012999	0.000053	0.000000	0.000000
