#ParticleID	Turn	x[m]	xp	y[m]	yp	z[m]	dE[GeV]# s	beta_x	beta_y	alpha_x	alpha_y	D_x	D_y	D_px	D_py	orbit_x	orbit_px	orbit_y	orbit_py
0.300000	11.947592	25.199060	-0.014471	-0.024926	2.601198	0.000000	-0.001332	0.000000	-0.001219	0.001031	0.000000	0.000000
0.601250	11.963908	25.217682	-0.039691	-0.036888	2.600486	0.000000	-0.001332	0.000000	-0.000909	0.001031	0.000000	0.000000
0.898573	11.994910	25.243128	-0.034999	-0.110577	2.599784	0.000000	-0.007744	0.000000	-0.000602	0.001033	0.000000	0.000000
1.339533	12.179461	25.060541	-0.384756	0.523070	2.612120	0.000000	0.065726	0.000000	-0.000149	0.001023	0.000000	0.000000
1.780493	12.679034	24.327525	-0.752099	1.132921	2.656986	0.000000	0.139933	0.000000	0.000302	0.001025	0.000000	0.000000
2.221453	13.516464	23.077421	-1.153811	1.691229	2.734891	0.000000	0.215722	0.000000	0.000757	0.001039	0.000000	0.000000
2.662413	14.730025	21.367098	-1.608249	2.172589	2.846716	0.000000	0.293958	0.000000	0.001220	0.001064	0.000000	0.000000
3.108373	16.396152	19.249293	-2.140540	2.556277	2.995567	0.000000	0.376022	0.000000	0.001703	0.001102	0.000000	0.000000
3.657433	18.531792	16.870383	-1.725411	1.801868	3.176438	0.000000	0.283874	0.000000	0.002291	0.001037	0.000000	0.000000
4.206493	20.141530	15.244996	-1.188377	1.175805	3.305299	0.000000	0.186707	0.000000	0.002838	0.000954	0.000000	0.000000
4.755553	21.111621	14.257369	-0.567371	0.633494	3.379872	0.000000	0.086244	0.000000	0.003336	0.000854	0.000000	0.000000
5.304613	21.373507	13.837161	0.093734	0.136306	3.398841	0.000000	-0.015736	0.000000	0.003774	0.000739	0.000000	0.000000
5.603185	21.353985	13.741592	0.025680	0.148949	3.396485	0.000000	-0.007139	0.000000	0.003997	0.000749	0.000000	0.000000
5.936519	21.342072	13.650558	0.010060	0.124153	3.393855	0.000000	-0.007139	0.000000	0.004247	0.000749	0.000000	0.000000
6.269852	21.340572	13.576054	-0.005560	0.099358	3.391226	0.000000	-0.007139	0.000000	0.004497	0.000749	0.000000	0.000000
6.604435	21.349539	13.517895	-0.021239	0.074469	3.388587	0.000000	-0.007139	0.000000	0.004747	0.000749	0.000000	0.000000
6.901758	21.366327	13.480178	-0.088640	0.086236	3.386243	0.000000	0.001335	0.000000	0.004970	0.000762	0.000000	0.000000
7.450818	21.099500	13.647096	0.572109	-0.392014	3.358731	0.000000	-0.100103	0.000000	0.005343	0.000594	0.000000	0.000000
7.999878	20.124968	14.351394	1.192452	-0.898192	3.276017	0.000000	-0.199756	0.000000	0.005621	0.000417	0.000000	0.000000
8.548938	18.511575	15.643252	1.728554	-1.468359	3.139574	0.000000	-0.295858	0.000000	0.005799	0.000232	0.000000	0.000000
9.097998	16.373316	17.614705	2.142534	-2.143133	2.951826	0.000000	-0.386707	0.000000	0.005874	0.000043	0.000000	0.000000
9.543958	14.705522	19.371141	1.610298	-1.778440	2.797429	0.000000	-0.305822	0.000000	0.005927	0.000196	0.000000	0.000000
9.984918	13.490203	20.749050	1.156107	-1.334195	2.679515	0.000000	-0.228923	0.000000	0.006048	0.000350	0.000000	0.000000
10.425878	12.650775	21.706764	0.754747	-0.829233	2.594839	0.000000	-0.154635	0.000000	0.006237	0.000508	0.000000	0.000000
10.866838	12.148876	22.200697	0.387873	-0.286534	2.542435	0.000000	-0.082114	0.000000	0.006497	0.000673	0.000000	0.000000
11.309048	11.961424	22.207792	0.066022	0.218003	2.521684	0.000000	-0.016314	0.000000	0.006832	0.000828	0.000000	0.000000
11.606371	11.929586	22.082327	0.041057	0.203979	2.516587	0.000000	-0.016314	0.000000	0.007078	0.000828	0.000000	0.000000
12.086371	11.909517	21.897375	0.000753	0.181338	2.508359	0.000000	-0.016314	0.000000	0.007476	0.000828	0.000000	0.000000
12.566371	11.928140	21.734159	-0.039551	0.158696	2.500131	0.000000	-0.016314	0.000000	0.007874	0.000828	0.000000	0.000000
13.046371	11.985455	21.592678	-0.079855	0.136055	2.491903	0.000000	-0.016314	0.000000	0.008271	0.000828	0.000000	0.000000
13.526371	12.081461	21.472933	-0.120159	0.113414	2.483675	0.000000	-0.016314	0.000000	0.008669	0.000828	0.000000	0.000000
14.007621	12.216561	21.374696	-0.160568	0.090714	2.475425	0.000000	-0.016314	0.000000	0.009067	0.000828	0.000000	0.000000
14.304943	12.319433	21.324978	-0.158050	0.029352	2.470326	0.000000	-0.021825	0.000000	0.009314	0.000806	0.000000	0.000000
14.745903	12.617056	21.065745	-0.519033	0.556212	2.475750	0.000000	0.048237	0.000000	0.009723	0.001052	0.000000	0.000000
15.186863	13.242355	20.351226	-0.903748	1.057761	2.512055	0.000000	0.118836	0.000000	0.010243	0.001309	0.000000	0.000000
15.627823	14.223928	19.213928	-1.329782	1.511173	2.579651	0.000000	0.190776	0.000000	0.010880	0.001582	0.000000	0.000000
16.068783	15.606667	17.705599	-1.816613	1.895810	2.679301	0.000000	0.264872	0.000000	0.011641	0.001872	0.000000	0.000000
16.514743	17.477474	15.873144	-2.391481	2.195169	2.813818	0.000000	0.342461	0.000000	0.012545	0.002186	0.000000	0.000000
17.063803	19.880104	13.827550	-1.956607	1.551751	2.977469	0.000000	0.256450	0.000000	0.013630	0.001761	0.000000	0.000000
17.612863	21.725782	12.424113	-1.383411	1.018896	3.092808	0.000000	0.165917	0.000000	0.014474	0.001306	0.000000	0.000000
18.161923	22.883992	11.562854	-0.712408	0.558639	3.157799	0.000000	0.072461	0.000000	0.015061	0.000828	0.000000	0.000000
18.710983	23.272822	11.182417	0.008967	0.138188	3.171296	0.000000	-0.022268	0.000000	0.015380	0.000334	0.000000	0.000000
19.009556	23.302586	11.093087	-0.056542	0.136018	3.166668	0.000000	-0.015093	0.000000	0.015491	0.000372	0.000000	0.000000
19.342889	23.345064	11.012610	-0.070892	0.105414	3.161513	0.000000	-0.015093	0.000000	0.015615	0.000372	0.000000	0.000000
19.676223	23.397109	10.952535	-0.085242	0.074809	3.156358	0.000000	-0.015093	0.000000	0.015739	0.000372	0.000000	0.000000
20.010806	23.459260	10.912619	-0.215877	0.098157	3.151203	0.000000	0.000520	0.000000	0.015863	0.000450	0.000000	0.000000
20.308129	23.591751	10.862347	-0.282163	0.095143	3.151236	0.000000	0.007602	0.000000	0.015997	0.000489	0.000000	0.000000
20.857189	23.494928	10.978304	0.457576	-0.307534	3.129462	0.000000	-0.086344	0.000000	0.016123	-0.000031	0.000000	0.000000
21.406249	22.598432	11.545920	1.164971	-0.732127	3.056712	0.000000	-0.178759	0.000000	0.015963	-0.000551	0.000000	0.000000
21.955309	20.965656	12.605636	1.790011	-1.208889	2.934277	0.000000	-0.268011	0.000000	0.015520	-0.001061	0.000000	0.000000
22.504369	18.712059	14.232954	2.288506	-1.771791	2.764324	0.000000	-0.352523	0.000000	0.014801	-0.001553	0.000000	0.000000
22.950329	16.937985	15.694636	1.701797	-1.491097	2.624735	0.000000	-0.276271	0.000000	0.014193	-0.001176	0.000000	0.000000
23.391289	15.663709	16.861133	1.197903	-1.143666	2.519424	0.000000	-0.203648	0.000000	0.013754	-0.000816	0.000000	0.000000
23.832249	14.808257	17.696941	0.748779	-0.744180	2.445454	0.000000	-0.133338	0.000000	0.013471	-0.000465	0.000000	0.000000
24.273209	14.332504	18.164022	0.333889	-0.310822	2.401983	0.000000	-0.064541	0.000000	0.013343	-0.000119	0.000000	0.000000
24.715418	14.214857	18.240779	-0.035523	0.097674	2.388521	0.000000	-0.001571	0.000000	0.013366	0.000194	0.000000	0.000000
25.012741	14.242207	18.187590	-0.056466	0.081219	2.387996	0.000000	-0.001571	0.000000	0.013424	0.000194	0.000000	0.000000
25.346075	14.287678	18.139594	-0.079945	0.062770	2.387408	0.000000	-0.001571	0.000000	0.013488	0.000194	0.000000	0.000000
25.679408	14.348801	18.103896	-0.103425	0.044322	2.386819	0.000000	-0.001571	0.000000	0.013553	0.000194	0.000000	0.000000
26.013991	14.425602	18.080800	-0.009962	-0.120876	2.386205	0.000000	-0.020929	0.000000	0.013618	0.000084	0.000000	0.000000
26.311314	14.437576	18.157738	0.000100	-0.176126	2.379951	0.000000	-0.025986	0.000000	0.013643	0.000053	0.000000	0.000000
26.752274	14.616053	18.116299	-0.406210	0.269725	2.383321	0.000000	0.041726	0.000000	0.013744	0.000406	0.000000	0.000000
27.193234	15.159808	17.685508	-0.831093	0.703301	2.416480	0.000000	0.109909	0.000000	0.014001	0.000763	0.000000	0.000000
27.634194	16.093711	16.884969	-1.293977	1.104866	2.479803	0.000000	0.179336	0.000000	0.014418	0.001130	0.000000	0.000000
28.075154	17.460480	15.751112	-1.816027	1.456143	2.574008	0.000000	0.250794	0.000000	0.015000	0.001509	0.000000	0.000000
28.521114	19.346737	14.318225	-2.426366	1.742357	2.701772	0.000000	0.325580	0.000000	0.015761	0.001908	0.000000	0.000000
29.070174	21.745697	12.722401	-1.914975	1.180592	2.857350	0.000000	0.243325	0.000000	0.016666	0.001383	0.000000	0.000000
29.619234	23.504687	11.694043	-1.268193	0.702953	2.966793	0.000000	0.156774	0.000000	0.017276	0.000833	0.000000	0.000000
30.168294	24.499308	11.159887	-0.531746	0.275405	3.028166	0.000000	0.067454	0.000000	0.017578	0.000268	0.000000	0.000000
30.717354	24.659215	11.081874	0.242295	-0.132517	3.040384	0.000000	-0.023058	0.000000	0.017569	-0.000302	0.000000	0.000000
31.015927	24.550592	11.154588	0.175261	-0.135230	3.035570	0.000000	-0.016339	0.000000	0.017491	-0.000259	0.000000	0.000000
31.349260	24.438416	11.254884	0.161267	-0.165660	3.030210	0.000000	-0.016339	0.000000	0.017405	-0.000259	0.000000	0.000000
31.682593	24.335570	11.375467	0.147272	-0.196089	3.024850	0.000000	-0.016339	0.000000	0.017319	-0.000259	0.000000	0.000000
32.017177	24.241720	11.516903	0.133225	-0.226633	3.019470	0.000000	-0.016339	0.000000	0.017232	-0.000259	0.000000	0.000000
32.314499	24.166418	11.659638	0.067088	-0.227926	3.014702	0.000000	-0.009645	0.000000	0.017155	-0.000218	0.000000	0.000000
32.863559	23.678821	12.148050	0.815158	-0.666652	2.985073	0.000000	-0.099042	0.000000	0.016883	-0.000769	0.000000	0.000000
33.412619	22.396313	13.141455	1.505590	-1.152882	2.907044	0.000000	-0.186693	0.000000	0.016312	-0.001307	0.000000	0.000000
33.961679	20.409605	14.710625	2.089571	-1.721262	2.781992	0.000000	-0.271052	0.000000	0.015452	-0.001822	0.000000	0.000000
34.510739	17.859197	16.967354	2.525818	-2.412289	2.612124	0.000000	-0.350631	0.000000	0.014317	-0.002304	0.000000	0.000000
34.956699	15.877705	18.986419	1.931091	-2.095154	2.472830	0.000000	-0.278333	0.000000	0.013370	-0.001945	0.000000	0.000000
35.397659	14.400633	20.659435	1.429889	-1.683729	2.366077	0.000000	-0.209650	0.000000	0.012587	-0.001611	0.000000	0.000000
35.838619	13.335366	21.934212	0.994065	-1.195672	2.288928	0.000000	-0.143338	0.000000	0.011947	-0.001294	0.000000	0.000000
36.279579	12.633178	22.752743	0.603691	-0.653199	2.240511	0.000000	-0.078646	0.000000	0.011443	-0.000993	0.000000	0.000000
36.721789	12.261329	23.078030	0.267640	-0.131328	2.220257	0.000000	-0.019697	0.000000	0.011068	-0.000728	0.000000	0.000000
37.019112	12.109905	23.160020	0.241654	-0.144433	2.214617	0.000000	-0.019697	0.000000	0.010852	-0.000728	0.000000	0.000000
37.352445	11.958513	23.261207	0.212521	-0.159126	2.208294	0.000000	-0.019697	0.000000	0.010609	-0.000728	0.000000	0.000000
37.685779	11.826543	23.372189	0.183388	-0.173819	2.201971	0.000000	-0.019697	0.000000	0.010366	-0.000728	0.000000	0.000000
38.020362	11.713610	23.493437	0.154146	-0.188567	2.195625	0.000000	-0.019697	0.000000	0.010123	-0.000728	0.000000	0.000000
38.317684	11.629640	23.609532	0.153941	-0.254255	2.189982	0.000000	-0.024552	0.000000	0.009906	-0.000751	0.000000	0.000000
38.758644	11.642806	23.572200	-0.184116	0.338581	2.193267	0.000000	0.038253	0.000000	0.009631	-0.000499	0.000000	0.000000
39.199604	11.956756	23.016788	-0.530584	0.916006	2.224215	0.000000	0.101499	0.000000	0.009465	-0.000253	0.000000	0.000000
39.640564	12.585838	21.968576	-0.901302	1.451741	2.283180	0.000000	0.165904	0.000000	0.009407	-0.000010	0.000000	0.000000
40.081524	13.558809	20.475269	-1.313214	1.921406	2.370834	0.000000	0.232200	0.000000	0.009456	0.000233	0.000000	0.000000
40.527484	14.937754	18.582113	-1.789135	2.305153	2.489660	0.000000	0.301571	0.000000	0.009615	0.000481	0.000000	0.000000
41.076544	16.699990	16.454505	-1.400820	1.592187	2.634661	0.000000	0.226381	0.000000	0.009793	0.000166	0.000000	0.000000
41.625604	17.978448	15.043401	-0.913514	0.992660	2.737375	0.000000	0.147177	0.000000	0.009797	-0.000151	0.000000	0.000000
42.174664	18.682773	14.248268	-0.361658	0.463859	2.795980	0.000000	0.065359	0.000000	0.009627	-0.000466	0.000000	0.000000
42.723724	18.763193	14.012452	0.215745	-0.031891	2.809433	0.000000	-0.017625	0.000000	0.009287	-0.000772	0.000000	0.000000
43.022297	18.666141	14.017680	0.154258	-0.019349	2.806408	0.000000	-0.010871	0.000000	0.009063	-0.000749	0.000000	0.000000
43.502297	18.530691	14.052697	0.127931	-0.053604	2.801549	0.000000	-0.010871	0.000000	0.008703	-0.000749	0.000000	0.000000
43.982297	18.420514	14.120599	0.101604	-0.087859	2.796691	0.000000	-0.010871	0.000000	0.008344	-0.000749	0.000000	0.000000
44.462297	18.335612	14.221387	0.075277	-0.122115	2.791833	0.000000	-0.010871	0.000000	0.007984	-0.000749	0.000000	0.000000
44.942297	18.275983	14.355059	0.048950	-0.156370	2.786975	0.000000	-0.010871	0.000000	0.007625	-0.000749	0.000000	0.000000
45.423547	18.241797	14.521914	-0.067826	-0.118764	2.782121	0.000000	0.002914	0.000000	0.007264	-0.000713	0.000000	0.000000
45.720870	18.287025	14.598688	-0.129106	-0.103826	2.783201	0.000000	0.009748	0.000000	0.007052	-0.000695	0.000000	0.000000
46.269930	18.120552	14.995072	0.430057	-0.622296	2.766421	0.000000	-0.072326	0.000000	0.006609	-0.000917	0.000000	0.000000
46.818990	17.353078	15.981704	0.958818	-1.185096	2.704968	0.000000	-0.153132	0.000000	0.006048	-0.001122	0.000000	0.000000
47.368050	16.038856	17.628857	1.419815	-1.832317	2.599926	0.000000	-0.231240	0.000000	0.005381	-0.001307	0.000000	0.000000
47.917110	14.270773	20.053850	1.780479	-2.610062	2.453147	0.000000	-0.305266	0.000000	0.004617	-0.001469	0.000000	0.000000
48.363070	12.893953	22.209642	1.317033	-2.203400	2.332920	0.000000	-0.236889	0.000000	0.003988	-0.001357	0.000000	0.000000
48.804030	11.912033	23.936614	0.917607	-1.697878	2.243494	0.000000	-0.171605	0.000000	0.003411	-0.001262	0.000000	0.000000
49.244990	11.262670	25.181821	0.560119	-1.115102	2.182365	0.000000	-0.108263	0.000000	0.002873	-0.001181	0.000000	0.000000
49.685950	10.916180	25.888615	0.228233	-0.481589	2.148842	0.000000	-0.046141	0.000000	0.002367	-0.001113	0.000000	0.000000
50.128160	10.856887	26.024564	-0.067187	0.111500	2.142563	0.000000	0.010307	0.000000	0.001887	-0.001063	0.000000	0.000000
50.425482	10.905019	25.961700	-0.094696	0.099934	2.145944	0.000000	0.010307	0.000000	0.001571	-0.001063	0.000000	0.000000
50.758816	10.978430	25.899400	-0.125538	0.086966	2.149734	0.000000	0.010307	0.000000	0.001217	-0.001063	0.000000	0.000000
51.092149	11.072403	25.845745	-0.156379	0.073998	2.153524	0.000000	0.010307	0.000000	0.000863	-0.001063	0.000000	0.000000
51.426732	11.187177	25.801106	-0.096578	-0.148329	2.157307	0.000000	-0.007194	0.000000	0.000507	-0.001067	0.000000	0.000000
51.724055	11.252582	25.892811	-0.095858	-0.223884	2.155485	0.000000	-0.012470	0.000000	0.000190	-0.001068	0.000000	0.000000
52.165015	11.483640	25.802089	-0.430465	0.428839	2.164097	0.000000	0.049498	0.000000	-0.000281	-0.001069	0.000000	0.000000
52.605975	12.017306	25.142162	-0.784730	1.062045	2.200137	0.000000	0.112041	0.000000	-0.000755	-0.001082	0.000000	0.000000
53.046935	12.877951	23.943067	-1.174839	1.646926	2.264022	0.000000	0.175873	0.000000	-0.001237	-0.001108	0.000000	0.000000
53.487895	14.104881	22.259372	-1.618611	2.156872	2.356483	0.000000	0.241719	0.000000	-0.001734	-0.001146	0.000000	0.000000
53.933855	15.775116	20.142507	-2.140568	2.569982	2.480105	0.000000	0.310724	0.000000	-0.002256	-0.001198	0.000000	0.000000
54.482915	17.925073	17.760198	-1.752652	1.794672	2.630966	0.000000	0.235781	0.000000	-0.002892	-0.001115	0.000000	0.000000
55.031975	19.578151	16.154489	-1.240972	1.147189	2.739413	0.000000	0.156637	0.000000	-0.003476	-0.001011	0.000000	0.000000
55.581035	20.617633	15.211002	-0.641670	0.581414	2.803515	0.000000	0.074699	0.000000	-0.003999	-0.000890	0.000000	0.000000
56.130095	20.970136	14.862524	0.002931	0.057051	2.822128	0.000000	-0.008578	0.000000	-0.004451	-0.000753	0.000000	0.000000
56.428668	21.006563	14.810381	-0.068161	0.077194	2.822077	0.000000	-0.000932	0.000000	-0.004680	-0.000765	0.000000	0.000000
56.762001	21.057318	14.766465	-0.084103	0.054553	2.822021	0.000000	-0.000932	0.000000	-0.004935	-0.000765	0.000000	0.000000
57.095334	21.118700	14.737643	-0.100045	0.031912	2.821966	0.000000	-0.000932	0.000000	-0.005190	-0.000765	0.000000	0.000000
57.429918	21.191001	14.723892	-0.116047	0.009187	2.821910	0.000000	-0.000932	0.000000	-0.005446	-0.000765	0.000000	0.000000
57.727240	21.264256	14.724420	-0.188424	0.029103	2.821861	0.000000	0.006785	0.000000	-0.005673	-0.000780	0.000000	0.000000
58.276300	21.107665	14.974847	0.471541	-0.487935	2.803065	0.000000	-0.076476	0.000000	-0.006050	-0.000591	0.000000	0.000000
58.825360	20.240570	15.808626	1.098196	-1.039719	2.738756	0.000000	-0.158392	0.000000	-0.006320	-0.000390	0.000000	0.000000
59.374420	18.724208	17.285128	1.647292	-1.665545	2.630072	0.000000	-0.237504	0.000000	-0.006477	-0.000183	0.000000	0.000000
59.923480	16.665654	19.509501	2.080060	-2.409981	2.478938	0.000000	-0.312408	0.000000	-0.006520	0.000028	0.000000	0.000000
60.369440	15.053040	21.486410	1.548924	-2.004436	2.355085	0.000000	-0.243459	0.000000	-0.006545	-0.000142	0.000000	0.000000
60.810400	13.892673	23.041438	1.092666	-1.508937	2.262430	0.000000	-0.177663	0.000000	-0.006645	-0.000312	0.000000	0.000000
61.251360	13.111184	24.127465	0.686318	-0.944797	2.198386	0.000000	-0.113885	0.000000	-0.006821	-0.000485	0.000000	0.000000
61.692320	12.672879	24.695090	0.311320	-0.337680	2.162228	0.000000	-0.051400	0.000000	-0.007074	-0.000664	0.000000	0.000000
62.134530	12.557796	24.717905	-0.016641	0.220268	2.153553	0.000000	0.004863	0.000000	-0.007409	-0.000832	0.000000	0.000000
62.431853	12.574733	24.590674	-0.040324	0.207656	2.155246	0.000000	0.004863	0.000000	-0.007656	-0.000832	0.000000	0.000000
62.765186	12.610466	24.456950	-0.066875	0.193516	2.157145	0.000000	0.004863	0.000000	-0.007934	-0.000832	0.000000	0.000000
63.098520	12.663900	24.332652	-0.093426	0.179376	2.159043	0.000000	0.004863	0.000000	-0.008211	-0.000832	0.000000	0.000000
63.433103	12.735335	24.217368	-0.120077	0.165183	2.160949	0.000000	0.004863	0.000000	-0.008489	-0.000832	0.000000	0.000000
63.730426	12.813751	24.122947	-0.109803	0.088356	2.162640	0.000000	-0.000868	0.000000	-0.008737	-0.000810	0.000000	0.000000
64.171386	13.072873	23.779392	-0.480473	0.687885	2.176352	0.000000	0.061336	0.000000	-0.009144	-0.001040	0.000000	0.000000
64.612346	13.667206	22.919005	-0.873077	1.256120	2.217721	0.000000	0.124250	0.000000	-0.009656	-0.001283	0.000000	0.000000
65.053306	14.623877	21.580933	-1.305541	1.767214	2.287223	0.000000	0.188592	0.000000	-0.010278	-0.001540	0.000000	0.000000
65.494266	15.986551	19.826054	-1.797612	2.197921	2.385653	0.000000	0.255098	0.000000	-0.011016	-0.001814	0.000000	0.000000
65.940226	17.840816	17.709257	-2.376187	2.529173	2.515750	0.000000	0.324894	0.000000	-0.011891	-0.002111	0.000000	0.000000
66.489286	20.215067	15.341408	-1.924218	1.809587	2.674435	0.000000	0.248694	0.000000	-0.012941	-0.001709	0.000000	0.000000
67.038346	22.015184	13.688679	-1.336441	1.218856	2.789782	0.000000	0.168056	0.000000	-0.013761	-0.001276	0.000000	0.000000
67.587406	23.114159	12.633363	-0.654348	0.714913	2.859736	0.000000	0.084418	0.000000	-0.014338	-0.000821	0.000000	0.000000
68.136466	23.434465	12.100305	0.073918	0.261873	2.883050	0.000000	-0.000730	0.000000	-0.014660	-0.000351	0.000000	0.000000
68.435038	23.434863	11.930880	-0.007286	0.270426	2.885455	0.000000	0.007693	0.000000	-0.014777	-0.000392	0.000000	0.000000
68.768372	23.444462	11.760590	-0.021510	0.240444	2.888150	0.000000	0.007693	0.000000	-0.014908	-0.000392	0.000000	0.000000
69.101705	23.463544	11.610288	-0.035735	0.210462	2.890845	0.000000	0.007693	0.000000	-0.015039	-0.000392	0.000000	0.000000
69.436288	23.492234	11.479523	-0.050013	0.180368	2.893550	0.000000	0.007693	0.000000	-0.015170	-0.000392	0.000000	0.000000
69.733611	23.525907	11.380141	-0.131719	0.186945	2.895963	0.000000	0.016189	0.000000	-0.015286	-0.000435	0.000000	0.000000
70.282671	23.266531	11.402592	0.601303	-0.228085	2.881403	0.000000	-0.069517	0.000000	-0.015389	0.000062	0.000000	0.000000
