#ParticleID	Turn	x[m]	xp	y[m]	yp	z[m]	dE[GeV]# s	beta_x	beta_y	alpha_x	alpha_y	D_x	D_y	D_px	D_py	orbit_x	orbit_px	orbit_y	orbit_py
0.300000	11.965409	25.321634	-0.019161	-0.021963	2.598478	0.000000	0.000125	0.000000	-0.000983	0.000849	0.000000	0.000000
0.601250	11.984541	25.338453	-0.044347	-0.033866	2.598260	0.000000	0.000125	0.000000	-0.000727	0.000849	0.000000	0.000000
0.898573	12.018303	25.362084	-0.039600	-0.107780	2.598044	0.000000	-0.006275	0.000000	-0.000475	0.000850	0.000000	0.000000
1.339533	12.207156	25.175654	-0.390011	0.528954	2.611097	0.000000	0.067159	0.000000	-0.000102	0.000842	0.000000	0.000000
1.780493	12.711711	24.436181	-0.758247	1.141624	2.656668	0.000000	0.141349	0.000000	0.000270	0.000844	0.000000	0.000000
2.221453	13.555028	23.177301	-1.161133	1.702354	2.735273	0.000000	0.217140	0.000000	0.000644	0.000856	0.000000	0.000000
2.662413	14.775646	21.456286	-1.617076	2.185629	2.847804	0.000000	0.295395	0.000000	0.001026	0.000878	0.000000	0.000000
3.108373	16.450427	19.326218	-2.151284	2.570633	2.997384	0.000000	0.377495	0.000000	0.001424	0.000910	0.000000	0.000000
3.657433	18.597213	16.933419	-1.734959	1.812979	3.179143	0.000000	0.285275	0.000000	0.001910	0.000856	0.000000	0.000000
4.206493	20.216404	15.297252	-1.196058	1.184461	3.308838	0.000000	0.188009	0.000000	0.002361	0.000786	0.000000	0.000000
4.755553	21.193594	14.301185	-0.572649	0.640312	3.384175	0.000000	0.087420	0.000000	0.002771	0.000703	0.000000	0.000000
5.304613	21.459729	13.874276	0.091229	0.141772	3.403823	0.000000	-0.014709	0.000000	0.003131	0.000608	0.000000	0.000000
5.603185	21.442003	13.775246	0.022709	0.154749	3.401832	0.000000	-0.006050	0.000000	0.003315	0.000616	0.000000	0.000000
5.936519	21.432048	13.680339	0.007155	0.129972	3.399610	0.000000	-0.006050	0.000000	0.003520	0.000616	0.000000	0.000000
6.269852	21.432462	13.601950	-0.008398	0.105194	3.397388	0.000000	-0.006050	0.000000	0.003725	0.000616	0.000000	0.000000
6.604435	21.443306	13.539879	-0.024011	0.080324	3.395158	0.000000	-0.006050	0.000000	0.003931	0.000616	0.000000	0.000000
6.901758	21.461719	13.498679	-0.092004	0.092385	3.393177	0.000000	0.002506	0.000000	0.004114	0.000626	0.000000	0.000000
7.450818	21.196776	13.659081	0.571996	-0.386231	3.366309	0.000000	-0.099164	0.000000	0.004421	0.000488	0.000000	0.000000
7.999878	20.220554	14.357032	1.195596	-0.892363	3.284092	0.000000	-0.199067	0.000000	0.004649	0.000341	0.000000	0.000000
8.548938	18.602016	15.642255	1.734735	-1.462067	3.147988	0.000000	-0.295434	0.000000	0.004794	0.000188	0.000000	0.000000
9.097998	16.455514	17.606309	2.151320	-2.135925	2.960414	0.000000	-0.386556	0.000000	0.004855	0.000032	0.000000	0.000000
9.543958	14.780902	19.356130	1.616906	-1.770940	2.806146	0.000000	-0.305452	0.000000	0.004897	0.000158	0.000000	0.000000
9.984918	13.560615	20.727393	1.160830	-1.326729	2.688468	0.000000	-0.228328	0.000000	0.004995	0.000286	0.000000	0.000000
10.425878	12.717772	21.678649	0.757798	-0.822144	2.604141	0.000000	-0.153807	0.000000	0.005149	0.000416	0.000000	0.000000
10.866838	12.213856	22.166608	0.389392	-0.280145	2.552201	0.000000	-0.081042	0.000000	0.005363	0.000552	0.000000	0.000000
11.309048	12.025689	22.168483	0.066569	0.222903	2.532038	0.000000	-0.015081	0.000000	0.005638	0.000680	0.000000	0.000000
11.606371	11.993488	22.040120	0.041736	0.208825	2.527352	0.000000	-0.015081	0.000000	0.005840	0.000680	0.000000	0.000000
12.086371	11.972665	21.850558	0.001644	0.186097	2.519786	0.000000	-0.015081	0.000000	0.006167	0.000680	0.000000	0.000000
12.566371	11.990331	21.682814	-0.038447	0.163368	2.512221	0.000000	-0.015081	0.000000	0.006493	0.000680	0.000000	0.000000
13.046371	12.046484	21.536890	-0.078539	0.140640	2.504656	0.000000	-0.015081	0.000000	0.006820	0.000680	0.000000	0.000000
13.526371	12.141125	21.412785	-0.118630	0.117912	2.497090	0.000000	-0.015081	0.000000	0.007146	0.000680	0.000000	0.000000
14.007621	12.274651	21.310261	-0.158826	0.095125	2.489506	0.000000	-0.015081	0.000000	0.007474	0.000680	0.000000	0.000000
14.304943	12.376458	21.257918	-0.155557	0.032973	2.484817	0.000000	-0.020723	0.000000	0.007676	0.000662	0.000000	0.000000
14.745903	12.672391	20.996322	-0.517752	0.557945	2.490881	0.000000	0.049717	0.000000	0.008012	0.000864	0.000000	0.000000
15.186863	13.297019	20.281156	-0.903615	1.057529	2.528014	0.000000	0.120714	0.000000	0.008440	0.001076	0.000000	0.000000
15.627823	14.278906	19.144960	-1.330787	1.508987	2.596638	0.000000	0.193075	0.000000	0.008964	0.001301	0.000000	0.000000
16.068783	15.662948	17.639430	-1.818794	1.891773	2.697528	0.000000	0.267622	0.000000	0.009589	0.001540	0.000000	0.000000
16.514743	17.536066	15.811453	-2.394893	2.189404	2.833524	0.000000	0.345694	0.000000	0.010333	0.001798	0.000000	0.000000
17.063803	19.941094	13.771174	-1.957873	1.547906	2.998950	0.000000	0.259022	0.000000	0.011226	0.001449	0.000000	0.000000
17.612863	21.786790	12.371088	-1.382461	1.016691	3.115648	0.000000	0.167778	0.000000	0.011920	0.001074	0.000000	0.000000
18.161923	22.942662	11.511461	-0.709327	0.557914	3.181555	0.000000	0.073575	0.000000	0.012403	0.000680	0.000000	0.000000
18.710983	23.326982	11.131054	0.013953	0.138886	3.195507	0.000000	-0.021924	0.000000	0.012665	0.000274	0.000000	0.000000
19.009556	23.354772	11.040961	-0.053133	0.137184	3.191082	0.000000	-0.014490	0.000000	0.012756	0.000305	0.000000	0.000000
19.342889	23.394965	10.959758	-0.067446	0.106425	3.186150	0.000000	-0.014490	0.000000	0.012858	0.000305	0.000000	0.000000
19.676223	23.444700	10.899061	-0.081759	0.075666	3.181219	0.000000	-0.014490	0.000000	0.012959	0.000305	0.000000	0.000000
20.010806	23.504508	10.858623	-0.212579	0.098593	3.176288	0.000000	0.001247	0.000000	0.013061	0.000370	0.000000	0.000000
20.308129	23.634968	10.808161	-0.280497	0.096023	3.176557	0.000000	0.008598	0.000000	0.013171	0.000402	0.000000	0.000000
20.857189	23.535558	10.922307	0.460572	-0.305106	3.155128	0.000000	-0.086166	0.000000	0.013275	-0.000026	0.000000	0.000000
21.406249	22.635188	11.486307	1.169090	-0.727975	3.082226	0.000000	-0.179403	0.000000	0.013143	-0.000454	0.000000	0.000000
21.955309	20.997511	12.540344	1.794972	-1.202714	2.959145	0.000000	-0.269463	0.000000	0.012777	-0.000874	0.000000	0.000000
22.504369	18.738311	14.159510	2.293979	-1.763147	2.788063	0.000000	-0.354756	0.000000	0.012185	-0.001279	0.000000	0.000000
22.950329	16.959939	15.614197	1.706404	-1.484342	2.647517	0.000000	-0.277912	0.000000	0.011684	-0.000969	0.000000	0.000000
23.391289	15.682009	16.775616	1.201796	-1.139044	2.541540	0.000000	-0.204715	0.000000	0.011322	-0.000672	0.000000	0.000000
23.832249	14.823426	17.608342	0.752129	-0.741906	2.467177	0.000000	-0.133843	0.000000	0.011090	-0.000384	0.000000	0.000000
24.273209	14.344928	18.074480	0.336845	-0.311002	2.423586	0.000000	-0.064493	0.000000	0.010984	-0.000099	0.000000	0.000000
24.715418	14.224768	18.152516	-0.031979	0.094189	2.410271	0.000000	-0.001154	0.000000	0.011003	0.000159	0.000000	0.000000
25.012741	14.250005	18.101420	-0.052903	0.077664	2.409880	0.000000	-0.001154	0.000000	0.011050	0.000159	0.000000	0.000000
25.346075	14.293092	18.055819	-0.076360	0.059139	2.409443	0.000000	-0.001154	0.000000	0.011103	0.000159	0.000000	0.000000
25.679408	14.351818	18.022568	-0.099817	0.040613	2.409005	0.000000	-0.001154	0.000000	0.011156	0.000159	0.000000	0.000000
26.013991	14.426198	18.001979	-0.006328	-0.124023	2.408541	0.000000	-0.020694	0.000000	0.011209	0.000068	0.000000	0.000000
26.311314	14.436035	18.080782	0.004594	-0.180277	2.402364	0.000000	-0.025941	0.000000	0.011229	0.000042	0.000000	0.000000
26.752274	14.610477	18.043922	-0.401549	0.263535	2.405899	0.000000	0.042346	0.000000	0.011311	0.000333	0.000000	0.000000
27.193234	15.149930	17.619406	-0.826051	0.695353	2.439503	0.000000	0.111113	0.000000	0.011523	0.000627	0.000000	0.000000
27.634194	16.079064	16.826551	-1.288317	1.095523	2.503558	0.000000	0.181139	0.000000	0.011865	0.000928	0.000000	0.000000
28.075154	17.440369	15.701437	-1.809482	1.445834	2.598790	0.000000	0.253218	0.000000	0.012343	0.001241	0.000000	0.000000
28.521114	19.320022	14.278136	-2.418550	1.731495	2.727899	0.000000	0.328652	0.000000	0.012969	0.001569	0.000000	0.000000
29.070174	21.710362	12.693160	-1.907547	1.171702	2.885078	0.000000	0.245532	0.000000	0.013713	0.001137	0.000000	0.000000
29.619234	23.461514	11.673827	-1.261701	0.695394	2.995585	0.000000	0.158073	0.000000	0.014214	0.000684	0.000000	0.000000
30.168294	24.449658	11.147517	-0.526665	0.268635	3.057466	0.000000	0.067821	0.000000	0.014462	0.000219	0.000000	0.000000
30.717354	24.604925	11.076733	0.245601	-0.138982	3.069626	0.000000	-0.023632	0.000000	0.014454	-0.000249	0.000000	0.000000
31.015927	24.495427	11.152813	0.176831	-0.140943	3.064718	0.000000	-0.016620	0.000000	0.014390	-0.000214	0.000000	0.000000
31.349260	24.382218	11.256935	0.162797	-0.171424	3.059249	0.000000	-0.016620	0.000000	0.014319	-0.000214	0.000000	0.000000
31.682593	24.278365	11.381379	0.148764	-0.201906	3.053780	0.000000	-0.016620	0.000000	0.014248	-0.000214	0.000000	0.000000
32.017177	24.183530	11.526724	0.134677	-0.232502	3.048290	0.000000	-0.016620	0.000000	0.014176	-0.000214	0.000000	0.000000
32.314499	24.107307	11.672996	0.066898	-0.232963	3.043421	0.000000	-0.009644	0.000000	0.014113	-0.000179	0.000000	0.000000
32.863559	23.621080	12.167241	0.812966	-0.672338	3.013496	0.000000	-0.099958	0.000000	0.013890	-0.000633	0.000000	0.000000
33.412619	22.342132	13.167386	1.501562	-1.159618	2.934621	0.000000	-0.188508	0.000000	0.013420	-0.001075	0.000000	0.000000
33.961679	20.360900	14.744681	2.084009	-1.729523	2.808191	0.000000	-0.273732	0.000000	0.012712	-0.001499	0.000000	0.000000
34.510739	17.817469	17.011493	2.519141	-2.422655	2.636440	0.000000	-0.354122	0.000000	0.011778	-0.001896	0.000000	0.000000
34.956699	15.841488	19.039524	1.925842	-2.105070	2.495571	0.000000	-0.281223	0.000000	0.010999	-0.001600	0.000000	0.000000
35.397659	14.368650	20.720838	1.425755	-1.692681	2.387538	0.000000	-0.211974	0.000000	0.010355	-0.001325	0.000000	0.000000
35.838619	13.306692	22.002895	0.990847	-1.203256	2.309377	0.000000	-0.145125	0.000000	0.009829	-0.001065	0.000000	0.000000
36.279579	12.607051	22.827359	0.601236	-0.659073	2.260200	0.000000	-0.079919	0.000000	0.009414	-0.000817	0.000000	0.000000
36.721789	12.237098	23.157001	0.266366	-0.136545	2.239429	0.000000	-0.020622	0.000000	0.009106	-0.000599	0.000000	0.000000
37.019112	12.086441	23.242086	0.240345	-0.149624	2.233476	0.000000	-0.020622	0.000000	0.008928	-0.000599	0.000000	0.000000
37.352445	11.935935	23.346722	0.211173	-0.164287	2.226801	0.000000	-0.020622	0.000000	0.008728	-0.000599	0.000000	0.000000
37.685779	11.804877	23.461135	0.182001	-0.178949	2.220127	0.000000	-0.020622	0.000000	0.008529	-0.000599	0.000000	0.000000
38.020362	11.692885	23.585806	0.152719	-0.193667	2.213428	0.000000	-0.020622	0.000000	0.008328	-0.000599	0.000000	0.000000
38.317684	11.609785	23.704904	0.152930	-0.260508	2.207473	0.000000	-0.025609	0.000000	0.008150	-0.000618	0.000000	0.000000
38.758644	11.623656	23.671960	-0.184673	0.334926	2.210342	0.000000	0.037638	0.000000	0.007923	-0.000411	0.000000	0.000000
39.199604	11.937910	23.118572	-0.530713	0.915117	2.241086	0.000000	0.101319	0.000000	0.007787	-0.000209	0.000000	0.000000
39.640564	12.566908	22.069928	-0.901007	1.453661	2.300056	0.000000	0.166157	0.000000	0.007739	-0.000009	0.000000	0.000000
40.081524	13.539399	20.573751	-1.312479	1.926050	2.387924	0.000000	0.232887	0.000000	0.007779	0.000191	0.000000	0.000000
40.527484	14.917400	18.675384	-1.787885	2.312286	2.507178	0.000000	0.302699	0.000000	0.007910	0.000395	0.000000	0.000000
41.076544	16.678618	16.541573	-1.400335	1.596510	2.652669	0.000000	0.226938	0.000000	0.008056	0.000136	0.000000	0.000000
41.625604	17.956954	15.127153	-0.913836	0.994476	2.755528	0.000000	0.147152	0.000000	0.008059	-0.000125	0.000000	0.000000
42.174664	18.662069	14.331357	-0.362769	0.463293	2.813929	0.000000	0.064754	0.000000	0.007919	-0.000384	0.000000	0.000000
42.723724	18.744138	14.097489	0.213924	-0.034882	2.826835	0.000000	-0.018799	0.000000	0.007639	-0.000636	0.000000	0.000000
43.022297	18.648586	14.104029	0.151771	-0.021502	2.823465	0.000000	-0.011896	0.000000	0.007455	-0.000616	0.000000	0.000000
43.502297	18.515525	14.141015	0.125439	-0.055551	2.818050	0.000000	-0.011896	0.000000	0.007159	-0.000616	0.000000	0.000000
43.982297	18.407743	14.210687	0.099107	-0.089599	2.812636	0.000000	-0.011896	0.000000	0.006863	-0.000616	0.000000	0.000000
44.462297	18.325240	14.313045	0.072775	-0.123648	2.807222	0.000000	-0.011896	0.000000	0.006567	-0.000616	0.000000	0.000000
44.942297	18.268015	14.448091	0.046443	-0.157696	2.801808	0.000000	-0.011896	0.000000	0.006271	-0.000616	0.000000	0.000000
45.423547	18.236246	14.616121	-0.070310	-0.119416	2.796397	0.000000	0.001959	0.000000	0.005975	-0.000587	0.000000	0.000000
45.720870	18.282945	14.693251	-0.132109	-0.103674	2.797155	0.000000	0.008907	0.000000	0.005800	-0.000572	0.000000	0.000000
46.269930	18.119874	15.091002	0.426981	-0.624966	2.779716	0.000000	-0.073606	0.000000	0.005436	-0.000754	0.000000	0.000000
46.818990	17.355780	16.082177	0.955890	-1.190777	2.717352	0.000000	-0.154825	0.000000	0.004975	-0.000923	0.000000	0.000000
47.368050	16.044669	17.737371	1.417250	-1.841411	2.611161	0.000000	-0.233312	0.000000	0.004425	-0.001075	0.000000	0.000000
47.917110	14.279199	20.174478	1.778465	-2.623216	2.463021	0.000000	-0.307679	0.000000	0.003798	-0.001208	0.000000	0.000000
48.363070	12.904205	22.340724	1.315075	-2.213640	2.341666	0.000000	-0.239063	0.000000	0.003280	-0.001116	0.000000	0.000000
48.804030	11.924075	24.075246	0.915596	-1.704732	2.251230	0.000000	-0.173567	0.000000	0.002805	-0.001038	0.000000	0.000000
49.244990	11.276581	25.324873	0.557960	-1.118256	2.189186	0.000000	-0.110038	0.000000	0.002362	-0.000971	0.000000	0.000000
49.685950	10.932127	26.032753	0.225826	-0.480902	2.154831	0.000000	-0.047752	0.000000	0.001947	-0.000916	0.000000	0.000000
50.128160	10.875140	26.166398	-0.069824	0.115385	2.147789	0.000000	0.008811	0.000000	0.001552	-0.000875	0.000000	0.000000
50.425482	10.924829	26.101208	-0.097297	0.103871	2.150669	0.000000	0.008811	0.000000	0.001292	-0.000875	0.000000	0.000000
50.758816	10.999961	26.036264	-0.128098	0.090962	2.153898	0.000000	0.008811	0.000000	0.001000	-0.000875	0.000000	0.000000
51.092149	11.095626	25.979925	-0.158898	0.078054	2.157126	0.000000	0.008811	0.000000	0.000709	-0.000875	0.000000	0.000000
51.426732	11.212072	25.932555	-0.098854	-0.145281	2.160345	0.000000	-0.008715	0.000000	0.000416	-0.000878	0.000000	0.000000
51.724055	11.278817	26.022427	-0.098013	-0.221035	2.158015	0.000000	-0.013999	0.000000	0.000155	-0.000878	0.000000	0.000000
52.165015	11.512083	25.927689	-0.433276	0.435063	2.165884	0.000000	0.048025	0.000000	-0.000232	-0.000879	0.000000	0.000000
52.605975	12.048592	25.260882	-0.788327	1.071362	2.201203	0.000000	0.110605	0.000000	-0.000622	-0.000890	0.000000	0.000000
53.046935	12.912846	24.052354	-1.179386	1.658914	2.264376	0.000000	0.174454	0.000000	-0.001019	-0.000912	0.000000	0.000000
53.487895	14.144318	22.357101	-1.624319	2.170984	2.356127	0.000000	0.240301	0.000000	-0.001427	-0.000943	0.000000	0.000000
53.933855	15.820310	20.226923	-2.147722	2.585586	2.479024	0.000000	0.309289	0.000000	-0.001857	-0.000986	0.000000	0.000000
54.482915	17.977571	17.829495	-1.758603	1.806740	2.629002	0.000000	0.234394	0.000000	-0.002380	-0.000917	0.000000	0.000000
55.031975	19.636392	16.212062	-1.245296	1.156580	2.736609	0.000000	0.155326	0.000000	-0.002861	-0.000832	0.000000	0.000000
55.581035	20.679640	15.259410	-0.644054	0.588798	2.799929	0.000000	0.073489	0.000000	-0.003291	-0.000732	0.000000	0.000000
56.130095	21.033661	14.903677	0.002659	0.062954	2.817834	0.000000	-0.009662	0.000000	-0.003663	-0.000620	0.000000	0.000000
56.428668	21.070131	14.848097	-0.068206	0.082962	2.817401	0.000000	-0.002076	0.000000	-0.003851	-0.000629	0.000000	0.000000
56.762001	21.120899	14.800324	-0.084099	0.060358	2.816919	0.000000	-0.002076	0.000000	-0.004060	-0.000629	0.000000	0.000000
57.095334	21.182263	14.767620	-0.099993	0.037754	2.816437	0.000000	-0.002076	0.000000	-0.004270	-0.000629	0.000000	0.000000
57.429918	21.254513	14.749948	-0.115947	0.015065	2.815953	0.000000	-0.002076	0.000000	-0.004481	-0.000629	0.000000	0.000000
57.727240	21.327689	14.746975	-0.188000	0.034788	2.815524	0.000000	0.005565	0.000000	-0.004668	-0.000642	0.000000	0.000000
58.276300	21.169499	14.991471	0.474082	-0.482747	2.796050	0.000000	-0.077484	0.000000	-0.004978	-0.000486	0.000000	0.000000
58.825360	20.298542	15.819670	1.102674	-1.034660	2.731205	0.000000	-0.159166	0.000000	-0.005200	-0.000321	0.000000	0.000000
59.374420	18.776331	17.290550	1.653388	-1.660258	2.622135	0.000000	-0.238030	0.000000	-0.005329	-0.000150	0.000000	0.000000
59.923480	16.710359	19.508859	2.087339	-2.404093	2.470772	0.000000	-0.312676	0.000000	-0.005364	0.000023	0.000000	0.000000
60.369440	15.091924	21.480272	1.554735	-1.998025	2.346749	0.000000	-0.243935	0.000000	-0.005385	-0.000116	0.000000	0.000000
60.810400	13.926952	23.029562	1.097313	-1.502327	2.253818	0.000000	-0.178355	0.000000	-0.005467	-0.000256	0.000000	0.000000
61.251360	13.141796	24.109801	0.690015	-0.938287	2.189389	0.000000	-0.114802	0.000000	-0.005611	-0.000399	0.000000	0.000000
61.692320	12.700594	24.671846	0.314238	-0.331563	2.152730	0.000000	-0.052553	0.000000	-0.005820	-0.000546	0.000000	0.000000
62.134530	12.583240	24.689542	-0.014673	0.226458	2.143432	0.000000	0.003549	0.000000	-0.006095	-0.000685	0.000000	0.000000
62.431853	12.598991	24.558643	-0.038306	0.213798	2.144691	0.000000	0.003549	0.000000	-0.006298	-0.000685	0.000000	0.000000
62.765186	12.633361	24.420842	-0.064802	0.199605	2.146102	0.000000	0.003549	0.000000	-0.006527	-0.000685	0.000000	0.000000
63.098520	12.685395	24.292503	-0.091298	0.185412	2.147513	0.000000	0.003549	0.000000	-0.006755	-0.000685	0.000000	0.000000
63.433103	12.755387	24.173199	-0.117894	0.171165	2.148930	0.000000	0.003549	0.000000	-0.006984	-0.000685	0.000000	0.000000
63.730426	12.832500	24.075217	-0.107962	0.095297	2.150187	0.000000	-0.002075	0.000000	-0.007187	-0.000666	0.000000	0.000000
64.171386	13.090210	23.726144	-0.479028	0.693395	2.163226	0.000000	0.059802	0.000000	-0.007523	-0.000856	0.000000	0.000000
64.612346	13.683469	22.861603	-0.871966	1.259949	2.203755	0.000000	0.122369	0.000000	-0.007944	-0.001055	0.000000	0.000000
65.053306	14.639357	21.520931	-1.304718	1.769185	2.272242	0.000000	0.186341	0.000000	-0.008455	-0.001267	0.000000	0.000000
65.494266	16.001513	19.765124	-1.797047	2.197940	2.369469	0.000000	0.252448	0.000000	-0.009063	-0.001492	0.000000	0.000000
65.940226	17.855466	17.649175	-2.375918	2.527260	2.498139	0.000000	0.321817	0.000000	-0.009782	-0.001737	0.000000	0.000000
66.489286	20.229205	15.282585	-1.923245	1.809060	2.655120	0.000000	0.246209	0.000000	-0.010646	-0.001406	0.000000	0.000000
67.038346	22.028035	13.629636	-1.334815	1.219684	2.769141	0.000000	0.166212	0.000000	-0.011321	-0.001050	0.000000	0.000000
67.587406	23.125014	12.572605	-0.652169	0.717160	2.838172	0.000000	0.083251	0.000000	-0.011795	-0.000676	0.000000	0.000000
68.136466	23.442738	12.036212	0.076505	0.265703	2.860982	0.000000	-0.001197	0.000000	-0.012061	-0.000289	0.000000	0.000000
68.435038	23.440912	11.865028	-0.003479	0.273234	2.863165	0.000000	0.007010	0.000000	-0.012157	-0.000322	0.000000	0.000000
68.768372	23.447971	11.692936	-0.017699	0.243043	2.865609	0.000000	0.007010	0.000000	-0.012264	-0.000322	0.000000	0.000000
69.101705	23.464511	11.540971	-0.031919	0.212852	2.868053	0.000000	0.007010	0.000000	-0.012372	-0.000322	0.000000	0.000000
69.436288	23.490646	11.408678	-0.046193	0.182547	2.870506	0.000000	0.007010	0.000000	-0.012479	-0.000322	0.000000	0.000000
69.733611	23.521994	11.308081	-0.126593	0.188117	2.872693	0.000000	0.015279	0.000000	-0.012575	-0.000357	0.000000	0.000000
70.282671	23.257081	11.328144	0.606208	-0.224881	2.857821	0.000000	-0.069675	0.000000	-0.012659	0.000052	0.000000	0.000000
