#ParticleID	Turn	x[m]	xp	y[m]	yp	z[m]	dE[GeV]# s	beta_x	beta_y	alpha_x	alpha_y	D_x	D_y	D_px	D_py	orbit_x	orbit_px	orbit_y	orbit_py
0.300000	11.964915	25.324646	-0.019400	-0.021851	2.598563	0.000000	0.000213	0.000000	-0.000956	0.000827	0.000000	0.000000
0.601250	11.984191	25.341397	-0.044587	-0.033752	2.598378	0.000000	0.000213	0.000000	-0.000707	0.000827	0.000000	0.000000
0.898573	12.018096	25.364960	-0.039846	-0.107671	2.598195	0.000000	-0.006187	0.000000	-0.000461	0.000828	0.000000	0.000000
1.339533	12.207162	25.178401	-0.390258	0.529137	2.611297	0.000000	0.067252	0.000000	-0.000098	0.000821	0.000000	0.000000
1.780493	12.711936	24.438737	-0.758507	1.141872	2.656919	0.000000	0.141447	0.000000	0.000264	0.000823	0.000000	0.000000
2.221453	13.555489	23.179614	-1.161417	1.702656	2.735578	0.000000	0.217245	0.000000	0.000629	0.000835	0.000000	0.000000
2.662413	14.776369	21.458314	-1.617397	2.185971	2.848167	0.000000	0.295509	0.000000	0.001002	0.000856	0.000000	0.000000
3.108373	16.451453	19.327930	-2.151657	2.570999	2.997809	0.000000	0.377620	0.000000	0.001390	0.000887	0.000000	0.000000
3.657433	18.598641	16.934774	-1.735328	1.813268	3.179644	0.000000	0.285385	0.000000	0.001863	0.000834	0.000000	0.000000
4.206493	20.218216	15.298324	-1.196398	1.184694	3.309405	0.000000	0.188101	0.000000	0.002303	0.000767	0.000000	0.000000
4.755553	21.195745	14.302026	-0.572936	0.640505	3.384798	0.000000	0.087493	0.000000	0.002702	0.000685	0.000000	0.000000
5.304613	21.462151	13.874921	0.091015	0.141938	3.404489	0.000000	-0.014656	0.000000	0.003054	0.000592	0.000000	0.000000
5.603185	21.444578	13.775775	0.022453	0.154943	3.402521	0.000000	-0.005990	0.000000	0.003233	0.000600	0.000000	0.000000
5.936519	21.434793	13.680738	0.006902	0.130165	3.400324	0.000000	-0.005990	0.000000	0.003433	0.000600	0.000000	0.000000
6.269852	21.435376	13.602221	-0.008650	0.105387	3.398128	0.000000	-0.005990	0.000000	0.003633	0.000600	0.000000	0.000000
6.604435	21.446387	13.540020	-0.024260	0.080517	3.395923	0.000000	-0.005990	0.000000	0.003834	0.000600	0.000000	0.000000
6.901758	21.464948	13.498706	-0.092309	0.092605	3.393964	0.000000	0.002576	0.000000	0.004012	0.000610	0.000000	0.000000
7.450818	21.200275	13.658865	0.571805	-0.386005	3.367135	0.000000	-0.099120	0.000000	0.004311	0.000476	0.000000	0.000000
7.999878	20.224192	14.356555	1.195533	-0.892115	3.284940	0.000000	-0.199050	0.000000	0.004533	0.000332	0.000000	0.000000
8.548938	18.605651	15.641483	1.734804	-1.461778	3.148842	0.000000	-0.295444	0.000000	0.004675	0.000183	0.000000	0.000000
9.097998	16.459004	17.605185	2.151517	-2.135575	2.961258	0.000000	-0.386593	0.000000	0.004733	0.000031	0.000000	0.000000
9.543958	14.784252	19.354694	1.617030	-1.770602	2.806979	0.000000	-0.305468	0.000000	0.004774	0.000154	0.000000	0.000000
9.984918	13.563888	20.725667	1.160884	-1.326417	2.689302	0.000000	-0.228322	0.000000	0.004870	0.000278	0.000000	0.000000
10.425878	12.721028	21.676662	0.757784	-0.821871	2.604985	0.000000	-0.153780	0.000000	0.005020	0.000406	0.000000	0.000000
10.866838	12.217154	22.164402	0.389309	-0.279925	2.553067	0.000000	-0.080994	0.000000	0.005228	0.000538	0.000000	0.000000
11.309048	12.029090	22.166110	0.066462	0.222997	2.532937	0.000000	-0.015020	0.000000	0.005496	0.000663	0.000000	0.000000
11.606371	11.996950	22.037692	0.041636	0.208917	2.528274	0.000000	-0.015020	0.000000	0.005694	0.000663	0.000000	0.000000
12.086371	11.976218	21.848043	0.001556	0.186185	2.520746	0.000000	-0.015020	0.000000	0.006012	0.000663	0.000000	0.000000
12.566371	11.993963	21.680217	-0.038524	0.163454	2.513218	0.000000	-0.015020	0.000000	0.006330	0.000663	0.000000	0.000000
13.046371	12.050183	21.534212	-0.078603	0.140722	2.505690	0.000000	-0.015020	0.000000	0.006648	0.000663	0.000000	0.000000
13.526371	12.144881	21.410030	-0.118683	0.117991	2.498162	0.000000	-0.015020	0.000000	0.006967	0.000663	0.000000	0.000000
14.007621	12.278451	21.307432	-0.158867	0.095200	2.490614	0.000000	-0.015020	0.000000	0.007286	0.000663	0.000000	0.000000
14.304943	12.380282	21.255043	-0.155524	0.032949	2.485949	0.000000	-0.020677	0.000000	0.007483	0.000645	0.000000	0.000000
14.745903	12.676219	20.993503	-0.517803	0.557843	2.492047	0.000000	0.049793	0.000000	0.007810	0.000842	0.000000	0.000000
15.186863	13.300925	20.278462	-0.903754	1.057354	2.529231	0.000000	0.120820	0.000000	0.008227	0.001049	0.000000	0.000000
15.627823	14.282966	19.142453	-1.331018	1.508747	2.597920	0.000000	0.193213	0.000000	0.008738	0.001268	0.000000	0.000000
16.068783	15.667244	17.637164	-1.819128	1.891480	2.698893	0.000000	0.267793	0.000000	0.009348	0.001501	0.000000	0.000000
16.514743	17.540689	15.809480	-2.395338	2.189066	2.834991	0.000000	0.345901	0.000000	0.010073	0.001753	0.000000	0.000000
17.063803	19.946106	13.769533	-1.958171	1.547649	3.000539	0.000000	0.259181	0.000000	0.010943	0.001412	0.000000	0.000000
17.612863	21.792021	12.369701	-1.382593	1.016496	3.117326	0.000000	0.167884	0.000000	0.011619	0.001047	0.000000	0.000000
18.161923	22.947929	11.510265	-0.709284	0.557766	3.183287	0.000000	0.073626	0.000000	0.012090	0.000663	0.000000	0.000000
18.710983	23.332102	11.130000	0.014165	0.138776	3.197259	0.000000	-0.021928	0.000000	0.012345	0.000267	0.000000	0.000000
19.009556	23.359882	11.039923	-0.053104	0.137153	3.192844	0.000000	-0.014466	0.000000	0.012434	0.000297	0.000000	0.000000
19.342889	23.400054	10.958741	-0.067413	0.106392	3.187923	0.000000	-0.014466	0.000000	0.012533	0.000297	0.000000	0.000000
19.676223	23.449766	10.898067	-0.081723	0.075630	3.183002	0.000000	-0.014466	0.000000	0.012632	0.000297	0.000000	0.000000
20.010806	23.509550	10.857655	-0.212566	0.098549	3.178082	0.000000	0.001280	0.000000	0.012732	0.000360	0.000000	0.000000
20.308129	23.639996	10.807222	-0.280676	0.096057	3.178363	0.000000	0.008660	0.000000	0.012839	0.000392	0.000000	0.000000
20.857189	23.540693	10.921314	0.460556	-0.305042	3.156955	0.000000	-0.086162	0.000000	0.012940	-0.000026	0.000000	0.000000
21.406249	22.640256	11.485224	1.169238	-0.727878	3.084036	0.000000	-0.179457	0.000000	0.012811	-0.000443	0.000000	0.000000
21.955309	21.002342	12.539127	1.795276	-1.202576	2.960901	0.000000	-0.269574	0.000000	0.012455	-0.000852	0.000000	0.000000
22.504369	18.742751	14.158108	2.294419	-1.762958	2.789730	0.000000	-0.354921	0.000000	0.011878	-0.001247	0.000000	0.000000
22.950329	16.964057	15.612633	1.706735	-1.484193	2.649109	0.000000	-0.278036	0.000000	0.011389	-0.000945	0.000000	0.000000
23.391289	15.685889	16.773934	1.202027	-1.138938	2.543076	0.000000	-0.204800	0.000000	0.011037	-0.000656	0.000000	0.000000
23.832249	14.827148	17.606584	0.752269	-0.741846	2.468680	0.000000	-0.133890	0.000000	0.010810	-0.000374	0.000000	0.000000
24.273209	14.348568	18.072689	0.336899	-0.310992	2.425074	0.000000	-0.064501	0.000000	0.010706	-0.000097	0.000000	0.000000
24.715418	14.228394	18.150742	-0.031903	0.094029	2.411764	0.000000	-0.001144	0.000000	0.010725	0.000155	0.000000	0.000000
25.012741	14.253584	18.099741	-0.052820	0.077504	2.411378	0.000000	-0.001144	0.000000	0.010771	0.000155	0.000000	0.000000
25.346075	14.296614	18.054248	-0.076272	0.058977	2.410945	0.000000	-0.001144	0.000000	0.010822	0.000155	0.000000	0.000000
25.679408	14.355279	18.021105	-0.099723	0.040450	2.410512	0.000000	-0.001144	0.000000	0.010874	0.000155	0.000000	0.000000
26.013991	14.429594	18.000625	-0.006200	-0.124177	2.410053	0.000000	-0.020696	0.000000	0.010926	0.000066	0.000000	0.000000
26.311314	14.439356	18.079516	0.004835	-0.180555	2.403876	0.000000	-0.025963	0.000000	0.010945	0.000041	0.000000	0.000000
26.752274	14.613616	18.042917	-0.401379	0.263224	2.407411	0.000000	0.042363	0.000000	0.011026	0.000324	0.000000	0.000000
27.193234	15.152942	17.618686	-0.825943	0.695024	2.441036	0.000000	0.111168	0.000000	0.011232	0.000611	0.000000	0.000000
27.634194	16.081999	16.826127	-1.288266	1.095192	2.505132	0.000000	0.181233	0.000000	0.011566	0.000905	0.000000	0.000000
28.075154	17.443272	15.701306	-1.809485	1.445516	2.600427	0.000000	0.253354	0.000000	0.012031	0.001209	0.000000	0.000000
28.521114	19.322924	14.278292	-2.418598	1.731198	2.729619	0.000000	0.328830	0.000000	0.012642	0.001529	0.000000	0.000000
29.070174	21.713233	12.693634	-1.907486	1.171433	2.886897	0.000000	0.245653	0.000000	0.013367	0.001108	0.000000	0.000000
29.619234	23.464242	11.674594	-1.261536	0.695133	2.997467	0.000000	0.158136	0.000000	0.013855	0.000667	0.000000	0.000000
30.168294	24.452145	11.148577	-0.526410	0.268364	3.059371	0.000000	0.067823	0.000000	0.014097	0.000214	0.000000	0.000000
30.717354	24.607090	11.078106	0.245927	-0.139283	3.071514	0.000000	-0.023690	0.000000	0.014089	-0.000243	0.000000	0.000000
31.015927	24.497534	11.154302	0.176941	-0.141144	3.066597	0.000000	-0.016648	0.000000	0.014027	-0.000208	0.000000	0.000000
31.349260	24.384251	11.258558	0.162908	-0.171623	3.061117	0.000000	-0.016648	0.000000	0.013957	-0.000208	0.000000	0.000000
31.682593	24.280324	11.383133	0.148875	-0.202102	3.055637	0.000000	-0.016648	0.000000	0.013888	-0.000208	0.000000	0.000000
32.017177	24.185414	11.528609	0.134790	-0.232696	3.050137	0.000000	-0.016648	0.000000	0.013818	-0.000208	0.000000	0.000000
32.314499	24.109118	11.674999	0.066805	-0.233052	3.045257	0.000000	-0.009642	0.000000	0.013756	-0.000175	0.000000	0.000000
32.863559	23.622969	12.169371	0.812929	-0.672486	3.015311	0.000000	-0.100014	0.000000	0.013538	-0.000617	0.000000	0.000000
33.412619	22.344044	13.169710	1.501584	-1.159836	2.936379	0.000000	-0.188622	0.000000	0.013081	-0.001048	0.000000	0.000000
33.961679	20.362775	14.747281	2.084092	-1.729825	2.809855	0.000000	-0.273899	0.000000	0.012391	-0.001461	0.000000	0.000000
34.510739	17.819247	17.014470	2.519280	-2.423062	2.637975	0.000000	-0.354341	0.000000	0.011481	-0.001848	0.000000	0.000000
34.956699	15.843180	19.042828	1.925948	-2.105422	2.496999	0.000000	-0.281405	0.000000	0.010721	-0.001560	0.000000	0.000000
35.397659	14.370277	20.724411	1.425825	-1.692953	2.388879	0.000000	-0.212120	0.000000	0.010093	-0.001291	0.000000	0.000000
35.838619	13.308282	22.006664	0.990884	-1.203438	2.310648	0.000000	-0.145239	0.000000	0.009580	-0.001038	0.000000	0.000000
36.279579	12.608630	22.831242	0.601240	-0.659155	2.261418	0.000000	-0.080000	0.000000	0.009176	-0.000796	0.000000	0.000000
36.721789	12.238690	23.160915	0.266409	-0.136668	2.240610	0.000000	-0.020688	0.000000	0.008876	-0.000584	0.000000	0.000000
37.019112	12.088007	23.246072	0.240391	-0.149745	2.234633	0.000000	-0.020688	0.000000	0.008703	-0.000584	0.000000	0.000000
37.352445	11.937469	23.350789	0.211222	-0.164406	2.227931	0.000000	-0.020688	0.000000	0.008508	-0.000584	0.000000	0.000000
37.685779	11.806377	23.465280	0.182053	-0.179067	2.221230	0.000000	-0.020688	0.000000	0.008313	-0.000584	0.000000	0.000000
38.020362	11.694349	23.590029	0.152775	-0.193783	2.214504	0.000000	-0.020688	0.000000	0.008118	-0.000584	0.000000	0.000000
38.317684	11.611217	23.709193	0.153049	-0.260744	2.208524	0.000000	-0.025689	0.000000	0.007944	-0.000603	0.000000	0.000000
38.758644	11.624998	23.676407	-0.184583	0.334806	2.211359	0.000000	0.037585	0.000000	0.007723	-0.000401	0.000000	0.000000
39.199604	11.939184	23.123074	-0.530649	0.915117	2.242082	0.000000	0.101292	0.000000	0.007590	-0.000203	0.000000	0.000000
39.640564	12.568133	22.074380	-0.900964	1.453782	2.301044	0.000000	0.166155	0.000000	0.007543	-0.000008	0.000000	0.000000
40.081524	13.540592	20.578048	-1.312456	1.926287	2.388917	0.000000	0.232910	0.000000	0.007583	0.000187	0.000000	0.000000
40.527484	14.918573	18.679431	-1.787876	2.312624	2.508189	0.000000	0.302747	0.000000	0.007710	0.000385	0.000000	0.000000
41.076544	16.679748	16.545325	-1.400279	1.596725	2.653701	0.000000	0.226953	0.000000	0.007853	0.000133	0.000000	0.000000
41.625604	17.957995	15.130734	-0.913737	0.994581	2.756559	0.000000	0.147135	0.000000	0.007856	-0.000122	0.000000	0.000000
42.174664	18.662981	14.334881	-0.362635	0.463296	2.814939	0.000000	0.064704	0.000000	0.007720	-0.000374	0.000000	0.000000
42.723724	18.744892	14.101065	0.214084	-0.034980	2.827801	0.000000	-0.018881	0.000000	0.007446	-0.000620	0.000000	0.000000
43.022297	18.649297	14.107622	0.151847	-0.021528	2.824406	0.000000	-0.011963	0.000000	0.007267	-0.000601	0.000000	0.000000
43.502297	18.516163	14.144628	0.125515	-0.055568	2.818953	0.000000	-0.011963	0.000000	0.006979	-0.000601	0.000000	0.000000
43.982297	18.408308	14.214313	0.099183	-0.089608	2.813499	0.000000	-0.011963	0.000000	0.006690	-0.000601	0.000000	0.000000
44.462297	18.325731	14.316676	0.072852	-0.123648	2.808045	0.000000	-0.011963	0.000000	0.006402	-0.000601	0.000000	0.000000
44.942297	18.268433	14.451717	0.046520	-0.157688	2.802591	0.000000	-0.011963	0.000000	0.006114	-0.000601	0.000000	0.000000
45.423547	18.236588	14.619736	-0.070235	-0.119381	2.797141	0.000000	0.001896	0.000000	0.005824	-0.000572	0.000000	0.000000
45.720870	18.283242	14.696844	-0.132094	-0.103573	2.797876	0.000000	0.008855	0.000000	0.005654	-0.000558	0.000000	0.000000
46.269930	18.120155	15.094541	0.427004	-0.624968	2.780393	0.000000	-0.073680	0.000000	0.005299	-0.000735	0.000000	0.000000
46.818990	17.356039	16.085771	0.955919	-1.190881	2.717971	0.000000	-0.154920	0.000000	0.004850	-0.000899	0.000000	0.000000
47.368050	16.044903	17.741136	1.417284	-1.841625	2.611710	0.000000	-0.233426	0.000000	0.004314	-0.001048	0.000000	0.000000
47.917110	14.279403	20.178541	1.778502	-2.623555	2.463488	0.000000	-0.307808	0.000000	0.003702	-0.001178	0.000000	0.000000
48.363070	12.904384	22.345040	1.315108	-2.213874	2.342064	0.000000	-0.239181	0.000000	0.003197	-0.001088	0.000000	0.000000
48.804030	11.924232	24.079715	0.915624	-1.704847	2.251567	0.000000	-0.173677	0.000000	0.002735	-0.001012	0.000000	0.000000
49.244990	11.276720	25.329389	0.557984	-1.118249	2.189466	0.000000	-0.110140	0.000000	0.002303	-0.000947	0.000000	0.000000
49.685950	10.932249	26.037208	0.225847	-0.480772	2.155057	0.000000	-0.047847	0.000000	0.001898	-0.000893	0.000000	0.000000
50.128160	10.875247	26.170685	-0.069795	0.115589	2.147965	0.000000	0.008718	0.000000	0.001513	-0.000852	0.000000	0.000000
50.425482	10.924919	26.105374	-0.097268	0.104077	2.150810	0.000000	0.008718	0.000000	0.001260	-0.000852	0.000000	0.000000
50.758816	11.000031	26.040292	-0.128068	0.091169	2.154001	0.000000	0.008718	0.000000	0.000976	-0.000852	0.000000	0.000000
51.092149	11.095676	25.983814	-0.158868	0.078262	2.157191	0.000000	0.008718	0.000000	0.000692	-0.000852	0.000000	0.000000
51.426732	11.212102	25.936305	-0.098823	-0.145101	2.160371	0.000000	-0.008808	0.000000	0.000406	-0.000856	0.000000	0.000000
51.724055	11.278828	26.026068	-0.097981	-0.220856	2.158007	0.000000	-0.014092	0.000000	0.000152	-0.000856	0.000000	0.000000
52.165015	11.512069	25.931130	-0.433243	0.435336	2.165826	0.000000	0.047931	0.000000	-0.000225	-0.000857	0.000000	0.000000
52.605975	12.048552	25.264046	-0.788292	1.071716	2.201093	0.000000	0.110509	0.000000	-0.000605	-0.000868	0.000000	0.000000
53.046935	12.912777	24.055176	-1.179348	1.659332	2.264214	0.000000	0.174355	0.000000	-0.000992	-0.000888	0.000000	0.000000
53.487895	14.144218	22.359530	-1.624276	2.171449	2.355910	0.000000	0.240196	0.000000	-0.001390	-0.000919	0.000000	0.000000
53.933855	15.820174	20.228924	-2.147673	2.586077	2.478749	0.000000	0.309179	0.000000	-0.001809	-0.000961	0.000000	0.000000
54.482915	17.977389	17.831012	-1.758554	1.807133	2.628656	0.000000	0.234293	0.000000	-0.002319	-0.000894	0.000000	0.000000
55.031975	19.636165	16.213186	-1.245249	1.156904	2.736199	0.000000	0.155237	0.000000	-0.002787	-0.000811	0.000000	0.000000
55.581035	20.679372	15.260204	-0.644012	0.589076	2.799464	0.000000	0.073415	0.000000	-0.003207	-0.000714	0.000000	0.000000
56.130095	21.033356	14.904180	0.002694	0.063206	2.817323	0.000000	-0.009721	0.000000	-0.003569	-0.000604	0.000000	0.000000
56.428668	21.069780	14.848469	-0.068128	0.083182	2.816866	0.000000	-0.002142	0.000000	-0.003752	-0.000614	0.000000	0.000000
56.762001	21.120497	14.800549	-0.084022	0.060578	2.816357	0.000000	-0.002142	0.000000	-0.003957	-0.000614	0.000000	0.000000
57.095334	21.181809	14.767699	-0.099916	0.037973	2.815848	0.000000	-0.002142	0.000000	-0.004161	-0.000614	0.000000	0.000000
57.429918	21.254007	14.749880	-0.115869	0.015284	2.815336	0.000000	-0.002142	0.000000	-0.004367	-0.000614	0.000000	0.000000
57.727240	21.327137	14.746777	-0.187867	0.034973	2.814883	0.000000	0.005490	0.000000	-0.004549	-0.000626	0.000000	0.000000
58.276300	21.168815	14.991066	0.474196	-0.482551	2.795366	0.000000	-0.077537	0.000000	-0.004851	-0.000473	0.000000	0.000000
58.825360	20.297749	15.819039	1.102760	-1.034440	2.730492	0.000000	-0.159197	0.000000	-0.005067	-0.000313	0.000000	0.000000
59.374420	18.775460	17.289659	1.653441	-1.659997	2.621408	0.000000	-0.238039	0.000000	-0.005193	-0.000147	0.000000	0.000000
59.923480	16.709447	19.507656	2.087354	-2.403773	2.470045	0.000000	-0.312661	0.000000	-0.005228	0.000022	0.000000	0.000000
60.369440	15.090994	21.478788	1.554760	-1.997714	2.346025	0.000000	-0.243939	0.000000	-0.005248	-0.000114	0.000000	0.000000
60.810400	13.925992	23.027818	1.097353	-1.502043	2.253086	0.000000	-0.178377	0.000000	-0.005328	-0.000250	0.000000	0.000000
61.251360	13.140794	24.107823	0.690072	-0.938041	2.188639	0.000000	-0.114843	0.000000	-0.005469	-0.000389	0.000000	0.000000
61.692320	12.699534	24.669674	0.314314	-0.331366	2.151953	0.000000	-0.052613	0.000000	-0.005672	-0.000533	0.000000	0.000000
62.134530	12.582105	24.687222	-0.014621	0.226682	2.142617	0.000000	0.003478	0.000000	-0.005940	-0.000667	0.000000	0.000000
62.431853	12.597826	24.556192	-0.038257	0.214020	2.143850	0.000000	0.003478	0.000000	-0.006138	-0.000667	0.000000	0.000000
62.765186	12.632164	24.418244	-0.064755	0.199824	2.145232	0.000000	0.003478	0.000000	-0.006361	-0.000667	0.000000	0.000000
63.098520	12.684166	24.289760	-0.091253	0.185627	2.146613	0.000000	0.003478	0.000000	-0.006583	-0.000667	0.000000	0.000000
63.433103	12.754129	24.170312	-0.117851	0.171378	2.148000	0.000000	0.003478	0.000000	-0.006807	-0.000667	0.000000	0.000000
63.730426	12.831218	24.072203	-0.107977	0.095619	2.149231	0.000000	-0.002135	0.000000	-0.007005	-0.000650	0.000000	0.000000
64.171386	13.088933	23.722881	-0.479016	0.693631	2.162230	0.000000	0.059717	0.000000	-0.007332	-0.000834	0.000000	0.000000
64.612346	13.682174	22.858172	-0.871925	1.260087	2.202707	0.000000	0.122258	0.000000	-0.007742	-0.001029	0.000000	0.000000
65.053306	14.638023	21.517419	-1.304649	1.769219	2.271126	0.000000	0.186203	0.000000	-0.008240	-0.001235	0.000000	0.000000
65.494266	16.000115	19.761624	-1.796946	2.197869	2.368272	0.000000	0.252280	0.000000	-0.008833	-0.001455	0.000000	0.000000
65.940226	17.853973	17.645782	-2.375789	2.527089	2.496843	0.000000	0.321618	0.000000	-0.009534	-0.001693	0.000000	0.000000
66.489286	20.227616	15.279324	-1.923162	1.808974	2.653706	0.000000	0.246053	0.000000	-0.010376	-0.001370	0.000000	0.000000
67.038346	22.026399	13.626420	-1.334782	1.219677	2.767638	0.000000	0.166103	0.000000	-0.011034	-0.001023	0.000000	0.000000
67.587406	23.123381	12.569349	-0.652185	0.717233	2.836611	0.000000	0.083191	0.000000	-0.011496	-0.000659	0.000000	0.000000
68.136466	23.441156	12.032827	0.076440	0.265861	2.859396	0.000000	-0.001207	0.000000	-0.011755	-0.000282	0.000000	0.000000
68.435038	23.439283	11.861601	-0.003392	0.273296	2.861567	0.000000	0.006977	0.000000	-0.011849	-0.000314	0.000000	0.000000
68.768372	23.446285	11.689471	-0.017614	0.243096	2.863998	0.000000	0.006977	0.000000	-0.011953	-0.000314	0.000000	0.000000
69.101705	23.462768	11.537474	-0.031835	0.212895	2.866428	0.000000	0.006977	0.000000	-0.012058	-0.000314	0.000000	0.000000
69.436288	23.488847	11.405154	-0.046110	0.182581	2.868868	0.000000	0.006977	0.000000	-0.012163	-0.000314	0.000000	0.000000
69.733611	23.520141	11.304543	-0.126352	0.188060	2.871042	0.000000	0.015224	0.000000	-0.012256	-0.000348	0.000000	0.000000
70.282671	23.254995	11.324617	0.606387	-0.224842	2.856152	0.000000	-0.069678	0.000000	-0.012338	0.000051	0.000000	0.000000
