#ParticleID	Turn	x[m]	xp	y[m]	yp	z[m]	dE[GeV]# s	beta_x	beta_y	alpha_x	alpha_y	D_x	D_y	D_px	D_py	orbit_x	orbit_px	orbit_y	orbit_py
0.300000	11.906929	25.002993	-0.008831	-0.029079	2.607677	0.000000	-0.002927	0.000000	-0.001311	0.001089	0.000000	0.000000
0.601250	11.919872	25.024146	-0.034133	-0.041138	2.606467	0.000000	-0.002927	0.000000	-0.000983	0.001089	0.000000	0.000000
0.898573	11.947594	25.052147	-0.029624	-0.114467	2.605273	0.000000	-0.009356	0.000000	-0.000659	0.001090	0.000000	0.000000
1.339533	12.126894	24.875204	-0.378162	0.514211	2.616904	0.000000	0.064246	0.000000	-0.000181	0.001079	0.000000	0.000000
1.780493	12.620014	24.152050	-0.743984	1.119498	2.661121	0.000000	0.138568	0.000000	0.000295	0.001081	0.000000	0.000000
2.221453	13.449493	22.915580	-1.143807	1.673851	2.738422	0.000000	0.214457	0.000000	0.000774	0.001095	0.000000	0.000000
2.662413	14.653242	21.222042	-1.595897	2.152047	2.849684	0.000000	0.292776	0.000000	0.001262	0.001121	0.000000	0.000000
3.108373	16.307099	19.123631	-2.125252	2.533505	2.998000	0.000000	0.374911	0.000000	0.001770	0.001160	0.000000	0.000000
3.657433	18.427098	16.766726	-1.712349	1.784322	3.178211	0.000000	0.282694	0.000000	0.002389	0.001093	0.000000	0.000000
4.206493	20.024161	15.158321	-1.178460	1.162235	3.306383	0.000000	0.185480	0.000000	0.002966	0.001006	0.000000	0.000000
4.755553	20.985437	14.183863	-0.561300	0.622934	3.380248	0.000000	0.084992	0.000000	0.003491	0.000901	0.000000	0.000000
5.304613	21.242989	13.773951	0.095533	0.128004	3.398505	0.000000	-0.016989	0.000000	0.003953	0.000781	0.000000	0.000000
5.603185	21.222172	13.683485	0.027805	0.140383	3.395759	0.000000	-0.008406	0.000000	0.004190	0.000791	0.000000	0.000000
5.936519	21.208875	13.598176	0.012086	0.115543	3.392693	0.000000	-0.008406	0.000000	0.004453	0.000791	0.000000	0.000000
6.269852	21.206057	13.529428	-0.003633	0.090702	3.389627	0.000000	-0.008406	0.000000	0.004717	0.000791	0.000000	0.000000
6.604435	21.213767	13.477075	-0.019411	0.065769	3.386550	0.000000	-0.008406	0.000000	0.004981	0.000791	0.000000	0.000000
6.901758	21.229495	13.444543	-0.086439	0.077340	3.383817	0.000000	0.000043	0.000000	0.005217	0.000804	0.000000	0.000000
7.450818	20.962790	13.620740	0.569707	-0.400116	3.355599	0.000000	-0.101306	0.000000	0.005611	0.000629	0.000000	0.000000
7.999878	19.993365	14.333769	1.185616	-0.906078	3.272239	0.000000	-0.200847	0.000000	0.005905	0.000442	0.000000	0.000000
8.548938	18.389705	15.634431	1.717767	-1.476591	3.135220	0.000000	-0.296818	0.000000	0.006095	0.000248	0.000000	0.000000
9.097998	16.265118	17.615388	2.128557	-2.152298	2.946977	0.000000	-0.387519	0.000000	0.006177	0.000049	0.000000	0.000000
9.543958	14.608350	19.380374	1.599448	-1.788349	2.792185	0.000000	-0.306763	0.000000	0.006234	0.000210	0.000000	0.000000
9.984918	13.401415	20.767190	1.147870	-1.344392	2.673817	0.000000	-0.230004	0.000000	0.006362	0.000372	0.000000	0.000000
10.425878	12.568241	21.733859	0.748746	-0.839254	2.588620	0.000000	-0.155869	0.000000	0.006563	0.000539	0.000000	0.000000
10.866838	12.070755	22.236387	0.383836	-0.295922	2.535620	0.000000	-0.083516	0.000000	0.006839	0.000712	0.000000	0.000000
11.309048	11.886082	22.251342	0.063487	0.209753	2.514190	0.000000	-0.017860	0.000000	0.007193	0.000876	0.000000	0.000000
11.606371	11.855797	22.130761	0.038372	0.195804	2.508619	0.000000	-0.017860	0.000000	0.007454	0.000876	0.000000	0.000000
12.086371	11.838423	21.953599	-0.002175	0.173283	2.499626	0.000000	-0.017860	0.000000	0.007874	0.000876	0.000000	0.000000
12.566371	11.859972	21.798058	-0.042721	0.150762	2.490633	0.000000	-0.017860	0.000000	0.008294	0.000876	0.000000	0.000000
13.046371	11.920447	21.664137	-0.083267	0.128241	2.481639	0.000000	-0.017860	0.000000	0.008715	0.000876	0.000000	0.000000
13.526371	12.019845	21.551835	-0.123813	0.105720	2.472646	0.000000	-0.017860	0.000000	0.009135	0.000876	0.000000	0.000000
14.007621	12.158579	21.460946	-0.164465	0.083141	2.463629	0.000000	-0.017860	0.000000	0.009556	0.000876	0.000000	0.000000
14.304943	12.263810	21.415715	-0.162372	0.021928	2.458055	0.000000	-0.023314	0.000000	0.009817	0.000853	0.000000	0.000000
14.745903	12.564747	21.161903	-0.522230	0.551388	2.462729	0.000000	0.046422	0.000000	0.010249	0.001111	0.000000	0.000000
15.186863	13.192441	20.450401	-0.905967	1.055756	2.498131	0.000000	0.116675	0.000000	0.010799	0.001383	0.000000	0.000000
15.627823	14.175601	19.313581	-1.331127	1.512077	2.564658	0.000000	0.188243	0.000000	0.011471	0.001670	0.000000	0.000000
16.068783	15.559195	17.803168	-1.817147	1.899582	2.663065	0.000000	0.261938	0.000000	0.012274	0.001976	0.000000	0.000000
16.514743	17.430186	15.966080	-2.391241	2.201672	2.796130	0.000000	0.339090	0.000000	0.013229	0.002307	0.000000	0.000000
17.063803	19.833736	13.914793	-1.958406	1.555638	2.958036	0.000000	0.253678	0.000000	0.014375	0.001860	0.000000	0.000000
17.612863	21.682503	12.508373	-1.387115	1.020445	3.071985	0.000000	0.163795	0.000000	0.015265	0.001379	0.000000	0.000000
18.161923	22.845745	11.646627	-0.717751	0.557963	3.135967	0.000000	0.071028	0.000000	0.015885	0.000874	0.000000	0.000000
18.710983	23.241190	11.268165	0.002365	0.135238	3.148856	0.000000	-0.022985	0.000000	0.016223	0.000354	0.000000	0.000000
19.009556	23.274566	11.180557	-0.062632	0.133268	3.143972	0.000000	-0.015924	0.000000	0.016340	0.000394	0.000000	0.000000
19.342889	23.321113	11.101826	-0.077010	0.102925	3.138532	0.000000	-0.015924	0.000000	0.016472	0.000394	0.000000	0.000000
19.676223	23.377246	11.043324	-0.091388	0.072582	3.133093	0.000000	-0.015924	0.000000	0.016603	0.000394	0.000000	0.000000
20.010806	23.443519	11.004809	-0.221972	0.096649	3.127653	0.000000	-0.000428	0.000000	0.016735	0.000477	0.000000	0.000000
20.308129	23.579667	10.955353	-0.287780	0.093859	3.127397	0.000000	0.006535	0.000000	0.016876	0.000517	0.000000	0.000000
20.857189	23.489195	11.074153	0.451704	-0.311454	3.105242	0.000000	-0.086635	0.000000	0.017010	-0.000032	0.000000	0.000000
21.406249	22.599084	11.647647	1.159257	-0.738961	3.032554	0.000000	-0.178268	0.000000	0.016842	-0.000580	0.000000	0.000000
21.955309	20.972277	12.716697	1.784855	-1.219127	2.910623	0.000000	-0.266747	0.000000	0.016374	-0.001119	0.000000	0.000000
22.504369	18.723820	14.357472	2.284267	-1.786164	2.741606	0.000000	-0.350511	0.000000	0.015617	-0.001637	0.000000	0.000000
22.950329	16.953396	15.830666	1.697684	-1.502351	2.602815	0.000000	-0.274833	0.000000	0.014975	-0.001240	0.000000	0.000000
23.391289	15.682729	17.005549	1.193745	-1.151321	2.498036	0.000000	-0.202768	0.000000	0.014513	-0.000860	0.000000	0.000000
23.832249	14.831017	17.846397	0.744389	-0.747888	2.424347	0.000000	-0.133004	0.000000	0.014216	-0.000489	0.000000	0.000000
24.273209	14.359305	18.314944	0.329066	-0.310414	2.380909	0.000000	-0.064751	0.000000	0.014080	-0.000125	0.000000	0.000000
24.715418	14.246205	18.389504	-0.041193	0.102198	2.367233	0.000000	-0.002236	0.000000	0.014106	0.000207	0.000000	0.000000
25.012741	14.276916	18.333589	-0.062099	0.085861	2.366507	0.000000	-0.002236	0.000000	0.014167	0.000207	0.000000	0.000000
25.346075	14.326128	18.282454	-0.085537	0.067546	2.365692	0.000000	-0.002236	0.000000	0.014236	0.000207	0.000000	0.000000
25.679408	14.390965	18.243528	-0.108975	0.049230	2.364878	0.000000	-0.002236	0.000000	0.014305	0.000207	0.000000	0.000000
26.013991	14.471465	18.217106	-0.015098	-0.116940	2.364037	0.000000	-0.021415	0.000000	0.014374	0.000090	0.000000	0.000000
26.311314	14.486465	18.291674	-0.005143	-0.171989	2.357636	0.000000	-0.026379	0.000000	0.014401	0.000057	0.000000	0.000000
26.752274	14.670125	18.244991	-0.412750	0.277432	2.360700	0.000000	0.040754	0.000000	0.014508	0.000430	0.000000	0.000000
27.193234	15.220341	17.805946	-0.839230	0.714227	2.393286	0.000000	0.108348	0.000000	0.014780	0.000807	0.000000	0.000000
27.634194	16.162282	16.994519	-1.304084	1.118512	2.455765	0.000000	0.177167	0.000000	0.015221	0.001194	0.000000	0.000000
28.075154	17.539037	15.847636	-1.828570	1.471888	2.548844	0.000000	0.247992	0.000000	0.015836	0.001595	0.000000	0.000000
28.521114	19.437880	14.399980	-2.441969	1.759504	2.675171	0.000000	0.322110	0.000000	0.016641	0.002016	0.000000	0.000000
29.070174	21.852892	12.787318	-1.928309	1.194248	2.829038	0.000000	0.240742	0.000000	0.017597	0.001461	0.000000	0.000000
29.619234	23.624887	11.745408	-1.278308	0.714092	2.937285	0.000000	0.155126	0.000000	0.018241	0.000881	0.000000	0.000000
30.168294	24.628536	11.200020	-0.537922	0.284824	2.998001	0.000000	0.066771	0.000000	0.018561	0.000284	0.000000	0.000000
30.717354	24.792850	11.112294	0.240497	-0.124148	3.010112	0.000000	-0.022765	0.000000	0.018552	-0.000317	0.000000	0.000000
31.015927	24.685079	11.180102	0.173827	-0.126933	3.005347	0.000000	-0.016183	0.000000	0.018471	-0.000273	0.000000	0.000000
31.349260	24.573832	11.274822	0.159916	-0.157228	3.000043	0.000000	-0.016183	0.000000	0.018380	-0.000273	0.000000	0.000000
31.682593	24.471858	11.389739	0.146004	-0.187523	2.994740	0.000000	-0.016183	0.000000	0.018289	-0.000273	0.000000	0.000000
32.017177	24.378829	11.525398	0.132041	-0.217932	2.989416	0.000000	-0.016183	0.000000	0.018198	-0.000273	0.000000	0.000000
32.314499	24.304235	11.662913	0.066230	-0.219369	2.984700	0.000000	-0.009625	0.000000	0.018117	-0.000229	0.000000	0.000000
32.863559	23.815031	12.141775	0.818890	-0.657707	2.955362	0.000000	-0.098056	0.000000	0.017830	-0.000812	0.000000	0.000000
33.412619	22.525972	13.124866	1.513644	-1.142912	2.878164	0.000000	-0.184760	0.000000	0.017228	-0.001380	0.000000	0.000000
33.961679	20.528235	14.682224	2.101372	-1.709559	2.754470	0.000000	-0.268208	0.000000	0.016319	-0.001923	0.000000	0.000000
34.510739	17.963113	16.924801	2.540523	-2.398021	2.586463	0.000000	-0.346927	0.000000	0.015121	-0.002433	0.000000	0.000000
34.956699	15.969894	18.931150	1.942603	-2.080941	2.448724	0.000000	-0.275271	0.000000	0.014122	-0.002053	0.000000	0.000000
35.397659	14.483821	20.591922	1.438781	-1.670246	2.343228	0.000000	-0.207193	0.000000	0.013295	-0.001700	0.000000	0.000000
35.838619	13.411685	21.855368	1.000746	-1.183532	2.267070	0.000000	-0.141456	0.000000	0.012619	-0.001366	0.000000	0.000000
36.279579	12.704445	22.663995	0.608469	-0.642953	2.219386	0.000000	-0.077317	0.000000	0.012088	-0.001047	0.000000	0.000000
36.721789	12.329124	22.981227	0.270693	-0.122866	2.199620	0.000000	-0.018827	0.000000	0.011693	-0.000768	0.000000	0.000000
37.019112	12.175853	23.058193	0.244811	-0.135999	2.194251	0.000000	-0.018827	0.000000	0.011465	-0.000768	0.000000	0.000000
37.352445	12.022318	23.153767	0.215793	-0.150722	2.188231	0.000000	-0.018827	0.000000	0.011209	-0.000768	0.000000	0.000000
37.685779	11.888128	23.259156	0.186776	-0.165446	2.182212	0.000000	-0.018827	0.000000	0.010953	-0.000768	0.000000	0.000000
38.020362	11.772889	23.374811	0.157650	-0.180225	2.176169	0.000000	-0.018827	0.000000	0.010696	-0.000768	0.000000	0.000000
38.317684	11.686801	23.485961	0.157516	-0.245356	2.170796	0.000000	-0.023610	0.000000	0.010467	-0.000792	0.000000	0.000000
38.758644	11.697375	23.442253	-0.181803	0.344086	2.174403	0.000000	0.038706	0.000000	0.010177	-0.000526	0.000000	0.000000
39.199604	12.009800	22.883576	-0.529427	0.917865	2.205453	0.000000	0.101468	0.000000	0.010003	-0.000266	0.000000	0.000000
39.640564	12.638352	21.835362	-0.901247	1.449869	2.264300	0.000000	0.165388	0.000000	0.009942	-0.000009	0.000000	0.000000
40.081524	13.611767	20.345315	-1.314260	1.915887	2.351617	0.000000	0.231193	0.000000	0.009995	0.000248	0.000000	0.000000
40.527484	14.992185	18.458607	-1.791349	2.296230	2.469873	0.000000	0.300061	0.000000	0.010164	0.000510	0.000000	0.000000
41.076544	16.755729	16.338716	-1.400940	1.586944	2.614213	0.000000	0.225521	0.000000	0.010353	0.000177	0.000000	0.000000
41.625604	18.033168	14.931521	-0.911529	0.990724	2.716637	0.000000	0.146984	0.000000	0.010358	-0.000158	0.000000	0.000000
42.174664	18.734215	14.136765	-0.357707	0.465094	2.775329	0.000000	0.065836	0.000000	0.010180	-0.000491	0.000000	0.000000
42.723724	18.809327	13.897819	0.221383	-0.027397	2.789244	0.000000	-0.016489	0.000000	0.009821	-0.000815	0.000000	0.000000
43.022297	18.708829	13.900681	0.160024	-0.015469	2.786545	0.000000	-0.009817	0.000000	0.009585	-0.000790	0.000000	0.000000
43.502297	18.567836	13.932111	0.133711	-0.050008	2.782212	0.000000	-0.009817	0.000000	0.009205	-0.000790	0.000000	0.000000
43.982297	18.452104	13.996697	0.107398	-0.084547	2.777879	0.000000	-0.009817	0.000000	0.008826	-0.000790	0.000000	0.000000
44.462297	18.361632	14.094442	0.081084	-0.119086	2.773547	0.000000	-0.009817	0.000000	0.008446	-0.000790	0.000000	0.000000
44.942297	18.296422	14.225343	0.054771	-0.153625	2.769214	0.000000	-0.009817	0.000000	0.008067	-0.000790	0.000000	0.000000
45.423547	18.256627	14.389694	-0.062064	-0.116959	2.764887	0.000000	0.003882	0.000000	0.007686	-0.000752	0.000000	0.000000
45.720870	18.298424	14.465447	-0.123177	-0.102672	2.766267	0.000000	0.010649	0.000000	0.007463	-0.000733	0.000000	0.000000
46.269930	18.125263	14.858368	0.436211	-0.617102	2.750154	0.000000	-0.070888	0.000000	0.006995	-0.000968	0.000000	0.000000
46.818990	17.351087	15.836927	0.964760	-1.175492	2.689662	0.000000	-0.151183	0.000000	0.006403	-0.001185	0.000000	0.000000
47.368050	16.030626	17.470822	1.425123	-1.817619	2.585858	0.000000	-0.228816	0.000000	0.005698	-0.001381	0.000000	0.000000
47.917110	14.257211	19.876428	1.784775	-2.589225	2.440572	0.000000	-0.302412	0.000000	0.004891	-0.001552	0.000000	0.000000
48.363070	12.876624	22.015439	1.321171	-2.186750	2.321582	0.000000	-0.234343	0.000000	0.004226	-0.001434	0.000000	0.000000
48.804030	11.891037	23.729860	0.921784	-1.686161	2.233247	0.000000	-0.169338	0.000000	0.003616	-0.001333	0.000000	0.000000
49.244990	11.237892	24.967116	0.564527	-1.108850	2.173091	0.000000	-0.106247	0.000000	0.003048	-0.001247	0.000000	0.000000
49.685950	10.887328	25.670922	0.233074	-0.481087	2.140434	0.000000	-0.044353	0.000000	0.002514	-0.001176	0.000000	0.000000
50.128160	10.823473	25.808994	-0.061802	0.106839	2.134925	0.000000	0.011913	0.000000	0.002008	-0.001122	0.000000	0.000000
50.425482	10.868422	25.748927	-0.089377	0.095187	2.138801	0.000000	0.011913	0.000000	0.001674	-0.001122	0.000000	0.000000
50.758816	10.938312	25.689823	-0.120292	0.082125	2.143146	0.000000	0.011913	0.000000	0.001300	-0.001122	0.000000	0.000000
51.092149	11.028811	25.639428	-0.151207	0.069062	2.147491	0.000000	0.011913	0.000000	0.000926	-0.001122	0.000000	0.000000
51.426732	11.140151	25.598120	-0.091862	-0.151715	2.151831	0.000000	-0.005544	0.000000	0.000550	-0.001127	0.000000	0.000000
51.724055	11.202778	25.691869	-0.091360	-0.226886	2.150517	0.000000	-0.010806	0.000000	0.000215	-0.001127	0.000000	0.000000
52.165015	11.429326	25.606132	-0.424713	0.420579	2.159861	0.000000	0.051043	0.000000	-0.000281	-0.001128	0.000000	0.000000
52.605975	11.957264	24.955678	-0.777461	1.048904	2.196586	0.000000	0.113486	0.000000	-0.000781	-0.001142	0.000000	0.000000
53.046935	12.810701	23.770113	-1.165720	1.629502	2.261115	0.000000	0.177234	0.000000	-0.001290	-0.001168	0.000000	0.000000
53.487895	14.028614	22.103390	-1.607225	2.135957	2.354187	0.000000	0.243013	0.000000	-0.001814	-0.001208	0.000000	0.000000
53.933855	15.687470	20.006398	-2.126370	2.546520	2.478401	0.000000	0.311967	0.000000	-0.002364	-0.001263	0.000000	0.000000
54.482915	17.822985	17.646696	-1.740736	1.776722	2.629990	0.000000	0.237067	0.000000	-0.003034	-0.001175	0.000000	0.000000
55.031975	19.464609	16.058275	-1.232183	1.133473	2.739181	0.000000	0.157944	0.000000	-0.003651	-0.001067	0.000000	0.000000
55.581035	20.496435	15.127985	-0.636629	0.570955	2.804028	0.000000	0.076002	0.000000	-0.004202	-0.000940	0.000000	0.000000
56.130095	20.845623	14.789554	0.003866	0.049104	2.823373	0.000000	-0.007304	0.000000	-0.004679	-0.000796	0.000000	0.000000
56.428668	20.881375	14.742249	-0.067074	0.069059	2.823720	0.000000	0.000359	0.000000	-0.004921	-0.000808	0.000000	0.000000
56.762001	20.931436	14.703783	-0.083109	0.046341	2.824109	0.000000	0.000359	0.000000	-0.005190	-0.000808	0.000000	0.000000
57.095334	20.992187	14.680462	-0.099144	0.023622	2.824499	0.000000	0.000359	0.000000	-0.005459	-0.000808	0.000000	0.000000
57.429918	21.063917	14.672284	-0.115239	0.000818	2.824889	0.000000	0.000359	0.000000	-0.005730	-0.000808	0.000000	0.000000
57.727240	21.136718	14.677807	-0.187485	0.020622	2.825238	0.000000	0.008104	0.000000	-0.005970	-0.000824	0.000000	0.000000
58.276300	20.981435	14.936881	0.468215	-0.495299	2.807154	0.000000	-0.075278	0.000000	-0.006368	-0.000624	0.000000	0.000000
58.825360	20.120237	15.778371	1.090838	-1.046490	2.743481	0.000000	-0.157335	0.000000	-0.006654	-0.000413	0.000000	0.000000
59.374420	18.613944	17.262197	1.636422	-1.672205	2.635343	0.000000	-0.236609	0.000000	-0.006821	-0.000195	0.000000	0.000000
59.923480	16.568919	19.494026	2.066448	-2.417002	2.484656	0.000000	-0.311690	0.000000	-0.006867	0.000027	0.000000	0.000000
60.369440	14.967106	21.477730	1.538229	-2.012598	2.361160	0.000000	-0.242590	0.000000	-0.006895	-0.000152	0.000000	0.000000
60.810400	13.815086	23.040306	1.084369	-1.517849	2.268929	0.000000	-0.176632	0.000000	-0.007001	-0.000331	0.000000	0.000000
61.251360	13.040000	24.134368	0.680038	-0.954053	2.205389	0.000000	-0.112681	0.000000	-0.007187	-0.000514	0.000000	0.000000
61.692320	12.606448	24.710150	0.306771	-0.346860	2.169816	0.000000	-0.050008	0.000000	-0.007455	-0.000703	0.000000	0.000000
62.134530	12.494697	24.740891	-0.019720	0.211318	2.161820	0.000000	0.006418	0.000000	-0.007809	-0.000879	0.000000	0.000000
62.431853	12.513501	24.618964	-0.043525	0.198764	2.163990	0.000000	0.006418	0.000000	-0.008071	-0.000879	0.000000	0.000000
62.765186	12.551414	24.491146	-0.070214	0.184689	2.166422	0.000000	0.006418	0.000000	-0.008364	-0.000879	0.000000	0.000000
63.098520	12.607119	24.372712	-0.096902	0.170615	2.168854	0.000000	0.006418	0.000000	-0.008657	-0.000879	0.000000	0.000000
63.433103	12.680926	24.263269	-0.123691	0.156487	2.171296	0.000000	0.006418	0.000000	-0.008951	-0.000879	0.000000	0.000000
63.730426	12.761524	24.174007	-0.113543	0.079312	2.173463	0.000000	0.000635	0.000000	-0.009213	-0.000856	0.000000	0.000000
64.171386	13.023437	23.837761	-0.483109	0.680420	2.187922	0.000000	0.063127	0.000000	-0.009643	-0.001099	0.000000	0.000000
64.612346	13.619639	22.983138	-0.874727	1.250575	2.230175	0.000000	0.126349	0.000000	-0.010183	-0.001354	0.000000	0.000000
65.053306	14.577339	21.649024	-1.306281	1.763841	2.300708	0.000000	0.191025	0.000000	-0.010840	-0.001625	0.000000	0.000000
65.494266	15.940250	19.896115	-1.797472	2.196874	2.400328	0.000000	0.257893	0.000000	-0.011619	-0.001915	0.000000	0.000000
65.940226	17.793969	17.779186	-2.375138	2.530508	2.531805	0.000000	0.328083	0.000000	-0.012542	-0.002228	0.000000	0.000000
66.489286	20.168073	15.410734	-1.925095	1.809396	2.692148	0.000000	0.251338	0.000000	-0.013651	-0.001804	0.000000	0.000000
67.038346	21.970147	13.759071	-1.339189	1.217124	2.808829	0.000000	0.170107	0.000000	-0.014517	-0.001348	0.000000	0.000000
67.587406	23.073053	12.706567	-0.658777	0.711515	2.879767	0.000000	0.085839	0.000000	-0.015126	-0.000867	0.000000	0.000000
68.136466	23.398991	12.178265	0.068118	0.256566	2.903698	0.000000	0.000034	0.000000	-0.015466	-0.000372	0.000000	0.000000
68.435038	23.403007	12.011689	-0.013381	0.265791	2.906369	0.000000	0.008564	0.000000	-0.015590	-0.000415	0.000000	0.000000
68.768372	23.416676	11.844399	-0.027627	0.236079	2.909362	0.000000	0.008564	0.000000	-0.015728	-0.000415	0.000000	0.000000
69.101705	23.439843	11.696917	-0.041873	0.206368	2.912355	0.000000	0.008564	0.000000	-0.015867	-0.000415	0.000000	0.000000
69.436288	23.472647	11.568800	-0.056172	0.176546	2.915359	0.000000	0.008564	0.000000	-0.016005	-0.000415	0.000000	0.000000
69.733611	23.510007	11.471610	-0.138247	0.183823	2.918040	0.000000	0.017174	0.000000	-0.016129	-0.000460	0.000000	0.000000
70.282671	23.258033	11.498904	0.594423	-0.233839	2.903830	0.000000	-0.069250	0.000000	-0.016237	0.000064	0.000000	0.000000
