#ParticleID	Turn	x[m]	xp	y[m]	yp	z[m]	dE[GeV]# s	beta_x	beta_y	alpha_x	alpha_y	D_x	D_y	D_px	D_py	orbit_x	orbit_px	orbit_y	orbit_py
0.300000	11.951472	25.306833	-0.020104	-0.021818	2.600675	0.000000	0.000598	0.000000	-0.000754	0.000658	0.000000	0.000000
0.601250	11.971181	25.323567	-0.045321	-0.033728	2.600657	0.000000	0.000598	0.000000	-0.000556	0.000658	0.000000	0.000000
0.898573	12.005531	25.347118	-0.040667	-0.107614	2.600639	0.000000	-0.005801	0.000000	-0.000360	0.000659	0.000000	0.000000
1.339533	12.195176	25.160717	-0.390813	0.528722	2.613996	0.000000	0.067704	0.000000	-0.000071	0.000653	0.000000	0.000000
1.780493	12.700305	24.421621	-0.758819	1.141005	2.659905	0.000000	0.141973	0.000000	0.000217	0.000655	0.000000	0.000000
2.221453	13.544002	23.163451	-1.161500	1.701374	2.738885	0.000000	0.217852	0.000000	0.000507	0.000664	0.000000	0.000000
2.662413	14.764821	21.443447	-1.617253	2.184334	2.851833	0.000000	0.296205	0.000000	0.000804	0.000681	0.000000	0.000000
3.108373	16.439628	19.314665	-2.151270	2.569072	3.001884	0.000000	0.378415	0.000000	0.001113	0.000706	0.000000	0.000000
3.657433	18.586592	16.923351	-1.735417	1.811843	3.184209	0.000000	0.286042	0.000000	0.001489	0.000664	0.000000	0.000000
4.206493	20.206467	15.288248	-1.196962	1.183669	3.314375	0.000000	0.188605	0.000000	0.001840	0.000610	0.000000	0.000000
4.755553	21.184807	14.292898	-0.573941	0.639806	3.390076	0.000000	0.087833	0.000000	0.002157	0.000545	0.000000	0.000000
5.304613	21.452483	13.866408	0.089637	0.141516	3.409976	0.000000	-0.014489	0.000000	0.002437	0.000471	0.000000	0.000000
5.603185	21.435897	13.767400	0.020802	0.154703	3.408112	0.000000	-0.005762	0.000000	0.002579	0.000477	0.000000	0.000000
5.936519	21.427215	13.672529	0.005245	0.129911	3.406033	0.000000	-0.005762	0.000000	0.002738	0.000477	0.000000	0.000000
6.269852	21.428904	13.594185	-0.010312	0.105120	3.403953	0.000000	-0.005762	0.000000	0.002897	0.000477	0.000000	0.000000
6.604435	21.441029	13.532168	-0.025928	0.080236	3.401865	0.000000	-0.005762	0.000000	0.003057	0.000477	0.000000	0.000000
6.901758	21.460579	13.491027	-0.094360	0.092514	3.400011	0.000000	0.002881	0.000000	0.003199	0.000485	0.000000	0.000000
7.450818	21.198192	13.651158	0.569655	-0.385866	3.373354	0.000000	-0.099011	0.000000	0.003436	0.000378	0.000000	0.000000
7.999878	20.224440	14.348556	1.193435	-0.891735	3.291209	0.000000	-0.199141	0.000000	0.003612	0.000264	0.000000	0.000000
8.548938	18.608110	15.632905	1.732909	-1.461128	3.155036	0.000000	-0.295734	0.000000	0.003725	0.000145	0.000000	0.000000
9.097998	16.463392	17.595696	2.149963	-2.134605	2.967253	0.000000	-0.387079	0.000000	0.003771	0.000023	0.000000	0.000000
9.543958	14.789996	19.344430	1.615579	-1.769902	2.812802	0.000000	-0.305806	0.000000	0.003803	0.000122	0.000000	0.000000
9.984918	13.570911	20.714888	1.159444	-1.325996	2.695029	0.000000	-0.228513	0.000000	0.003878	0.000221	0.000000	0.000000
10.425878	12.729340	21.665631	0.756288	-0.821752	2.610691	0.000000	-0.153826	0.000000	0.003998	0.000322	0.000000	0.000000
10.866838	12.226828	22.153393	0.387688	-0.280113	2.558827	0.000000	-0.080894	0.000000	0.004163	0.000427	0.000000	0.000000
11.309048	12.040259	22.155411	0.064988	0.221987	2.538827	0.000000	-0.014853	0.000000	0.004376	0.000527	0.000000	0.000000
11.606371	12.008987	22.027594	0.040190	0.207906	2.534254	0.000000	-0.014853	0.000000	0.004533	0.000527	0.000000	0.000000
12.086371	11.989621	21.838916	0.000155	0.185173	2.526872	0.000000	-0.014853	0.000000	0.004786	0.000527	0.000000	0.000000
12.566371	12.008689	21.672062	-0.039879	0.162440	2.519489	0.000000	-0.014853	0.000000	0.005039	0.000527	0.000000	0.000000
13.046371	12.066189	21.527031	-0.079914	0.139707	2.512107	0.000000	-0.014853	0.000000	0.005292	0.000527	0.000000	0.000000
13.526371	12.162123	21.403823	-0.119949	0.116975	2.504724	0.000000	-0.014853	0.000000	0.005545	0.000527	0.000000	0.000000
14.007621	12.296891	21.302204	-0.160087	0.094183	2.497322	0.000000	-0.014853	0.000000	0.005798	0.000527	0.000000	0.000000
14.304943	12.399446	21.250407	-0.156218	0.031123	2.492748	0.000000	-0.020616	0.000000	0.005955	0.000513	0.000000	0.000000
14.745903	12.696160	20.990530	-0.518947	0.555926	2.498976	0.000000	0.050027	0.000000	0.006215	0.000670	0.000000	0.000000
15.186863	13.322044	20.277205	-0.905396	1.055433	2.536384	0.000000	0.121233	0.000000	0.006546	0.000834	0.000000	0.000000
15.627823	14.305711	19.142887	-1.333229	1.506913	2.605395	0.000000	0.193811	0.000000	0.006952	0.001008	0.000000	0.000000
16.068783	15.692133	17.639187	-1.822001	1.889818	2.706792	0.000000	0.268587	0.000000	0.007437	0.001194	0.000000	0.000000
16.514743	17.568313	15.812971	-2.398961	2.187609	2.843425	0.000000	0.346897	0.000000	0.008014	0.001394	0.000000	0.000000
17.063803	19.977135	13.774612	-1.961028	1.546313	3.009610	0.000000	0.259899	0.000000	0.008706	0.001123	0.000000	0.000000
17.612863	21.825537	12.376273	-1.384502	1.015181	3.126840	0.000000	0.168309	0.000000	0.009244	0.000832	0.000000	0.000000
18.161923	22.982862	11.518345	-0.710126	0.556373	3.193040	0.000000	0.073745	0.000000	0.009617	0.000527	0.000000	0.000000
18.710983	23.367298	11.139713	0.014444	0.137203	3.207042	0.000000	-0.022118	0.000000	0.009820	0.000212	0.000000	0.000000
19.009556	23.395809	11.050139	-0.054256	0.136296	3.202654	0.000000	-0.014446	0.000000	0.009891	0.000236	0.000000	0.000000
19.342889	23.436743	10.969517	-0.068546	0.105570	3.197760	0.000000	-0.014446	0.000000	0.009970	0.000236	0.000000	0.000000
19.676223	23.487203	10.909379	-0.082835	0.074844	3.192866	0.000000	-0.014446	0.000000	0.010048	0.000236	0.000000	0.000000
20.010806	23.547725	10.869481	-0.213847	0.097857	3.187973	0.000000	0.001349	0.000000	0.010128	0.000286	0.000000	0.000000
20.308129	23.678886	10.819468	-0.283479	0.096075	3.188294	0.000000	0.008947	0.000000	0.010213	0.000312	0.000000	0.000000
20.857189	23.581956	10.933715	0.459044	-0.305350	3.166977	0.000000	-0.086191	0.000000	0.010293	-0.000020	0.000000	0.000000
21.406249	22.682467	11.498129	1.169127	-0.728531	3.093934	0.000000	-0.179801	0.000000	0.010191	-0.000352	0.000000	0.000000
21.955309	21.043999	12.552918	1.796586	-1.203617	2.970460	0.000000	-0.270226	0.000000	0.009907	-0.000678	0.000000	0.000000
22.504369	18.782366	14.173228	2.297075	-1.764456	2.798742	0.000000	-0.355867	0.000000	0.009448	-0.000991	0.000000	0.000000
22.950329	17.001850	15.628869	1.708523	-1.485361	2.657659	0.000000	-0.278766	0.000000	0.009060	-0.000751	0.000000	0.000000
23.391289	15.722559	16.790977	1.202969	-1.139678	2.551286	0.000000	-0.205318	0.000000	0.008780	-0.000521	0.000000	0.000000
23.832249	14.863393	17.624052	0.752402	-0.742128	2.476664	0.000000	-0.134203	0.000000	0.008599	-0.000297	0.000000	0.000000
24.273209	14.385074	18.090184	0.336226	-0.310804	2.432945	0.000000	-0.064614	0.000000	0.008517	-0.000077	0.000000	0.000000
24.715418	14.265847	18.167888	-0.032572	0.093678	2.419631	0.000000	-0.001204	0.000000	0.008532	0.000123	0.000000	0.000000
25.012741	14.291419	18.117091	-0.053435	0.077170	2.419237	0.000000	-0.001204	0.000000	0.008568	0.000123	0.000000	0.000000
25.346075	14.334839	18.071814	-0.076826	0.058661	2.418794	0.000000	-0.001204	0.000000	0.008609	0.000123	0.000000	0.000000
25.679408	14.393853	18.038876	-0.100217	0.040153	2.418352	0.000000	-0.001204	0.000000	0.008650	0.000123	0.000000	0.000000
26.013991	14.468477	18.018588	-0.006317	-0.124601	2.417884	0.000000	-0.020820	0.000000	0.008692	0.000053	0.000000	0.000000
26.311314	14.478311	18.097704	0.005648	-0.181994	2.411675	0.000000	-0.026236	0.000000	0.008707	0.000032	0.000000	0.000000
26.752274	14.652234	18.062160	-0.401453	0.262284	2.415150	0.000000	0.042287	0.000000	0.008771	0.000257	0.000000	0.000000
27.193234	15.191980	17.638535	-0.826904	0.694626	2.448824	0.000000	0.111288	0.000000	0.008935	0.000486	0.000000	0.000000
27.634194	16.122227	16.846106	-1.290153	1.095356	2.513080	0.000000	0.181552	0.000000	0.009200	0.000719	0.000000	0.000000
28.075154	17.485507	15.720932	-1.812377	1.446237	2.608649	0.000000	0.253876	0.000000	0.009571	0.000961	0.000000	0.000000
28.521114	19.368023	14.297143	-2.422566	1.732396	2.738232	0.000000	0.329559	0.000000	0.010056	0.001216	0.000000	0.000000
29.070174	21.761738	12.711514	-1.910011	1.172121	2.895971	0.000000	0.246103	0.000000	0.010632	0.000881	0.000000	0.000000
29.619234	23.514518	11.692018	-1.262462	0.695357	3.006800	0.000000	0.158295	0.000000	0.011020	0.000530	0.000000	0.000000
30.168294	24.502456	11.166025	-0.525684	0.268134	3.068756	0.000000	0.067687	0.000000	0.011213	0.000170	0.000000	0.000000
30.717354	24.655713	11.096065	0.248247	-0.139984	3.080742	0.000000	-0.024120	0.000000	0.011206	-0.000193	0.000000	0.000000
31.015927	24.545877	11.172177	0.177510	-0.141020	3.075755	0.000000	-0.016849	0.000000	0.011157	-0.000166	0.000000	0.000000
31.349260	24.432206	11.276334	0.163502	-0.171449	3.070194	0.000000	-0.016849	0.000000	0.011102	-0.000166	0.000000	0.000000
31.682593	24.327875	11.400776	0.149494	-0.201879	3.064633	0.000000	-0.016849	0.000000	0.011047	-0.000166	0.000000	0.000000
32.017177	24.232543	11.546086	0.135433	-0.232422	3.059051	0.000000	-0.016849	0.000000	0.010991	-0.000166	0.000000	0.000000
32.314499	24.155808	11.692324	0.065778	-0.231920	3.054096	0.000000	-0.009622	0.000000	0.010942	-0.000138	0.000000	0.000000
32.863559	23.670005	12.185664	0.813420	-0.671762	3.024043	0.000000	-0.100271	0.000000	0.010769	-0.000490	0.000000	0.000000
33.412619	22.389826	13.185366	1.503567	-1.159464	2.944808	0.000000	-0.189149	0.000000	0.010405	-0.000833	0.000000	0.000000
33.961679	20.405772	14.762648	2.087445	-1.729773	2.817792	0.000000	-0.274685	0.000000	0.009857	-0.001162	0.000000	0.000000
34.510739	17.858096	17.029871	2.523788	-2.423320	2.645242	0.000000	-0.355366	0.000000	0.009133	-0.001469	0.000000	0.000000
34.956699	15.878649	19.058161	1.929447	-2.105227	2.503704	0.000000	-0.282258	0.000000	0.008530	-0.001240	0.000000	0.000000
35.397659	14.403169	20.739300	1.428424	-1.692263	2.395124	0.000000	-0.212810	0.000000	0.008030	-0.001027	0.000000	0.000000
35.838619	13.339308	22.020702	0.992693	-1.202288	2.316523	0.000000	-0.145776	0.000000	0.007622	-0.000825	0.000000	0.000000
36.279579	12.638429	22.844060	0.602337	-0.657601	2.267010	0.000000	-0.080393	0.000000	0.007301	-0.000632	0.000000	0.000000
36.721789	12.267836	23.172218	0.267444	-0.135857	2.245999	0.000000	-0.021052	0.000000	0.007063	-0.000464	0.000000	0.000000
37.019112	12.116523	23.256890	0.241475	-0.148925	2.239877	0.000000	-0.021052	0.000000	0.006925	-0.000464	0.000000	0.000000
37.352445	11.965245	23.361057	0.212360	-0.163576	2.233015	0.000000	-0.021052	0.000000	0.006770	-0.000464	0.000000	0.000000
37.685779	11.833377	23.474991	0.183245	-0.178226	2.226152	0.000000	-0.021052	0.000000	0.006616	-0.000464	0.000000	0.000000
38.020362	11.720533	23.599174	0.154021	-0.192932	2.219263	0.000000	-0.021052	0.000000	0.006460	-0.000464	0.000000	0.000000
38.317684	11.636653	23.717813	0.154855	-0.260788	2.213141	0.000000	-0.026150	0.000000	0.006322	-0.000479	0.000000	0.000000
38.758644	11.649100	23.684971	-0.183319	0.334978	2.215753	0.000000	0.037238	0.000000	0.006147	-0.000318	0.000000	0.000000
39.199604	11.962390	23.131406	-0.529868	0.915498	2.246320	0.000000	0.101053	0.000000	0.006041	-0.000161	0.000000	0.000000
39.640564	12.590839	22.082312	-0.900630	1.454357	2.305189	0.000000	0.166021	0.000000	0.006004	-0.000006	0.000000	0.000000
40.081524	13.563169	20.585430	-1.312550	1.927032	2.393032	0.000000	0.232880	0.000000	0.006036	0.000149	0.000000	0.000000
40.527484	14.941360	18.686155	-1.788372	2.313470	2.512334	0.000000	0.302817	0.000000	0.006138	0.000307	0.000000	0.000000
41.076544	16.702537	16.551295	-1.399882	1.597347	2.657873	0.000000	0.226892	0.000000	0.006251	0.000106	0.000000	0.000000
41.625604	17.979842	15.136157	-0.912483	0.995020	2.760660	0.000000	0.146944	0.000000	0.006254	-0.000096	0.000000	0.000000
42.174664	18.683019	14.339928	-0.360616	0.463580	2.818871	0.000000	0.064387	0.000000	0.006146	-0.000297	0.000000	0.000000
42.723724	18.762385	14.105882	0.216724	-0.034834	2.831472	0.000000	-0.019317	0.000000	0.005929	-0.000493	0.000000	0.000000
43.022297	18.665634	14.112060	0.153802	-0.020904	2.827943	0.000000	-0.012293	0.000000	0.005786	-0.000478	0.000000	0.000000
43.502297	18.530620	14.148461	0.127478	-0.054932	2.822271	0.000000	-0.012293	0.000000	0.005557	-0.000478	0.000000	0.000000
43.982297	18.420876	14.217530	0.101154	-0.088961	2.816600	0.000000	-0.012293	0.000000	0.005328	-0.000478	0.000000	0.000000
44.462297	18.336403	14.319266	0.074830	-0.122989	2.810929	0.000000	-0.012293	0.000000	0.005099	-0.000478	0.000000	0.000000
44.942297	18.277202	14.453669	0.048506	-0.157017	2.805258	0.000000	-0.012293	0.000000	0.004869	-0.000478	0.000000	0.000000
45.423547	18.243442	14.621036	-0.068275	-0.118693	2.799589	0.000000	0.001578	0.000000	0.004640	-0.000455	0.000000	0.000000
45.720870	18.288920	14.697739	-0.130609	-0.102473	2.800194	0.000000	0.008615	0.000000	0.004504	-0.000443	0.000000	0.000000
46.269930	18.124161	15.094211	0.428621	-0.623838	2.782491	0.000000	-0.073988	0.000000	0.004222	-0.000584	0.000000	0.000000
46.818990	17.358305	16.084133	0.957559	-1.189640	2.719795	0.000000	-0.155289	0.000000	0.003865	-0.000715	0.000000	0.000000
47.368050	16.045477	17.738012	1.418836	-1.840184	2.613213	0.000000	-0.233847	0.000000	0.003439	-0.000834	0.000000	0.000000
47.917110	14.278442	20.173647	1.779866	-2.621808	2.464629	0.000000	-0.308270	0.000000	0.002952	-0.000937	0.000000	0.000000
48.363070	12.902306	22.338578	1.316385	-2.212163	2.342908	0.000000	-0.239620	0.000000	0.002550	-0.000866	0.000000	0.000000
48.804030	11.921093	24.071764	0.916859	-1.703231	2.252130	0.000000	-0.174098	0.000000	0.002182	-0.000805	0.000000	0.000000
49.244990	11.272524	25.320073	0.559231	-1.116802	2.189761	0.000000	-0.110550	0.000000	0.001839	-0.000753	0.000000	0.000000
49.685950	10.926957	26.026710	0.227161	-0.479559	2.155092	0.000000	-0.048254	0.000000	0.001516	-0.000710	0.000000	0.000000
50.128160	10.868767	26.159240	-0.068295	0.116290	2.147743	0.000000	0.008294	0.000000	0.001210	-0.000678	0.000000	0.000000
50.425482	10.917550	26.093514	-0.095778	0.104771	2.150411	0.000000	0.008294	0.000000	0.001009	-0.000678	0.000000	0.000000
50.758816	10.991673	26.027972	-0.126590	0.091856	2.153401	0.000000	0.008294	0.000000	0.000783	-0.000678	0.000000	0.000000
51.092149	11.086337	25.971040	-0.157402	0.078941	2.156392	0.000000	0.008294	0.000000	0.000557	-0.000678	0.000000	0.000000
51.426732	11.201786	25.923078	-0.097453	-0.144323	2.159372	0.000000	-0.009224	0.000000	0.000330	-0.000680	0.000000	0.000000
51.724055	11.267703	26.012380	-0.096650	-0.219997	2.156832	0.000000	-0.014507	0.000000	0.000128	-0.000681	0.000000	0.000000
52.165015	11.499672	25.916847	-0.431621	0.435821	2.164386	0.000000	0.047482	0.000000	-0.000172	-0.000681	0.000000	0.000000
52.605975	12.034597	25.249507	-0.786307	1.071806	2.199371	0.000000	0.110020	0.000000	-0.000474	-0.000690	0.000000	0.000000
53.046935	12.896910	24.040732	-1.176911	1.659023	2.262189	0.000000	0.173818	0.000000	-0.000781	-0.000706	0.000000	0.000000
53.487895	14.125999	22.345524	-1.621278	2.170755	2.353557	0.000000	0.239603	0.000000	-0.001097	-0.000730	0.000000	0.000000
53.933855	15.799023	20.215690	-2.143981	2.585036	2.476034	0.000000	0.308521	0.000000	-0.001430	-0.000763	0.000000	0.000000
54.482915	17.952506	17.818682	-1.755375	1.806492	2.625505	0.000000	0.233729	0.000000	-0.001835	-0.000710	0.000000	0.000000
55.031975	19.608238	16.201350	-1.242800	1.156618	2.732675	0.000000	0.154780	0.000000	-0.002207	-0.000644	0.000000	0.000000
55.581035	20.649296	15.248488	-0.642462	0.589125	2.795639	0.000000	0.073075	0.000000	-0.002540	-0.000567	0.000000	0.000000
56.130095	21.002171	14.892222	0.003240	0.063594	2.813274	0.000000	-0.009936	0.000000	-0.002828	-0.000481	0.000000	0.000000
56.428668	21.038028	14.836459	-0.067183	0.083258	2.812699	0.000000	-0.002412	0.000000	-0.002974	-0.000488	0.000000	0.000000
56.762001	21.088122	14.788494	-0.083099	0.060635	2.812058	0.000000	-0.002412	0.000000	-0.003137	-0.000488	0.000000	0.000000
57.095334	21.148826	14.755612	-0.099014	0.038012	2.811417	0.000000	-0.002412	0.000000	-0.003299	-0.000488	0.000000	0.000000
57.429918	21.220428	14.737773	-0.114990	0.015304	2.810773	0.000000	-0.002412	0.000000	-0.003463	-0.000488	0.000000	0.000000
57.727240	21.293036	14.734666	-0.186486	0.034673	2.810201	0.000000	0.005150	0.000000	-0.003608	-0.000498	0.000000	0.000000
58.276300	21.133859	14.979096	0.474428	-0.482504	2.790480	0.000000	-0.077724	0.000000	-0.003848	-0.000377	0.000000	0.000000
58.825360	20.263194	15.806840	1.101827	-1.034044	2.725503	0.000000	-0.159227	0.000000	-0.004020	-0.000249	0.000000	0.000000
59.374420	18.742534	17.276844	1.651408	-1.659226	2.616421	0.000000	-0.237909	0.000000	-0.004121	-0.000117	0.000000	0.000000
59.923480	16.679269	19.493802	2.084359	-2.402577	2.465164	0.000000	-0.312374	0.000000	-0.004149	0.000017	0.000000	0.000000
60.369440	15.063133	21.464021	1.552526	-1.996847	2.341240	0.000000	-0.243772	0.000000	-0.004165	-0.000091	0.000000	0.000000
60.810400	13.899784	23.012480	1.095799	-1.501566	2.248331	0.000000	-0.178330	0.000000	-0.004229	-0.000199	0.000000	0.000000
61.251360	13.115682	24.092262	0.689128	-0.937973	2.183850	0.000000	-0.114918	0.000000	-0.004342	-0.000310	0.000000	0.000000
61.692320	12.675010	24.654244	0.313938	-0.331710	2.147063	0.000000	-0.052811	0.000000	-0.004503	-0.000424	0.000000	0.000000
62.134530	12.557683	24.672281	-0.014856	0.226612	2.137558	0.000000	0.003226	0.000000	-0.004717	-0.000531	0.000000	0.000000
62.431853	12.573558	24.541294	-0.038538	0.213943	2.138676	0.000000	0.003226	0.000000	-0.004875	-0.000531	0.000000	0.000000
62.765186	12.608099	24.403400	-0.065088	0.199739	2.139928	0.000000	0.003226	0.000000	-0.005052	-0.000531	0.000000	0.000000
63.098520	12.660341	24.274976	-0.091638	0.185534	2.141180	0.000000	0.003226	0.000000	-0.005229	-0.000531	0.000000	0.000000
63.433103	12.730579	24.155593	-0.118287	0.171277	2.142437	0.000000	0.003226	0.000000	-0.005406	-0.000531	0.000000	0.000000
63.730426	12.807947	24.057533	-0.108933	0.096373	2.143553	0.000000	-0.002303	0.000000	-0.005564	-0.000517	0.000000	0.000000
64.171386	13.066315	23.707712	-0.479475	0.693989	2.156381	0.000000	0.059403	0.000000	-0.005824	-0.000664	0.000000	0.000000
64.612346	13.659797	22.842849	-0.871912	1.260033	2.196606	0.000000	0.121792	0.000000	-0.006151	-0.000818	0.000000	0.000000
65.053306	14.615490	21.502296	-1.304167	1.768753	2.264688	0.000000	0.185578	0.000000	-0.006547	-0.000982	0.000000	0.000000
65.494266	15.977031	19.747044	-1.795979	2.197008	2.361406	0.000000	0.251487	0.000000	-0.007018	-0.001157	0.000000	0.000000
65.940226	17.829885	17.632107	-2.374348	2.525904	2.489445	0.000000	0.320650	0.000000	-0.007575	-0.001346	0.000000	0.000000
66.489286	20.202567	15.266661	-1.922571	1.808182	2.645681	0.000000	0.245329	0.000000	-0.008245	-0.001090	0.000000	0.000000
67.038346	22.001318	13.614382	-1.335063	1.219229	2.759161	0.000000	0.165640	0.000000	-0.008768	-0.000814	0.000000	0.000000
67.587406	23.099172	12.557594	-0.653306	0.717100	2.827866	0.000000	0.083001	0.000000	-0.009136	-0.000524	0.000000	0.000000
68.136466	23.418646	12.021029	0.074567	0.266038	2.850573	0.000000	-0.001119	0.000000	-0.009342	-0.000225	0.000000	0.000000
68.435038	23.417194	11.850070	-0.004044	0.272811	2.852704	0.000000	0.006898	0.000000	-0.009416	-0.000250	0.000000	0.000000
68.768372	23.424635	11.678270	-0.018279	0.242588	2.855086	0.000000	0.006898	0.000000	-0.009500	-0.000250	0.000000	0.000000
69.101705	23.441566	11.526618	-0.032514	0.212366	2.857469	0.000000	0.006898	0.000000	-0.009583	-0.000250	0.000000	0.000000
69.436288	23.468103	11.394660	-0.046802	0.182029	2.859860	0.000000	0.006898	0.000000	-0.009667	-0.000250	0.000000	0.000000
69.733611	23.499774	11.294401	-0.125780	0.186885	2.861990	0.000000	0.014970	0.000000	-0.009741	-0.000276	0.000000	0.000000
70.282671	23.234349	11.315621	0.606324	-0.225767	2.847023	0.000000	-0.069643	0.000000	-0.009806	0.000040	0.000000	0.000000
