#ParticleID	Turn	x[m]	xp	y[m]	yp	z[m]	dE[GeV]# s	beta_x	beta_y	alpha_x	alpha_y	D_x	D_y	D_px	D_py	orbit_x	orbit_px	orbit_y	orbit_py
0.300000	11.855247	25.006893	-0.015230	-0.026628	2.615314	0.000000	0.000107	0.000000	-0.000117	0.000102	0.000000	0.000000
0.601250	11.872080	25.026568	-0.040647	-0.038683	2.615315	0.000000	0.000107	0.000000	-0.000086	0.000102	0.000000	0.000000
0.898573	11.903709	25.053109	-0.036526	-0.112015	2.615316	0.000000	-0.006310	0.000000	-0.000055	0.000103	0.000000	0.000000
1.339533	12.088562	24.874001	-0.384236	0.516646	2.628768	0.000000	0.067575	0.000000	-0.000010	0.000102	0.000000	0.000000
1.780493	12.586621	24.148751	-0.749501	1.121801	2.674938	0.000000	0.142228	0.000000	0.000035	0.000102	0.000000	0.000000
2.221453	13.420642	22.910357	-1.149010	1.675914	2.754353	0.000000	0.218501	0.000000	0.000080	0.000104	0.000000	0.000000
2.662413	14.628731	21.215164	-1.601015	2.153775	2.867915	0.000000	0.297260	0.000000	0.000126	0.000106	0.000000	0.000000
3.108373	16.286954	19.115443	-2.130482	2.534776	3.018779	0.000000	0.379894	0.000000	0.000174	0.000110	0.000000	0.000000
3.657433	18.413195	16.757186	-1.719041	1.785644	3.202065	0.000000	0.286962	0.000000	0.000233	0.000104	0.000000	0.000000
4.206493	20.017866	15.147316	-1.186171	1.163700	3.332856	0.000000	0.188942	0.000000	0.000288	0.000095	0.000000	0.000000
4.755553	20.987616	14.171165	-0.569514	0.624644	3.408833	0.000000	0.087572	0.000000	0.000337	0.000085	0.000000	0.000000
5.304613	21.253945	13.759206	0.087373	0.130080	3.428648	0.000000	-0.015350	0.000000	0.000381	0.000073	0.000000	0.000000
5.603185	21.239024	13.666796	0.017955	0.143604	3.426709	0.000000	-0.006420	0.000000	0.000403	0.000074	0.000000	0.000000
5.936519	21.232287	13.579358	0.002256	0.118711	3.424544	0.000000	-0.006420	0.000000	0.000428	0.000074	0.000000	0.000000
6.269852	21.236016	13.508515	-0.013443	0.093818	3.422380	0.000000	-0.006420	0.000000	0.000452	0.000074	0.000000	0.000000
6.604435	21.250285	13.454095	-0.029202	0.068832	3.420207	0.000000	-0.006420	0.000000	0.000477	0.000074	0.000000	0.000000
6.901758	21.271813	13.419767	-0.098552	0.081559	3.418276	0.000000	0.002474	0.000000	0.000499	0.000076	0.000000	0.000000
7.450818	21.017363	13.590861	0.559274	-0.395009	3.391428	0.000000	-0.099998	0.000000	0.000536	0.000059	0.000000	0.000000
7.999878	20.058047	14.297574	1.177596	-0.899713	3.308729	0.000000	-0.200696	0.000000	0.000564	0.000041	0.000000	0.000000
8.548938	18.461627	15.590247	1.712737	-1.468502	3.171649	0.000000	-0.297833	0.000000	0.000581	0.000022	0.000000	0.000000
9.097998	16.340869	17.560953	2.126897	-2.141892	2.982617	0.000000	-0.389687	0.000000	0.000588	0.000004	0.000000	0.000000
9.543958	14.686104	19.316983	1.596846	-1.779078	2.827117	0.000000	-0.308049	0.000000	0.000593	0.000019	0.000000	0.000000
9.984918	13.482030	20.696116	1.144075	-1.336562	2.708500	0.000000	-0.230405	0.000000	0.000605	0.000034	0.000000	0.000000
10.425878	12.652798	21.656572	0.743574	-0.833232	2.623503	0.000000	-0.155385	0.000000	0.000624	0.000050	0.000000	0.000000
10.866838	12.160522	22.154650	0.377045	-0.291990	2.571159	0.000000	-0.082136	0.000000	0.000649	0.000067	0.000000	0.000000
11.309048	11.982569	22.167165	0.056833	0.208442	2.550851	0.000000	-0.016038	0.000000	0.000683	0.000082	0.000000	0.000000
11.606371	11.956175	22.047377	0.031940	0.194447	2.546058	0.000000	-0.016038	0.000000	0.000707	0.000082	0.000000	0.000000
12.086371	11.944803	21.871554	-0.008248	0.171852	2.538320	0.000000	-0.016038	0.000000	0.000746	0.000082	0.000000	0.000000
12.566371	11.972011	21.717421	-0.048435	0.149258	2.530583	0.000000	-0.016038	0.000000	0.000786	0.000082	0.000000	0.000000
13.046371	12.037799	21.584979	-0.088623	0.126663	2.522845	0.000000	-0.016038	0.000000	0.000825	0.000082	0.000000	0.000000
13.526371	12.142167	21.474228	-0.128811	0.104069	2.515108	0.000000	-0.016038	0.000000	0.000865	0.000082	0.000000	0.000000
14.007621	12.285538	21.384964	-0.169103	0.081415	2.507350	0.000000	-0.016038	0.000000	0.000904	0.000082	0.000000	0.000000
14.304943	12.393495	21.340712	-0.163871	0.015571	2.502557	0.000000	-0.022121	0.000000	0.000928	0.000080	0.000000	0.000000
14.745903	12.696865	21.093410	-0.526672	0.543113	2.508386	0.000000	0.048761	0.000000	0.000969	0.000104	0.000000	0.000000
15.186863	13.329568	20.390013	-0.913538	1.045944	2.545553	0.000000	0.120196	0.000000	0.001020	0.000130	0.000000	0.000000
15.627823	14.320513	19.262523	-1.342143	1.501185	2.614481	0.000000	0.193000	0.000000	0.001084	0.000157	0.000000	0.000000
16.068783	15.714979	17.762242	-1.832071	1.888120	2.715954	0.000000	0.268000	0.000000	0.001159	0.000186	0.000000	0.000000
16.514743	17.600323	15.935935	-2.410491	2.189915	2.852823	0.000000	0.346517	0.000000	0.001249	0.000217	0.000000	0.000000
17.063803	20.021327	13.896712	-1.972579	1.545965	3.019264	0.000000	0.259232	0.000000	0.001357	0.000175	0.000000	0.000000
17.612863	21.881607	12.500376	-1.395323	1.012134	3.136469	0.000000	0.167352	0.000000	0.001441	0.000130	0.000000	0.000000
18.161923	23.049748	11.647469	-0.719499	0.550398	3.202360	0.000000	0.072505	0.000000	0.001499	0.000082	0.000000	0.000000
18.710983	23.443228	11.277238	0.007152	0.127867	3.215768	0.000000	-0.023627	0.000000	0.001530	0.000033	0.000000	0.000000
19.009556	23.478875	11.191618	-0.066084	0.129820	3.211179	0.000000	-0.015333	0.000000	0.001541	0.000037	0.000000	0.000000
19.342889	23.527685	11.115167	-0.080344	0.099534	3.206056	0.000000	-0.015333	0.000000	0.001554	0.000037	0.000000	0.000000
19.676223	23.586000	11.058907	-0.094603	0.069247	3.200933	0.000000	-0.015333	0.000000	0.001566	0.000037	0.000000	0.000000
20.010806	23.654387	11.022603	-0.226112	0.093460	3.195810	0.000000	0.000501	0.000000	0.001578	0.000045	0.000000	0.000000
20.308129	23.792773	10.975117	-0.300658	0.094551	3.195946	0.000000	0.008740	0.000000	0.001592	0.000049	0.000000	0.000000
20.857189	23.712604	11.093378	0.445818	-0.311207	3.174522	0.000000	-0.086620	0.000000	0.001604	-0.000003	0.000000	0.000000
21.406249	22.825190	11.666706	1.160800	-0.739131	3.101110	0.000000	-0.180443	0.000000	0.001588	-0.000055	0.000000	0.000000
21.955309	21.193221	12.735936	1.793783	-1.219705	2.977014	0.000000	-0.271066	0.000000	0.001544	-0.000105	0.000000	0.000000
22.504369	18.931984	14.377231	2.300052	-1.787158	2.804434	0.000000	-0.356883	0.000000	0.001473	-0.000154	0.000000	0.000000
22.950329	17.150431	15.850809	1.708791	-1.503130	2.662625	0.000000	-0.279684	0.000000	0.001413	-0.000117	0.000000	0.000000
23.391289	15.872424	17.025929	1.200338	-1.151588	2.555655	0.000000	-0.206129	0.000000	0.001369	-0.000081	0.000000	0.000000
23.832249	15.017062	17.866631	0.746729	-0.747648	2.480557	0.000000	-0.134921	0.000000	0.001341	-0.000046	0.000000	0.000000
24.273209	14.545261	18.334665	0.327238	-0.309689	2.436477	0.000000	-0.065249	0.000000	0.001328	-0.000012	0.000000	0.000000
24.715418	14.435572	18.408488	-0.042435	0.097712	2.422909	0.000000	-0.002187	0.000000	0.001331	0.000019	0.000000	0.000000
25.012741	14.466940	18.355232	-0.063069	0.081407	2.422253	0.000000	-0.002187	0.000000	0.001336	0.000019	0.000000	0.000000
25.346075	14.516697	18.307054	-0.086202	0.063126	2.421518	0.000000	-0.002187	0.000000	0.001343	0.000019	0.000000	0.000000
25.679408	14.581876	18.271063	-0.109334	0.044846	2.420782	0.000000	-0.002187	0.000000	0.001349	0.000019	0.000000	0.000000
26.013991	14.662510	18.247563	-0.013602	-0.121536	2.420019	0.000000	-0.021820	0.000000	0.001356	0.000008	0.000000	0.000000
26.311314	14.676628	18.324751	0.001644	-0.182428	2.413529	0.000000	-0.027663	0.000000	0.001358	0.000005	0.000000	0.000000
26.752274	14.856113	18.286893	-0.410205	0.267953	2.416432	0.000000	0.040887	0.000000	0.001368	0.000040	0.000000	0.000000
27.193234	15.405692	17.855707	-0.840797	0.706143	2.449622	0.000000	0.109901	0.000000	0.001394	0.000076	0.000000	0.000000
27.634194	16.350475	17.050810	-1.309805	1.112202	2.513477	0.000000	0.180167	0.000000	0.001435	0.000112	0.000000	0.000000
28.075154	17.733631	15.908826	-1.838660	1.467656	2.608724	0.000000	0.252484	0.000000	0.001493	0.000150	0.000000	0.000000
28.521114	19.642414	14.464507	-2.456503	1.757271	2.738051	0.000000	0.328123	0.000000	0.001569	0.000190	0.000000	0.000000
29.070174	22.068649	12.855219	-1.936028	1.190951	2.895458	0.000000	0.244703	0.000000	0.001659	0.000137	0.000000	0.000000
29.619234	23.844371	11.817875	-1.278789	0.709464	3.005829	0.000000	0.156944	0.000000	0.001719	0.000083	0.000000	0.000000
30.168294	24.844135	11.278587	-0.531214	0.278512	3.067208	0.000000	0.066403	0.000000	0.001749	0.000027	0.000000	0.000000
30.717354	24.997314	11.198941	0.253887	-0.132600	3.078505	0.000000	-0.025316	0.000000	0.001748	-0.000030	0.000000	0.000000
31.015927	24.887827	11.268951	0.177161	-0.130713	3.073321	0.000000	-0.017391	0.000000	0.001740	-0.000026	0.000000	0.000000
31.349260	24.774324	11.366121	0.163347	-0.160798	3.067532	0.000000	-0.017391	0.000000	0.001732	-0.000026	0.000000	0.000000
31.682593	24.670030	11.483349	0.149534	-0.190884	3.061744	0.000000	-0.017391	0.000000	0.001723	-0.000026	0.000000	0.000000
32.017177	24.574607	11.621186	0.135668	-0.221082	3.055934	0.000000	-0.017391	0.000000	0.001715	-0.000026	0.000000	0.000000
32.314499	24.497598	11.760628	0.060259	-0.217634	3.050771	0.000000	-0.009534	0.000000	0.001707	-0.000021	0.000000	0.000000
32.863559	24.011838	12.238889	0.819160	-0.658540	3.020668	0.000000	-0.100049	0.000000	0.001680	-0.000076	0.000000	0.000000
33.412619	22.719674	13.224092	1.520195	-1.146355	2.941308	0.000000	-0.188791	0.000000	0.001624	-0.000130	0.000000	0.000000
33.961679	20.712389	14.786414	2.113840	-1.715826	2.814098	0.000000	-0.274186	0.000000	0.001539	-0.000181	0.000000	0.000000
34.510739	18.131787	17.037137	2.558161	-2.407515	2.641295	0.000000	-0.354720	0.000000	0.001426	-0.000229	0.000000	0.000000
34.956699	16.125685	19.050300	1.956172	-2.087787	2.499542	0.000000	-0.281754	0.000000	0.001332	-0.000193	0.000000	0.000000
35.397659	14.629938	20.715393	1.448582	-1.673839	2.390762	0.000000	-0.212427	0.000000	0.001254	-0.000160	0.000000	0.000000
35.838619	13.551095	21.980303	1.007178	-1.183730	2.311977	0.000000	-0.145518	0.000000	0.001191	-0.000128	0.000000	0.000000
36.279579	12.839861	22.787474	0.611792	-0.639761	2.262291	0.000000	-0.080265	0.000000	0.001141	-0.000098	0.000000	0.000000
36.721789	12.463054	23.100489	0.274497	-0.122771	2.241112	0.000000	-0.021363	0.000000	0.001104	-0.000072	0.000000	0.000000
37.019112	12.307454	23.177379	0.248843	-0.135836	2.234782	0.000000	-0.021363	0.000000	0.001082	-0.000072	0.000000	0.000000
37.352445	12.151145	23.272818	0.220082	-0.150483	2.227685	0.000000	-0.021363	0.000000	0.001058	-0.000072	0.000000	0.000000
37.685779	12.014011	23.378022	0.191321	-0.165130	2.220588	0.000000	-0.021363	0.000000	0.001034	-0.000072	0.000000	0.000000
38.020362	11.895644	23.493441	0.162452	-0.179832	2.213464	0.000000	-0.021363	0.000000	0.001010	-0.000072	0.000000	0.000000
38.317684	11.806670	23.604263	0.165480	-0.250264	2.207134	0.000000	-0.026725	0.000000	0.000989	-0.000074	0.000000	0.000000
38.758644	11.811453	23.563521	-0.176389	0.342305	2.209312	0.000000	0.036494	0.000000	0.000962	-0.000049	0.000000	0.000000
39.199604	12.120146	23.005071	-0.526317	0.919298	2.239422	0.000000	0.100128	0.000000	0.000946	-0.000025	0.000000	0.000000
39.640564	12.746851	21.954325	-0.900291	1.454464	2.297807	0.000000	0.164903	0.000000	0.000940	-0.000000	0.000000	0.000000
40.081524	13.720205	20.459090	-1.315399	1.923450	2.385131	0.000000	0.231557	0.000000	0.000945	0.000024	0.000000	0.000000
40.527484	15.102225	18.564810	-1.794443	2.306224	2.503864	0.000000	0.301256	0.000000	0.000961	0.000049	0.000000	0.000000
41.076544	16.866548	16.436099	-1.399827	1.593618	2.648708	0.000000	0.225630	0.000000	0.000980	0.000017	0.000000	0.000000
41.625604	18.140325	15.023372	-0.906330	0.994526	2.750883	0.000000	0.146001	0.000000	0.000980	-0.000014	0.000000	0.000000
42.174664	18.833579	14.226002	-0.348812	0.466273	2.808576	0.000000	0.063782	0.000000	0.000964	-0.000046	0.000000	0.000000
42.723724	18.897337	13.987192	0.233344	-0.028768	2.820765	0.000000	-0.019568	0.000000	0.000930	-0.000077	0.000000	0.000000
43.022297	18.792128	13.989082	0.168018	-0.013839	2.817128	0.000000	-0.012256	0.000000	0.000908	-0.000074	0.000000	0.000000
43.502297	18.643437	14.018841	0.141754	-0.048158	2.811281	0.000000	-0.012256	0.000000	0.000872	-0.000074	0.000000	0.000000
43.982297	18.519959	14.081546	0.115491	-0.082477	2.805433	0.000000	-0.012256	0.000000	0.000837	-0.000074	0.000000	0.000000
44.462297	18.421695	14.177197	0.089227	-0.116796	2.799586	0.000000	-0.012256	0.000000	0.000801	-0.000074	0.000000	0.000000
44.942297	18.348643	14.305795	0.062963	-0.151115	2.793739	0.000000	-0.012256	0.000000	0.000765	-0.000074	0.000000	0.000000
45.423547	18.300940	14.467623	-0.054042	-0.113842	2.787894	0.000000	0.001557	0.000000	0.000730	-0.000071	0.000000	0.000000
45.720870	18.337920	14.541508	-0.117964	-0.096905	2.788378	0.000000	0.008799	0.000000	0.000708	-0.000069	0.000000	0.000000
46.269930	18.158643	14.929177	0.442502	-0.613315	2.770656	0.000000	-0.073412	0.000000	0.000665	-0.000091	0.000000	0.000000
46.818990	17.377496	15.904448	0.971710	-1.173410	2.708097	0.000000	-0.154322	0.000000	0.000609	-0.000112	0.000000	0.000000
47.368050	16.049660	17.536788	1.432277	-1.817086	2.601810	0.000000	-0.232497	0.000000	0.000542	-0.000130	0.000000	0.000000
47.917110	14.268931	19.942463	1.791671	-2.590189	2.453680	0.000000	-0.306550	0.000000	0.000466	-0.000147	0.000000	0.000000
48.363070	12.882846	22.081315	1.327361	-2.185687	2.332337	0.000000	-0.238189	0.000000	0.000403	-0.000135	0.000000	0.000000
48.804030	11.892289	23.793787	0.927467	-1.683022	2.241833	0.000000	-0.172939	0.000000	0.000346	-0.000126	0.000000	0.000000
49.244990	11.234464	25.027355	0.569948	-1.103781	2.179637	0.000000	-0.109657	0.000000	0.000292	-0.000117	0.000000	0.000000
49.685950	10.879314	25.725895	0.238469	-0.474319	2.145041	0.000000	-0.047623	0.000000	0.000242	-0.000111	0.000000	0.000000
50.128160	10.810753	25.857340	-0.055767	0.113421	2.137664	0.000000	0.008638	0.000000	0.000194	-0.000105	0.000000	0.000000
50.425482	10.852117	25.793358	-0.083355	0.101774	2.140263	0.000000	0.008638	0.000000	0.000163	-0.000105	0.000000	0.000000
50.758816	10.917997	25.729861	-0.114285	0.088717	2.143178	0.000000	0.008638	0.000000	0.000128	-0.000105	0.000000	0.000000
51.092149	11.004497	25.675068	-0.145214	0.075660	2.146092	0.000000	0.008638	0.000000	0.000093	-0.000105	0.000000	0.000000
51.426732	11.111831	25.629344	-0.086113	-0.145364	2.148996	0.000000	-0.008796	0.000000	0.000057	-0.000106	0.000000	0.000000
51.724055	11.171052	25.719306	-0.085681	-0.220305	2.146412	0.000000	-0.014058	0.000000	0.000026	-0.000106	0.000000	0.000000
52.165015	11.392369	25.627466	-0.418155	0.427786	2.153859	0.000000	0.047661	0.000000	-0.000021	-0.000106	0.000000	0.000000
52.605975	11.914184	24.970495	-0.769732	1.056411	2.188616	0.000000	0.109924	0.000000	-0.000068	-0.000107	0.000000	0.000000
53.046935	12.760336	23.778285	-1.156475	1.636971	2.251079	0.000000	0.173441	0.000000	-0.000115	-0.000109	0.000000	0.000000
53.487895	13.969483	22.105084	-1.596054	2.143050	2.341960	0.000000	0.238934	0.000000	-0.000164	-0.000113	0.000000	0.000000
53.933855	15.617576	20.002004	-2.112798	2.552952	2.463800	0.000000	0.307548	0.000000	-0.000216	-0.000118	0.000000	0.000000
54.482915	17.739307	17.635532	-1.728692	1.782546	2.612520	0.000000	0.233160	0.000000	-0.000278	-0.000110	0.000000	0.000000
55.031975	19.369289	16.040790	-1.222483	1.139106	2.719193	0.000000	0.154634	0.000000	-0.000336	-0.000100	0.000000	0.000000
55.581035	20.392395	15.104187	-0.629927	0.576803	2.781927	0.000000	0.073364	0.000000	-0.000388	-0.000088	0.000000	0.000000
56.130095	20.736360	14.759009	0.007121	0.055583	2.799608	0.000000	-0.009209	0.000000	-0.000433	-0.000075	0.000000	0.000000
56.428668	20.768887	14.708791	-0.061686	0.073891	2.799073	0.000000	-0.001867	0.000000	-0.000456	-0.000076	0.000000	0.000000
56.762001	20.815381	14.667126	-0.077797	0.051105	2.798476	0.000000	-0.001867	0.000000	-0.000481	-0.000076	0.000000	0.000000
57.095334	20.872616	14.640651	-0.093907	0.028319	2.797879	0.000000	-0.001867	0.000000	-0.000506	-0.000076	0.000000	0.000000
57.429918	20.940866	14.629353	-0.110079	0.005448	2.797280	0.000000	-0.001867	0.000000	-0.000532	-0.000076	0.000000	0.000000
57.727240	21.010597	14.632156	-0.179600	0.023516	2.796747	0.000000	0.005474	0.000000	-0.000554	-0.000078	0.000000	0.000000
58.276300	20.849178	14.887313	0.471813	-0.490978	2.777126	0.000000	-0.076974	0.000000	-0.000592	-0.000059	0.000000	0.000000
58.825360	19.986590	15.723213	1.089899	-1.040443	2.712533	0.000000	-0.158058	0.000000	-0.000619	-0.000039	0.000000	0.000000
59.374420	18.483761	17.199396	1.631002	-1.664014	2.604116	0.000000	-0.236339	0.000000	-0.000635	-0.000019	0.000000	0.000000
59.923480	16.446840	19.421004	2.056901	-2.406108	2.453797	0.000000	-0.310429	0.000000	-0.000640	0.000002	0.000000	0.000000
60.369440	14.852226	21.395622	1.531470	-2.003023	2.330664	0.000000	-0.242093	0.000000	-0.000643	-0.000015	0.000000	0.000000
60.810400	13.704933	22.950699	1.080220	-1.510162	2.238380	0.000000	-0.176911	0.000000	-0.000653	-0.000032	0.000000	0.000000
61.251360	12.932419	24.039042	0.678320	-0.948592	2.174376	0.000000	-0.113743	0.000000	-0.000671	-0.000049	0.000000	0.000000
61.692320	12.499390	24.611134	0.307410	-0.343862	2.137922	0.000000	-0.051869	0.000000	-0.000696	-0.000066	0.000000	0.000000
62.134530	12.386109	24.640405	-0.018973	0.215647	2.128608	0.000000	0.004158	0.000000	-0.000730	-0.000083	0.000000	0.000000
62.431853	12.404530	24.515926	-0.042986	0.203020	2.129868	0.000000	0.004158	0.000000	-0.000754	-0.000083	0.000000	0.000000
62.765186	12.442161	24.385299	-0.069907	0.188863	2.131282	0.000000	0.004158	0.000000	-0.000782	-0.000083	0.000000	0.000000
63.098520	12.497740	24.264109	-0.096829	0.174706	2.132696	0.000000	0.004158	0.000000	-0.000810	-0.000083	0.000000	0.000000
63.433103	12.571576	24.151957	-0.123852	0.160495	2.134115	0.000000	0.004158	0.000000	-0.000837	-0.000083	0.000000	0.000000
63.730426	12.652363	24.060274	-0.116585	0.088357	2.135376	0.000000	-0.001121	0.000000	-0.000862	-0.000081	0.000000	0.000000
64.171386	12.916090	23.717382	-0.483799	0.686296	2.148469	0.000000	0.060385	0.000000	-0.000903	-0.000104	0.000000	0.000000
64.612346	13.512147	22.858971	-0.873115	1.253009	2.188820	0.000000	0.122580	0.000000	-0.000954	-0.000128	0.000000	0.000000
65.053306	14.467763	21.524098	-1.302319	1.762712	2.256888	0.000000	0.186173	0.000000	-0.001015	-0.000153	0.000000	0.000000
65.494266	15.826593	19.773498	-1.791017	2.192215	2.353449	0.000000	0.251887	0.000000	-0.001089	-0.000180	0.000000	0.000000
65.940226	17.673901	17.662048	-2.366210	2.522706	2.481176	0.000000	0.320871	0.000000	-0.001176	-0.000209	0.000000	0.000000
66.489286	20.041306	15.300007	-1.920186	1.804734	2.637073	0.000000	0.245806	0.000000	-0.001280	-0.000170	0.000000	0.000000
67.038346	21.841114	13.651585	-1.338541	1.215306	2.750473	0.000000	0.166378	0.000000	-0.001361	-0.000127	0.000000	0.000000
67.587406	22.946210	12.599370	-0.662357	0.712438	2.819363	0.000000	0.083997	0.000000	-0.001419	-0.000082	0.000000	0.000000
68.136466	23.278545	12.068416	0.060608	0.260314	2.842522	0.000000	0.000126	0.000000	-0.001451	-0.000035	0.000000	0.000000
68.435038	23.282941	11.901927	-0.013777	0.265382	2.844816	0.000000	0.007643	0.000000	-0.001463	-0.000039	0.000000	0.000000
68.768372	23.296899	11.734999	-0.028096	0.235403	2.847376	0.000000	0.007643	0.000000	-0.001476	-0.000039	0.000000	0.000000
69.101705	23.320403	11.588057	-0.042416	0.205424	2.849937	0.000000	0.007643	0.000000	-0.001489	-0.000039	0.000000	0.000000
69.436288	23.353595	11.460663	-0.056789	0.175332	2.852507	0.000000	0.007643	0.000000	-0.001502	-0.000039	0.000000	0.000000
69.733611	23.391163	11.364352	-0.131450	0.178653	2.854791	0.000000	0.015196	0.000000	-0.001513	-0.000043	0.000000	0.000000
70.282671	23.133797	11.395743	0.597413	-0.236163	2.839951	0.000000	-0.069208	0.000000	-0.001524	0.000006	0.000000	0.000000
