#ParticleID	Turn	x[m]	xp	y[m]	yp	z[m]	dE[GeV]# s	beta_x	beta_y	alpha_x	alpha_y	D_x	D_y	D_px	D_py	orbit_x	orbit_px	orbit_y	orbit_py
0.300000	11.962652	25.286620	-0.017500	-0.022914	2.598866	0.000000	-0.000424	0.000000	-0.001102	0.000944	0.000000	0.000000
0.601250	11.980784	25.304016	-0.042690	-0.034833	2.598454	0.000000	-0.000424	0.000000	-0.000818	0.000944	0.000000	0.000000
0.898573	12.013562	25.328228	-0.037942	-0.108683	2.598047	0.000000	-0.006827	0.000000	-0.000537	0.000945	0.000000	0.000000
1.339533	12.200905	25.142986	-0.388201	0.527174	2.610816	0.000000	0.066603	0.000000	-0.000123	0.000937	0.000000	0.000000
1.780493	12.703782	24.405440	-0.756204	1.139049	2.656099	0.000000	0.140782	0.000000	0.000290	0.000939	0.000000	0.000000
2.221453	13.545177	23.149139	-1.158763	1.699101	2.734410	0.000000	0.216554	0.000000	0.000707	0.000952	0.000000	0.000000
2.662413	14.763542	21.431236	-1.614273	2.181847	2.846637	0.000000	0.294783	0.000000	0.001131	0.000975	0.000000	0.000000
3.108373	16.435604	19.304711	-2.147918	2.566497	2.995895	0.000000	0.376850	0.000000	0.001574	0.001010	0.000000	0.000000
3.657433	18.578859	16.915918	-1.731872	1.809763	3.177263	0.000000	0.284684	0.000000	0.002113	0.000951	0.000000	0.000000
4.206493	20.194947	15.282880	-1.193466	1.181937	3.306603	0.000000	0.187483	0.000000	0.002614	0.000874	0.000000	0.000000
4.755553	21.169677	14.289285	-0.570731	0.638300	3.381629	0.000000	0.086970	0.000000	0.003070	0.000782	0.000000	0.000000
5.304613	21.434166	13.864369	0.092338	0.140129	3.401015	0.000000	-0.015072	0.000000	0.003471	0.000676	0.000000	0.000000
5.603185	21.415646	13.766407	0.024027	0.152960	3.398885	0.000000	-0.006447	0.000000	0.003675	0.000685	0.000000	0.000000
5.936519	21.404819	13.672694	0.008453	0.128180	3.396508	0.000000	-0.006447	0.000000	0.003903	0.000685	0.000000	0.000000
6.269852	21.404375	13.595501	-0.007121	0.103400	3.394131	0.000000	-0.006447	0.000000	0.004132	0.000685	0.000000	0.000000
6.604435	21.414370	13.534631	-0.022753	0.078527	3.391744	0.000000	-0.006447	0.000000	0.004361	0.000685	0.000000	0.000000
6.901758	21.432043	13.494499	-0.090472	0.090453	3.389625	0.000000	0.002067	0.000000	0.004565	0.000697	0.000000	0.000000
7.450818	21.165993	13.656976	0.572505	-0.388098	3.362514	0.000000	-0.099486	0.000000	0.004906	0.000543	0.000000	0.000000
7.999878	20.189801	14.357006	1.195047	-0.894297	3.280129	0.000000	-0.199265	0.000000	0.005159	0.000380	0.000000	0.000000
8.548938	18.572429	15.644462	1.733166	-1.464207	3.143935	0.000000	-0.295503	0.000000	0.005322	0.000210	0.000000	0.000000
9.097998	16.428150	17.611065	2.148840	-2.138426	2.956350	0.000000	-0.386496	0.000000	0.005390	0.000037	0.000000	0.000000
9.543958	14.755429	19.363155	1.615103	-1.773474	2.802080	0.000000	-0.305494	0.000000	0.005437	0.000177	0.000000	0.000000
9.984918	13.536456	20.736641	1.159630	-1.329190	2.684349	0.000000	-0.228473	0.000000	0.005547	0.000319	0.000000	0.000000
10.425878	12.694425	21.690001	0.757147	-0.824419	2.599915	0.000000	-0.154059	0.000000	0.005719	0.000464	0.000000	0.000000
10.866838	12.190858	22.179850	0.389262	-0.282130	2.547817	0.000000	-0.081404	0.000000	0.005957	0.000615	0.000000	0.000000
11.309048	12.002591	22.183312	0.066720	0.221572	2.527438	0.000000	-0.015509	0.000000	0.006263	0.000757	0.000000	0.000000
11.606371	11.970314	22.055736	0.041838	0.207511	2.522602	0.000000	-0.015509	0.000000	0.006488	0.000757	0.000000	0.000000
12.086371	11.949431	21.867421	0.001668	0.184811	2.514794	0.000000	-0.015509	0.000000	0.006852	0.000757	0.000000	0.000000
12.566371	11.967110	21.700899	-0.038501	0.162111	2.506986	0.000000	-0.015509	0.000000	0.007215	0.000757	0.000000	0.000000
13.046371	12.023353	21.556168	-0.078670	0.139411	2.499178	0.000000	-0.015509	0.000000	0.007579	0.000757	0.000000	0.000000
13.526371	12.118158	21.433230	-0.118840	0.116710	2.491371	0.000000	-0.015509	0.000000	0.007942	0.000757	0.000000	0.000000
14.007621	12.251923	21.331849	-0.159114	0.093951	2.483542	0.000000	-0.015509	0.000000	0.008306	0.000757	0.000000	0.000000
14.304943	12.353911	21.280208	-0.156201	0.032228	2.478703	0.000000	-0.021086	0.000000	0.008532	0.000737	0.000000	0.000000
14.745903	12.650212	21.018994	-0.517906	0.557820	2.484535	0.000000	0.049195	0.000000	0.008906	0.000962	0.000000	0.000000
15.186863	13.274791	20.303654	-0.903291	1.058027	2.521356	0.000000	0.120026	0.000000	0.009382	0.001198	0.000000	0.000000
15.627823	14.256213	19.166734	-1.329970	1.510086	2.589582	0.000000	0.192212	0.000000	0.009964	0.001447	0.000000	0.000000
16.068783	15.639357	17.659965	-1.817452	1.893421	2.689985	0.000000	0.266573	0.000000	0.010660	0.001713	0.000000	0.000000
16.514743	17.511122	15.830243	-2.392988	2.191555	2.825392	0.000000	0.344446	0.000000	0.011488	0.002000	0.000000	0.000000
17.063803	19.914618	13.787926	-1.956827	1.549422	2.990114	0.000000	0.258046	0.000000	0.012481	0.001612	0.000000	0.000000
17.612863	21.759750	12.386447	-1.382337	1.017682	3.106282	0.000000	0.167093	0.000000	0.013253	0.001195	0.000000	0.000000
18.161923	22.916051	11.525968	-0.710125	0.558453	3.171845	0.000000	0.073194	0.000000	0.013790	0.000757	0.000000	0.000000
18.710983	23.301756	11.145189	0.012294	0.139014	3.185646	0.000000	-0.021991	0.000000	0.014082	0.000305	0.000000	0.000000
19.009556	23.330018	11.055227	-0.053974	0.137006	3.181151	0.000000	-0.014686	0.000000	0.014183	0.000340	0.000000	0.000000
19.342889	23.370777	10.974129	-0.068303	0.106288	3.176142	0.000000	-0.014686	0.000000	0.014296	0.000340	0.000000	0.000000
19.676223	23.421090	10.913509	-0.082633	0.075571	3.171134	0.000000	-0.014686	0.000000	0.014410	0.000340	0.000000	0.000000
20.010806	23.481488	10.873121	-0.213356	0.098610	3.166126	0.000000	0.001001	0.000000	0.014523	0.000412	0.000000	0.000000
20.308129	23.612444	10.822624	-0.280419	0.095743	3.166311	0.000000	0.008219	0.000000	0.014646	0.000447	0.000000	0.000000
20.857189	23.513349	10.937308	0.459935	-0.305804	3.144752	0.000000	-0.086216	0.000000	0.014761	-0.000029	0.000000	0.000000
21.406249	22.614023	11.502338	1.167782	-0.729142	3.071927	0.000000	-0.179122	0.000000	0.014614	-0.000505	0.000000	0.000000
21.955309	20.978055	12.557974	1.793079	-1.204436	2.949126	0.000000	-0.268857	0.000000	0.014208	-0.000972	0.000000	0.000000
22.504369	18.721117	14.179424	2.291624	-1.765549	2.778524	0.000000	-0.353837	0.000000	0.013549	-0.001422	0.000000	0.000000
22.950329	16.944536	15.636076	1.704521	-1.486218	2.638384	0.000000	-0.277228	0.000000	0.012992	-0.001077	0.000000	0.000000
23.391289	15.668035	16.798921	1.200330	-1.140339	2.532694	0.000000	-0.204261	0.000000	0.012590	-0.000748	0.000000	0.000000
23.832249	14.810558	17.632525	0.751017	-0.742559	2.458506	0.000000	-0.133613	0.000000	0.012332	-0.000426	0.000000	0.000000
24.273209	14.332891	18.098951	0.336037	-0.310982	2.414978	0.000000	-0.064483	0.000000	0.012213	-0.000110	0.000000	0.000000
24.715418	14.213335	18.176655	-0.032974	0.095374	2.401617	0.000000	-0.001273	0.000000	0.012235	0.000177	0.000000	0.000000
25.012741	14.239169	18.124849	-0.053915	0.078868	2.401186	0.000000	-0.001273	0.000000	0.012287	0.000177	0.000000	0.000000
25.346075	14.282939	18.078438	-0.077393	0.060363	2.400703	0.000000	-0.001273	0.000000	0.012346	0.000177	0.000000	0.000000
25.679408	14.342360	18.044365	-0.100870	0.041857	2.400220	0.000000	-0.001273	0.000000	0.012405	0.000177	0.000000	0.000000
26.013991	14.417451	18.022936	-0.007472	-0.122928	2.399710	0.000000	-0.020741	0.000000	0.012465	0.000076	0.000000	0.000000
26.311314	14.427960	18.101096	0.002972	-0.178640	2.393516	0.000000	-0.025895	0.000000	0.012487	0.000047	0.000000	0.000000
26.752274	14.603772	18.062549	-0.403030	0.265707	2.397012	0.000000	0.042166	0.000000	0.012579	0.000370	0.000000	0.000000
27.193234	15.144514	17.635910	-0.827458	0.697960	2.430463	0.000000	0.110704	0.000000	0.012814	0.000698	0.000000	0.000000
27.634194	16.074917	16.840591	-1.289719	1.098448	2.494250	0.000000	0.180495	0.000000	0.013196	0.001033	0.000000	0.000000
28.075154	17.437534	15.712785	-1.810947	1.448940	2.589096	0.000000	0.252332	0.000000	0.013727	0.001380	0.000000	0.000000
28.521114	19.318677	14.286619	-2.420185	1.734669	2.717692	0.000000	0.327515	0.000000	0.014424	0.001745	0.000000	0.000000
29.070174	21.711034	12.698422	-1.909376	1.174365	2.874260	0.000000	0.244731	0.000000	0.015252	0.001265	0.000000	0.000000
29.619234	23.464311	11.676331	-1.263581	0.697740	2.984372	0.000000	0.157625	0.000000	0.015809	0.000761	0.000000	0.000000
30.168294	24.454526	11.147527	-0.528456	0.270833	3.046080	0.000000	0.067734	0.000000	0.016085	0.000244	0.000000	0.000000
30.717354	24.611654	11.074336	0.244029	-0.136775	3.058293	0.000000	-0.023354	0.000000	0.016076	-0.000277	0.000000	0.000000
31.015927	24.502502	11.149366	0.176195	-0.139156	3.053430	0.000000	-0.016487	0.000000	0.016005	-0.000238	0.000000	0.000000
31.349260	24.389714	11.252295	0.162169	-0.169632	3.048014	0.000000	-0.016487	0.000000	0.015926	-0.000238	0.000000	0.000000
31.682593	24.286277	11.375542	0.148142	-0.200108	3.042598	0.000000	-0.016487	0.000000	0.015847	-0.000238	0.000000	0.000000
32.017177	24.191856	11.519683	0.134063	-0.230698	3.037161	0.000000	-0.016487	0.000000	0.015768	-0.000238	0.000000	0.000000
32.314499	24.116030	11.664864	0.067172	-0.231613	3.032341	0.000000	-0.009649	0.000000	0.015697	-0.000199	0.000000	0.000000
32.863559	23.629300	12.157484	0.813550	-0.670690	3.002533	0.000000	-0.099610	0.000000	0.015448	-0.000704	0.000000	0.000000
33.412619	22.349498	13.155625	1.502409	-1.157556	2.923994	0.000000	-0.187815	0.000000	0.014926	-0.001196	0.000000	0.000000
33.961679	20.367131	14.730398	2.085050	-1.726904	2.798110	0.000000	-0.272706	0.000000	0.014138	-0.001667	0.000000	0.000000
34.510739	17.822380	16.993991	2.520288	-2.419296	2.627106	0.000000	-0.352786	0.000000	0.013100	-0.002109	0.000000	0.000000
34.956699	15.845377	19.019183	1.926753	-2.101956	2.486861	0.000000	-0.280116	0.000000	0.012233	-0.001780	0.000000	0.000000
35.397659	14.371752	20.697953	1.426505	-1.689984	2.379337	0.000000	-0.211083	0.000000	0.011517	-0.001474	0.000000	0.000000
35.838619	13.309147	21.977882	0.991476	-1.201098	2.301578	0.000000	-0.144439	0.000000	0.010931	-0.001184	0.000000	0.000000
36.279579	12.608965	22.800729	0.601776	-0.657550	2.252705	0.000000	-0.079428	0.000000	0.010470	-0.000908	0.000000	0.000000
36.721789	12.238554	23.129323	0.266541	-0.135069	2.232143	0.000000	-0.020247	0.000000	0.010127	-0.000667	0.000000	0.000000
37.019112	12.087793	23.213533	0.240521	-0.148158	2.226321	0.000000	-0.020247	0.000000	0.009929	-0.000667	0.000000	0.000000
37.352445	11.937169	23.317197	0.211350	-0.162833	2.219794	0.000000	-0.020247	0.000000	0.009707	-0.000667	0.000000	0.000000
37.685779	11.805993	23.430643	0.182179	-0.177508	2.213268	0.000000	-0.020247	0.000000	0.009485	-0.000667	0.000000	0.000000
38.020362	11.693882	23.554354	0.152898	-0.192237	2.206716	0.000000	-0.020247	0.000000	0.009262	-0.000667	0.000000	0.000000
38.317684	11.610670	23.672616	0.152855	-0.258514	2.200892	0.000000	-0.025172	0.000000	0.009064	-0.000688	0.000000	0.000000
38.758644	11.624611	23.638292	-0.184777	0.336045	2.203942	0.000000	0.037910	0.000000	0.008811	-0.000457	0.000000	0.000000
39.199604	11.938970	23.084318	-0.530851	0.915310	2.234785	0.000000	0.101429	0.000000	0.008659	-0.000232	0.000000	0.000000
39.640564	12.568113	22.035905	-0.901185	1.452917	2.293774	0.000000	0.166106	0.000000	0.008606	-0.000010	0.000000	0.000000
40.081524	13.540797	20.540769	-1.312708	1.924401	2.381581	0.000000	0.232675	0.000000	0.008651	0.000213	0.000000	0.000000
40.527484	14.919069	18.644210	-1.788195	2.309823	2.500691	0.000000	0.302324	0.000000	0.008796	0.000439	0.000000	0.000000
41.076544	16.680630	16.512546	-1.400591	1.594992	2.646021	0.000000	0.226774	0.000000	0.008959	0.000152	0.000000	0.000000
41.625604	17.959224	15.099307	-0.914016	0.993797	2.748849	0.000000	0.147202	0.000000	0.008962	-0.000139	0.000000	0.000000
42.174664	18.664488	14.303810	-0.362858	0.463407	2.807352	0.000000	0.065016	0.000000	0.008807	-0.000427	0.000000	0.000000
42.723724	18.746587	14.069376	0.213932	-0.033966	2.820489	0.000000	-0.018330	0.000000	0.008495	-0.000707	0.000000	0.000000
43.022297	18.650807	14.075585	0.152140	-0.020958	2.817258	0.000000	-0.011497	0.000000	0.008290	-0.000686	0.000000	0.000000
43.502297	18.517392	14.112080	0.125808	-0.055074	2.812069	0.000000	-0.011497	0.000000	0.007961	-0.000686	0.000000	0.000000
43.982297	18.409255	14.181328	0.099476	-0.089191	2.806879	0.000000	-0.011497	0.000000	0.007632	-0.000686	0.000000	0.000000
44.462297	18.326397	14.283327	0.073144	-0.123308	2.801690	0.000000	-0.011497	0.000000	0.007303	-0.000686	0.000000	0.000000
44.942297	18.268818	14.418078	0.046813	-0.157424	2.796500	0.000000	-0.011497	0.000000	0.006974	-0.000686	0.000000	0.000000
45.423547	18.236692	14.585880	-0.069943	-0.119362	2.791314	0.000000	0.002333	0.000000	0.006644	-0.000653	0.000000	0.000000
45.720870	18.283176	14.662987	-0.131473	-0.103966	2.792204	0.000000	0.009227	0.000000	0.006450	-0.000636	0.000000	0.000000
46.269930	18.119379	15.060574	0.427617	-0.624367	2.775023	0.000000	-0.073131	0.000000	0.006044	-0.000839	0.000000	0.000000
46.818990	17.354575	16.050594	0.956480	-1.189245	2.713009	0.000000	-0.154205	0.000000	0.005531	-0.001026	0.000000	0.000000
47.368050	16.042824	17.703559	1.417747	-1.838838	2.607254	0.000000	-0.232560	0.000000	0.004920	-0.001196	0.000000	0.000000
47.917110	14.276834	20.137205	1.778830	-2.619419	2.459626	0.000000	-0.306810	0.000000	0.004222	-0.001344	0.000000	0.000000
48.363070	12.901485	22.300473	1.315438	-2.210761	2.338695	0.000000	-0.238274	0.000000	0.003646	-0.001242	0.000000	0.000000
48.804030	11.921002	24.032923	0.915982	-1.702909	2.248642	0.000000	-0.172851	0.000000	0.003118	-0.001155	0.000000	0.000000
49.244990	11.273131	25.281445	0.558388	-1.117572	2.186948	0.000000	-0.109383	0.000000	0.002626	-0.001081	0.000000	0.000000
49.685950	10.928257	25.989240	0.226317	-0.481387	2.152915	0.000000	-0.047150	0.000000	0.002163	-0.001019	0.000000	0.000000
50.128160	10.870785	26.123825	-0.069301	0.113996	2.146173	0.000000	0.009380	0.000000	0.001724	-0.000973	0.000000	0.000000
50.425482	10.920166	26.059466	-0.096784	0.102466	2.149251	0.000000	0.009380	0.000000	0.001435	-0.000973	0.000000	0.000000
50.758816	10.994959	25.995463	-0.127594	0.089541	2.152702	0.000000	0.009380	0.000000	0.001111	-0.000973	0.000000	0.000000
51.092149	11.090292	25.940078	-0.158405	0.076615	2.156153	0.000000	0.009380	0.000000	0.000787	-0.000973	0.000000	0.000000
51.426732	11.206411	25.893675	-0.098417	-0.146421	2.159595	0.000000	-0.008140	0.000000	0.000461	-0.000977	0.000000	0.000000
51.724055	11.272899	25.984231	-0.097606	-0.222130	2.157465	0.000000	-0.013422	0.000000	0.000171	-0.000977	0.000000	0.000000
52.165015	11.505730	25.890901	-0.432722	0.432977	2.165629	0.000000	0.048592	0.000000	-0.000260	-0.000978	0.000000	0.000000
52.605975	12.041662	25.226337	-0.787602	1.068381	2.201239	0.000000	0.111169	0.000000	-0.000694	-0.000990	0.000000	0.000000
53.046935	12.905172	24.020787	-1.178456	1.655171	2.264705	0.000000	0.175023	0.000000	-0.001135	-0.001014	0.000000	0.000000
53.487895	14.135698	22.329111	-1.623139	2.166651	2.356754	0.000000	0.240882	0.000000	-0.001590	-0.001049	0.000000	0.000000
53.933855	15.810480	20.202996	-2.146230	2.580855	2.479961	0.000000	0.309890	0.000000	-0.002068	-0.001097	0.000000	0.000000
54.482915	17.966208	17.810175	-1.757383	1.803045	2.630316	0.000000	0.234959	0.000000	-0.002650	-0.001020	0.000000	0.000000
55.031975	19.623845	16.196359	-1.244436	1.153658	2.738272	0.000000	0.155843	0.000000	-0.003185	-0.000926	0.000000	0.000000
55.581035	20.666345	15.246593	-0.643618	0.586441	2.801907	0.000000	0.073949	0.000000	-0.003663	-0.000815	0.000000	0.000000
56.130095	21.020110	14.893217	0.002638	0.060994	2.820086	0.000000	-0.009270	0.000000	-0.004077	-0.000689	0.000000	0.000000
56.428668	21.056683	14.838741	-0.068388	0.081114	2.819800	0.000000	-0.001653	0.000000	-0.004286	-0.000700	0.000000	0.000000
56.762001	21.107576	14.792202	-0.084292	0.058502	2.819483	0.000000	-0.001653	0.000000	-0.004519	-0.000700	0.000000	0.000000
57.095334	21.169073	14.760738	-0.100196	0.035891	2.819166	0.000000	-0.001653	0.000000	-0.004753	-0.000700	0.000000	0.000000
57.429918	21.241462	14.744315	-0.116160	0.013194	2.818847	0.000000	-0.001653	0.000000	-0.004987	-0.000700	0.000000	0.000000
57.727240	21.314771	14.742454	-0.188427	0.033050	2.818565	0.000000	0.006028	0.000000	-0.005195	-0.000714	0.000000	0.000000
58.276300	21.157269	14.988801	0.473226	-0.484403	2.799352	0.000000	-0.077122	0.000000	-0.005540	-0.000540	0.000000	0.000000
58.825360	20.287453	15.818820	1.101449	-1.036351	2.734700	0.000000	-0.158913	0.000000	-0.005786	-0.000357	0.000000	0.000000
59.374420	18.766754	17.291617	1.651883	-1.662102	2.625752	0.000000	-0.237891	0.000000	-0.005930	-0.000167	0.000000	0.000000
59.923480	16.702556	19.512075	2.085662	-2.406220	2.474439	0.000000	-0.312653	0.000000	-0.005969	0.000026	0.000000	0.000000
60.369440	15.085478	21.485429	1.553363	-2.000246	2.350449	0.000000	-0.243820	0.000000	-0.005992	-0.000129	0.000000	0.000000
60.810400	13.921618	23.036662	1.096167	-1.504527	2.257599	0.000000	-0.178144	0.000000	-0.006083	-0.000285	0.000000	0.000000
61.251360	13.137394	24.118784	0.689042	-0.940365	2.193301	0.000000	-0.114494	0.000000	-0.006244	-0.000444	0.000000	0.000000
61.692320	12.696986	24.682570	0.313391	-0.333427	2.156823	0.000000	-0.052143	0.000000	-0.006475	-0.000608	0.000000	0.000000
62.134530	12.580331	24.701782	-0.015244	0.224510	2.147761	0.000000	0.004023	0.000000	-0.006782	-0.000761	0.000000	0.000000
62.431853	12.596424	24.572037	-0.038883	0.211866	2.149183	0.000000	0.004023	0.000000	-0.007008	-0.000761	0.000000	0.000000
62.765186	12.631181	24.435518	-0.065386	0.197692	2.150778	0.000000	0.004023	0.000000	-0.007262	-0.000761	0.000000	0.000000
63.098520	12.683606	24.308448	-0.091889	0.183517	2.152373	0.000000	0.004023	0.000000	-0.007515	-0.000761	0.000000	0.000000
63.433103	12.753995	24.190405	-0.118491	0.169290	2.153973	0.000000	0.004023	0.000000	-0.007770	-0.000761	0.000000	0.000000
63.730426	12.831460	24.093541	-0.108336	0.092930	2.155394	0.000000	-0.001654	0.000000	-0.007997	-0.000741	0.000000	0.000000
64.171386	13.089473	23.746329	-0.479381	0.691568	2.168684	0.000000	0.060359	0.000000	-0.008369	-0.000952	0.000000	0.000000
64.612346	13.683014	22.883140	-0.872312	1.258745	2.209536	0.000000	0.123070	0.000000	-0.008838	-0.001174	0.000000	0.000000
65.053306	14.639174	21.543251	-1.305071	1.768660	2.278420	0.000000	0.187194	0.000000	-0.009406	-0.001409	0.000000	0.000000
65.494266	16.001600	19.787621	-1.797418	2.198120	2.376124	0.000000	0.253465	0.000000	-0.010082	-0.001660	0.000000	0.000000
65.940226	17.855852	17.671206	-2.376292	2.528124	2.505365	0.000000	0.323009	0.000000	-0.010883	-0.001932	0.000000	0.000000
66.489286	20.229937	15.303997	-1.923664	1.809399	2.663025	0.000000	0.247159	0.000000	-0.011843	-0.001564	0.000000	0.000000
67.038346	22.029166	13.650982	-1.335259	1.219519	2.777568	0.000000	0.166901	0.000000	-0.012594	-0.001168	0.000000	0.000000
67.587406	23.126582	12.594433	-0.652614	0.716477	2.846951	0.000000	0.083664	0.000000	-0.013122	-0.000751	0.000000	0.000000
68.136466	23.444757	12.059106	0.076085	0.264451	2.869939	0.000000	-0.001068	0.000000	-0.013417	-0.000322	0.000000	0.000000
68.435038	23.443548	11.888422	-0.004552	0.272451	2.872201	0.000000	0.007244	0.000000	-0.013524	-0.000358	0.000000	0.000000
68.768372	23.451323	11.716828	-0.018771	0.242331	2.874735	0.000000	0.007244	0.000000	-0.013643	-0.000358	0.000000	0.000000
69.101705	23.468577	11.565313	-0.032990	0.212211	2.877270	0.000000	0.007244	0.000000	-0.013763	-0.000358	0.000000	0.000000
69.436288	23.495428	11.433424	-0.047262	0.181979	2.879813	0.000000	0.007244	0.000000	-0.013883	-0.000358	0.000000	0.000000
69.733611	23.527438	11.333134	-0.128353	0.188004	2.882082	0.000000	0.015624	0.000000	-0.013989	-0.000397	0.000000	0.000000
70.282671	23.264356	11.353701	0.604649	-0.225692	2.867326	0.000000	-0.069633	0.000000	-0.014083	0.000058	0.000000	0.000000
