#ParticleID	Turn	x[m]	xp	y[m]	yp	z[m]	dE[GeV]# s	beta_x	beta_y	alpha_x	alpha_y	D_x	D_y	D_px	D_py	orbit_x	orbit_px	orbit_y	orbit_py
0.300000	11.916609	25.047536	-0.010030	-0.028160	2.606125	0.000000	-0.002595	0.000000	-0.001302	0.001085	0.000000	0.000000
0.601250	11.930268	25.068128	-0.035313	-0.040197	2.605016	0.000000	-0.002595	0.000000	-0.000975	0.001085	0.000000	0.000000
0.898573	11.958686	25.095564	-0.030759	-0.113607	2.603922	0.000000	-0.009020	0.000000	-0.000652	0.001086	0.000000	0.000000
1.339533	12.139106	24.917359	-0.379578	0.516201	2.615696	0.000000	0.064549	0.000000	-0.000176	0.001076	0.000000	0.000000
1.780493	12.633623	24.191984	-0.745748	1.122527	2.660041	0.000000	0.138841	0.000000	0.000298	0.001077	0.000000	0.000000
2.221453	13.464840	22.952433	-1.145998	1.677782	2.737458	0.000000	0.214704	0.000000	0.000776	0.001091	0.000000	0.000000
2.662413	14.670745	21.255094	-1.598616	2.156701	2.848825	0.000000	0.293000	0.000000	0.001262	0.001117	0.000000	0.000000
3.108373	16.327311	19.152286	-2.128629	2.538671	2.997238	0.000000	0.375113	0.000000	0.001769	0.001157	0.000000	0.000000
3.657433	18.450754	16.790390	-1.715211	1.788299	3.177569	0.000000	0.282919	0.000000	0.002387	0.001089	0.000000	0.000000
4.206493	20.050582	15.178137	-1.180604	1.165307	3.305871	0.000000	0.185724	0.000000	0.002962	0.001003	0.000000	0.000000
4.755553	21.013746	14.200700	-0.562575	0.625320	3.379877	0.000000	0.085251	0.000000	0.003485	0.000898	0.000000	0.000000
5.304613	21.272177	13.788465	0.095217	0.129874	3.398280	0.000000	-0.016721	0.000000	0.003945	0.000778	0.000000	0.000000
5.603185	21.251589	13.696855	0.027431	0.142302	3.395614	0.000000	-0.008138	0.000000	0.004181	0.000788	0.000000	0.000000
5.936519	21.238534	13.610264	0.011734	0.117473	3.392639	0.000000	-0.008138	0.000000	0.004443	0.000788	0.000000	0.000000
6.269852	21.235943	13.540225	-0.003963	0.092644	3.389663	0.000000	-0.008138	0.000000	0.004706	0.000788	0.000000	0.000000
6.604435	21.243866	13.486569	-0.019718	0.067721	3.386677	0.000000	-0.008138	0.000000	0.004970	0.000788	0.000000	0.000000
6.901758	21.259772	13.452873	-0.086809	0.079326	3.384024	0.000000	0.000313	0.000000	0.005204	0.000801	0.000000	0.000000
7.450818	20.992913	13.627004	0.570353	-0.398318	3.355953	0.000000	-0.101045	0.000000	0.005597	0.000626	0.000000	0.000000
7.999878	20.022238	14.338102	1.187233	-0.904340	3.272734	0.000000	-0.200600	0.000000	0.005890	0.000440	0.000000	0.000000
8.548938	18.416320	15.636831	1.720240	-1.474789	3.135847	0.000000	-0.296589	0.000000	0.006079	0.000246	0.000000	0.000000
9.097998	16.288625	17.615715	2.131711	-2.150303	2.947725	0.000000	-0.387313	0.000000	0.006160	0.000048	0.000000	0.000000
9.543958	14.629361	19.378834	1.601911	-1.786174	2.793030	0.000000	-0.306536	0.000000	0.006217	0.000209	0.000000	0.000000
9.984918	13.420514	20.763690	1.149759	-1.342139	2.674768	0.000000	-0.229754	0.000000	0.006344	0.000371	0.000000	0.000000
10.425878	12.585895	21.728374	0.750147	-0.837025	2.589687	0.000000	-0.155593	0.000000	0.006544	0.000537	0.000000	0.000000
10.866838	12.087364	22.228983	0.384813	-0.293818	2.536817	0.000000	-0.083211	0.000000	0.006819	0.000709	0.000000	0.000000
11.309048	11.901997	22.242168	0.064128	0.211647	2.515530	0.000000	-0.017527	0.000000	0.007172	0.000872	0.000000	0.000000
11.606371	11.871322	22.120465	0.039044	0.197681	2.510060	0.000000	-0.017527	0.000000	0.007431	0.000872	0.000000	0.000000
12.086371	11.853277	21.941514	-0.001451	0.175134	2.501228	0.000000	-0.017527	0.000000	0.007850	0.000872	0.000000	0.000000
12.566371	11.874108	21.784208	-0.041946	0.152586	2.492397	0.000000	-0.017527	0.000000	0.008269	0.000872	0.000000	0.000000
13.046371	11.933814	21.648548	-0.082442	0.130039	2.483565	0.000000	-0.017527	0.000000	0.008687	0.000872	0.000000	0.000000
13.526371	12.032396	21.534533	-0.122937	0.107492	2.474734	0.000000	-0.017527	0.000000	0.009106	0.000872	0.000000	0.000000
14.007621	12.170262	21.441952	-0.163538	0.084886	2.465879	0.000000	-0.017527	0.000000	0.009526	0.000872	0.000000	0.000000
14.304943	12.274933	21.395687	-0.161379	0.023684	2.460405	0.000000	-0.022987	0.000000	0.009785	0.000849	0.000000	0.000000
14.745903	12.575094	21.140576	-0.521458	0.552568	2.465238	0.000000	0.046811	0.000000	0.010216	0.001107	0.000000	0.000000
15.186863	13.202190	20.428309	-0.905381	1.056306	2.500828	0.000000	0.117132	0.000000	0.010764	0.001378	0.000000	0.000000
15.627823	14.184903	19.291292	-1.330699	1.511973	2.567575	0.000000	0.188772	0.000000	0.011434	0.001664	0.000000	0.000000
16.068783	15.568181	17.781260	-1.816858	1.898829	2.666234	0.000000	0.262545	0.000000	0.012234	0.001969	0.000000	0.000000
16.514743	17.438968	15.945127	-2.391077	2.200298	2.799592	0.000000	0.339783	0.000000	0.013185	0.002299	0.000000	0.000000
17.063803	19.842110	13.895027	-1.957839	1.554842	2.961850	0.000000	0.254253	0.000000	0.014327	0.001853	0.000000	0.000000
17.612863	21.690047	12.489191	-1.386184	1.020171	3.076083	0.000000	0.164242	0.000000	0.015214	0.001374	0.000000	0.000000
18.161923	22.852094	11.627472	-0.716523	0.558191	3.140276	0.000000	0.071339	0.000000	0.015832	0.000871	0.000000	0.000000
18.710983	23.246064	11.248478	0.003804	0.135985	3.153298	0.000000	-0.022816	0.000000	0.016168	0.000353	0.000000	0.000000
19.009556	23.278605	11.160457	-0.061230	0.133931	3.148469	0.000000	-0.015741	0.000000	0.016286	0.000392	0.000000	0.000000
19.342889	23.324216	11.081304	-0.075603	0.103528	3.143091	0.000000	-0.015741	0.000000	0.016416	0.000392	0.000000	0.000000
19.676223	23.379409	11.022420	-0.089976	0.073125	3.137714	0.000000	-0.015741	0.000000	0.016547	0.000392	0.000000	0.000000
20.010806	23.444735	10.983561	-0.220561	0.097027	3.132335	0.000000	-0.000222	0.000000	0.016678	0.000475	0.000000	0.000000
20.308129	23.580040	10.933898	-0.286393	0.094149	3.132141	0.000000	0.006756	0.000000	0.016819	0.000515	0.000000	0.000000
20.857189	23.488047	11.052050	0.453071	-0.310556	3.110065	0.000000	-0.086569	0.000000	0.016952	-0.000032	0.000000	0.000000
21.406249	22.596490	11.624196	1.160508	-0.737392	3.037371	0.000000	-0.178358	0.000000	0.016784	-0.000579	0.000000	0.000000
21.955309	20.968416	12.691105	1.785902	-1.216774	2.915347	0.000000	-0.266991	0.000000	0.016319	-0.001115	0.000000	0.000000
22.504369	18.718959	14.328790	2.285036	-1.782861	2.746152	0.000000	-0.350905	0.000000	0.015563	-0.001632	0.000000	0.000000
22.950329	16.947846	15.799343	1.698476	-1.499762	2.607209	0.000000	-0.275112	0.000000	0.014924	-0.001236	0.000000	0.000000
23.391289	15.676458	16.972299	1.194597	-1.149560	2.502331	0.000000	-0.202935	0.000000	0.014463	-0.000857	0.000000	0.000000
23.832249	14.823956	17.811989	0.745338	-0.747035	2.428592	0.000000	-0.133061	0.000000	0.014167	-0.000488	0.000000	0.000000
24.273209	14.351347	18.280199	0.330157	-0.310508	2.385153	0.000000	-0.064698	0.000000	0.014032	-0.000124	0.000000	0.000000
24.715418	14.237200	18.355261	-0.039913	0.101213	2.371524	0.000000	-0.002085	0.000000	0.014057	0.000206	0.000000	0.000000
25.012741	14.267153	18.299941	-0.060830	0.084849	2.370843	0.000000	-0.002085	0.000000	0.014118	0.000206	0.000000	0.000000
25.346075	14.315523	18.249490	-0.084280	0.066503	2.370079	0.000000	-0.002085	0.000000	0.014186	0.000206	0.000000	0.000000
25.679408	14.379527	18.211271	-0.107730	0.048156	2.369316	0.000000	-0.002085	0.000000	0.014255	0.000206	0.000000	0.000000
26.013991	14.459198	18.185576	-0.013966	-0.117789	2.368525	0.000000	-0.021300	0.000000	0.014324	0.000089	0.000000	0.000000
26.311314	14.473530	18.260658	-0.004036	-0.172827	2.362159	0.000000	-0.026278	0.000000	0.014350	0.000057	0.000000	0.000000
26.752274	14.656069	18.215082	-0.411307	0.275767	2.365293	0.000000	0.040974	0.000000	0.014457	0.000428	0.000000	0.000000
27.193234	15.204840	17.777845	-0.837386	0.711810	2.398004	0.000000	0.108687	0.000000	0.014728	0.000804	0.000000	0.000000
27.634194	16.144947	16.968843	-1.301755	1.115454	2.460661	0.000000	0.177630	0.000000	0.015168	0.001190	0.000000	0.000000
28.075154	17.519392	15.824891	-1.825649	1.468327	2.553975	0.000000	0.248585	0.000000	0.015780	0.001589	0.000000	0.000000
28.521114	19.415306	14.380580	-2.438313	1.755602	2.680600	0.000000	0.322839	0.000000	0.016582	0.002009	0.000000	0.000000
29.070174	21.826595	12.771737	-1.925233	1.191157	2.834820	0.000000	0.241290	0.000000	0.017534	0.001456	0.000000	0.000000
29.619234	23.595628	11.732882	-1.276030	0.711592	2.943319	0.000000	0.155482	0.000000	0.018176	0.000877	0.000000	0.000000
30.168294	24.597287	11.189999	-0.536603	0.282736	3.004178	0.000000	0.066929	0.000000	0.018495	0.000283	0.000000	0.000000
30.717354	24.760726	11.104408	0.240763	-0.125972	3.016321	0.000000	-0.022807	0.000000	0.018486	-0.000316	0.000000	0.000000
31.015927	24.652785	11.173313	0.174106	-0.128785	3.011548	0.000000	-0.016207	0.000000	0.018404	-0.000272	0.000000	0.000000
31.349260	24.541357	11.269279	0.160175	-0.159113	3.006236	0.000000	-0.016207	0.000000	0.018314	-0.000272	0.000000	0.000000
31.682593	24.439217	11.385464	0.146244	-0.189441	3.000925	0.000000	-0.016207	0.000000	0.018223	-0.000272	0.000000	0.000000
32.017177	24.346034	11.522417	0.132261	-0.219883	2.995593	0.000000	-0.016207	0.000000	0.018132	-0.000272	0.000000	0.000000
32.314499	24.271312	11.661100	0.066468	-0.221334	2.990870	0.000000	-0.009630	0.000000	0.018051	-0.000229	0.000000	0.000000
32.863559	23.782452	12.142141	0.818033	-0.659731	2.961473	0.000000	-0.098260	0.000000	0.017766	-0.000809	0.000000	0.000000
33.412619	22.494913	13.127552	1.511754	-1.145140	2.884108	0.000000	-0.185159	0.000000	0.017165	-0.001375	0.000000	0.000000
33.961679	20.499765	14.687539	2.098583	-1.712149	2.760139	0.000000	-0.268795	0.000000	0.016260	-0.001917	0.000000	0.000000
34.510739	17.938118	16.933241	2.537033	-2.401159	2.591756	0.000000	-0.347692	0.000000	0.015066	-0.002424	0.000000	0.000000
34.956699	15.947670	18.942405	1.939872	-2.084095	2.453703	0.000000	-0.275903	0.000000	0.014070	-0.002046	0.000000	0.000000
35.397659	14.463724	20.605910	1.436677	-1.673269	2.347953	0.000000	-0.207700	0.000000	0.013246	-0.001694	0.000000	0.000000
35.838619	13.393207	21.871913	0.999172	-1.186287	2.271595	0.000000	-0.141844	0.000000	0.012573	-0.001361	0.000000	0.000000
36.279579	12.687150	22.682805	0.607353	-0.645314	2.223764	0.000000	-0.077590	0.000000	0.012043	-0.001044	0.000000	0.000000
36.721789	12.312634	23.001911	0.269961	-0.124797	2.203901	0.000000	-0.019000	0.000000	0.011650	-0.000765	0.000000	0.000000
37.019112	12.159805	23.080024	0.244053	-0.137924	2.198479	0.000000	-0.019000	0.000000	0.011422	-0.000765	0.000000	0.000000
37.352445	12.006785	23.176879	0.215008	-0.152641	2.192401	0.000000	-0.019000	0.000000	0.011167	-0.000765	0.000000	0.000000
37.685779	11.873128	23.283546	0.185962	-0.167358	2.186323	0.000000	-0.019000	0.000000	0.010912	-0.000765	0.000000	0.000000
38.020362	11.758443	23.400479	0.156808	-0.182131	2.180222	0.000000	-0.019000	0.000000	0.010656	-0.000765	0.000000	0.000000
38.317684	11.672863	23.512760	0.156629	-0.247337	2.174797	0.000000	-0.023794	0.000000	0.010428	-0.000790	0.000000	0.000000
38.758644	11.684082	23.470480	-0.182382	0.342842	2.178345	0.000000	0.038624	0.000000	0.010139	-0.000524	0.000000	0.000000
39.199604	11.996893	22.912553	-0.529726	0.917416	2.209380	0.000000	0.101487	0.000000	0.009965	-0.000265	0.000000	0.000000
39.640564	12.625591	21.864376	-0.901280	1.450235	2.268258	0.000000	0.165510	0.000000	0.009904	-0.000009	0.000000	0.000000
40.081524	13.598918	20.373653	-1.314028	1.917051	2.355651	0.000000	0.231418	0.000000	0.009956	0.000247	0.000000	0.000000
40.527484	14.979004	18.485568	-1.790839	2.298143	2.474032	0.000000	0.300391	0.000000	0.010125	0.000507	0.000000	0.000000
41.076544	16.742263	16.364026	-1.400938	1.588057	2.618517	0.000000	0.225715	0.000000	0.010313	0.000176	0.000000	0.000000
41.625604	18.019980	14.956010	-0.912035	0.991117	2.721009	0.000000	0.147037	0.000000	0.010318	-0.000158	0.000000	0.000000
42.174664	18.721847	14.161203	-0.358686	0.464794	2.779691	0.000000	0.065747	0.000000	0.010140	-0.000489	0.000000	0.000000
42.723724	18.798265	13.922975	0.220001	-0.028411	2.793517	0.000000	-0.016717	0.000000	0.009782	-0.000812	0.000000	0.000000
43.022297	18.698587	13.926388	0.158650	-0.016373	2.790753	0.000000	-0.010032	0.000000	0.009546	-0.000788	0.000000	0.000000
43.502297	18.558915	13.958655	0.132333	-0.050849	2.786316	0.000000	-0.010032	0.000000	0.009168	-0.000788	0.000000	0.000000
43.982297	18.444507	14.024018	0.106017	-0.085325	2.781878	0.000000	-0.010032	0.000000	0.008790	-0.000788	0.000000	0.000000
44.462297	18.355363	14.122479	0.079700	-0.119801	2.777441	0.000000	-0.010032	0.000000	0.008412	-0.000788	0.000000	0.000000
44.942297	18.291483	14.254037	0.053384	-0.154277	2.773003	0.000000	-0.010032	0.000000	0.008034	-0.000788	0.000000	0.000000
45.423547	18.253025	14.418985	-0.063437	-0.117403	2.768572	0.000000	0.003685	0.000000	0.007655	-0.000750	0.000000	0.000000
45.720870	18.295640	14.494990	-0.124562	-0.102993	2.769892	0.000000	0.010463	0.000000	0.007432	-0.000731	0.000000	0.000000
46.269930	18.124040	14.888752	0.434771	-0.618322	2.753643	0.000000	-0.071190	0.000000	0.006966	-0.000964	0.000000	0.000000
46.818990	17.351431	15.869180	0.963366	-1.177697	2.692953	0.000000	-0.151595	0.000000	0.006376	-0.001180	0.000000	0.000000
47.368050	16.032431	17.506106	1.423875	-1.820967	2.588892	0.000000	-0.229330	0.000000	0.005673	-0.001376	0.000000	0.000000
47.917110	14.260268	19.916119	1.783761	-2.593953	2.443295	0.000000	-0.303019	0.000000	0.004870	-0.001547	0.000000	0.000000
48.363070	12.880567	22.058947	1.320195	-2.190546	2.324047	0.000000	-0.234883	0.000000	0.004207	-0.001429	0.000000	0.000000
48.804030	11.895841	23.776240	0.920801	-1.688856	2.235485	0.000000	-0.169817	0.000000	0.003599	-0.001328	0.000000	0.000000
49.244990	11.243582	25.015340	0.563493	-1.110320	2.175128	0.000000	-0.106671	0.000000	0.003033	-0.001243	0.000000	0.000000
49.685950	10.893971	25.719876	0.231941	-0.481267	2.142293	0.000000	-0.044727	0.000000	0.002501	-0.001171	0.000000	0.000000
50.128160	10.831181	25.857530	-0.063064	0.107835	2.136628	0.000000	0.011581	0.000000	0.001997	-0.001118	0.000000	0.000000
50.425482	10.876876	25.796865	-0.090624	0.096202	2.140403	0.000000	0.011581	0.000000	0.001664	-0.001118	0.000000	0.000000
50.758816	10.947592	25.737077	-0.121522	0.083161	2.144636	0.000000	0.011581	0.000000	0.001291	-0.001118	0.000000	0.000000
51.092149	11.038906	25.685983	-0.152420	0.070120	2.148869	0.000000	0.011581	0.000000	0.000919	-0.001118	0.000000	0.000000
51.426732	11.151051	25.643961	-0.092969	-0.151006	2.153096	0.000000	-0.005887	0.000000	0.000544	-0.001123	0.000000	0.000000
51.724055	11.214330	25.737282	-0.092416	-0.226267	2.151680	0.000000	-0.011153	0.000000	0.000211	-0.001123	0.000000	0.000000
52.165015	11.441935	25.650470	-0.426060	0.422388	2.160876	0.000000	0.050725	0.000000	-0.000284	-0.001124	0.000000	0.000000
52.605975	11.971212	24.997925	-0.779162	1.051820	2.197464	0.000000	0.113193	0.000000	-0.000783	-0.001138	0.000000	0.000000
53.046935	12.826332	23.809348	-1.167851	1.633391	2.261866	0.000000	0.176962	0.000000	-0.001290	-0.001165	0.000000	0.000000
53.487895	14.046349	22.138829	-1.609884	2.140644	2.354820	0.000000	0.242758	0.000000	-0.001812	-0.001205	0.000000	0.000000
53.933855	15.707859	20.037378	-2.129683	2.551792	2.478923	0.000000	0.311727	0.000000	-0.002360	-0.001259	0.000000	0.000000
54.482915	17.846742	17.672601	-1.743519	1.780748	2.630374	0.000000	0.236813	0.000000	-0.003028	-0.001171	0.000000	0.000000
55.031975	19.491039	16.080309	-1.234240	1.136538	2.739420	0.000000	0.157679	0.000000	-0.003643	-0.001063	0.000000	0.000000
55.581035	20.524657	15.147078	-0.637814	0.573278	2.804118	0.000000	0.075732	0.000000	-0.004193	-0.000936	0.000000	0.000000
56.130095	20.874626	14.806425	0.003636	0.050851	2.823313	0.000000	-0.007574	0.000000	-0.004668	-0.000793	0.000000	0.000000
56.428668	20.910553	14.758047	-0.067358	0.070865	2.823579	0.000000	0.000088	0.000000	-0.004908	-0.000805	0.000000	0.000000
56.762001	20.960796	14.718370	-0.083371	0.048165	2.823876	0.000000	0.000088	0.000000	-0.005177	-0.000805	0.000000	0.000000
57.095334	21.021715	14.693827	-0.099384	0.025465	2.824174	0.000000	0.000088	0.000000	-0.005445	-0.000805	0.000000	0.000000
57.429918	21.093598	14.684410	-0.115458	0.002680	2.824473	0.000000	0.000088	0.000000	-0.005715	-0.000805	0.000000	0.000000
57.727240	21.166523	14.688821	-0.187758	0.022526	2.824740	0.000000	0.007830	0.000000	-0.005954	-0.000821	0.000000	0.000000
58.276300	21.010991	14.945963	0.468939	-0.493662	2.806509	0.000000	-0.075533	0.000000	-0.006351	-0.000622	0.000000	0.000000
58.825360	20.148471	15.785747	1.092508	-1.045003	2.742701	0.000000	-0.157567	0.000000	-0.006635	-0.000412	0.000000	0.000000
59.374420	18.639876	17.267973	1.638921	-1.670761	2.634442	0.000000	-0.236814	0.000000	-0.006801	-0.000194	0.000000	0.000000
59.923480	16.591730	19.498195	2.069599	-2.415499	2.483650	0.000000	-0.311864	0.000000	-0.006847	0.000027	0.000000	0.000000
60.369440	14.987419	21.480431	1.540699	-2.010823	2.360070	0.000000	-0.242791	0.000000	-0.006875	-0.000151	0.000000	0.000000
60.810400	13.833475	23.041354	1.086277	-1.515887	2.267744	0.000000	-0.176862	0.000000	-0.006980	-0.000329	0.000000	0.000000
61.251360	13.056921	24.133636	0.681472	-0.951993	2.204094	0.000000	-0.112944	0.000000	-0.007166	-0.000512	0.000000	0.000000
61.692320	12.622290	24.707592	0.307796	-0.344795	2.168397	0.000000	-0.050306	0.000000	-0.007432	-0.000700	0.000000	0.000000
62.134530	12.509796	24.736540	-0.019025	0.213318	2.160260	0.000000	0.006087	0.000000	-0.007785	-0.000876	0.000000	0.000000
62.431853	12.528178	24.613428	-0.042801	0.200751	2.162330	0.000000	0.006087	0.000000	-0.008045	-0.000876	0.000000	0.000000
62.765186	12.565598	24.484290	-0.069456	0.186662	2.164651	0.000000	0.006087	0.000000	-0.008337	-0.000876	0.000000	0.000000
63.098520	12.620787	24.364545	-0.096112	0.172574	2.166972	0.000000	0.006087	0.000000	-0.008629	-0.000876	0.000000	0.000000
63.433103	12.694054	24.253795	-0.122867	0.158433	2.169302	0.000000	0.006087	0.000000	-0.008923	-0.000876	0.000000	0.000000
63.730426	12.774154	24.163380	-0.112665	0.081290	2.171369	0.000000	0.000311	0.000000	-0.009183	-0.000853	0.000000	0.000000
64.171386	13.035413	23.825530	-0.482497	0.682067	2.185673	0.000000	0.062747	0.000000	-0.009612	-0.001095	0.000000	0.000000
64.612346	13.631183	22.969629	-0.874355	1.251815	2.227743	0.000000	0.125910	0.000000	-0.010150	-0.001350	0.000000	0.000000
65.053306	14.588655	21.634622	-1.306130	1.764618	2.298066	0.000000	0.190520	0.000000	-0.010804	-0.001620	0.000000	0.000000
65.494266	15.951530	19.881245	-1.797537	2.197153	2.397446	0.000000	0.257317	0.000000	-0.011581	-0.001908	0.000000	0.000000
65.940226	17.805406	17.764296	-2.375423	2.530273	2.528645	0.000000	0.327429	0.000000	-0.012501	-0.002220	0.000000	0.000000
66.489286	20.179571	15.395926	-1.924915	1.809482	2.688654	0.000000	0.250792	0.000000	-0.013605	-0.001797	0.000000	0.000000
67.038346	21.981199	13.743990	-1.338556	1.217535	2.805064	0.000000	0.169678	0.000000	-0.014469	-0.001343	0.000000	0.000000
67.587406	23.083182	12.690842	-0.657735	0.712282	2.875799	0.000000	0.085535	0.000000	-0.015075	-0.000864	0.000000	0.000000
68.136466	23.407786	12.161478	0.069495	0.257744	2.899598	0.000000	-0.000140	0.000000	-0.015415	-0.000370	0.000000	0.000000
68.435038	23.410981	11.994251	-0.012001	0.266853	2.902211	0.000000	0.008376	0.000000	-0.015538	-0.000413	0.000000	0.000000
68.768372	23.423729	11.826273	-0.026242	0.237083	2.905141	0.000000	0.008376	0.000000	-0.015676	-0.000413	0.000000	0.000000
69.101705	23.445970	11.678140	-0.040482	0.207313	2.908071	0.000000	0.008376	0.000000	-0.015813	-0.000413	0.000000	0.000000
69.436288	23.477842	11.549411	-0.054776	0.177431	2.911011	0.000000	0.008376	0.000000	-0.015952	-0.000413	0.000000	0.000000
69.733611	23.514369	11.451711	-0.136834	0.184585	2.913635	0.000000	0.016969	0.000000	-0.016074	-0.000458	0.000000	0.000000
70.282671	23.260778	11.477859	0.595940	-0.232501	2.899352	0.000000	-0.069311	0.000000	-0.016183	0.000065	0.000000	0.000000
