#ParticleID	Turn	x[m]	xp	y[m]	yp	z[m]	dE[GeV]# s	beta_x	beta_y	alpha_x	alpha_y	D_x	D_y	D_px	D_py	orbit_x	orbit_px	orbit_y	orbit_py
0.300000	11.953316	25.311031	-0.020110	-0.021770	2.600390	0.000000	0.000580	0.000000	-0.000773	0.000674	0.000000	0.000000
0.601250	11.973027	25.327734	-0.045322	-0.033677	2.600361	0.000000	0.000580	0.000000	-0.000570	0.000674	0.000000	0.000000
0.898573	12.007376	25.351255	-0.040657	-0.107571	2.600333	0.000000	-0.005819	0.000000	-0.000370	0.000675	0.000000	0.000000
1.339533	12.197034	25.164768	-0.390845	0.528873	2.613674	0.000000	0.067678	0.000000	-0.000074	0.000669	0.000000	0.000000
1.780493	12.702213	24.425493	-0.758895	1.141257	2.659563	0.000000	0.141938	0.000000	0.000222	0.000671	0.000000	0.000000
2.221453	13.546000	23.167059	-1.161623	1.701717	2.738519	0.000000	0.217808	0.000000	0.000519	0.000680	0.000000	0.000000
2.662413	14.766954	21.446719	-1.617429	2.184751	2.851439	0.000000	0.296152	0.000000	0.000823	0.000698	0.000000	0.000000
3.108373	16.441949	19.317537	-2.151508	2.569545	3.001456	0.000000	0.378351	0.000000	0.001139	0.000723	0.000000	0.000000
3.657433	18.589140	16.925768	-1.735580	1.812201	3.183741	0.000000	0.285992	0.000000	0.001525	0.000680	0.000000	0.000000
4.206493	20.209153	15.290321	-1.197037	1.183938	3.313876	0.000000	0.188571	0.000000	0.001884	0.000625	0.000000	0.000000
4.755553	21.187530	14.294713	-0.573922	0.640006	3.389556	0.000000	0.087815	0.000000	0.002209	0.000558	0.000000	0.000000
5.304613	21.455139	13.868036	0.089747	0.141661	3.409444	0.000000	-0.014490	0.000000	0.002495	0.000482	0.000000	0.000000
5.603185	21.438474	13.768951	0.020935	0.154832	3.407575	0.000000	-0.005769	0.000000	0.002641	0.000489	0.000000	0.000000
5.936519	21.429702	13.673993	0.005380	0.130043	3.405489	0.000000	-0.005769	0.000000	0.002804	0.000489	0.000000	0.000000
6.269852	21.431301	13.595560	-0.010175	0.105254	3.403403	0.000000	-0.005769	0.000000	0.002967	0.000489	0.000000	0.000000
6.604435	21.443334	13.533453	-0.025789	0.080371	3.401309	0.000000	-0.005769	0.000000	0.003131	0.000489	0.000000	0.000000
6.901758	21.462801	13.492231	-0.094188	0.092633	3.399449	0.000000	0.002867	0.000000	0.003276	0.000497	0.000000	0.000000
7.450818	21.200189	13.652250	0.569897	-0.385780	3.372784	0.000000	-0.099007	0.000000	0.003519	0.000387	0.000000	0.000000
7.999878	20.226142	14.349569	1.193730	-0.891675	3.290642	0.000000	-0.199119	0.000000	0.003700	0.000270	0.000000	0.000000
8.548938	18.609468	15.633867	1.733236	-1.461091	3.154484	0.000000	-0.295694	0.000000	0.003815	0.000148	0.000000	0.000000
9.097998	16.464382	17.596632	2.150298	-2.134589	2.966726	0.000000	-0.387021	0.000000	0.003862	0.000024	0.000000	0.000000
9.543958	14.790709	19.345337	1.615863	-1.769849	2.812297	0.000000	-0.305761	0.000000	0.003895	0.000125	0.000000	0.000000
9.984918	13.571389	20.715737	1.159693	-1.325913	2.694538	0.000000	-0.228481	0.000000	0.003973	0.000226	0.000000	0.000000
10.425878	12.729610	21.666394	0.756513	-0.821640	2.610209	0.000000	-0.153806	0.000000	0.004095	0.000330	0.000000	0.000000
10.866838	12.226908	22.154049	0.387899	-0.279979	2.558347	0.000000	-0.080886	0.000000	0.004264	0.000438	0.000000	0.000000
11.309048	12.040156	22.155939	0.065165	0.222188	2.538343	0.000000	-0.014851	0.000000	0.004483	0.000540	0.000000	0.000000
11.606371	12.008779	22.028002	0.040366	0.208106	2.533767	0.000000	-0.014851	0.000000	0.004643	0.000540	0.000000	0.000000
12.086371	11.989245	21.839133	0.000330	0.185372	2.526379	0.000000	-0.014851	0.000000	0.004902	0.000540	0.000000	0.000000
12.566371	12.008146	21.672088	-0.039706	0.162638	2.518992	0.000000	-0.014851	0.000000	0.005161	0.000540	0.000000	0.000000
13.046371	12.065481	21.526868	-0.079742	0.139904	2.511604	0.000000	-0.014851	0.000000	0.005420	0.000540	0.000000	0.000000
13.526371	12.161250	21.403472	-0.119778	0.117170	2.504217	0.000000	-0.014851	0.000000	0.005679	0.000540	0.000000	0.000000
14.007621	12.295853	21.301666	-0.159918	0.094376	2.496810	0.000000	-0.014851	0.000000	0.005939	0.000540	0.000000	0.000000
14.304943	12.398308	21.249755	-0.156095	0.031394	2.492233	0.000000	-0.020604	0.000000	0.006100	0.000525	0.000000	0.000000
14.745903	12.694904	20.989648	-0.518795	0.556175	2.498457	0.000000	0.050026	0.000000	0.006366	0.000686	0.000000	0.000000
15.186863	13.320643	20.276116	-0.905208	1.055648	2.535854	0.000000	0.121219	0.000000	0.006706	0.000854	0.000000	0.000000
15.627823	14.304132	19.141624	-1.332998	1.507083	2.604847	0.000000	0.193784	0.000000	0.007122	0.001033	0.000000	0.000000
16.068783	15.690336	17.637792	-1.821716	1.889936	2.706218	0.000000	0.268545	0.000000	0.007618	0.001223	0.000000	0.000000
16.514743	17.566249	15.811489	-2.398614	2.187673	2.842815	0.000000	0.346840	0.000000	0.008209	0.001428	0.000000	0.000000
17.063803	19.974731	13.773042	-1.960729	1.546398	3.008960	0.000000	0.259863	0.000000	0.008918	0.001151	0.000000	0.000000
17.612863	21.822853	12.374592	-1.384270	1.015292	3.126163	0.000000	0.168293	0.000000	0.009469	0.000853	0.000000	0.000000
18.161923	22.979976	11.516521	-0.709975	0.556519	3.192352	0.000000	0.073751	0.000000	0.009852	0.000540	0.000000	0.000000
18.710983	23.364301	11.137704	0.014502	0.137395	3.206359	0.000000	-0.022090	0.000000	0.010060	0.000217	0.000000	0.000000
19.009556	23.392693	11.048059	-0.054064	0.136414	3.201971	0.000000	-0.014438	0.000000	0.010132	0.000242	0.000000	0.000000
19.342889	23.433500	10.967361	-0.068355	0.105681	3.197078	0.000000	-0.014438	0.000000	0.010213	0.000242	0.000000	0.000000
19.676223	23.483833	10.907151	-0.082646	0.074949	3.192185	0.000000	-0.014438	0.000000	0.010293	0.000242	0.000000	0.000000
20.010806	23.544228	10.867184	-0.213642	0.097943	3.187293	0.000000	0.001354	0.000000	0.010374	0.000293	0.000000	0.000000
20.308129	23.675271	10.817121	-0.283130	0.096088	3.187614	0.000000	0.008932	0.000000	0.010462	0.000320	0.000000	0.000000
20.857189	23.578024	10.931318	0.459271	-0.305272	3.166292	0.000000	-0.086185	0.000000	0.010544	-0.000021	0.000000	0.000000
21.406249	22.678356	11.495610	1.169217	-0.728383	3.093261	0.000000	-0.179773	0.000000	0.010439	-0.000361	0.000000	0.000000
21.955309	21.039859	12.550199	1.796529	-1.203390	2.969813	0.000000	-0.270178	0.000000	0.010149	-0.000694	0.000000	0.000000
22.504369	18.778353	14.170213	2.296875	-1.764133	2.798137	0.000000	-0.355799	0.000000	0.009679	-0.001016	0.000000	0.000000
22.950329	16.997965	15.625604	1.708405	-1.485109	2.657090	0.000000	-0.278712	0.000000	0.009281	-0.000770	0.000000	0.000000
23.391289	15.718733	16.787531	1.202934	-1.139512	2.550744	0.000000	-0.205278	0.000000	0.008994	-0.000534	0.000000	0.000000
23.832249	14.859557	17.620503	0.752449	-0.742056	2.476141	0.000000	-0.134176	0.000000	0.008809	-0.000305	0.000000	0.000000
24.273209	14.381158	18.086615	0.336357	-0.310829	2.432432	0.000000	-0.064600	0.000000	0.008724	-0.000079	0.000000	0.000000
24.715418	14.261776	18.164381	-0.032431	0.093657	2.419122	0.000000	-0.001190	0.000000	0.008740	0.000126	0.000000	0.000000
25.012741	14.287266	18.113598	-0.053300	0.077145	2.418730	0.000000	-0.001190	0.000000	0.008777	0.000126	0.000000	0.000000
25.346075	14.330598	18.068338	-0.076697	0.058633	2.418292	0.000000	-0.001190	0.000000	0.008819	0.000126	0.000000	0.000000
25.679408	14.389529	18.035420	-0.100094	0.040121	2.417853	0.000000	-0.001190	0.000000	0.008861	0.000126	0.000000	0.000000
26.013991	14.464073	18.015155	-0.006237	-0.124608	2.417388	0.000000	-0.020801	0.000000	0.008903	0.000054	0.000000	0.000000
26.311314	14.473860	18.094278	0.005637	-0.181903	2.411185	0.000000	-0.026204	0.000000	0.008919	0.000033	0.000000	0.000000
26.752274	14.647747	18.058694	-0.401360	0.262282	2.414669	0.000000	0.042306	0.000000	0.008985	0.000264	0.000000	0.000000
27.193234	15.187368	17.635111	-0.826703	0.694531	2.448345	0.000000	0.111295	0.000000	0.009152	0.000498	0.000000	0.000000
27.634194	16.117393	16.842802	-1.289836	1.095173	2.512596	0.000000	0.181547	0.000000	0.009424	0.000737	0.000000	0.000000
28.075154	17.480346	15.717823	-1.811930	1.445973	2.608152	0.000000	0.253860	0.000000	0.009804	0.000985	0.000000	0.000000
28.521114	19.362417	14.294291	-2.421973	1.732068	2.737715	0.000000	0.329530	0.000000	0.010301	0.001246	0.000000	0.000000
29.070174	21.755589	12.708964	-1.909589	1.171886	2.895429	0.000000	0.246091	0.000000	0.010891	0.000902	0.000000	0.000000
29.619234	23.508025	11.689679	-1.262239	0.695198	3.006247	0.000000	0.158300	0.000000	0.011289	0.000543	0.000000	0.000000
30.168294	24.495842	11.163822	-0.525674	0.268041	3.068206	0.000000	0.067709	0.000000	0.011486	0.000174	0.000000	0.000000
30.717354	24.649206	11.093931	0.248044	-0.140018	3.080209	0.000000	-0.024081	0.000000	0.011479	-0.000198	0.000000	0.000000
31.015927	24.539385	11.170112	0.177475	-0.141135	3.075228	0.000000	-0.016831	0.000000	0.011429	-0.000170	0.000000	0.000000
31.349260	24.425739	11.274348	0.163464	-0.171571	3.069674	0.000000	-0.016831	0.000000	0.011372	-0.000170	0.000000	0.000000
31.682593	24.321434	11.398874	0.149452	-0.202007	3.064121	0.000000	-0.016831	0.000000	0.011316	-0.000170	0.000000	0.000000
32.017177	24.226131	11.544272	0.135388	-0.232557	3.058546	0.000000	-0.016831	0.000000	0.011259	-0.000170	0.000000	0.000000
32.314499	24.149428	11.690589	0.065894	-0.232138	3.053598	0.000000	-0.009624	0.000000	0.011208	-0.000142	0.000000	0.000000
32.863559	23.663608	12.184149	0.813327	-0.671944	3.023552	0.000000	-0.100258	0.000000	0.011031	-0.000502	0.000000	0.000000
33.412619	22.383634	13.184042	1.503271	-1.159625	2.944337	0.000000	-0.189121	0.000000	0.010659	-0.000854	0.000000	0.000000
33.961679	20.399993	14.761501	2.086964	-1.729925	2.817352	0.000000	-0.274643	0.000000	0.010097	-0.001190	0.000000	0.000000
34.510739	17.852913	17.028897	2.523156	-2.423473	2.644845	0.000000	-0.355311	0.000000	0.009356	-0.001505	0.000000	0.000000
34.956699	15.873950	19.057353	1.928955	-2.105424	2.503344	0.000000	-0.282212	0.000000	0.008737	-0.001270	0.000000	0.000000
35.397659	14.398838	20.738689	1.428054	-1.692500	2.394793	0.000000	-0.212773	0.000000	0.008226	-0.001052	0.000000	0.000000
35.838619	13.335248	22.020316	0.992430	-1.202553	2.316216	0.000000	-0.145746	0.000000	0.007808	-0.000845	0.000000	0.000000
36.279579	12.634553	22.843917	0.602170	-0.657881	2.266722	0.000000	-0.080371	0.000000	0.007479	-0.000648	0.000000	0.000000
36.721789	12.264067	23.172324	0.267305	-0.136042	2.245725	0.000000	-0.021027	0.000000	0.007235	-0.000475	0.000000	0.000000
37.019112	12.112839	23.257106	0.241329	-0.149110	2.239614	0.000000	-0.021027	0.000000	0.007093	-0.000475	0.000000	0.000000
37.352445	11.961660	23.361397	0.212207	-0.163761	2.232764	0.000000	-0.021027	0.000000	0.006935	-0.000475	0.000000	0.000000
37.685779	11.829895	23.475455	0.183086	-0.178412	2.225913	0.000000	-0.021027	0.000000	0.006776	-0.000475	0.000000	0.000000
38.020362	11.717160	23.599763	0.153855	-0.193119	2.219037	0.000000	-0.021027	0.000000	0.006617	-0.000475	0.000000	0.000000
38.317684	11.633380	23.718514	0.154632	-0.260894	2.212925	0.000000	-0.026116	0.000000	0.006476	-0.000491	0.000000	0.000000
38.758644	11.645990	23.685756	-0.183471	0.334893	2.215555	0.000000	0.037266	0.000000	0.006296	-0.000326	0.000000	0.000000
39.199604	11.959386	23.132254	-0.529957	0.915439	2.246136	0.000000	0.101077	0.000000	0.006188	-0.000165	0.000000	0.000000
39.640564	12.587888	22.083198	-0.900660	1.454325	2.305016	0.000000	0.166041	0.000000	0.006150	-0.000006	0.000000	0.000000
40.081524	13.560222	20.586329	-1.312523	1.927029	2.392866	0.000000	0.232896	0.000000	0.006182	0.000153	0.000000	0.000000
40.527484	14.938368	18.687037	-1.788288	2.313499	2.512172	0.000000	0.302829	0.000000	0.006287	0.000315	0.000000	0.000000
41.076544	16.699522	16.552154	-1.399915	1.597353	2.657717	0.000000	0.226909	0.000000	0.006403	0.000109	0.000000	0.000000
41.625604	17.976928	15.137020	-0.912629	0.995002	2.760514	0.000000	0.146965	0.000000	0.006406	-0.000099	0.000000	0.000000
42.174664	18.680323	14.340822	-0.360865	0.463537	2.818741	0.000000	0.064412	0.000000	0.006295	-0.000304	0.000000	0.000000
42.723724	18.760008	14.106838	0.216390	-0.034904	2.831362	0.000000	-0.019288	0.000000	0.006073	-0.000505	0.000000	0.000000
43.022297	18.663416	14.113082	0.153535	-0.021014	2.827842	0.000000	-0.012273	0.000000	0.005927	-0.000489	0.000000	0.000000
43.502297	18.528658	14.149588	0.127210	-0.055040	2.822186	0.000000	-0.012273	0.000000	0.005692	-0.000489	0.000000	0.000000
43.982297	18.419173	14.218758	0.100885	-0.089066	2.816529	0.000000	-0.012273	0.000000	0.005457	-0.000489	0.000000	0.000000
44.462297	18.334959	14.320594	0.074560	-0.123092	2.810873	0.000000	-0.012273	0.000000	0.005222	-0.000489	0.000000	0.000000
44.942297	18.276017	14.455094	0.048235	-0.157118	2.805217	0.000000	-0.012273	0.000000	0.004987	-0.000489	0.000000	0.000000
45.423547	18.242519	14.622557	-0.068542	-0.118783	2.799563	0.000000	0.001597	0.000000	0.004752	-0.000466	0.000000	0.000000
45.720870	18.288157	14.699312	-0.130832	-0.102596	2.800177	0.000000	0.008628	0.000000	0.004613	-0.000454	0.000000	0.000000
46.269930	18.123650	15.095949	0.428380	-0.624014	2.782488	0.000000	-0.073976	0.000000	0.004324	-0.000599	0.000000	0.000000
46.818990	17.358055	16.086100	0.957317	-1.189882	2.719807	0.000000	-0.155277	0.000000	0.003958	-0.000733	0.000000	0.000000
47.368050	16.045478	17.740292	1.418610	-1.840510	2.613241	0.000000	-0.233835	0.000000	0.003522	-0.000854	0.000000	0.000000
47.917110	14.278670	20.176344	1.779670	-2.622240	2.464674	0.000000	-0.308260	0.000000	0.003023	-0.000960	0.000000	0.000000
48.363070	12.902697	22.341639	1.316201	-2.212540	2.342966	0.000000	-0.239608	0.000000	0.002611	-0.000887	0.000000	0.000000
48.804030	11.921640	24.075129	0.916679	-1.703537	2.252203	0.000000	-0.174085	0.000000	0.002234	-0.000825	0.000000	0.000000
49.244990	11.273228	25.323672	0.559048	-1.117023	2.189848	0.000000	-0.110535	0.000000	0.001883	-0.000771	0.000000	0.000000
49.685950	10.927824	26.030464	0.226966	-0.479686	2.155194	0.000000	-0.048236	0.000000	0.001552	-0.000727	0.000000	0.000000
50.128160	10.869811	26.163062	-0.068514	0.116279	2.147861	0.000000	0.008316	0.000000	0.001239	-0.000694	0.000000	0.000000
50.425482	10.918724	26.097342	-0.095996	0.104761	2.150540	0.000000	0.008316	0.000000	0.001033	-0.000694	0.000000	0.000000
50.758816	10.992991	26.031805	-0.126806	0.091848	2.153544	0.000000	0.008316	0.000000	0.000801	-0.000694	0.000000	0.000000
51.092149	11.087798	25.974878	-0.157616	0.078935	2.156547	0.000000	0.008316	0.000000	0.000570	-0.000694	0.000000	0.000000
51.426732	11.203390	25.926919	-0.097652	-0.144358	2.159540	0.000000	-0.009204	0.000000	0.000338	-0.000697	0.000000	0.000000
51.724055	11.269424	26.016242	-0.096842	-0.220045	2.157010	0.000000	-0.014487	0.000000	0.000130	-0.000697	0.000000	0.000000
52.165015	11.501579	25.920706	-0.431858	0.435875	2.164581	0.000000	0.047507	0.000000	-0.000177	-0.000698	0.000000	0.000000
52.605975	12.036733	25.253273	-0.786599	1.071961	2.199586	0.000000	0.110050	0.000000	-0.000486	-0.000706	0.000000	0.000000
53.046935	12.899330	24.044320	-1.177271	1.659271	2.262426	0.000000	0.173854	0.000000	-0.000801	-0.000723	0.000000	0.000000
53.487895	14.128769	22.348858	-1.621722	2.171084	2.353819	0.000000	0.239645	0.000000	-0.001125	-0.000748	0.000000	0.000000
53.933855	15.802230	20.218700	-2.144530	2.585431	2.476325	0.000000	0.308571	0.000000	-0.001466	-0.000781	0.000000	0.000000
54.482915	17.956271	17.821320	-1.755845	1.806779	2.625830	0.000000	0.233769	0.000000	-0.001881	-0.000727	0.000000	0.000000
55.031975	19.612454	16.203724	-1.243158	1.156817	2.733027	0.000000	0.154809	0.000000	-0.002262	-0.000660	0.000000	0.000000
55.581035	20.653826	15.250686	-0.642683	0.589250	2.796011	0.000000	0.073092	0.000000	-0.002603	-0.000581	0.000000	0.000000
56.130095	21.006857	14.894320	0.003170	0.063654	2.813660	0.000000	-0.009930	0.000000	-0.002899	-0.000492	0.000000	0.000000
56.428668	21.042781	14.838501	-0.067293	0.083351	2.813091	0.000000	-0.002402	0.000000	-0.003048	-0.000500	0.000000	0.000000
56.762001	21.092947	14.790474	-0.083206	0.060731	2.812458	0.000000	-0.002402	0.000000	-0.003214	-0.000500	0.000000	0.000000
57.095334	21.153722	14.757527	-0.099118	0.038111	2.811824	0.000000	-0.002402	0.000000	-0.003381	-0.000500	0.000000	0.000000
57.429918	21.225393	14.739621	-0.115091	0.015406	2.811187	0.000000	-0.002402	0.000000	-0.003548	-0.000500	0.000000	0.000000
57.727240	21.298059	14.736453	-0.186638	0.034808	2.810623	0.000000	0.005167	0.000000	-0.003697	-0.000510	0.000000	0.000000
58.276300	21.138953	14.980762	0.474445	-0.482418	2.790913	0.000000	-0.077721	0.000000	-0.003943	-0.000386	0.000000	0.000000
58.825360	20.268175	15.808434	1.102012	-1.034000	2.725938	0.000000	-0.159237	0.000000	-0.004119	-0.000255	0.000000	0.000000
59.374420	18.747227	17.278411	1.651747	-1.659222	2.616848	0.000000	-0.237933	0.000000	-0.004223	-0.000120	0.000000	0.000000
59.923480	16.683517	19.495381	2.084830	-2.402611	2.465576	0.000000	-0.312411	0.000000	-0.004251	0.000017	0.000000	0.000000
60.369440	15.067014	21.465609	1.552884	-1.996834	2.341638	0.000000	-0.243799	0.000000	-0.004268	-0.000093	0.000000	0.000000
60.810400	13.903395	23.014033	1.096058	-1.501504	2.248721	0.000000	-0.178348	0.000000	-0.004333	-0.000204	0.000000	0.000000
61.251360	13.119103	24.093738	0.689300	-0.937866	2.184236	0.000000	-0.114926	0.000000	-0.004448	-0.000317	0.000000	0.000000
61.692320	12.678313	24.655608	0.314031	-0.331563	2.147452	0.000000	-0.052809	0.000000	-0.004614	-0.000434	0.000000	0.000000
62.134530	12.560935	24.673499	-0.014796	0.226730	2.137956	0.000000	0.003231	0.000000	-0.004833	-0.000544	0.000000	0.000000
62.431853	12.576772	24.542442	-0.038471	0.214060	2.139078	0.000000	0.003231	0.000000	-0.004994	-0.000544	0.000000	0.000000
62.765186	12.611267	24.404470	-0.065014	0.199856	2.140337	0.000000	0.003231	0.000000	-0.005176	-0.000544	0.000000	0.000000
63.098520	12.663458	24.275967	-0.091557	0.185652	2.141595	0.000000	0.003231	0.000000	-0.005357	-0.000544	0.000000	0.000000
63.433103	12.733639	24.156505	-0.118200	0.171394	2.142858	0.000000	0.003231	0.000000	-0.005539	-0.000544	0.000000	0.000000
63.730426	12.810953	24.058377	-0.108793	0.096410	2.143980	0.000000	-0.002305	0.000000	-0.005701	-0.000530	0.000000	0.000000
64.171386	13.069223	23.708515	-0.479399	0.694046	2.156815	0.000000	0.059412	0.000000	-0.005967	-0.000680	0.000000	0.000000
64.612346	13.662660	22.843596	-0.871896	1.260108	2.197054	0.000000	0.121812	0.000000	-0.006301	-0.000838	0.000000	0.000000
65.053306	14.618359	21.502973	-1.304210	1.768842	2.265156	0.000000	0.185609	0.000000	-0.006707	-0.001006	0.000000	0.000000
65.494266	15.979957	19.747641	-1.796083	2.197108	2.361902	0.000000	0.251530	0.000000	-0.007190	-0.001185	0.000000	0.000000
65.940226	17.832924	17.632615	-2.374513	2.526007	2.489976	0.000000	0.320706	0.000000	-0.007761	-0.001379	0.000000	0.000000
66.489286	20.205711	15.267074	-1.922625	1.808264	2.646253	0.000000	0.245368	0.000000	-0.008447	-0.001116	0.000000	0.000000
67.038346	22.004446	13.614719	-1.335005	1.219295	2.759761	0.000000	0.165660	0.000000	-0.008983	-0.000834	0.000000	0.000000
67.587406	23.102168	12.557867	-0.653141	0.717156	2.828481	0.000000	0.083002	0.000000	-0.009359	-0.000537	0.000000	0.000000
68.136466	23.421403	12.021249	0.074827	0.266085	2.851187	0.000000	-0.001137	0.000000	-0.009570	-0.000230	0.000000	0.000000
68.435038	23.419864	11.850227	-0.003902	0.272916	2.853319	0.000000	0.006895	0.000000	-0.009647	-0.000256	0.000000	0.000000
68.768372	23.427210	11.678358	-0.018135	0.242692	2.855702	0.000000	0.006895	0.000000	-0.009732	-0.000256	0.000000	0.000000
69.101705	23.444044	11.526638	-0.032368	0.212468	2.858086	0.000000	0.006895	0.000000	-0.009817	-0.000256	0.000000	0.000000
69.436288	23.470484	11.394611	-0.046655	0.182131	2.860479	0.000000	0.006895	0.000000	-0.009903	-0.000256	0.000000	0.000000
69.733611	23.502071	11.294290	-0.125754	0.187040	2.862609	0.000000	0.014983	0.000000	-0.009979	-0.000283	0.000000	0.000000
70.282671	23.236579	11.315337	0.606420	-0.225605	2.847645	0.000000	-0.069650	0.000000	-0.010046	0.000041	0.000000	0.000000
