#ParticleID	Turn	x[m]	xp	y[m]	yp	z[m]	dE[GeV]# s	beta_x	beta_y	alpha_x	alpha_y	D_x	D_y	D_px	D_py	orbit_x	orbit_px	orbit_y	orbit_py
0.300000	11.913632	25.199912	-0.018781	-0.023431	2.606454	0.000000	0.000573	0.000000	-0.000466	0.000409	0.000000	0.000000
0.601250	11.932567	25.217633	-0.044076	-0.035392	2.606504	0.000000	0.000573	0.000000	-0.000343	0.000409	0.000000	0.000000
0.898573	11.966199	25.242188	-0.039635	-0.109080	2.606553	0.000000	-0.005832	0.000000	-0.000221	0.000409	0.000000	0.000000
1.339533	12.154493	25.058298	-0.388854	0.524516	2.620036	0.000000	0.067827	0.000000	-0.000042	0.000406	0.000000	0.000000
1.780493	12.657414	24.324055	-0.755842	1.134248	2.666139	0.000000	0.142254	0.000000	0.000137	0.000407	0.000000	0.000000
2.221453	13.497944	23.072862	-1.157366	1.692374	2.745384	0.000000	0.218298	0.000000	0.000318	0.000413	0.000000	0.000000
2.662413	14.714488	21.361645	-1.611770	2.173500	2.858674	0.000000	0.296823	0.000000	0.000502	0.000423	0.000000	0.000000
3.108373	16.383642	19.243181	-2.144165	2.556884	3.009151	0.000000	0.379214	0.000000	0.000694	0.000439	0.000000	0.000000
3.657433	18.523594	16.863609	-1.729986	1.802549	3.191985	0.000000	0.286599	0.000000	0.000928	0.000413	0.000000	0.000000
4.206493	20.138521	15.237449	-1.193597	1.176606	3.322512	0.000000	0.188907	0.000000	0.001146	0.000379	0.000000	0.000000
4.755553	21.114336	14.248876	-0.572886	0.634472	3.398421	0.000000	0.087870	0.000000	0.001343	0.000339	0.000000	0.000000
5.304613	21.382098	13.827479	0.088301	0.137530	3.418368	0.000000	-0.014720	0.000000	0.001517	0.000292	0.000000	0.000000
5.603185	21.366478	13.730730	0.019167	0.150900	3.416517	0.000000	-0.005902	0.000000	0.001605	0.000296	0.000000	0.000000
5.936519	21.358902	13.638407	0.003560	0.126071	3.414451	0.000000	-0.005902	0.000000	0.001704	0.000296	0.000000	0.000000
6.269852	21.361731	13.562636	-0.012046	0.101242	3.412384	0.000000	-0.005902	0.000000	0.001803	0.000296	0.000000	0.000000
6.604435	21.375033	13.503227	-0.027711	0.076319	3.410310	0.000000	-0.005902	0.000000	0.001902	0.000296	0.000000	0.000000
6.901758	21.395653	13.464427	-0.096597	0.088821	3.408468	0.000000	0.002854	0.000000	0.001990	0.000301	0.000000	0.000000
7.450818	21.136852	13.628210	0.565308	-0.388869	3.381808	0.000000	-0.099308	0.000000	0.002137	0.000235	0.000000	0.000000
7.999878	20.168878	14.328611	1.187284	-0.894259	3.299491	0.000000	-0.199705	0.000000	0.002247	0.000164	0.000000	0.000000
8.548938	18.560106	15.615525	1.725392	-1.463350	3.162981	0.000000	-0.296557	0.000000	0.002316	0.000090	0.000000	0.000000
9.097998	16.424185	17.580623	2.141616	-2.136680	2.974698	0.000000	-0.388147	0.000000	0.002345	0.000014	0.000000	0.000000
9.543958	14.757572	19.331506	1.608724	-1.772706	2.819825	0.000000	-0.306696	0.000000	0.002365	0.000075	0.000000	0.000000
9.984918	13.544027	20.704667	1.153719	-1.329366	2.701728	0.000000	-0.229229	0.000000	0.002411	0.000137	0.000000	0.000000
10.425878	12.707107	21.658556	0.751429	-0.825536	2.617157	0.000000	-0.154375	0.000000	0.002486	0.000200	0.000000	0.000000
10.866838	12.208571	22.149767	0.383471	-0.284142	2.565149	0.000000	-0.081281	0.000000	0.002588	0.000265	0.000000	0.000000
11.309048	12.025490	22.155399	0.061656	0.217092	2.545090	0.000000	-0.015196	0.000000	0.002720	0.000327	0.000000	0.000000
11.606371	11.996206	22.030484	0.036838	0.203040	2.540475	0.000000	-0.015196	0.000000	0.002818	0.000327	0.000000	0.000000
12.086371	11.980073	21.846455	-0.003229	0.180354	2.533024	0.000000	-0.015196	0.000000	0.002975	0.000327	0.000000	0.000000
12.566371	12.002406	21.684205	-0.043296	0.157667	2.525573	0.000000	-0.015196	0.000000	0.003132	0.000327	0.000000	0.000000
13.046371	12.063202	21.543734	-0.083363	0.134981	2.518122	0.000000	-0.015196	0.000000	0.003289	0.000327	0.000000	0.000000
13.526371	12.162463	21.425041	-0.123430	0.112295	2.510671	0.000000	-0.015196	0.000000	0.003446	0.000327	0.000000	0.000000
14.007621	12.300597	21.327903	-0.163601	0.089550	2.503200	0.000000	-0.015196	0.000000	0.003603	0.000327	0.000000	0.000000
14.304943	12.405256	21.278840	-0.159074	0.025255	2.498585	0.000000	-0.021107	0.000000	0.003701	0.000318	0.000000	0.000000
14.745903	12.704525	21.023776	-0.522010	0.550940	2.504723	0.000000	0.049682	0.000000	0.003862	0.000416	0.000000	0.000000
15.186863	13.333183	20.314400	-0.908802	1.051557	2.542131	0.000000	0.121032	0.000000	0.004068	0.000518	0.000000	0.000000
15.627823	14.319963	19.182985	-1.337127	1.504324	2.611231	0.000000	0.193755	0.000000	0.004320	0.000626	0.000000	0.000000
16.068783	15.709967	17.681012	-1.826559	1.888639	2.712808	0.000000	0.268678	0.000000	0.004621	0.000741	0.000000	0.000000
16.514743	17.590345	15.855311	-2.404319	2.187843	2.849715	0.000000	0.347133	0.000000	0.004979	0.000866	0.000000	0.000000
17.063803	20.004662	13.817247	-1.966079	1.545708	3.016220	0.000000	0.259936	0.000000	0.005409	0.000698	0.000000	0.000000
17.612863	21.858078	12.420123	-1.388919	1.013683	3.133602	0.000000	0.168139	0.000000	0.005743	0.000517	0.000000	0.000000
18.161923	23.019619	11.564421	-0.713617	0.553871	3.199785	0.000000	0.073368	0.000000	0.005975	0.000327	0.000000	0.000000
18.710983	23.407199	11.189187	0.012112	0.133516	3.213596	0.000000	-0.022700	0.000000	0.006101	0.000131	0.000000	0.000000
19.009556	23.438381	11.101107	-0.058652	0.133834	3.209149	0.000000	-0.014740	0.000000	0.006145	0.000147	0.000000	0.000000
19.342889	23.482239	11.022073	-0.072923	0.103269	3.204187	0.000000	-0.014740	0.000000	0.006194	0.000147	0.000000	0.000000
19.676223	23.535611	10.963415	-0.087193	0.072704	3.199225	0.000000	-0.014740	0.000000	0.006243	0.000147	0.000000	0.000000
20.010806	23.599043	10.924893	-0.218440	0.096153	3.194263	0.000000	0.001086	0.000000	0.006292	0.000178	0.000000	0.000000
20.308129	23.732890	10.875870	-0.290297	0.095598	3.194535	0.000000	0.008982	0.000000	0.006345	0.000194	0.000000	0.000000
20.857189	23.642455	10.991484	0.454078	-0.307388	3.173215	0.000000	-0.086348	0.000000	0.006395	-0.000012	0.000000	0.000000
21.406249	22.747309	11.559021	1.166369	-0.732273	3.100001	0.000000	-0.180145	0.000000	0.006331	-0.000218	0.000000	0.000000
21.955309	21.110709	12.618913	1.796247	-1.209325	2.976191	0.000000	-0.270751	0.000000	0.006156	-0.000421	0.000000	0.000000
22.504369	18.848308	14.246660	2.299205	-1.772527	2.803980	0.000000	-0.356560	0.000000	0.005871	-0.000616	0.000000	0.000000
22.950329	17.066659	15.708643	1.709391	-1.491667	2.662483	0.000000	-0.279346	0.000000	0.005630	-0.000466	0.000000	0.000000
23.391289	15.787292	16.875343	1.202526	-1.143874	2.555782	0.000000	-0.205783	0.000000	0.005456	-0.000324	0.000000	0.000000
23.832249	14.929175	17.711078	0.750617	-0.744030	2.480916	0.000000	-0.134562	0.000000	0.005344	-0.000184	0.000000	0.000000
24.273209	14.453088	18.177819	0.333011	-0.310327	2.437033	0.000000	-0.064871	0.000000	0.005293	-0.000047	0.000000	0.000000
24.715418	14.337372	18.254075	-0.036092	0.094915	2.423632	0.000000	-0.001560	0.000000	0.005302	0.000077	0.000000	0.000000
25.012741	14.365007	18.202521	-0.056856	0.078480	2.423145	0.000000	-0.001560	0.000000	0.005325	0.000077	0.000000	0.000000
25.346075	14.410671	18.156343	-0.080136	0.060054	2.422600	0.000000	-0.001560	0.000000	0.005350	0.000077	0.000000	0.000000
25.679408	14.471855	18.122449	-0.103415	0.041629	2.422054	0.000000	-0.001560	0.000000	0.005376	0.000077	0.000000	0.000000
26.013991	14.548580	18.101147	-0.008755	-0.123710	2.421482	0.000000	-0.021205	0.000000	0.005402	0.000033	0.000000	0.000000
26.311314	14.559850	18.179685	0.004660	-0.182651	2.415167	0.000000	-0.026820	0.000000	0.005411	0.000020	0.000000	0.000000
26.752274	14.735472	18.143747	-0.404374	0.263835	2.418425	0.000000	0.041784	0.000000	0.005451	0.000160	0.000000	0.000000
27.193234	15.278640	17.717823	-0.831888	0.698314	2.451952	0.000000	0.110861	0.000000	0.005553	0.000302	0.000000	0.000000
27.634194	16.214180	16.921294	-1.297421	1.101017	2.516131	0.000000	0.181199	0.000000	0.005718	0.000447	0.000000	0.000000
28.075154	17.584855	15.790404	-1.822249	1.453618	2.611690	0.000000	0.253596	0.000000	0.005948	0.000597	0.000000	0.000000
28.521114	19.477225	14.359519	-2.435412	1.741094	2.741328	0.000000	0.329340	0.000000	0.006249	0.000756	0.000000	0.000000
29.070174	21.883091	12.765677	-1.919645	1.178630	2.899122	0.000000	0.245793	0.000000	0.006608	0.000547	0.000000	0.000000
29.619234	23.644181	11.740080	-1.268234	0.700130	3.009890	0.000000	0.157896	0.000000	0.006849	0.000329	0.000000	0.000000
30.168294	24.636039	11.209672	-0.527207	0.271508	3.071669	0.000000	0.067202	0.000000	0.006968	0.000106	0.000000	0.000000
30.717354	24.788568	11.136666	0.251072	-0.137772	3.083364	0.000000	-0.024683	0.000000	0.006964	-0.000120	0.000000	0.000000
31.015927	24.678709	11.210699	0.177674	-0.137520	3.078285	0.000000	-0.017105	0.000000	0.006934	-0.000103	0.000000	0.000000
31.349260	24.564904	11.312478	0.163741	-0.167816	3.072617	0.000000	-0.017105	0.000000	0.006899	-0.000103	0.000000	0.000000
31.682593	24.460388	11.434454	0.149808	-0.198112	3.066950	0.000000	-0.017105	0.000000	0.006865	-0.000103	0.000000	0.000000
32.017177	24.364821	11.577199	0.135822	-0.228521	3.061261	0.000000	-0.017105	0.000000	0.006831	-0.000103	0.000000	0.000000
32.314499	24.287783	11.721107	0.063616	-0.226710	3.056208	0.000000	-0.009583	0.000000	0.006800	-0.000085	0.000000	0.000000
32.863559	23.802047	12.208997	0.815596	-0.667042	3.026100	0.000000	-0.100289	0.000000	0.006693	-0.000304	0.000000	0.000000
33.412619	22.517309	13.203571	1.509944	-1.154894	2.946713	0.000000	-0.189220	0.000000	0.006468	-0.000517	0.000000	0.000000
33.961679	20.524365	14.775677	2.097595	-1.725019	2.819453	0.000000	-0.274802	0.000000	0.006127	-0.000721	0.000000	0.000000
34.510739	17.964055	17.037301	2.537028	-2.418031	2.646572	0.000000	-0.355521	0.000000	0.005678	-0.000913	0.000000	0.000000
34.956699	15.974385	19.060419	1.939747	-2.099240	2.504759	0.000000	-0.282398	0.000000	0.005303	-0.000770	0.000000	0.000000
35.397659	14.491115	20.735962	1.436190	-1.685782	2.395943	0.000000	-0.212931	0.000000	0.004993	-0.000637	0.000000	0.000000
35.838619	13.421499	22.011485	0.998268	-1.195613	2.317146	0.000000	-0.145883	0.000000	0.004740	-0.000512	0.000000	0.000000
36.279579	12.716648	22.828949	0.605968	-0.651039	2.267472	0.000000	-0.080491	0.000000	0.004541	-0.000392	0.000000	0.000000
36.721789	12.343676	23.151476	0.270253	-0.131193	2.246331	0.000000	-0.021288	0.000000	0.004393	-0.000288	0.000000	0.000000
37.019112	12.190656	23.233374	0.244407	-0.144256	2.240087	0.000000	-0.021288	0.000000	0.004307	-0.000288	0.000000	0.000000
37.352445	12.037377	23.334426	0.215430	-0.158902	2.233086	0.000000	-0.021288	0.000000	0.004211	-0.000288	0.000000	0.000000
37.685779	11.903416	23.445243	0.186453	-0.173548	2.226086	0.000000	-0.021288	0.000000	0.004115	-0.000288	0.000000	0.000000
38.020362	11.788379	23.566294	0.157368	-0.188248	2.219060	0.000000	-0.021288	0.000000	0.004019	-0.000288	0.000000	0.000000
38.317684	11.702481	23.682130	0.159142	-0.257305	2.212815	0.000000	-0.026511	0.000000	0.003934	-0.000297	0.000000	0.000000
38.758644	11.711808	23.646653	-0.180456	0.337448	2.215200	0.000000	0.036861	0.000000	0.003825	-0.000197	0.000000	0.000000
39.199604	12.023154	23.091417	-0.528298	0.916846	2.245556	0.000000	0.100656	0.000000	0.003760	-0.000099	0.000000	0.000000
39.640564	12.650743	22.041687	-0.900279	1.454522	2.304229	0.000000	0.165598	0.000000	0.003737	-0.000003	0.000000	0.000000
40.081524	13.623256	20.545232	-1.313398	1.926012	2.391887	0.000000	0.232426	0.000000	0.003757	0.000094	0.000000	0.000000
40.527484	15.002666	18.647480	-1.790414	2.311251	2.511009	0.000000	0.302319	0.000000	0.003821	0.000192	0.000000	0.000000
41.076544	16.764717	16.514502	-1.399566	1.596248	2.656324	0.000000	0.226446	0.000000	0.003892	0.000067	0.000000	0.000000
41.625604	18.040345	15.100048	-0.909842	0.994953	2.758879	0.000000	0.146558	0.000000	0.003895	-0.000059	0.000000	0.000000
42.174664	18.739424	14.303360	-0.355843	0.464536	2.816855	0.000000	0.064068	0.000000	0.003828	-0.000184	0.000000	0.000000
42.723724	18.812566	14.067684	0.223293	-0.032790	2.829222	0.000000	-0.019561	0.000000	0.003693	-0.000306	0.000000	0.000000
43.022297	18.712540	14.072307	0.159315	-0.018345	2.825608	0.000000	-0.012400	0.000000	0.003605	-0.000296	0.000000	0.000000
43.502297	18.572223	14.106296	0.133012	-0.052466	2.819798	0.000000	-0.012400	0.000000	0.003462	-0.000296	0.000000	0.000000
43.982297	18.457156	14.173041	0.106710	-0.086587	2.813989	0.000000	-0.012400	0.000000	0.003320	-0.000296	0.000000	0.000000
44.462297	18.367339	14.272543	0.080408	-0.120708	2.808179	0.000000	-0.012400	0.000000	0.003178	-0.000296	0.000000	0.000000
44.942297	18.302773	14.404800	0.054105	-0.154829	2.802370	0.000000	-0.012400	0.000000	0.003035	-0.000296	0.000000	0.000000
45.423547	18.263614	14.570106	-0.062753	-0.116849	2.796562	0.000000	0.001456	0.000000	0.002893	-0.000282	0.000000	0.000000
45.720870	18.305793	14.645737	-0.125793	-0.100233	2.797079	0.000000	0.008591	0.000000	0.002809	-0.000275	0.000000	0.000000
46.269930	18.135548	15.038843	0.433845	-0.619927	2.779290	0.000000	-0.073906	0.000000	0.002634	-0.000363	0.000000	0.000000
46.818990	17.363982	16.023410	0.962829	-1.183780	2.716540	0.000000	-0.155098	0.000000	0.002412	-0.000445	0.000000	0.000000
47.368050	16.045611	17.669565	1.423788	-1.831954	2.609940	0.000000	-0.233546	0.000000	0.002147	-0.000519	0.000000	0.000000
47.917110	14.273582	20.094559	1.784160	-2.610619	2.461377	0.000000	-0.307860	0.000000	0.001844	-0.000583	0.000000	0.000000
48.363070	12.893829	22.250215	1.320408	-2.202708	2.339674	0.000000	-0.239298	0.000000	0.001594	-0.000539	0.000000	0.000000
48.804030	11.909191	23.975952	0.920775	-1.695907	2.248886	0.000000	-0.173861	0.000000	0.001365	-0.000501	0.000000	0.000000
49.244990	11.257202	25.218854	0.563215	-1.111942	2.186477	0.000000	-0.110399	0.000000	0.001152	-0.000468	0.000000	0.000000
49.685950	10.908067	25.922371	0.231392	-0.477385	2.151739	0.000000	-0.048189	0.000000	0.000951	-0.000441	0.000000	0.000000
50.128160	10.845990	26.054210	-0.063566	0.115566	2.144287	0.000000	0.008257	0.000000	0.000761	-0.000421	0.000000	0.000000
50.425482	10.891973	25.988927	-0.091090	0.104002	2.146867	0.000000	0.008257	0.000000	0.000636	-0.000421	0.000000	0.000000
50.758816	10.962986	25.923914	-0.121947	0.091038	2.149759	0.000000	0.008257	0.000000	0.000496	-0.000421	0.000000	0.000000
51.092149	11.054570	25.867544	-0.152805	0.078073	2.152651	0.000000	0.008257	0.000000	0.000356	-0.000421	0.000000	0.000000
51.426732	11.166958	25.820178	-0.093184	-0.144406	2.155533	0.000000	-0.009230	0.000000	0.000215	-0.000422	0.000000	0.000000
51.724055	11.230355	25.909543	-0.092524	-0.219802	2.152914	0.000000	-0.014506	0.000000	0.000089	-0.000423	0.000000	0.000000
52.165015	11.458313	25.815040	-0.426532	0.433300	2.160336	0.000000	0.047381	0.000000	-0.000097	-0.000423	0.000000	0.000000
52.605975	11.988282	25.151081	-0.780024	1.066685	2.195142	0.000000	0.109812	0.000000	-0.000284	-0.000428	0.000000	0.000000
53.046935	12.844470	23.947882	-1.169150	1.651536	2.257731	0.000000	0.173498	0.000000	-0.000475	-0.000437	0.000000	0.000000
53.487895	14.065988	22.260190	-1.611686	2.161243	2.348817	0.000000	0.239165	0.000000	-0.000671	-0.000452	0.000000	0.000000
53.933855	15.729538	20.139576	-2.132116	2.573939	2.470949	0.000000	0.307958	0.000000	-0.000877	-0.000472	0.000000	0.000000
54.482915	17.870964	17.753098	-1.745239	1.798258	2.620009	0.000000	0.233335	0.000000	-0.001128	-0.000440	0.000000	0.000000
55.031975	19.516940	16.143494	-1.235100	1.150662	2.726877	0.000000	0.154566	0.000000	-0.001358	-0.000400	0.000000	0.000000
55.581035	20.551220	15.196110	-0.637733	0.585023	2.789655	0.000000	0.073050	0.000000	-0.001565	-0.000352	0.000000	0.000000
56.130095	20.900765	14.843466	0.004669	0.061054	2.807224	0.000000	-0.009768	0.000000	-0.001744	-0.000299	0.000000	0.000000
56.428668	20.935336	14.789542	-0.065057	0.080146	2.806620	0.000000	-0.002327	0.000000	-0.001834	-0.000303	0.000000	0.000000
56.762001	20.984037	14.743672	-0.081047	0.057463	2.805946	0.000000	-0.002327	0.000000	-0.001936	-0.000303	0.000000	0.000000
57.095334	21.043398	14.712924	-0.097036	0.034780	2.805271	0.000000	-0.002327	0.000000	-0.002037	-0.000303	0.000000	0.000000
57.429918	21.113701	14.697268	-0.113086	0.012012	2.804594	0.000000	-0.002327	0.000000	-0.002138	-0.000303	0.000000	0.000000
57.727240	21.185191	14.696139	-0.183728	0.030825	2.803992	0.000000	0.005135	0.000000	-0.002228	-0.000309	0.000000	0.000000
58.276300	21.025022	14.944219	0.473561	-0.485332	2.784230	0.000000	-0.077541	0.000000	-0.002378	-0.000234	0.000000	0.000000
58.825360	20.157302	15.774622	1.097397	-1.036056	2.719345	0.000000	-0.158846	0.000000	-0.002485	-0.000156	0.000000	0.000000
59.374420	18.643320	17.246490	1.643724	-1.660570	2.610485	0.000000	-0.237336	0.000000	-0.002548	-0.000074	0.000000	0.000000
59.923480	16.590001	19.464654	2.073958	-2.403353	2.459582	0.000000	-0.311618	0.000000	-0.002566	0.000009	0.000000	0.000000
60.369440	14.982011	21.436034	1.544565	-1.998620	2.335958	0.000000	-0.243148	0.000000	-0.002577	-0.000058	0.000000	0.000000
60.810400	13.824719	22.986517	1.089933	-1.504283	2.243270	0.000000	-0.177838	0.000000	-0.002617	-0.000125	0.000000	0.000000
61.251360	13.044964	24.069091	0.685093	-0.941507	2.178936	0.000000	-0.114551	0.000000	-0.002687	-0.000193	0.000000	0.000000
61.692320	12.607126	24.634505	0.311550	-0.335898	2.142223	0.000000	-0.052567	0.000000	-0.002788	-0.000264	0.000000	0.000000
62.134530	12.491245	24.656473	-0.016386	0.222936	2.132721	0.000000	0.003447	0.000000	-0.002921	-0.000330	0.000000	0.000000
62.431853	12.508068	24.527669	-0.040195	0.210278	2.133844	0.000000	0.003447	0.000000	-0.003019	-0.000330	0.000000	0.000000
62.765186	12.543762	24.392214	-0.066888	0.196087	2.135103	0.000000	0.003447	0.000000	-0.003129	-0.000330	0.000000	0.000000
63.098520	12.597251	24.266220	-0.093580	0.181896	2.136363	0.000000	0.003447	0.000000	-0.003239	-0.000330	0.000000	0.000000
63.433103	12.668836	24.149267	-0.120373	0.167651	2.137626	0.000000	0.003447	0.000000	-0.003350	-0.000330	0.000000	0.000000
63.730426	12.747490	24.053346	-0.111911	0.093991	2.138749	0.000000	-0.001967	0.000000	-0.003448	-0.000322	0.000000	0.000000
64.171386	13.007951	23.705636	-0.481162	0.691577	2.151604	0.000000	0.059619	0.000000	-0.003610	-0.000413	0.000000	0.000000
64.612346	13.602449	22.842846	-0.872388	1.257699	2.191779	0.000000	0.121888	0.000000	-0.003813	-0.000508	0.000000	0.000000
65.053306	14.558134	21.504232	-1.303461	1.766601	2.259734	0.000000	0.185551	0.000000	-0.004059	-0.000610	0.000000	0.000000
65.494266	15.918652	19.750699	-1.794069	2.195132	2.356243	0.000000	0.251334	0.000000	-0.004351	-0.000718	0.000000	0.000000
65.940226	17.769380	17.637227	-2.371223	2.524441	2.483984	0.000000	0.320373	0.000000	-0.004698	-0.000836	0.000000	0.000000
66.489286	20.140079	15.273249	-1.921671	1.806773	2.639878	0.000000	0.245227	0.000000	-0.005113	-0.000677	0.000000	0.000000
67.038346	21.939289	13.622454	-1.336426	1.217782	2.753166	0.000000	0.165721	0.000000	-0.005438	-0.000506	0.000000	0.000000
67.587406	23.039980	12.567268	-0.656816	0.715519	2.821836	0.000000	0.083267	0.000000	-0.005667	-0.000326	0.000000	0.000000
68.136466	23.364441	12.032535	0.069170	0.264215	2.844666	0.000000	-0.000668	0.000000	-0.005795	-0.000140	0.000000	0.000000
68.435038	23.365126	11.863149	-0.007575	0.270175	2.846837	0.000000	0.007120	0.000000	-0.005841	-0.000156	0.000000	0.000000
68.768372	23.374932	11.693082	-0.021842	0.240026	2.849263	0.000000	0.007120	0.000000	-0.005893	-0.000156	0.000000	0.000000
69.101705	23.394250	11.543114	-0.036110	0.209877	2.851688	0.000000	0.007120	0.000000	-0.005945	-0.000156	0.000000	0.000000
69.436288	23.423204	11.412797	-0.050430	0.179615	2.854122	0.000000	0.007120	0.000000	-0.005997	-0.000156	0.000000	0.000000
69.733611	23.457001	11.313974	-0.127498	0.183730	2.856287	0.000000	0.014955	0.000000	-0.006043	-0.000172	0.000000	0.000000
70.282671	23.194184	11.338982	0.603324	-0.229549	2.841335	0.000000	-0.069484	0.000000	-0.006084	0.000025	0.000000	0.000000
