#ParticleID	Turn	x[m]	xp	y[m]	yp	z[m]	dE[GeV]# s	beta_x	beta_y	alpha_x	alpha_y	D_x	D_y	D_px	D_py	orbit_x	orbit_px	orbit_y	orbit_py
0.300000	11.941698	25.168683	-0.013525	-0.025591	2.602127	0.000000	-0.001606	0.000000	-0.001244	0.001049	0.000000	0.000000
0.601250	11.957447	25.187710	-0.038756	-0.037569	2.601328	0.000000	-0.001606	0.000000	-0.000928	0.001049	0.000000	0.000000
0.898573	11.987897	25.213565	-0.034089	-0.111202	2.600538	0.000000	-0.008021	0.000000	-0.000616	0.001050	0.000000	0.000000
1.339533	12.171570	25.031872	-0.383662	0.521677	2.612749	0.000000	0.065467	0.000000	-0.000156	0.001040	0.000000	0.000000
1.780493	12.670083	24.300401	-0.750771	1.130823	2.657498	0.000000	0.139688	0.000000	0.000303	0.001042	0.000000	0.000000
2.221453	13.506221	23.052424	-1.152190	1.688521	2.735290	0.000000	0.215490	0.000000	0.000765	0.001056	0.000000	0.000000
2.662413	14.718198	21.344713	-1.606260	2.169395	2.847007	0.000000	0.293735	0.000000	0.001236	0.001082	0.000000	0.000000
3.108373	16.382356	19.229920	-2.138088	2.552742	2.995753	0.000000	0.375805	0.000000	0.001726	0.001120	0.000000	0.000000
3.657433	18.515478	16.854427	-1.723295	1.799141	3.176494	0.000000	0.283653	0.000000	0.002324	0.001054	0.000000	0.000000
4.206493	20.123152	15.231681	-1.186745	1.173693	3.305225	0.000000	0.186486	0.000000	0.002881	0.000970	0.000000	0.000000
4.755553	21.091777	14.246105	-0.566338	0.631846	3.379669	0.000000	0.086027	0.000000	0.003386	0.000869	0.000000	0.000000
5.304613	21.352896	13.827508	0.094096	0.135005	3.398514	0.000000	-0.015945	0.000000	0.003832	0.000752	0.000000	0.000000
5.603185	21.333116	13.732744	0.026107	0.147597	3.396090	0.000000	-0.007353	0.000000	0.004059	0.000761	0.000000	0.000000
5.936519	21.320923	13.642613	0.010471	0.122795	3.393386	0.000000	-0.007353	0.000000	0.004313	0.000761	0.000000	0.000000
6.269852	21.319155	13.569017	-0.005165	0.097993	3.390681	0.000000	-0.007353	0.000000	0.004567	0.000761	0.000000	0.000000
6.604435	21.327862	13.511772	-0.020859	0.073099	3.387966	0.000000	-0.007353	0.000000	0.004821	0.000761	0.000000	0.000000
6.901758	21.344428	13.474872	-0.088182	0.084825	3.385555	0.000000	0.001113	0.000000	0.005048	0.000774	0.000000	0.000000
7.450818	21.077507	13.643266	0.571829	-0.393309	3.357921	0.000000	-0.100300	0.000000	0.005427	0.000605	0.000000	0.000000
7.999878	20.103684	14.348966	1.191452	-0.899464	3.275102	0.000000	-0.199925	0.000000	0.005710	0.000424	0.000000	0.000000
8.548938	18.491754	15.642250	1.726905	-1.469698	3.138571	0.000000	-0.295996	0.000000	0.005891	0.000236	0.000000	0.000000
9.097998	16.355608	17.615255	2.140353	-2.144634	2.950753	0.000000	-0.386813	0.000000	0.005968	0.000044	0.000000	0.000000
9.543958	14.689528	19.373086	1.608618	-1.780046	2.796302	0.000000	-0.305955	0.000000	0.006023	0.000200	0.000000	0.000000
9.984918	13.475500	20.752434	1.154849	-1.335834	2.678320	0.000000	-0.229086	0.000000	0.006145	0.000356	0.000000	0.000000
10.425878	12.637017	21.711581	0.753852	-0.830830	2.593562	0.000000	-0.154830	0.000000	0.006338	0.000517	0.000000	0.000000
10.866838	12.135762	22.206878	0.387303	-0.288015	2.541061	0.000000	-0.082343	0.000000	0.006602	0.000684	0.000000	0.000000
11.309048	11.948684	22.215206	0.065688	0.216742	2.520195	0.000000	-0.016569	0.000000	0.006943	0.000842	0.000000	0.000000
11.606371	11.917053	22.090487	0.040698	0.202730	2.515018	0.000000	-0.016569	0.000000	0.007194	0.000842	0.000000	0.000000
12.086371	11.897349	21.906725	0.000353	0.180108	2.506660	0.000000	-0.016569	0.000000	0.007598	0.000842	0.000000	0.000000
12.566371	11.916376	21.744680	-0.039993	0.157486	2.498303	0.000000	-0.016569	0.000000	0.008002	0.000842	0.000000	0.000000
13.046371	11.974135	21.604351	-0.080338	0.134864	2.489945	0.000000	-0.016569	0.000000	0.008407	0.000842	0.000000	0.000000
13.526371	12.070625	21.485740	-0.120683	0.112242	2.481588	0.000000	-0.016569	0.000000	0.008811	0.000842	0.000000	0.000000
14.007621	12.206249	21.388622	-0.161133	0.089562	2.473209	0.000000	-0.016569	0.000000	0.009216	0.000842	0.000000	0.000000
14.304943	12.309464	21.339587	-0.158709	0.028263	2.468029	0.000000	-0.022066	0.000000	0.009467	0.000820	0.000000	0.000000
14.745903	12.607580	21.081134	-0.519487	0.555540	2.473326	0.000000	0.047935	0.000000	0.009883	0.001070	0.000000	0.000000
15.186863	13.233202	20.367010	-0.904018	1.057537	2.509476	0.000000	0.118470	0.000000	0.010412	0.001331	0.000000	0.000000
15.627823	14.214944	19.229705	-1.329881	1.511406	2.576885	0.000000	0.190341	0.000000	0.011060	0.001608	0.000000	0.000000
16.068783	15.597706	17.720969	-1.816546	1.896489	2.676316	0.000000	0.264364	0.000000	0.011833	0.001903	0.000000	0.000000
16.514743	17.468396	15.887707	-2.391249	2.196272	2.810575	0.000000	0.341873	0.000000	0.012753	0.002222	0.000000	0.000000
17.063803	19.870992	13.841133	-1.956744	1.552433	2.973916	0.000000	0.255971	0.000000	0.013856	0.001791	0.000000	0.000000
17.612863	21.717033	12.437149	-1.383905	1.019207	3.089011	0.000000	0.165557	0.000000	0.014714	0.001328	0.000000	0.000000
18.161923	22.875976	11.575738	-0.713223	0.558602	3.153829	0.000000	0.072226	0.000000	0.015310	0.000842	0.000000	0.000000
18.710983	23.265856	11.195532	0.007890	0.137799	3.167227	0.000000	-0.022373	0.000000	0.015635	0.000340	0.000000	0.000000
19.009556	23.296166	11.106450	-0.057467	0.135626	3.162557	0.000000	-0.015227	0.000000	0.015748	0.000378	0.000000	0.000000
19.342889	23.339262	11.026221	-0.071823	0.105062	3.157355	0.000000	-0.015227	0.000000	0.015874	0.000378	0.000000	0.000000
19.676223	23.391930	10.966368	-0.086179	0.074497	3.152154	0.000000	-0.015227	0.000000	0.016000	0.000378	0.000000	0.000000
20.010806	23.454709	10.926646	-0.216796	0.097955	3.146952	0.000000	0.000365	0.000000	0.016127	0.000458	0.000000	0.000000
20.308129	23.587755	10.876481	-0.282932	0.094942	3.146936	0.000000	0.007418	0.000000	0.016263	0.000498	0.000000	0.000000
20.857189	23.491843	10.992878	0.456698	-0.308137	3.125097	0.000000	-0.086389	0.000000	0.016391	-0.000032	0.000000	0.000000
21.406249	22.596338	11.561395	1.164046	-0.733173	3.052363	0.000000	-0.178663	0.000000	0.016229	-0.000560	0.000000	0.000000
21.955309	20.964564	12.622541	1.789102	-1.210454	2.930025	0.000000	-0.267776	0.000000	0.015778	-0.001079	0.000000	0.000000
22.504369	18.711912	14.251919	2.287677	-1.773987	2.760249	0.000000	-0.352155	0.000000	0.015047	-0.001578	0.000000	0.000000
22.950329	16.938528	15.715364	1.701034	-1.492815	2.620810	0.000000	-0.276005	0.000000	0.014429	-0.001196	0.000000	0.000000
23.391289	15.664898	16.883144	1.197177	-1.144835	2.515601	0.000000	-0.203482	0.000000	0.013983	-0.000830	0.000000	0.000000
23.832249	14.810078	17.719723	0.748058	-0.744746	2.441687	0.000000	-0.133269	0.000000	0.013696	-0.000473	0.000000	0.000000
24.273209	14.334969	18.187029	0.333140	-0.310761	2.398227	0.000000	-0.064569	0.000000	0.013565	-0.000121	0.000000	0.000000
24.715418	14.218012	18.263449	-0.036407	0.098413	2.384731	0.000000	-0.001674	0.000000	0.013589	0.000198	0.000000	0.000000
25.012741	14.245887	18.209815	-0.057347	0.081976	2.384174	0.000000	-0.001674	0.000000	0.013648	0.000198	0.000000	0.000000
25.346075	14.291944	18.161307	-0.080822	0.063548	2.383551	0.000000	-0.001674	0.000000	0.013714	0.000198	0.000000	0.000000
25.679408	14.353650	18.125085	-0.104298	0.045120	2.382927	0.000000	-0.001674	0.000000	0.013780	0.000198	0.000000	0.000000
26.013991	14.431034	18.101448	-0.010787	-0.120225	2.382276	0.000000	-0.021001	0.000000	0.013846	0.000085	0.000000	0.000000
26.311314	14.443494	18.177996	-0.000787	-0.175394	2.376000	0.000000	-0.026035	0.000000	0.013871	0.000054	0.000000	0.000000
26.752274	14.622824	18.135669	-0.407261	0.270997	2.379325	0.000000	0.041574	0.000000	0.013974	0.000413	0.000000	0.000000
27.193234	15.167600	17.703538	-0.832357	0.705054	2.412389	0.000000	0.109653	0.000000	0.014236	0.000776	0.000000	0.000000
27.634194	16.102739	16.901266	-1.295511	1.107021	2.475570	0.000000	0.178973	0.000000	0.014660	0.001149	0.000000	0.000000
28.075154	17.471017	15.765362	-1.817904	1.458601	2.569581	0.000000	0.250320	0.000000	0.015251	0.001534	0.000000	0.000000
28.521114	19.359159	14.330175	-2.428681	1.745011	2.697096	0.000000	0.324989	0.000000	0.016026	0.001940	0.000000	0.000000
29.070174	21.760534	12.731733	-1.916997	1.182721	2.852379	0.000000	0.242889	0.000000	0.016946	0.001406	0.000000	0.000000
29.619234	23.521531	11.701251	-1.269777	0.704708	2.961618	0.000000	0.156502	0.000000	0.017565	0.000847	0.000000	0.000000
30.168294	24.517605	11.165310	-0.532778	0.276913	3.022884	0.000000	0.067351	0.000000	0.017873	0.000273	0.000000	0.000000
30.717354	24.678307	11.085728	0.241888	-0.131150	3.035092	0.000000	-0.022990	0.000000	0.017864	-0.000307	0.000000	0.000000
31.015927	24.569837	11.157665	0.174998	-0.133915	3.030289	0.000000	-0.016304	0.000000	0.017785	-0.000263	0.000000	0.000000
31.349260	24.457833	11.257079	0.161015	-0.164325	3.024942	0.000000	-0.016304	0.000000	0.017697	-0.000263	0.000000	0.000000
31.682593	24.355150	11.376766	0.147033	-0.194736	3.019595	0.000000	-0.016304	0.000000	0.017609	-0.000263	0.000000	0.000000
32.017177	24.261456	11.517290	0.132998	-0.225261	3.014228	0.000000	-0.016304	0.000000	0.017521	-0.000263	0.000000	0.000000
32.314499	24.186293	11.659201	0.066994	-0.226619	3.009472	0.000000	-0.009643	0.000000	0.017443	-0.000221	0.000000	0.000000
32.863559	23.698427	12.146141	0.815728	-0.665259	2.979895	0.000000	-0.098871	0.000000	0.017167	-0.000782	0.000000	0.000000
33.412619	22.414934	13.137928	1.506783	-1.151305	2.902013	0.000000	-0.186358	0.000000	0.016586	-0.001329	0.000000	0.000000
33.961679	20.426594	14.705221	2.091300	-1.719389	2.777202	0.000000	-0.270559	0.000000	0.015711	-0.001853	0.000000	0.000000
34.510739	17.874027	16.959679	2.527959	-2.409987	2.607665	0.000000	-0.349988	0.000000	0.014558	-0.002343	0.000000	0.000000
34.956699	15.890816	18.976709	1.932769	-2.092886	2.468647	0.000000	-0.277801	0.000000	0.013595	-0.001978	0.000000	0.000000
35.397659	14.412425	20.647786	1.431189	-1.681605	2.362117	0.000000	-0.209223	0.000000	0.012798	-0.001637	0.000000	0.000000
35.838619	13.346147	21.920793	0.995048	-1.193790	2.285145	0.000000	-0.143011	0.000000	0.012148	-0.001316	0.000000	0.000000
36.279579	12.643210	22.737803	0.604403	-0.651643	2.236859	0.000000	-0.078414	0.000000	0.011635	-0.001009	0.000000	0.000000
36.721789	12.270838	23.061883	0.268078	-0.130023	2.216693	0.000000	-0.019540	0.000000	0.011255	-0.000740	0.000000	0.000000
37.019112	12.119148	23.143098	0.242106	-0.143134	2.211103	0.000000	-0.019540	0.000000	0.011035	-0.000740	0.000000	0.000000
37.352445	11.967450	23.243420	0.212989	-0.157832	2.204837	0.000000	-0.019540	0.000000	0.010788	-0.000740	0.000000	0.000000
37.685779	11.835162	23.353541	0.183873	-0.172530	2.198570	0.000000	-0.019540	0.000000	0.010541	-0.000740	0.000000	0.000000
38.020362	11.721899	23.473929	0.154646	-0.187284	2.192280	0.000000	-0.019540	0.000000	0.010293	-0.000740	0.000000	0.000000
38.317684	11.637627	23.589265	0.154427	-0.252839	2.186687	0.000000	-0.024379	0.000000	0.010073	-0.000764	0.000000	0.000000
38.758644	11.650442	23.550925	-0.183807	0.339442	2.190035	0.000000	0.038342	0.000000	0.009793	-0.000508	0.000000	0.000000
39.199604	11.964192	22.995012	-0.530439	0.916272	2.221006	0.000000	0.101506	0.000000	0.009625	-0.000257	0.000000	0.000000
39.640564	12.593216	21.946831	-0.901313	1.451400	2.279957	0.000000	0.165828	0.000000	0.009566	-0.000010	0.000000	0.000000
40.081524	13.566267	20.454084	-1.313382	1.920473	2.367559	0.000000	0.232040	0.000000	0.009616	0.000237	0.000000	0.000000
40.527484	14.945444	18.562003	-1.789472	2.303671	2.486292	0.000000	0.301325	0.000000	0.009778	0.000489	0.000000	0.000000
41.076544	16.707894	16.435679	-1.400862	1.591307	2.631186	0.000000	0.226246	0.000000	0.009959	0.000169	0.000000	0.000000
41.625604	17.986237	15.025239	-0.913257	0.992320	2.733857	0.000000	0.147155	0.000000	0.009963	-0.000154	0.000000	0.000000
42.174664	18.690124	14.230194	-0.361121	0.464034	2.792485	0.000000	0.065451	0.000000	0.009791	-0.000474	0.000000	0.000000
42.723724	18.769812	13.993898	0.216526	-0.031188	2.806024	0.000000	-0.017422	0.000000	0.009444	-0.000785	0.000000	0.000000
43.022297	18.672262	13.998770	0.155091	-0.018766	2.803057	0.000000	-0.010686	0.000000	0.009217	-0.000762	0.000000	0.000000
43.502297	18.536010	14.033250	0.128766	-0.053067	2.798294	0.000000	-0.010686	0.000000	0.008851	-0.000762	0.000000	0.000000
43.982297	18.425030	14.100659	0.102441	-0.087368	2.793530	0.000000	-0.010686	0.000000	0.008486	-0.000762	0.000000	0.000000
44.462297	18.339323	14.200997	0.076117	-0.121669	2.788766	0.000000	-0.010686	0.000000	0.008120	-0.000762	0.000000	0.000000
44.942297	18.278887	14.334263	0.049792	-0.155970	2.784003	0.000000	-0.010686	0.000000	0.007755	-0.000762	0.000000	0.000000
45.423547	18.243890	14.500754	-0.066992	-0.118514	2.779244	0.000000	0.003084	0.000000	0.007388	-0.000725	0.000000	0.000000
45.720870	18.288622	14.577388	-0.128223	-0.103700	2.780379	0.000000	0.009904	0.000000	0.007172	-0.000707	0.000000	0.000000
46.269930	18.121152	14.973283	0.430971	-0.621527	2.763716	0.000000	-0.072081	0.000000	0.006722	-0.000932	0.000000	0.000000
46.818990	17.352681	15.958696	0.959698	-1.183628	2.702430	0.000000	-0.152802	0.000000	0.006152	-0.001141	0.000000	0.000000
47.368050	16.037533	17.603810	1.420599	-1.830046	2.597601	0.000000	-0.230831	0.000000	0.005473	-0.001329	0.000000	0.000000
47.917110	14.268661	20.025801	1.781109	-2.606827	2.451079	0.000000	-0.304787	0.000000	0.004697	-0.001494	0.000000	0.000000
48.363070	12.891284	22.178997	1.317642	-2.200831	2.331065	0.000000	-0.236460	0.000000	0.004056	-0.001380	0.000000	0.000000
48.804030	11.908822	23.904043	0.918223	-1.696092	2.241826	0.000000	-0.171222	0.000000	0.003470	-0.001283	0.000000	0.000000
49.244990	11.258898	25.148051	0.560772	-1.114178	2.180866	0.000000	-0.107920	0.000000	0.002923	-0.001201	0.000000	0.000000
49.685950	10.911802	25.854427	0.228952	-0.481570	2.147495	0.000000	-0.045835	0.000000	0.002409	-0.001132	0.000000	0.000000
50.128160	10.851830	25.990763	-0.066389	0.110721	2.141351	0.000000	0.010585	0.000000	0.001921	-0.001081	0.000000	0.000000
50.425482	10.899490	25.928366	-0.093909	0.099141	2.144820	0.000000	0.010585	0.000000	0.001600	-0.001081	0.000000	0.000000
50.758816	10.972380	25.866599	-0.124761	0.086159	2.148708	0.000000	0.010585	0.000000	0.001239	-0.001081	0.000000	0.000000
51.092149	11.065838	25.813487	-0.155613	0.073177	2.152597	0.000000	0.010585	0.000000	0.000879	-0.001081	0.000000	0.000000
51.426732	11.180104	25.769402	-0.095881	-0.148908	2.156478	0.000000	-0.006910	0.000000	0.000517	-0.001085	0.000000	0.000000
51.724055	11.245099	25.861456	-0.095194	-0.224406	2.154747	0.000000	-0.012184	0.000000	0.000195	-0.001086	0.000000	0.000000
52.165015	11.475489	25.771559	-0.429612	0.427497	2.163488	0.000000	0.049767	0.000000	-0.000284	-0.001087	0.000000	0.000000
52.605975	12.008303	25.113155	-0.783651	1.059946	2.199652	0.000000	0.112296	0.000000	-0.000766	-0.001100	0.000000	0.000000
53.046935	12.867875	23.916212	-1.173482	1.644164	2.263655	0.000000	0.176117	0.000000	-0.001256	-0.001126	0.000000	0.000000
53.487895	14.093461	22.235201	-1.616915	2.153573	2.356229	0.000000	0.241955	0.000000	-0.001761	-0.001165	0.000000	0.000000
53.933855	15.761999	20.121465	-2.138452	2.566294	2.479963	0.000000	0.310955	0.000000	-0.002292	-0.001218	0.000000	0.000000
54.482915	17.909802	17.742715	-1.750879	1.791843	2.630962	0.000000	0.236014	0.000000	-0.002938	-0.001133	0.000000	0.000000
55.031975	19.561174	16.139737	-1.239668	1.145017	2.739546	0.000000	0.156869	0.000000	-0.003532	-0.001028	0.000000	0.000000
55.581035	20.599519	15.198346	-0.640927	0.579746	2.803782	0.000000	0.074924	0.000000	-0.004064	-0.000905	0.000000	0.000000
56.130095	20.951536	14.851480	0.003060	0.055767	2.822523	0.000000	-0.008364	0.000000	-0.004523	-0.000766	0.000000	0.000000
56.428668	20.987878	14.800110	-0.068027	0.075895	2.822541	0.000000	-0.000712	0.000000	-0.004756	-0.000778	0.000000	0.000000
56.762001	21.038548	14.757064	-0.083982	0.053243	2.822563	0.000000	-0.000712	0.000000	-0.005015	-0.000778	0.000000	0.000000
57.095334	21.099855	14.729120	-0.099938	0.030591	2.822585	0.000000	-0.000712	0.000000	-0.005274	-0.000778	0.000000	0.000000
57.429918	21.172088	14.716257	-0.115954	0.007854	2.822607	0.000000	-0.000712	0.000000	-0.005535	-0.000778	0.000000	0.000000
57.727240	21.245292	14.717579	-0.188334	0.027768	2.822628	0.000000	0.007013	0.000000	-0.005766	-0.000794	0.000000	0.000000
58.276300	21.088948	14.969375	0.470998	-0.489108	2.803955	0.000000	-0.076276	0.000000	-0.006149	-0.000601	0.000000	0.000000
58.825360	20.222781	15.804391	1.097057	-1.040814	2.739754	0.000000	-0.158221	0.000000	-0.006424	-0.000397	0.000000	0.000000
59.374420	18.707963	17.282087	1.645638	-1.666640	2.631157	0.000000	-0.237367	0.000000	-0.006584	-0.000186	0.000000	0.000000
59.923480	16.651458	19.507693	2.078008	-2.411153	2.480089	0.000000	-0.312307	0.000000	-0.006627	0.000028	0.000000	0.000000
60.369440	15.040474	21.485725	1.547307	-2.005773	2.356289	0.000000	-0.243328	0.000000	-0.006653	-0.000144	0.000000	0.000000
60.810400	13.881374	23.041979	1.091404	-1.510375	2.263700	0.000000	-0.177500	0.000000	-0.006755	-0.000317	0.000000	0.000000
61.251360	13.100863	24.129292	0.685353	-0.946270	2.199738	0.000000	-0.113689	0.000000	-0.006933	-0.000494	0.000000	0.000000
61.692320	12.663293	24.698206	0.310608	-0.339121	2.163678	0.000000	-0.051168	0.000000	-0.007191	-0.000676	0.000000	0.000000
62.134530	12.548739	24.722257	-0.017121	0.218850	2.155121	0.000000	0.005124	0.000000	-0.007531	-0.000846	0.000000	0.000000
62.431853	12.565967	24.595866	-0.040822	0.206247	2.156896	0.000000	0.005124	0.000000	-0.007783	-0.000846	0.000000	0.000000
62.765186	12.602039	24.463078	-0.067393	0.192118	2.158886	0.000000	0.005124	0.000000	-0.008065	-0.000846	0.000000	0.000000
63.098520	12.655824	24.339708	-0.093964	0.177989	2.160876	0.000000	0.005124	0.000000	-0.008347	-0.000846	0.000000	0.000000
63.433103	12.727625	24.225349	-0.120634	0.163807	2.162874	0.000000	0.005124	0.000000	-0.008630	-0.000846	0.000000	0.000000
63.730426	12.806377	24.131744	-0.110356	0.086884	2.164647	0.000000	-0.000619	0.000000	-0.008882	-0.000824	0.000000	0.000000
64.171386	13.065913	23.789374	-0.480870	0.686683	2.178487	0.000000	0.061638	0.000000	-0.009296	-0.001058	0.000000	0.000000
64.612346	13.660529	22.929909	-0.873335	1.255242	2.220009	0.000000	0.124609	0.000000	-0.009817	-0.001304	0.000000	0.000000
65.053306	14.617365	21.592457	-1.305673	1.766701	2.289692	0.000000	0.189012	0.000000	-0.010449	-0.001565	0.000000	0.000000
65.494266	15.980093	19.837865	-1.797622	2.197795	2.388334	0.000000	0.255584	0.000000	-0.011200	-0.001844	0.000000	0.000000
65.940226	17.834305	17.721004	-2.376070	2.529441	2.518677	0.000000	0.325451	0.000000	-0.012089	-0.002146	0.000000	0.000000
66.489286	20.208561	15.353011	-1.924373	1.809595	2.677657	0.000000	0.249152	0.000000	-0.013156	-0.001737	0.000000	0.000000
67.038346	22.008981	13.700420	-1.336859	1.218603	2.793240	0.000000	0.168407	0.000000	-0.013991	-0.001298	0.000000	0.000000
67.587406	23.108538	12.645536	-0.655002	0.714381	2.863365	0.000000	0.084655	0.000000	-0.014577	-0.000835	0.000000	0.000000
68.136466	23.429666	12.113233	0.073074	0.261025	2.886781	0.000000	-0.000612	0.000000	-0.014905	-0.000357	0.000000	0.000000
68.435038	23.430625	11.944246	-0.008234	0.269715	2.889230	0.000000	0.007836	0.000000	-0.015024	-0.000399	0.000000	0.000000
68.768372	23.440857	11.774415	-0.022461	0.239778	2.891975	0.000000	0.007836	0.000000	-0.015157	-0.000399	0.000000	0.000000
69.101705	23.460573	11.624542	-0.036689	0.209840	2.894720	0.000000	0.007836	0.000000	-0.015290	-0.000399	0.000000	0.000000
69.436288	23.489902	11.494178	-0.050969	0.179790	2.897476	0.000000	0.007836	0.000000	-0.015423	-0.000399	0.000000	0.000000
69.733611	23.524151	11.395126	-0.132793	0.186509	2.899934	0.000000	0.016359	0.000000	-0.015542	-0.000442	0.000000	0.000000
70.282671	23.265978	11.418287	0.600197	-0.228950	2.885434	0.000000	-0.069476	0.000000	-0.015646	0.000063	0.000000	0.000000
