#ParticleID	Turn	x[m]	xp	y[m]	yp	z[m]	dE[GeV]# s	beta_x	beta_y	alpha_x	alpha_y	D_x	D_y	D_px	D_py	orbit_x	orbit_px	orbit_y	orbit_py
0.300000	11.927558	25.099190	-0.011474	-0.027079	2.604374	0.000000	-0.002190	0.000000	-0.001284	0.001075	0.000000	0.000000
0.601250	11.942081	25.119124	-0.036734	-0.039090	2.603391	0.000000	-0.002190	0.000000	-0.000960	0.001075	0.000000	0.000000
0.898573	11.971337	25.145893	-0.032130	-0.112596	2.602420	0.000000	-0.008611	0.000000	-0.000640	0.001076	0.000000	0.000000
1.339533	12.153103	24.966213	-0.381274	0.518523	2.614370	0.000000	0.064921	0.000000	-0.000169	0.001066	0.000000	0.000000
1.780493	12.649284	24.238250	-0.747845	1.126052	2.658876	0.000000	0.139182	0.000000	0.000301	0.001067	0.000000	0.000000
2.221453	13.482560	22.995115	-1.148592	1.682351	2.736441	0.000000	0.215016	0.000000	0.000775	0.001081	0.000000	0.000000
2.662413	14.691014	21.293362	-1.601826	2.162106	2.847945	0.000000	0.293288	0.000000	0.001257	0.001108	0.000000	0.000000
3.108373	16.350772	19.185448	-2.132608	2.544666	2.996485	0.000000	0.375380	0.000000	0.001759	0.001147	0.000000	0.000000
3.657433	18.478281	16.817760	-1.718598	1.792917	3.176973	0.000000	0.283208	0.000000	0.002371	0.001080	0.000000	0.000000
4.206493	20.081389	15.201039	-1.183161	1.168877	3.305444	0.000000	0.186029	0.000000	0.002941	0.000994	0.000000	0.000000
4.755553	21.046817	14.220138	-0.564121	0.628095	3.379625	0.000000	0.085567	0.000000	0.003459	0.000890	0.000000	0.000000
5.304613	21.306334	13.805199	0.094791	0.132052	3.398207	0.000000	-0.016399	0.000000	0.003916	0.000770	0.000000	0.000000
5.603185	21.286053	13.712255	0.026928	0.144544	3.395640	0.000000	-0.007814	0.000000	0.004149	0.000781	0.000000	0.000000
5.936519	21.273325	13.624164	0.011257	0.119727	3.392775	0.000000	-0.007814	0.000000	0.004409	0.000781	0.000000	0.000000
6.269852	21.271044	13.552618	-0.004414	0.094910	3.389911	0.000000	-0.007814	0.000000	0.004669	0.000781	0.000000	0.000000
6.604435	21.279260	13.497442	-0.020144	0.070000	3.387035	0.000000	-0.007814	0.000000	0.004930	0.000781	0.000000	0.000000
6.901758	21.295411	13.462388	-0.087320	0.081651	3.384481	0.000000	0.000641	0.000000	0.005162	0.000794	0.000000	0.000000
7.450818	21.028455	13.634097	0.571040	-0.396206	3.356589	0.000000	-0.100735	0.000000	0.005551	0.000620	0.000000	0.000000
7.999878	20.056386	14.342924	1.189068	-0.902291	3.273537	0.000000	-0.200313	0.000000	0.005841	0.000436	0.000000	0.000000
8.548938	18.447877	15.639370	1.723095	-1.472657	3.136802	0.000000	-0.296330	0.000000	0.006028	0.000243	0.000000	0.000000
9.097998	16.316577	17.615797	2.135384	-2.147936	2.948815	0.000000	-0.387087	0.000000	0.006108	0.000047	0.000000	0.000000
9.543958	14.654412	19.376704	1.604769	-1.783606	2.794227	0.000000	-0.306281	0.000000	0.006164	0.000206	0.000000	0.000000
9.984918	13.443352	20.759248	1.151939	-1.339487	2.676087	0.000000	-0.229466	0.000000	0.006290	0.000366	0.000000	0.000000
10.425878	12.607072	21.721600	0.751748	-0.834410	2.591143	0.000000	-0.155270	0.000000	0.006488	0.000531	0.000000	0.000000
10.866838	12.107355	22.219963	0.385909	-0.291360	2.538426	0.000000	-0.082848	0.000000	0.006759	0.000702	0.000000	0.000000
11.309048	11.921222	22.231086	0.064830	0.213831	2.517312	0.000000	-0.017128	0.000000	0.007109	0.000864	0.000000	0.000000
11.606371	11.890118	22.108091	0.039785	0.199845	2.511963	0.000000	-0.017128	0.000000	0.007366	0.000864	0.000000	0.000000
12.086371	11.871333	21.927078	-0.000649	0.177266	2.503327	0.000000	-0.017128	0.000000	0.007780	0.000864	0.000000	0.000000
12.566371	11.891364	21.767740	-0.041083	0.154688	2.494690	0.000000	-0.017128	0.000000	0.008195	0.000864	0.000000	0.000000
13.046371	11.950212	21.630077	-0.081516	0.132109	2.486054	0.000000	-0.017128	0.000000	0.008609	0.000864	0.000000	0.000000
13.526371	12.047875	21.514090	-0.121950	0.109530	2.477418	0.000000	-0.017128	0.000000	0.009024	0.000864	0.000000	0.000000
14.007621	12.184762	21.419561	-0.162489	0.086893	2.468759	0.000000	-0.017128	0.000000	0.009440	0.000864	0.000000	0.000000
14.304943	12.288797	21.372108	-0.160234	0.025675	2.463406	0.000000	-0.022601	0.000000	0.009697	0.000841	0.000000	0.000000
14.745903	12.588073	21.115533	-0.520592	0.553883	2.468431	0.000000	0.047277	0.000000	0.010123	0.001097	0.000000	0.000000
15.186863	13.214510	20.402429	-0.904753	1.056885	2.504250	0.000000	0.117683	0.000000	0.010666	0.001365	0.000000	0.000000
15.627823	14.196761	19.265239	-1.330281	1.511789	2.571266	0.000000	0.189414	0.000000	0.011329	0.001648	0.000000	0.000000
16.068783	15.579749	17.755706	-1.816630	1.897890	2.670237	0.000000	0.263286	0.000000	0.012122	0.001950	0.000000	0.000000
16.514743	17.450403	15.920742	-2.391027	2.198640	2.803958	0.000000	0.340632	0.000000	0.013064	0.002277	0.000000	0.000000
17.063803	19.853200	13.872083	-1.957282	1.553865	2.966653	0.000000	0.254955	0.000000	0.014195	0.001836	0.000000	0.000000
17.612863	21.700255	12.466984	-1.385162	1.019804	3.081235	0.000000	0.164783	0.000000	0.015074	0.001361	0.000000	0.000000
18.161923	22.860949	11.605348	-0.715108	0.558408	3.145684	0.000000	0.071709	0.000000	0.015686	0.000863	0.000000	0.000000
18.710983	23.253192	11.225791	0.005511	0.136801	3.158864	0.000000	-0.022624	0.000000	0.016019	0.000349	0.000000	0.000000
19.009556	23.284773	11.137305	-0.059615	0.134676	3.154101	0.000000	-0.015525	0.000000	0.016135	0.000388	0.000000	0.000000
19.342889	23.329305	11.057679	-0.073981	0.104204	3.148796	0.000000	-0.015525	0.000000	0.016264	0.000388	0.000000	0.000000
19.676223	23.383415	10.998367	-0.088348	0.073731	3.143492	0.000000	-0.015525	0.000000	0.016394	0.000388	0.000000	0.000000
20.010806	23.447649	10.959127	-0.218941	0.097443	3.138187	0.000000	0.000023	0.000000	0.016524	0.000470	0.000000	0.000000
20.308129	23.581984	10.909237	-0.284854	0.094486	3.138067	0.000000	0.007026	0.000000	0.016663	0.000510	0.000000	0.000000
20.857189	23.488275	11.026639	0.454636	-0.309521	3.116088	0.000000	-0.086492	0.000000	0.016795	-0.000032	0.000000	0.000000
21.406249	22.595037	11.597232	1.161990	-0.735585	3.043381	0.000000	-0.178476	0.000000	0.016629	-0.000574	0.000000	0.000000
21.955309	20.965436	12.661672	1.787196	-1.214065	2.921235	0.000000	-0.267302	0.000000	0.016167	-0.001105	0.000000	0.000000
22.504369	18.714711	14.295798	2.286052	-1.779056	2.751812	0.000000	-0.351402	0.000000	0.015418	-0.001617	0.000000	0.000000
22.950329	16.942709	15.763305	1.699486	-1.496782	2.612675	0.000000	-0.275465	0.000000	0.014785	-0.001225	0.000000	0.000000
23.391289	15.670421	16.934043	1.195645	-1.147533	2.507668	0.000000	-0.203149	0.000000	0.014328	-0.000850	0.000000	0.000000
23.832249	14.816964	17.772399	0.746471	-0.746053	2.433862	0.000000	-0.133139	0.000000	0.014034	-0.000484	0.000000	0.000000
24.273209	14.343301	18.240222	0.331427	-0.310616	2.390417	0.000000	-0.064640	0.000000	0.013900	-0.000124	0.000000	0.000000
24.715418	14.227949	18.315865	-0.038422	0.100043	2.376845	0.000000	-0.001910	0.000000	0.013925	0.000203	0.000000	0.000000
25.012741	14.257019	18.261250	-0.059350	0.083648	2.376217	0.000000	-0.001910	0.000000	0.013986	0.000203	0.000000	0.000000
25.346075	14.304406	18.211611	-0.082813	0.065267	2.375512	0.000000	-0.001910	0.000000	0.014053	0.000203	0.000000	0.000000
25.679408	14.367436	18.174227	-0.106276	0.046885	2.374808	0.000000	-0.001910	0.000000	0.014121	0.000203	0.000000	0.000000
26.013991	14.446138	18.149395	-0.012630	-0.118802	2.374077	0.000000	-0.021170	0.000000	0.014189	0.000088	0.000000	0.000000
26.311314	14.459683	18.225087	-0.002698	-0.173864	2.367749	0.000000	-0.026167	0.000000	0.014215	0.000056	0.000000	0.000000
26.752274	14.640886	18.180850	-0.409607	0.273782	2.370966	0.000000	0.041229	0.000000	0.014321	0.000424	0.000000	0.000000
27.193234	15.187967	17.745751	-0.835245	0.708967	2.403824	0.000000	0.109090	0.000000	0.014589	0.000796	0.000000	0.000000
27.634194	16.125950	16.939590	-1.299074	1.111883	2.466696	0.000000	0.178186	0.000000	0.015024	0.001178	0.000000	0.000000
28.075154	17.497742	15.799053	-1.822306	1.464190	2.560296	0.000000	0.249300	0.000000	0.015631	0.001573	0.000000	0.000000
28.521114	19.390303	14.358626	-2.434143	1.751083	2.687284	0.000000	0.323722	0.000000	0.016425	0.001989	0.000000	0.000000
29.070174	21.797321	12.754213	-1.921695	1.187567	2.841937	0.000000	0.241950	0.000000	0.017368	0.001442	0.000000	0.000000
29.619234	23.562924	11.718913	-1.273375	0.708675	2.950740	0.000000	0.155907	0.000000	0.018003	0.000868	0.000000	0.000000
30.168294	24.562236	11.178963	-0.535020	0.280283	3.011769	0.000000	0.067111	0.000000	0.018319	0.000280	0.000000	0.000000
30.717354	24.724579	11.095894	0.241162	-0.128135	3.023944	0.000000	-0.022871	0.000000	0.018310	-0.000314	0.000000	0.000000
31.015927	24.616426	11.166081	0.174460	-0.130954	3.019160	0.000000	-0.016242	0.000000	0.018229	-0.000270	0.000000	0.000000
31.349260	24.504771	11.263505	0.160507	-0.161318	3.013836	0.000000	-0.016242	0.000000	0.018139	-0.000270	0.000000	0.000000
31.682593	24.402417	11.381172	0.146554	-0.191682	3.008512	0.000000	-0.016242	0.000000	0.018049	-0.000270	0.000000	0.000000
32.017177	24.309035	11.519637	0.132548	-0.222161	3.003168	0.000000	-0.016242	0.000000	0.017959	-0.000270	0.000000	0.000000
32.314499	24.234143	11.659687	0.066716	-0.223599	2.998434	0.000000	-0.009636	0.000000	0.017879	-0.000227	0.000000	0.000000
32.863559	23.745695	12.143247	0.817046	-0.662084	2.968964	0.000000	-0.098510	0.000000	0.017596	-0.000801	0.000000	0.000000
33.412619	22.459899	13.131364	1.509600	-1.147748	2.891391	0.000000	-0.185648	0.000000	0.017001	-0.001362	0.000000	0.000000
33.961679	20.467702	14.694436	2.095416	-1.715197	2.767083	0.000000	-0.269514	0.000000	0.016105	-0.001899	0.000000	0.000000
34.510739	17.910001	16.943821	2.533079	-2.404864	2.598234	0.000000	-0.348628	0.000000	0.014922	-0.002401	0.000000	0.000000
34.956699	15.922700	18.956297	1.936777	-2.087801	2.459791	0.000000	-0.276676	0.000000	0.013935	-0.002027	0.000000	0.000000
35.397659	14.441170	20.623003	1.434289	-1.676801	2.353727	0.000000	-0.208320	0.000000	0.013119	-0.001678	0.000000	0.000000
35.838619	13.372493	21.891983	0.997381	-1.189484	2.277122	0.000000	-0.142319	0.000000	0.012452	-0.001348	0.000000	0.000000
36.279579	12.667787	22.705492	0.606077	-0.648032	2.229107	0.000000	-0.077925	0.000000	0.011927	-0.001034	0.000000	0.000000
36.721789	12.294193	23.026744	0.269136	-0.127030	2.209123	0.000000	-0.019216	0.000000	0.011537	-0.000758	0.000000	0.000000
37.019112	12.141864	23.106183	0.243200	-0.140150	2.203635	0.000000	-0.019216	0.000000	0.011312	-0.000758	0.000000	0.000000
37.352445	11.989423	23.204520	0.214123	-0.154860	2.197483	0.000000	-0.019216	0.000000	0.011059	-0.000758	0.000000	0.000000
37.685779	11.856366	23.312663	0.185046	-0.169569	2.191330	0.000000	-0.019216	0.000000	0.010806	-0.000758	0.000000	0.000000
38.020362	11.742304	23.431073	0.155860	-0.184334	2.185155	0.000000	-0.019216	0.000000	0.010553	-0.000758	0.000000	0.000000
38.317684	11.657298	23.544661	0.155648	-0.249660	2.179663	0.000000	-0.024026	0.000000	0.010327	-0.000782	0.000000	0.000000
38.758644	11.669229	23.504048	-0.183021	0.341396	2.183133	0.000000	0.038516	0.000000	0.010040	-0.000520	0.000000	0.000000
39.199604	11.982463	22.946985	-0.530051	0.916913	2.214146	0.000000	0.101502	0.000000	0.009868	-0.000263	0.000000	0.000000
39.640564	12.611315	21.898827	-0.901306	1.450698	2.273058	0.000000	0.165648	0.000000	0.009808	-0.000010	0.000000	0.000000
40.081524	13.584532	20.407277	-1.313756	1.918460	2.360540	0.000000	0.231681	0.000000	0.009859	0.000244	0.000000	0.000000
40.527484	14.964232	18.517537	-1.790252	2.300436	2.479068	0.000000	0.300782	0.000000	0.010026	0.000502	0.000000	0.000000
41.076544	16.727154	16.394013	-1.400920	1.589399	2.623724	0.000000	0.225940	0.000000	0.010211	0.000174	0.000000	0.000000
41.625604	18.005165	14.985001	-0.912588	0.991604	2.726295	0.000000	0.147092	0.000000	0.010216	-0.000157	0.000000	0.000000
42.174664	18.707936	14.190112	-0.359770	0.464459	2.784958	0.000000	0.065632	0.000000	0.010040	-0.000485	0.000000	0.000000
42.723724	18.785805	13.952712	0.218461	-0.029591	2.798672	0.000000	-0.017001	0.000000	0.009685	-0.000805	0.000000	0.000000
43.022297	18.687056	13.956755	0.157096	-0.017405	2.795826	0.000000	-0.010297	0.000000	0.009452	-0.000780	0.000000	0.000000
43.502297	18.548878	13.989977	0.130775	-0.051808	2.791258	0.000000	-0.010297	0.000000	0.009077	-0.000780	0.000000	0.000000
43.982297	18.435967	14.056226	0.104455	-0.086210	2.786690	0.000000	-0.010297	0.000000	0.008703	-0.000780	0.000000	0.000000
44.462297	18.348324	14.155501	0.078135	-0.120613	2.782122	0.000000	-0.010297	0.000000	0.008328	-0.000780	0.000000	0.000000
44.942297	18.285947	14.287802	0.051815	-0.155015	2.777554	0.000000	-0.010297	0.000000	0.007953	-0.000780	0.000000	0.000000
45.423547	18.249001	14.453424	-0.064989	-0.117896	2.772991	0.000000	0.003442	0.000000	0.007578	-0.000743	0.000000	0.000000
45.720870	18.292541	14.529709	-0.126145	-0.103328	2.774237	0.000000	0.010235	0.000000	0.007357	-0.000724	0.000000	0.000000
46.269930	18.122726	14.924410	0.433126	-0.619711	2.757820	0.000000	-0.071555	0.000000	0.006895	-0.000955	0.000000	0.000000
46.818990	17.351906	15.906984	0.961777	-1.180239	2.696888	0.000000	-0.152092	0.000000	0.006311	-0.001169	0.000000	0.000000
47.368050	16.034573	17.547411	1.422454	-1.824842	2.592513	0.000000	-0.229949	0.000000	0.005615	-0.001362	0.000000	0.000000
47.917110	14.263836	19.962533	1.782608	-2.599439	2.446538	0.000000	-0.303749	0.000000	0.004819	-0.001531	0.000000	0.000000
48.363070	12.885143	22.109784	1.319086	-2.194938	2.326976	0.000000	-0.235534	0.000000	0.004163	-0.001415	0.000000	0.000000
48.804030	11.901398	23.830394	0.919683	-1.691959	2.238138	0.000000	-0.170396	0.000000	0.003561	-0.001315	0.000000	0.000000
49.244990	11.250150	25.071608	0.562314	-1.111994	2.177535	0.000000	-0.107185	0.000000	0.003000	-0.001231	0.000000	0.000000
49.685950	10.901627	25.776958	0.230648	-0.481433	2.144482	0.000000	-0.045181	0.000000	0.002474	-0.001160	0.000000	0.000000
50.128160	10.840055	25.914086	-0.064504	0.109029	2.138623	0.000000	0.011174	0.000000	0.001974	-0.001108	0.000000	0.000000
50.425482	10.886601	25.852704	-0.092047	0.097419	2.142275	0.000000	0.011174	0.000000	0.001644	-0.001108	0.000000	0.000000
50.758816	10.958259	25.792096	-0.122925	0.084404	2.146369	0.000000	0.011174	0.000000	0.001275	-0.001108	0.000000	0.000000
51.092149	11.050502	25.740166	-0.153803	0.071388	2.150463	0.000000	0.011174	0.000000	0.000906	-0.001108	0.000000	0.000000
51.426732	11.163565	25.697288	-0.094231	-0.150146	2.154550	0.000000	-0.006305	0.000000	0.000535	-0.001112	0.000000	0.000000
51.724055	11.227588	25.790089	-0.093620	-0.225509	2.153007	0.000000	-0.011574	0.000000	0.000204	-0.001113	0.000000	0.000000
52.165015	11.456399	25.701995	-0.427598	0.424528	2.162019	0.000000	0.050335	0.000000	-0.000286	-0.001114	0.000000	0.000000
52.605975	11.987206	25.046987	-0.781104	1.055244	2.198437	0.000000	0.112830	0.000000	-0.000780	-0.001127	0.000000	0.000000
53.046935	12.844251	23.854878	-1.170286	1.637945	2.262681	0.000000	0.176622	0.000000	-0.001282	-0.001154	0.000000	0.000000
53.487895	14.066674	22.179919	-1.612923	2.146119	2.355485	0.000000	0.242438	0.000000	-0.001799	-0.001194	0.000000	0.000000
53.933855	15.731220	20.073262	-2.133472	2.557942	2.479443	0.000000	0.311422	0.000000	-0.002343	-0.001247	0.000000	0.000000
54.482915	17.873956	17.702562	-1.746701	1.785449	2.630717	0.000000	0.236493	0.000000	-0.003005	-0.001161	0.000000	0.000000
55.031975	19.521312	16.105747	-1.236589	1.140124	2.739580	0.000000	0.157352	0.000000	-0.003614	-0.001054	0.000000	0.000000
55.581035	20.556974	15.169069	-0.639164	0.576006	2.804093	0.000000	0.075402	0.000000	-0.004158	-0.000928	0.000000	0.000000
56.130095	20.907834	14.825802	0.003381	0.052914	2.823103	0.000000	-0.007900	0.000000	-0.004629	-0.000785	0.000000	0.000000
56.428668	20.943950	14.776163	-0.067664	0.072986	2.823268	0.000000	-0.000241	0.000000	-0.004868	-0.000798	0.000000	0.000000
56.762001	20.994389	14.735065	-0.083652	0.050307	2.823454	0.000000	-0.000241	0.000000	-0.005133	-0.000798	0.000000	0.000000
57.095334	21.055486	14.709087	-0.099641	0.027628	2.823639	0.000000	-0.000241	0.000000	-0.005399	-0.000798	0.000000	0.000000
57.429918	21.127532	14.698217	-0.115689	0.004863	2.823826	0.000000	-0.000241	0.000000	-0.005666	-0.000798	0.000000	0.000000
57.727240	21.200588	14.701324	-0.188038	0.024748	2.823993	0.000000	0.007497	0.000000	-0.005903	-0.000813	0.000000	0.000000
58.276300	21.044738	14.956204	0.469799	-0.491740	2.805582	0.000000	-0.075840	0.000000	-0.006296	-0.000616	0.000000	0.000000
58.825360	20.180672	15.793982	1.094447	-1.043246	2.741611	0.000000	-0.157842	0.000000	-0.006577	-0.000407	0.000000	0.000000
59.374420	18.669414	17.274313	1.641802	-1.669043	2.633210	0.000000	-0.237051	0.000000	-0.006742	-0.000191	0.000000	0.000000
59.923480	16.617677	19.502616	2.073218	-2.413699	2.482299	0.000000	-0.312059	0.000000	-0.006787	0.000028	0.000000	0.000000
60.369440	15.010496	21.483104	1.543540	-2.008716	2.358623	0.000000	-0.243022	0.000000	-0.006814	-0.000149	0.000000	0.000000
60.810400	13.854337	23.042071	1.088477	-1.513572	2.266185	0.000000	-0.177132	0.000000	-0.006918	-0.000326	0.000000	0.000000
61.251360	13.076088	24.132261	0.683131	-0.949577	2.202405	0.000000	-0.113255	0.000000	-0.007102	-0.000506	0.000000	0.000000
61.692320	12.640204	24.704083	0.308990	-0.342388	2.166558	0.000000	-0.050663	0.000000	-0.007366	-0.000693	0.000000	0.000000
62.134530	12.526840	24.730947	-0.018216	0.215657	2.158249	0.000000	0.005689	0.000000	-0.007715	-0.000868	0.000000	0.000000
62.431853	12.544731	24.606449	-0.041959	0.203075	2.160199	0.000000	0.005689	0.000000	-0.007973	-0.000868	0.000000	0.000000
62.765186	12.581576	24.475767	-0.068577	0.188970	2.162384	0.000000	0.005689	0.000000	-0.008262	-0.000868	0.000000	0.000000
63.098520	12.636167	24.354488	-0.095195	0.174865	2.164570	0.000000	0.005689	0.000000	-0.008551	-0.000868	0.000000	0.000000
63.433103	12.708808	24.242212	-0.121913	0.160707	2.166764	0.000000	0.005689	0.000000	-0.008842	-0.000868	0.000000	0.000000
63.730426	12.788332	24.150448	-0.111664	0.083631	2.168711	0.000000	-0.000075	0.000000	-0.009100	-0.000844	0.000000	0.000000
64.171386	13.048845	23.810703	-0.481796	0.684006	2.182824	0.000000	0.062290	0.000000	-0.009524	-0.001084	0.000000	0.000000
64.612346	13.644120	22.953300	-0.873922	1.253265	2.224672	0.000000	0.125376	0.000000	-0.010058	-0.001337	0.000000	0.000000
65.053306	14.601323	21.617253	-1.305945	1.765512	2.294735	0.000000	0.189904	0.000000	-0.010705	-0.001604	0.000000	0.000000
65.494266	15.964146	19.863347	-1.797592	2.197450	2.393817	0.000000	0.256611	0.000000	-0.011475	-0.001890	0.000000	0.000000
65.940226	17.818183	17.746408	-2.375726	2.529957	2.524673	0.000000	0.326626	0.000000	-0.012386	-0.002200	0.000000	0.000000
66.489286	20.192404	15.378166	-1.924695	1.809554	2.684267	0.000000	0.250123	0.000000	-0.013480	-0.001781	0.000000	0.000000
67.038346	21.993516	13.725934	-1.337828	1.218001	2.800342	0.000000	0.169157	0.000000	-0.014335	-0.001330	0.000000	0.000000
67.587406	23.094448	12.672043	-0.656550	0.713174	2.870829	0.000000	0.085170	0.000000	-0.014936	-0.000856	0.000000	0.000000
68.136466	23.417538	12.141437	0.071055	0.259127	2.894469	0.000000	-0.000341	0.000000	-0.015272	-0.000367	0.000000	0.000000
68.435038	23.419780	11.973458	-0.010398	0.268079	2.897014	0.000000	0.008151	0.000000	-0.015394	-0.000409	0.000000	0.000000
68.768372	23.431457	11.804685	-0.024632	0.238239	2.899868	0.000000	0.008151	0.000000	-0.015531	-0.000409	0.000000	0.000000
69.101705	23.452623	11.655806	-0.038867	0.208399	2.902721	0.000000	0.008151	0.000000	-0.015667	-0.000409	0.000000	0.000000
69.436288	23.483412	11.526374	-0.053155	0.178447	2.905585	0.000000	0.008151	0.000000	-0.015804	-0.000409	0.000000	0.000000
69.733611	23.518971	11.428090	-0.135151	0.185435	2.908141	0.000000	0.016720	0.000000	-0.015925	-0.000453	0.000000	0.000000
70.282671	23.263462	11.452939	0.597729	-0.230970	2.893768	0.000000	-0.069382	0.000000	-0.016032	0.000064	0.000000	0.000000
