#ParticleID	Turn	x[m]	xp	y[m]	yp	z[m]	dE[GeV]# s	beta_x	beta_y	alpha_x	alpha_y	D_x	D_y	D_px	D_py	orbit_x	orbit_px	orbit_y	orbit_py
0.300000	11.965555	25.318260	-0.018947	-0.022073	2.598449	0.000000	0.000050	0.000000	-0.001003	0.000865	0.000000	0.000000
0.601250	11.984558	25.335145	-0.044133	-0.033977	2.598203	0.000000	0.000050	0.000000	-0.000742	0.000865	0.000000	0.000000
0.898573	12.018192	25.358842	-0.039383	-0.107885	2.597960	0.000000	-0.006351	0.000000	-0.000485	0.000866	0.000000	0.000000
1.339533	12.206853	25.172543	-0.389786	0.528765	2.610972	0.000000	0.067081	0.000000	-0.000105	0.000859	0.000000	0.000000
1.780493	12.711205	24.433269	-0.758003	1.141361	2.656500	0.000000	0.141267	0.000000	0.000274	0.000861	0.000000	0.000000
2.221453	13.554297	23.174651	-1.160859	1.702027	2.735061	0.000000	0.217052	0.000000	0.000656	0.000873	0.000000	0.000000
2.662413	14.774660	21.453946	-1.616761	2.185254	2.847546	0.000000	0.295301	0.000000	0.001045	0.000895	0.000000	0.000000
3.108373	16.449141	19.324226	-2.150913	2.570228	2.997075	0.000000	0.377395	0.000000	0.001451	0.000927	0.000000	0.000000
3.657433	18.595531	16.931820	-1.734603	1.812661	3.178772	0.000000	0.285186	0.000000	0.001946	0.000872	0.000000	0.000000
4.206493	20.214358	15.295963	-1.195743	1.184209	3.308414	0.000000	0.187932	0.000000	0.002406	0.000802	0.000000	0.000000
4.755553	21.191239	14.300145	-0.572395	0.640107	3.383705	0.000000	0.087357	0.000000	0.002823	0.000717	0.000000	0.000000
5.304613	21.457142	13.873442	0.091403	0.141599	3.403316	0.000000	-0.014756	0.000000	0.003191	0.000620	0.000000	0.000000
5.603185	21.439291	13.774529	0.022916	0.154554	3.401306	0.000000	-0.006103	0.000000	0.003378	0.000628	0.000000	0.000000
5.936519	21.429199	13.679752	0.007360	0.129776	3.399062	0.000000	-0.006103	0.000000	0.003587	0.000628	0.000000	0.000000
6.269852	21.429478	13.601493	-0.008196	0.104999	3.396819	0.000000	-0.006103	0.000000	0.003797	0.000628	0.000000	0.000000
6.604435	21.440186	13.539553	-0.023810	0.080129	3.394567	0.000000	-0.006103	0.000000	0.004007	0.000628	0.000000	0.000000
6.901758	21.458481	13.498468	-0.091759	0.092168	3.392566	0.000000	0.002446	0.000000	0.004193	0.000638	0.000000	0.000000
7.450818	21.193334	13.659108	0.572128	-0.386448	3.365665	0.000000	-0.099204	0.000000	0.004506	0.000498	0.000000	0.000000
7.999878	20.217036	14.357305	1.195605	-0.892597	3.283427	0.000000	-0.199087	0.000000	0.004738	0.000348	0.000000	0.000000
8.548938	18.598556	15.642802	1.734620	-1.462333	3.147316	0.000000	-0.295432	0.000000	0.004886	0.000192	0.000000	0.000000
9.097998	16.452241	17.607178	2.151090	-2.136243	2.959748	0.000000	-0.386533	0.000000	0.004948	0.000033	0.000000	0.000000
9.543958	14.777799	19.357283	1.616750	-1.771252	2.805485	0.000000	-0.305445	0.000000	0.004991	0.000161	0.000000	0.000000
9.984918	13.557618	20.728817	1.160742	-1.327024	2.687805	0.000000	-0.228338	0.000000	0.005091	0.000291	0.000000	0.000000
10.425878	12.714823	21.680321	0.757775	-0.822407	2.603466	0.000000	-0.153834	0.000000	0.005249	0.000425	0.000000	0.000000
10.866838	12.210901	22.168494	0.389433	-0.280364	2.551506	0.000000	-0.081087	0.000000	0.005466	0.000563	0.000000	0.000000
11.309048	12.022672	22.170539	0.066637	0.222786	2.531314	0.000000	-0.015135	0.000000	0.005747	0.000694	0.000000	0.000000
11.606371	11.990432	22.042245	0.041797	0.208710	2.526608	0.000000	-0.015135	0.000000	0.005953	0.000694	0.000000	0.000000
12.086371	11.969555	21.852792	0.001695	0.185985	2.519010	0.000000	-0.015135	0.000000	0.006286	0.000694	0.000000	0.000000
12.566371	11.987177	21.685154	-0.038407	0.163260	2.511412	0.000000	-0.015135	0.000000	0.006619	0.000694	0.000000	0.000000
13.046371	12.043297	21.539332	-0.078509	0.140535	2.503815	0.000000	-0.015135	0.000000	0.006952	0.000694	0.000000	0.000000
13.526371	12.137914	21.415326	-0.118611	0.117810	2.496217	0.000000	-0.015135	0.000000	0.007285	0.000694	0.000000	0.000000
14.007621	12.271426	21.312899	-0.158817	0.095026	2.488599	0.000000	-0.015135	0.000000	0.007619	0.000694	0.000000	0.000000
14.304943	12.373229	21.260616	-0.155607	0.032951	2.483891	0.000000	-0.020766	0.000000	0.007825	0.000675	0.000000	0.000000
14.745903	12.669177	20.999006	-0.517730	0.557997	2.489924	0.000000	0.049650	0.000000	0.008168	0.000881	0.000000	0.000000
15.186863	13.293759	20.283762	-0.903522	1.057651	2.527014	0.000000	0.120622	0.000000	0.008604	0.001098	0.000000	0.000000
15.627823	14.275537	19.147425	-1.330618	1.509175	2.595581	0.000000	0.192957	0.000000	0.009138	0.001326	0.000000	0.000000
16.068783	15.659402	17.641700	-1.818542	1.892017	2.696402	0.000000	0.267476	0.000000	0.009776	0.001570	0.000000	0.000000
16.514743	17.532272	15.813474	-2.394551	2.189699	2.832313	0.000000	0.345518	0.000000	0.010535	0.001834	0.000000	0.000000
17.063803	19.937008	13.772908	-1.957655	1.548125	2.997638	0.000000	0.258887	0.000000	0.011445	0.001477	0.000000	0.000000
17.612863	21.782554	12.372613	-1.382381	1.016849	3.114260	0.000000	0.167686	0.000000	0.012152	0.001095	0.000000	0.000000
18.161923	22.938426	11.512837	-0.709389	0.558023	3.180120	0.000000	0.073527	0.000000	0.012644	0.000693	0.000000	0.000000
18.710983	23.322894	11.132332	0.013755	0.138955	3.194054	0.000000	-0.021925	0.000000	0.012912	0.000279	0.000000	0.000000
19.009556	23.350713	11.042237	-0.053190	0.137193	3.189620	0.000000	-0.014513	0.000000	0.013005	0.000311	0.000000	0.000000
19.342889	23.390945	10.961027	-0.067505	0.106438	3.184679	0.000000	-0.014513	0.000000	0.013108	0.000311	0.000000	0.000000
19.676223	23.440720	10.900320	-0.081820	0.075683	3.179737	0.000000	-0.014513	0.000000	0.013212	0.000311	0.000000	0.000000
20.010806	23.500570	10.859870	-0.212625	0.098618	3.174797	0.000000	0.001217	0.000000	0.013316	0.000377	0.000000	0.000000
20.308129	23.631063	10.809389	-0.280393	0.095991	3.175055	0.000000	0.008545	0.000000	0.013428	0.000410	0.000000	0.000000
20.857189	23.531609	10.923591	0.460550	-0.305174	3.153608	0.000000	-0.086171	0.000000	0.013534	-0.000027	0.000000	0.000000
21.406249	22.631326	11.487690	1.168943	-0.728085	3.080720	0.000000	-0.179359	0.000000	0.013399	-0.000463	0.000000	0.000000
21.955309	20.993864	12.541878	1.794710	-1.202874	2.957681	0.000000	-0.269372	0.000000	0.013026	-0.000891	0.000000	0.000000
22.504369	18.734994	14.161258	2.293618	-1.763369	2.786673	0.000000	-0.354619	0.000000	0.012423	-0.001304	0.000000	0.000000
22.950329	16.956890	15.616130	1.706127	-1.484515	2.646189	0.000000	-0.277809	0.000000	0.011912	-0.000988	0.000000	0.000000
23.391289	15.679162	16.777684	1.201596	-1.139166	2.540255	0.000000	-0.204646	0.000000	0.011543	-0.000686	0.000000	0.000000
23.832249	14.820719	17.610495	0.751997	-0.741970	2.465921	0.000000	-0.133806	0.000000	0.011306	-0.000391	0.000000	0.000000
24.273209	14.342308	18.076664	0.336775	-0.311005	2.422340	0.000000	-0.064488	0.000000	0.011198	-0.000101	0.000000	0.000000
24.715418	14.222185	18.154673	-0.032071	0.094336	2.409020	0.000000	-0.001165	0.000000	0.011217	0.000162	0.000000	0.000000
25.012741	14.247478	18.103489	-0.052998	0.077813	2.408625	0.000000	-0.001165	0.000000	0.011265	0.000162	0.000000	0.000000
25.346075	14.290630	18.057789	-0.076459	0.059289	2.408183	0.000000	-0.001165	0.000000	0.011319	0.000162	0.000000	0.000000
25.679408	14.349424	18.024438	-0.099921	0.040765	2.407740	0.000000	-0.001165	0.000000	0.011373	0.000162	0.000000	0.000000
26.013991	14.423874	18.003746	-0.006455	-0.123884	2.407272	0.000000	-0.020695	0.000000	0.011427	0.000069	0.000000	0.000000
26.311314	14.433786	18.082468	0.004381	-0.180041	2.401094	0.000000	-0.025927	0.000000	0.011448	0.000043	0.000000	0.000000
26.752274	14.608396	18.045380	-0.401716	0.263814	2.404626	0.000000	0.042329	0.000000	0.011532	0.000339	0.000000	0.000000
27.193234	15.147982	17.620602	-0.826179	0.695663	2.438211	0.000000	0.111062	0.000000	0.011748	0.000639	0.000000	0.000000
27.634194	16.077220	16.827463	-1.288413	1.095850	2.502230	0.000000	0.181055	0.000000	0.012097	0.000947	0.000000	0.000000
28.075154	17.438607	15.702055	-1.809551	1.446163	2.597410	0.000000	0.253100	0.000000	0.012584	0.001265	0.000000	0.000000
28.521114	19.318333	14.278454	-2.418601	1.731815	2.726447	0.000000	0.328498	0.000000	0.013223	0.001600	0.000000	0.000000
29.070174	21.708787	12.693146	-1.907670	1.171981	2.883541	0.000000	0.245426	0.000000	0.013981	0.001159	0.000000	0.000000
29.619234	23.460121	11.673515	-1.261884	0.695653	2.993994	0.000000	0.158017	0.000000	0.014492	0.000697	0.000000	0.000000
30.168294	24.448501	11.146920	-0.526894	0.268893	3.055854	0.000000	0.067816	0.000000	0.014745	0.000224	0.000000	0.000000
30.717354	24.604038	11.075845	0.245342	-0.138707	3.068025	0.000000	-0.023586	0.000000	0.014737	-0.000254	0.000000	0.000000
31.015927	24.494590	11.151808	0.176738	-0.140744	3.063124	0.000000	-0.016598	0.000000	0.014672	-0.000218	0.000000	0.000000
31.349260	24.381442	11.255798	0.162704	-0.171226	3.057664	0.000000	-0.016598	0.000000	0.014599	-0.000218	0.000000	0.000000
31.682593	24.277650	11.380110	0.148671	-0.201709	3.052204	0.000000	-0.016598	0.000000	0.014526	-0.000218	0.000000	0.000000
32.017177	24.182878	11.525324	0.134585	-0.232306	3.046723	0.000000	-0.016598	0.000000	0.014453	-0.000218	0.000000	0.000000
32.314499	24.106716	11.671477	0.066963	-0.232848	3.041862	0.000000	-0.009645	0.000000	0.014389	-0.000183	0.000000	0.000000
32.863559	23.620421	12.165572	0.813015	-0.672175	3.011954	0.000000	-0.099910	0.000000	0.014161	-0.000645	0.000000	0.000000
33.412619	22.341419	13.165510	1.501590	-1.159396	2.933128	0.000000	-0.188412	0.000000	0.013682	-0.001096	0.000000	0.000000
33.961679	20.360153	14.742528	2.084013	-1.729226	2.806777	0.000000	-0.273588	0.000000	0.012960	-0.001528	0.000000	0.000000
34.510739	17.816713	17.008972	2.519118	-2.422263	2.635133	0.000000	-0.353935	0.000000	0.012008	-0.001933	0.000000	0.000000
34.956699	15.840731	19.036682	1.925827	-2.104722	2.494353	0.000000	-0.281068	0.000000	0.011214	-0.001631	0.000000	0.000000
35.397659	14.367891	20.717720	1.425751	-1.692397	2.386395	0.000000	-0.211849	0.000000	0.010557	-0.001351	0.000000	0.000000
35.838619	13.305923	21.999564	0.990857	-1.203050	2.308291	0.000000	-0.145029	0.000000	0.010020	-0.001086	0.000000	0.000000
36.279579	12.606264	22.823885	0.601260	-0.658952	2.259159	0.000000	-0.079850	0.000000	0.009598	-0.000833	0.000000	0.000000
36.721789	12.236281	23.153460	0.266350	-0.136405	2.238418	0.000000	-0.020567	0.000000	0.009284	-0.000611	0.000000	0.000000
37.019112	12.085634	23.238462	0.240328	-0.149485	2.232485	0.000000	-0.020567	0.000000	0.009102	-0.000611	0.000000	0.000000
37.352445	11.935140	23.343007	0.211154	-0.164150	2.225833	0.000000	-0.020567	0.000000	0.008899	-0.000611	0.000000	0.000000
37.685779	11.804096	23.457328	0.181980	-0.178814	2.219181	0.000000	-0.020567	0.000000	0.008695	-0.000611	0.000000	0.000000
38.020362	11.692118	23.581910	0.152697	-0.193534	2.212504	0.000000	-0.020567	0.000000	0.008490	-0.000611	0.000000	0.000000
38.317684	11.609031	23.700931	0.152860	-0.260280	2.206568	0.000000	-0.025544	0.000000	0.008309	-0.000631	0.000000	0.000000
38.758644	11.622956	23.667831	-0.184729	0.335048	2.209466	0.000000	0.037681	0.000000	0.008078	-0.000419	0.000000	0.000000
39.199604	11.937253	23.114385	-0.530756	0.915126	2.240226	0.000000	0.101340	0.000000	0.007938	-0.000213	0.000000	0.000000
39.640564	12.566285	22.065782	-0.901040	1.453557	2.299201	0.000000	0.166155	0.000000	0.007890	-0.000009	0.000000	0.000000
40.081524	13.538804	20.569742	-1.312503	1.925837	2.387064	0.000000	0.232864	0.000000	0.007931	0.000195	0.000000	0.000000
40.527484	14.916831	18.671604	-1.787905	2.311976	2.506300	0.000000	0.302654	0.000000	0.008064	0.000403	0.000000	0.000000
41.076544	16.678090	16.538064	-1.400379	1.596316	2.651772	0.000000	0.226921	0.000000	0.008213	0.000139	0.000000	0.000000
41.625604	17.956489	15.123797	-0.913900	0.994383	2.754630	0.000000	0.147164	0.000000	0.008216	-0.000127	0.000000	0.000000
42.174664	18.661683	14.328049	-0.362848	0.463296	2.813049	0.000000	0.064795	0.000000	0.008074	-0.000391	0.000000	0.000000
42.723724	18.743843	14.094124	0.213836	-0.034783	2.825989	0.000000	-0.018731	0.000000	0.007788	-0.000648	0.000000	0.000000
43.022297	18.648304	14.100639	0.151747	-0.021462	2.822639	0.000000	-0.011839	0.000000	0.007600	-0.000628	0.000000	0.000000
43.502297	18.515266	14.137590	0.125414	-0.055518	2.817258	0.000000	-0.011839	0.000000	0.007298	-0.000628	0.000000	0.000000
43.982297	18.407508	14.207235	0.099082	-0.089575	2.811877	0.000000	-0.011839	0.000000	0.006997	-0.000628	0.000000	0.000000
44.462297	18.325029	14.309574	0.072750	-0.123632	2.806495	0.000000	-0.011839	0.000000	0.006695	-0.000628	0.000000	0.000000
44.942297	18.267828	14.444608	0.046417	-0.157688	2.801114	0.000000	-0.011839	0.000000	0.006393	-0.000628	0.000000	0.000000
45.423547	18.236083	14.612635	-0.070335	-0.119434	2.795736	0.000000	0.002012	0.000000	0.006091	-0.000598	0.000000	0.000000
45.720870	18.282798	14.689776	-0.132087	-0.103745	2.796514	0.000000	0.008952	0.000000	0.005913	-0.000583	0.000000	0.000000
46.269930	18.119701	15.087550	0.426999	-0.624936	2.779112	0.000000	-0.073541	0.000000	0.005541	-0.000769	0.000000	0.000000
46.818990	17.355584	16.078638	0.955903	-1.190645	2.716796	0.000000	-0.154742	0.000000	0.005071	-0.000941	0.000000	0.000000
47.368050	16.044456	17.733629	1.417255	-1.841167	2.610666	0.000000	-0.233213	0.000000	0.004511	-0.001096	0.000000	0.000000
47.917110	14.278977	20.170402	1.778462	-2.622843	2.462596	0.000000	-0.307564	0.000000	0.003871	-0.001232	0.000000	0.000000
48.363070	12.903979	22.336363	1.315074	-2.213371	2.341299	0.000000	-0.238958	0.000000	0.003343	-0.001138	0.000000	0.000000
48.804030	11.923843	24.070700	0.915599	-1.704579	2.250917	0.000000	-0.173472	0.000000	0.002859	-0.001058	0.000000	0.000000
49.244990	11.276341	25.320248	0.557968	-1.118228	2.188921	0.000000	-0.109950	0.000000	0.002408	-0.000990	0.000000	0.000000
49.685950	10.931875	26.028159	0.225838	-0.480998	2.154612	0.000000	-0.047670	0.000000	0.001984	-0.000934	0.000000	0.000000
50.128160	10.874873	26.161942	-0.069815	0.115203	2.147613	0.000000	0.008890	0.000000	0.001582	-0.000892	0.000000	0.000000
50.425482	10.924557	26.096862	-0.097289	0.103687	2.150521	0.000000	0.008890	0.000000	0.001317	-0.000892	0.000000	0.000000
50.758816	10.999683	26.032040	-0.128090	0.090777	2.153782	0.000000	0.008890	0.000000	0.001019	-0.000892	0.000000	0.000000
51.092149	11.095344	25.975826	-0.158891	0.077867	2.157042	0.000000	0.008890	0.000000	0.000722	-0.000892	0.000000	0.000000
51.426732	11.211785	25.928581	-0.098850	-0.145437	2.160293	0.000000	-0.008636	0.000000	0.000424	-0.000895	0.000000	0.000000
51.724055	11.278528	26.018547	-0.098011	-0.221189	2.157992	0.000000	-0.013920	0.000000	0.000158	-0.000896	0.000000	0.000000
52.165015	11.511787	25.923989	-0.433267	0.434809	2.165904	0.000000	0.048104	0.000000	-0.000237	-0.000897	0.000000	0.000000
52.605975	12.048283	25.257446	-0.788311	1.071020	2.201265	0.000000	0.110686	0.000000	-0.000635	-0.000908	0.000000	0.000000
53.046935	12.912516	24.049254	-1.179363	1.658498	2.264482	0.000000	0.174537	0.000000	-0.001039	-0.000929	0.000000	0.000000
53.487895	14.143960	22.354393	-1.624286	2.170515	2.356278	0.000000	0.240387	0.000000	-0.001456	-0.000962	0.000000	0.000000
53.933855	15.819913	20.224651	-2.147677	2.585083	2.479223	0.000000	0.309380	0.000000	-0.001894	-0.001005	0.000000	0.000000
54.482915	17.977126	17.827717	-1.758572	1.806341	2.629258	0.000000	0.234477	0.000000	-0.002427	-0.000935	0.000000	0.000000
55.031975	19.635914	16.210679	-1.245280	1.156257	2.736917	0.000000	0.155400	0.000000	-0.002917	-0.000848	0.000000	0.000000
55.581035	20.679150	15.258351	-0.644056	0.588528	2.800283	0.000000	0.073553	0.000000	-0.003356	-0.000747	0.000000	0.000000
56.130095	21.033177	14.902894	0.002639	0.062717	2.818227	0.000000	-0.009610	0.000000	-0.003735	-0.000632	0.000000	0.000000
56.428668	21.069678	14.847442	-0.068257	0.082749	2.817815	0.000000	-0.002019	0.000000	-0.003927	-0.000642	0.000000	0.000000
56.762001	21.120481	14.799811	-0.084152	0.060145	2.817356	0.000000	-0.002019	0.000000	-0.004141	-0.000642	0.000000	0.000000
57.095334	21.181880	14.767249	-0.100046	0.037540	2.816897	0.000000	-0.002019	0.000000	-0.004354	-0.000642	0.000000	0.000000
57.429918	21.254165	14.749720	-0.116000	0.014851	2.816437	0.000000	-0.002019	0.000000	-0.004569	-0.000642	0.000000	0.000000
57.727240	21.327374	14.746874	-0.188094	0.034601	2.816028	0.000000	0.005629	0.000000	-0.004760	-0.000654	0.000000	0.000000
58.276300	21.169290	14.991576	0.473978	-0.482937	2.796591	0.000000	-0.077436	0.000000	-0.005076	-0.000495	0.000000	0.000000
58.825360	20.298448	15.819990	1.102567	-1.034866	2.731771	0.000000	-0.159136	0.000000	-0.005302	-0.000327	0.000000	0.000000
59.374420	18.776354	17.291108	1.653286	-1.660494	2.622715	0.000000	-0.238019	0.000000	-0.005434	-0.000153	0.000000	0.000000
59.923480	16.710490	19.509697	2.087250	-2.404375	2.471354	0.000000	-0.312683	0.000000	-0.005470	0.000024	0.000000	0.000000
60.369440	15.092130	21.481362	1.554655	-1.998307	2.347332	0.000000	-0.243928	0.000000	-0.005491	-0.000119	0.000000	0.000000
60.810400	13.927229	23.030893	1.097236	-1.502594	2.254409	0.000000	-0.178332	0.000000	-0.005574	-0.000261	0.000000	0.000000
61.251360	13.142141	24.111353	0.689937	-0.938525	2.189996	0.000000	-0.114765	0.000000	-0.005722	-0.000407	0.000000	0.000000
61.692320	12.701009	24.673592	0.314155	-0.331763	2.153361	0.000000	-0.052500	0.000000	-0.005934	-0.000557	0.000000	0.000000
62.134530	12.583730	24.691444	-0.014729	0.226239	2.144096	0.000000	0.003611	0.000000	-0.006215	-0.000698	0.000000	0.000000
62.431853	12.599515	24.560675	-0.038362	0.213581	2.145377	0.000000	0.003611	0.000000	-0.006422	-0.000698	0.000000	0.000000
62.765186	12.633921	24.423018	-0.064857	0.199390	2.146813	0.000000	0.003611	0.000000	-0.006655	-0.000698	0.000000	0.000000
63.098520	12.685991	24.294821	-0.091352	0.185199	2.148250	0.000000	0.003611	0.000000	-0.006887	-0.000698	0.000000	0.000000
63.433103	12.756019	24.175657	-0.117946	0.170955	2.149691	0.000000	0.003611	0.000000	-0.007121	-0.000698	0.000000	0.000000
63.730426	12.833161	24.077801	-0.107971	0.095002	2.150971	0.000000	-0.002022	0.000000	-0.007328	-0.000679	0.000000	0.000000
64.171386	13.090884	23.728956	-0.479052	0.693175	2.164044	0.000000	0.059876	0.000000	-0.007670	-0.000873	0.000000	0.000000
64.612346	13.684165	22.864574	-0.872004	1.259814	2.204619	0.000000	0.122464	0.000000	-0.008099	-0.001076	0.000000	0.000000
65.053306	14.640089	21.523984	-1.304773	1.769141	2.273162	0.000000	0.186459	0.000000	-0.008621	-0.001291	0.000000	0.000000
65.494266	16.002292	19.768179	-1.797120	2.197990	2.370458	0.000000	0.252590	0.000000	-0.009240	-0.001522	0.000000	0.000000
65.940226	17.856312	17.652146	-2.376007	2.527399	2.499211	0.000000	0.321985	0.000000	-0.009974	-0.001771	0.000000	0.000000
66.489286	20.230120	15.285451	-1.923311	1.809126	2.656290	0.000000	0.246341	0.000000	-0.010855	-0.001433	0.000000	0.000000
67.038346	22.028995	13.632473	-1.334855	1.219681	2.770386	0.000000	0.166306	0.000000	-0.011543	-0.001071	0.000000	0.000000
67.587406	23.125993	12.575487	-0.652181	0.717087	2.839466	0.000000	0.083304	0.000000	-0.012027	-0.000689	0.000000	0.000000
68.136466	23.443710	12.039216	0.076521	0.265555	2.862299	0.000000	-0.001186	0.000000	-0.012297	-0.000295	0.000000	0.000000
68.435038	23.441940	11.868080	-0.003578	0.273162	2.864492	0.000000	0.007039	0.000000	-0.012395	-0.000329	0.000000	0.000000
68.768372	23.449065	11.696033	-0.017798	0.242979	2.866948	0.000000	0.007039	0.000000	-0.012504	-0.000329	0.000000	0.000000
69.101705	23.465671	11.544108	-0.032018	0.212797	2.869404	0.000000	0.007039	0.000000	-0.012614	-0.000329	0.000000	0.000000
69.436288	23.491872	11.411847	-0.046291	0.182502	2.871869	0.000000	0.007039	0.000000	-0.012724	-0.000329	0.000000	0.000000
69.733611	23.523283	11.311273	-0.126812	0.188145	2.874067	0.000000	0.015327	0.000000	-0.012822	-0.000364	0.000000	0.000000
70.282671	23.258588	11.331355	0.606032	-0.224941	2.859210	0.000000	-0.069671	0.000000	-0.012907	0.000053	0.000000	0.000000
