#ParticleID	Turn	x[m]	xp	y[m]	yp	z[m]	dE[GeV]# s	beta_x	beta_y	alpha_x	alpha_y	D_x	D_y	D_px	D_py	orbit_x	orbit_px	orbit_y	orbit_py
0.300000	11.845873	24.974234	-0.014584	-0.027171	2.616742	0.000000	0.000018	0.000000	-0.000062	0.000055	0.000000	0.000000
0.601250	11.862323	24.994241	-0.040020	-0.039242	2.616731	0.000000	0.000018	0.000000	-0.000046	0.000055	0.000000	0.000000
0.898573	11.893585	25.021119	-0.035950	-0.112513	2.616720	0.000000	-0.006401	0.000000	-0.000029	0.000055	0.000000	0.000000
1.339533	12.077817	24.842822	-0.383415	0.515313	2.630159	0.000000	0.067520	0.000000	-0.000005	0.000054	0.000000	0.000000
1.780493	12.575023	24.119096	-0.748396	1.119692	2.676334	0.000000	0.142210	0.000000	0.000019	0.000054	0.000000	0.000000
2.221453	13.407918	22.882869	-1.147570	1.673127	2.755768	0.000000	0.218518	0.000000	0.000043	0.000055	0.000000	0.000000
2.662413	14.614556	21.190389	-1.599174	2.150436	2.869367	0.000000	0.297315	0.000000	0.000067	0.000057	0.000000	0.000000
3.108373	16.270913	19.093840	-2.128150	2.531034	3.020285	0.000000	0.379987	0.000000	0.000093	0.000059	0.000000	0.000000
3.657433	18.394808	16.739192	-1.717156	1.782782	3.203634	0.000000	0.287006	0.000000	0.000124	0.000055	0.000000	0.000000
4.206493	19.997701	15.132080	-1.184869	1.161514	3.334459	0.000000	0.188934	0.000000	0.000154	0.000051	0.000000	0.000000
4.755553	20.966370	14.158035	-0.568887	0.622977	3.410439	0.000000	0.087513	0.000000	0.000180	0.000045	0.000000	0.000000
5.304613	21.232392	13.747677	0.087279	0.128815	3.430227	0.000000	-0.015460	0.000000	0.000203	0.000039	0.000000	0.000000
5.603185	21.217547	13.656008	0.017821	0.142359	3.428271	0.000000	-0.006513	0.000000	0.000215	0.000040	0.000000	0.000000
5.936519	21.210905	13.569403	0.002105	0.117455	3.426086	0.000000	-0.006513	0.000000	0.000228	0.000040	0.000000	0.000000
6.269852	21.214740	13.499401	-0.013610	0.092551	3.423902	0.000000	-0.006513	0.000000	0.000241	0.000040	0.000000	0.000000
6.604435	21.229125	13.445833	-0.029384	0.067554	3.421710	0.000000	-0.006513	0.000000	0.000255	0.000040	0.000000	0.000000
6.901758	21.250766	13.412267	-0.098802	0.080313	3.419762	0.000000	0.002402	0.000000	0.000266	0.000040	0.000000	0.000000
7.450818	20.996967	13.584618	0.558328	-0.396067	3.392878	0.000000	-0.100117	0.000000	0.000286	0.000031	0.000000	0.000000
7.999878	20.039039	14.292423	1.176021	-0.900659	3.310114	0.000000	-0.200860	0.000000	0.000301	0.000022	0.000000	0.000000
8.548938	18.444646	15.586099	1.710645	-1.469403	3.172940	0.000000	-0.298040	0.000000	0.000310	0.000012	0.000000	0.000000
9.097998	16.326409	17.557792	2.124436	-2.142811	2.983788	0.000000	-0.389933	0.000000	0.000314	0.000002	0.000000	0.000000
9.543958	14.673620	19.314726	1.594869	-1.780191	2.828188	0.000000	-0.308267	0.000000	0.000316	0.000010	0.000000	0.000000
9.984918	13.471117	20.694898	1.142480	-1.337811	2.709486	0.000000	-0.230597	0.000000	0.000323	0.000018	0.000000	0.000000
10.425878	12.643151	21.656490	0.742288	-0.834560	2.624419	0.000000	-0.155553	0.000000	0.000333	0.000027	0.000000	0.000000
10.866838	12.151893	22.155750	0.376009	-0.293337	2.572017	0.000000	-0.082282	0.000000	0.000346	0.000035	0.000000	0.000000
11.309048	11.974759	22.169443	0.056069	0.206980	2.551664	0.000000	-0.016184	0.000000	0.000364	0.000044	0.000000	0.000000
11.606371	11.948823	22.050521	0.031162	0.192994	2.546840	0.000000	-0.016184	0.000000	0.000377	0.000044	0.000000	0.000000
12.086371	11.938208	21.876085	-0.009049	0.170415	2.539050	0.000000	-0.016184	0.000000	0.000398	0.000044	0.000000	0.000000
12.566371	11.966196	21.723324	-0.049259	0.147836	2.531261	0.000000	-0.016184	0.000000	0.000419	0.000044	0.000000	0.000000
13.046371	12.032785	21.592239	-0.089469	0.125257	2.523472	0.000000	-0.016184	0.000000	0.000440	0.000044	0.000000	0.000000
13.526371	12.137977	21.482830	-0.129680	0.102678	2.515683	0.000000	-0.016184	0.000000	0.000461	0.000044	0.000000	0.000000
14.007621	12.282195	21.394897	-0.169995	0.080040	2.507873	0.000000	-0.016184	0.000000	0.000482	0.000044	0.000000	0.000000
14.304943	12.390687	21.351460	-0.164658	0.013953	2.503048	0.000000	-0.022293	0.000000	0.000495	0.000043	0.000000	0.000000
14.745903	12.694721	21.105450	-0.527418	0.541816	2.508822	0.000000	0.048599	0.000000	0.000517	0.000056	0.000000	0.000000
15.186863	13.328062	20.403037	-0.914275	1.045027	2.545943	0.000000	0.120045	0.000000	0.000544	0.000069	0.000000	0.000000
15.627823	14.319647	19.276180	-1.342904	1.500690	2.614834	0.000000	0.192857	0.000000	0.000578	0.000084	0.000000	0.000000
16.068783	15.714781	17.776151	-1.832888	1.888071	2.716280	0.000000	0.267865	0.000000	0.000618	0.000099	0.000000	0.000000
16.514743	17.600854	15.949702	-2.411387	2.190306	2.853129	0.000000	0.346387	0.000000	0.000666	0.000116	0.000000	0.000000
17.063803	20.022848	13.910242	-1.973564	1.546041	3.019544	0.000000	0.259095	0.000000	0.000723	0.000093	0.000000	0.000000
17.612863	21.884189	12.514006	-1.396333	1.011899	3.136708	0.000000	0.167208	0.000000	0.000768	0.000069	0.000000	0.000000
18.161923	23.053393	11.661544	-0.720466	0.549833	3.202543	0.000000	0.072356	0.000000	0.000799	0.000044	0.000000	0.000000
18.710983	23.447868	11.292137	0.006293	0.126931	3.215883	0.000000	-0.023778	0.000000	0.000816	0.000018	0.000000	0.000000
19.009556	23.484256	11.206932	-0.067324	0.129144	3.211270	0.000000	-0.015433	0.000000	0.000822	0.000020	0.000000	0.000000
19.342889	23.533891	11.130915	-0.081582	0.098905	3.206119	0.000000	-0.015433	0.000000	0.000828	0.000020	0.000000	0.000000
19.676223	23.593032	11.075059	-0.095840	0.068665	3.200968	0.000000	-0.015433	0.000000	0.000835	0.000020	0.000000	0.000000
20.010806	23.662246	11.039129	-0.227388	0.093007	3.195817	0.000000	0.000401	0.000000	0.000841	0.000024	0.000000	0.000000
20.308129	23.801391	10.991900	-0.302348	0.094360	3.195930	0.000000	0.008692	0.000000	0.000848	0.000026	0.000000	0.000000
20.857189	23.722918	11.110626	0.444432	-0.311868	3.174485	0.000000	-0.086665	0.000000	0.000855	-0.000002	0.000000	0.000000
21.406249	22.836826	11.684951	1.159819	-0.740309	3.101044	0.000000	-0.180484	0.000000	0.000847	-0.000029	0.000000	0.000000
21.955309	21.205708	12.755783	1.793278	-1.221482	2.976908	0.000000	-0.271103	0.000000	0.000823	-0.000056	0.000000	0.000000
22.504369	18.944786	14.399398	2.300064	-1.789660	2.804279	0.000000	-0.356913	0.000000	0.000785	-0.000082	0.000000	0.000000
22.950329	17.163344	15.874964	1.708592	-1.505095	2.662429	0.000000	-0.279722	0.000000	0.000753	-0.000062	0.000000	0.000000
23.391289	15.885638	17.051531	1.199901	-1.152917	2.555422	0.000000	-0.206174	0.000000	0.000730	-0.000043	0.000000	0.000000
23.832249	15.030787	17.893094	0.746032	-0.748281	2.480291	0.000000	-0.134974	0.000000	0.000715	-0.000025	0.000000	0.000000
24.273209	14.559734	18.361363	0.326248	-0.309599	2.436180	0.000000	-0.065310	0.000000	0.000708	-0.000006	0.000000	0.000000
24.715418	14.451066	18.434787	-0.043517	0.098195	2.422585	0.000000	-0.002292	0.000000	0.000709	0.000010	0.000000	0.000000
25.012741	14.483072	18.381237	-0.064130	0.081911	2.421901	0.000000	-0.002292	0.000000	0.000712	0.000010	0.000000	0.000000
25.346075	14.533529	18.332716	-0.087240	0.063655	2.421133	0.000000	-0.002292	0.000000	0.000716	0.000010	0.000000	0.000000
25.679408	14.599392	18.296365	-0.110350	0.045399	2.420366	0.000000	-0.002292	0.000000	0.000719	0.000010	0.000000	0.000000
26.013991	14.680699	18.272487	-0.014448	-0.121161	2.419571	0.000000	-0.021921	0.000000	0.000723	0.000004	0.000000	0.000000
26.311314	14.695313	18.349444	0.001085	-0.182361	2.413052	0.000000	-0.027798	0.000000	0.000724	0.000003	0.000000	0.000000
26.752274	14.875484	18.311234	-0.411216	0.268684	2.415897	0.000000	0.040737	0.000000	0.000729	0.000021	0.000000	0.000000
27.193234	15.426160	17.879126	-0.842306	0.707503	2.449029	0.000000	0.109736	0.000000	0.000743	0.000040	0.000000	0.000000
27.634194	16.372501	17.072781	-1.311881	1.114130	2.512826	0.000000	0.179985	0.000000	0.000765	0.000060	0.000000	0.000000
28.075154	17.757744	15.928888	-1.841394	1.470065	2.608013	0.000000	0.252282	0.000000	0.000796	0.000080	0.000000	0.000000
28.521114	19.669263	14.482263	-2.460005	1.760041	2.737278	0.000000	0.327899	0.000000	0.000836	0.000101	0.000000	0.000000
29.070174	22.098897	12.870326	-1.938772	1.193065	2.894608	0.000000	0.244507	0.000000	0.000884	0.000073	0.000000	0.000000
29.619234	23.877088	11.830963	-1.280587	0.711070	3.004906	0.000000	0.156779	0.000000	0.000916	0.000044	0.000000	0.000000
30.168294	24.878227	11.290142	-0.531943	0.279725	3.066216	0.000000	0.066271	0.000000	0.000932	0.000014	0.000000	0.000000
30.717354	25.031593	11.209341	0.254276	-0.131696	3.077450	0.000000	-0.025412	0.000000	0.000932	-0.000016	0.000000	0.000000
31.015927	24.922191	11.278666	0.177029	-0.129551	3.072249	0.000000	-0.017434	0.000000	0.000928	-0.000014	0.000000	0.000000
31.349260	24.808770	11.375050	0.163235	-0.159602	3.066442	0.000000	-0.017434	0.000000	0.000923	-0.000014	0.000000	0.000000
31.682593	24.704544	11.491468	0.149441	-0.189652	3.060635	0.000000	-0.017434	0.000000	0.000919	-0.000014	0.000000	0.000000
32.017177	24.609176	11.628469	0.135595	-0.219815	3.054807	0.000000	-0.017434	0.000000	0.000914	-0.000014	0.000000	0.000000
32.314499	24.532204	11.767150	0.059683	-0.216110	3.049627	0.000000	-0.009527	0.000000	0.000910	-0.000011	0.000000	0.000000
32.863559	24.046463	12.243794	0.819728	-0.657112	3.019527	0.000000	-0.100003	0.000000	0.000896	-0.000041	0.000000	0.000000
33.412619	22.753094	13.227423	1.521868	-1.144919	2.940179	0.000000	-0.188706	0.000000	0.000866	-0.000069	0.000000	0.000000
33.961679	20.743460	14.788100	2.116505	-1.714278	2.812990	0.000000	-0.274062	0.000000	0.000820	-0.000096	0.000000	0.000000
34.510739	18.159521	17.036989	2.561636	-2.405743	2.640216	0.000000	-0.354559	0.000000	0.000760	-0.000122	0.000000	0.000000
34.956699	16.150714	19.048479	1.958870	-2.085859	2.498487	0.000000	-0.281623	0.000000	0.000710	-0.000103	0.000000	0.000000
35.397659	14.652917	20.711817	1.450613	-1.671833	2.389724	0.000000	-0.212325	0.000000	0.000669	-0.000085	0.000000	0.000000
35.838619	13.572563	21.974946	1.008633	-1.181738	2.310950	0.000000	-0.145443	0.000000	0.000635	-0.000068	0.000000	0.000000
36.279579	12.860290	22.780394	0.612736	-0.637874	2.261269	0.000000	-0.080217	0.000000	0.000608	-0.000052	0.000000	0.000000
36.721789	12.482866	23.091818	0.275170	-0.121342	2.240088	0.000000	-0.021367	0.000000	0.000589	-0.000038	0.000000	0.000000
37.019112	12.326856	23.167858	0.249548	-0.134407	2.233747	0.000000	-0.021367	0.000000	0.000577	-0.000038	0.000000	0.000000
37.352445	12.170065	23.262345	0.220823	-0.149055	2.226637	0.000000	-0.021367	0.000000	0.000564	-0.000038	0.000000	0.000000
37.685779	12.032425	23.366598	0.192098	-0.163702	2.219527	0.000000	-0.021367	0.000000	0.000552	-0.000038	0.000000	0.000000
38.020362	11.913527	23.481061	0.163265	-0.178405	2.212391	0.000000	-0.021367	0.000000	0.000539	-0.000038	0.000000	0.000000
38.317684	11.824060	23.591034	0.166494	-0.249047	2.206049	0.000000	-0.026750	0.000000	0.000527	-0.000040	0.000000	0.000000
38.758644	11.828123	23.549379	-0.175756	0.343151	2.208197	0.000000	0.036439	0.000000	0.000513	-0.000026	0.000000	0.000000
39.199604	12.136415	22.990366	-0.526035	0.919735	2.238269	0.000000	0.100044	0.000000	0.000504	-0.000013	0.000000	0.000000
39.640564	12.763019	21.939429	-0.900348	1.454471	2.296607	0.000000	0.164788	0.000000	0.000501	-0.000000	0.000000	0.000000
40.081524	13.736564	20.444387	-1.315796	1.923029	2.383875	0.000000	0.231409	0.000000	0.000504	0.000013	0.000000	0.000000
40.527484	15.119084	18.550683	-1.795191	2.305382	2.502541	0.000000	0.301073	0.000000	0.000513	0.000026	0.000000	0.000000
41.076544	16.883868	16.422682	-1.399943	1.593184	2.647303	0.000000	0.225491	0.000000	0.000522	0.000009	0.000000	0.000000
41.625604	18.157413	15.010234	-0.905808	0.994466	2.749415	0.000000	0.145910	0.000000	0.000523	-0.000008	0.000000	0.000000
42.174664	18.849758	14.212732	-0.347690	0.466583	2.807064	0.000000	0.063741	0.000000	0.000514	-0.000025	0.000000	0.000000
42.723724	18.911998	13.973371	0.234987	-0.028066	2.819229	0.000000	-0.019559	0.000000	0.000496	-0.000041	0.000000	0.000000
43.022297	18.805937	13.974795	0.169446	-0.013069	2.815591	0.000000	-0.012224	0.000000	0.000484	-0.000040	0.000000	0.000000
43.502297	18.655872	14.003831	0.143190	-0.047422	2.809742	0.000000	-0.012224	0.000000	0.000465	-0.000040	0.000000	0.000000
43.982297	18.531013	14.065845	0.116933	-0.081776	2.803894	0.000000	-0.012224	0.000000	0.000446	-0.000040	0.000000	0.000000
44.462297	18.431361	14.160840	0.090676	-0.116129	2.798046	0.000000	-0.012224	0.000000	0.000427	-0.000040	0.000000	0.000000
44.942297	18.356915	14.288813	0.064420	-0.150482	2.792197	0.000000	-0.012224	0.000000	0.000408	-0.000040	0.000000	0.000000
45.423547	18.307807	14.450049	-0.052613	-0.113331	2.786351	0.000000	0.001582	0.000000	0.000389	-0.000038	0.000000	0.000000
45.720870	18.343934	14.523637	-0.116675	-0.096351	2.786832	0.000000	0.008840	0.000000	0.000378	-0.000037	0.000000	0.000000
46.269930	18.163156	14.910392	0.443952	-0.612199	2.769127	0.000000	-0.073320	0.000000	0.000354	-0.000049	0.000000	0.000000
46.818990	17.380392	15.884091	0.973219	-1.171653	2.706607	0.000000	-0.154181	0.000000	0.000325	-0.000060	0.000000	0.000000
47.368050	16.050934	17.514087	1.433741	-1.814561	2.600382	0.000000	-0.232308	0.000000	0.000289	-0.000069	0.000000	0.000000
47.917110	14.268692	19.916481	1.792988	-2.586717	2.452334	0.000000	-0.306315	0.000000	0.000249	-0.000078	0.000000	0.000000
48.363070	12.881500	22.052480	1.328569	-2.182798	2.331060	0.000000	-0.237990	0.000000	0.000215	-0.000072	0.000000	0.000000
48.804030	11.889918	23.762703	0.928619	-1.680841	2.240611	0.000000	-0.172772	0.000000	0.000185	-0.000067	0.000000	0.000000
49.244990	11.231092	24.994695	0.571095	-1.102406	2.178457	0.000000	-0.109521	0.000000	0.000156	-0.000063	0.000000	0.000000
49.685950	10.874922	25.692401	0.239664	-0.473813	2.143893	0.000000	-0.047517	0.000000	0.000129	-0.000059	0.000000	0.000000
50.128160	10.805270	25.823794	-0.054462	0.113044	2.136534	0.000000	0.008713	0.000000	0.000104	-0.000056	0.000000	0.000000
50.425482	10.845861	25.760040	-0.082060	0.101383	2.139141	0.000000	0.008713	0.000000	0.000087	-0.000056	0.000000	0.000000
50.758816	10.910881	25.696809	-0.113001	0.088310	2.142064	0.000000	0.008713	0.000000	0.000068	-0.000056	0.000000	0.000000
51.092149	10.996528	25.642293	-0.143941	0.075237	2.144987	0.000000	0.008713	0.000000	0.000050	-0.000056	0.000000	0.000000
51.426732	11.103014	25.596857	-0.084923	-0.145539	2.147899	0.000000	-0.008712	0.000000	0.000031	-0.000056	0.000000	0.000000
51.724055	11.161533	25.686928	-0.084527	-0.220405	2.145325	0.000000	-0.013973	0.000000	0.000014	-0.000056	0.000000	0.000000
52.165015	11.381734	25.595554	-0.416753	0.426832	2.152783	0.000000	0.047719	0.000000	-0.000011	-0.000056	0.000000	0.000000
52.605975	11.902189	24.939785	-0.768020	1.054649	2.187538	0.000000	0.109954	0.000000	-0.000036	-0.000057	0.000000	0.000000
53.046935	12.746674	23.749458	-1.154374	1.634479	2.249986	0.000000	0.173443	0.000000	-0.000061	-0.000058	0.000000	0.000000
53.487895	13.953772	22.078734	-1.593468	2.139942	2.340840	0.000000	0.238907	0.000000	-0.000087	-0.000060	0.000000	0.000000
53.933855	15.599310	19.978647	-2.109607	2.549371	2.462639	0.000000	0.307492	0.000000	-0.000115	-0.000063	0.000000	0.000000
54.482915	17.717781	17.615591	-1.725949	1.779863	2.611310	0.000000	0.233142	0.000000	-0.000148	-0.000059	0.000000	0.000000
55.031975	19.345106	16.023390	-1.220381	1.137129	2.717959	0.000000	0.154656	0.000000	-0.000179	-0.000053	0.000000	0.000000
55.581035	20.366341	15.088634	-0.628612	0.575391	2.780692	0.000000	0.073425	0.000000	-0.000207	-0.000047	0.000000	0.000000
56.130095	20.709353	14.744742	0.007557	0.054636	2.798398	0.000000	-0.009109	0.000000	-0.000231	-0.000040	0.000000	0.000000
56.428668	20.741528	14.695160	-0.061106	0.072819	2.797878	0.000000	-0.001783	0.000000	-0.000243	-0.000041	0.000000	0.000000
56.762001	20.787643	14.654216	-0.077237	0.050015	2.797297	0.000000	-0.001783	0.000000	-0.000256	-0.000041	0.000000	0.000000
57.095334	20.844511	14.628473	-0.093368	0.027212	2.796717	0.000000	-0.001783	0.000000	-0.000270	-0.000041	0.000000	0.000000
57.429918	20.912407	14.617922	-0.109559	0.004323	2.796134	0.000000	-0.001783	0.000000	-0.000283	-0.000041	0.000000	0.000000
57.727240	20.981834	14.621399	-0.178905	0.022272	2.795616	0.000000	0.005540	0.000000	-0.000295	-0.000041	0.000000	0.000000
58.276300	20.820191	14.877763	0.471540	-0.491944	2.776023	0.000000	-0.076873	0.000000	-0.000315	-0.000031	0.000000	0.000000
58.825360	19.958434	15.714607	1.088676	-1.041199	2.711484	0.000000	-0.157923	0.000000	-0.000330	-0.000021	0.000000	0.000000
59.374420	18.457430	17.191536	1.628915	-1.664615	2.603142	0.000000	-0.236172	0.000000	-0.000338	-0.000010	0.000000	0.000000
59.923480	16.423203	19.413748	2.054097	-2.406597	2.452920	0.000000	-0.310232	0.000000	-0.000341	0.000001	0.000000	0.000000
60.369440	14.830787	21.388934	1.529320	-2.003790	2.329869	0.000000	-0.241917	0.000000	-0.000342	-0.000008	0.000000	0.000000
60.810400	13.685137	22.944807	1.078626	-1.511176	2.237654	0.000000	-0.176753	0.000000	-0.000348	-0.000017	0.000000	0.000000
61.251360	12.913809	24.034141	0.677212	-0.949806	2.173707	0.000000	-0.113602	0.000000	-0.000357	-0.000026	0.000000	0.000000
61.692320	12.481564	24.607375	0.306736	-0.345220	2.137299	0.000000	-0.051745	0.000000	-0.000371	-0.000035	0.000000	0.000000
62.134530	12.368703	24.637889	-0.019383	0.214392	2.128021	0.000000	0.004285	0.000000	-0.000389	-0.000044	0.000000	0.000000
62.431853	12.387379	24.514155	-0.043430	0.201770	2.129309	0.000000	0.004285	0.000000	-0.000402	-0.000044	0.000000	0.000000
62.765186	12.425319	24.384359	-0.070390	0.187619	2.130752	0.000000	0.004285	0.000000	-0.000417	-0.000044	0.000000	0.000000
63.098520	12.481232	24.263996	-0.097350	0.173468	2.132195	0.000000	0.004285	0.000000	-0.000431	-0.000044	0.000000	0.000000
63.433103	12.555430	24.152670	-0.124411	0.159263	2.133644	0.000000	0.004285	0.000000	-0.000446	-0.000044	0.000000	0.000000
63.730426	12.636560	24.061718	-0.117335	0.087364	2.134931	0.000000	-0.000973	0.000000	-0.000459	-0.000043	0.000000	0.000000
64.171386	12.900805	23.719674	-0.484211	0.685370	2.148069	0.000000	0.060523	0.000000	-0.000481	-0.000055	0.000000	0.000000
64.612346	13.497096	22.862030	-0.873207	1.252192	2.188456	0.000000	0.122709	0.000000	-0.000508	-0.000068	0.000000	0.000000
65.053306	14.452672	21.527806	-1.302097	1.762041	2.256551	0.000000	0.186293	0.000000	-0.000541	-0.000082	0.000000	0.000000
65.494266	15.811191	19.777710	-1.790473	2.191720	2.353131	0.000000	0.252000	0.000000	-0.000580	-0.000096	0.000000	0.000000
65.940226	17.657895	17.666597	-2.365332	2.522422	2.480869	0.000000	0.320978	0.000000	-0.000627	-0.000112	0.000000	0.000000
66.489286	20.024701	15.304880	-1.919897	1.804391	2.636781	0.000000	0.245921	0.000000	-0.000682	-0.000090	0.000000	0.000000
67.038346	21.824563	13.656863	-1.338857	1.214881	2.750211	0.000000	0.166501	0.000000	-0.000726	-0.000068	0.000000	0.000000
67.587406	22.930354	12.605163	-0.663250	0.711902	2.819146	0.000000	0.084126	0.000000	-0.000756	-0.000044	0.000000	0.000000
68.136466	23.263972	12.074869	0.059203	0.259630	2.842362	0.000000	0.000259	0.000000	-0.000773	-0.000019	0.000000	0.000000
68.435038	23.268983	11.908879	-0.014809	0.264561	2.844678	0.000000	0.007733	0.000000	-0.000780	-0.000021	0.000000	0.000000
68.768372	23.283632	11.742488	-0.029137	0.234611	2.847262	0.000000	0.007733	0.000000	-0.000786	-0.000021	0.000000	0.000000
69.101705	23.307833	11.596064	-0.043466	0.204662	2.849847	0.000000	0.007733	0.000000	-0.000793	-0.000021	0.000000	0.000000
69.436288	23.341731	11.469169	-0.057848	0.174600	2.852442	0.000000	0.007733	0.000000	-0.000800	-0.000021	0.000000	0.000000
69.733611	23.379930	11.373287	-0.132128	0.177799	2.854747	0.000000	0.015243	0.000000	-0.000807	-0.000023	0.000000	0.000000
70.282671	23.123499	11.405757	0.596399	-0.237288	2.839928	0.000000	-0.069162	0.000000	-0.000812	0.000003	0.000000	0.000000
