#ParticleID	Turn	x[m]	xp	y[m]	yp	z[m]	dE[GeV]# s	beta_x	beta_y	alpha_x	alpha_y	D_x	D_y	D_px	D_py	orbit_x	orbit_px	orbit_y	orbit_py
0.300000	11.934898	25.263380	-0.019718	-0.022428	2.603218	0.000000	0.000649	0.000000	-0.000613	0.000536	0.000000	0.000000
0.601250	11.954385	25.280487	-0.044969	-0.034359	2.603251	0.000000	0.000649	0.000000	-0.000451	0.000536	0.000000	0.000000
0.898573	11.988535	25.304419	-0.040410	-0.108164	2.603285	0.000000	-0.005753	0.000000	-0.000292	0.000537	0.000000	0.000000
1.339533	12.177762	25.119000	-0.390160	0.527056	2.616730	0.000000	0.067821	0.000000	-0.000056	0.000533	0.000000	0.000000
1.780493	12.682111	24.381839	-0.757740	1.138298	2.662757	0.000000	0.142162	0.000000	0.000179	0.000534	0.000000	0.000000
2.221453	13.524629	23.126473	-1.159944	1.697750	2.741889	0.000000	0.218117	0.000000	0.000416	0.000542	0.000000	0.000000
2.662413	14.743815	21.410015	-1.615147	2.179956	2.855023	0.000000	0.296550	0.000000	0.000658	0.000556	0.000000	0.000000
3.108373	16.416431	19.285408	-2.148509	2.564134	3.005300	0.000000	0.378845	0.000000	0.000910	0.000576	0.000000	0.000000
3.657433	18.560695	16.898849	-1.733369	1.808084	3.187896	0.000000	0.286357	0.000000	0.001217	0.000542	0.000000	0.000000
4.206493	20.178741	15.267358	-1.195776	1.180822	3.318263	0.000000	0.188799	0.000000	0.001503	0.000498	0.000000	0.000000
4.755553	21.156255	14.274735	-0.573704	0.637668	3.394092	0.000000	0.087900	0.000000	0.001762	0.000445	0.000000	0.000000
5.304613	21.424172	13.850279	0.088904	0.139934	3.414042	0.000000	-0.014551	0.000000	0.001990	0.000384	0.000000	0.000000
5.603185	21.408113	13.752152	0.019912	0.153219	3.412199	0.000000	-0.005781	0.000000	0.002106	0.000389	0.000000	0.000000
5.936519	21.400030	13.658275	0.004335	0.128411	3.410143	0.000000	-0.005781	0.000000	0.002236	0.000389	0.000000	0.000000
6.269852	21.402332	13.580937	-0.011241	0.103603	3.408086	0.000000	-0.005781	0.000000	0.002365	0.000389	0.000000	0.000000
6.604435	21.415086	13.519941	-0.026876	0.078703	3.406022	0.000000	-0.005781	0.000000	0.002496	0.000389	0.000000	0.000000
6.901758	21.435203	13.479717	-0.095542	0.091096	3.404188	0.000000	0.002918	0.000000	0.002611	0.000396	0.000000	0.000000
7.450818	21.174548	13.641231	0.567656	-0.386986	3.377556	0.000000	-0.099108	0.000000	0.002805	0.000308	0.000000	0.000000
7.999878	20.203369	14.339725	1.190759	-0.892635	3.295354	0.000000	-0.199371	0.000000	0.002948	0.000215	0.000000	0.000000
8.548938	18.590268	15.624958	1.729747	-1.461871	3.159039	0.000000	-0.296095	0.000000	0.003040	0.000118	0.000000	0.000000
9.097998	16.449204	17.588484	2.146540	-2.135242	2.971034	0.000000	-0.387563	0.000000	0.003077	0.000019	0.000000	0.000000
9.543958	14.778604	19.337913	1.612740	-1.770858	2.816395	0.000000	-0.306199	0.000000	0.003104	0.000099	0.000000	0.000000
9.984918	13.561830	20.709317	1.157036	-1.327211	2.698482	0.000000	-0.228817	0.000000	0.003165	0.000180	0.000000	0.000000
10.425878	12.722235	21.661216	0.754200	-0.823171	2.614052	0.000000	-0.154043	0.000000	0.003262	0.000263	0.000000	0.000000
10.866838	12.221454	22.150292	0.385824	-0.281673	2.562141	0.000000	-0.081027	0.000000	0.003397	0.000348	0.000000	0.000000
11.309048	12.036451	22.153731	0.063483	0.219969	2.542138	0.000000	-0.014959	0.000000	0.003571	0.000430	0.000000	0.000000
11.606371	12.006075	22.027111	0.038682	0.205898	2.537563	0.000000	-0.014959	0.000000	0.003698	0.000430	0.000000	0.000000
12.086371	11.988159	21.840352	-0.001358	0.183183	2.530177	0.000000	-0.014959	0.000000	0.003905	0.000430	0.000000	0.000000
12.566371	12.008682	21.675400	-0.041397	0.160468	2.522790	0.000000	-0.014959	0.000000	0.004111	0.000430	0.000000	0.000000
13.046371	12.067642	21.532254	-0.081437	0.137753	2.515404	0.000000	-0.014959	0.000000	0.004317	0.000430	0.000000	0.000000
13.526371	12.165041	21.410914	-0.121476	0.115038	2.508018	0.000000	-0.014959	0.000000	0.004523	0.000430	0.000000	0.000000
14.007621	12.301281	21.311151	-0.161620	0.092263	2.500612	0.000000	-0.014959	0.000000	0.004730	0.000430	0.000000	0.000000
14.304943	12.404753	21.260485	-0.157417	0.028607	2.496036	0.000000	-0.020795	0.000000	0.004858	0.000418	0.000000	0.000000
14.745903	12.702565	21.002698	-0.520297	0.553731	2.502250	0.000000	0.049931	0.000000	0.005070	0.000546	0.000000	0.000000
15.186863	13.329695	20.291142	-0.906958	1.053660	2.539692	0.000000	0.121220	0.000000	0.005340	0.000680	0.000000	0.000000
15.627823	14.314811	19.158191	-1.335070	1.505642	2.608787	0.000000	0.193882	0.000000	0.005671	0.000822	0.000000	0.000000
16.068783	15.702943	17.655396	-1.824200	1.889110	2.710318	0.000000	0.268745	0.000000	0.006067	0.000973	0.000000	0.000000
16.514743	17.581163	15.829606	-2.401586	2.187470	2.847139	0.000000	0.347141	0.000000	0.006537	0.001137	0.000000	0.000000
17.063803	19.992628	13.791608	-1.963413	1.545874	3.013544	0.000000	0.260025	0.000000	0.007101	0.000916	0.000000	0.000000
17.612863	21.843342	12.393964	-1.386492	1.014406	3.130901	0.000000	0.168309	0.000000	0.007540	0.000679	0.000000	0.000000
18.161923	23.002501	11.537117	-0.711590	0.555205	3.197132	0.000000	0.073619	0.000000	0.007844	0.000429	0.000000	0.000000
18.710983	23.388175	11.160030	0.013602	0.135557	3.211065	0.000000	-0.022370	0.000000	0.008010	0.000173	0.000000	0.000000
19.009556	23.417817	11.071101	-0.056109	0.135228	3.206659	0.000000	-0.014555	0.000000	0.008067	0.000193	0.000000	0.000000
19.342889	23.459983	10.991169	-0.070388	0.104569	3.201743	0.000000	-0.014555	0.000000	0.008132	0.000193	0.000000	0.000000
19.676223	23.511668	10.931676	-0.084667	0.073910	3.196827	0.000000	-0.014555	0.000000	0.008196	0.000193	0.000000	0.000000
20.010806	23.573412	10.892379	-0.215795	0.097104	3.191912	0.000000	0.001259	0.000000	0.008260	0.000234	0.000000	0.000000
20.308129	23.705707	10.842807	-0.286514	0.095899	3.192220	0.000000	0.009005	0.000000	0.008330	0.000255	0.000000	0.000000
20.857189	23.611618	10.957595	0.456922	-0.306169	3.170916	0.000000	-0.086256	0.000000	0.008395	-0.000016	0.000000	0.000000
21.406249	22.713922	11.523270	1.168071	-0.730051	3.097788	0.000000	-0.179986	0.000000	0.008312	-0.000287	0.000000	0.000000
21.955309	21.076062	12.580131	1.796678	-1.205943	2.974133	0.000000	-0.270528	0.000000	0.008081	-0.000553	0.000000	0.000000
22.504369	18.813798	14.203468	2.298321	-1.767750	2.802142	0.000000	-0.356279	0.000000	0.007707	-0.000808	0.000000	0.000000
22.950329	17.032551	15.661687	1.709148	-1.487933	2.660829	0.000000	-0.279101	0.000000	0.007390	-0.000613	0.000000	0.000000
23.391289	15.753043	16.825660	1.202960	-1.141382	2.554278	0.000000	-0.205576	0.000000	0.007162	-0.000425	0.000000	0.000000
23.832249	14.894200	17.659808	0.751753	-0.742889	2.479528	0.000000	-0.134389	0.000000	0.007015	-0.000242	0.000000	0.000000
24.273209	14.416763	18.126171	0.334904	-0.310589	2.435728	0.000000	-0.064729	0.000000	0.006948	-0.000062	0.000000	0.000000
24.715418	14.299015	18.203267	-0.034010	0.094096	2.422381	0.000000	-0.001349	0.000000	0.006960	0.000101	0.000000	0.000000
25.012741	14.325428	18.152213	-0.054828	0.077618	2.421950	0.000000	-0.001349	0.000000	0.006990	0.000101	0.000000	0.000000
25.346075	14.369760	18.106626	-0.078166	0.059144	2.421467	0.000000	-0.001349	0.000000	0.007023	0.000101	0.000000	0.000000
25.679408	14.429650	18.073354	-0.101505	0.040670	2.420983	0.000000	-0.001349	0.000000	0.007057	0.000101	0.000000	0.000000
26.013991	14.505118	18.052710	-0.007256	-0.124326	2.420474	0.000000	-0.020986	0.000000	0.007090	0.000043	0.000000	0.000000
26.311314	14.515506	18.131639	0.005407	-0.182466	2.414219	0.000000	-0.026501	0.000000	0.007103	0.000026	0.000000	0.000000
26.752274	14.690016	18.096108	-0.402570	0.262727	2.417602	0.000000	0.042082	0.000000	0.007155	0.000210	0.000000	0.000000
27.193234	15.231125	17.671704	-0.828946	0.695965	2.451227	0.000000	0.111143	0.000000	0.007289	0.000396	0.000000	0.000000
27.634194	16.163569	16.877739	-1.293210	1.097531	2.515479	0.000000	0.181466	0.000000	0.007505	0.000587	0.000000	0.000000
28.075154	17.529974	15.750341	-1.816583	1.449150	2.611086	0.000000	0.253850	0.000000	0.007807	0.000784	0.000000	0.000000
28.521114	19.416684	14.323738	-2.428072	1.735883	2.740751	0.000000	0.329588	0.000000	0.008203	0.000992	0.000000	0.000000
29.070174	21.815552	12.734842	-1.914067	1.174699	2.898582	0.000000	0.246055	0.000000	0.008673	0.000719	0.000000	0.000000
29.619234	23.571764	11.712959	-1.264796	0.697204	3.009427	0.000000	0.158167	0.000000	0.008990	0.000432	0.000000	0.000000
30.168294	24.561191	11.185293	-0.526141	0.269380	3.071323	0.000000	0.067480	0.000000	0.009147	0.000138	0.000000	0.000000
30.717354	24.713897	11.114255	0.249695	-0.139252	3.083174	0.000000	-0.024401	0.000000	0.009141	-0.000158	0.000000	0.000000
31.015927	24.604003	11.189562	0.177671	-0.139669	3.078141	0.000000	-0.016978	0.000000	0.009101	-0.000135	0.000000	0.000000
31.349260	24.490214	11.292799	0.163696	-0.170040	3.072527	0.000000	-0.016978	0.000000	0.009056	-0.000135	0.000000	0.000000
31.682593	24.385742	11.416282	0.149720	-0.200410	3.066913	0.000000	-0.016978	0.000000	0.009011	-0.000135	0.000000	0.000000
32.017177	24.290248	11.560590	0.135692	-0.230895	3.061277	0.000000	-0.016978	0.000000	0.008966	-0.000135	0.000000	0.000000
32.314499	24.213322	11.705917	0.064805	-0.229760	3.056273	0.000000	-0.009604	0.000000	0.008926	-0.000112	0.000000	0.000000
32.863559	23.727589	12.197020	0.814334	-0.669850	3.026183	0.000000	-0.100317	0.000000	0.008785	-0.000399	0.000000	0.000000
33.412619	22.445469	13.194667	1.506312	-1.157661	2.946843	0.000000	-0.189258	0.000000	0.008489	-0.000679	0.000000	0.000000
33.961679	20.457587	14.769927	2.091838	-1.727948	2.819658	0.000000	-0.274851	0.000000	0.008041	-0.000947	0.000000	0.000000
34.510739	17.904449	17.035013	2.529536	-2.421336	2.646877	0.000000	-0.355584	0.000000	0.007451	-0.001198	0.000000	0.000000
34.956699	15.920580	19.061314	1.933918	-2.102909	2.505148	0.000000	-0.282444	0.000000	0.006959	-0.001011	0.000000	0.000000
35.397659	14.441728	20.740247	1.431791	-1.689682	2.396406	0.000000	-0.212963	0.000000	0.006552	-0.000837	0.000000	0.000000
35.838619	13.375381	22.019274	0.995103	-1.199564	2.317673	0.000000	-0.145900	0.000000	0.006219	-0.000672	0.000000	0.000000
36.279579	12.672792	22.840196	0.603898	-0.654859	2.268055	0.000000	-0.080491	0.000000	0.005958	-0.000515	0.000000	0.000000
36.721789	12.301185	23.165975	0.268683	-0.133958	2.246963	0.000000	-0.021199	0.000000	0.005763	-0.000378	0.000000	0.000000
37.019112	12.149119	23.249517	0.242768	-0.147023	2.240772	0.000000	-0.021199	0.000000	0.005651	-0.000378	0.000000	0.000000
37.352445	11.996959	23.352414	0.213714	-0.161670	2.233832	0.000000	-0.021199	0.000000	0.005525	-0.000378	0.000000	0.000000
37.685779	11.864167	23.465076	0.184660	-0.176317	2.226892	0.000000	-0.021199	0.000000	0.005399	-0.000378	0.000000	0.000000
38.020362	11.750356	23.587981	0.155497	-0.191019	2.219926	0.000000	-0.021199	0.000000	0.005272	-0.000378	0.000000	0.000000
38.317684	11.665587	23.705473	0.156776	-0.259473	2.213735	0.000000	-0.026359	0.000000	0.005160	-0.000390	0.000000	0.000000
38.758644	11.676630	23.671623	-0.182022	0.335938	2.216226	0.000000	0.037040	0.000000	0.005017	-0.000259	0.000000	0.000000
39.199604	11.989030	23.117393	-0.529136	0.916062	2.246688	0.000000	0.100865	0.000000	0.004931	-0.000131	0.000000	0.000000
39.640564	12.617062	22.068003	-0.900428	1.454499	2.305468	0.000000	0.165839	0.000000	0.004901	-0.000004	0.000000	0.000000
40.081524	13.589425	20.571208	-1.312868	1.926748	2.393236	0.000000	0.232703	0.000000	0.004927	0.000122	0.000000	0.000000
40.527484	14.968093	18.672421	-1.789201	2.312744	2.512474	0.000000	0.302639	0.000000	0.005011	0.000251	0.000000	0.000000
41.076544	16.729577	16.538173	-1.399678	1.597016	2.657932	0.000000	0.226713	0.000000	0.005104	0.000087	0.000000	0.000000
41.625604	18.006076	15.123220	-0.911267	0.995055	2.760619	0.000000	0.146767	0.000000	0.005106	-0.000078	0.000000	0.000000
42.174664	18.707397	14.326766	-0.358475	0.463981	2.818715	0.000000	0.064216	0.000000	0.005018	-0.000242	0.000000	0.000000
42.723724	18.783991	14.092071	0.219638	-0.034039	2.831186	0.000000	-0.019478	0.000000	0.004841	-0.000402	0.000000	0.000000
43.022297	18.685812	14.097600	0.156208	-0.019838	2.827603	0.000000	-0.012384	0.000000	0.004725	-0.000389	0.000000	0.000000
43.502297	18.548483	14.132994	0.129893	-0.053899	2.821846	0.000000	-0.012384	0.000000	0.004538	-0.000389	0.000000	0.000000
43.982297	18.436417	14.201087	0.103579	-0.087961	2.816088	0.000000	-0.012384	0.000000	0.004351	-0.000389	0.000000	0.000000
44.462297	18.349613	14.301880	0.077264	-0.122023	2.810330	0.000000	-0.012384	0.000000	0.004164	-0.000389	0.000000	0.000000
44.942297	18.288070	14.435371	0.050949	-0.156085	2.804573	0.000000	-0.012384	0.000000	0.003978	-0.000389	0.000000	0.000000
45.423547	18.251955	14.601857	-0.065865	-0.117889	2.798817	0.000000	0.001482	0.000000	0.003790	-0.000371	0.000000	0.000000
45.720870	18.295993	14.678091	-0.128541	-0.101453	2.799369	0.000000	0.008569	0.000000	0.003680	-0.000361	0.000000	0.000000
46.269930	18.128885	15.073096	0.430857	-0.622178	2.781599	0.000000	-0.074005	0.000000	0.003450	-0.000477	0.000000	0.000000
46.818990	17.360594	16.060781	0.959809	-1.187221	2.718840	0.000000	-0.155273	0.000000	0.003158	-0.000584	0.000000	0.000000
47.368050	16.045409	17.711494	1.420945	-1.836832	2.612201	0.000000	-0.233797	0.000000	0.002811	-0.000680	0.000000	0.000000
47.917110	14.276258	20.142811	1.781689	-2.617284	2.463569	0.000000	-0.308185	0.000000	0.002413	-0.000765	0.000000	0.000000
48.363070	12.898590	22.303972	1.318096	-2.208304	2.341808	0.000000	-0.239565	0.000000	0.002085	-0.000707	0.000000	0.000000
48.804030	11.915922	24.034098	0.918528	-1.700198	2.250984	0.000000	-0.174073	0.000000	0.001785	-0.000657	0.000000	0.000000
49.244990	11.265898	25.280140	0.560932	-1.114732	2.188558	0.000000	-0.110556	0.000000	0.001505	-0.000614	0.000000	0.000000
49.685950	10.918809	25.985410	0.228969	-0.478547	2.153822	0.000000	-0.048292	0.000000	0.001242	-0.000579	0.000000	0.000000
50.128160	10.858959	26.117532	-0.066265	0.116121	2.146394	0.000000	0.008214	0.000000	0.000993	-0.000553	0.000000	0.000000
50.425482	10.906540	26.051911	-0.093766	0.104584	2.149000	0.000000	0.008214	0.000000	0.000829	-0.000553	0.000000	0.000000
50.758816	10.979328	25.986501	-0.124597	0.091649	2.151923	0.000000	0.008214	0.000000	0.000644	-0.000553	0.000000	0.000000
51.092149	11.072670	25.929713	-0.155429	0.078714	2.154845	0.000000	0.008214	0.000000	0.000460	-0.000553	0.000000	0.000000
51.426732	11.186806	25.881909	-0.095621	-0.144236	2.157756	0.000000	-0.009291	0.000000	0.000275	-0.000555	0.000000	0.000000
51.724055	11.251641	25.971165	-0.094879	-0.219791	2.155159	0.000000	-0.014571	0.000000	0.000110	-0.000555	0.000000	0.000000
52.165015	11.481890	25.875933	-0.429436	0.434936	2.162621	0.000000	0.047375	0.000000	-0.000134	-0.000555	0.000000	0.000000
52.605975	12.014688	25.209840	-0.783608	1.069872	2.197495	0.000000	0.109865	0.000000	-0.000380	-0.000562	0.000000	0.000000
53.046935	12.874373	24.003200	-1.173577	1.656128	2.260178	0.000000	0.173613	0.000000	-0.000631	-0.000575	0.000000	0.000000
53.487895	14.100212	22.310918	-1.617157	2.167031	2.351389	0.000000	0.239344	0.000000	-0.000888	-0.000595	0.000000	0.000000
53.933855	15.769169	20.184709	-2.138884	2.580655	2.473678	0.000000	0.308205	0.000000	-0.001159	-0.000621	0.000000	0.000000
54.482915	17.917479	17.791845	-1.751020	1.803262	2.622925	0.000000	0.233492	0.000000	-0.001489	-0.000578	0.000000	0.000000
55.031975	19.569025	16.177527	-1.239491	1.154309	2.729922	0.000000	0.154628	0.000000	-0.001792	-0.000525	0.000000	0.000000
55.581035	20.607174	15.226768	-0.640428	0.587573	2.792768	0.000000	0.073013	0.000000	-0.002064	-0.000463	0.000000	0.000000
56.130095	20.958619	14.871841	0.003858	0.062688	2.810344	0.000000	-0.009905	0.000000	-0.002299	-0.000392	0.000000	0.000000
56.428668	20.993903	14.816770	-0.066236	0.082085	2.809740	0.000000	-0.002421	0.000000	-0.002418	-0.000398	0.000000	0.000000
56.762001	21.043376	14.769595	-0.082183	0.059437	2.809065	0.000000	-0.002421	0.000000	-0.002551	-0.000398	0.000000	0.000000
57.095334	21.103481	14.737520	-0.098130	0.036788	2.808391	0.000000	-0.002421	0.000000	-0.002683	-0.000398	0.000000	0.000000
57.429918	21.174502	14.720509	-0.114138	0.014055	2.807714	0.000000	-0.002421	0.000000	-0.002816	-0.000398	0.000000	0.000000
57.727240	21.246608	14.718154	-0.185229	0.033162	2.807112	0.000000	0.005092	0.000000	-0.002935	-0.000406	0.000000	0.000000
58.276300	21.086931	14.963996	0.474124	-0.483574	2.787344	0.000000	-0.077684	0.000000	-0.003131	-0.000308	0.000000	0.000000
58.825360	20.217461	15.792717	1.099985	-1.034750	2.722386	0.000000	-0.159086	0.000000	-0.003271	-0.000204	0.000000	0.000000
59.374420	18.699609	17.263338	1.648155	-1.659621	2.613388	0.000000	-0.237671	0.000000	-0.003354	-0.000096	0.000000	0.000000
59.923480	16.640571	19.480597	2.079922	-2.402691	2.462283	0.000000	-0.312042	0.000000	-0.003377	0.000013	0.000000	0.000000
60.369440	15.027906	21.451119	1.549138	-1.997390	2.338488	0.000000	-0.243508	0.000000	-0.003391	-0.000075	0.000000	0.000000
60.810400	13.867128	23.000262	1.093315	-1.502527	2.245668	0.000000	-0.178136	0.000000	-0.003443	-0.000163	0.000000	0.000000
61.251360	13.084859	24.081072	0.687437	-0.939308	2.181237	0.000000	-0.114790	0.000000	-0.003535	-0.000253	0.000000	0.000000
61.692320	12.645364	24.644381	0.312963	-0.333356	2.144463	0.000000	-0.052749	0.000000	-0.003667	-0.000346	0.000000	0.000000
62.134530	12.528610	24.663988	-0.015484	0.225205	2.134933	0.000000	0.003271	0.000000	-0.003842	-0.000433	0.000000	0.000000
62.431853	12.544875	24.533837	-0.039221	0.212539	2.136034	0.000000	0.003271	0.000000	-0.003970	-0.000433	0.000000	0.000000
62.765186	12.579892	24.396878	-0.065833	0.198339	2.137269	0.000000	0.003271	0.000000	-0.004115	-0.000433	0.000000	0.000000
63.098520	12.632652	24.269386	-0.092445	0.184138	2.138504	0.000000	0.003271	0.000000	-0.004259	-0.000433	0.000000	0.000000
63.433103	12.703450	24.150936	-0.119157	0.169884	2.139743	0.000000	0.003271	0.000000	-0.004404	-0.000433	0.000000	0.000000
63.730426	12.781356	24.053695	-0.110224	0.095587	2.140844	0.000000	-0.002201	0.000000	-0.004533	-0.000422	0.000000	0.000000
64.171386	13.040630	23.704597	-0.480198	0.693131	2.153656	0.000000	0.059437	0.000000	-0.004745	-0.000542	0.000000	0.000000
64.612346	13.634545	22.840494	-0.872102	1.259141	2.193823	0.000000	0.121757	0.000000	-0.005011	-0.000667	0.000000	0.000000
65.053306	14.590221	21.500705	-1.303836	1.767867	2.261804	0.000000	0.185471	0.000000	-0.005335	-0.000801	0.000000	0.000000
65.494266	15.951299	19.746187	-1.795117	2.196166	2.358376	0.000000	0.251305	0.000000	-0.005719	-0.000943	0.000000	0.000000
65.940226	17.803203	17.631943	-2.372953	2.525168	2.486219	0.000000	0.320394	0.000000	-0.006173	-0.001097	0.000000	0.000000
66.489286	20.175001	15.267207	-1.922153	1.807527	2.642227	0.000000	0.245178	0.000000	-0.006719	-0.000888	0.000000	0.000000
67.038346	21.973937	13.615586	-1.335639	1.218613	2.755564	0.000000	0.165599	0.000000	-0.007146	-0.000664	0.000000	0.000000
67.587406	23.073019	12.559447	-0.654825	0.716482	2.824214	0.000000	0.083073	0.000000	-0.007446	-0.000427	0.000000	0.000000
68.136466	23.394662	12.023569	0.072218	0.265375	2.846956	0.000000	-0.000933	0.000000	-0.007614	-0.000184	0.000000	0.000000
68.435038	23.394092	11.853247	-0.005493	0.271737	2.849096	0.000000	0.006970	0.000000	-0.007675	-0.000204	0.000000	0.000000
68.768372	23.402503	11.682155	-0.019742	0.241538	2.851487	0.000000	0.006970	0.000000	-0.007743	-0.000204	0.000000	0.000000
69.101705	23.420414	11.531196	-0.033991	0.211340	2.853879	0.000000	0.006970	0.000000	-0.007811	-0.000204	0.000000	0.000000
69.436288	23.447945	11.399915	-0.048293	0.181029	2.856279	0.000000	0.006970	0.000000	-0.007879	-0.000204	0.000000	0.000000
69.733611	23.480485	11.300255	-0.126348	0.185506	2.858415	0.000000	0.014925	0.000000	-0.007940	-0.000225	0.000000	0.000000
70.282671	23.216010	11.323090	0.605175	-0.227345	2.843442	0.000000	-0.069577	0.000000	-0.007993	0.000033	0.000000	0.000000
