#ParticleID	Turn	x[m]	xp	y[m]	yp	z[m]	dE[GeV]# s	beta_x	beta_y	alpha_x	alpha_y	D_x	D_y	D_px	D_py	orbit_x	orbit_px	orbit_y	orbit_py
0.300000	11.956382	25.317431	-0.020086	-0.021706	2.599914	0.000000	0.000539	0.000000	-0.000807	0.000703	0.000000	0.000000
0.601250	11.976077	25.334095	-0.045292	-0.033611	2.599865	0.000000	0.000539	0.000000	-0.000595	0.000703	0.000000	0.000000
0.898573	12.010406	25.357575	-0.040609	-0.107516	2.599816	0.000000	-0.005860	0.000000	-0.000386	0.000704	0.000000	0.000000
1.339533	12.200055	25.170967	-0.390865	0.529094	2.613124	0.000000	0.067623	0.000000	-0.000078	0.000698	0.000000	0.000000
1.780493	12.705286	24.431427	-0.758984	1.141634	2.658973	0.000000	0.141869	0.000000	0.000230	0.000700	0.000000	0.000000
2.221453	13.549188	23.172599	-1.161785	1.702232	2.737883	0.000000	0.217723	0.000000	0.000541	0.000710	0.000000	0.000000
2.662413	14.770326	21.451751	-1.617672	2.185381	2.850750	0.000000	0.296050	0.000000	0.000857	0.000728	0.000000	0.000000
3.108373	16.445587	19.321964	-2.151846	2.570264	3.000704	0.000000	0.378231	0.000000	0.001187	0.000754	0.000000	0.000000
3.657433	18.593094	16.929504	-1.735795	1.812744	3.182915	0.000000	0.285897	0.000000	0.001590	0.000709	0.000000	0.000000
4.206493	20.213278	15.293538	-1.197114	1.184345	3.312990	0.000000	0.188503	0.000000	0.001964	0.000652	0.000000	0.000000
4.755553	21.191670	14.297544	-0.573855	0.640305	3.388628	0.000000	0.087776	0.000000	0.002303	0.000582	0.000000	0.000000
5.304613	21.459134	13.870587	0.089956	0.141873	3.408491	0.000000	-0.014498	0.000000	0.002601	0.000503	0.000000	0.000000
5.603185	21.442319	13.771393	0.021186	0.155017	3.406610	0.000000	-0.005788	0.000000	0.002753	0.000510	0.000000	0.000000
5.936519	21.433379	13.676311	0.005633	0.130231	3.404511	0.000000	-0.005788	0.000000	0.002923	0.000510	0.000000	0.000000
6.269852	21.434808	13.597753	-0.009919	0.105444	3.402412	0.000000	-0.005788	0.000000	0.003093	0.000510	0.000000	0.000000
6.604435	21.446669	13.535517	-0.025530	0.080565	3.400305	0.000000	-0.005788	0.000000	0.003264	0.000510	0.000000	0.000000
6.901758	21.465982	13.494179	-0.093868	0.092796	3.398433	0.000000	0.002835	0.000000	0.003415	0.000518	0.000000	0.000000
7.450818	21.202968	13.654048	0.570316	-0.385671	3.371749	0.000000	-0.099006	0.000000	0.003669	0.000404	0.000000	0.000000
7.999878	20.228423	14.351275	1.194217	-0.891612	3.289610	0.000000	-0.199085	0.000000	0.003857	0.000282	0.000000	0.000000
8.548938	18.611191	15.635530	1.733758	-1.461070	3.153474	0.000000	-0.295627	0.000000	0.003977	0.000155	0.000000	0.000000
9.097998	16.465526	17.598299	2.150817	-2.134609	2.965759	0.000000	-0.386923	0.000000	0.004027	0.000025	0.000000	0.000000
9.543958	14.791421	19.347000	1.616308	-1.769810	2.811366	0.000000	-0.305687	0.000000	0.004061	0.000130	0.000000	0.000000
9.984918	13.571729	20.717344	1.160090	-1.325819	2.693632	0.000000	-0.228430	0.000000	0.004142	0.000236	0.000000	0.000000
10.425878	12.729615	21.667898	0.756880	-0.821496	2.609315	0.000000	-0.153778	0.000000	0.004270	0.000344	0.000000	0.000000
10.866838	12.226596	22.155407	0.388254	-0.279791	2.557453	0.000000	-0.080881	0.000000	0.004446	0.000457	0.000000	0.000000
11.309048	12.039534	22.157113	0.065467	0.222502	2.537437	0.000000	-0.014854	0.000000	0.004674	0.000563	0.000000	0.000000
11.606371	12.007979	22.028990	0.040665	0.208419	2.532853	0.000000	-0.014854	0.000000	0.004841	0.000563	0.000000	0.000000
12.086371	11.988159	21.839821	0.000626	0.185683	2.525453	0.000000	-0.014854	0.000000	0.005112	0.000563	0.000000	0.000000
12.566371	12.006777	21.672479	-0.039414	0.162947	2.518052	0.000000	-0.014854	0.000000	0.005382	0.000563	0.000000	0.000000
13.046371	12.063833	21.526963	-0.079453	0.140211	2.510652	0.000000	-0.014854	0.000000	0.005652	0.000563	0.000000	0.000000
13.526371	12.159328	21.403273	-0.119493	0.117475	2.503252	0.000000	-0.014854	0.000000	0.005922	0.000563	0.000000	0.000000
14.007621	12.293659	21.301173	-0.159637	0.094680	2.495832	0.000000	-0.014854	0.000000	0.006193	0.000563	0.000000	0.000000
14.304943	12.395945	21.249085	-0.155899	0.031838	2.491247	0.000000	-0.020590	0.000000	0.006361	0.000548	0.000000	0.000000
14.745903	12.692349	20.988595	-0.518540	0.556592	2.497461	0.000000	0.050015	0.000000	0.006639	0.000715	0.000000	0.000000
15.186863	13.317841	20.274711	-0.904884	1.056019	2.534834	0.000000	0.121183	0.000000	0.006993	0.000891	0.000000	0.000000
15.627823	14.301021	19.139914	-1.332590	1.507392	2.603788	0.000000	0.193721	0.000000	0.007426	0.001077	0.000000	0.000000
16.068783	15.686838	17.635836	-1.821208	1.890167	2.705105	0.000000	0.268455	0.000000	0.007944	0.001275	0.000000	0.000000
16.514743	17.562273	15.809350	-2.397989	2.187823	2.841633	0.000000	0.346722	0.000000	0.008560	0.001489	0.000000	0.000000
17.063803	19.970148	13.770718	-1.960201	1.546569	3.007694	0.000000	0.259783	0.000000	0.009300	0.001200	0.000000	0.000000
17.612863	21.817785	12.372054	-1.383874	1.015498	3.124843	0.000000	0.168254	0.000000	0.009874	0.000889	0.000000	0.000000
18.161923	22.974576	11.513725	-0.709737	0.556775	3.191007	0.000000	0.073754	0.000000	0.010274	0.000563	0.000000	0.000000
18.710983	23.358740	11.134588	0.014568	0.137719	3.205019	0.000000	-0.022045	0.000000	0.010491	0.000226	0.000000	0.000000
19.009556	23.386941	11.044827	-0.053755	0.136610	3.200631	0.000000	-0.014427	0.000000	0.010566	0.000252	0.000000	0.000000
19.342889	23.427542	10.964001	-0.068049	0.105866	3.195738	0.000000	-0.014427	0.000000	0.010650	0.000252	0.000000	0.000000
19.676223	23.477673	10.903671	-0.082343	0.075123	3.190844	0.000000	-0.014427	0.000000	0.010734	0.000252	0.000000	0.000000
20.010806	23.537866	10.863592	-0.213310	0.098089	3.185952	0.000000	0.001358	0.000000	0.010819	0.000306	0.000000	0.000000
20.308129	23.668719	10.813441	-0.282539	0.096106	3.186271	0.000000	0.008899	0.000000	0.010910	0.000333	0.000000	0.000000
20.857189	23.570942	10.927565	0.459642	-0.305154	3.164940	0.000000	-0.086175	0.000000	0.010995	-0.000022	0.000000	0.000000
21.406249	22.670992	11.491673	1.169341	-0.728157	3.091929	0.000000	-0.179721	0.000000	0.010886	-0.000376	0.000000	0.000000
21.955309	21.032481	12.545954	1.796396	-1.203040	2.968532	0.000000	-0.270084	0.000000	0.010583	-0.000724	0.000000	0.000000
22.504369	18.771237	14.165516	2.296490	-1.763635	2.796937	0.000000	-0.355667	0.000000	0.010093	-0.001059	0.000000	0.000000
22.950329	16.991099	15.620522	1.708169	-1.484721	2.655957	0.000000	-0.278608	0.000000	0.009678	-0.000803	0.000000	0.000000
23.391289	15.711996	16.782171	1.202847	-1.139258	2.549662	0.000000	-0.205202	0.000000	0.009379	-0.000557	0.000000	0.000000
23.832249	14.852826	17.614987	0.752506	-0.741947	2.475093	0.000000	-0.134127	0.000000	0.009186	-0.000318	0.000000	0.000000
24.273209	14.374307	18.081071	0.336563	-0.310870	2.431404	0.000000	-0.064577	0.000000	0.009098	-0.000082	0.000000	0.000000
24.715418	14.254677	18.158936	-0.032212	0.093644	2.418098	0.000000	-0.001168	0.000000	0.009114	0.000131	0.000000	0.000000
25.012741	14.280040	18.108162	-0.053092	0.077127	2.417711	0.000000	-0.001168	0.000000	0.009153	0.000131	0.000000	0.000000
25.346075	14.323237	18.062917	-0.076500	0.058609	2.417278	0.000000	-0.001168	0.000000	0.009197	0.000131	0.000000	0.000000
25.679408	14.382040	18.030017	-0.099909	0.040092	2.416845	0.000000	-0.001168	0.000000	0.009240	0.000131	0.000000	0.000000
26.013991	14.456464	18.009773	-0.006125	-0.124599	2.416385	0.000000	-0.020772	0.000000	0.009284	0.000056	0.000000	0.000000
26.311314	14.466184	18.088896	0.005588	-0.181719	2.410190	0.000000	-0.026150	0.000000	0.009301	0.000034	0.000000	0.000000
26.752274	14.640039	18.053213	-0.401232	0.262320	2.413690	0.000000	0.042336	0.000000	0.009369	0.000275	0.000000	0.000000
27.193234	15.179472	17.629659	-0.826392	0.694421	2.447367	0.000000	0.111300	0.000000	0.009544	0.000519	0.000000	0.000000
27.634194	16.109148	16.837507	-1.289328	1.094920	2.511604	0.000000	0.181528	0.000000	0.009828	0.000769	0.000000	0.000000
28.075154	17.471574	15.712803	-1.811203	1.445588	2.607130	0.000000	0.253815	0.000000	0.010223	0.001027	0.000000	0.000000
28.521114	19.352922	14.289650	-2.421005	1.731576	2.736648	0.000000	0.329460	0.000000	0.010742	0.001299	0.000000	0.000000
29.070174	21.745216	12.704769	-1.908913	1.171541	2.894311	0.000000	0.246055	0.000000	0.011358	0.000941	0.000000	0.000000
29.619234	23.497114	11.685787	-1.261899	0.694975	3.005103	0.000000	0.158299	0.000000	0.011772	0.000566	0.000000	0.000000
30.168294	24.484766	11.160110	-0.525692	0.267926	3.067063	0.000000	0.067744	0.000000	0.011978	0.000181	0.000000	0.000000
30.717354	24.638347	11.090290	0.247670	-0.140034	3.079096	0.000000	-0.024011	0.000000	0.011971	-0.000207	0.000000	0.000000
31.015927	24.528559	11.166568	0.177403	-0.141294	3.074127	0.000000	-0.016799	0.000000	0.011918	-0.000177	0.000000	0.000000
31.349260	24.414963	11.270913	0.163386	-0.171741	3.068586	0.000000	-0.016799	0.000000	0.011859	-0.000177	0.000000	0.000000
31.682593	24.310711	11.395556	0.149369	-0.202188	3.063045	0.000000	-0.016799	0.000000	0.011800	-0.000177	0.000000	0.000000
32.017177	24.215466	11.541079	0.135299	-0.232749	3.057484	0.000000	-0.016799	0.000000	0.011741	-0.000177	0.000000	0.000000
32.314499	24.138826	11.687510	0.066093	-0.232479	3.052548	0.000000	-0.009628	0.000000	0.011688	-0.000148	0.000000	0.000000
32.863559	23.652969	12.181410	0.813179	-0.672220	3.022517	0.000000	-0.100230	0.000000	0.011504	-0.000524	0.000000	0.000000
33.412619	22.373324	13.181588	1.502786	-1.159857	2.943340	0.000000	-0.189061	0.000000	0.011115	-0.000890	0.000000	0.000000
33.961679	20.390361	14.759295	2.086173	-1.730130	2.816420	0.000000	-0.274553	0.000000	0.010529	-0.001241	0.000000	0.000000
34.510739	17.844263	17.026923	2.522110	-2.423668	2.643999	0.000000	-0.355193	0.000000	0.009756	-0.001570	0.000000	0.000000
34.956699	15.866096	19.055604	1.928142	-2.105697	2.502570	0.000000	-0.282114	0.000000	0.009111	-0.001325	0.000000	0.000000
35.397659	14.391591	20.737223	1.427445	-1.692847	2.394079	0.000000	-0.212693	0.000000	0.008577	-0.001097	0.000000	0.000000
35.838619	13.328447	22.019189	0.991998	-1.202957	2.315551	0.000000	-0.145683	0.000000	0.008142	-0.000881	0.000000	0.000000
36.279579	12.628053	22.843170	0.601897	-0.658325	2.266094	0.000000	-0.080324	0.000000	0.007799	-0.000676	0.000000	0.000000
36.721789	12.257740	23.171977	0.267072	-0.136324	2.245124	0.000000	-0.020978	0.000000	0.007544	-0.000496	0.000000	0.000000
37.019112	12.106653	23.256927	0.241086	-0.149394	2.239035	0.000000	-0.020978	0.000000	0.007396	-0.000496	0.000000	0.000000
37.352445	11.955639	23.361407	0.211953	-0.164046	2.232208	0.000000	-0.020978	0.000000	0.007231	-0.000496	0.000000	0.000000
37.685779	11.824049	23.475655	0.182820	-0.178699	2.225380	0.000000	-0.020978	0.000000	0.007066	-0.000496	0.000000	0.000000
38.020362	11.711496	23.600156	0.153577	-0.193406	2.218528	0.000000	-0.020978	0.000000	0.006900	-0.000496	0.000000	0.000000
38.317684	11.627883	23.719081	0.154255	-0.261034	2.212436	0.000000	-0.026051	0.000000	0.006753	-0.000512	0.000000	0.000000
38.758644	11.640771	23.686438	-0.183731	0.334773	2.215100	0.000000	0.037320	0.000000	0.006565	-0.000340	0.000000	0.000000
39.199604	11.954348	23.133030	-0.530111	0.915343	2.245707	0.000000	0.101120	0.000000	0.006452	-0.000172	0.000000	0.000000
39.640564	12.582944	22.084043	-0.900715	1.454257	2.304605	0.000000	0.166073	0.000000	0.006413	-0.000007	0.000000	0.000000
40.081524	13.555288	20.587213	-1.312482	1.926992	2.392466	0.000000	0.232918	0.000000	0.006446	0.000159	0.000000	0.000000
40.527484	14.933366	18.687927	-1.788156	2.313502	2.511777	0.000000	0.302842	0.000000	0.006555	0.000328	0.000000	0.000000
41.076544	16.694491	16.553046	-1.399977	1.597332	2.657328	0.000000	0.226934	0.000000	0.006676	0.000113	0.000000	0.000000
41.625604	17.972075	15.137941	-0.912881	0.994959	2.760143	0.000000	0.147002	0.000000	0.006679	-0.000103	0.000000	0.000000
42.174664	18.675842	14.341802	-0.361287	0.463468	2.818397	0.000000	0.064460	0.000000	0.006563	-0.000317	0.000000	0.000000
42.723724	18.756066	14.107909	0.215828	-0.035004	2.831057	0.000000	-0.019231	0.000000	0.006331	-0.000526	0.000000	0.000000
43.022297	18.659737	14.114259	0.153091	-0.021187	2.827555	0.000000	-0.012233	0.000000	0.006179	-0.000510	0.000000	0.000000
43.502297	18.525407	14.150930	0.126764	-0.055211	2.821928	0.000000	-0.012233	0.000000	0.005934	-0.000510	0.000000	0.000000
43.982297	18.416350	14.220264	0.100438	-0.089234	2.816301	0.000000	-0.012233	0.000000	0.005689	-0.000510	0.000000	0.000000
44.462297	18.332566	14.322260	0.074111	-0.123258	2.810674	0.000000	-0.012233	0.000000	0.005444	-0.000510	0.000000	0.000000
44.942297	18.274057	14.456919	0.047784	-0.157281	2.805047	0.000000	-0.012233	0.000000	0.005199	-0.000510	0.000000	0.000000
45.423547	18.240993	14.624537	-0.068987	-0.118934	2.799423	0.000000	0.001637	0.000000	0.004954	-0.000486	0.000000	0.000000
45.720870	18.286898	14.701381	-0.131196	-0.102808	2.800055	0.000000	0.008655	0.000000	0.004809	-0.000473	0.000000	0.000000
46.269930	18.122802	15.098291	0.427987	-0.624300	2.782393	0.000000	-0.073946	0.000000	0.004508	-0.000624	0.000000	0.000000
46.818990	17.357632	16.088807	0.956922	-1.190261	2.719744	0.000000	-0.155245	0.000000	0.004126	-0.000764	0.000000	0.000000
47.368050	16.045467	17.743482	1.418239	-1.841009	2.613214	0.000000	-0.233802	0.000000	0.003671	-0.000891	0.000000	0.000000
47.917110	14.279028	20.180169	1.779348	-2.622896	2.464686	0.000000	-0.308227	0.000000	0.003151	-0.001001	0.000000	0.000000
48.363070	12.903323	22.346021	1.315899	-2.213119	2.343010	0.000000	-0.239574	0.000000	0.002722	-0.000925	0.000000	0.000000
48.804030	11.922520	24.079983	0.916385	-1.704018	2.252277	0.000000	-0.174049	0.000000	0.002328	-0.000860	0.000000	0.000000
49.244990	11.274363	25.328900	0.558749	-1.117383	2.189953	0.000000	-0.110497	0.000000	0.001962	-0.000805	0.000000	0.000000
49.685950	10.929225	26.035950	0.226648	-0.479908	2.155330	0.000000	-0.048195	0.000000	0.001618	-0.000758	0.000000	0.000000
50.128160	10.871503	26.168679	-0.068874	0.116233	2.148030	0.000000	0.008363	0.000000	0.001291	-0.000724	0.000000	0.000000
50.425482	10.920629	26.102985	-0.096353	0.104718	2.150731	0.000000	0.008363	0.000000	0.001076	-0.000724	0.000000	0.000000
50.758816	10.995133	26.037477	-0.127159	0.091808	2.153761	0.000000	0.008363	0.000000	0.000834	-0.000724	0.000000	0.000000
51.092149	11.090175	25.980575	-0.157966	0.078898	2.156790	0.000000	0.008363	0.000000	0.000593	-0.000724	0.000000	0.000000
51.426732	11.205999	25.932641	-0.097978	-0.144439	2.159808	0.000000	-0.009158	0.000000	0.000351	-0.000727	0.000000	0.000000
51.724055	11.272226	26.022011	-0.097157	-0.220146	2.157302	0.000000	-0.014442	0.000000	0.000134	-0.000727	0.000000	0.000000
52.165015	11.504685	25.926497	-0.432246	0.435928	2.164907	0.000000	0.047560	0.000000	-0.000186	-0.000728	0.000000	0.000000
52.605975	12.040216	25.258952	-0.787077	1.072164	2.199950	0.000000	0.110112	0.000000	-0.000509	-0.000737	0.000000	0.000000
53.046935	12.903276	24.049756	-1.177861	1.659616	2.262832	0.000000	0.173926	0.000000	-0.000837	-0.000754	0.000000	0.000000
53.487895	14.133288	22.353933	-1.622450	2.171556	2.354273	0.000000	0.239728	0.000000	-0.001175	-0.000780	0.000000	0.000000
53.933855	15.807465	20.223307	-2.145429	2.586006	2.476832	0.000000	0.308666	0.000000	-0.001531	-0.000815	0.000000	0.000000
54.482915	17.962417	17.825391	-1.756614	1.807191	2.626401	0.000000	0.233847	0.000000	-0.001963	-0.000759	0.000000	0.000000
55.031975	19.619338	16.207419	-1.243746	1.157096	2.733652	0.000000	0.154867	0.000000	-0.002361	-0.000689	0.000000	0.000000
55.581035	20.661226	15.254141	-0.643048	0.589416	2.796677	0.000000	0.073130	0.000000	-0.002717	-0.000606	0.000000	0.000000
56.130095	21.014514	14.897650	0.003054	0.063718	2.814352	0.000000	-0.009914	0.000000	-0.003025	-0.000513	0.000000	0.000000
56.428668	21.050552	14.841761	-0.067483	0.083473	2.813798	0.000000	-0.002376	0.000000	-0.003181	-0.000521	0.000000	0.000000
56.762001	21.100842	14.793651	-0.083390	0.060857	2.813180	0.000000	-0.002376	0.000000	-0.003354	-0.000521	0.000000	0.000000
57.095334	21.161738	14.760618	-0.099297	0.038241	2.812562	0.000000	-0.002376	0.000000	-0.003528	-0.000521	0.000000	0.000000
57.429918	21.233526	14.742623	-0.115263	0.015541	2.811941	0.000000	-0.002376	0.000000	-0.003702	-0.000521	0.000000	0.000000
57.727240	21.306294	14.739373	-0.186901	0.035001	2.811391	0.000000	0.005205	0.000000	-0.003857	-0.000532	0.000000	0.000000
58.276300	21.147320	14.983516	0.474458	-0.482305	2.791705	0.000000	-0.077708	0.000000	-0.004114	-0.000402	0.000000	0.000000
58.825360	20.276372	15.811101	1.102302	-1.033959	2.726737	0.000000	-0.159250	0.000000	-0.004298	-0.000266	0.000000	0.000000
59.374420	18.754964	17.281067	1.652293	-1.659249	2.617638	0.000000	-0.237971	0.000000	-0.004406	-0.000125	0.000000	0.000000
59.923480	16.690537	19.498100	2.085593	-2.402709	2.466339	0.000000	-0.312474	0.000000	-0.004435	0.000018	0.000000	0.000000
60.369440	15.073438	21.468378	1.553462	-1.996854	2.342378	0.000000	-0.243843	0.000000	-0.004453	-0.000097	0.000000	0.000000
60.810400	13.909384	23.016780	1.096474	-1.501443	2.249449	0.000000	-0.178374	0.000000	-0.004521	-0.000213	0.000000	0.000000
61.251360	13.124789	24.096393	0.689574	-0.937726	2.184962	0.000000	-0.114933	0.000000	-0.004641	-0.000331	0.000000	0.000000
61.692320	12.683815	24.658105	0.314174	-0.331351	2.148185	0.000000	-0.052798	0.000000	-0.004813	-0.000453	0.000000	0.000000
62.134530	12.566363	24.675779	-0.014704	0.226890	2.138707	0.000000	0.003250	0.000000	-0.005041	-0.000567	0.000000	0.000000
62.431853	12.582143	24.544627	-0.038369	0.214221	2.139842	0.000000	0.003250	0.000000	-0.005210	-0.000567	0.000000	0.000000
62.765186	12.616566	24.406548	-0.064901	0.200017	2.141114	0.000000	0.003250	0.000000	-0.005399	-0.000567	0.000000	0.000000
63.098520	12.668677	24.277938	-0.091432	0.185813	2.142387	0.000000	0.003250	0.000000	-0.005588	-0.000567	0.000000	0.000000
63.433103	12.738771	24.158368	-0.118063	0.171556	2.143664	0.000000	0.003250	0.000000	-0.005778	-0.000567	0.000000	0.000000
63.730426	12.815999	24.060145	-0.108562	0.096426	2.144797	0.000000	-0.002301	0.000000	-0.005946	-0.000552	0.000000	0.000000
64.171386	13.074108	23.710251	-0.479276	0.694107	2.157650	0.000000	0.059437	0.000000	-0.006224	-0.000709	0.000000	0.000000
64.612346	13.667474	22.845262	-0.871875	1.260210	2.197918	0.000000	0.121859	0.000000	-0.006573	-0.000874	0.000000	0.000000
65.053306	14.623188	21.504538	-1.304288	1.768982	2.266063	0.000000	0.185678	0.000000	-0.006996	-0.001049	0.000000	0.000000
65.494266	15.984885	19.749076	-1.796264	2.197279	2.362863	0.000000	0.251623	0.000000	-0.007499	-0.001236	0.000000	0.000000
65.940226	17.838046	17.633891	-2.374794	2.526196	2.491008	0.000000	0.320822	0.000000	-0.008095	-0.001438	0.000000	0.000000
66.489286	20.211015	15.268179	-1.922722	1.808409	2.647368	0.000000	0.245451	0.000000	-0.008810	-0.001164	0.000000	0.000000
67.038346	22.009729	13.615695	-1.334913	1.219404	2.760933	0.000000	0.165707	0.000000	-0.009369	-0.000869	0.000000	0.000000
67.587406	23.107234	12.558747	-0.652870	0.717235	2.829683	0.000000	0.083011	0.000000	-0.009762	-0.000560	0.000000	0.000000
68.136466	23.426074	12.022057	0.075257	0.266142	2.852393	0.000000	-0.001166	0.000000	-0.009982	-0.000240	0.000000	0.000000
68.435038	23.424399	11.850942	-0.003683	0.273078	2.854527	0.000000	0.006894	0.000000	-0.010061	-0.000267	0.000000	0.000000
68.768372	23.431598	11.678964	-0.017913	0.242854	2.856914	0.000000	0.006894	0.000000	-0.010150	-0.000267	0.000000	0.000000
69.101705	23.448283	11.527137	-0.032143	0.212629	2.859301	0.000000	0.006894	0.000000	-0.010239	-0.000267	0.000000	0.000000
69.436288	23.474572	11.395003	-0.046427	0.182291	2.861697	0.000000	0.006894	0.000000	-0.010329	-0.000267	0.000000	0.000000
69.733611	23.506028	11.294584	-0.125744	0.187299	2.863831	0.000000	0.015011	0.000000	-0.010408	-0.000295	0.000000	0.000000
70.282671	23.240458	11.315349	0.606551	-0.225347	2.848875	0.000000	-0.069661	0.000000	-0.010477	0.000043	0.000000	0.000000
