#ParticleID	Turn	x[m]	xp	y[m]	yp	z[m]	dE[GeV]# s	beta_x	beta_y	alpha_x	alpha_y	D_x	D_y	D_px	D_py	orbit_x	orbit_px	orbit_y	orbit_py
0.300000	11.964961	25.306147	-0.018324	-0.022417	2.598524	0.000000	-0.000160	0.000000	-0.001052	0.000905	0.000000	0.000000
0.601250	11.983589	25.323241	-0.043510	-0.034327	2.598203	0.000000	-0.000160	0.000000	-0.000780	0.000905	0.000000	0.000000
0.898573	12.016853	25.347149	-0.038757	-0.108213	2.597886	0.000000	-0.006562	0.000000	-0.000511	0.000906	0.000000	0.000000
1.339533	12.204949	25.161274	-0.389113	0.528135	2.610787	0.000000	0.066866	0.000000	-0.000114	0.000898	0.000000	0.000000
1.780493	12.708682	24.422680	-0.757253	1.140456	2.656203	0.000000	0.141046	0.000000	0.000282	0.000900	0.000000	0.000000
2.221453	13.551074	23.164964	-1.159998	1.700891	2.734648	0.000000	0.216822	0.000000	0.000682	0.000913	0.000000	0.000000
2.662413	14.770622	21.445344	-1.615749	2.183937	2.847012	0.000000	0.295059	0.000000	0.001089	0.000935	0.000000	0.000000
3.108373	16.444125	19.316856	-2.149705	2.568792	2.996412	0.000000	0.377137	0.000000	0.001513	0.000969	0.000000	0.000000
3.657433	18.589243	16.925842	-1.733482	1.811543	3.177953	0.000000	0.284952	0.000000	0.002030	0.000912	0.000000	0.000000
4.206493	20.206936	15.291074	-1.194786	1.183328	3.307454	0.000000	0.187726	0.000000	0.002511	0.000838	0.000000	0.000000
4.755553	21.182901	14.296121	-0.571670	0.639401	3.382623	0.000000	0.087184	0.000000	0.002948	0.000750	0.000000	0.000000
5.304613	21.448170	13.870119	0.091847	0.141018	3.402134	0.000000	-0.014892	0.000000	0.003332	0.000648	0.000000	0.000000
5.603185	21.430002	13.771587	0.023444	0.153915	3.400070	0.000000	-0.006253	0.000000	0.003528	0.000656	0.000000	0.000000
5.936519	21.419560	13.677237	0.007880	0.129137	3.397767	0.000000	-0.006253	0.000000	0.003747	0.000656	0.000000	0.000000
6.269852	21.419495	13.599405	-0.007683	0.104359	3.395463	0.000000	-0.006253	0.000000	0.003966	0.000656	0.000000	0.000000
6.604435	21.429862	13.537893	-0.023304	0.079488	3.393152	0.000000	-0.006253	0.000000	0.004185	0.000656	0.000000	0.000000
6.901758	21.447859	13.497189	-0.091142	0.091473	3.391098	0.000000	0.002278	0.000000	0.004380	0.000668	0.000000	0.000000
7.450818	21.182242	13.658578	0.572377	-0.387127	3.364104	0.000000	-0.099324	0.000000	0.004707	0.000520	0.000000	0.000000
7.999878	20.205885	14.357535	1.195469	-0.893306	3.281804	0.000000	-0.199155	0.000000	0.004950	0.000364	0.000000	0.000000
8.548938	18.587761	15.643856	1.734109	-1.463125	3.145662	0.000000	-0.295448	0.000000	0.005106	0.000201	0.000000	0.000000
9.097998	16.442194	17.609180	2.150238	-2.137175	2.958096	0.000000	-0.386496	0.000000	0.005171	0.000035	0.000000	0.000000
9.543958	14.768396	19.360128	1.616140	-1.772188	2.803838	0.000000	-0.305450	0.000000	0.005216	0.000169	0.000000	0.000000
9.984918	13.548653	20.732480	1.160351	-1.327925	2.686141	0.000000	-0.228384	0.000000	0.005320	0.000305	0.000000	0.000000
10.425878	12.706114	21.684752	0.757584	-0.823232	2.601765	0.000000	-0.153923	0.000000	0.005486	0.000444	0.000000	0.000000
10.866838	12.202277	22.173607	0.389434	-0.281075	2.549746	0.000000	-0.081221	0.000000	0.005713	0.000589	0.000000	0.000000
11.309048	12.013966	22.176215	0.066736	0.222336	2.529472	0.000000	-0.015295	0.000000	0.006007	0.000726	0.000000	0.000000
11.606371	11.981673	22.048187	0.041878	0.208266	2.524709	0.000000	-0.015295	0.000000	0.006222	0.000726	0.000000	0.000000
12.086371	11.960734	21.859155	0.001746	0.185551	2.517019	0.000000	-0.015295	0.000000	0.006571	0.000726	0.000000	0.000000
12.566371	11.978320	21.691929	-0.038385	0.162837	2.509330	0.000000	-0.015295	0.000000	0.006919	0.000726	0.000000	0.000000
13.046371	12.034434	21.546509	-0.078517	0.140122	2.501640	0.000000	-0.015295	0.000000	0.007267	0.000726	0.000000	0.000000
13.526371	12.129073	21.422895	-0.118648	0.117407	2.493950	0.000000	-0.015295	0.000000	0.007616	0.000726	0.000000	0.000000
14.007621	12.262636	21.320851	-0.158884	0.094633	2.486240	0.000000	-0.015295	0.000000	0.007965	0.000726	0.000000	0.000000
14.304943	12.364482	21.268803	-0.155819	0.032737	2.481475	0.000000	-0.020899	0.000000	0.008180	0.000706	0.000000	0.000000
14.745903	12.660540	21.007281	-0.517751	0.558009	2.487420	0.000000	0.049454	0.000000	0.008539	0.000922	0.000000	0.000000
15.186863	13.285069	20.291922	-0.903354	1.057889	2.524391	0.000000	0.120361	0.000000	0.008995	0.001148	0.000000	0.000000
15.627823	14.266628	19.155273	-1.330255	1.509627	2.592804	0.000000	0.192627	0.000000	0.009553	0.001387	0.000000	0.000000
16.068783	15.650104	17.649053	-1.817969	1.892663	2.693436	0.000000	0.267073	0.000000	0.010221	0.001642	0.000000	0.000000
16.514743	17.522400	15.820152	-2.393751	2.190520	2.829118	0.000000	0.345037	0.000000	0.011014	0.001917	0.000000	0.000000
17.063803	19.926477	13.778803	-1.957189	1.548712	2.994169	0.000000	0.258512	0.000000	0.011966	0.001545	0.000000	0.000000
17.612863	21.771743	12.377959	-1.382278	1.017247	3.110586	0.000000	0.167426	0.000000	0.012706	0.001145	0.000000	0.000000
18.161923	22.927727	11.517830	-0.709652	0.558260	3.176314	0.000000	0.073386	0.000000	0.013220	0.000725	0.000000	0.000000
18.710983	23.312689	11.137141	0.013146	0.139048	3.190193	0.000000	-0.021943	0.000000	0.013500	0.000292	0.000000	0.000000
19.009556	23.340657	11.047078	-0.053460	0.137155	3.185733	0.000000	-0.014584	0.000000	0.013597	0.000325	0.000000	0.000000
19.342889	23.381071	10.965889	-0.067782	0.106413	3.180763	0.000000	-0.014584	0.000000	0.013705	0.000325	0.000000	0.000000
19.676223	23.431033	10.905194	-0.082104	0.075672	3.175793	0.000000	-0.014584	0.000000	0.013814	0.000325	0.000000	0.000000
20.010806	23.491075	10.864746	-0.212868	0.098646	3.170824	0.000000	0.001126	0.000000	0.013923	0.000394	0.000000	0.000000
20.308129	23.621726	10.814240	-0.280281	0.095889	3.171051	0.000000	0.008400	0.000000	0.014040	0.000429	0.000000	0.000000
20.857189	23.522316	10.928631	0.460364	-0.305417	3.149554	0.000000	-0.086188	0.000000	0.014150	-0.000028	0.000000	0.000000
21.406249	22.622384	11.493087	1.168471	-0.728487	3.076697	0.000000	-0.179247	0.000000	0.014010	-0.000484	0.000000	0.000000
21.955309	20.985559	12.547826	1.793984	-1.203464	2.953771	0.000000	-0.269133	0.000000	0.013620	-0.000932	0.000000	0.000000
22.504369	18.727571	14.167990	2.292684	-1.764191	2.782952	0.000000	-0.354258	0.000000	0.012989	-0.001363	0.000000	0.000000
22.950329	16.950171	15.623538	1.705390	-1.485157	2.642629	0.000000	-0.277540	0.000000	0.012455	-0.001033	0.000000	0.000000
23.391289	15.672996	16.785582	1.201036	-1.139611	2.536810	0.000000	-0.204466	0.000000	0.012069	-0.000717	0.000000	0.000000
23.832249	14.814968	17.618697	0.751589	-0.742197	2.462545	0.000000	-0.133714	0.000000	0.011822	-0.000409	0.000000	0.000000
24.273209	14.336851	18.084969	0.336502	-0.311004	2.418990	0.000000	-0.064481	0.000000	0.011708	-0.000105	0.000000	0.000000
24.715418	14.216919	18.162869	-0.032411	0.094775	2.405654	0.000000	-0.001206	0.000000	0.011729	0.000170	0.000000	0.000000
25.012741	14.242417	18.111422	-0.053346	0.078258	2.405245	0.000000	-0.001206	0.000000	0.011779	0.000170	0.000000	0.000000
25.346075	14.285805	18.065423	-0.076817	0.059740	2.404786	0.000000	-0.001206	0.000000	0.011835	0.000170	0.000000	0.000000
25.679408	14.344840	18.031768	-0.100288	0.041223	2.404328	0.000000	-0.001206	0.000000	0.011892	0.000170	0.000000	0.000000
26.013991	14.419539	18.010767	-0.006866	-0.123476	2.403843	0.000000	-0.020708	0.000000	0.011949	0.000073	0.000000	0.000000
26.311314	14.429692	18.089251	0.003769	-0.179406	2.397659	0.000000	-0.025901	0.000000	0.011970	0.000045	0.000000	0.000000
26.752274	14.604809	18.051522	-0.402250	0.264627	2.401180	0.000000	0.042266	0.000000	0.012058	0.000355	0.000000	0.000000
27.193234	15.144849	17.625959	-0.826660	0.696616	2.434708	0.000000	0.110911	0.000000	0.012284	0.000669	0.000000	0.000000
27.634194	16.074512	16.831925	-1.288864	1.096901	2.498626	0.000000	0.180813	0.000000	0.012649	0.000990	0.000000	0.000000
28.075154	17.436314	15.705556	-1.809995	1.447262	2.593657	0.000000	0.252764	0.000000	0.013159	0.001323	0.000000	0.000000
28.521114	19.316494	14.280945	-2.419075	1.732925	2.722497	0.000000	0.328065	0.000000	0.013826	0.001673	0.000000	0.000000
29.070174	21.707577	12.694502	-1.908257	1.172922	2.879356	0.000000	0.245123	0.000000	0.014620	0.001212	0.000000	0.000000
29.619234	23.459628	11.673889	-1.262538	0.696494	2.989659	0.000000	0.157850	0.000000	0.015153	0.000729	0.000000	0.000000
30.168294	24.448757	11.146393	-0.527565	0.269694	3.051455	0.000000	0.067789	0.000000	0.015418	0.000234	0.000000	0.000000
30.717354	24.605019	11.074434	0.244703	-0.137889	3.063650	0.000000	-0.023472	0.000000	0.015410	-0.000265	0.000000	0.000000
31.015927	24.495705	11.150020	0.176490	-0.140102	3.058767	0.000000	-0.016544	0.000000	0.015342	-0.000228	0.000000	0.000000
31.349260	24.382722	11.253582	0.162458	-0.170584	3.053329	0.000000	-0.016544	0.000000	0.015266	-0.000228	0.000000	0.000000
31.682593	24.279094	11.377465	0.148427	-0.201066	3.047890	0.000000	-0.016544	0.000000	0.015190	-0.000228	0.000000	0.000000
32.017177	24.184484	11.522249	0.134342	-0.231663	3.042431	0.000000	-0.016544	0.000000	0.015114	-0.000228	0.000000	0.000000
32.314499	24.108479	11.668013	0.067092	-0.232395	3.037590	0.000000	-0.009647	0.000000	0.015046	-0.000191	0.000000	0.000000
32.863559	23.621993	12.161553	0.813211	-0.671601	3.007727	0.000000	-0.099776	0.000000	0.014808	-0.000675	0.000000	0.000000
33.412619	22.342721	13.160786	1.501836	-1.158662	2.929032	0.000000	-0.188145	0.000000	0.014307	-0.001147	0.000000	0.000000
33.961679	20.361128	14.736901	2.084289	-1.728281	2.802893	0.000000	-0.273194	0.000000	0.013552	-0.001598	0.000000	0.000000
34.510739	17.817335	17.002181	2.519398	-2.421042	2.631539	0.000000	-0.353421	0.000000	0.012557	-0.002021	0.000000	0.000000
34.956699	15.841084	19.028868	1.926052	-2.103603	2.491002	0.000000	-0.280642	0.000000	0.011726	-0.001706	0.000000	0.000000
35.397659	14.368037	20.709001	1.425945	-1.691444	2.383241	0.000000	-0.211506	0.000000	0.011039	-0.001413	0.000000	0.000000
35.838619	13.305891	21.990102	0.991030	-1.202305	2.305295	0.000000	-0.144765	0.000000	0.010478	-0.001135	0.000000	0.000000
36.279579	12.606072	22.813876	0.601422	-0.658449	2.256280	0.000000	-0.079661	0.000000	0.010036	-0.000871	0.000000	0.000000
36.721789	12.235945	23.143118	0.266382	-0.135896	2.235622	0.000000	-0.020421	0.000000	0.009707	-0.000639	0.000000	0.000000
37.019112	12.085279	23.227819	0.240359	-0.148981	2.229740	0.000000	-0.020421	0.000000	0.009518	-0.000639	0.000000	0.000000
37.352445	11.934765	23.332029	0.211183	-0.163650	2.223146	0.000000	-0.020421	0.000000	0.009305	-0.000639	0.000000	0.000000
37.685779	11.803701	23.446018	0.182008	-0.178319	2.216552	0.000000	-0.020421	0.000000	0.009092	-0.000639	0.000000	0.000000
38.020362	11.691706	23.570270	0.152723	-0.193043	2.209934	0.000000	-0.020421	0.000000	0.008878	-0.000639	0.000000	0.000000
38.317684	11.608601	23.689004	0.152778	-0.259558	2.204050	0.000000	-0.025372	0.000000	0.008688	-0.000659	0.000000	0.000000
38.758644	11.622592	23.655409	-0.184805	0.335447	2.207019	0.000000	0.037790	0.000000	0.008446	-0.000438	0.000000	0.000000
39.199604	11.936954	23.101757	-0.530831	0.915184	2.237820	0.000000	0.101387	0.000000	0.008300	-0.000223	0.000000	0.000000
39.640564	12.566055	22.053250	-0.901116	1.453270	2.296805	0.000000	0.166141	0.000000	0.008249	-0.000009	0.000000	0.000000
40.081524	13.538648	20.557603	-1.312585	1.925218	2.384646	0.000000	0.232788	0.000000	0.008292	0.000204	0.000000	0.000000
40.527484	14.916768	18.660138	-1.788005	2.311061	2.503830	0.000000	0.302517	0.000000	0.008432	0.000421	0.000000	0.000000
41.076544	16.678154	16.527396	-1.400485	1.595749	2.649242	0.000000	0.226864	0.000000	0.008587	0.000145	0.000000	0.000000
41.625604	17.956676	15.113573	-0.914004	0.994125	2.752092	0.000000	0.147188	0.000000	0.008591	-0.000133	0.000000	0.000000
42.174664	18.661979	14.317943	-0.362941	0.463329	2.810552	0.000000	0.064899	0.000000	0.008442	-0.000409	0.000000	0.000000
42.723724	18.744226	14.083821	0.213760	-0.034456	2.823584	0.000000	-0.018548	0.000000	0.008143	-0.000678	0.000000	0.000000
43.022297	18.648639	14.090228	0.151822	-0.021284	2.820289	0.000000	-0.011685	0.000000	0.007947	-0.000657	0.000000	0.000000
43.502297	18.515530	14.127020	0.125489	-0.055365	2.814995	0.000000	-0.011685	0.000000	0.007631	-0.000657	0.000000	0.000000
43.982297	18.407699	14.196530	0.099157	-0.089447	2.809702	0.000000	-0.011685	0.000000	0.007316	-0.000657	0.000000	0.000000
44.462297	18.325148	14.298758	0.072825	-0.123529	2.804408	0.000000	-0.011685	0.000000	0.007000	-0.000657	0.000000	0.000000
44.942297	18.267876	14.433705	0.046492	-0.157610	2.799115	0.000000	-0.011685	0.000000	0.006685	-0.000657	0.000000	0.000000
45.423547	18.236059	14.601668	-0.070261	-0.119435	2.793825	0.000000	0.002157	0.000000	0.006368	-0.000626	0.000000	0.000000
45.720870	18.282731	14.678814	-0.131901	-0.103883	2.794654	0.000000	0.009075	0.000000	0.006182	-0.000610	0.000000	0.000000
46.269930	18.119421	15.076566	0.427182	-0.624754	2.777351	0.000000	-0.073360	0.000000	0.005794	-0.000804	0.000000	0.000000
46.818990	17.355098	16.067275	0.956068	-1.190128	2.715171	0.000000	-0.154507	0.000000	0.005302	-0.000984	0.000000	0.000000
47.368050	16.043787	17.721506	1.417391	-1.840281	2.609208	0.000000	-0.232928	0.000000	0.004716	-0.001146	0.000000	0.000000
47.917110	14.278164	20.157081	1.778556	-2.621524	2.461334	0.000000	-0.307236	0.000000	0.004047	-0.001288	0.000000	0.000000
48.363070	12.903068	22.322013	1.315169	-2.212382	2.340200	0.000000	-0.238660	0.000000	0.003495	-0.001190	0.000000	0.000000
48.804030	11.922835	24.055646	0.915703	-1.703969	2.249964	0.000000	-0.173200	0.000000	0.002989	-0.001107	0.000000	0.000000
49.244990	11.275228	25.304836	0.558086	-1.118024	2.188103	0.000000	-0.109701	0.000000	0.002517	-0.001036	0.000000	0.000000
49.685950	10.930642	26.012751	0.225977	-0.481210	2.153918	0.000000	-0.047440	0.000000	0.002074	-0.000977	0.000000	0.000000
50.128160	10.873499	26.146903	-0.069670	0.114680	2.147035	0.000000	0.009109	0.000000	0.001653	-0.000932	0.000000	0.000000
50.425482	10.923098	26.082135	-0.097147	0.103159	2.150020	0.000000	0.009109	0.000000	0.001376	-0.000932	0.000000	0.000000
50.758816	10.998130	26.017667	-0.127951	0.090243	2.153367	0.000000	0.009109	0.000000	0.001065	-0.000932	0.000000	0.000000
51.092149	11.093699	25.961811	-0.158755	0.077327	2.156714	0.000000	0.009109	0.000000	0.000754	-0.000932	0.000000	0.000000
51.426732	11.210051	25.914930	-0.098732	-0.145872	2.160052	0.000000	-0.008415	0.000000	0.000442	-0.000936	0.000000	0.000000
51.724055	11.276724	26.005156	-0.097902	-0.221611	2.157828	0.000000	-0.013699	0.000000	0.000164	-0.000936	0.000000	0.000000
52.165015	11.509863	25.911125	-0.433114	0.434041	2.165855	0.000000	0.048323	0.000000	-0.000249	-0.000938	0.000000	0.000000
52.605975	12.046196	25.245400	-0.788107	1.069940	2.201330	0.000000	0.110904	0.000000	-0.000665	-0.000949	0.000000	0.000000
53.046935	12.910216	24.038281	-1.179098	1.657155	2.264662	0.000000	0.174759	0.000000	-0.001088	-0.000972	0.000000	0.000000
53.487895	14.141388	22.344699	-1.623948	2.168970	2.356576	0.000000	0.240615	0.000000	-0.001523	-0.001006	0.000000	0.000000
53.933855	15.816990	20.216402	-2.147247	2.583405	2.479643	0.000000	0.309617	0.000000	-0.001981	-0.001051	0.000000	0.000000
54.482915	17.973759	17.821105	-1.758224	1.805025	2.629828	0.000000	0.234698	0.000000	-0.002539	-0.000978	0.000000	0.000000
55.031975	19.632208	16.205359	-1.245041	1.155210	2.737624	0.000000	0.155601	0.000000	-0.003052	-0.000887	0.000000	0.000000
55.581035	20.675235	15.254070	-0.643943	0.587675	2.801113	0.000000	0.073730	0.000000	-0.003511	-0.000781	0.000000	0.000000
56.130095	21.029203	14.899473	0.002616	0.061998	2.819162	0.000000	-0.009462	0.000000	-0.003907	-0.000661	0.000000	0.000000
56.428668	21.065757	14.844420	-0.068350	0.082079	2.818808	0.000000	-0.001857	0.000000	-0.004107	-0.000671	0.000000	0.000000
56.762001	21.116623	14.797237	-0.084248	0.059473	2.818412	0.000000	-0.001857	0.000000	-0.004331	-0.000671	0.000000	0.000000
57.095334	21.178088	14.765124	-0.100145	0.036866	2.818017	0.000000	-0.001857	0.000000	-0.004555	-0.000671	0.000000	0.000000
57.429918	21.250440	14.748046	-0.116102	0.014175	2.817620	0.000000	-0.001857	0.000000	-0.004779	-0.000671	0.000000	0.000000
57.727240	21.323712	14.745602	-0.188289	0.033982	2.817268	0.000000	0.005806	0.000000	-0.004979	-0.000684	0.000000	0.000000
58.276300	21.165902	14.990968	0.473662	-0.483536	2.797931	0.000000	-0.077300	0.000000	-0.005309	-0.000518	0.000000	0.000000
58.825360	20.295460	15.820045	1.102152	-1.035488	2.733185	0.000000	-0.159044	0.000000	-0.005546	-0.000342	0.000000	0.000000
59.374420	18.773864	17.291874	1.652803	-1.661182	2.624173	0.000000	-0.237972	0.000000	-0.005684	-0.000160	0.000000	0.000000
59.923480	16.708560	19.511270	2.086733	-2.405179	2.472827	0.000000	-0.312683	0.000000	-0.005721	0.000025	0.000000	0.000000
60.369440	15.090622	21.483663	1.554225	-1.999135	2.348813	0.000000	-0.243891	0.000000	-0.005743	-0.000124	0.000000	0.000000
60.810400	13.926074	23.033912	1.096868	-1.503402	2.255919	0.000000	-0.178258	0.000000	-0.005830	-0.000273	0.000000	0.000000
61.251360	13.141290	24.115059	0.689613	-0.939278	2.191554	0.000000	-0.114651	0.000000	-0.005984	-0.000425	0.000000	0.000000
61.692320	12.700427	24.677923	0.313860	-0.332426	2.154988	0.000000	-0.052345	0.000000	-0.006206	-0.000582	0.000000	0.000000
62.134530	12.583398	24.696307	-0.014928	0.225537	2.145813	0.000000	0.003790	0.000000	-0.006500	-0.000730	0.000000	0.000000
62.431853	12.599302	24.565954	-0.038562	0.212886	2.147157	0.000000	0.003790	0.000000	-0.006717	-0.000730	0.000000	0.000000
62.765186	12.633842	24.428758	-0.065057	0.198702	2.148663	0.000000	0.003790	0.000000	-0.006960	-0.000730	0.000000	0.000000
63.098520	12.686045	24.301018	-0.091553	0.184518	2.150170	0.000000	0.003790	0.000000	-0.007203	-0.000730	0.000000	0.000000
63.433103	12.756208	24.182308	-0.118149	0.170281	2.151682	0.000000	0.003790	0.000000	-0.007447	-0.000730	0.000000	0.000000
63.730426	12.833469	24.084854	-0.108078	0.094124	2.153024	0.000000	-0.001864	0.000000	-0.007664	-0.000710	0.000000	0.000000
64.171386	13.091281	23.736697	-0.479165	0.692504	2.166193	0.000000	0.060087	0.000000	-0.008022	-0.000912	0.000000	0.000000
64.612346	13.684657	22.872808	-0.872129	1.259380	2.206893	0.000000	0.122732	0.000000	-0.008471	-0.001125	0.000000	0.000000
65.053306	14.640682	21.532495	-1.304914	1.768965	2.275589	0.000000	0.186786	0.000000	-0.009016	-0.001350	0.000000	0.000000
65.494266	16.002998	19.776738	-1.797281	2.198080	2.373070	0.000000	0.252982	0.000000	-0.009664	-0.001591	0.000000	0.000000
65.940226	17.857154	17.660510	-2.376183	2.527746	2.502046	0.000000	0.322445	0.000000	-0.010431	-0.001852	0.000000	0.000000
66.489286	20.231114	15.293562	-1.923478	1.809272	2.659390	0.000000	0.246706	0.000000	-0.011352	-0.001499	0.000000	0.000000
67.038346	22.030132	13.640541	-1.335005	1.219635	2.773688	0.000000	0.166569	0.000000	-0.012071	-0.001119	0.000000	0.000000
67.587406	23.127261	12.583721	-0.652308	0.716844	2.842903	0.000000	0.083459	0.000000	-0.012577	-0.000720	0.000000	0.000000
68.136466	23.445090	12.047836	0.076425	0.265097	2.865803	0.000000	-0.001141	0.000000	-0.012860	-0.000308	0.000000	0.000000
68.435038	23.443531	11.876873	-0.003947	0.272893	2.868026	0.000000	0.007126	0.000000	-0.012962	-0.000344	0.000000	0.000000
68.768372	23.450902	11.704996	-0.018166	0.242737	2.870516	0.000000	0.007126	0.000000	-0.013077	-0.000344	0.000000	0.000000
69.101705	23.467752	11.553223	-0.032385	0.212582	2.873006	0.000000	0.007126	0.000000	-0.013191	-0.000344	0.000000	0.000000
69.436288	23.494199	11.421098	-0.046657	0.182313	2.875505	0.000000	0.007126	0.000000	-0.013306	-0.000344	0.000000	0.000000
69.733611	23.525838	11.320624	-0.127466	0.188139	2.877734	0.000000	0.015459	0.000000	-0.013409	-0.000381	0.000000	0.000000
70.282671	23.261814	11.340853	0.605469	-0.225207	2.862921	0.000000	-0.069657	0.000000	-0.013498	0.000055	0.000000	0.000000
