#ParticleID	Turn	x[m]	xp	y[m]	yp	z[m]	dE[GeV]# s	beta_x	beta_y	alpha_x	alpha_y	D_x	D_y	D_px	D_py	orbit_x	orbit_px	orbit_y	orbit_py
0.300000	11.864508	25.038772	-0.015852	-0.026097	2.613906	0.000000	0.000193	0.000000	-0.000170	0.000150	0.000000	0.000000
0.601250	11.881710	25.058123	-0.041250	-0.038137	2.613919	0.000000	0.000193	0.000000	-0.000125	0.000150	0.000000	0.000000
0.898573	11.913692	25.084333	-0.037078	-0.111527	2.613931	0.000000	-0.006222	0.000000	-0.000081	0.000150	0.000000	0.000000
1.339533	12.099143	24.904433	-0.385030	0.517949	2.627394	0.000000	0.067627	0.000000	-0.000015	0.000149	0.000000	0.000000
1.780493	12.598030	24.177695	-0.750575	1.123859	2.673559	0.000000	0.142245	0.000000	0.000050	0.000149	0.000000	0.000000
2.221453	13.433147	22.937185	-1.150412	1.678636	2.752953	0.000000	0.218481	0.000000	0.000117	0.000151	0.000000	0.000000
2.662413	14.642649	21.239343	-1.602810	2.157035	2.866479	0.000000	0.297204	0.000000	0.000184	0.000155	0.000000	0.000000
3.108373	16.302691	19.136525	-2.132758	2.538429	3.017288	0.000000	0.379801	0.000000	0.000254	0.000161	0.000000	0.000000
3.657433	18.431219	16.774746	-1.720876	1.788438	3.200511	0.000000	0.286918	0.000000	0.000340	0.000151	0.000000	0.000000
4.206493	20.037618	15.162183	-1.187435	1.165834	3.331268	0.000000	0.188948	0.000000	0.000420	0.000139	0.000000	0.000000
4.755553	21.008414	14.183977	-0.570115	0.626271	3.407240	0.000000	0.087629	0.000000	0.000492	0.000124	0.000000	0.000000
5.304613	21.275030	13.770455	0.087478	0.131315	3.427081	0.000000	-0.015242	0.000000	0.000556	0.000107	0.000000	0.000000
5.603185	21.260027	13.677323	0.018101	0.144818	3.425159	0.000000	-0.006329	0.000000	0.000588	0.000109	0.000000	0.000000
5.936519	21.253188	13.589072	0.002417	0.119936	3.423013	0.000000	-0.006329	0.000000	0.000624	0.000109	0.000000	0.000000
6.269852	21.256805	13.517409	-0.013267	0.095054	3.420867	0.000000	-0.006329	0.000000	0.000661	0.000109	0.000000	0.000000
6.604435	21.270950	13.462159	-0.029010	0.070078	3.418713	0.000000	-0.006329	0.000000	0.000697	0.000109	0.000000	0.000000
6.901758	21.292361	13.427086	-0.098292	0.082773	3.416799	0.000000	0.002543	0.000000	0.000729	0.000110	0.000000	0.000000
7.450818	21.037259	13.596955	0.560212	-0.393978	3.389985	0.000000	-0.099882	0.000000	0.000783	0.000086	0.000000	0.000000
7.999878	20.076572	14.302606	1.179146	-0.898791	3.307351	0.000000	-0.200535	0.000000	0.000823	0.000060	0.000000	0.000000
8.548938	18.478160	15.594301	1.714790	-1.467625	3.170362	0.000000	-0.297630	0.000000	0.000849	0.000033	0.000000	0.000000
9.097998	16.354931	17.564049	2.129306	-2.140998	2.981449	0.000000	-0.389445	0.000000	0.000859	0.000005	0.000000	0.000000
9.543958	14.698231	19.319199	1.598784	-1.777996	2.826049	0.000000	-0.307834	0.000000	0.000866	0.000028	0.000000	0.000000
9.984918	13.492615	20.697320	1.145640	-1.335347	2.707515	0.000000	-0.230216	0.000000	0.000884	0.000050	0.000000	0.000000
10.425878	12.662141	21.656670	0.744838	-0.831940	2.622587	0.000000	-0.155220	0.000000	0.000911	0.000073	0.000000	0.000000
10.866838	12.168863	22.153597	0.378066	-0.290679	2.570300	0.000000	-0.081993	0.000000	0.000948	0.000097	0.000000	0.000000
11.309048	11.990102	22.164966	0.057589	0.209869	2.550035	0.000000	-0.015896	0.000000	0.000997	0.000120	0.000000	0.000000
11.606371	11.963254	22.044332	0.032709	0.195864	2.545273	0.000000	-0.015896	0.000000	0.001032	0.000120	0.000000	0.000000
12.086371	11.951132	21.867156	-0.007456	0.173254	2.537586	0.000000	-0.015896	0.000000	0.001090	0.000120	0.000000	0.000000
12.566371	11.977570	21.711684	-0.047622	0.150645	2.529899	0.000000	-0.015896	0.000000	0.001147	0.000120	0.000000	0.000000
13.046371	12.042567	21.577918	-0.087788	0.128035	2.522211	0.000000	-0.015896	0.000000	0.001205	0.000120	0.000000	0.000000
13.526371	12.146123	21.465857	-0.127954	0.105425	2.514524	0.000000	-0.015896	0.000000	0.001262	0.000120	0.000000	0.000000
14.007621	12.288659	21.375295	-0.168224	0.082757	2.506817	0.000000	-0.015896	0.000000	0.001320	0.000120	0.000000	0.000000
14.304943	12.396089	21.330249	-0.163096	0.017152	2.502055	0.000000	-0.021952	0.000000	0.001356	0.000117	0.000000	0.000000
14.745903	12.698803	21.081684	-0.525935	0.544382	2.507937	0.000000	0.048918	0.000000	0.001415	0.000152	0.000000	0.000000
15.186863	13.330872	20.377323	-0.912805	1.046842	2.545149	0.000000	0.120343	0.000000	0.001490	0.000190	0.000000	0.000000
15.627823	14.321180	19.249214	-1.341383	1.501670	2.614112	0.000000	0.193138	0.000000	0.001583	0.000229	0.000000	0.000000
16.068783	15.714976	17.748684	-1.831250	1.888171	2.715612	0.000000	0.268130	0.000000	0.001693	0.000272	0.000000	0.000000
16.514743	17.599587	15.922511	-2.409586	2.189537	2.852499	0.000000	0.346641	0.000000	0.001824	0.000317	0.000000	0.000000
17.063803	20.019595	13.883516	-1.971594	1.545894	3.018964	0.000000	0.259364	0.000000	0.001981	0.000255	0.000000	0.000000
17.612863	21.878818	12.487080	-1.394321	1.012366	3.136208	0.000000	0.167491	0.000000	0.002104	0.000189	0.000000	0.000000
18.161923	23.045910	11.633736	-0.718548	0.550951	3.202152	0.000000	0.072650	0.000000	0.002189	0.000120	0.000000	0.000000
18.710983	23.438416	11.262700	0.007988	0.128781	3.215627	0.000000	-0.023478	0.000000	0.002235	0.000048	0.000000	0.000000
19.009556	23.473337	11.176676	-0.064872	0.130478	3.211063	0.000000	-0.015234	0.000000	0.002251	0.000054	0.000000	0.000000
19.342889	23.521338	11.099802	-0.079132	0.100146	3.205966	0.000000	-0.015234	0.000000	0.002269	0.000054	0.000000	0.000000
19.676223	23.578846	11.043148	-0.093392	0.069814	3.200870	0.000000	-0.015234	0.000000	0.002287	0.000054	0.000000	0.000000
20.010806	23.646423	11.006481	-0.224864	0.093902	3.195775	0.000000	0.000599	0.000000	0.002305	0.000065	0.000000	0.000000
20.308129	23.784069	10.958744	-0.298998	0.094733	3.195934	0.000000	0.008786	0.000000	0.002324	0.000071	0.000000	0.000000
20.857189	23.702239	11.076557	0.447169	-0.310565	3.174529	0.000000	-0.086576	0.000000	0.002343	-0.000004	0.000000	0.000000
21.406249	22.813541	11.648915	1.161748	-0.737987	3.101147	0.000000	-0.180402	0.000000	0.002320	-0.000080	0.000000	0.000000
21.955309	21.180757	12.716589	1.794257	-1.217976	2.977091	0.000000	-0.271029	0.000000	0.002255	-0.000154	0.000000	0.000000
22.504369	18.919237	14.355628	2.300013	-1.784724	2.804560	0.000000	-0.356851	0.000000	0.002151	-0.000225	0.000000	0.000000
22.950329	17.137596	15.827272	1.708965	-1.501220	2.662792	0.000000	-0.279645	0.000000	0.002063	-0.000171	0.000000	0.000000
23.391289	15.859311	17.000986	1.200750	-1.150298	2.555859	0.000000	-0.206084	0.000000	0.001999	-0.000118	0.000000	0.000000
23.832249	15.003459	17.840854	0.747399	-0.747036	2.480794	0.000000	-0.134869	0.000000	0.001958	-0.000067	0.000000	0.000000
24.273209	14.530935	18.308662	0.328199	-0.309782	2.436744	0.000000	-0.065189	0.000000	0.001940	-0.000017	0.000000	0.000000
24.715418	14.420251	18.382878	-0.041382	0.097241	2.423204	0.000000	-0.002085	0.000000	0.001943	0.000028	0.000000	0.000000
25.012741	14.451000	18.329909	-0.062036	0.080914	2.422576	0.000000	-0.002085	0.000000	0.001951	0.000028	0.000000	0.000000
25.346075	14.500076	18.282067	-0.085191	0.062610	2.421871	0.000000	-0.002085	0.000000	0.001961	0.000028	0.000000	0.000000
25.679408	14.564588	18.246429	-0.108347	0.044306	2.421167	0.000000	-0.002085	0.000000	0.001970	0.000028	0.000000	0.000000
26.013991	14.644570	18.223298	-0.012782	-0.121903	2.420435	0.000000	-0.021721	0.000000	0.001980	0.000012	0.000000	0.000000
26.311314	14.658206	18.300712	0.002180	-0.182492	2.413973	0.000000	-0.027529	0.000000	0.001983	0.000007	0.000000	0.000000
26.752274	14.837028	18.263196	-0.409223	0.267244	2.416934	0.000000	0.041033	0.000000	0.001998	0.000059	0.000000	0.000000
27.193234	15.385539	17.832905	-0.839324	0.704820	2.450181	0.000000	0.110063	0.000000	0.002035	0.000111	0.000000	0.000000
27.634194	16.328801	17.029417	-1.307777	1.110326	2.514093	0.000000	0.180345	0.000000	0.002096	0.000164	0.000000	0.000000
28.075154	17.709918	15.889290	-1.835985	1.465311	2.609397	0.000000	0.252679	0.000000	0.002180	0.000219	0.000000	0.000000
28.521114	19.616024	14.447216	-2.453074	1.754575	2.738784	0.000000	0.328341	0.000000	0.002291	0.000277	0.000000	0.000000
29.070174	22.038936	12.840505	-1.933346	1.188894	2.896265	0.000000	0.244893	0.000000	0.002422	0.000201	0.000000	0.000000
29.619234	23.812247	11.805127	-1.277037	0.707901	3.006707	0.000000	0.157105	0.000000	0.002510	0.000121	0.000000	0.000000
30.168294	24.810677	11.267330	-0.530512	0.277332	3.068153	0.000000	0.066532	0.000000	0.002554	0.000039	0.000000	0.000000
30.717354	24.963688	11.188807	0.253491	-0.133480	3.079513	0.000000	-0.025220	0.000000	0.002553	-0.000044	0.000000	0.000000
31.015927	24.854123	11.259486	0.177279	-0.131847	3.074344	0.000000	-0.017348	0.000000	0.002541	-0.000037	0.000000	0.000000
31.349260	24.740547	11.357424	0.163446	-0.161966	3.068574	0.000000	-0.017348	0.000000	0.002529	-0.000037	0.000000	0.000000
31.682593	24.636194	11.475441	0.149613	-0.192086	3.062804	0.000000	-0.017348	0.000000	0.002517	-0.000037	0.000000	0.000000
32.017177	24.540723	11.614094	0.135728	-0.222318	3.057012	0.000000	-0.017348	0.000000	0.002504	-0.000037	0.000000	0.000000
32.314499	24.463686	11.754280	0.060815	-0.219123	3.051866	0.000000	-0.009541	0.000000	0.002493	-0.000031	0.000000	0.000000
32.863559	23.977917	12.234121	0.818597	-0.659938	3.021760	0.000000	-0.100094	0.000000	0.002454	-0.000111	0.000000	0.000000
33.412619	22.686941	13.220866	1.518549	-1.147762	2.942389	0.000000	-0.188873	0.000000	0.002371	-0.000189	0.000000	0.000000
33.961679	20.681966	14.784800	2.111223	-1.717343	2.815161	0.000000	-0.274305	0.000000	0.002247	-0.000264	0.000000	0.000000
34.510739	18.104637	17.037322	2.554751	-2.409253	2.642330	0.000000	-0.354875	0.000000	0.002082	-0.000334	0.000000	0.000000
34.956699	16.101190	19.052124	1.953524	-2.089675	2.500555	0.000000	-0.281879	0.000000	0.001945	-0.000282	0.000000	0.000000
35.397659	14.607454	20.718938	1.446586	-1.675803	2.391760	0.000000	-0.212525	0.000000	0.001831	-0.000233	0.000000	0.000000
35.838619	13.530096	21.985590	1.005746	-1.185680	2.312965	0.000000	-0.145589	0.000000	0.001739	-0.000187	0.000000	0.000000
36.279579	12.819887	22.794448	0.610861	-0.641607	2.263275	0.000000	-0.080310	0.000000	0.001666	-0.000143	0.000000	0.000000
36.721789	12.443690	23.109018	0.273829	-0.124164	2.242099	0.000000	-0.021358	0.000000	0.001612	-0.000105	0.000000	0.000000
37.019112	12.288496	23.186736	0.248144	-0.137229	2.235780	0.000000	-0.021358	0.000000	0.001580	-0.000105	0.000000	0.000000
37.352445	12.132665	23.283105	0.219348	-0.151876	2.228695	0.000000	-0.021358	0.000000	0.001545	-0.000105	0.000000	0.000000
37.685779	11.996031	23.389237	0.190552	-0.166522	2.221611	0.000000	-0.021358	0.000000	0.001510	-0.000105	0.000000	0.000000
38.020362	11.878190	23.505587	0.161649	-0.181224	2.214500	0.000000	-0.021358	0.000000	0.001475	-0.000105	0.000000	0.000000
38.317684	11.789703	23.617237	0.164479	-0.251448	2.208181	0.000000	-0.026699	0.000000	0.001444	-0.000109	0.000000	0.000000
38.758644	11.795198	23.577382	-0.177019	0.341485	2.210389	0.000000	0.036548	0.000000	0.001404	-0.000072	0.000000	0.000000
39.199604	12.104294	23.019478	-0.526605	0.918880	2.240536	0.000000	0.100211	0.000000	0.001380	-0.000036	0.000000	0.000000
39.640564	12.731111	21.968910	-0.900250	1.454464	2.298967	0.000000	0.165017	0.000000	0.001372	-0.000001	0.000000	0.000000
40.081524	13.704290	20.473480	-1.315029	1.923869	2.386347	0.000000	0.231701	0.000000	0.001380	0.000035	0.000000	0.000000
40.527484	15.085840	18.578630	-1.793734	2.307055	2.505145	0.000000	0.301435	0.000000	0.001403	0.000071	0.000000	0.000000
41.076544	16.849735	16.449216	-1.399733	1.594050	2.650068	0.000000	0.225765	0.000000	0.001430	0.000025	0.000000	0.000000
41.625604	18.123760	15.036210	-0.906857	0.994590	2.752305	0.000000	0.146090	0.000000	0.001431	-0.000021	0.000000	0.000000
42.174664	18.817916	14.238962	-0.349921	0.465975	2.810042	0.000000	0.063823	0.000000	0.001407	-0.000067	0.000000	0.000000
42.723724	18.883170	14.000683	0.231732	-0.029447	2.822254	0.000000	-0.019576	0.000000	0.001357	-0.000112	0.000000	0.000000
43.022297	18.778795	14.003028	0.166617	-0.014588	2.818618	0.000000	-0.012286	0.000000	0.001325	-0.000108	0.000000	0.000000
43.502297	18.631453	14.033489	0.140346	-0.048873	2.812773	0.000000	-0.012286	0.000000	0.001273	-0.000108	0.000000	0.000000
43.982297	18.509330	14.096864	0.114076	-0.083159	2.806927	0.000000	-0.012286	0.000000	0.001221	-0.000108	0.000000	0.000000
44.462297	18.412427	14.193154	0.087806	-0.117445	2.801082	0.000000	-0.012286	0.000000	0.001169	-0.000108	0.000000	0.000000
44.942297	18.340744	14.322358	0.061535	-0.151730	2.795236	0.000000	-0.012286	0.000000	0.001117	-0.000108	0.000000	0.000000
45.423547	18.294418	14.484762	-0.055444	-0.114339	2.789393	0.000000	0.001534	0.000000	0.001065	-0.000103	0.000000	0.000000
45.720870	18.332235	14.558935	-0.119229	-0.097445	2.789880	0.000000	0.008760	0.000000	0.001034	-0.000100	0.000000	0.000000
46.269930	18.154427	14.947494	0.441087	-0.614403	2.772142	0.000000	-0.073500	0.000000	0.000970	-0.000133	0.000000	0.000000
46.818990	17.374856	15.924298	0.970243	-1.175123	2.709545	0.000000	-0.154459	0.000000	0.000888	-0.000163	0.000000	0.000000
47.368050	16.048592	17.558923	1.430861	-1.819547	2.603200	0.000000	-0.232681	0.000000	0.000791	-0.000190	0.000000	0.000000
47.917110	14.269325	19.967798	1.790403	-2.593575	2.454990	0.000000	-0.306778	0.000000	0.000680	-0.000214	0.000000	0.000000
48.363070	12.884307	22.109432	1.326194	-2.188504	2.333580	0.000000	-0.238383	0.000000	0.000588	-0.000198	0.000000	0.000000
48.804030	11.894741	23.824096	0.926352	-1.685150	2.243023	0.000000	-0.173101	0.000000	0.000504	-0.000184	0.000000	0.000000
49.244990	11.237886	25.059202	0.568834	-1.105122	2.180786	0.000000	-0.109789	0.000000	0.000426	-0.000172	0.000000	0.000000
49.685950	10.883729	25.758555	0.237306	-0.474811	2.146161	0.000000	-0.047725	0.000000	0.000353	-0.000162	0.000000	0.000000
50.128160	10.816231	25.890050	-0.057042	0.113789	2.138765	0.000000	0.008566	0.000000	0.000283	-0.000154	0.000000	0.000000
50.425482	10.858350	25.825845	-0.084620	0.102156	2.141358	0.000000	0.008566	0.000000	0.000237	-0.000154	0.000000	0.000000
50.758816	10.925069	25.762088	-0.115538	0.089115	2.144265	0.000000	0.008566	0.000000	0.000186	-0.000154	0.000000	0.000000
51.092149	11.012400	25.707025	-0.146456	0.076073	2.147171	0.000000	0.008566	0.000000	0.000135	-0.000154	0.000000	0.000000
51.426732	11.120562	25.661020	-0.087273	-0.145192	2.150067	0.000000	-0.008877	0.000000	0.000083	-0.000155	0.000000	0.000000
51.724055	11.180468	25.750876	-0.086805	-0.220207	2.147474	0.000000	-0.014141	0.000000	0.000037	-0.000155	0.000000	0.000000
52.165015	11.402873	25.658580	-0.419523	0.428715	2.154911	0.000000	0.047605	0.000000	-0.000031	-0.000155	0.000000	0.000000
52.605975	11.926017	25.000437	-0.771407	1.058130	2.189670	0.000000	0.109896	0.000000	-0.000100	-0.000156	0.000000	0.000000
53.046935	12.773801	23.806393	-1.158533	1.639401	2.252148	0.000000	0.173440	0.000000	-0.000169	-0.000160	0.000000	0.000000
53.487895	13.984955	22.130776	-1.598587	2.146079	2.343056	0.000000	0.238961	0.000000	-0.000241	-0.000165	0.000000	0.000000
53.933855	15.635553	20.024778	-2.115926	2.556443	2.464938	0.000000	0.307603	0.000000	-0.000316	-0.000172	0.000000	0.000000
54.482915	17.760476	17.654977	-1.731377	1.785162	2.613705	0.000000	0.233178	0.000000	-0.000408	-0.000161	0.000000	0.000000
55.031975	19.393060	16.057757	-1.224537	1.141034	2.720403	0.000000	0.154614	0.000000	-0.000492	-0.000146	0.000000	0.000000
55.581035	20.417991	15.119353	-0.631208	0.578178	2.783138	0.000000	0.073305	0.000000	-0.000568	-0.000129	0.000000	0.000000
56.130095	20.762881	14.772921	0.006704	0.056505	2.800796	0.000000	-0.009306	0.000000	-0.000633	-0.000109	0.000000	0.000000
56.428668	20.795748	14.722084	-0.062246	0.074937	2.800248	0.000000	-0.001950	0.000000	-0.000666	-0.000111	0.000000	0.000000
56.762001	20.842609	14.679715	-0.078337	0.052168	2.799635	0.000000	-0.001950	0.000000	-0.000703	-0.000111	0.000000	0.000000
57.095334	20.900197	14.652526	-0.094428	0.029399	2.799022	0.000000	-0.001950	0.000000	-0.000740	-0.000111	0.000000	0.000000
57.429918	20.968789	14.640500	-0.110579	0.006545	2.798407	0.000000	-0.001950	0.000000	-0.000778	-0.000111	0.000000	0.000000
57.727240	21.038812	14.642646	-0.180275	0.024730	2.797860	0.000000	0.005410	0.000000	-0.000811	-0.000113	0.000000	0.000000
58.276300	20.877604	14.896624	0.472088	-0.490036	2.778211	0.000000	-0.077073	0.000000	-0.000865	-0.000086	0.000000	0.000000
58.825360	20.014194	15.731605	1.091105	-1.039705	2.713568	0.000000	-0.158190	0.000000	-0.000905	-0.000057	0.000000	0.000000
59.374420	18.509567	17.207059	1.633054	-1.663428	2.605077	0.000000	-0.236503	0.000000	-0.000928	-0.000028	0.000000	0.000000
59.923480	16.469999	19.428076	2.059655	-2.405630	2.454662	0.000000	-0.310621	0.000000	-0.000935	0.000002	0.000000	0.000000
60.369440	14.873226	21.402139	1.533584	-2.002275	2.331449	0.000000	-0.242266	0.000000	-0.000940	-0.000022	0.000000	0.000000
60.810400	13.724320	22.956440	1.081786	-1.509173	2.239099	0.000000	-0.177065	0.000000	-0.000955	-0.000046	0.000000	0.000000
61.251360	12.950638	24.043817	0.679411	-0.947407	2.175038	0.000000	-0.113879	0.000000	-0.000980	-0.000071	0.000000	0.000000
61.692320	12.516835	24.614795	0.308075	-0.342536	2.138539	0.000000	-0.051990	0.000000	-0.001017	-0.000097	0.000000	0.000000
62.134530	12.403137	24.642854	-0.018564	0.216869	2.129190	0.000000	0.004034	0.000000	-0.001066	-0.000121	0.000000	0.000000
62.431853	12.421306	24.517650	-0.042544	0.204236	2.130425	0.000000	0.004034	0.000000	-0.001102	-0.000121	0.000000	0.000000
62.765186	12.458630	24.386214	-0.069428	0.190073	2.131810	0.000000	0.004034	0.000000	-0.001143	-0.000121	0.000000	0.000000
63.098520	12.513877	24.264219	-0.096312	0.175911	2.133195	0.000000	0.004034	0.000000	-0.001183	-0.000121	0.000000	0.000000
63.433103	12.587355	24.151262	-0.123297	0.161695	2.134586	0.000000	0.004034	0.000000	-0.001224	-0.000121	0.000000	0.000000
63.730426	12.667802	24.058868	-0.115843	0.089322	2.135821	0.000000	-0.001265	0.000000	-0.001260	-0.000118	0.000000	0.000000
64.171386	12.931014	23.715154	-0.483388	0.687194	2.148871	0.000000	0.060251	0.000000	-0.001319	-0.000151	0.000000	0.000000
64.612346	13.526834	22.856000	-0.873016	1.253801	2.189187	0.000000	0.122455	0.000000	-0.001393	-0.000186	0.000000	0.000000
65.053306	14.482480	21.520497	-1.302524	1.763363	2.257229	0.000000	0.186056	0.000000	-0.001484	-0.000223	0.000000	0.000000
65.494266	15.841604	19.769408	-1.791536	2.192695	2.353773	0.000000	0.251779	0.000000	-0.001591	-0.000263	0.000000	0.000000
65.940226	17.689491	17.657631	-2.367052	2.522981	2.481491	0.000000	0.320768	0.000000	-0.001717	-0.000306	0.000000	0.000000
66.489286	20.057463	15.295277	-1.920454	1.805067	2.637374	0.000000	0.245694	0.000000	-0.001870	-0.000248	0.000000	0.000000
67.038346	21.857204	13.646463	-1.338221	1.215718	2.750746	0.000000	0.166259	0.000000	-0.001989	-0.000185	0.000000	0.000000
67.587406	22.961609	12.593749	-0.661475	0.712958	2.819594	0.000000	0.083872	0.000000	-0.002072	-0.000119	0.000000	0.000000
68.136466	23.292682	12.062154	0.061988	0.260977	2.842697	0.000000	-0.000005	0.000000	-0.002119	-0.000052	0.000000	0.000000
68.435038	23.296474	11.895182	-0.012765	0.266180	2.844969	0.000000	0.007554	0.000000	-0.002136	-0.000057	0.000000	0.000000
68.768372	23.309754	11.727731	-0.027075	0.236172	2.847506	0.000000	0.007554	0.000000	-0.002156	-0.000057	0.000000	0.000000
69.101705	23.332575	11.580286	-0.041386	0.206164	2.850043	0.000000	0.007554	0.000000	-0.002175	-0.000057	0.000000	0.000000
69.436288	23.365075	11.452405	-0.055750	0.176044	2.852590	0.000000	0.007554	0.000000	-0.002194	-0.000057	0.000000	0.000000
69.733611	23.402025	11.355678	-0.130786	0.179484	2.854853	0.000000	0.015151	0.000000	-0.002211	-0.000063	0.000000	0.000000
70.282671	23.143746	11.386017	0.598400	-0.235068	2.839993	0.000000	-0.069253	0.000000	-0.002226	0.000009	0.000000	0.000000
