#ParticleID	Turn	x[m]	xp	y[m]	yp	z[m]	dE[GeV]# s	beta_x	beta_y	alpha_x	alpha_y	D_x	D_y	D_px	D_py	orbit_x	orbit_px	orbit_y	orbit_py
0.300000	11.965215	25.323329	-0.019284	-0.021903	2.598512	0.000000	0.000170	0.000000	-0.000970	0.000838	0.000000	0.000000
0.601250	11.984421	25.340111	-0.044471	-0.033805	2.598311	0.000000	0.000170	0.000000	-0.000717	0.000838	0.000000	0.000000
0.898573	12.018257	25.363706	-0.039726	-0.107722	2.598112	0.000000	-0.006230	0.000000	-0.000468	0.000839	0.000000	0.000000
1.339533	12.207220	25.177206	-0.390140	0.529053	2.611189	0.000000	0.067206	0.000000	-0.000100	0.000832	0.000000	0.000000
1.780493	12.711890	24.437629	-0.758384	1.141761	2.656786	0.000000	0.141399	0.000000	0.000267	0.000834	0.000000	0.000000
2.221453	13.555332	23.178615	-1.161283	1.702521	2.735418	0.000000	0.217193	0.000000	0.000637	0.000846	0.000000	0.000000
2.662413	14.776089	21.457441	-1.617247	2.185820	2.847978	0.000000	0.295452	0.000000	0.001014	0.000867	0.000000	0.000000
3.108373	16.451033	19.327197	-2.151484	2.570838	2.997589	0.000000	0.377557	0.000000	0.001408	0.000898	0.000000	0.000000
3.657433	18.598034	16.934198	-1.735155	1.813140	3.179386	0.000000	0.285330	0.000000	0.001887	0.000845	0.000000	0.000000
4.206493	20.217428	15.297874	-1.196236	1.184590	3.309114	0.000000	0.188055	0.000000	0.002333	0.000777	0.000000	0.000000
4.755553	21.194794	14.301679	-0.572796	0.640418	3.384479	0.000000	0.087457	0.000000	0.002737	0.000694	0.000000	0.000000
5.304613	21.461066	13.874662	0.091122	0.141863	3.404149	0.000000	-0.014682	0.000000	0.003093	0.000600	0.000000	0.000000
5.603185	21.443417	13.775569	0.022582	0.154854	3.402170	0.000000	-0.006019	0.000000	0.003275	0.000608	0.000000	0.000000
5.936519	21.433546	13.680593	0.007029	0.130076	3.399961	0.000000	-0.006019	0.000000	0.003477	0.000608	0.000000	0.000000
6.269852	21.434045	13.602135	-0.008524	0.105298	3.397752	0.000000	-0.006019	0.000000	0.003680	0.000608	0.000000	0.000000
6.604435	21.444972	13.539994	-0.024135	0.080428	3.395534	0.000000	-0.006019	0.000000	0.003883	0.000608	0.000000	0.000000
6.901758	21.463458	13.498732	-0.092155	0.092503	3.393565	0.000000	0.002542	0.000000	0.004064	0.000618	0.000000	0.000000
7.450818	21.198647	13.659004	0.571906	-0.386111	3.366716	0.000000	-0.099141	0.000000	0.004367	0.000482	0.000000	0.000000
7.999878	20.222487	14.356818	1.195573	-0.892233	3.284511	0.000000	-0.199058	0.000000	0.004592	0.000337	0.000000	0.000000
8.548938	18.603937	15.641886	1.734781	-1.461916	3.148411	0.000000	-0.295438	0.000000	0.004735	0.000186	0.000000	0.000000
9.097998	16.457348	17.605758	2.151432	-2.135743	2.960832	0.000000	-0.386574	0.000000	0.004795	0.000031	0.000000	0.000000
9.543958	14.782654	19.355416	1.616979	-1.770763	2.806560	0.000000	-0.305459	0.000000	0.004837	0.000156	0.000000	0.000000
9.984918	13.562320	20.726528	1.160866	-1.326565	2.688882	0.000000	-0.228324	0.000000	0.004933	0.000282	0.000000	0.000000
10.425878	12.719461	21.677646	0.757798	-0.821999	2.604561	0.000000	-0.153792	0.000000	0.005086	0.000411	0.000000	0.000000
10.866838	12.215561	22.165488	0.389356	-0.280027	2.552632	0.000000	-0.081017	0.000000	0.005296	0.000545	0.000000	0.000000
11.309048	12.027441	22.167273	0.066520	0.222958	2.532486	0.000000	-0.015049	0.000000	0.005568	0.000672	0.000000	0.000000
11.606371	11.995268	22.038877	0.041690	0.208879	2.527812	0.000000	-0.015049	0.000000	0.005768	0.000672	0.000000	0.000000
12.086371	11.974486	21.849264	0.001605	0.186149	2.520265	0.000000	-0.015049	0.000000	0.006090	0.000672	0.000000	0.000000
12.566371	11.992187	21.681471	-0.038481	0.163419	2.512719	0.000000	-0.015049	0.000000	0.006413	0.000672	0.000000	0.000000
13.046371	12.048370	21.535499	-0.078566	0.140689	2.505173	0.000000	-0.015049	0.000000	0.006735	0.000672	0.000000	0.000000
13.526371	12.143034	21.411348	-0.118652	0.117959	2.497627	0.000000	-0.015049	0.000000	0.007058	0.000672	0.000000	0.000000
14.007621	12.276578	21.308780	-0.158841	0.095170	2.490061	0.000000	-0.015049	0.000000	0.007381	0.000672	0.000000	0.000000
14.304943	12.378394	21.256409	-0.155536	0.032969	2.485385	0.000000	-0.020698	0.000000	0.007581	0.000654	0.000000	0.000000
14.745903	12.674325	20.994835	-0.517773	0.557901	2.491466	0.000000	0.049756	0.000000	0.007913	0.000854	0.000000	0.000000
15.186863	13.298989	20.279727	-0.903681	1.057445	2.528625	0.000000	0.120769	0.000000	0.008335	0.001063	0.000000	0.000000
15.627823	14.280949	19.143621	-1.330899	1.508869	2.597282	0.000000	0.193146	0.000000	0.008852	0.001285	0.000000	0.000000
16.068783	15.665106	17.638212	-1.818957	1.891625	2.698214	0.000000	0.267709	0.000000	0.009471	0.001521	0.000000	0.000000
16.514743	17.538384	15.810384	-2.395111	2.189231	2.834261	0.000000	0.345799	0.000000	0.010205	0.001776	0.000000	0.000000
17.063803	19.943601	13.770273	-1.958016	1.547776	2.999749	0.000000	0.259103	0.000000	0.011087	0.001431	0.000000	0.000000
17.612863	21.789401	12.370315	-1.382522	1.016594	3.116492	0.000000	0.167833	0.000000	0.011772	0.001061	0.000000	0.000000
18.161923	22.945285	11.510782	-0.709300	0.557842	3.182426	0.000000	0.073601	0.000000	0.012249	0.000671	0.000000	0.000000
18.710983	23.329525	11.130442	0.014065	0.138836	3.196389	0.000000	-0.021925	0.000000	0.012508	0.000270	0.000000	0.000000
19.009556	23.357306	11.040355	-0.053111	0.137172	3.191969	0.000000	-0.014477	0.000000	0.012598	0.000301	0.000000	0.000000
19.342889	23.397484	10.959161	-0.067423	0.106411	3.187043	0.000000	-0.014477	0.000000	0.012698	0.000301	0.000000	0.000000
19.676223	23.447203	10.898473	-0.081734	0.075651	3.182117	0.000000	-0.014477	0.000000	0.012798	0.000301	0.000000	0.000000
20.010806	23.506994	10.858046	-0.212566	0.098573	3.177192	0.000000	0.001264	0.000000	0.012899	0.000365	0.000000	0.000000
20.308129	23.637443	10.807597	-0.280578	0.096041	3.177467	0.000000	0.008630	0.000000	0.013008	0.000397	0.000000	0.000000
20.857189	23.538078	10.921715	0.460571	-0.305071	3.156048	0.000000	-0.086164	0.000000	0.013110	-0.000026	0.000000	0.000000
21.406249	22.637668	11.485664	1.169169	-0.727920	3.083139	0.000000	-0.179430	0.000000	0.012979	-0.000449	0.000000	0.000000
21.955309	20.999868	12.539625	1.795127	-1.202635	2.960030	0.000000	-0.269519	0.000000	0.012619	-0.000863	0.000000	0.000000
22.504369	18.740470	14.158686	2.294199	-1.763039	2.788904	0.000000	-0.354839	0.000000	0.012034	-0.001263	0.000000	0.000000
22.950329	16.961937	15.613281	1.706571	-1.484257	2.648320	0.000000	-0.277974	0.000000	0.011539	-0.000957	0.000000	0.000000
23.391289	15.683886	16.774633	1.201914	-1.138984	2.542315	0.000000	-0.204757	0.000000	0.011182	-0.000664	0.000000	0.000000
23.832249	14.825221	17.607317	0.752203	-0.741873	2.467936	0.000000	-0.133866	0.000000	0.010952	-0.000379	0.000000	0.000000
24.273209	14.346678	18.073437	0.336877	-0.310998	2.424337	0.000000	-0.064496	0.000000	0.010847	-0.000098	0.000000	0.000000
24.715418	14.226505	18.151484	-0.031935	0.094106	2.411025	0.000000	-0.001148	0.000000	0.010866	0.000157	0.000000	0.000000
25.012741	14.251716	18.100437	-0.052856	0.077581	2.410637	0.000000	-0.001148	0.000000	0.010913	0.000157	0.000000	0.000000
25.346075	14.294771	18.054893	-0.076310	0.059054	2.410202	0.000000	-0.001148	0.000000	0.010965	0.000157	0.000000	0.000000
25.679408	14.353463	18.021699	-0.099764	0.040527	2.409767	0.000000	-0.001148	0.000000	0.011017	0.000157	0.000000	0.000000
26.013991	14.427806	18.001166	-0.006259	-0.124103	2.409306	0.000000	-0.020694	0.000000	0.011070	0.000067	0.000000	0.000000
26.311314	14.437603	18.080015	0.004718	-0.180417	2.403128	0.000000	-0.025951	0.000000	0.011090	0.000041	0.000000	0.000000
26.752274	14.611950	18.043289	-0.401459	0.263374	2.406664	0.000000	0.042355	0.000000	0.011171	0.000328	0.000000	0.000000
27.193234	15.151334	17.618922	-0.825989	0.695180	2.440279	0.000000	0.111142	0.000000	0.011380	0.000619	0.000000	0.000000
27.634194	16.080421	16.826224	-1.288280	1.095346	2.504355	0.000000	0.181187	0.000000	0.011718	0.000917	0.000000	0.000000
28.075154	17.441698	15.701267	-1.809469	1.445661	2.599619	0.000000	0.253287	0.000000	0.012190	0.001225	0.000000	0.000000
28.521114	19.321336	14.278123	-2.418555	1.731331	2.728770	0.000000	0.328743	0.000000	0.012808	0.001549	0.000000	0.000000
29.070174	21.711642	12.693321	-1.907502	1.171555	2.886000	0.000000	0.245594	0.000000	0.013543	0.001122	0.000000	0.000000
29.619234	23.462709	11.674147	-1.261609	0.695254	2.996538	0.000000	0.158106	0.000000	0.014037	0.000675	0.000000	0.000000
30.168294	24.450725	11.147992	-0.526533	0.268492	3.058431	0.000000	0.067822	0.000000	0.014283	0.000217	0.000000	0.000000
30.717354	24.605829	11.077372	0.245763	-0.139139	3.070583	0.000000	-0.023661	0.000000	0.014275	-0.000246	0.000000	0.000000
31.015927	24.496302	11.153515	0.176886	-0.141051	3.065671	0.000000	-0.016634	0.000000	0.014212	-0.000211	0.000000	0.000000
31.349260	24.383056	11.257709	0.162853	-0.171531	3.060196	0.000000	-0.016634	0.000000	0.014141	-0.000211	0.000000	0.000000
31.682593	24.279165	11.382223	0.148820	-0.202012	3.054722	0.000000	-0.016634	0.000000	0.014071	-0.000211	0.000000	0.000000
32.017177	24.184293	11.527639	0.134734	-0.232606	3.049227	0.000000	-0.016634	0.000000	0.014000	-0.000211	0.000000	0.000000
32.314499	24.108033	11.673974	0.066854	-0.233016	3.044353	0.000000	-0.009643	0.000000	0.013937	-0.000177	0.000000	0.000000
32.863559	23.621846	12.168292	0.812944	-0.672420	3.014417	0.000000	-0.099987	0.000000	0.013717	-0.000625	0.000000	0.000000
33.412619	22.342917	13.168544	1.501563	-1.159736	2.935513	0.000000	-0.188566	0.000000	0.013253	-0.001062	0.000000	0.000000
33.961679	20.361679	14.745988	2.084036	-1.729684	2.809036	0.000000	-0.273817	0.000000	0.012554	-0.001480	0.000000	0.000000
34.510739	17.818217	17.013001	2.519192	-2.422870	2.637220	0.000000	-0.354233	0.000000	0.011632	-0.001872	0.000000	0.000000
34.956699	15.842208	19.041206	1.925881	-2.105259	2.496296	0.000000	-0.281315	0.000000	0.010863	-0.001580	0.000000	0.000000
35.397659	14.369349	20.722665	1.425779	-1.692829	2.388220	0.000000	-0.212048	0.000000	0.010226	-0.001308	0.000000	0.000000
35.838619	13.307380	22.004831	0.990857	-1.203359	2.310023	0.000000	-0.145183	0.000000	0.009706	-0.001051	0.000000	0.000000
36.279579	12.607740	22.829362	0.601233	-0.659125	2.260819	0.000000	-0.079960	0.000000	0.009297	-0.000806	0.000000	0.000000
36.721789	12.237797	23.159029	0.266384	-0.136615	2.240030	0.000000	-0.020655	0.000000	0.008993	-0.000592	0.000000	0.000000
37.019112	12.087130	23.244154	0.240364	-0.149693	2.234064	0.000000	-0.020655	0.000000	0.008817	-0.000592	0.000000	0.000000
37.352445	11.936610	23.348837	0.211193	-0.164354	2.227377	0.000000	-0.020655	0.000000	0.008620	-0.000592	0.000000	0.000000
37.685779	11.805538	23.463294	0.182023	-0.179016	2.220689	0.000000	-0.020655	0.000000	0.008423	-0.000592	0.000000	0.000000
38.020362	11.693531	23.588009	0.152742	-0.193733	2.213976	0.000000	-0.020655	0.000000	0.008225	-0.000592	0.000000	0.000000
38.317684	11.610418	23.707145	0.152984	-0.260634	2.208009	0.000000	-0.025649	0.000000	0.008049	-0.000611	0.000000	0.000000
38.758644	11.624248	23.674285	-0.184632	0.334861	2.210861	0.000000	0.037612	0.000000	0.007825	-0.000406	0.000000	0.000000
39.199604	11.938470	23.120928	-0.530683	0.915116	2.241594	0.000000	0.101306	0.000000	0.007690	-0.000206	0.000000	0.000000
39.640564	12.567445	22.072259	-0.900986	1.453723	2.300560	0.000000	0.166156	0.000000	0.007643	-0.000008	0.000000	0.000000
40.081524	13.539920	20.576002	-1.312466	1.926173	2.388432	0.000000	0.232899	0.000000	0.007682	0.000189	0.000000	0.000000
40.527484	14.917909	18.677505	-1.787878	2.312462	2.507695	0.000000	0.302724	0.000000	0.007812	0.000390	0.000000	0.000000
41.076544	16.679105	16.543541	-1.400307	1.596622	2.653197	0.000000	0.226946	0.000000	0.007956	0.000135	0.000000	0.000000
41.625604	17.957398	15.129033	-0.913790	0.994530	2.756056	0.000000	0.147144	0.000000	0.007959	-0.000123	0.000000	0.000000
42.174664	18.662453	14.333208	-0.362708	0.463293	2.814446	0.000000	0.064729	0.000000	0.007821	-0.000379	0.000000	0.000000
42.723724	18.744452	14.099369	0.213996	-0.034935	2.827330	0.000000	-0.018840	0.000000	0.007544	-0.000628	0.000000	0.000000
43.022297	18.648882	14.105920	0.151801	-0.021519	2.823948	0.000000	-0.011930	0.000000	0.007363	-0.000609	0.000000	0.000000
43.502297	18.515792	14.142919	0.125469	-0.055563	2.818513	0.000000	-0.011930	0.000000	0.007070	-0.000609	0.000000	0.000000
43.982297	18.407981	14.212601	0.099138	-0.089607	2.813079	0.000000	-0.011930	0.000000	0.006778	-0.000609	0.000000	0.000000
44.462297	18.325448	14.314965	0.072806	-0.123651	2.807645	0.000000	-0.011930	0.000000	0.006486	-0.000609	0.000000	0.000000
44.942297	18.268194	14.450012	0.046474	-0.157695	2.802211	0.000000	-0.011930	0.000000	0.006194	-0.000609	0.000000	0.000000
45.423547	18.236394	14.618039	-0.070280	-0.119401	2.796780	0.000000	0.001927	0.000000	0.005901	-0.000579	0.000000	0.000000
45.720870	18.283075	14.695160	-0.132108	-0.103626	2.797527	0.000000	0.008881	0.000000	0.005729	-0.000565	0.000000	0.000000
46.269930	18.120004	15.092888	0.426985	-0.624973	2.780066	0.000000	-0.073644	0.000000	0.005368	-0.000745	0.000000	0.000000
46.818990	17.355907	16.084099	0.955898	-1.190838	2.717672	0.000000	-0.154873	0.000000	0.004913	-0.000911	0.000000	0.000000
47.368050	16.044791	17.739391	1.417260	-1.841532	2.611445	0.000000	-0.233371	0.000000	0.004371	-0.001062	0.000000	0.000000
47.917110	14.279313	20.176666	1.778478	-2.623405	2.463263	0.000000	-0.307745	0.000000	0.003751	-0.001193	0.000000	0.000000
48.363070	12.904311	22.343055	1.315086	-2.213773	2.341873	0.000000	-0.239124	0.000000	0.003239	-0.001103	0.000000	0.000000
48.804030	11.924175	24.077666	0.915604	-1.704801	2.251406	0.000000	-0.173624	0.000000	0.002770	-0.001025	0.000000	0.000000
49.244990	11.276677	25.327324	0.557967	-1.118260	2.189333	0.000000	-0.110090	0.000000	0.002333	-0.000959	0.000000	0.000000
49.685950	10.932219	26.035178	0.225831	-0.480839	2.154951	0.000000	-0.047801	0.000000	0.001923	-0.000905	0.000000	0.000000
50.128160	10.875230	26.168738	-0.069816	0.115490	2.147884	0.000000	0.008764	0.000000	0.001533	-0.000864	0.000000	0.000000
50.425482	10.924915	26.103486	-0.097289	0.103977	2.150746	0.000000	0.008764	0.000000	0.001276	-0.000864	0.000000	0.000000
50.758816	11.000041	26.038470	-0.128089	0.091069	2.153956	0.000000	0.008764	0.000000	0.000988	-0.000864	0.000000	0.000000
51.092149	11.095701	25.982060	-0.158889	0.078161	2.157165	0.000000	0.008764	0.000000	0.000700	-0.000864	0.000000	0.000000
51.426732	11.212141	25.934618	-0.098845	-0.145189	2.160364	0.000000	-0.008762	0.000000	0.000411	-0.000867	0.000000	0.000000
51.724055	11.278880	26.024435	-0.098003	-0.220944	2.158017	0.000000	-0.014047	0.000000	0.000154	-0.000867	0.000000	0.000000
52.165015	11.512139	25.929593	-0.433266	0.435206	2.165861	0.000000	0.047977	0.000000	-0.000229	-0.000868	0.000000	0.000000
52.605975	12.048642	25.262640	-0.788318	1.071550	2.201153	0.000000	0.110556	0.000000	-0.000614	-0.000879	0.000000	0.000000
53.046935	12.912890	24.053929	-1.179378	1.659138	2.264300	0.000000	0.174404	0.000000	-0.001006	-0.000900	0.000000	0.000000
53.487895	14.144358	22.358465	-1.624311	2.171235	2.356024	0.000000	0.240248	0.000000	-0.001409	-0.000931	0.000000	0.000000
53.933855	15.820346	20.228055	-2.147715	2.585853	2.478892	0.000000	0.309234	0.000000	-0.001833	-0.000973	0.000000	0.000000
54.482915	17.977601	17.830365	-1.758593	1.806952	2.628834	0.000000	0.234343	0.000000	-0.002350	-0.000906	0.000000	0.000000
55.031975	19.636414	16.212720	-1.245283	1.156754	2.736409	0.000000	0.155281	0.000000	-0.002825	-0.000822	0.000000	0.000000
55.581035	20.679651	15.259891	-0.644039	0.588946	2.799701	0.000000	0.073451	0.000000	-0.003249	-0.000723	0.000000	0.000000
56.130095	21.033657	14.904005	0.002675	0.063086	2.817583	0.000000	-0.009693	0.000000	-0.003617	-0.000612	0.000000	0.000000
56.428668	21.070106	14.848355	-0.068169	0.083079	2.817138	0.000000	-0.002110	0.000000	-0.003802	-0.000622	0.000000	0.000000
56.762001	21.120850	14.800504	-0.084063	0.060475	2.816642	0.000000	-0.002110	0.000000	-0.004009	-0.000622	0.000000	0.000000
57.095334	21.182190	14.767723	-0.099957	0.037870	2.816146	0.000000	-0.002110	0.000000	-0.004217	-0.000622	0.000000	0.000000
57.429918	21.254415	14.749972	-0.115910	0.015181	2.815648	0.000000	-0.002110	0.000000	-0.004425	-0.000622	0.000000	0.000000
57.727240	21.327569	14.746930	-0.187936	0.034888	2.815207	0.000000	0.005526	0.000000	-0.004609	-0.000634	0.000000	0.000000
58.276300	21.169313	14.991315	0.474141	-0.482643	2.795711	0.000000	-0.077511	0.000000	-0.004916	-0.000480	0.000000	0.000000
58.825360	20.298296	15.819395	1.102724	-1.034545	2.730851	0.000000	-0.159182	0.000000	-0.005135	-0.000317	0.000000	0.000000
59.374420	18.776035	17.290139	1.653427	-1.660123	2.621774	0.000000	-0.238035	0.000000	-0.005262	-0.000148	0.000000	0.000000
59.923480	16.710027	19.508288	2.087362	-2.403929	2.470411	0.000000	-0.312669	0.000000	-0.005297	0.000023	0.000000	0.000000
60.369440	15.091571	21.479555	1.554760	-1.997864	2.346388	0.000000	-0.243938	0.000000	-0.005318	-0.000115	0.000000	0.000000
60.810400	13.926575	23.028710	1.097342	-1.502178	2.253453	0.000000	-0.178367	0.000000	-0.005399	-0.000253	0.000000	0.000000
61.251360	13.141390	24.108825	0.690050	-0.938156	2.189014	0.000000	-0.114824	0.000000	-0.005541	-0.000394	0.000000	0.000000
61.692320	12.700154	24.670766	0.314280	-0.331456	2.152341	0.000000	-0.052584	0.000000	-0.005747	-0.000540	0.000000	0.000000
62.134530	12.582760	24.688381	-0.014644	0.226578	2.143025	0.000000	0.003512	0.000000	-0.006019	-0.000676	0.000000	0.000000
62.431853	12.598495	24.557412	-0.038278	0.213917	2.144270	0.000000	0.003512	0.000000	-0.006220	-0.000676	0.000000	0.000000
62.765186	12.632846	24.419533	-0.064775	0.199722	2.145666	0.000000	0.003512	0.000000	-0.006445	-0.000676	0.000000	0.000000
63.098520	12.684862	24.291116	-0.091272	0.185527	2.147062	0.000000	0.003512	0.000000	-0.006670	-0.000676	0.000000	0.000000
63.433103	12.754837	24.171735	-0.117869	0.171279	2.148464	0.000000	0.003512	0.000000	-0.006897	-0.000676	0.000000	0.000000
63.730426	12.831936	24.073685	-0.107965	0.095464	2.149707	0.000000	-0.002106	0.000000	-0.007098	-0.000658	0.000000	0.000000
64.171386	13.089645	23.724482	-0.479019	0.693519	2.162726	0.000000	0.059758	0.000000	-0.007429	-0.000845	0.000000	0.000000
64.612346	13.682893	22.859852	-0.871944	1.260023	2.203229	0.000000	0.122312	0.000000	-0.007844	-0.001042	0.000000	0.000000
65.053306	14.638761	21.519137	-1.304684	1.769205	2.271681	0.000000	0.186270	0.000000	-0.008350	-0.001251	0.000000	0.000000
65.494266	16.000886	19.763333	-1.796998	2.197906	2.368867	0.000000	0.252363	0.000000	-0.008950	-0.001474	0.000000	0.000000
65.940226	17.854794	17.647437	-2.375856	2.527175	2.497487	0.000000	0.321716	0.000000	-0.009660	-0.001715	0.000000	0.000000
66.489286	20.228486	15.280913	-1.923204	1.809018	2.654409	0.000000	0.246130	0.000000	-0.010513	-0.001388	0.000000	0.000000
67.038346	22.027291	13.627985	-1.334796	1.219683	2.768385	0.000000	0.166156	0.000000	-0.011180	-0.001037	0.000000	0.000000
67.587406	23.124268	12.570931	-0.652172	0.717199	2.837386	0.000000	0.083220	0.000000	-0.011648	-0.000667	0.000000	0.000000
68.136466	23.442010	12.034469	0.076480	0.265786	2.860184	0.000000	-0.001203	0.000000	-0.011910	-0.000286	0.000000	0.000000
68.435038	23.440157	11.863262	-0.003429	0.273270	2.862361	0.000000	0.006993	0.000000	-0.012005	-0.000318	0.000000	0.000000
68.768372	23.447183	11.691148	-0.017650	0.243073	2.864798	0.000000	0.006993	0.000000	-0.012111	-0.000318	0.000000	0.000000
69.101705	23.463690	11.539164	-0.031871	0.212877	2.867234	0.000000	0.006993	0.000000	-0.012217	-0.000318	0.000000	0.000000
69.436288	23.489793	11.406855	-0.046145	0.182568	2.869681	0.000000	0.006993	0.000000	-0.012324	-0.000318	0.000000	0.000000
69.733611	23.521111	11.306249	-0.126467	0.188093	2.871861	0.000000	0.015251	0.000000	-0.012418	-0.000352	0.000000	0.000000
70.282671	23.256075	11.326312	0.606304	-0.224855	2.856980	0.000000	-0.069677	0.000000	-0.012501	0.000051	0.000000	0.000000
