#ParticleID	Turn	x[m]	xp	y[m]	yp	z[m]	dE[GeV]# s	beta_x	beta_y	alpha_x	alpha_y	D_x	D_y	D_px	D_py	orbit_x	orbit_px	orbit_y	orbit_py
0.300000	11.836560	24.941413	-0.013927	-0.027715	2.618163	0.000000	-0.000071	0.000000	-0.000007	0.000007	0.000000	0.000000
0.601250	11.852620	24.961752	-0.039383	-0.039802	2.618140	0.000000	-0.000071	0.000000	-0.000005	0.000007	0.000000	0.000000
0.898573	11.883509	24.988967	-0.035364	-0.113012	2.618117	0.000000	-0.006492	0.000000	-0.000003	0.000007	0.000000	0.000000
1.339533	12.067111	24.811484	-0.382583	0.513974	2.631544	0.000000	0.067465	0.000000	-0.000000	0.000007	0.000000	0.000000
1.780493	12.563454	24.089287	-0.747281	1.117575	2.677722	0.000000	0.142190	0.000000	0.000003	0.000007	0.000000	0.000000
2.221453	13.395215	22.855238	-1.146121	1.670327	2.757176	0.000000	0.218535	0.000000	0.000006	0.000007	0.000000	0.000000
2.662413	14.600393	21.165483	-1.597323	2.147081	2.870812	0.000000	0.297368	0.000000	0.000009	0.000007	0.000000	0.000000
3.108373	16.254875	19.072122	-2.125806	2.527274	3.021783	0.000000	0.380078	0.000000	0.000012	0.000007	0.000000	0.000000
3.657433	18.376411	16.721100	-1.715258	1.779906	3.205195	0.000000	0.287048	0.000000	0.000016	0.000007	0.000000	0.000000
4.206493	19.977513	15.116760	-1.183554	1.159317	3.336053	0.000000	0.188926	0.000000	0.000019	0.000006	0.000000	0.000000
4.755553	20.945087	14.144829	-0.568248	0.621303	3.412036	0.000000	0.087453	0.000000	0.000023	0.000006	0.000000	0.000000
5.304613	21.210788	13.736080	0.087196	0.127544	3.431797	0.000000	-0.015571	0.000000	0.000025	0.000005	0.000000	0.000000
5.603185	21.196014	13.645155	0.017697	0.141108	3.429823	0.000000	-0.006606	0.000000	0.000027	0.000005	0.000000	0.000000
5.936519	21.189459	13.559388	0.001966	0.116193	3.427619	0.000000	-0.006606	0.000000	0.000028	0.000005	0.000000	0.000000
6.269852	21.193393	13.490231	-0.013765	0.091278	3.425416	0.000000	-0.006606	0.000000	0.000030	0.000005	0.000000	0.000000
6.604435	21.207887	13.437519	-0.029555	0.066269	3.423204	0.000000	-0.006606	0.000000	0.000032	0.000005	0.000000	0.000000
6.901758	21.229634	13.404719	-0.099041	0.079061	3.421238	0.000000	0.002331	0.000000	0.000033	0.000005	0.000000	0.000000
7.450818	20.976475	13.578334	0.557391	-0.397131	3.394318	0.000000	-0.100235	0.000000	0.000036	0.000004	0.000000	0.000000
7.999878	20.019929	14.287238	1.174451	-0.901611	3.311490	0.000000	-0.201023	0.000000	0.000037	0.000003	0.000000	0.000000
8.548938	18.427560	15.581923	1.708553	-1.470310	3.174223	0.000000	-0.298245	0.000000	0.000039	0.000001	0.000000	0.000000
9.097998	16.311846	17.554608	2.121972	-2.143736	2.984951	0.000000	-0.390177	0.000000	0.000039	0.000000	0.000000	0.000000
9.543958	14.661035	19.312451	1.592890	-1.781311	2.829251	0.000000	-0.308484	0.000000	0.000039	0.000001	0.000000	0.000000
9.984918	13.460105	20.693670	1.140885	-1.339066	2.710465	0.000000	-0.230788	0.000000	0.000040	0.000002	0.000000	0.000000
10.425878	12.633403	21.656405	0.741004	-0.835895	2.625327	0.000000	-0.155721	0.000000	0.000041	0.000003	0.000000	0.000000
10.866838	12.143160	22.156853	0.374977	-0.294692	2.572868	0.000000	-0.082428	0.000000	0.000043	0.000004	0.000000	0.000000
11.309048	11.966840	22.171731	0.055311	0.205510	2.552471	0.000000	-0.016330	0.000000	0.000045	0.000005	0.000000	0.000000
11.606371	11.941359	22.053681	0.030389	0.191534	2.547614	0.000000	-0.016330	0.000000	0.000047	0.000005	0.000000	0.000000
12.086371	11.931497	21.880639	-0.009844	0.168970	2.539773	0.000000	-0.016330	0.000000	0.000049	0.000005	0.000000	0.000000
12.566371	11.960260	21.729258	-0.050078	0.146407	2.531932	0.000000	-0.016330	0.000000	0.000052	0.000005	0.000000	0.000000
13.046371	12.027646	21.599538	-0.090311	0.123843	2.524091	0.000000	-0.016330	0.000000	0.000054	0.000005	0.000000	0.000000
13.526371	12.133657	21.491480	-0.130545	0.101279	2.516251	0.000000	-0.016330	0.000000	0.000057	0.000005	0.000000	0.000000
14.007621	12.278719	21.404885	-0.170883	0.078657	2.508389	0.000000	-0.016330	0.000000	0.000060	0.000005	0.000000	0.000000
14.304943	12.387744	21.362267	-0.165444	0.012326	2.503533	0.000000	-0.022465	0.000000	0.000061	0.000005	0.000000	0.000000
14.745903	12.692440	21.117556	-0.528158	0.540512	2.509251	0.000000	0.048438	0.000000	0.000064	0.000007	0.000000	0.000000
15.186863	13.326413	20.416133	-0.915003	1.044106	2.546326	0.000000	0.119893	0.000000	0.000067	0.000009	0.000000	0.000000
15.627823	14.318628	19.289913	-1.343652	1.500193	2.615181	0.000000	0.192714	0.000000	0.000071	0.000010	0.000000	0.000000
16.068783	15.714416	17.790137	-1.833688	1.888022	2.716598	0.000000	0.267730	0.000000	0.000076	0.000012	0.000000	0.000000
16.514743	17.601201	15.963545	-2.412261	2.190700	2.853428	0.000000	0.346257	0.000000	0.000082	0.000014	0.000000	0.000000
17.063803	20.024164	13.923845	-1.974533	1.546117	3.019815	0.000000	0.258957	0.000000	0.000089	0.000011	0.000000	0.000000
17.612863	21.886550	12.527711	-1.397333	1.011661	3.136938	0.000000	0.167064	0.000000	0.000095	0.000009	0.000000	0.000000
18.161923	23.056810	11.675697	-0.721431	0.549264	3.202719	0.000000	0.072208	0.000000	0.000099	0.000005	0.000000	0.000000
18.710983	23.452282	11.307118	0.005429	0.125989	3.215990	0.000000	-0.023929	0.000000	0.000101	0.000002	0.000000	0.000000
19.009556	23.489413	11.222332	-0.068567	0.128463	3.211352	0.000000	-0.015533	0.000000	0.000101	0.000002	0.000000	0.000000
19.342889	23.539877	11.146755	-0.082824	0.098270	3.206173	0.000000	-0.015533	0.000000	0.000102	0.000002	0.000000	0.000000
19.676223	23.599845	11.091305	-0.097082	0.068077	3.200994	0.000000	-0.015533	0.000000	0.000103	0.000002	0.000000	0.000000
20.010806	23.669890	11.055753	-0.228666	0.092548	3.195816	0.000000	0.000301	0.000000	0.000104	0.000003	0.000000	0.000000
20.308129	23.809796	11.008784	-0.304040	0.094164	3.195905	0.000000	0.008644	0.000000	0.000105	0.000003	0.000000	0.000000
20.857189	23.733024	11.127980	0.443038	-0.312536	3.174441	0.000000	-0.086710	0.000000	0.000106	-0.000000	0.000000	0.000000
21.406249	22.848268	11.703313	1.158822	-0.741498	3.100970	0.000000	-0.180525	0.000000	0.000104	-0.000004	0.000000	0.000000
21.955309	21.218022	12.775763	1.792752	-1.223275	2.976794	0.000000	-0.271138	0.000000	0.000102	-0.000007	0.000000	0.000000
22.504369	18.957440	14.421718	2.300051	-1.792184	2.804117	0.000000	-0.356942	0.000000	0.000097	-0.000010	0.000000	0.000000
22.950329	17.176129	15.899291	1.708373	-1.507077	2.662226	0.000000	-0.279760	0.000000	0.000093	-0.000008	0.000000	0.000000
23.391289	15.898739	17.077319	1.199448	-1.154259	2.555182	0.000000	-0.206219	0.000000	0.000090	-0.000005	0.000000	0.000000
23.832249	15.044413	17.919753	0.745321	-0.748924	2.480018	0.000000	-0.135026	0.000000	0.000088	-0.000003	0.000000	0.000000
24.273209	14.574118	18.388264	0.325247	-0.309512	2.435877	0.000000	-0.065371	0.000000	0.000087	-0.000001	0.000000	0.000000
24.715418	14.466480	18.461289	-0.044608	0.098677	2.422254	0.000000	-0.002396	0.000000	0.000087	0.000001	0.000000	0.000000
25.012741	14.499129	18.407446	-0.065201	0.082415	2.421541	0.000000	-0.002396	0.000000	0.000088	0.000001	0.000000	0.000000
25.346075	14.550292	18.358579	-0.088289	0.064184	2.420742	0.000000	-0.002396	0.000000	0.000088	0.000001	0.000000	0.000000
25.679408	14.616848	18.321867	-0.111377	0.045952	2.419943	0.000000	-0.002396	0.000000	0.000089	0.000001	0.000000	0.000000
26.013991	14.698833	18.297611	-0.015304	-0.120787	2.419116	0.000000	-0.022022	0.000000	0.000089	0.000001	0.000000	0.000000
26.311314	14.713949	18.374339	0.000516	-0.182294	2.412569	0.000000	-0.027933	0.000000	0.000089	0.000000	0.000000	0.000000
26.752274	14.894816	18.335774	-0.412238	0.269418	2.415355	0.000000	0.040588	0.000000	0.000090	0.000003	0.000000	0.000000
27.193234	15.446598	17.902739	-0.843826	0.708872	2.448429	0.000000	0.109571	0.000000	0.000092	0.000005	0.000000	0.000000
27.634194	16.394505	17.094936	-1.313966	1.116073	2.512167	0.000000	0.179802	0.000000	0.000094	0.000007	0.000000	0.000000
28.075154	17.781843	15.949120	-1.844138	1.472493	2.607295	0.000000	0.252081	0.000000	0.000098	0.000010	0.000000	0.000000
28.521114	19.696109	14.500168	-2.463517	1.762832	2.736498	0.000000	0.327674	0.000000	0.000103	0.000012	0.000000	0.000000
29.070174	22.129153	12.885562	-1.941528	1.195195	2.893751	0.000000	0.244311	0.000000	0.000109	0.000009	0.000000	0.000000
29.619234	23.909829	11.844166	-1.282398	0.712688	3.003975	0.000000	0.156614	0.000000	0.000113	0.000005	0.000000	0.000000
30.168294	24.912356	11.301802	-0.532686	0.280945	3.065217	0.000000	0.066140	0.000000	0.000115	0.000002	0.000000	0.000000
30.717354	25.065922	11.219839	0.254654	-0.130786	3.076388	0.000000	-0.025508	0.000000	0.000115	-0.000002	0.000000	0.000000
31.015927	24.956611	11.288476	0.176886	-0.128384	3.071170	0.000000	-0.017477	0.000000	0.000114	-0.000002	0.000000	0.000000
31.349260	24.843279	11.384070	0.163111	-0.158399	3.065345	0.000000	-0.017477	0.000000	0.000114	-0.000002	0.000000	0.000000
31.682593	24.739129	11.499675	0.149337	-0.188415	3.059519	0.000000	-0.017477	0.000000	0.000113	-0.000002	0.000000	0.000000
32.017177	24.643824	11.635836	0.135511	-0.218543	3.053672	0.000000	-0.017477	0.000000	0.000113	-0.000002	0.000000	0.000000
32.314499	24.566896	11.773752	0.059096	-0.214582	3.048476	0.000000	-0.009520	0.000000	0.000112	-0.000001	0.000000	0.000000
32.863559	24.081185	12.248774	0.820287	-0.655680	3.018379	0.000000	-0.099956	0.000000	0.000110	-0.000005	0.000000	0.000000
33.412619	22.786618	13.230827	1.523536	-1.143481	2.939043	0.000000	-0.188620	0.000000	0.000107	-0.000009	0.000000	0.000000
33.961679	20.774638	14.789858	2.119169	-1.712730	2.811875	0.000000	-0.273938	0.000000	0.000101	-0.000012	0.000000	0.000000
34.510739	18.187362	17.036914	2.565114	-2.403973	2.639130	0.000000	-0.354398	0.000000	0.000094	-0.000015	0.000000	0.000000
34.956699	16.175844	19.046735	1.961569	-2.083932	2.497425	0.000000	-0.281493	0.000000	0.000087	-0.000013	0.000000	0.000000
35.397659	14.675999	20.708316	1.452644	-1.669825	2.388679	0.000000	-0.212222	0.000000	0.000082	-0.000010	0.000000	0.000000
35.838619	13.594135	21.969662	1.010086	-1.179741	2.309916	0.000000	-0.145368	0.000000	0.000078	-0.000008	0.000000	0.000000
36.279579	12.880826	22.773382	0.613676	-0.635981	2.260240	0.000000	-0.080170	0.000000	0.000075	-0.000006	0.000000	0.000000
36.721789	12.502791	23.083208	0.275837	-0.119904	2.239058	0.000000	-0.021372	0.000000	0.000072	-0.000005	0.000000	0.000000
37.019112	12.346374	23.158393	0.250247	-0.132970	2.232705	0.000000	-0.021372	0.000000	0.000071	-0.000005	0.000000	0.000000
37.352445	12.189106	23.251922	0.221558	-0.147618	2.225582	0.000000	-0.021372	0.000000	0.000069	-0.000005	0.000000	0.000000
37.685779	12.050964	23.355217	0.192869	-0.162266	2.218460	0.000000	-0.021372	0.000000	0.000068	-0.000005	0.000000	0.000000
38.020362	11.931538	23.468720	0.164072	-0.176969	2.211311	0.000000	-0.021372	0.000000	0.000066	-0.000005	0.000000	0.000000
38.317684	11.841582	23.577839	0.167503	-0.247821	2.204958	0.000000	-0.026776	0.000000	0.000065	-0.000005	0.000000	0.000000
38.758644	11.844932	23.535263	-0.175130	0.344006	2.207076	0.000000	0.036384	0.000000	0.000063	-0.000003	0.000000	0.000000
39.199604	12.152830	22.975677	-0.525765	0.920181	2.237110	0.000000	0.099959	0.000000	0.000062	-0.000002	0.000000	0.000000
39.640564	12.779345	21.924542	-0.900421	1.454488	2.295400	0.000000	0.164672	0.000000	0.000062	-0.000000	0.000000	0.000000
40.081524	13.753099	20.429684	-1.316214	1.922618	2.382612	0.000000	0.231260	0.000000	0.000062	0.000002	0.000000	0.000000
40.527484	15.136139	18.536547	-1.795965	2.304548	2.501210	0.000000	0.300888	0.000000	0.000063	0.000003	0.000000	0.000000
41.076544	16.901412	16.409248	-1.400080	1.592756	2.645891	0.000000	0.225352	0.000000	0.000064	0.000001	0.000000	0.000000
41.625604	18.174743	14.997071	-0.905301	0.994413	2.747939	0.000000	0.145819	0.000000	0.000064	-0.000001	0.000000	0.000000
42.174664	18.866191	14.199430	-0.346575	0.466900	2.805544	0.000000	0.063700	0.000000	0.000063	-0.000003	0.000000	0.000000
42.723724	18.926915	13.959510	0.236631	-0.027356	2.817685	0.000000	-0.019550	0.000000	0.000061	-0.000005	0.000000	0.000000
43.022297	18.820002	13.960462	0.170876	-0.012290	2.814046	0.000000	-0.012191	0.000000	0.000059	-0.000005	0.000000	0.000000
43.502297	18.668561	13.988767	0.144627	-0.046678	2.808196	0.000000	-0.012191	0.000000	0.000057	-0.000005	0.000000	0.000000
43.982297	18.542319	14.050085	0.118377	-0.081066	2.802347	0.000000	-0.012191	0.000000	0.000055	-0.000005	0.000000	0.000000
44.462297	18.441277	14.144415	0.092128	-0.115454	2.796497	0.000000	-0.012191	0.000000	0.000052	-0.000005	0.000000	0.000000
44.942297	18.365434	14.271758	0.065878	-0.149842	2.790648	0.000000	-0.012191	0.000000	0.000050	-0.000005	0.000000	0.000000
45.423547	18.314919	14.432395	-0.051182	-0.112813	2.784800	0.000000	0.001606	0.000000	0.000048	-0.000005	0.000000	0.000000
45.720870	18.350193	14.505681	-0.115386	-0.095791	2.785279	0.000000	0.008881	0.000000	0.000046	-0.000005	0.000000	0.000000
46.269930	18.167909	14.891516	0.445410	-0.611075	2.767590	0.000000	-0.073229	0.000000	0.000043	-0.000006	0.000000	0.000000
46.818990	17.383514	15.863631	0.974744	-1.169883	2.705110	0.000000	-0.154040	0.000000	0.000040	-0.000007	0.000000	0.000000
47.368050	16.052413	17.491269	1.435227	-1.812020	2.598946	0.000000	-0.232118	0.000000	0.000035	-0.000009	0.000000	0.000000
47.917110	14.268630	19.890361	1.794332	-2.583224	2.450981	0.000000	-0.306080	0.000000	0.000030	-0.000010	0.000000	0.000000
48.363070	12.880308	22.023489	1.329799	-2.179891	2.329776	0.000000	-0.237789	0.000000	0.000026	-0.000009	0.000000	0.000000
48.804030	11.887685	23.731449	0.929788	-1.678645	2.239382	0.000000	-0.172604	0.000000	0.000022	-0.000008	0.000000	0.000000
49.244990	11.227845	24.961853	0.572256	-1.101021	2.177272	0.000000	-0.109384	0.000000	0.000019	-0.000008	0.000000	0.000000
49.685950	10.870643	25.658719	0.240869	-0.473302	2.142738	0.000000	-0.047410	0.000000	0.000016	-0.000007	0.000000	0.000000
50.128160	10.799893	25.790058	-0.053148	0.112667	2.135398	0.000000	0.008788	0.000000	0.000013	-0.000007	0.000000	0.000000
50.425482	10.839705	25.726532	-0.080756	0.100992	2.138013	0.000000	0.008788	0.000000	0.000010	-0.000007	0.000000	0.000000
50.758816	10.903860	25.663567	-0.111708	0.087903	2.140944	0.000000	0.008788	0.000000	0.000008	-0.000007	0.000000	0.000000
51.092149	10.988649	25.609328	-0.142660	0.074814	2.143876	0.000000	0.008788	0.000000	0.000006	-0.000007	0.000000	0.000000
51.426732	11.094282	25.564179	-0.083723	-0.145713	2.146797	0.000000	-0.008629	0.000000	0.000004	-0.000007	0.000000	0.000000
51.724055	11.152092	25.654358	-0.083363	-0.220504	2.144233	0.000000	-0.013887	0.000000	0.000001	-0.000007	0.000000	0.000000
52.165015	11.371169	25.563451	-0.415343	0.425875	2.151701	0.000000	0.047777	0.000000	-0.000002	-0.000007	0.000000	0.000000
52.605975	11.890256	24.908890	-0.766300	1.052877	2.186454	0.000000	0.109984	0.000000	-0.000005	-0.000007	0.000000	0.000000
53.046935	12.733069	23.720456	-1.152266	1.631974	2.248888	0.000000	0.173445	0.000000	-0.000008	-0.000007	0.000000	0.000000
53.487895	13.938112	22.052222	-1.590876	2.136817	2.339714	0.000000	0.238881	0.000000	-0.000011	-0.000007	0.000000	0.000000
53.933855	15.581089	19.955146	-2.106411	2.545770	2.461472	0.000000	0.307436	0.000000	-0.000014	-0.000008	0.000000	0.000000
54.482915	17.696293	17.595525	-1.723199	1.777164	2.610095	0.000000	0.233124	0.000000	-0.000019	-0.000007	0.000000	0.000000
55.031975	19.320950	16.005878	-1.218269	1.135141	2.716719	0.000000	0.154677	0.000000	-0.000022	-0.000007	0.000000	0.000000
55.581035	20.340303	15.072980	-0.627287	0.573972	2.779452	0.000000	0.073486	0.000000	-0.000026	-0.000006	0.000000	0.000000
56.130095	20.682349	14.730382	0.008004	0.053685	2.797182	0.000000	-0.009008	0.000000	-0.000029	-0.000005	0.000000	0.000000
56.428668	20.714166	14.681438	-0.060515	0.071742	2.796677	0.000000	-0.001698	0.000000	-0.000030	-0.000005	0.000000	0.000000
56.762001	20.759893	14.641218	-0.076666	0.048920	2.796112	0.000000	-0.001698	0.000000	-0.000032	-0.000005	0.000000	0.000000
57.095334	20.816387	14.616211	-0.092817	0.026099	2.795548	0.000000	-0.001698	0.000000	-0.000034	-0.000005	0.000000	0.000000
57.429918	20.883922	14.606411	-0.109029	0.003192	2.794982	0.000000	-0.001698	0.000000	-0.000035	-0.000005	0.000000	0.000000
57.727240	20.953038	14.610565	-0.178198	0.021022	2.794478	0.000000	0.005606	0.000000	-0.000037	-0.000005	0.000000	0.000000
58.276300	20.791161	14.868141	0.471275	-0.492913	2.774915	0.000000	-0.076771	0.000000	-0.000039	-0.000004	0.000000	0.000000
58.825360	19.930225	15.705930	1.087460	-1.041956	2.710429	0.000000	-0.157786	0.000000	-0.000041	-0.000003	0.000000	0.000000
59.374420	18.431041	17.183607	1.626833	-1.665216	2.602163	0.000000	-0.236003	0.000000	-0.000042	-0.000001	0.000000	0.000000
59.923480	16.399504	19.406423	2.051294	-2.407085	2.452039	0.000000	-0.310034	0.000000	-0.000042	0.000000	0.000000	0.000000
60.369440	14.809284	21.382178	1.527171	-2.004559	2.329070	0.000000	-0.241739	0.000000	-0.000042	-0.000001	0.000000	0.000000
60.810400	13.665273	22.938848	1.077036	-1.512194	2.236924	0.000000	-0.176594	0.000000	-0.000043	-0.000002	0.000000	0.000000
61.251360	12.895128	24.029178	0.676108	-0.951026	2.173034	0.000000	-0.113461	0.000000	-0.000044	-0.000003	0.000000	0.000000
61.692320	12.463664	24.603558	0.306069	-0.346587	2.136673	0.000000	-0.051620	0.000000	-0.000046	-0.000004	0.000000	0.000000
62.134530	12.351217	24.635323	-0.019785	0.213129	2.127432	0.000000	0.004413	0.000000	-0.000048	-0.000005	0.000000	0.000000
62.431853	12.370143	24.512338	-0.043867	0.200512	2.128746	0.000000	0.004413	0.000000	-0.000050	-0.000005	0.000000	0.000000
62.765186	12.408387	24.383379	-0.070866	0.186366	2.130219	0.000000	0.004413	0.000000	-0.000052	-0.000005	0.000000	0.000000
63.098520	12.464630	24.263850	-0.097864	0.172221	2.131692	0.000000	0.004413	0.000000	-0.000053	-0.000005	0.000000	0.000000
63.433103	12.539185	24.153356	-0.124964	0.158023	2.133170	0.000000	0.004413	0.000000	-0.000055	-0.000005	0.000000	0.000000
63.730426	12.620654	24.063140	-0.118079	0.086362	2.134484	0.000000	-0.000824	0.000000	-0.000057	-0.000005	0.000000	0.000000
64.171386	12.885412	23.721951	-0.484614	0.684435	2.147667	0.000000	0.060662	0.000000	-0.000059	-0.000007	0.000000	0.000000
64.612346	13.481928	22.865080	-0.873288	1.251367	2.188090	0.000000	0.122838	0.000000	-0.000063	-0.000008	0.000000	0.000000
65.053306	14.437454	21.531514	-1.301861	1.761363	2.256213	0.000000	0.186414	0.000000	-0.000067	-0.000010	0.000000	0.000000
65.494266	15.795646	19.781928	-1.789912	2.191218	2.352812	0.000000	0.252113	0.000000	-0.000072	-0.000012	0.000000	0.000000
65.940226	17.641729	17.671158	-2.364431	2.522131	2.480561	0.000000	0.321086	0.000000	-0.000077	-0.000014	0.000000	0.000000
66.489286	20.007915	15.309771	-1.919590	1.804042	2.636489	0.000000	0.246037	0.000000	-0.000084	-0.000011	0.000000	0.000000
67.038346	21.807813	13.662166	-1.339159	1.214450	2.749948	0.000000	0.166624	0.000000	-0.000090	-0.000008	0.000000	0.000000
67.587406	22.914289	12.610987	-0.664137	0.711360	2.818927	0.000000	0.084256	0.000000	-0.000093	-0.000005	0.000000	0.000000
68.136466	23.249187	12.081361	0.057796	0.258939	2.842202	0.000000	0.000393	0.000000	-0.000095	-0.000002	0.000000	0.000000
68.435038	23.254812	11.915873	-0.015841	0.263732	2.844539	0.000000	0.007825	0.000000	-0.000096	-0.000003	0.000000	0.000000
68.768372	23.270152	11.750025	-0.030179	0.233812	2.847148	0.000000	0.007825	0.000000	-0.000097	-0.000003	0.000000	0.000000
69.101705	23.295051	11.604123	-0.044516	0.203893	2.849757	0.000000	0.007825	0.000000	-0.000098	-0.000003	0.000000	0.000000
69.436288	23.329655	11.477733	-0.058908	0.173861	2.852376	0.000000	0.007825	0.000000	-0.000099	-0.000003	0.000000	0.000000
69.733611	23.368486	11.382283	-0.132805	0.176938	2.854703	0.000000	0.015290	0.000000	-0.000100	-0.000003	0.000000	0.000000
70.282671	23.112993	11.415844	0.595379	-0.238423	2.839905	0.000000	-0.069116	0.000000	-0.000100	0.000000	0.000000	0.000000
