#ParticleID	Turn	x[m]	xp	y[m]	yp	z[m]	dE[GeV]# s	beta_x	beta_y	alpha_x	alpha_y	D_x	D_y	D_px	D_py	orbit_x	orbit_px	orbit_y	orbit_py
0.300000	11.880281	25.092096	-0.016869	-0.025209	2.611512	0.000000	0.000332	0.000000	-0.000262	0.000230	0.000000	0.000000
0.601250	11.898085	25.110903	-0.042234	-0.037222	2.611542	0.000000	0.000332	0.000000	-0.000193	0.000230	0.000000	0.000000
0.898573	11.930642	25.136562	-0.037975	-0.110711	2.611572	0.000000	-0.006080	0.000000	-0.000125	0.000231	0.000000	0.000000
1.339533	12.117075	24.955336	-0.386338	0.520128	2.625050	0.000000	0.067709	0.000000	-0.000023	0.000229	0.000000	0.000000
1.780493	12.617331	24.226109	-0.752354	1.127303	2.671204	0.000000	0.142266	0.000000	0.000078	0.000229	0.000000	0.000000
2.221453	13.454267	22.982059	-1.152744	1.683187	2.750560	0.000000	0.218441	0.000000	0.000179	0.000233	0.000000	0.000000
2.662413	14.666125	21.279787	-1.605803	2.162488	2.864020	0.000000	0.297102	0.000000	0.000283	0.000239	0.000000	0.000000
3.108373	16.329205	19.171788	-2.136557	2.544539	3.014732	0.000000	0.379634	0.000000	0.000392	0.000248	0.000000	0.000000
3.657433	18.461546	16.804118	-1.723930	1.793111	3.197843	0.000000	0.286835	0.000000	0.000524	0.000233	0.000000	0.000000
4.206493	20.070815	15.187052	-1.189525	1.169404	3.328537	0.000000	0.188952	0.000000	0.000646	0.000214	0.000000	0.000000
4.755553	21.043332	14.205410	-0.571092	0.628991	3.404499	0.000000	0.087721	0.000000	0.000758	0.000191	0.000000	0.000000
5.304613	21.310395	13.789275	0.087686	0.133379	3.424382	0.000000	-0.015063	0.000000	0.000856	0.000165	0.000000	0.000000
5.603185	21.295231	13.694937	0.018380	0.146845	3.422487	0.000000	-0.006180	0.000000	0.000905	0.000167	0.000000	0.000000
5.936519	21.288197	13.605329	0.002722	0.121980	3.420371	0.000000	-0.006180	0.000000	0.000961	0.000167	0.000000	0.000000
6.269852	21.291602	13.532297	-0.012936	0.097116	3.418255	0.000000	-0.006180	0.000000	0.001017	0.000167	0.000000	0.000000
6.604435	21.305517	13.475661	-0.028653	0.072158	3.416132	0.000000	-0.006180	0.000000	0.001073	0.000167	0.000000	0.000000
6.901758	21.326709	13.439347	-0.097817	0.084795	3.414245	0.000000	0.002656	0.000000	0.001122	0.000170	0.000000	0.000000
7.450818	21.070472	13.607177	0.561821	-0.392262	3.387487	0.000000	-0.099689	0.000000	0.001205	0.000132	0.000000	0.000000
7.999878	20.107452	14.311060	1.181775	-0.897261	3.304960	0.000000	-0.200264	0.000000	0.001267	0.000092	0.000000	0.000000
8.548938	18.505673	15.601135	1.718252	-1.466172	3.168126	0.000000	-0.297285	0.000000	0.001306	0.000051	0.000000	0.000000
9.097998	16.378285	17.569295	2.133354	-2.139519	2.979415	0.000000	-0.389032	0.000000	0.001323	0.000008	0.000000	0.000000
9.543958	14.718329	19.322989	1.602044	-1.776200	2.824184	0.000000	-0.307468	0.000000	0.001334	0.000042	0.000000	0.000000
9.984918	13.510118	20.699431	1.148278	-1.333329	2.705791	0.000000	-0.229895	0.000000	0.001360	0.000077	0.000000	0.000000
10.425878	12.677545	21.656943	0.746976	-0.829790	2.620981	0.000000	-0.154942	0.000000	0.001402	0.000113	0.000000	0.000000
10.866838	12.182569	22.151955	0.379803	-0.288494	2.568787	0.000000	-0.081754	0.000000	0.001460	0.000150	0.000000	0.000000
11.309048	12.002429	22.161411	0.058882	0.212255	2.548595	0.000000	-0.015658	0.000000	0.001534	0.000184	0.000000	0.000000
11.606371	11.974806	22.039363	0.034024	0.198234	2.543885	0.000000	-0.015658	0.000000	0.001589	0.000184	0.000000	0.000000
12.086371	11.961405	21.859923	-0.006106	0.175599	2.536280	0.000000	-0.015658	0.000000	0.001678	0.000184	0.000000	0.000000
12.566371	11.986530	21.702212	-0.046237	0.152964	2.528676	0.000000	-0.015658	0.000000	0.001766	0.000184	0.000000	0.000000
13.046371	12.050180	21.566232	-0.086367	0.130329	2.521071	0.000000	-0.015658	0.000000	0.001855	0.000184	0.000000	0.000000
13.526371	12.152355	21.451981	-0.126498	0.107694	2.513467	0.000000	-0.015658	0.000000	0.001943	0.000184	0.000000	0.000000
14.007621	12.293473	21.359247	-0.166733	0.085000	2.505843	0.000000	-0.015658	0.000000	0.002032	0.000184	0.000000	0.000000
14.304943	12.400009	21.312873	-0.161786	0.019805	2.501132	0.000000	-0.021670	0.000000	0.002087	0.000179	0.000000	0.000000
14.745903	12.701609	21.062187	-0.524677	0.546515	2.507104	0.000000	0.049179	0.000000	0.002178	0.000234	0.000000	0.000000
15.186863	13.332595	20.356203	-0.911544	1.048358	2.544388	0.000000	0.120586	0.000000	0.002294	0.000292	0.000000	0.000000
15.627823	14.321800	19.227043	-1.340063	1.502499	2.613407	0.000000	0.193362	0.000000	0.002436	0.000353	0.000000	0.000000
16.068783	15.714430	17.726082	-1.829816	1.888273	2.714946	0.000000	0.268338	0.000000	0.002606	0.000418	0.000000	0.000000
16.514743	17.597753	15.900116	-2.407994	2.188921	2.851857	0.000000	0.346838	0.000000	0.002808	0.000488	0.000000	0.000000
17.063803	20.016020	13.861485	-1.969885	1.545788	3.018356	0.000000	0.259578	0.000000	0.003050	0.000393	0.000000	0.000000
17.612863	21.873421	12.464867	-1.392606	1.012765	3.135661	0.000000	0.167720	0.000000	0.003238	0.000291	0.000000	0.000000
18.161923	23.038726	11.610782	-0.716940	0.551885	3.201691	0.000000	0.072892	0.000000	0.003369	0.000184	0.000000	0.000000
18.710983	23.429601	11.238391	0.009378	0.130318	3.215279	0.000000	-0.023226	0.000000	0.003440	0.000074	0.000000	0.000000
19.009556	23.463299	11.151691	-0.062834	0.131579	3.210754	0.000000	-0.015070	0.000000	0.003465	0.000083	0.000000	0.000000
19.342889	23.509943	11.074108	-0.077097	0.101170	3.205704	0.000000	-0.015070	0.000000	0.003493	0.000083	0.000000	0.000000
19.676223	23.566095	11.016797	-0.091359	0.070762	3.200653	0.000000	-0.015070	0.000000	0.003520	0.000083	0.000000	0.000000
20.010806	23.632312	10.979522	-0.222763	0.094639	3.195603	0.000000	0.000763	0.000000	0.003548	0.000100	0.000000	0.000000
20.308129	23.768712	10.931365	-0.296192	0.095031	3.195800	0.000000	0.008861	0.000000	0.003578	0.000110	0.000000	0.000000
20.857189	23.684086	11.048438	0.449435	-0.309502	3.174426	0.000000	-0.086501	0.000000	0.003606	-0.000007	0.000000	0.000000
21.406249	22.793248	11.619187	1.163311	-0.736083	3.101096	0.000000	-0.180328	0.000000	0.003571	-0.000123	0.000000	0.000000
21.955309	21.159139	12.684269	1.795001	-1.215098	2.977110	0.000000	-0.270958	0.000000	0.003472	-0.000237	0.000000	0.000000
22.504369	18.897212	14.319552	2.299878	-1.780670	2.804667	0.000000	-0.356786	0.000000	0.003311	-0.000347	0.000000	0.000000
22.950329	17.115473	15.787980	1.709203	-1.498041	2.662975	0.000000	-0.279570	0.000000	0.003175	-0.000263	0.000000	0.000000
23.391289	15.836761	16.959356	1.201402	-1.148155	2.556107	0.000000	-0.206001	0.000000	0.003077	-0.000182	0.000000	0.000000
23.832249	14.980118	17.797841	0.748499	-0.746025	2.481101	0.000000	-0.134777	0.000000	0.003014	-0.000104	0.000000	0.000000
24.273209	14.506396	18.265282	0.329799	-0.309948	2.437103	0.000000	-0.065087	0.000000	0.002985	-0.000026	0.000000	0.000000
24.715418	14.394052	18.340163	-0.039627	0.096456	2.423609	0.000000	-0.001913	0.000000	0.002991	0.000043	0.000000	0.000000
25.012741	14.423767	18.287671	-0.060315	0.080093	2.423027	0.000000	-0.001913	0.000000	0.003004	0.000043	0.000000	0.000000
25.346075	14.471709	18.240390	-0.083509	0.061749	2.422375	0.000000	-0.001913	0.000000	0.003018	0.000043	0.000000	0.000000
25.679408	14.535113	18.205339	-0.106703	0.043405	2.421723	0.000000	-0.001913	0.000000	0.003033	0.000043	0.000000	0.000000
26.013991	14.614009	18.182823	-0.011426	-0.122516	2.421044	0.000000	-0.021554	0.000000	0.003047	0.000019	0.000000	0.000000
26.311314	14.626849	18.260616	0.003052	-0.182588	2.414630	0.000000	-0.027303	0.000000	0.003053	0.000011	0.000000	0.000000
26.752274	14.804578	18.223661	-0.407593	0.266072	2.417687	0.000000	0.041280	0.000000	0.003075	0.000090	0.000000	0.000000
27.193234	15.351309	17.794854	-0.836864	0.702625	2.451029	0.000000	0.110332	0.000000	0.003132	0.000170	0.000000	0.000000
27.634194	16.292026	16.993705	-1.304375	1.107206	2.515034	0.000000	0.180639	0.000000	0.003225	0.000252	0.000000	0.000000
28.075154	17.669718	15.856669	-1.831491	1.461407	2.610432	0.000000	0.253001	0.000000	0.003355	0.000337	0.000000	0.000000
28.521114	19.571328	14.418330	-2.447307	1.750085	2.739915	0.000000	0.328697	0.000000	0.003525	0.000426	0.000000	0.000000
29.070174	21.988656	12.815911	-1.928847	1.185469	2.897515	0.000000	0.245207	0.000000	0.003728	0.000309	0.000000	0.000000
29.619234	23.757933	11.783802	-1.274114	0.705300	3.008074	0.000000	0.157373	0.000000	0.003864	0.000186	0.000000	0.000000
30.168294	24.754152	11.248485	-0.529365	0.275372	3.069632	0.000000	0.066750	0.000000	0.003931	0.000060	0.000000	0.000000
30.717354	24.906923	11.171827	0.252784	-0.134940	3.081098	0.000000	-0.025056	0.000000	0.003929	-0.000068	0.000000	0.000000
31.015927	24.797239	11.243624	0.177452	-0.133740	3.075957	0.000000	-0.017273	0.000000	0.003912	-0.000058	0.000000	0.000000
31.349260	24.683559	11.342842	0.163586	-0.163916	3.070218	0.000000	-0.017273	0.000000	0.003892	-0.000058	0.000000	0.000000
31.682593	24.579124	11.462179	0.149721	-0.194093	3.064480	0.000000	-0.017273	0.000000	0.003873	-0.000058	0.000000	0.000000
32.017177	24.483592	11.602194	0.135803	-0.224383	3.058720	0.000000	-0.017273	0.000000	0.003854	-0.000058	0.000000	0.000000
32.314499	24.406526	11.743620	0.061736	-0.221620	3.053602	0.000000	-0.009554	0.000000	0.003837	-0.000048	0.000000	0.000000
32.863559	23.920756	12.226113	0.817632	-0.662282	3.023492	0.000000	-0.100167	0.000000	0.003776	-0.000171	0.000000	0.000000
33.412619	22.631799	13.215444	1.515761	-1.150122	2.944106	0.000000	-0.189005	0.000000	0.003649	-0.000291	0.000000	0.000000
33.961679	20.630728	14.782084	2.106801	-1.719889	2.816851	0.000000	-0.274496	0.000000	0.003457	-0.000407	0.000000	0.000000
34.510739	18.058927	17.037625	2.548997	-2.412170	2.643982	0.000000	-0.355124	0.000000	0.003204	-0.000515	0.000000	0.000000
34.956699	16.059958	19.055183	1.949053	-2.092845	2.502177	0.000000	-0.282079	0.000000	0.002993	-0.000434	0.000000	0.000000
35.397659	14.569619	20.724883	1.443215	-1.679100	2.393359	0.000000	-0.212682	0.000000	0.002818	-0.000359	0.000000	0.000000
35.838619	13.494772	21.994461	1.003324	-1.188953	2.314552	0.000000	-0.145704	0.000000	0.002675	-0.000288	0.000000	0.000000
36.279579	12.786298	22.806150	0.609280	-0.644705	2.264859	0.000000	-0.080382	0.000000	0.002563	-0.000221	0.000000	0.000000
36.721789	12.411140	23.123331	0.272688	-0.126493	2.243687	0.000000	-0.021346	0.000000	0.002480	-0.000162	0.000000	0.000000
37.019112	12.256640	23.202433	0.246950	-0.139557	2.237389	0.000000	-0.021346	0.000000	0.002432	-0.000162	0.000000	0.000000
37.352445	12.101625	23.300353	0.218096	-0.154203	2.230327	0.000000	-0.021346	0.000000	0.002378	-0.000162	0.000000	0.000000
37.685779	11.965846	23.408037	0.189241	-0.168849	2.223266	0.000000	-0.021346	0.000000	0.002324	-0.000162	0.000000	0.000000
38.020362	11.848903	23.525944	0.160278	-0.183550	2.216178	0.000000	-0.021346	0.000000	0.002269	-0.000162	0.000000	0.000000
38.317684	11.761245	23.638979	0.162773	-0.253415	2.209879	0.000000	-0.026651	0.000000	0.002221	-0.000167	0.000000	0.000000
38.758644	11.767959	23.600595	-0.178103	0.340127	2.212139	0.000000	0.036641	0.000000	0.002160	-0.000111	0.000000	0.000000
39.199604	12.077755	23.043590	-0.527117	0.918193	2.242351	0.000000	0.100352	0.000000	0.002123	-0.000056	0.000000	0.000000
39.640564	12.704787	21.993308	-0.900215	1.454478	2.300860	0.000000	0.165206	0.000000	0.002111	-0.000001	0.000000	0.000000
40.081524	13.677706	20.497540	-1.314445	1.924583	2.388331	0.000000	0.231943	0.000000	0.002122	0.000053	0.000000	0.000000
40.527484	15.058505	18.601725	-1.792589	2.308456	2.507239	0.000000	0.301733	0.000000	0.002159	0.000109	0.000000	0.000000
41.076544	16.821730	16.471123	-1.399619	1.594782	2.652294	0.000000	0.225991	0.000000	0.002199	0.000038	0.000000	0.000000
41.625604	18.096215	15.057638	-0.907778	0.994707	2.754634	0.000000	0.146240	0.000000	0.002201	-0.000033	0.000000	0.000000
42.174664	18.791926	14.260583	-0.351811	0.465488	2.812446	0.000000	0.063895	0.000000	0.002163	-0.000104	0.000000	0.000000
42.723724	18.859715	14.023182	0.229007	-0.030572	2.824701	0.000000	-0.019585	0.000000	0.002087	-0.000172	0.000000	0.000000
43.022297	18.756750	14.026281	0.164250	-0.015834	2.821068	0.000000	-0.012335	0.000000	0.002037	-0.000167	0.000000	0.000000
43.502297	18.611686	14.057913	0.137968	-0.050064	2.815228	0.000000	-0.012335	0.000000	0.001957	-0.000167	0.000000	0.000000
43.982297	18.491851	14.122405	0.111687	-0.084294	2.809387	0.000000	-0.012335	0.000000	0.001877	-0.000167	0.000000	0.000000
44.462297	18.397246	14.219757	0.085406	-0.118524	2.803547	0.000000	-0.012335	0.000000	0.001797	-0.000167	0.000000	0.000000
44.942297	18.327871	14.349971	0.059125	-0.152754	2.797706	0.000000	-0.012335	0.000000	0.001717	-0.000167	0.000000	0.000000
45.423547	18.283871	14.513333	-0.057813	-0.115165	2.791868	0.000000	0.001498	0.000000	0.001636	-0.000159	0.000000	0.000000
45.720870	18.323101	14.587987	-0.121364	-0.098350	2.792361	0.000000	0.008696	0.000000	0.001589	-0.000155	0.000000	0.000000
46.269930	18.147764	14.978035	0.438714	-0.616221	2.774599	0.000000	-0.073645	0.000000	0.001490	-0.000205	0.000000	0.000000
46.818990	17.370826	15.957402	0.967797	-1.177986	2.711942	0.000000	-0.154684	0.000000	0.001365	-0.000251	0.000000	0.000000
47.368050	16.047176	17.595843	1.428512	-1.823658	2.605501	0.000000	-0.232983	0.000000	0.001216	-0.000293	0.000000	0.000000
47.917110	14.270325	20.010062	1.788314	-2.599229	2.457162	0.000000	-0.307154	0.000000	0.001045	-0.000329	0.000000	0.000000
48.363070	12.887068	22.156344	1.324266	-2.193209	2.335645	0.000000	-0.238703	0.000000	0.000903	-0.000304	0.000000	0.000000
48.804030	11.899142	23.874672	0.924501	-1.688704	2.245001	0.000000	-0.173368	0.000000	0.000774	-0.000282	0.000000	0.000000
49.244990	11.243899	25.112349	0.566978	-1.107364	2.182698	0.000000	-0.110005	0.000000	0.000654	-0.000264	0.000000	0.000000
49.685950	10.891398	25.813063	0.235361	-0.475640	2.148027	0.000000	-0.047893	0.000000	0.000541	-0.000249	0.000000	0.000000
50.128160	10.825680	25.944648	-0.059179	0.114401	2.140605	0.000000	0.008449	0.000000	0.000434	-0.000237	0.000000	0.000000
50.425482	10.869065	25.880072	-0.086740	0.102791	2.143187	0.000000	0.008449	0.000000	0.000363	-0.000237	0.000000	0.000000
50.758816	10.937191	25.815883	-0.117638	0.089775	2.146083	0.000000	0.008449	0.000000	0.000284	-0.000237	0.000000	0.000000
51.092149	11.025916	25.760372	-0.148537	0.076759	2.148979	0.000000	0.008449	0.000000	0.000205	-0.000237	0.000000	0.000000
51.426732	11.135463	25.713901	-0.089214	-0.144910	2.151863	0.000000	-0.009008	0.000000	0.000126	-0.000238	0.000000	0.000000
51.724055	11.196516	25.803581	-0.088684	-0.220048	2.149256	0.000000	-0.014276	0.000000	0.000055	-0.000238	0.000000	0.000000
52.165015	11.420742	25.710531	-0.421818	0.430262	2.156679	0.000000	0.047517	0.000000	-0.000050	-0.000238	0.000000	0.000000
52.605975	11.946119	25.050435	-0.774222	1.060995	2.191445	0.000000	0.109853	0.000000	-0.000155	-0.000241	0.000000	0.000000
53.046935	12.796646	23.853331	-1.161996	1.643452	2.253951	0.000000	0.173443	0.000000	-0.000263	-0.000246	0.000000	0.000000
53.487895	14.011180	22.173686	-1.602855	2.151134	2.344908	0.000000	0.239011	0.000000	-0.000373	-0.000254	0.000000	0.000000
53.933855	15.665997	20.062819	-2.121198	2.562268	2.466862	0.000000	0.307702	0.000000	-0.000489	-0.000266	0.000000	0.000000
54.482915	17.796299	17.687463	-1.735897	1.789526	2.615713	0.000000	0.233213	0.000000	-0.000630	-0.000248	0.000000	0.000000
55.031975	19.433256	16.086113	-1.227989	1.144248	2.722456	0.000000	0.154584	0.000000	-0.000760	-0.000225	0.000000	0.000000
55.581035	20.461250	15.144707	-0.633350	0.580471	2.785196	0.000000	0.073209	0.000000	-0.000876	-0.000199	0.000000	0.000000
56.130095	20.807678	14.796189	0.006021	0.058039	2.802817	0.000000	-0.009467	0.000000	-0.000977	-0.000168	0.000000	0.000000
56.428668	20.841106	14.744318	-0.063174	0.076681	2.802246	0.000000	-0.002084	0.000000	-0.001028	-0.000171	0.000000	0.000000
56.762001	20.888575	14.700777	-0.079231	0.053940	2.801609	0.000000	-0.002084	0.000000	-0.001085	-0.000171	0.000000	0.000000
57.095334	20.946748	14.672397	-0.095289	0.031200	2.800971	0.000000	-0.002084	0.000000	-0.001142	-0.000171	0.000000	0.000000
57.429918	21.015905	14.659156	-0.111407	0.008374	2.800331	0.000000	-0.002084	0.000000	-0.001200	-0.000171	0.000000	0.000000
57.727240	21.086413	14.660207	-0.181401	0.026758	2.799762	0.000000	0.005308	0.000000	-0.001250	-0.000174	0.000000	0.000000
58.276300	20.925546	14.912219	0.472565	-0.488464	2.780068	0.000000	-0.077235	0.000000	-0.001335	-0.000132	0.000000	0.000000
58.825360	20.060736	15.745664	1.093150	-1.038476	2.715341	0.000000	-0.158410	0.000000	-0.001395	-0.000088	0.000000	0.000000
59.374420	18.553068	17.219904	1.636524	-1.662453	2.606727	0.000000	-0.236777	0.000000	-0.001431	-0.000042	0.000000	0.000000
59.923480	16.509027	19.439941	2.064307	-2.404838	2.456152	0.000000	-0.310945	0.000000	-0.001442	0.000004	0.000000	0.000000
60.369440	14.908605	21.413084	1.537155	-2.001030	2.332805	0.000000	-0.242556	0.000000	-0.001448	-0.000033	0.000000	0.000000
60.810400	13.756972	22.966094	1.084436	-1.507525	2.240343	0.000000	-0.177322	0.000000	-0.001471	-0.000071	0.000000	0.000000
61.251360	12.981315	24.051858	0.681259	-0.945432	2.176190	0.000000	-0.114106	0.000000	-0.001511	-0.000109	0.000000	0.000000
61.692320	12.546200	24.620979	0.309206	-0.340325	2.139616	0.000000	-0.052189	0.000000	-0.001568	-0.000149	0.000000	0.000000
62.134530	12.431792	24.647014	-0.017863	0.218901	2.130210	0.000000	0.003830	0.000000	-0.001643	-0.000186	0.000000	0.000000
62.431853	12.449528	24.520604	-0.041787	0.206260	2.131404	0.000000	0.003830	0.000000	-0.001699	-0.000186	0.000000	0.000000
62.765186	12.486326	24.387822	-0.068609	0.192088	2.132743	0.000000	0.003830	0.000000	-0.001761	-0.000186	0.000000	0.000000
63.098520	12.541006	24.264487	-0.095430	0.177915	2.134082	0.000000	0.003830	0.000000	-0.001823	-0.000186	0.000000	0.000000
63.433103	12.613873	24.150192	-0.122353	0.163690	2.135426	0.000000	0.003830	0.000000	-0.001885	-0.000186	0.000000	0.000000
63.730426	12.693741	24.056615	-0.114580	0.090915	2.136620	0.000000	-0.001505	0.000000	-0.001941	-0.000182	0.000000	0.000000
64.171386	12.956072	23.711541	-0.482680	0.688681	2.149600	0.000000	0.060030	0.000000	-0.002032	-0.000233	0.000000	0.000000
64.612346	13.551478	22.851157	-0.872829	1.255114	2.189861	0.000000	0.122251	0.000000	-0.002146	-0.000287	0.000000	0.000000
65.053306	14.507154	21.514610	-1.302849	1.764442	2.257862	0.000000	0.185868	0.000000	-0.002285	-0.000344	0.000000	0.000000
65.494266	15.866753	19.762711	-1.792383	2.193494	2.354381	0.000000	0.251605	0.000000	-0.002450	-0.000405	0.000000	0.000000
65.940226	17.715587	17.650387	-2.368438	2.523442	2.482089	0.000000	0.320606	0.000000	-0.002645	-0.000471	0.000000	0.000000
66.489286	20.084481	15.287511	-1.920877	1.805621	2.637956	0.000000	0.245516	0.000000	-0.002880	-0.000381	0.000000	0.000000
67.038346	21.884078	13.638045	-1.337659	1.216402	2.751285	0.000000	0.166065	0.000000	-0.003063	-0.000285	0.000000	0.000000
67.587406	22.987297	12.584504	-0.659974	0.713818	2.820066	0.000000	0.083664	0.000000	-0.003192	-0.000184	0.000000	0.000000
68.136466	23.316233	12.051849	0.064317	0.262074	2.843075	0.000000	-0.000223	0.000000	-0.003264	-0.000079	0.000000	0.000000
68.435038	23.319007	11.884072	-0.011061	0.267509	2.845312	0.000000	0.007407	0.000000	-0.003290	-0.000088	0.000000	0.000000
68.768372	23.331147	11.715752	-0.025357	0.237453	2.847810	0.000000	0.007407	0.000000	-0.003320	-0.000088	0.000000	0.000000
69.101705	23.352817	11.567468	-0.039654	0.207397	2.850309	0.000000	0.007407	0.000000	-0.003349	-0.000088	0.000000	0.000000
69.436288	23.384153	11.438779	-0.054004	0.177229	2.852816	0.000000	0.007407	0.000000	-0.003378	-0.000088	0.000000	0.000000
69.733611	23.420065	11.341357	-0.129677	0.180875	2.855045	0.000000	0.015077	0.000000	-0.003405	-0.000097	0.000000	0.000000
70.282671	23.160264	11.369940	0.600047	-0.233241	2.840152	0.000000	-0.069329	0.000000	-0.003427	0.000014	0.000000	0.000000
