#ParticleID	Turn	x[m]	xp	y[m]	yp	z[m]	dE[GeV]# s	beta_x	beta_y	alpha_x	alpha_y	D_x	D_y	D_px	D_py	orbit_x	orbit_px	orbit_y	orbit_py
0.300000	11.957144	25.318881	-0.020072	-0.021694	2.599795	0.000000	0.000526	0.000000	-0.000816	0.000710	0.000000	0.000000
0.601250	11.976830	25.335538	-0.045276	-0.033598	2.599740	0.000000	0.000526	0.000000	-0.000602	0.000710	0.000000	0.000000
0.898573	12.011149	25.359010	-0.040588	-0.107506	2.599685	0.000000	-0.005873	0.000000	-0.000391	0.000711	0.000000	0.000000
1.339533	12.200789	25.172376	-0.390861	0.529142	2.612983	0.000000	0.067607	0.000000	-0.000079	0.000705	0.000000	0.000000
1.780493	12.706024	24.432779	-0.758997	1.141717	2.658821	0.000000	0.141849	0.000000	0.000232	0.000707	0.000000	0.000000
2.221453	13.549947	23.173863	-1.161815	1.702347	2.737717	0.000000	0.217699	0.000000	0.000546	0.000717	0.000000	0.000000
2.662413	14.771120	21.452901	-1.617720	2.185523	2.850569	0.000000	0.296021	0.000000	0.000866	0.000736	0.000000	0.000000
3.108373	16.446434	19.322979	-2.151915	2.570426	3.000506	0.000000	0.378197	0.000000	0.001200	0.000762	0.000000	0.000000
3.657433	18.594004	16.930363	-1.735834	1.812866	3.182696	0.000000	0.285870	0.000000	0.001607	0.000717	0.000000	0.000000
4.206493	20.214216	15.294280	-1.197121	1.184435	3.312754	0.000000	0.188484	0.000000	0.001985	0.000659	0.000000	0.000000
4.755553	21.192599	14.298201	-0.573828	0.640371	3.388380	0.000000	0.087764	0.000000	0.002328	0.000589	0.000000	0.000000
5.304613	21.460018	13.871182	0.090014	0.141919	3.408235	0.000000	-0.014502	0.000000	0.002630	0.000509	0.000000	0.000000
5.603185	21.443162	13.771966	0.021256	0.155055	3.406351	0.000000	-0.005795	0.000000	0.002784	0.000515	0.000000	0.000000
5.936519	21.434175	13.676858	0.005704	0.130270	3.404248	0.000000	-0.005795	0.000000	0.002955	0.000515	0.000000	0.000000
6.269852	21.435556	13.598273	-0.009848	0.105484	3.402144	0.000000	-0.005795	0.000000	0.003127	0.000515	0.000000	0.000000
6.604435	21.447369	13.536011	-0.025458	0.080605	3.400033	0.000000	-0.005795	0.000000	0.003300	0.000515	0.000000	0.000000
6.901758	21.466640	13.494648	-0.093780	0.092829	3.398158	0.000000	0.002825	0.000000	0.003453	0.000524	0.000000	0.000000
7.450818	21.203519	13.654490	0.570424	-0.385652	3.371468	0.000000	-0.099008	0.000000	0.003709	0.000408	0.000000	0.000000
7.999878	20.228848	14.351703	1.194338	-0.891605	3.289328	0.000000	-0.199077	0.000000	0.003900	0.000285	0.000000	0.000000
8.548938	18.611480	15.635957	1.733882	-1.461074	3.153197	0.000000	-0.295611	0.000000	0.004021	0.000157	0.000000	0.000000
9.097998	16.465679	17.598738	2.150936	-2.134625	2.965493	0.000000	-0.386898	0.000000	0.004071	0.000025	0.000000	0.000000
9.543958	14.791475	19.347449	1.616412	-1.769811	2.811110	0.000000	-0.305668	0.000000	0.004106	0.000132	0.000000	0.000000
9.984918	13.571696	20.717789	1.160184	-1.325806	2.693381	0.000000	-0.228418	0.000000	0.004188	0.000238	0.000000	0.000000
10.425878	12.729500	21.668327	0.756970	-0.821470	2.609067	0.000000	-0.153772	0.000000	0.004317	0.000348	0.000000	0.000000
10.866838	12.226403	22.155808	0.388343	-0.279753	2.557205	0.000000	-0.080881	0.000000	0.004495	0.000462	0.000000	0.000000
11.309048	12.039262	22.157475	0.065544	0.222575	2.537184	0.000000	-0.014857	0.000000	0.004725	0.000569	0.000000	0.000000
11.606371	12.007661	22.029309	0.040742	0.208492	2.532598	0.000000	-0.014857	0.000000	0.004895	0.000569	0.000000	0.000000
12.086371	11.987769	21.840070	0.000701	0.185756	2.525193	0.000000	-0.014857	0.000000	0.005168	0.000569	0.000000	0.000000
12.566371	12.006316	21.672658	-0.039340	0.163019	2.517788	0.000000	-0.014857	0.000000	0.005441	0.000569	0.000000	0.000000
13.046371	12.063302	21.527073	-0.079381	0.140283	2.510384	0.000000	-0.014857	0.000000	0.005714	0.000569	0.000000	0.000000
13.526371	12.158727	21.403314	-0.119422	0.117547	2.502979	0.000000	-0.014857	0.000000	0.005988	0.000569	0.000000	0.000000
14.007621	12.292990	21.301146	-0.159567	0.094751	2.495555	0.000000	-0.014857	0.000000	0.006262	0.000569	0.000000	0.000000
14.304943	12.395235	21.249016	-0.155853	0.031947	2.490967	0.000000	-0.020588	0.000000	0.006431	0.000554	0.000000	0.000000
14.745903	12.691592	20.988431	-0.518477	0.556697	2.497177	0.000000	0.050010	0.000000	0.006712	0.000723	0.000000	0.000000
15.186863	13.317022	20.274458	-0.904801	1.056115	2.534542	0.000000	0.121170	0.000000	0.007070	0.000901	0.000000	0.000000
15.627823	14.300121	19.139580	-1.332483	1.507474	2.603484	0.000000	0.193701	0.000000	0.007508	0.001089	0.000000	0.000000
16.068783	15.685835	17.635435	-1.821072	1.890233	2.704786	0.000000	0.268427	0.000000	0.008032	0.001289	0.000000	0.000000
16.514743	17.561142	15.808894	-2.397822	2.187871	2.841293	0.000000	0.346686	0.000000	0.008655	0.001506	0.000000	0.000000
17.063803	19.968857	13.770206	-1.960063	1.546619	3.007330	0.000000	0.259758	0.000000	0.009403	0.001213	0.000000	0.000000
17.612863	21.816368	12.371482	-1.383774	1.015554	3.124462	0.000000	0.168241	0.000000	0.009984	0.000899	0.000000	0.000000
18.161923	22.973077	11.513084	-0.709680	0.556842	3.190619	0.000000	0.073753	0.000000	0.010387	0.000569	0.000000	0.000000
18.710983	23.357207	11.133865	0.014577	0.137802	3.204631	0.000000	-0.022034	0.000000	0.010607	0.000229	0.000000	0.000000
19.009556	23.385362	11.044074	-0.053680	0.136658	3.200242	0.000000	-0.014426	0.000000	0.010683	0.000255	0.000000	0.000000
19.342889	23.425914	10.963217	-0.067975	0.105912	3.195349	0.000000	-0.014426	0.000000	0.010768	0.000255	0.000000	0.000000
19.676223	23.475996	10.902858	-0.082270	0.075167	3.190455	0.000000	-0.014426	0.000000	0.010853	0.000255	0.000000	0.000000
20.010806	23.536141	10.862750	-0.213230	0.098126	3.185563	0.000000	0.001358	0.000000	0.010938	0.000309	0.000000	0.000000
20.308129	23.666949	10.812577	-0.282389	0.096109	3.185880	0.000000	0.008889	0.000000	0.011030	0.000337	0.000000	0.000000
20.857189	23.569040	10.926686	0.459733	-0.305128	3.164546	0.000000	-0.086173	0.000000	0.011117	-0.000022	0.000000	0.000000
21.406249	22.669022	11.490753	1.169365	-0.728106	3.091540	0.000000	-0.179707	0.000000	0.011006	-0.000380	0.000000	0.000000
21.955309	21.030518	12.544964	1.796353	-1.202960	2.968158	0.000000	-0.270058	0.000000	0.010700	-0.000732	0.000000	0.000000
22.504369	18.769350	14.164421	2.296381	-1.763521	2.796585	0.000000	-0.355629	0.000000	0.010205	-0.001071	0.000000	0.000000
22.950329	16.989284	15.619341	1.708100	-1.484632	2.655625	0.000000	-0.278579	0.000000	0.009785	-0.000812	0.000000	0.000000
23.391289	15.710222	16.780926	1.202817	-1.139200	2.549344	0.000000	-0.205180	0.000000	0.009482	-0.000563	0.000000	0.000000
23.832249	14.851058	17.613707	0.752515	-0.741923	2.474785	0.000000	-0.134113	0.000000	0.009288	-0.000321	0.000000	0.000000
24.273209	14.372513	18.079786	0.336611	-0.310880	2.431101	0.000000	-0.064571	0.000000	0.009199	-0.000083	0.000000	0.000000
24.715418	14.252823	18.157675	-0.032162	0.093646	2.417796	0.000000	-0.001163	0.000000	0.009215	0.000133	0.000000	0.000000
25.012741	14.278157	18.106900	-0.053044	0.077127	2.417410	0.000000	-0.001163	0.000000	0.009254	0.000133	0.000000	0.000000
25.346075	14.321323	18.061655	-0.076456	0.058609	2.416978	0.000000	-0.001163	0.000000	0.009298	0.000133	0.000000	0.000000
25.679408	14.380098	18.028755	-0.099867	0.040090	2.416546	0.000000	-0.001163	0.000000	0.009343	0.000133	0.000000	0.000000
26.013991	14.454494	18.008513	-0.006102	-0.124592	2.416088	0.000000	-0.020764	0.000000	0.009387	0.000057	0.000000	0.000000
26.311314	14.464201	18.087633	0.005567	-0.181665	2.409894	0.000000	-0.026136	0.000000	0.009404	0.000035	0.000000	0.000000
26.752274	14.638055	18.051917	-0.401206	0.262340	2.413398	0.000000	0.042342	0.000000	0.009473	0.000278	0.000000	0.000000
27.193234	15.177447	17.628361	-0.826320	0.694406	2.447075	0.000000	0.111300	0.000000	0.009650	0.000525	0.000000	0.000000
27.634194	16.107040	16.836236	-1.289206	1.094870	2.511307	0.000000	0.181519	0.000000	0.009936	0.000777	0.000000	0.000000
28.075154	17.469340	15.711589	-1.811026	1.445506	2.606823	0.000000	0.253799	0.000000	0.010336	0.001038	0.000000	0.000000
28.521114	19.350512	14.288518	-2.420768	1.731467	2.736328	0.000000	0.329437	0.000000	0.010861	0.001314	0.000000	0.000000
29.070174	21.742594	12.703735	-1.908751	1.171467	2.893974	0.000000	0.246042	0.000000	0.011483	0.000951	0.000000	0.000000
29.619234	23.494366	11.684816	-1.261822	0.694930	3.004758	0.000000	0.158297	0.000000	0.011903	0.000573	0.000000	0.000000
30.168294	24.481986	11.159173	-0.525706	0.267907	3.066718	0.000000	0.067752	0.000000	0.012110	0.000183	0.000000	0.000000
30.717354	24.635632	11.089360	0.247567	-0.140027	3.078758	0.000000	-0.023992	0.000000	0.012103	-0.000209	0.000000	0.000000
31.015927	24.525854	11.165656	0.177382	-0.141326	3.073792	0.000000	-0.016790	0.000000	0.012050	-0.000179	0.000000	0.000000
31.349260	24.412272	11.270024	0.163363	-0.171776	3.068255	0.000000	-0.016790	0.000000	0.011990	-0.000179	0.000000	0.000000
31.682593	24.308037	11.394691	0.149344	-0.202226	3.062718	0.000000	-0.016790	0.000000	0.011931	-0.000179	0.000000	0.000000
32.017177	24.212808	11.540240	0.135273	-0.232790	3.057161	0.000000	-0.016790	0.000000	0.011871	-0.000179	0.000000	0.000000
32.314499	24.136185	11.686695	0.066145	-0.232559	3.052228	0.000000	-0.009629	0.000000	0.011818	-0.000150	0.000000	0.000000
32.863559	23.650316	12.180673	0.813145	-0.672283	3.022200	0.000000	-0.100221	0.000000	0.011631	-0.000530	0.000000	0.000000
33.412619	22.370751	13.180914	1.502667	-1.159906	2.943036	0.000000	-0.189042	0.000000	0.011238	-0.000900	0.000000	0.000000
33.961679	20.387954	14.758672	2.085978	-1.730170	2.816134	0.000000	-0.274525	0.000000	0.010645	-0.001255	0.000000	0.000000
34.510739	17.842098	17.026345	2.521851	-2.423702	2.643739	0.000000	-0.355156	0.000000	0.009864	-0.001587	0.000000	0.000000
34.956699	15.864127	19.055070	1.927941	-2.105751	2.502332	0.000000	-0.282083	0.000000	0.009212	-0.001340	0.000000	0.000000
35.397659	14.389773	20.736749	1.427295	-1.692922	2.393858	0.000000	-0.212668	0.000000	0.008672	-0.001109	0.000000	0.000000
35.838619	13.326738	22.018791	0.991892	-1.203050	2.315344	0.000000	-0.145664	0.000000	0.008232	-0.000891	0.000000	0.000000
36.279579	12.626418	22.842860	0.601830	-0.658430	2.265898	0.000000	-0.080310	0.000000	0.007885	-0.000683	0.000000	0.000000
36.721789	12.256146	23.171763	0.267014	-0.136389	2.244937	0.000000	-0.020963	0.000000	0.007627	-0.000501	0.000000	0.000000
37.019112	12.105094	23.256752	0.241026	-0.149458	2.238853	0.000000	-0.020963	0.000000	0.007478	-0.000501	0.000000	0.000000
37.352445	11.954122	23.361275	0.211889	-0.164111	2.232032	0.000000	-0.020963	0.000000	0.007311	-0.000501	0.000000	0.000000
37.685779	11.822575	23.475567	0.182753	-0.178764	2.225212	0.000000	-0.020963	0.000000	0.007144	-0.000501	0.000000	0.000000
38.020362	11.710068	23.600111	0.153508	-0.193472	2.218366	0.000000	-0.020963	0.000000	0.006976	-0.000501	0.000000	0.000000
38.317684	11.626496	23.719077	0.154158	-0.261059	2.212280	0.000000	-0.026032	0.000000	0.006827	-0.000518	0.000000	0.000000
38.758644	11.639455	23.686456	-0.183798	0.334748	2.214954	0.000000	0.037335	0.000000	0.006637	-0.000344	0.000000	0.000000
39.199604	11.953079	23.133068	-0.530151	0.915320	2.245567	0.000000	0.101131	0.000000	0.006523	-0.000174	0.000000	0.000000
39.640564	12.581699	22.084099	-0.900730	1.454237	2.304470	0.000000	0.166081	0.000000	0.006483	-0.000007	0.000000	0.000000
40.081524	13.554047	20.587284	-1.312473	1.926976	2.392334	0.000000	0.232923	0.000000	0.006517	0.000161	0.000000	0.000000
40.527484	14.932110	18.688008	-1.788124	2.313492	2.511645	0.000000	0.302844	0.000000	0.006627	0.000331	0.000000	0.000000
41.076544	16.693228	16.553136	-1.399994	1.597321	2.657197	0.000000	0.226940	0.000000	0.006750	0.000115	0.000000	0.000000
41.625604	17.970860	15.138044	-0.912945	0.994945	2.760016	0.000000	0.147011	0.000000	0.006753	-0.000104	0.000000	0.000000
42.174664	18.674722	14.341920	-0.361394	0.463451	2.818278	0.000000	0.064473	0.000000	0.006636	-0.000321	0.000000	0.000000
42.723724	18.755082	14.108048	0.215685	-0.035025	2.830948	0.000000	-0.019214	0.000000	0.006401	-0.000532	0.000000	0.000000
43.022297	18.658819	14.114422	0.152980	-0.021229	2.827452	0.000000	-0.012221	0.000000	0.006247	-0.000516	0.000000	0.000000
43.502297	18.524595	14.151133	0.126653	-0.055252	2.821834	0.000000	-0.012221	0.000000	0.005999	-0.000516	0.000000	0.000000
43.982297	18.415644	14.220506	0.100326	-0.089275	2.816215	0.000000	-0.012221	0.000000	0.005752	-0.000516	0.000000	0.000000
44.462297	18.331968	14.322541	0.073999	-0.123298	2.810597	0.000000	-0.012221	0.000000	0.005504	-0.000516	0.000000	0.000000
44.942297	18.273566	14.457238	0.047672	-0.157321	2.804979	0.000000	-0.012221	0.000000	0.005257	-0.000516	0.000000	0.000000
45.423547	18.240611	14.624894	-0.069098	-0.118972	2.799363	0.000000	0.001649	0.000000	0.005008	-0.000491	0.000000	0.000000
45.720870	18.286582	14.701760	-0.131285	-0.102863	2.800000	0.000000	0.008663	0.000000	0.004862	-0.000479	0.000000	0.000000
46.269930	18.122587	15.098738	0.427891	-0.624369	2.782347	0.000000	-0.073936	0.000000	0.004557	-0.000631	0.000000	0.000000
46.818990	17.357521	16.089341	0.956825	-1.190349	2.719707	0.000000	-0.155234	0.000000	0.004171	-0.000773	0.000000	0.000000
47.368050	16.045456	17.744126	1.418148	-1.841123	2.613188	0.000000	-0.233790	0.000000	0.003711	-0.000900	0.000000	0.000000
47.917110	14.279108	20.180958	1.779269	-2.623044	2.464672	0.000000	-0.308214	0.000000	0.003185	-0.001012	0.000000	0.000000
48.363070	12.903469	22.346936	1.315824	-2.213252	2.343006	0.000000	-0.239562	0.000000	0.002751	-0.000935	0.000000	0.000000
48.804030	11.922729	24.081007	0.916312	-1.704130	2.252284	0.000000	-0.174036	0.000000	0.002354	-0.000869	0.000000	0.000000
49.244990	11.274634	25.330013	0.558675	-1.117470	2.189969	0.000000	-0.110484	0.000000	0.001983	-0.000813	0.000000	0.000000
49.685950	10.929562	26.037127	0.226570	-0.479966	2.155356	0.000000	-0.048181	0.000000	0.001635	-0.000767	0.000000	0.000000
50.128160	10.871911	26.169894	-0.068963	0.116215	2.148064	0.000000	0.008378	0.000000	0.001305	-0.000732	0.000000	0.000000
50.425482	10.921089	26.104211	-0.096440	0.104700	2.150773	0.000000	0.008378	0.000000	0.001087	-0.000732	0.000000	0.000000
50.758816	10.995652	26.038714	-0.127246	0.091791	2.153810	0.000000	0.008378	0.000000	0.000843	-0.000732	0.000000	0.000000
51.092149	11.090751	25.981823	-0.158052	0.078881	2.156847	0.000000	0.008378	0.000000	0.000599	-0.000732	0.000000	0.000000
51.426732	11.206633	25.933900	-0.098058	-0.144465	2.159873	0.000000	-0.009144	0.000000	0.000354	-0.000735	0.000000	0.000000
51.724055	11.272907	26.023285	-0.097235	-0.220177	2.157373	0.000000	-0.014428	0.000000	0.000136	-0.000735	0.000000	0.000000
52.165015	11.505442	25.927782	-0.432341	0.435931	2.164988	0.000000	0.047577	0.000000	-0.000189	-0.000736	0.000000	0.000000
52.605975	12.041064	25.260219	-0.787194	1.072201	2.200042	0.000000	0.110130	0.000000	-0.000515	-0.000745	0.000000	0.000000
53.046935	12.904238	24.050976	-1.178006	1.659685	2.262937	0.000000	0.173947	0.000000	-0.000847	-0.000763	0.000000	0.000000
53.487895	14.134391	22.355079	-1.622629	2.171654	2.354391	0.000000	0.239752	0.000000	-0.001189	-0.000789	0.000000	0.000000
53.933855	15.808743	20.224355	-2.145649	2.586129	2.476965	0.000000	0.308693	0.000000	-0.001548	-0.000824	0.000000	0.000000
54.482915	17.963917	17.826325	-1.756803	1.807278	2.626553	0.000000	0.233869	0.000000	-0.001985	-0.000767	0.000000	0.000000
55.031975	19.621020	16.208276	-1.243890	1.157153	2.733819	0.000000	0.154885	0.000000	-0.002388	-0.000696	0.000000	0.000000
55.581035	20.663035	15.254950	-0.643138	0.589446	2.796855	0.000000	0.073142	0.000000	-0.002748	-0.000613	0.000000	0.000000
56.130095	21.016387	14.898439	0.003025	0.063725	2.814539	0.000000	-0.009908	0.000000	-0.003059	-0.000519	0.000000	0.000000
56.428668	21.052453	14.842537	-0.067531	0.083495	2.813989	0.000000	-0.002367	0.000000	-0.003216	-0.000527	0.000000	0.000000
56.762001	21.102776	14.794412	-0.083437	0.060880	2.813376	0.000000	-0.002367	0.000000	-0.003392	-0.000527	0.000000	0.000000
57.095334	21.163702	14.761364	-0.099343	0.038265	2.812762	0.000000	-0.002367	0.000000	-0.003568	-0.000527	0.000000	0.000000
57.429918	21.235521	14.743352	-0.115308	0.015566	2.812147	0.000000	-0.002367	0.000000	-0.003744	-0.000527	0.000000	0.000000
57.727240	21.308316	14.740087	-0.186970	0.035041	2.811600	0.000000	0.005216	0.000000	-0.003901	-0.000537	0.000000	0.000000
58.276300	21.149379	14.984195	0.474458	-0.482284	2.791922	0.000000	-0.077703	0.000000	-0.004160	-0.000407	0.000000	0.000000
58.825360	20.278393	15.811768	1.102369	-1.033957	2.726957	0.000000	-0.159252	0.000000	-0.004346	-0.000269	0.000000	0.000000
59.374420	18.756876	17.281739	1.652423	-1.659265	2.617856	0.000000	-0.237980	0.000000	-0.004455	-0.000126	0.000000	0.000000
59.923480	16.692275	19.498797	2.085778	-2.402743	2.466551	0.000000	-0.312490	0.000000	-0.004485	0.000018	0.000000	0.000000
60.369440	15.075033	21.469096	1.553602	-1.996869	2.342584	0.000000	-0.243854	0.000000	-0.004502	-0.000098	0.000000	0.000000
60.810400	13.910874	23.017501	1.096574	-1.501437	2.249652	0.000000	-0.178379	0.000000	-0.004571	-0.000215	0.000000	0.000000
61.251360	13.126207	24.097100	0.689638	-0.937701	2.185165	0.000000	-0.114933	0.000000	-0.004692	-0.000335	0.000000	0.000000
61.692320	12.685190	24.658781	0.314206	-0.331306	2.148391	0.000000	-0.052793	0.000000	-0.004867	-0.000458	0.000000	0.000000
62.134530	12.567723	24.676407	-0.014683	0.226921	2.138919	0.000000	0.003256	0.000000	-0.005097	-0.000573	0.000000	0.000000
62.431853	12.583490	24.545236	-0.038346	0.214252	2.140058	0.000000	0.003256	0.000000	-0.005268	-0.000573	0.000000	0.000000
62.765186	12.617897	24.407136	-0.064875	0.200048	2.141335	0.000000	0.003256	0.000000	-0.005459	-0.000573	0.000000	0.000000
63.098520	12.669989	24.278505	-0.091403	0.185845	2.142611	0.000000	0.003256	0.000000	-0.005650	-0.000573	0.000000	0.000000
63.433103	12.740063	24.158914	-0.118031	0.171587	2.143893	0.000000	0.003256	0.000000	-0.005842	-0.000573	0.000000	0.000000
63.730426	12.817272	24.060673	-0.108505	0.096419	2.145030	0.000000	-0.002298	0.000000	-0.006013	-0.000558	0.000000	0.000000
64.171386	13.075341	23.710779	-0.479246	0.694113	2.157889	0.000000	0.059446	0.000000	-0.006293	-0.000717	0.000000	0.000000
64.612346	13.668690	22.845780	-0.871871	1.260229	2.198166	0.000000	0.121874	0.000000	-0.006646	-0.000884	0.000000	0.000000
65.053306	14.624409	21.505034	-1.304310	1.769014	2.266323	0.000000	0.185700	0.000000	-0.007074	-0.001060	0.000000	0.000000
65.494266	15.986132	19.749541	-1.796311	2.197323	2.363140	0.000000	0.251651	0.000000	-0.007583	-0.001249	0.000000	0.000000
65.940226	17.839344	17.634314	-2.374868	2.526247	2.491306	0.000000	0.320858	0.000000	-0.008185	-0.001454	0.000000	0.000000
66.489286	20.212360	15.268557	-1.922749	1.808446	2.647689	0.000000	0.245476	0.000000	-0.008908	-0.001177	0.000000	0.000000
67.038346	22.011072	13.616041	-1.334893	1.219430	2.761272	0.000000	0.165722	0.000000	-0.009473	-0.000879	0.000000	0.000000
67.587406	23.108524	12.559071	-0.652803	0.717252	2.830031	0.000000	0.083016	0.000000	-0.009870	-0.000566	0.000000	0.000000
68.136466	23.427266	12.022369	0.075364	0.266149	2.852743	0.000000	-0.001172	0.000000	-0.010093	-0.000242	0.000000	0.000000
68.435038	23.425559	11.851232	-0.003632	0.273115	2.854878	0.000000	0.006895	0.000000	-0.010173	-0.000270	0.000000	0.000000
68.768372	23.432724	11.679230	-0.017862	0.242891	2.857266	0.000000	0.006895	0.000000	-0.010263	-0.000270	0.000000	0.000000
69.101705	23.449376	11.527377	-0.032092	0.212666	2.859655	0.000000	0.006895	0.000000	-0.010353	-0.000270	0.000000	0.000000
69.436288	23.475629	11.395219	-0.046375	0.182329	2.862052	0.000000	0.006895	0.000000	-0.010443	-0.000270	0.000000	0.000000
69.733611	23.507056	11.294777	-0.125750	0.187363	2.864187	0.000000	0.015020	0.000000	-0.010524	-0.000299	0.000000	0.000000
70.282671	23.241474	11.315473	0.606577	-0.225286	2.849233	0.000000	-0.069663	0.000000	-0.010594	0.000043	0.000000	0.000000
