#ParticleID	Turn	x[m]	xp	y[m]	yp	z[m]	dE[GeV]# s	beta_x	beta_y	alpha_x	alpha_y	D_x	D_y	D_px	D_py	orbit_x	orbit_px	orbit_y	orbit_py
0.300000	11.922275	25.226387	-0.019199	-0.023005	2.605141	0.000000	0.000615	0.000000	-0.000523	0.000458	0.000000	0.000000
0.601250	11.941457	25.243848	-0.044476	-0.034953	2.605188	0.000000	0.000615	0.000000	-0.000385	0.000458	0.000000	0.000000
0.898573	11.975322	25.268139	-0.039988	-0.108691	2.605235	0.000000	-0.005789	0.000000	-0.000249	0.000459	0.000000	0.000000
1.339533	12.164028	25.083604	-0.389425	0.525583	2.618708	0.000000	0.067836	0.000000	-0.000047	0.000455	0.000000	0.000000
1.780493	12.667566	24.348138	-0.756657	1.135944	2.664786	0.000000	0.142229	0.000000	0.000154	0.000457	0.000000	0.000000
2.221453	13.508944	23.095199	-1.158462	1.694622	2.743992	0.000000	0.218237	0.000000	0.000356	0.000463	0.000000	0.000000
2.662413	14.726608	21.381791	-1.613200	2.176197	2.857225	0.000000	0.296725	0.000000	0.000563	0.000475	0.000000	0.000000
3.108373	16.397224	19.260762	-2.145998	2.559911	3.007629	0.000000	0.379079	0.000000	0.000778	0.000492	0.000000	0.000000
3.657433	18.539000	16.878272	-1.731425	1.804861	3.190374	0.000000	0.286514	0.000000	0.001041	0.000463	0.000000	0.000000
4.206493	20.155260	15.249885	-1.194538	1.178369	3.320844	0.000000	0.188874	0.000000	0.001285	0.000425	0.000000	0.000000
4.755553	21.131820	14.259617	-0.573262	0.635810	3.396727	0.000000	0.087892	0.000000	0.001507	0.000380	0.000000	0.000000
5.304613	21.399684	13.836938	0.088517	0.138539	3.416680	0.000000	-0.014644	0.000000	0.001701	0.000328	0.000000	0.000000
5.603185	21.383905	13.739608	0.019437	0.151878	3.414836	0.000000	-0.005845	0.000000	0.001800	0.000332	0.000000	0.000000
5.936519	21.376145	13.646630	0.003843	0.127058	3.412777	0.000000	-0.005845	0.000000	0.001911	0.000332	0.000000	0.000000
6.269852	21.378781	13.570198	-0.011751	0.102237	3.410717	0.000000	-0.005845	0.000000	0.002022	0.000332	0.000000	0.000000
6.604435	21.391882	13.510120	-0.027404	0.077324	3.408651	0.000000	-0.005845	0.000000	0.002133	0.000332	0.000000	0.000000
6.901758	21.412316	13.470721	-0.096206	0.089784	3.406814	0.000000	0.002889	0.000000	0.002232	0.000338	0.000000	0.000000
7.450818	21.152792	13.633539	0.566245	-0.388066	3.380171	0.000000	-0.099221	0.000000	0.002398	0.000263	0.000000	0.000000
7.999878	20.183522	14.333123	1.188701	-0.893559	3.297903	0.000000	-0.199567	0.000000	0.002520	0.000184	0.000000	0.000000
8.548938	18.572975	15.619309	1.727188	-1.462705	3.161474	0.000000	-0.296369	0.000000	0.002598	0.000101	0.000000	0.000000
9.097998	16.434925	17.583715	2.143663	-2.136044	2.973303	0.000000	-0.387913	0.000000	0.002630	0.000016	0.000000	0.000000
9.543958	14.766657	19.333960	1.610388	-1.771903	2.818525	0.000000	-0.306495	0.000000	0.002653	0.000084	0.000000	0.000000
9.984918	13.551778	20.706362	1.155087	-1.328440	2.700503	0.000000	-0.229060	0.000000	0.002705	0.000153	0.000000	0.000000
10.425878	12.713758	21.659399	0.752564	-0.824529	2.615991	0.000000	-0.154236	0.000000	0.002788	0.000224	0.000000	0.000000
10.866838	12.214307	22.149704	0.384425	-0.283098	2.564025	0.000000	-0.081171	0.000000	0.002903	0.000298	0.000000	0.000000
11.309048	12.030452	22.154413	0.062390	0.218287	2.543994	0.000000	-0.015091	0.000000	0.003052	0.000367	0.000000	0.000000
11.606371	12.000728	22.028789	0.037580	0.204227	2.539398	0.000000	-0.015091	0.000000	0.003161	0.000367	0.000000	0.000000
12.086371	11.983877	21.843626	-0.002474	0.181529	2.531978	0.000000	-0.015091	0.000000	0.003337	0.000367	0.000000	0.000000
12.566371	12.005478	21.680254	-0.042528	0.158830	2.524558	0.000000	-0.015091	0.000000	0.003513	0.000367	0.000000	0.000000
13.046371	12.065531	21.538672	-0.082582	0.136132	2.517138	0.000000	-0.015091	0.000000	0.003690	0.000367	0.000000	0.000000
13.526371	12.164036	21.418881	-0.122636	0.113433	2.509718	0.000000	-0.015091	0.000000	0.003866	0.000367	0.000000	0.000000
14.007621	12.301400	21.320653	-0.162795	0.090676	2.502278	0.000000	-0.015091	0.000000	0.004042	0.000367	0.000000	0.000000
14.304943	12.405575	21.270925	-0.158391	0.026630	2.497682	0.000000	-0.020973	0.000000	0.004152	0.000357	0.000000	0.000000
14.745903	12.704248	21.014748	-0.521315	0.552075	2.503856	0.000000	0.049793	0.000000	0.004333	0.000466	0.000000	0.000000
15.186863	13.332291	20.304491	-0.908066	1.052400	2.541283	0.000000	0.121122	0.000000	0.004564	0.000581	0.000000	0.000000
15.627823	14.318411	19.172468	-1.336316	1.504836	2.610389	0.000000	0.193824	0.000000	0.004846	0.000702	0.000000	0.000000
16.068783	15.707681	17.670187	-1.825638	1.888796	2.711958	0.000000	0.268727	0.000000	0.005184	0.000832	0.000000	0.000000
16.514743	17.587220	15.844487	-2.403261	2.187647	2.848842	0.000000	0.347162	0.000000	0.005586	0.000971	0.000000	0.000000
17.063803	20.000423	13.806492	-1.965028	1.545744	3.015321	0.000000	0.259992	0.000000	0.006068	0.000783	0.000000	0.000000
17.612863	21.852763	12.409186	-1.387943	1.013956	3.132704	0.000000	0.168222	0.000000	0.006443	0.000580	0.000000	0.000000
18.161923	23.013334	11.553037	-0.712780	0.554402	3.198913	0.000000	0.073477	0.000000	0.006703	0.000367	0.000000	0.000000
18.710983	23.400112	11.177058	0.012752	0.134342	3.212777	0.000000	-0.022566	0.000000	0.006845	0.000147	0.000000	0.000000
19.009556	23.430661	11.088630	-0.057604	0.134404	3.208348	0.000000	-0.014661	0.000000	0.006894	0.000165	0.000000	0.000000
19.342889	23.473821	11.009228	-0.071877	0.103800	3.203406	0.000000	-0.014661	0.000000	0.006949	0.000165	0.000000	0.000000
19.676223	23.526497	10.950229	-0.086151	0.073197	3.198464	0.000000	-0.014661	0.000000	0.007004	0.000165	0.000000	0.000000
20.010806	23.589232	10.911391	-0.217352	0.096540	3.193523	0.000000	0.001161	0.000000	0.007059	0.000200	0.000000	0.000000
20.308129	23.722439	10.862146	-0.288766	0.095727	3.193811	0.000000	0.008999	0.000000	0.007118	0.000218	0.000000	0.000000
20.857189	23.630515	10.977411	0.455246	-0.306877	3.172500	0.000000	-0.086310	0.000000	0.007174	-0.000014	0.000000	0.000000
21.406249	22.734310	11.544169	1.167092	-0.731345	3.099319	0.000000	-0.180087	0.000000	0.007103	-0.000245	0.000000	0.000000
21.955309	21.097156	12.602795	1.796470	-1.207914	2.975566	0.000000	-0.270673	0.000000	0.006906	-0.000472	0.000000	0.000000
22.504369	18.834752	14.228701	2.298906	-1.770535	2.803434	0.000000	-0.356465	0.000000	0.006586	-0.000691	0.000000	0.000000
22.950329	17.053222	15.689112	1.709340	-1.490109	2.662003	0.000000	-0.279261	0.000000	0.006316	-0.000523	0.000000	0.000000
23.391289	15.773761	16.854673	1.202739	-1.142833	2.555357	0.000000	-0.205709	0.000000	0.006120	-0.000363	0.000000	0.000000
23.832249	14.915321	17.689743	0.751105	-0.743551	2.480534	0.000000	-0.134497	0.000000	0.005995	-0.000207	0.000000	0.000000
24.273209	14.438666	18.156323	0.333799	-0.310432	2.436684	0.000000	-0.064814	0.000000	0.005938	-0.000053	0.000000	0.000000
24.715418	14.322111	18.232925	-0.035224	0.094559	2.423305	0.000000	-0.001472	0.000000	0.005948	0.000086	0.000000	0.000000
25.012741	14.349237	18.181588	-0.056010	0.078106	2.422842	0.000000	-0.001472	0.000000	0.005974	0.000086	0.000000	0.000000
25.346075	14.394344	18.135666	-0.079313	0.059661	2.422322	0.000000	-0.001472	0.000000	0.006002	0.000086	0.000000	0.000000
25.679408	14.454987	18.102041	-0.102616	0.041215	2.421803	0.000000	-0.001472	0.000000	0.006031	0.000086	0.000000	0.000000
26.013991	14.531186	18.081022	-0.008120	-0.123982	2.421257	0.000000	-0.021115	0.000000	0.006060	0.000037	0.000000	0.000000
26.311314	14.542082	18.159731	0.005000	-0.182609	2.414966	0.000000	-0.026692	0.000000	0.006071	0.000022	0.000000	0.000000
26.752274	14.717222	18.123993	-0.403609	0.263340	2.418275	0.000000	0.041908	0.000000	0.006115	0.000179	0.000000	0.000000
27.193234	15.259525	17.698731	-0.830664	0.697306	2.451846	0.000000	0.110984	0.000000	0.006229	0.000339	0.000000	0.000000
27.634194	16.193782	16.903295	-1.295683	1.099540	2.516059	0.000000	0.181320	0.000000	0.006414	0.000502	0.000000	0.000000
28.075154	17.562697	15.773879	-1.819920	1.451738	2.611646	0.000000	0.253717	0.000000	0.006672	0.000670	0.000000	0.000000
28.521114	19.452740	14.344794	-2.432401	1.738910	2.741305	0.000000	0.329464	0.000000	0.007011	0.000848	0.000000	0.000000
29.070174	21.855725	12.753029	-1.917343	1.176977	2.899127	0.000000	0.245916	0.000000	0.007413	0.000614	0.000000	0.000000
29.619234	23.614790	11.728999	-1.266797	0.698893	3.009934	0.000000	0.158015	0.000000	0.007683	0.000369	0.000000	0.000000
30.168294	24.605615	11.199756	-0.526733	0.270598	3.071764	0.000000	0.067316	0.000000	0.007817	0.000118	0.000000	0.000000
30.717354	24.758172	11.127599	0.250552	-0.138418	3.083520	0.000000	-0.024575	0.000000	0.007813	-0.000135	0.000000	0.000000
31.015927	24.648289	11.202171	0.177691	-0.138429	3.078459	0.000000	-0.017056	0.000000	0.007778	-0.000115	0.000000	0.000000
31.349260	24.534478	11.304566	0.163741	-0.168755	3.072812	0.000000	-0.017056	0.000000	0.007740	-0.000115	0.000000	0.000000
31.682593	24.429968	11.427178	0.149790	-0.199081	3.067165	0.000000	-0.017056	0.000000	0.007702	-0.000115	0.000000	0.000000
32.017177	24.334419	11.570581	0.135787	-0.229522	3.061497	0.000000	-0.017056	0.000000	0.007663	-0.000115	0.000000	0.000000
32.314499	24.257414	11.715088	0.064097	-0.227975	3.056463	0.000000	-0.009591	0.000000	0.007629	-0.000096	0.000000	0.000000
32.863559	23.771684	12.204314	0.815077	-0.668213	3.026359	0.000000	-0.100307	0.000000	0.007509	-0.000341	0.000000	0.000000
33.412619	22.488021	13.200174	1.508458	-1.156056	2.946985	0.000000	-0.189249	0.000000	0.007255	-0.000580	0.000000	0.000000
33.961679	20.497148	14.773607	2.095243	-1.726257	2.819744	0.000000	-0.274843	0.000000	0.006873	-0.000809	0.000000	0.000000
34.510739	17.939770	17.036697	2.533969	-2.419436	2.646888	0.000000	-0.355574	0.000000	0.006369	-0.001024	0.000000	0.000000
34.956699	15.952472	19.061161	1.937368	-2.100788	2.505096	0.000000	-0.282440	0.000000	0.005948	-0.000864	0.000000	0.000000
35.397659	14.471006	20.738128	1.434394	-1.687416	2.396300	0.000000	-0.212962	0.000000	0.005601	-0.000715	0.000000	0.000000
35.838619	13.402726	22.015113	0.996975	-1.197258	2.317521	0.000000	-0.145904	0.000000	0.005316	-0.000574	0.000000	0.000000
36.279579	12.698801	22.834012	0.605121	-0.652619	2.267863	0.000000	-0.080501	0.000000	0.005093	-0.000440	0.000000	0.000000
36.721789	12.326389	23.157880	0.269617	-0.132346	2.246737	0.000000	-0.021260	0.000000	0.004927	-0.000323	0.000000	0.000000
37.019112	12.173755	23.240463	0.243743	-0.145410	2.240512	0.000000	-0.021260	0.000000	0.004831	-0.000323	0.000000	0.000000
37.352445	12.020930	23.342285	0.214735	-0.160056	2.233533	0.000000	-0.021260	0.000000	0.004723	-0.000323	0.000000	0.000000
37.685779	11.887443	23.453871	0.185726	-0.174702	2.226555	0.000000	-0.021260	0.000000	0.004616	-0.000323	0.000000	0.000000
38.020362	11.772903	23.575694	0.156610	-0.189403	2.219549	0.000000	-0.021260	0.000000	0.004508	-0.000323	0.000000	0.000000
38.317684	11.687462	23.692219	0.158188	-0.258227	2.213324	0.000000	-0.026458	0.000000	0.004412	-0.000333	0.000000	0.000000
38.758644	11.697480	23.657433	-0.181084	0.336810	2.215748	0.000000	0.036928	0.000000	0.004290	-0.000221	0.000000	0.000000
39.199604	12.009246	23.102620	-0.528628	0.916520	2.246145	0.000000	0.100738	0.000000	0.004216	-0.000112	0.000000	0.000000
39.640564	12.637006	22.053028	-0.900328	1.454523	2.304861	0.000000	0.165697	0.000000	0.004191	-0.000003	0.000000	0.000000
40.081524	13.609446	20.556418	-1.313169	1.926339	2.392565	0.000000	0.232543	0.000000	0.004213	0.000105	0.000000	0.000000
40.527484	14.988539	18.658214	-1.789903	2.311902	2.511737	0.000000	0.302456	0.000000	0.004285	0.000215	0.000000	0.000000
41.076544	16.750341	16.524682	-1.399596	1.596586	2.657113	0.000000	0.226558	0.000000	0.004365	0.000075	0.000000	0.000000
41.625604	18.026307	15.110006	-0.910408	0.995005	2.759723	0.000000	0.146642	0.000000	0.004367	-0.000066	0.000000	0.000000
42.174664	18.726285	14.313410	-0.356904	0.464305	2.817745	0.000000	0.064123	0.000000	0.004292	-0.000207	0.000000	0.000000
42.723724	18.800823	14.078148	0.221812	-0.033318	2.830149	0.000000	-0.019537	0.000000	0.004141	-0.000343	0.000000	0.000000
43.022297	18.701549	14.083147	0.158049	-0.018964	2.826545	0.000000	-0.012402	0.000000	0.004041	-0.000333	0.000000	0.000000
43.502297	18.562450	14.117718	0.131741	-0.053059	2.820752	0.000000	-0.012402	0.000000	0.003882	-0.000333	0.000000	0.000000
43.982297	18.448606	14.185021	0.105434	-0.087155	2.814959	0.000000	-0.012402	0.000000	0.003722	-0.000333	0.000000	0.000000
44.462297	18.360017	14.285055	0.079126	-0.121251	2.809166	0.000000	-0.012402	0.000000	0.003563	-0.000333	0.000000	0.000000
44.942297	18.296683	14.417822	0.052819	-0.155346	2.803373	0.000000	-0.012402	0.000000	0.003403	-0.000333	0.000000	0.000000
45.423547	18.258765	14.583613	-0.064021	-0.117274	2.797582	0.000000	0.001459	0.000000	0.003243	-0.000317	0.000000	0.000000
45.720870	18.301701	14.659490	-0.126919	-0.100724	2.798110	0.000000	0.008576	0.000000	0.003149	-0.000308	0.000000	0.000000
46.269930	18.132744	15.053372	0.432618	-0.620854	2.780323	0.000000	-0.073956	0.000000	0.002952	-0.000407	0.000000	0.000000
46.818990	17.362524	16.039230	0.961586	-1.185209	2.717562	0.000000	-0.155182	0.000000	0.002703	-0.000499	0.000000	0.000000
47.368050	16.045467	17.687283	1.422616	-1.833988	2.610938	0.000000	-0.233663	0.000000	0.002406	-0.000582	0.000000	0.000000
47.917110	14.274627	20.114916	1.783139	-2.613404	2.462336	0.000000	-0.308009	0.000000	0.002066	-0.000654	0.000000	0.000000
48.363070	12.895736	22.272869	1.319454	-2.205041	2.340601	0.000000	-0.239423	0.000000	0.001786	-0.000604	0.000000	0.000000
48.804030	11.911911	24.000432	0.919849	-1.697688	2.249790	0.000000	-0.173962	0.000000	0.001529	-0.000561	0.000000	0.000000
49.244990	11.260731	25.244632	0.562276	-1.113090	2.187367	0.000000	-0.110476	0.000000	0.001290	-0.000525	0.000000	0.000000
49.685950	10.912439	25.948864	0.230396	-0.477848	2.152623	0.000000	-0.048243	0.000000	0.001065	-0.000495	0.000000	0.000000
50.128160	10.851278	26.080800	-0.064673	0.115819	2.145175	0.000000	0.008228	0.000000	0.000852	-0.000472	0.000000	0.000000
50.425482	10.897916	26.015363	-0.092188	0.104266	2.147762	0.000000	0.008228	0.000000	0.000712	-0.000472	0.000000	0.000000
50.758816	10.969657	25.950170	-0.123035	0.091314	2.150662	0.000000	0.008228	0.000000	0.000554	-0.000472	0.000000	0.000000
51.092149	11.061962	25.893611	-0.153881	0.078362	2.153562	0.000000	0.008228	0.000000	0.000397	-0.000472	0.000000	0.000000
51.426732	11.175067	25.846049	-0.094185	-0.144315	2.156450	0.000000	-0.009267	0.000000	0.000239	-0.000474	0.000000	0.000000
51.724055	11.239054	25.935356	-0.093490	-0.219776	2.153836	0.000000	-0.014544	0.000000	0.000098	-0.000474	0.000000	0.000000
52.165015	11.467953	25.840528	-0.427723	0.434006	2.161269	0.000000	0.047367	0.000000	-0.000111	-0.000474	0.000000	0.000000
52.605975	11.999082	25.175658	-0.781494	1.068040	2.196096	0.000000	0.109822	0.000000	-0.000321	-0.000480	0.000000	0.000000
53.046935	12.856704	23.971001	-1.170964	1.653478	2.258717	0.000000	0.173533	0.000000	-0.000535	-0.000491	0.000000	0.000000
53.487895	14.079994	22.281371	-1.613928	2.163682	2.349848	0.000000	0.239226	0.000000	-0.000755	-0.000508	0.000000	0.000000
53.933855	15.745759	20.158402	-2.134889	2.576764	2.472037	0.000000	0.308046	0.000000	-0.000986	-0.000530	0.000000	0.000000
54.482915	17.890007	17.769236	-1.747608	1.800366	2.621166	0.000000	0.233387	0.000000	-0.001268	-0.000494	0.000000	0.000000
55.031975	19.538267	16.157643	-1.236900	1.152203	2.728079	0.000000	0.154581	0.000000	-0.001527	-0.000448	0.000000	0.000000
55.581035	20.574134	15.208829	-0.638839	0.586107	2.790877	0.000000	0.073025	0.000000	-0.001759	-0.000395	0.000000	0.000000
56.130095	20.924460	14.855210	0.004336	0.061757	2.808444	0.000000	-0.009832	0.000000	-0.001960	-0.000335	0.000000	0.000000
56.428668	20.959320	14.800798	-0.065536	0.080971	2.807837	0.000000	-0.002374	0.000000	-0.002061	-0.000340	0.000000	0.000000
56.762001	21.008335	14.754373	-0.081508	0.058302	2.807159	0.000000	-0.002374	0.000000	-0.002175	-0.000340	0.000000	0.000000
57.095334	21.067998	14.723061	-0.097480	0.035633	2.806481	0.000000	-0.002374	0.000000	-0.002288	-0.000340	0.000000	0.000000
57.429918	21.138593	14.706830	-0.113512	0.012879	2.805801	0.000000	-0.002374	0.000000	-0.002402	-0.000340	0.000000	0.000000
57.727240	21.210332	14.705181	-0.184332	0.031809	2.805196	0.000000	0.005108	0.000000	-0.002503	-0.000347	0.000000	0.000000
58.276300	21.050353	14.952314	0.473802	-0.484585	2.785426	0.000000	-0.077606	0.000000	-0.002671	-0.000263	0.000000	0.000000
58.825360	20.181906	15.781998	1.098466	-1.035492	2.720507	0.000000	-0.158949	0.000000	-0.002791	-0.000174	0.000000	0.000000
59.374420	18.666329	17.253323	1.645547	-1.660148	2.611589	0.000000	-0.237475	0.000000	-0.002862	-0.000083	0.000000	0.000000
59.923480	16.610660	19.471077	2.076406	-2.403042	2.460602	0.000000	-0.311790	0.000000	-0.002882	0.000010	0.000000	0.000000
60.369440	15.000750	21.442071	1.546443	-1.998077	2.336909	0.000000	-0.243297	0.000000	-0.002894	-0.000065	0.000000	0.000000
60.810400	13.842026	22.991971	1.091324	-1.503526	2.244165	0.000000	-0.177963	0.000000	-0.002939	-0.000140	0.000000	0.000000
61.251360	13.061236	24.073791	0.686059	-0.940572	2.179789	0.000000	-0.114655	0.000000	-0.003017	-0.000217	0.000000	0.000000
61.692320	12.622713	24.638314	0.312137	-0.334828	2.143048	0.000000	-0.052649	0.000000	-0.003130	-0.000296	0.000000	0.000000
62.134530	12.506467	24.659293	-0.016012	0.223898	2.133530	0.000000	0.003366	0.000000	-0.003279	-0.000370	0.000000	0.000000
62.431853	12.523059	24.529918	-0.039792	0.211236	2.134641	0.000000	0.003366	0.000000	-0.003390	-0.000370	0.000000	0.000000
62.765186	12.558473	24.393825	-0.066452	0.197041	2.135886	0.000000	0.003366	0.000000	-0.003513	-0.000370	0.000000	0.000000
63.098520	12.611661	24.267196	-0.093112	0.182846	2.137132	0.000000	0.003366	0.000000	-0.003637	-0.000370	0.000000	0.000000
63.433103	12.682922	24.149609	-0.119871	0.168598	2.138382	0.000000	0.003366	0.000000	-0.003760	-0.000370	0.000000	0.000000
63.730426	12.761267	24.053129	-0.111223	0.094689	2.139492	0.000000	-0.002070	0.000000	-0.003871	-0.000361	0.000000	0.000000
64.171386	13.021244	23.704815	-0.480768	0.692248	2.152325	0.000000	0.059534	0.000000	-0.004052	-0.000463	0.000000	0.000000
64.612346	13.615504	22.841463	-0.872270	1.258311	2.192490	0.000000	0.121821	0.000000	-0.004280	-0.000570	0.000000	0.000000
65.053306	14.571185	21.502354	-1.303612	1.767128	2.260447	0.000000	0.185501	0.000000	-0.004556	-0.000684	0.000000	0.000000
65.494266	15.931931	19.748414	-1.794494	2.195551	2.356972	0.000000	0.251301	0.000000	-0.004884	-0.000806	0.000000	0.000000
65.940226	17.783137	17.634636	-2.371926	2.524721	2.484743	0.000000	0.320357	0.000000	-0.005272	-0.000937	0.000000	0.000000
66.489286	20.154284	15.270361	-1.921866	1.807074	2.640669	0.000000	0.245188	0.000000	-0.005739	-0.000759	0.000000	0.000000
67.038346	21.953383	13.619230	-1.336104	1.218124	2.753966	0.000000	0.165658	0.000000	-0.006103	-0.000567	0.000000	0.000000
67.587406	23.053418	12.563645	-0.656003	0.715926	2.822620	0.000000	0.083180	0.000000	-0.006360	-0.000365	0.000000	0.000000
68.136466	23.376730	12.028423	0.070413	0.264713	2.845412	0.000000	-0.000778	0.000000	-0.006503	-0.000157	0.000000	0.000000
68.435038	23.376895	11.858646	-0.006710	0.270827	2.847568	0.000000	0.007055	0.000000	-0.006556	-0.000174	0.000000	0.000000
68.768372	23.386121	11.688152	-0.020970	0.240656	2.849978	0.000000	0.007055	0.000000	-0.006614	-0.000174	0.000000	0.000000
69.101705	23.404854	11.537771	-0.035230	0.210486	2.852388	0.000000	0.007055	0.000000	-0.006672	-0.000174	0.000000	0.000000
69.436288	23.433218	11.407053	-0.049543	0.180202	2.854806	0.000000	0.007055	0.000000	-0.006730	-0.000174	0.000000	0.000000
69.733611	23.466492	11.307883	-0.126997	0.184454	2.856958	0.000000	0.014936	0.000000	-0.006782	-0.000193	0.000000	0.000000
70.282671	23.202965	11.331997	0.604108	-0.228636	2.841995	0.000000	-0.069523	0.000000	-0.006827	0.000028	0.000000	0.000000
