#ParticleID	Turn	x[m]	xp	y[m]	yp	z[m]	dE[GeV]# s	beta_x	beta_y	alpha_x	alpha_y	D_x	D_y	D_px	D_py	orbit_x	orbit_px	orbit_y	orbit_py
0.300000	11.908467	25.183757	-0.018511	-0.023694	2.607238	0.000000	0.000543	0.000000	-0.000433	0.000380	0.000000	0.000000
0.601250	11.927243	25.201639	-0.043817	-0.035663	2.607287	0.000000	0.000543	0.000000	-0.000319	0.000380	0.000000	0.000000
0.898573	11.960725	25.226357	-0.039405	-0.109321	2.607335	0.000000	-0.005864	0.000000	-0.000206	0.000380	0.000000	0.000000
1.339533	12.148754	25.042864	-0.388493	0.523862	2.620821	0.000000	0.067816	0.000000	-0.000039	0.000377	0.000000	0.000000
1.780493	12.651289	24.309370	-0.755333	1.133210	2.666935	0.000000	0.142264	0.000000	0.000128	0.000378	0.000000	0.000000
2.221453	13.491291	23.059245	-1.156685	1.691000	2.746202	0.000000	0.218328	0.000000	0.000296	0.000384	0.000000	0.000000
2.662413	14.707142	21.349365	-1.610887	2.171852	2.859522	0.000000	0.296874	0.000000	0.000467	0.000394	0.000000	0.000000
3.108373	16.375395	19.232468	-2.143035	2.555035	3.010040	0.000000	0.379288	0.000000	0.000645	0.000408	0.000000	0.000000
3.657433	18.514220	16.854679	-1.729094	1.801136	3.192921	0.000000	0.286644	0.000000	0.000863	0.000384	0.000000	0.000000
4.206493	20.128317	15.229879	-1.193006	1.175529	3.323479	0.000000	0.188921	0.000000	0.001065	0.000352	0.000000	0.000000
4.755553	21.103660	14.242342	-0.572639	0.633653	3.399400	0.000000	0.087853	0.000000	0.001249	0.000315	0.000000	0.000000
5.304613	21.371342	13.821731	0.088185	0.136912	3.419340	0.000000	-0.014769	0.000000	0.001410	0.000272	0.000000	0.000000
5.603185	21.355805	13.725340	0.019022	0.150298	3.417484	0.000000	-0.005941	0.000000	0.001492	0.000275	0.000000	0.000000
5.936519	21.348329	13.633419	0.003408	0.125464	3.415412	0.000000	-0.005941	0.000000	0.001584	0.000275	0.000000	0.000000
6.269852	21.351261	13.558055	-0.012206	0.100629	3.413340	0.000000	-0.005941	0.000000	0.001676	0.000275	0.000000	0.000000
6.604435	21.364673	13.499058	-0.027879	0.075701	3.411260	0.000000	-0.005941	0.000000	0.001768	0.000275	0.000000	0.000000
6.901758	21.385394	13.460627	-0.096812	0.088226	3.409412	0.000000	0.002829	0.000000	0.001850	0.000280	0.000000	0.000000
7.450818	21.127011	13.625006	0.564757	-0.389367	3.382740	0.000000	-0.099364	0.000000	0.001987	0.000218	0.000000	0.000000
7.999878	20.159807	14.325917	1.186435	-0.894696	3.300393	0.000000	-0.199790	0.000000	0.002089	0.000152	0.000000	0.000000
8.548938	18.552105	15.613289	1.724306	-1.463757	3.163833	0.000000	-0.296670	0.000000	0.002154	0.000083	0.000000	0.000000
9.097998	16.417477	17.578826	2.140370	-2.137085	2.975484	0.000000	-0.388286	0.000000	0.002180	0.000013	0.000000	0.000000
9.543958	14.751870	19.330112	1.607713	-1.773211	2.820556	0.000000	-0.306816	0.000000	0.002199	0.000070	0.000000	0.000000
9.984918	13.539134	20.703750	1.152891	-1.329944	2.702413	0.000000	-0.229331	0.000000	0.002242	0.000127	0.000000	0.000000
10.425878	12.702877	21.658169	0.750746	-0.826161	2.617806	0.000000	-0.154460	0.000000	0.002311	0.000186	0.000000	0.000000
10.866838	12.204889	22.149941	0.382903	-0.284786	2.565771	0.000000	-0.081350	0.000000	0.002406	0.000247	0.000000	0.000000
11.309048	12.022268	22.156140	0.061221	0.216365	2.545694	0.000000	-0.015262	0.000000	0.002529	0.000304	0.000000	0.000000
11.606371	11.993243	22.031656	0.036398	0.202318	2.541066	0.000000	-0.015262	0.000000	0.002620	0.000304	0.000000	0.000000
12.086371	11.977538	21.848317	-0.003678	0.179639	2.533594	0.000000	-0.015262	0.000000	0.002766	0.000304	0.000000	0.000000
12.566371	12.000305	21.686750	-0.043753	0.156960	2.526122	0.000000	-0.015262	0.000000	0.002912	0.000304	0.000000	0.000000
13.046371	12.061545	21.546953	-0.083829	0.134282	2.518650	0.000000	-0.015262	0.000000	0.003058	0.000304	0.000000	0.000000
13.526371	12.161257	21.428929	-0.123905	0.111603	2.511178	0.000000	-0.015262	0.000000	0.003204	0.000304	0.000000	0.000000
14.007621	12.299852	21.332453	-0.164085	0.088865	2.503686	0.000000	-0.015262	0.000000	0.003350	0.000304	0.000000	0.000000
14.304943	12.404800	21.283794	-0.159487	0.024426	2.499058	0.000000	-0.021190	0.000000	0.003440	0.000296	0.000000	0.000000
14.745903	12.704427	21.029399	-0.522424	0.550261	2.505174	0.000000	0.049610	0.000000	0.003591	0.000386	0.000000	0.000000
15.186863	13.333450	20.320546	-0.909236	1.051058	2.542565	0.000000	0.120971	0.000000	0.003782	0.000482	0.000000	0.000000
15.627823	14.320617	19.189487	-1.337599	1.504030	2.611658	0.000000	0.193705	0.000000	0.004016	0.000582	0.000000	0.000000
16.068783	15.711046	17.687685	-1.827089	1.888563	2.713235	0.000000	0.268639	0.000000	0.004296	0.000689	0.000000	0.000000
16.514743	17.591906	15.861965	-2.404924	2.187982	2.850150	0.000000	0.347103	0.000000	0.004629	0.000805	0.000000	0.000000
17.063803	20.006866	13.823839	-1.966691	1.545701	3.016663	0.000000	0.259893	0.000000	0.005029	0.000648	0.000000	0.000000
17.612863	21.860914	12.426811	-1.389497	1.013530	3.134039	0.000000	0.168083	0.000000	0.005339	0.000480	0.000000	0.000000
18.161923	23.023037	11.571367	-0.714123	0.553560	3.200202	0.000000	0.073298	0.000000	0.005555	0.000304	0.000000	0.000000
18.710983	23.411108	11.196574	0.011712	0.133024	3.213981	0.000000	-0.022781	0.000000	0.005672	0.000122	0.000000	0.000000
19.009556	23.442673	11.108703	-0.059287	0.133491	3.209523	0.000000	-0.014789	0.000000	0.005713	0.000137	0.000000	0.000000
19.342889	23.486954	11.029890	-0.073556	0.102950	3.204548	0.000000	-0.014789	0.000000	0.005758	0.000137	0.000000	0.000000
19.676223	23.540748	10.971437	-0.087825	0.072408	3.199573	0.000000	-0.014789	0.000000	0.005804	0.000137	0.000000	0.000000
20.010806	23.604602	10.933105	-0.219098	0.095922	3.194599	0.000000	0.001039	0.000000	0.005850	0.000166	0.000000	0.000000
20.308129	23.738836	10.884215	-0.291209	0.095516	3.194860	0.000000	0.008968	0.000000	0.005899	0.000181	0.000000	0.000000
20.857189	23.649293	11.000043	0.453372	-0.307702	3.173533	0.000000	-0.086371	0.000000	0.005945	-0.000011	0.000000	0.000000
21.406249	22.754793	11.568059	1.165921	-0.732841	3.100300	0.000000	-0.180177	0.000000	0.005886	-0.000203	0.000000	0.000000
21.955309	21.118545	12.628724	1.796090	-1.210186	2.976459	0.000000	-0.270791	0.000000	0.005723	-0.000391	0.000000	0.000000
22.504369	18.856174	14.257595	2.299353	-1.773743	2.804206	0.000000	-0.356606	0.000000	0.005458	-0.000572	0.000000	0.000000
22.950329	17.074479	15.720539	1.709397	-1.492618	2.662674	0.000000	-0.279389	0.000000	0.005234	-0.000434	0.000000	0.000000
23.391289	15.795186	16.887937	1.202379	-1.144512	2.555944	0.000000	-0.205823	0.000000	0.005072	-0.000301	0.000000	0.000000
23.832249	14.937276	17.724080	0.750310	-0.744324	2.481054	0.000000	-0.134598	0.000000	0.004968	-0.000171	0.000000	0.000000
24.273209	14.461538	18.190921	0.332530	-0.310266	2.437152	0.000000	-0.064905	0.000000	0.004921	-0.000044	0.000000	0.000000
24.715418	14.346331	18.266968	-0.036621	0.095138	2.423737	0.000000	-0.001613	0.000000	0.004930	0.000071	0.000000	0.000000
25.012741	14.374278	18.215278	-0.057373	0.078714	2.423236	0.000000	-0.001613	0.000000	0.004951	0.000071	0.000000	0.000000
25.346075	14.420282	18.168939	-0.080639	0.060301	2.422674	0.000000	-0.001613	0.000000	0.004975	0.000071	0.000000	0.000000
25.679408	14.481797	18.134876	-0.103905	0.041888	2.422113	0.000000	-0.001613	0.000000	0.004998	0.000071	0.000000	0.000000
26.013991	14.558845	18.113396	-0.009148	-0.123538	2.421525	0.000000	-0.021258	0.000000	0.005022	0.000031	0.000000	0.000000
26.311314	14.570346	18.191826	0.004437	-0.182660	2.415194	0.000000	-0.026896	0.000000	0.005031	0.000019	0.000000	0.000000
26.752274	14.746272	18.155752	-0.404848	0.264152	2.418422	0.000000	0.041708	0.000000	0.005068	0.000149	0.000000	0.000000
27.193234	15.289970	17.729412	-0.832635	0.698944	2.451922	0.000000	0.110784	0.000000	0.005163	0.000281	0.000000	0.000000
27.634194	16.226291	16.932205	-1.298475	1.101930	2.516077	0.000000	0.181120	0.000000	0.005316	0.000416	0.000000	0.000000
28.075154	17.598031	15.800406	-1.823655	1.454773	2.611616	0.000000	0.253514	0.000000	0.005530	0.000556	0.000000	0.000000
28.521114	19.491806	14.368414	-2.437226	1.742432	2.741236	0.000000	0.329254	0.000000	0.005810	0.000703	0.000000	0.000000
29.070174	21.899413	12.773298	-1.921039	1.179645	2.899008	0.000000	0.245713	0.000000	0.006144	0.000509	0.000000	0.000000
29.619234	23.661735	11.746738	-1.269113	0.700894	3.009748	0.000000	0.157820	0.000000	0.006368	0.000306	0.000000	0.000000
30.168294	24.654234	11.215607	-0.527511	0.272074	3.071494	0.000000	0.067133	0.000000	0.006479	0.000098	0.000000	0.000000
30.717354	24.806770	11.142070	0.251363	-0.137364	3.083153	0.000000	-0.024744	0.000000	0.006475	-0.000112	0.000000	0.000000
31.015927	24.696931	11.215771	0.177655	-0.136960	3.078064	0.000000	-0.017133	0.000000	0.006447	-0.000095	0.000000	0.000000
31.349260	24.583135	11.317171	0.163732	-0.167238	3.072385	0.000000	-0.017133	0.000000	0.006415	-0.000095	0.000000	0.000000
31.682593	24.478622	11.438755	0.149809	-0.197515	3.066706	0.000000	-0.017133	0.000000	0.006383	-0.000095	0.000000	0.000000
32.017177	24.383050	11.581094	0.135834	-0.227906	3.061006	0.000000	-0.017133	0.000000	0.006351	-0.000095	0.000000	0.000000
32.314499	24.305998	11.724634	0.063329	-0.225942	3.055942	0.000000	-0.009578	0.000000	0.006323	-0.000079	0.000000	0.000000
32.863559	23.820256	12.211712	0.815910	-0.666327	3.025832	0.000000	-0.100274	0.000000	0.006223	-0.000283	0.000000	0.000000
33.412619	22.534871	13.205500	1.510837	-1.154181	2.946441	0.000000	-0.189195	0.000000	0.006014	-0.000481	0.000000	0.000000
33.961679	20.540681	14.776790	2.099007	-1.724256	2.819175	0.000000	-0.274767	0.000000	0.005697	-0.000671	0.000000	0.000000
34.510739	17.978610	17.037510	2.538864	-2.417162	2.646288	0.000000	-0.355476	0.000000	0.005279	-0.000848	0.000000	0.000000
34.956699	15.987515	19.059801	1.941175	-2.098287	2.504467	0.000000	-0.282363	0.000000	0.004931	-0.000716	0.000000	0.000000
35.397659	14.503161	20.734470	1.437269	-1.684781	2.395645	0.000000	-0.212904	0.000000	0.004643	-0.000593	0.000000	0.000000
35.838619	13.432742	22.009100	0.999045	-1.194611	2.316842	0.000000	-0.145864	0.000000	0.004407	-0.000476	0.000000	0.000000
36.279579	12.727335	22.825693	0.606477	-0.650081	2.267161	0.000000	-0.080480	0.000000	0.004222	-0.000365	0.000000	0.000000
36.721789	12.354027	23.147410	0.270632	-0.130489	2.246013	0.000000	-0.021302	0.000000	0.004085	-0.000267	0.000000	0.000000
37.019112	12.200777	23.228889	0.244802	-0.143552	2.239759	0.000000	-0.021302	0.000000	0.004005	-0.000267	0.000000	0.000000
37.352445	12.047228	23.329472	0.215844	-0.158198	2.232747	0.000000	-0.021302	0.000000	0.003916	-0.000267	0.000000	0.000000
37.685779	11.912984	23.439820	0.186887	-0.172844	2.225736	0.000000	-0.021302	0.000000	0.003827	-0.000267	0.000000	0.000000
38.020362	11.797651	23.560399	0.157820	-0.187544	2.218698	0.000000	-0.021302	0.000000	0.003737	-0.000267	0.000000	0.000000
38.317684	11.711479	23.675815	0.159708	-0.256733	2.212443	0.000000	-0.026538	0.000000	0.003658	-0.000276	0.000000	0.000000
38.758644	11.720397	23.639911	-0.180085	0.337843	2.214807	0.000000	0.036824	0.000000	0.003557	-0.000183	0.000000	0.000000
39.199604	12.031496	23.084414	-0.528105	0.917045	2.245139	0.000000	0.100608	0.000000	0.003496	-0.000092	0.000000	0.000000
39.640564	12.658989	22.034603	-0.900256	1.454517	2.303787	0.000000	0.165538	0.000000	0.003475	-0.000002	0.000000	0.000000
40.081524	13.631552	20.538247	-1.313544	1.925804	2.391417	0.000000	0.232354	0.000000	0.003494	0.000087	0.000000	0.000000
40.527484	15.011159	18.640779	-1.790729	2.310843	2.510507	0.000000	0.302234	0.000000	0.003553	0.000179	0.000000	0.000000
41.076544	16.773370	16.508149	-1.399557	1.596034	2.655784	0.000000	0.226378	0.000000	0.003620	0.000063	0.000000	0.000000
41.625604	18.048805	15.093836	-0.909511	0.994918	2.758307	0.000000	0.146508	0.000000	0.003622	-0.000055	0.000000	0.000000
42.174664	18.747353	14.297094	-0.355213	0.464676	2.816256	0.000000	0.064038	0.000000	0.003560	-0.000171	0.000000	0.000000
42.723724	18.819665	14.061164	0.224176	-0.032464	2.828603	0.000000	-0.019570	0.000000	0.003435	-0.000284	0.000000	0.000000
43.022297	18.719187	14.065559	0.160073	-0.017968	2.824984	0.000000	-0.012394	0.000000	0.003352	-0.000276	0.000000	0.000000
43.502297	18.578140	14.099194	0.133774	-0.052105	2.819167	0.000000	-0.012394	0.000000	0.003220	-0.000276	0.000000	0.000000
43.982297	18.462341	14.165601	0.107475	-0.086242	2.813350	0.000000	-0.012394	0.000000	0.003088	-0.000276	0.000000	0.000000
44.462297	18.371789	14.264779	0.081176	-0.120379	2.807533	0.000000	-0.012394	0.000000	0.002956	-0.000276	0.000000	0.000000
44.942297	18.306483	14.396728	0.054877	-0.154516	2.801716	0.000000	-0.012394	0.000000	0.002823	-0.000276	0.000000	0.000000
45.423547	18.266580	14.561741	-0.061994	-0.116594	2.795901	0.000000	0.001458	0.000000	0.002691	-0.000262	0.000000	0.000000
45.720870	18.308306	14.637223	-0.125115	-0.099942	2.796413	0.000000	0.008604	0.000000	0.002613	-0.000255	0.000000	0.000000
46.269930	18.137285	15.029863	0.434586	-0.619367	2.778625	0.000000	-0.073871	0.000000	0.002450	-0.000337	0.000000	0.000000
46.818990	17.364905	16.013647	0.963580	-1.182910	2.715885	0.000000	-0.155042	0.000000	0.002243	-0.000413	0.000000	0.000000
47.368050	16.045739	17.658646	1.424499	-1.830712	2.609304	0.000000	-0.233468	0.000000	0.001997	-0.000482	0.000000	0.000000
47.917110	14.272988	20.082028	1.784781	-2.608916	2.460769	0.000000	-0.307761	0.000000	0.001715	-0.000542	0.000000	0.000000
48.363070	12.892711	22.236281	1.320986	-2.201286	2.339090	0.000000	-0.239216	0.000000	0.001483	-0.000501	0.000000	0.000000
48.804030	11.907579	23.960907	0.921335	-1.694825	2.248320	0.000000	-0.173794	0.000000	0.001270	-0.000465	0.000000	0.000000
49.244990	11.255100	25.203021	0.563784	-1.111249	2.185923	0.000000	-0.110346	0.000000	0.001072	-0.000435	0.000000	0.000000
49.685950	10.905456	25.906110	0.231994	-0.477113	2.151191	0.000000	-0.048150	0.000000	0.000886	-0.000410	0.000000	0.000000
50.128160	10.842827	26.037900	-0.062898	0.115402	2.143740	0.000000	0.008279	0.000000	0.000709	-0.000391	0.000000	0.000000
50.425482	10.888415	25.972717	-0.090428	0.103831	2.146318	0.000000	0.008279	0.000000	0.000593	-0.000391	0.000000	0.000000
50.758816	10.958988	25.907820	-0.121292	0.090859	2.149208	0.000000	0.008279	0.000000	0.000462	-0.000391	0.000000	0.000000
51.092149	11.050137	25.851571	-0.152156	0.077887	2.152098	0.000000	0.008279	0.000000	0.000332	-0.000391	0.000000	0.000000
51.426732	11.162094	25.804332	-0.092581	-0.144472	2.154977	0.000000	-0.009203	0.000000	0.000201	-0.000393	0.000000	0.000000
51.724055	11.225134	25.893738	-0.091941	-0.219828	2.152358	0.000000	-0.014477	0.000000	0.000084	-0.000393	0.000000	0.000000
52.165015	11.452525	25.799442	-0.425815	0.432857	2.159776	0.000000	0.047395	0.000000	-0.000089	-0.000393	0.000000	0.000000
52.605975	11.981795	25.136051	-0.779139	1.065847	2.194573	0.000000	0.109812	0.000000	-0.000263	-0.000398	0.000000	0.000000
53.046935	12.837119	23.933752	-1.168058	1.650340	2.257145	0.000000	0.173483	0.000000	-0.000440	-0.000407	0.000000	0.000000
53.487895	14.057571	22.247253	-1.610337	2.159743	2.348208	0.000000	0.239134	0.000000	-0.000622	-0.000420	0.000000	0.000000
53.933855	15.719786	20.128087	-2.130447	2.572204	2.470309	0.000000	0.307911	0.000000	-0.000814	-0.000439	0.000000	0.000000
54.482915	17.859513	17.743261	-1.743812	1.796962	2.619332	0.000000	0.233310	0.000000	-0.001047	-0.000409	0.000000	0.000000
55.031975	19.504114	16.134880	-1.234016	1.149712	2.726177	0.000000	0.154563	0.000000	-0.001261	-0.000371	0.000000	0.000000
55.581035	20.537438	15.188380	-0.637067	0.584352	2.788944	0.000000	0.073069	0.000000	-0.001453	-0.000327	0.000000	0.000000
56.130095	20.886512	14.836341	0.004871	0.060614	2.806519	0.000000	-0.009727	0.000000	-0.001620	-0.000278	0.000000	0.000000
56.428668	20.920909	14.782719	-0.064771	0.079636	2.805918	0.000000	-0.002294	0.000000	-0.001704	-0.000282	0.000000	0.000000
56.762001	20.969422	14.737193	-0.080771	0.056944	2.805247	0.000000	-0.002294	0.000000	-0.001798	-0.000282	0.000000	0.000000
57.095334	21.028603	14.706794	-0.096770	0.034252	2.804576	0.000000	-0.002294	0.000000	-0.001892	-0.000282	0.000000	0.000000
57.429918	21.098732	14.691495	-0.112830	0.011475	2.803903	0.000000	-0.002294	0.000000	-0.001986	-0.000282	0.000000	0.000000
57.727240	21.170071	14.690688	-0.183369	0.030221	2.803305	0.000000	0.005156	0.000000	-0.002070	-0.000287	0.000000	0.000000
58.276300	21.009793	14.939350	0.473411	-0.485795	2.783550	0.000000	-0.077498	0.000000	-0.002209	-0.000218	0.000000	0.000000
58.825360	20.142516	15.770200	1.096750	-1.036409	2.718686	0.000000	-0.158782	0.000000	-0.002309	-0.000145	0.000000	0.000000
59.374420	18.629497	17.242412	1.642625	-1.660839	2.609863	0.000000	-0.237252	0.000000	-0.002368	-0.000069	0.000000	0.000000
59.923480	16.577596	19.460840	2.072483	-2.403558	2.459009	0.000000	-0.311515	0.000000	-0.002384	0.000008	0.000000	0.000000
60.369440	14.970762	21.432470	1.543432	-1.998966	2.335428	0.000000	-0.243059	0.000000	-0.002395	-0.000054	0.000000	0.000000
60.810400	13.814335	22.983319	1.089093	-1.504756	2.242774	0.000000	-0.177761	0.000000	-0.002432	-0.000116	0.000000	0.000000
61.251360	13.035206	24.066361	0.684508	-0.942086	2.178466	0.000000	-0.114487	0.000000	-0.002497	-0.000180	0.000000	0.000000
61.692320	12.597782	24.632324	0.311194	-0.336555	2.141772	0.000000	-0.052514	0.000000	-0.002591	-0.000245	0.000000	0.000000
62.134530	12.482125	24.654899	-0.016613	0.222341	2.132282	0.000000	0.003501	0.000000	-0.002715	-0.000307	0.000000	0.000000
62.431853	12.499087	24.526448	-0.040439	0.209685	2.133414	0.000000	0.003501	0.000000	-0.002806	-0.000307	0.000000	0.000000
62.765186	12.534951	24.391387	-0.067151	0.195497	2.134684	0.000000	0.003501	0.000000	-0.002908	-0.000307	0.000000	0.000000
63.098520	12.588623	24.265785	-0.093864	0.181309	2.135953	0.000000	0.003501	0.000000	-0.003011	-0.000307	0.000000	0.000000
63.433103	12.660404	24.149225	-0.120676	0.167067	2.137227	0.000000	0.003501	0.000000	-0.003113	-0.000307	0.000000	0.000000
63.730426	12.739244	24.053649	-0.112324	0.093549	2.138359	0.000000	-0.001901	0.000000	-0.003205	-0.000299	0.000000	0.000000
64.171386	12.999995	23.706320	-0.481398	0.691157	2.151230	0.000000	0.059676	0.000000	-0.003355	-0.000384	0.000000	0.000000
64.612346	13.594635	22.843880	-0.872459	1.257320	2.191414	0.000000	0.121936	0.000000	-0.003544	-0.000473	0.000000	0.000000
65.053306	14.550322	21.505571	-1.303371	1.766279	2.259371	0.000000	0.185590	0.000000	-0.003773	-0.000567	0.000000	0.000000
65.494266	15.910704	19.752284	-1.793815	2.194881	2.355876	0.000000	0.251363	0.000000	-0.004045	-0.000668	0.000000	0.000000
65.940226	17.761146	17.638990	-2.370801	2.524281	2.483605	0.000000	0.320395	0.000000	-0.004366	-0.000777	0.000000	0.000000
66.489286	20.131576	15.275185	-1.921555	1.806595	2.639486	0.000000	0.245260	0.000000	-0.004753	-0.000629	0.000000	0.000000
67.038346	21.930852	13.624593	-1.336620	1.217574	2.752774	0.000000	0.165766	0.000000	-0.005055	-0.000470	0.000000	0.000000
67.587406	23.031934	12.569650	-0.657303	0.715269	2.821457	0.000000	0.083324	0.000000	-0.005268	-0.000303	0.000000	0.000000
68.136466	23.357084	12.035221	0.068425	0.263904	2.844313	0.000000	-0.000601	0.000000	-0.005387	-0.000130	0.000000	0.000000
68.435038	23.358086	11.866075	-0.008102	0.269778	2.846493	0.000000	0.007161	0.000000	-0.005430	-0.000145	0.000000	0.000000
68.768372	23.368244	11.696269	-0.022373	0.239642	2.848929	0.000000	0.007161	0.000000	-0.005478	-0.000145	0.000000	0.000000
69.101705	23.387917	11.546553	-0.036645	0.209506	2.851364	0.000000	0.007161	0.000000	-0.005526	-0.000145	0.000000	0.000000
69.436288	23.417232	11.416479	-0.050970	0.179257	2.853809	0.000000	0.007161	0.000000	-0.005575	-0.000145	0.000000	0.000000
69.733611	23.451347	11.317866	-0.127815	0.183294	2.855982	0.000000	0.014970	0.000000	-0.005618	-0.000160	0.000000	0.000000
70.282671	23.188973	11.343415	0.602840	-0.230104	2.841038	0.000000	-0.069461	0.000000	-0.005655	0.000023	0.000000	0.000000
