#ParticleID	Turn	x[m]	xp	y[m]	yp	z[m]	dE[GeV]# s	beta_x	beta_y	alpha_x	alpha_y	D_x	D_y	D_px	D_py	orbit_x	orbit_px	orbit_y	orbit_py
0.300000	11.879630	25.089924	-0.016829	-0.025245	2.611610	0.000000	0.000327	0.000000	-0.000259	0.000227	0.000000	0.000000
0.601250	11.897411	25.108753	-0.042194	-0.037259	2.611640	0.000000	0.000327	0.000000	-0.000190	0.000227	0.000000	0.000000
0.898573	11.929945	25.134435	-0.037940	-0.110744	2.611670	0.000000	-0.006085	0.000000	-0.000123	0.000227	0.000000	0.000000
1.339533	12.116338	24.953263	-0.386286	0.520040	2.625147	0.000000	0.067706	0.000000	-0.000023	0.000225	0.000000	0.000000
1.780493	12.616539	24.224137	-0.752282	1.127163	2.671302	0.000000	0.142265	0.000000	0.000076	0.000226	0.000000	0.000000
2.221453	13.453402	22.980231	-1.152650	1.683002	2.750659	0.000000	0.218443	0.000000	0.000177	0.000229	0.000000	0.000000
2.662413	14.665163	21.278140	-1.605681	2.162266	2.864121	0.000000	0.297107	0.000000	0.000279	0.000235	0.000000	0.000000
3.108373	16.328119	19.170352	-2.136403	2.544290	3.014838	0.000000	0.379641	0.000000	0.000386	0.000244	0.000000	0.000000
3.657433	18.460306	16.802922	-1.723806	1.792921	3.197953	0.000000	0.286839	0.000000	0.000516	0.000229	0.000000	0.000000
4.206493	20.069459	15.186039	-1.189441	1.169258	3.328650	0.000000	0.188952	0.000000	0.000637	0.000211	0.000000	0.000000
4.755553	21.041906	14.204537	-0.571053	0.628880	3.404613	0.000000	0.087717	0.000000	0.000747	0.000188	0.000000	0.000000
5.304613	21.308952	13.788508	0.087676	0.133295	3.424494	0.000000	-0.015070	0.000000	0.000843	0.000162	0.000000	0.000000
5.603185	21.293795	13.694220	0.018368	0.146763	3.422598	0.000000	-0.006186	0.000000	0.000892	0.000165	0.000000	0.000000
5.936519	21.286770	13.604666	0.002708	0.121897	3.420481	0.000000	-0.006186	0.000000	0.000947	0.000165	0.000000	0.000000
6.269852	21.290184	13.531690	-0.012951	0.097032	3.418364	0.000000	-0.006186	0.000000	0.001002	0.000165	0.000000	0.000000
6.604435	21.304109	13.475110	-0.028669	0.072073	3.416239	0.000000	-0.006186	0.000000	0.001057	0.000165	0.000000	0.000000
6.901758	21.325310	13.438846	-0.097837	0.084713	3.414351	0.000000	0.002652	0.000000	0.001106	0.000168	0.000000	0.000000
7.450818	21.069121	13.606759	0.561754	-0.392332	3.387592	0.000000	-0.099697	0.000000	0.001188	0.000130	0.000000	0.000000
7.999878	20.106197	14.310714	1.181667	-0.897323	3.305060	0.000000	-0.200275	0.000000	0.001249	0.000091	0.000000	0.000000
8.548938	18.504557	15.600854	1.718110	-1.466231	3.168220	0.000000	-0.297299	0.000000	0.001288	0.000050	0.000000	0.000000
9.097998	16.377339	17.569078	2.133189	-2.139579	2.979500	0.000000	-0.389049	0.000000	0.001303	0.000008	0.000000	0.000000
9.543958	14.717516	19.322831	1.601911	-1.776273	2.824262	0.000000	-0.307483	0.000000	0.001314	0.000042	0.000000	0.000000
9.984918	13.509411	20.699342	1.148170	-1.333411	2.705864	0.000000	-0.229909	0.000000	0.001340	0.000076	0.000000	0.000000
10.425878	12.676924	21.656927	0.746888	-0.829877	2.621049	0.000000	-0.154953	0.000000	0.001382	0.000111	0.000000	0.000000
10.866838	12.182018	22.152017	0.379731	-0.288582	2.568851	0.000000	-0.081764	0.000000	0.001438	0.000147	0.000000	0.000000
11.309048	12.001935	22.161551	0.058829	0.212158	2.548656	0.000000	-0.015668	0.000000	0.001512	0.000182	0.000000	0.000000
11.606371	11.974343	22.039561	0.033970	0.198138	2.543944	0.000000	-0.015668	0.000000	0.001566	0.000182	0.000000	0.000000
12.086371	11.960996	21.860213	-0.006162	0.175504	2.536336	0.000000	-0.015668	0.000000	0.001653	0.000182	0.000000	0.000000
12.566371	11.986175	21.702594	-0.046294	0.152870	2.528728	0.000000	-0.015668	0.000000	0.001741	0.000182	0.000000	0.000000
13.046371	12.049880	21.566703	-0.086426	0.130236	2.521120	0.000000	-0.015668	0.000000	0.001828	0.000182	0.000000	0.000000
13.526371	12.152112	21.452541	-0.126558	0.107602	2.513513	0.000000	-0.015668	0.000000	0.001915	0.000182	0.000000	0.000000
14.007621	12.293288	21.359896	-0.166794	0.084909	2.505885	0.000000	-0.015668	0.000000	0.002003	0.000182	0.000000	0.000000
14.304943	12.399861	21.313576	-0.161840	0.019697	2.501172	0.000000	-0.021681	0.000000	0.002057	0.000177	0.000000	0.000000
14.745903	12.701507	21.062977	-0.524729	0.546427	2.507141	0.000000	0.049168	0.000000	0.002146	0.000231	0.000000	0.000000
15.186863	13.332538	20.357059	-0.911596	1.048295	2.544421	0.000000	0.120576	0.000000	0.002261	0.000288	0.000000	0.000000
15.627823	14.321789	19.227942	-1.340118	1.502464	2.613438	0.000000	0.193354	0.000000	0.002401	0.000348	0.000000	0.000000
16.068783	15.714468	17.726999	-1.829876	1.888269	2.714976	0.000000	0.268330	0.000000	0.002568	0.000412	0.000000	0.000000
16.514743	17.597845	15.901026	-2.408061	2.188946	2.851886	0.000000	0.346830	0.000000	0.002767	0.000481	0.000000	0.000000
17.063803	20.016185	13.862381	-1.969956	1.545792	3.018384	0.000000	0.259570	0.000000	0.003006	0.000388	0.000000	0.000000
17.612863	21.873662	12.465771	-1.392677	1.012749	3.135686	0.000000	0.167711	0.000000	0.003191	0.000287	0.000000	0.000000
18.161923	23.039041	11.611716	-0.717006	0.551847	3.201714	0.000000	0.072882	0.000000	0.003320	0.000182	0.000000	0.000000
18.710983	23.429981	11.239381	0.009322	0.130255	3.215297	0.000000	-0.023237	0.000000	0.003390	0.000073	0.000000	0.000000
19.009556	23.463730	11.152708	-0.062917	0.131534	3.210771	0.000000	-0.015076	0.000000	0.003415	0.000082	0.000000	0.000000
19.342889	23.510429	11.075154	-0.077180	0.101128	3.205718	0.000000	-0.015076	0.000000	0.003442	0.000082	0.000000	0.000000
19.676223	23.566636	11.017870	-0.091442	0.070723	3.200665	0.000000	-0.015076	0.000000	0.003469	0.000082	0.000000	0.000000
20.010806	23.632909	10.980620	-0.222849	0.094609	3.195613	0.000000	0.000757	0.000000	0.003497	0.000099	0.000000	0.000000
20.308129	23.769360	10.932480	-0.296307	0.095019	3.195809	0.000000	0.008858	0.000000	0.003526	0.000108	0.000000	0.000000
20.857189	23.684849	11.049583	0.449343	-0.309545	3.174434	0.000000	-0.086504	0.000000	0.003554	-0.000007	0.000000	0.000000
21.406249	22.794098	11.620397	1.163248	-0.736160	3.101102	0.000000	-0.180331	0.000000	0.003519	-0.000121	0.000000	0.000000
21.955309	21.160041	12.685584	1.794972	-1.215215	2.977113	0.000000	-0.270961	0.000000	0.003421	-0.000234	0.000000	0.000000
22.504369	18.898129	14.321020	2.299885	-1.780835	2.804666	0.000000	-0.356789	0.000000	0.003263	-0.000342	0.000000	0.000000
22.950329	17.116393	15.789578	1.709194	-1.498171	2.662970	0.000000	-0.279573	0.000000	0.003129	-0.000259	0.000000	0.000000
23.391289	15.837697	16.961050	1.201376	-1.148242	2.556100	0.000000	-0.206005	0.000000	0.003032	-0.000180	0.000000	0.000000
23.832249	14.981085	17.799591	0.748455	-0.746066	2.481092	0.000000	-0.134781	0.000000	0.002970	-0.000102	0.000000	0.000000
24.273209	14.507413	18.267046	0.329734	-0.309941	2.437091	0.000000	-0.065092	0.000000	0.002942	-0.000026	0.000000	0.000000
24.715418	14.395136	18.341900	-0.039698	0.096488	2.423595	0.000000	-0.001920	0.000000	0.002947	0.000043	0.000000	0.000000
25.012741	14.424893	18.289389	-0.060385	0.080127	2.423012	0.000000	-0.001920	0.000000	0.002960	0.000043	0.000000	0.000000
25.346075	14.472881	18.242085	-0.083578	0.061784	2.422357	0.000000	-0.001920	0.000000	0.002974	0.000043	0.000000	0.000000
25.679408	14.536330	18.207010	-0.106770	0.043442	2.421703	0.000000	-0.001920	0.000000	0.002989	0.000043	0.000000	0.000000
26.013991	14.615270	18.184469	-0.011481	-0.122491	2.421022	0.000000	-0.021561	0.000000	0.003003	0.000018	0.000000	0.000000
26.311314	14.628142	18.262247	0.003017	-0.182584	2.414606	0.000000	-0.027312	0.000000	0.003008	0.000011	0.000000	0.000000
26.752274	14.805916	18.225269	-0.407659	0.266119	2.417659	0.000000	0.041270	0.000000	0.003030	0.000089	0.000000	0.000000
27.193234	15.352719	17.796402	-0.836964	0.702714	2.450997	0.000000	0.110321	0.000000	0.003087	0.000168	0.000000	0.000000
27.634194	16.293539	16.995159	-1.304514	1.107333	2.514999	0.000000	0.180627	0.000000	0.003179	0.000249	0.000000	0.000000
28.075154	17.671371	15.857997	-1.831675	1.461565	2.610393	0.000000	0.252988	0.000000	0.003307	0.000332	0.000000	0.000000
28.521114	19.573165	14.419506	-2.447543	1.750267	2.739872	0.000000	0.328683	0.000000	0.003474	0.000420	0.000000	0.000000
29.070174	21.990722	12.816913	-1.929031	1.185608	2.897467	0.000000	0.245195	0.000000	0.003673	0.000304	0.000000	0.000000
29.619234	23.760163	11.784672	-1.274233	0.705405	3.008021	0.000000	0.157362	0.000000	0.003807	0.000183	0.000000	0.000000
30.168294	24.756471	11.249254	-0.529411	0.275451	3.069575	0.000000	0.066741	0.000000	0.003874	0.000059	0.000000	0.000000
30.717354	24.909251	11.172521	0.252814	-0.134881	3.081036	0.000000	-0.025063	0.000000	0.003872	-0.000067	0.000000	0.000000
31.015927	24.799571	11.244272	0.177445	-0.133663	3.075894	0.000000	-0.017277	0.000000	0.003855	-0.000057	0.000000	0.000000
31.349260	24.685896	11.343438	0.163581	-0.163837	3.070155	0.000000	-0.017277	0.000000	0.003836	-0.000057	0.000000	0.000000
31.682593	24.581463	11.462721	0.149717	-0.194011	3.064415	0.000000	-0.017277	0.000000	0.003817	-0.000057	0.000000	0.000000
32.017177	24.485934	11.602681	0.135801	-0.224299	3.058653	0.000000	-0.017277	0.000000	0.003798	-0.000057	0.000000	0.000000
32.314499	24.408867	11.744056	0.061699	-0.221518	3.053534	0.000000	-0.009554	0.000000	0.003781	-0.000047	0.000000	0.000000
32.863559	23.923097	12.226442	0.817672	-0.662187	3.023424	0.000000	-0.100164	0.000000	0.003722	-0.000169	0.000000	0.000000
33.412619	22.634057	13.215667	1.515876	-1.150025	2.944039	0.000000	-0.189000	0.000000	0.003596	-0.000287	0.000000	0.000000
33.961679	20.632826	14.782196	2.106983	-1.719785	2.816785	0.000000	-0.274488	0.000000	0.003407	-0.000401	0.000000	0.000000
34.510739	18.060799	17.037615	2.549232	-2.412051	2.643918	0.000000	-0.355114	0.000000	0.003158	-0.000507	0.000000	0.000000
34.956699	16.061646	19.055060	1.949237	-2.092716	2.502113	0.000000	-0.282071	0.000000	0.002949	-0.000428	0.000000	0.000000
35.397659	14.571168	20.724643	1.443353	-1.678966	2.393296	0.000000	-0.212676	0.000000	0.002777	-0.000354	0.000000	0.000000
35.838619	13.496218	21.994101	1.003423	-1.188819	2.314490	0.000000	-0.145700	0.000000	0.002636	-0.000284	0.000000	0.000000
36.279579	12.787672	22.805675	0.609345	-0.644579	2.264796	0.000000	-0.080380	0.000000	0.002526	-0.000218	0.000000	0.000000
36.721789	12.412472	23.122749	0.272735	-0.126398	2.243625	0.000000	-0.021347	0.000000	0.002444	-0.000160	0.000000	0.000000
37.019112	12.257943	23.201795	0.247000	-0.139462	2.237325	0.000000	-0.021347	0.000000	0.002396	-0.000160	0.000000	0.000000
37.352445	12.102894	23.299652	0.218147	-0.154108	2.230263	0.000000	-0.021347	0.000000	0.002343	-0.000160	0.000000	0.000000
37.685779	11.967080	23.407273	0.189295	-0.168754	2.223200	0.000000	-0.021347	0.000000	0.002290	-0.000160	0.000000	0.000000
38.020362	11.850100	23.525116	0.160335	-0.183455	2.216111	0.000000	-0.021347	0.000000	0.002237	-0.000160	0.000000	0.000000
38.317684	11.762408	23.638094	0.162844	-0.253336	2.209812	0.000000	-0.026653	0.000000	0.002189	-0.000165	0.000000	0.000000
38.758644	11.769071	23.599651	-0.178058	0.340182	2.212069	0.000000	0.036637	0.000000	0.002129	-0.000109	0.000000	0.000000
39.199604	12.078838	23.042609	-0.527095	0.918220	2.242279	0.000000	0.100346	0.000000	0.002093	-0.000055	0.000000	0.000000
39.640564	12.705860	21.992316	-0.900216	1.454478	2.300784	0.000000	0.165199	0.000000	0.002080	-0.000001	0.000000	0.000000
40.081524	13.678789	20.496562	-1.314468	1.924553	2.388252	0.000000	0.231933	0.000000	0.002092	0.000053	0.000000	0.000000
40.527484	15.059618	18.600787	-1.792634	2.308399	2.507155	0.000000	0.301721	0.000000	0.002127	0.000107	0.000000	0.000000
41.076544	16.822869	16.470234	-1.399623	1.594752	2.652204	0.000000	0.225981	0.000000	0.002167	0.000038	0.000000	0.000000
41.625604	18.097335	15.056768	-0.907740	0.994702	2.754541	0.000000	0.146234	0.000000	0.002169	-0.000032	0.000000	0.000000
42.174664	18.792981	14.259705	-0.351733	0.465508	2.812349	0.000000	0.063892	0.000000	0.002132	-0.000102	0.000000	0.000000
42.723724	18.860665	14.022269	0.229119	-0.030527	2.824603	0.000000	-0.019585	0.000000	0.002057	-0.000170	0.000000	0.000000
43.022297	18.757643	14.025338	0.164347	-0.015783	2.820970	0.000000	-0.012333	0.000000	0.002008	-0.000165	0.000000	0.000000
43.502297	18.612485	14.056921	0.138066	-0.050016	2.815129	0.000000	-0.012333	0.000000	0.001929	-0.000165	0.000000	0.000000
43.982297	18.492556	14.121368	0.111785	-0.084248	2.809288	0.000000	-0.012333	0.000000	0.001850	-0.000165	0.000000	0.000000
44.462297	18.397857	14.218678	0.085505	-0.118480	2.803448	0.000000	-0.012333	0.000000	0.001771	-0.000165	0.000000	0.000000
44.942297	18.328388	14.348850	0.059224	-0.152713	2.797607	0.000000	-0.012333	0.000000	0.001692	-0.000165	0.000000	0.000000
45.423547	18.284292	14.512173	-0.057716	-0.115132	2.791768	0.000000	0.001499	0.000000	0.001613	-0.000157	0.000000	0.000000
45.720870	18.323465	14.586807	-0.121276	-0.098313	2.792261	0.000000	0.008699	0.000000	0.001566	-0.000153	0.000000	0.000000
46.269930	18.148026	14.976795	0.438811	-0.616147	2.774500	0.000000	-0.073639	0.000000	0.001469	-0.000202	0.000000	0.000000
46.818990	17.370981	15.956057	0.967897	-1.177870	2.711846	0.000000	-0.154675	0.000000	0.001345	-0.000247	0.000000	0.000000
47.368050	16.047225	17.594344	1.428607	-1.823491	2.605408	0.000000	-0.232971	0.000000	0.001198	-0.000288	0.000000	0.000000
47.917110	14.270275	20.008345	1.788398	-2.598999	2.457074	0.000000	-0.307139	0.000000	0.001029	-0.000325	0.000000	0.000000
48.363070	12.886947	22.154437	1.324344	-2.193018	2.335561	0.000000	-0.238690	0.000000	0.000890	-0.000300	0.000000	0.000000
48.804030	11.898955	23.872616	0.924576	-1.688560	2.244921	0.000000	-0.173358	0.000000	0.000763	-0.000278	0.000000	0.000000
49.244990	11.243646	25.110189	0.567053	-1.107273	2.182621	0.000000	-0.109997	0.000000	0.000644	-0.000260	0.000000	0.000000
49.685950	10.891078	25.810847	0.235440	-0.475606	2.147951	0.000000	-0.047886	0.000000	0.000533	-0.000245	0.000000	0.000000
50.128160	10.825288	25.942428	-0.059092	0.114376	2.140530	0.000000	0.008454	0.000000	0.000428	-0.000234	0.000000	0.000000
50.425482	10.868621	25.877867	-0.086653	0.102765	2.143113	0.000000	0.008454	0.000000	0.000358	-0.000234	0.000000	0.000000
50.758816	10.936689	25.813696	-0.117553	0.089748	2.146009	0.000000	0.008454	0.000000	0.000280	-0.000234	0.000000	0.000000
51.092149	11.025358	25.758203	-0.148452	0.076731	2.148905	0.000000	0.008454	0.000000	0.000202	-0.000234	0.000000	0.000000
51.426732	11.134848	25.711750	-0.089135	-0.144921	2.151790	0.000000	-0.009003	0.000000	0.000124	-0.000235	0.000000	0.000000
51.724055	11.195854	25.801437	-0.088607	-0.220054	2.149183	0.000000	-0.014270	0.000000	0.000054	-0.000235	0.000000	0.000000
52.165015	11.420006	25.708418	-0.421724	0.430199	2.156607	0.000000	0.047520	0.000000	-0.000049	-0.000235	0.000000	0.000000
52.605975	11.945292	25.048402	-0.774107	1.060878	2.191373	0.000000	0.109854	0.000000	-0.000153	-0.000237	0.000000	0.000000
53.046935	12.795707	23.851421	-1.161854	1.643287	2.253877	0.000000	0.173442	0.000000	-0.000259	-0.000243	0.000000	0.000000
53.487895	14.010102	22.171940	-1.602680	2.150928	2.344832	0.000000	0.239008	0.000000	-0.000368	-0.000251	0.000000	0.000000
53.933855	15.664746	20.061271	-2.120982	2.562032	2.466783	0.000000	0.307697	0.000000	-0.000482	-0.000262	0.000000	0.000000
54.482915	17.794829	17.686141	-1.735712	1.789349	2.615631	0.000000	0.233211	0.000000	-0.000621	-0.000244	0.000000	0.000000
55.031975	19.431606	16.084959	-1.227848	1.144117	2.722372	0.000000	0.154585	0.000000	-0.000749	-0.000222	0.000000	0.000000
55.581035	20.459475	15.143674	-0.633263	0.580378	2.785111	0.000000	0.073213	0.000000	-0.000864	-0.000196	0.000000	0.000000
56.130095	20.805840	14.795241	0.006048	0.057977	2.802734	0.000000	-0.009461	0.000000	-0.000963	-0.000166	0.000000	0.000000
56.428668	20.839246	14.743412	-0.063136	0.076610	2.802164	0.000000	-0.002079	0.000000	-0.001013	-0.000169	0.000000	0.000000
56.762001	20.886690	14.699919	-0.079195	0.053868	2.801527	0.000000	-0.002079	0.000000	-0.001070	-0.000169	0.000000	0.000000
57.095334	20.944840	14.671587	-0.095254	0.031127	2.800890	0.000000	-0.002079	0.000000	-0.001126	-0.000169	0.000000	0.000000
57.429918	21.013974	14.658396	-0.111374	0.008300	2.800251	0.000000	-0.002079	0.000000	-0.001182	-0.000169	0.000000	0.000000
57.727240	21.084462	14.659491	-0.181355	0.026676	2.799684	0.000000	0.005312	0.000000	-0.001232	-0.000172	0.000000	0.000000
58.276300	20.923582	14.911582	0.472545	-0.488527	2.779991	0.000000	-0.077229	0.000000	-0.001315	-0.000131	0.000000	0.000000
58.825360	20.058830	15.745090	1.093066	-1.038526	2.715267	0.000000	-0.158402	0.000000	-0.001375	-0.000087	0.000000	0.000000
59.374420	18.551286	17.219379	1.636381	-1.662492	2.606658	0.000000	-0.236766	0.000000	-0.001411	-0.000042	0.000000	0.000000
59.923480	16.507428	19.439456	2.064117	-2.404870	2.456090	0.000000	-0.310932	0.000000	-0.001421	0.000004	0.000000	0.000000
60.369440	14.907157	21.412635	1.537008	-2.001081	2.332748	0.000000	-0.242544	0.000000	-0.001427	-0.000033	0.000000	0.000000
60.810400	13.755635	22.965698	1.084327	-1.507592	2.240291	0.000000	-0.177311	0.000000	-0.001450	-0.000070	0.000000	0.000000
61.251360	12.980059	24.051528	0.681183	-0.945513	2.176141	0.000000	-0.114097	0.000000	-0.001489	-0.000108	0.000000	0.000000
61.692320	12.544998	24.620724	0.309159	-0.340415	2.139570	0.000000	-0.052181	0.000000	-0.001545	-0.000147	0.000000	0.000000
62.134530	12.430619	24.646842	-0.017892	0.218819	2.130167	0.000000	0.003839	0.000000	-0.001619	-0.000184	0.000000	0.000000
62.431853	12.448373	24.520480	-0.041819	0.206178	2.131363	0.000000	0.003839	0.000000	-0.001674	-0.000184	0.000000	0.000000
62.765186	12.485193	24.387752	-0.068643	0.192006	2.132704	0.000000	0.003839	0.000000	-0.001735	-0.000184	0.000000	0.000000
63.098520	12.539896	24.264472	-0.095467	0.177834	2.134044	0.000000	0.003839	0.000000	-0.001796	-0.000184	0.000000	0.000000
63.433103	12.612788	24.150231	-0.122391	0.163609	2.135390	0.000000	0.003839	0.000000	-0.001858	-0.000184	0.000000	0.000000
63.730426	12.692680	24.056703	-0.114632	0.090851	2.136586	0.000000	-0.001495	0.000000	-0.001912	-0.000179	0.000000	0.000000
64.171386	12.955048	23.711683	-0.482709	0.688621	2.149568	0.000000	0.060039	0.000000	-0.002002	-0.000229	0.000000	0.000000
64.612346	13.550471	22.851349	-0.872837	1.255061	2.189831	0.000000	0.122260	0.000000	-0.002115	-0.000283	0.000000	0.000000
65.053306	14.506146	21.514844	-1.302836	1.764398	2.257835	0.000000	0.185876	0.000000	-0.002252	-0.000339	0.000000	0.000000
65.494266	15.865726	19.762978	-1.792349	2.193461	2.354354	0.000000	0.251612	0.000000	-0.002415	-0.000399	0.000000	0.000000
65.940226	17.714522	17.650676	-2.368382	2.523423	2.482063	0.000000	0.320612	0.000000	-0.002607	-0.000464	0.000000	0.000000
66.489286	20.083379	15.287822	-1.920860	1.805599	2.637930	0.000000	0.245523	0.000000	-0.002838	-0.000376	0.000000	0.000000
67.038346	21.882983	13.638382	-1.337683	1.216374	2.751261	0.000000	0.166073	0.000000	-0.003018	-0.000281	0.000000	0.000000
67.587406	22.986251	12.584874	-0.660036	0.713783	2.820044	0.000000	0.083673	0.000000	-0.003145	-0.000181	0.000000	0.000000
68.136466	23.315274	12.052262	0.064222	0.262030	2.843057	0.000000	-0.000214	0.000000	-0.003217	-0.000078	0.000000	0.000000
68.435038	23.318090	11.884519	-0.011131	0.267455	2.845295	0.000000	0.007413	0.000000	-0.003243	-0.000087	0.000000	0.000000
68.768372	23.330277	11.716233	-0.025428	0.237401	2.847795	0.000000	0.007413	0.000000	-0.003271	-0.000087	0.000000	0.000000
69.101705	23.351994	11.567984	-0.039724	0.207347	2.850295	0.000000	0.007413	0.000000	-0.003300	-0.000087	0.000000	0.000000
69.436288	23.383378	11.439327	-0.054075	0.177181	2.852804	0.000000	0.007413	0.000000	-0.003329	-0.000087	0.000000	0.000000
69.733611	23.419332	11.341934	-0.129722	0.180818	2.855034	0.000000	0.015080	0.000000	-0.003355	-0.000096	0.000000	0.000000
70.282671	23.159593	11.370588	0.599980	-0.233316	2.840143	0.000000	-0.069326	0.000000	-0.003378	0.000014	0.000000	0.000000
