#ParticleID	Turn	x[m]	xp	y[m]	yp	z[m]	dE[GeV]# s	beta_x	beta_y	alpha_x	alpha_y	D_x	D_y	D_px	D_py	orbit_x	orbit_px	orbit_y	orbit_py
0.300000	11.867185	25.047917	-0.016029	-0.025945	2.613499	0.000000	0.000217	0.000000	-0.000186	0.000163	0.000000	0.000000
0.601250	11.884492	25.067174	-0.041421	-0.037980	2.613515	0.000000	0.000217	0.000000	-0.000137	0.000163	0.000000	0.000000
0.898573	11.916574	25.093290	-0.037234	-0.111387	2.613531	0.000000	-0.006197	0.000000	-0.000088	0.000164	0.000000	0.000000
1.339533	12.102195	24.913162	-0.385256	0.518323	2.626996	0.000000	0.067641	0.000000	-0.000017	0.000162	0.000000	0.000000
1.780493	12.601318	24.185998	-0.750881	1.124450	2.673160	0.000000	0.142249	0.000000	0.000055	0.000163	0.000000	0.000000
2.221453	13.436748	22.944880	-1.150813	1.679416	2.752548	0.000000	0.218475	0.000000	0.000127	0.000165	0.000000	0.000000
2.662413	14.646655	21.246278	-1.603324	2.157970	2.866063	0.000000	0.297188	0.000000	0.000201	0.000169	0.000000	0.000000
3.108373	16.307219	19.142572	-2.133410	2.539477	3.016856	0.000000	0.379773	0.000000	0.000278	0.000175	0.000000	0.000000
3.657433	18.436402	16.779783	-1.721401	1.789240	3.200060	0.000000	0.286905	0.000000	0.000371	0.000165	0.000000	0.000000
4.206493	20.043295	15.166447	-1.187796	1.166447	3.330807	0.000000	0.188950	0.000000	0.000458	0.000152	0.000000	0.000000
4.755553	21.014389	14.187652	-0.570286	0.626737	3.406778	0.000000	0.087645	0.000000	0.000537	0.000135	0.000000	0.000000
5.304613	21.281084	13.773682	0.087510	0.131669	3.426626	0.000000	-0.015211	0.000000	0.000607	0.000117	0.000000	0.000000
5.603185	21.266056	13.680343	0.018145	0.145166	3.424709	0.000000	-0.006304	0.000000	0.000642	0.000118	0.000000	0.000000
5.936519	21.259185	13.591858	0.002465	0.120287	3.422568	0.000000	-0.006304	0.000000	0.000681	0.000118	0.000000	0.000000
6.269852	21.262768	13.519960	-0.013214	0.095408	3.420428	0.000000	-0.006304	0.000000	0.000721	0.000118	0.000000	0.000000
6.604435	21.276877	13.464472	-0.028953	0.070435	3.418279	0.000000	-0.006304	0.000000	0.000760	0.000118	0.000000	0.000000
6.901758	21.298252	13.429186	-0.098215	0.083120	3.416370	0.000000	0.002563	0.000000	0.000796	0.000121	0.000000	0.000000
7.450818	21.042960	13.598704	0.560484	-0.393683	3.389566	0.000000	-0.099849	0.000000	0.000855	0.000094	0.000000	0.000000
7.999878	20.081877	14.304051	1.179594	-0.898528	3.306950	0.000000	-0.200489	0.000000	0.000898	0.000065	0.000000	0.000000
8.548938	18.482891	15.595467	1.715381	-1.467375	3.169987	0.000000	-0.297571	0.000000	0.000926	0.000036	0.000000	0.000000
9.097998	16.358952	17.564940	2.129998	-2.140742	2.981108	0.000000	-0.389375	0.000000	0.000938	0.000006	0.000000	0.000000
9.543958	14.701695	19.319839	1.599341	-1.777686	2.825737	0.000000	-0.307772	0.000000	0.000945	0.000030	0.000000	0.000000
9.984918	13.495636	20.697671	1.146090	-1.334999	2.707227	0.000000	-0.230161	0.000000	0.000964	0.000055	0.000000	0.000000
10.425878	12.664804	21.656704	0.745202	-0.831570	2.622320	0.000000	-0.155173	0.000000	0.000994	0.000080	0.000000	0.000000
10.866838	12.171237	22.153302	0.378361	-0.290303	2.570048	0.000000	-0.081952	0.000000	0.001035	0.000106	0.000000	0.000000
11.309048	11.992242	22.164342	0.057808	0.210278	2.549796	0.000000	-0.015855	0.000000	0.001088	0.000131	0.000000	0.000000
11.606371	11.965263	22.043466	0.032932	0.196270	2.545043	0.000000	-0.015855	0.000000	0.001127	0.000131	0.000000	0.000000
12.086371	11.952924	21.865901	-0.007227	0.173656	2.537370	0.000000	-0.015855	0.000000	0.001189	0.000131	0.000000	0.000000
12.566371	11.979139	21.710046	-0.047387	0.151042	2.529697	0.000000	-0.015855	0.000000	0.001252	0.000131	0.000000	0.000000
13.046371	12.043908	21.575900	-0.087547	0.128428	2.522024	0.000000	-0.015855	0.000000	0.001315	0.000131	0.000000	0.000000
13.526371	12.147229	21.463463	-0.127706	0.105814	2.514351	0.000000	-0.015855	0.000000	0.001378	0.000131	0.000000	0.000000
14.007621	12.289524	21.372529	-0.167971	0.083141	2.506658	0.000000	-0.015855	0.000000	0.001441	0.000131	0.000000	0.000000
14.304943	12.396802	21.327255	-0.162873	0.017606	2.501905	0.000000	-0.021904	0.000000	0.001479	0.000127	0.000000	0.000000
14.745903	12.699326	21.078327	-0.525722	0.544746	2.507803	0.000000	0.048963	0.000000	0.001544	0.000166	0.000000	0.000000
15.186863	13.331213	20.373689	-0.912592	1.047100	2.545027	0.000000	0.120385	0.000000	0.001626	0.000207	0.000000	0.000000
15.627823	14.321335	19.245401	-1.341161	1.501811	2.614001	0.000000	0.193177	0.000000	0.001727	0.000250	0.000000	0.000000
16.068783	15.714936	17.744799	-1.831010	1.888187	2.715508	0.000000	0.268166	0.000000	0.001847	0.000296	0.000000	0.000000
16.514743	17.599331	15.918664	-2.409321	2.189429	2.852399	0.000000	0.346676	0.000000	0.001990	0.000346	0.000000	0.000000
17.063803	20.019048	13.879733	-1.971307	1.545874	3.018871	0.000000	0.259402	0.000000	0.002162	0.000279	0.000000	0.000000
17.612863	21.877964	12.483268	-1.394031	1.012433	3.136126	0.000000	0.167531	0.000000	0.002296	0.000207	0.000000	0.000000
18.161923	23.044752	11.629798	-0.718274	0.551110	3.202085	0.000000	0.072692	0.000000	0.002388	0.000131	0.000000	0.000000
18.710983	23.436979	11.258531	0.008227	0.129044	3.215580	0.000000	-0.023435	0.000000	0.002439	0.000052	0.000000	0.000000
19.009556	23.471691	11.172391	-0.064523	0.130666	3.211022	0.000000	-0.015206	0.000000	0.002456	0.000059	0.000000	0.000000
19.342889	23.519460	11.095395	-0.078784	0.100322	3.205933	0.000000	-0.015206	0.000000	0.002476	0.000059	0.000000	0.000000
19.676223	23.576737	11.038629	-0.093045	0.069977	3.200845	0.000000	-0.015206	0.000000	0.002495	0.000059	0.000000	0.000000
20.010806	23.644081	11.001857	-0.224505	0.094028	3.195757	0.000000	0.000628	0.000000	0.002515	0.000071	0.000000	0.000000
20.308129	23.781513	10.954048	-0.298520	0.094785	3.195923	0.000000	0.008799	0.000000	0.002536	0.000078	0.000000	0.000000
20.857189	23.699207	11.071734	0.447557	-0.310382	3.174523	0.000000	-0.086563	0.000000	0.002556	-0.000005	0.000000	0.000000
21.406249	22.810141	11.643815	1.162018	-0.737659	3.101150	0.000000	-0.180389	0.000000	0.002531	-0.000087	0.000000	0.000000
21.955309	21.177126	12.711043	1.794389	-1.217481	2.977106	0.000000	-0.271017	0.000000	0.002461	-0.000168	0.000000	0.000000
22.504369	18.915531	14.349436	2.299997	-1.784027	2.804589	0.000000	-0.356841	0.000000	0.002347	-0.000246	0.000000	0.000000
22.950329	17.133867	15.820527	1.709011	-1.500674	2.662834	0.000000	-0.279633	0.000000	0.002251	-0.000186	0.000000	0.000000
23.391289	15.855505	16.993839	1.200865	-1.149929	2.555911	0.000000	-0.206070	0.000000	0.002181	-0.000129	0.000000	0.000000
23.832249	14.999516	17.833469	0.747590	-0.746861	2.480857	0.000000	-0.134854	0.000000	0.002137	-0.000073	0.000000	0.000000
24.273209	14.526785	18.301213	0.328474	-0.309810	2.436815	0.000000	-0.065172	0.000000	0.002116	-0.000019	0.000000	0.000000
24.715418	14.415817	18.375543	-0.041081	0.097106	2.423283	0.000000	-0.002056	0.000000	0.002120	0.000031	0.000000	0.000000
25.012741	14.446388	18.322656	-0.061741	0.080773	2.422663	0.000000	-0.002056	0.000000	0.002129	0.000031	0.000000	0.000000
25.346075	14.495269	18.274911	-0.084902	0.062462	2.421967	0.000000	-0.002056	0.000000	0.002140	0.000031	0.000000	0.000000
25.679408	14.559591	18.239373	-0.108064	0.044151	2.421272	0.000000	-0.002056	0.000000	0.002150	0.000031	0.000000	0.000000
26.013991	14.639385	18.216348	-0.012548	-0.122009	2.420549	0.000000	-0.021693	0.000000	0.002160	0.000013	0.000000	0.000000
26.311314	14.652885	18.293827	0.002332	-0.182510	2.414095	0.000000	-0.027491	0.000000	0.002164	0.000008	0.000000	0.000000
26.752274	14.831518	18.256409	-0.408942	0.267041	2.417072	0.000000	0.041075	0.000000	0.002180	0.000064	0.000000	0.000000
27.193234	15.379722	17.826373	-0.838903	0.704442	2.450336	0.000000	0.110109	0.000000	0.002221	0.000121	0.000000	0.000000
27.634194	16.322549	17.023288	-1.307195	1.109789	2.514264	0.000000	0.180396	0.000000	0.002287	0.000179	0.000000	0.000000
28.075154	17.703080	15.883693	-1.835217	1.464639	2.609584	0.000000	0.252735	0.000000	0.002379	0.000239	0.000000	0.000000
28.521114	19.608418	14.442262	-2.452089	1.753803	2.738988	0.000000	0.328402	0.000000	0.002499	0.000302	0.000000	0.000000
29.070174	22.030374	12.836289	-1.932576	1.188305	2.896490	0.000000	0.244948	0.000000	0.002643	0.000219	0.000000	0.000000
29.619234	23.802994	11.801472	-1.276535	0.707453	3.006952	0.000000	0.157151	0.000000	0.002739	0.000132	0.000000	0.000000
30.168294	24.801043	11.264102	-0.530313	0.276995	3.068417	0.000000	0.066569	0.000000	0.002787	0.000042	0.000000	0.000000
30.717354	24.954009	11.185901	0.253374	-0.133732	3.079795	0.000000	-0.025193	0.000000	0.002785	-0.000048	0.000000	0.000000
31.015927	24.844422	11.256772	0.177311	-0.132172	3.074631	0.000000	-0.017335	0.000000	0.002773	-0.000041	0.000000	0.000000
31.349260	24.730827	11.354929	0.163473	-0.162301	3.068867	0.000000	-0.017335	0.000000	0.002760	-0.000041	0.000000	0.000000
31.682593	24.626458	11.473173	0.149634	-0.192430	3.063102	0.000000	-0.017335	0.000000	0.002746	-0.000041	0.000000	0.000000
32.017177	24.530976	11.612060	0.135744	-0.222672	3.057315	0.000000	-0.017335	0.000000	0.002732	-0.000041	0.000000	0.000000
32.314499	24.453932	11.752459	0.060973	-0.219550	3.052174	0.000000	-0.009543	0.000000	0.002720	-0.000034	0.000000	0.000000
32.863559	23.968161	12.232754	0.818433	-0.660339	3.022067	0.000000	-0.100107	0.000000	0.002677	-0.000121	0.000000	0.000000
33.412619	22.677529	13.219942	1.518074	-1.148166	2.942693	0.000000	-0.188896	0.000000	0.002587	-0.000207	0.000000	0.000000
33.961679	20.673219	14.784339	2.110469	-1.717779	2.815460	0.000000	-0.274339	0.000000	0.002451	-0.000288	0.000000	0.000000
34.510739	18.096833	17.037378	2.553770	-2.409753	2.642622	0.000000	-0.354919	0.000000	0.002272	-0.000365	0.000000	0.000000
34.956699	16.094150	19.052653	1.952762	-2.090218	2.500841	0.000000	-0.281914	0.000000	0.002122	-0.000308	0.000000	0.000000
35.397659	14.600993	20.719960	1.446012	-1.676368	2.392041	0.000000	-0.212553	0.000000	0.001998	-0.000255	0.000000	0.000000
35.838619	13.524063	21.987113	1.005334	-1.186240	2.313244	0.000000	-0.145610	0.000000	0.001897	-0.000204	0.000000	0.000000
36.279579	12.814149	22.796456	0.610592	-0.642137	2.263553	0.000000	-0.080323	0.000000	0.001817	-0.000157	0.000000	0.000000
36.721789	12.438128	23.111473	0.273636	-0.124564	2.242377	0.000000	-0.021356	0.000000	0.001758	-0.000115	0.000000	0.000000
37.019112	12.283051	23.189429	0.247942	-0.137628	2.236062	0.000000	-0.021356	0.000000	0.001724	-0.000115	0.000000	0.000000
37.352445	12.127358	23.286063	0.219136	-0.152275	2.228981	0.000000	-0.021356	0.000000	0.001686	-0.000115	0.000000	0.000000
37.685779	11.990870	23.392462	0.190330	-0.166922	2.221901	0.000000	-0.021356	0.000000	0.001648	-0.000115	0.000000	0.000000
38.020362	11.873181	23.509079	0.161416	-0.181623	2.214794	0.000000	-0.021356	0.000000	0.001610	-0.000115	0.000000	0.000000
38.317684	11.784835	23.620967	0.164190	-0.251787	2.208478	0.000000	-0.026691	0.000000	0.001575	-0.000119	0.000000	0.000000
38.758644	11.790536	23.581365	-0.177202	0.341251	2.210694	0.000000	0.036563	0.000000	0.001532	-0.000079	0.000000	0.000000
39.199604	12.099749	23.023616	-0.526690	0.918761	2.240853	0.000000	0.100235	0.000000	0.001506	-0.000039	0.000000	0.000000
39.640564	12.726601	21.973098	-0.900241	1.454466	2.299297	0.000000	0.165049	0.000000	0.001497	-0.000001	0.000000	0.000000
40.081524	13.699733	20.477611	-1.314925	1.923991	2.386692	0.000000	0.231743	0.000000	0.001505	0.000038	0.000000	0.000000
40.527484	15.081151	18.582597	-1.793534	2.307295	2.505509	0.000000	0.301486	0.000000	0.001531	0.000077	0.000000	0.000000
41.076544	16.844926	16.452980	-1.399710	1.594175	2.650455	0.000000	0.225803	0.000000	0.001560	0.000027	0.000000	0.000000
41.625604	18.119026	15.039892	-0.907011	0.994609	2.752709	0.000000	0.146115	0.000000	0.001561	-0.000023	0.000000	0.000000
42.174664	18.813445	14.242678	-0.350241	0.465891	2.810459	0.000000	0.063835	0.000000	0.001535	-0.000073	0.000000	0.000000
42.723724	18.879129	14.004551	0.231268	-0.029641	2.822679	0.000000	-0.019578	0.000000	0.001481	-0.000122	0.000000	0.000000
43.022297	18.774995	14.007025	0.166213	-0.014802	2.819043	0.000000	-0.012295	0.000000	0.001446	-0.000118	0.000000	0.000000
43.502297	18.628041	14.037687	0.139941	-0.049078	2.813198	0.000000	-0.012295	0.000000	0.001389	-0.000118	0.000000	0.000000
43.982297	18.506309	14.101255	0.113669	-0.083354	2.807353	0.000000	-0.012295	0.000000	0.001332	-0.000118	0.000000	0.000000
44.462297	18.409798	14.197727	0.087396	-0.117630	2.801508	0.000000	-0.012295	0.000000	0.001275	-0.000118	0.000000	0.000000
44.942297	18.338508	14.327104	0.061124	-0.151906	2.795664	0.000000	-0.012295	0.000000	0.001218	-0.000118	0.000000	0.000000
45.423547	18.292579	14.489673	-0.055848	-0.114481	2.789821	0.000000	0.001527	0.000000	0.001161	-0.000113	0.000000	0.000000
45.720870	18.330637	14.563928	-0.119593	-0.097600	2.790308	0.000000	0.008749	0.000000	0.001128	-0.000110	0.000000	0.000000
46.269930	18.153251	14.952743	0.440681	-0.614714	2.772566	0.000000	-0.073526	0.000000	0.001058	-0.000145	0.000000	0.000000
46.818990	17.374131	15.929986	0.969824	-1.175615	2.709959	0.000000	-0.154498	0.000000	0.000969	-0.000178	0.000000	0.000000
47.368050	16.048316	17.565266	1.430457	-1.820253	2.603597	0.000000	-0.232733	0.000000	0.000863	-0.000208	0.000000	0.000000
47.917110	14.269466	19.975058	1.790042	-2.594545	2.455364	0.000000	-0.306843	0.000000	0.000742	-0.000234	0.000000	0.000000
48.363070	12.884752	22.117489	1.325862	-2.189311	2.333936	0.000000	-0.238439	0.000000	0.000642	-0.000216	0.000000	0.000000
48.804030	11.895469	23.832783	0.926033	-1.685759	2.243363	0.000000	-0.173148	0.000000	0.000550	-0.000200	0.000000	0.000000
49.244990	11.238891	25.068330	0.568515	-1.105506	2.181115	0.000000	-0.109827	0.000000	0.000465	-0.000187	0.000000	0.000000
49.685950	10.885018	25.767915	0.236972	-0.474953	2.146481	0.000000	-0.047754	0.000000	0.000385	-0.000176	0.000000	0.000000
50.128160	10.817825	25.899425	-0.057407	0.113895	2.139081	0.000000	0.008545	0.000000	0.000309	-0.000168	0.000000	0.000000
50.425482	10.860160	25.835156	-0.084983	0.102266	2.141672	0.000000	0.008545	0.000000	0.000259	-0.000168	0.000000	0.000000
50.758816	10.927120	25.771324	-0.115897	0.089229	2.144576	0.000000	0.008545	0.000000	0.000203	-0.000168	0.000000	0.000000
51.092149	11.014690	25.716184	-0.146812	0.076191	2.147481	0.000000	0.008545	0.000000	0.000147	-0.000168	0.000000	0.000000
51.426732	11.123089	25.670099	-0.087605	-0.145143	2.150375	0.000000	-0.008900	0.000000	0.000090	-0.000169	0.000000	0.000000
51.724055	11.183192	25.759924	-0.087127	-0.220179	2.147779	0.000000	-0.014165	0.000000	0.000040	-0.000169	0.000000	0.000000
52.165015	11.405908	25.667498	-0.419916	0.428981	2.155213	0.000000	0.047590	0.000000	-0.000034	-0.000169	0.000000	0.000000
52.605975	11.929434	25.009020	-0.771888	1.058623	2.189973	0.000000	0.109888	0.000000	-0.000109	-0.000171	0.000000	0.000000
53.046935	12.777687	23.814449	-1.159124	1.640097	2.252455	0.000000	0.173440	0.000000	-0.000185	-0.000174	0.000000	0.000000
53.487895	13.989418	22.138140	-1.599316	2.146948	2.343372	0.000000	0.238969	0.000000	-0.000263	-0.000180	0.000000	0.000000
53.933855	15.640736	20.031306	-2.116826	2.557444	2.465266	0.000000	0.307619	0.000000	-0.000345	-0.000188	0.000000	0.000000
54.482915	17.766578	17.660550	-1.732149	1.785912	2.614047	0.000000	0.233183	0.000000	-0.000445	-0.000175	0.000000	0.000000
55.031975	19.399909	16.062622	-1.225128	1.141586	2.720752	0.000000	0.154608	0.000000	-0.000537	-0.000159	0.000000	0.000000
55.581035	20.425364	15.123701	-0.631575	0.578573	2.783488	0.000000	0.073288	0.000000	-0.000620	-0.000141	0.000000	0.000000
56.130095	20.770519	14.776911	0.006586	0.056769	2.801139	0.000000	-0.009334	0.000000	-0.000691	-0.000119	0.000000	0.000000
56.428668	20.803482	14.725896	-0.062406	0.075237	2.800586	0.000000	-0.001973	0.000000	-0.000727	-0.000121	0.000000	0.000000
56.762001	20.850447	14.683326	-0.078491	0.052473	2.799969	0.000000	-0.001973	0.000000	-0.000768	-0.000121	0.000000	0.000000
57.095334	20.908136	14.655932	-0.094576	0.029709	2.799352	0.000000	-0.001973	0.000000	-0.000808	-0.000121	0.000000	0.000000
57.429918	20.976826	14.643697	-0.110722	0.006859	2.798733	0.000000	-0.001973	0.000000	-0.000849	-0.000121	0.000000	0.000000
57.727240	21.046932	14.645654	-0.180468	0.025078	2.798182	0.000000	0.005392	0.000000	-0.000885	-0.000124	0.000000	0.000000
58.276300	20.885784	14.899295	0.472169	-0.489766	2.778525	0.000000	-0.077101	0.000000	-0.000945	-0.000094	0.000000	0.000000
58.825360	20.022136	15.734012	1.091453	-1.039494	2.713867	0.000000	-0.158228	0.000000	-0.000988	-0.000063	0.000000	0.000000
59.374420	18.516991	17.209257	1.633645	-1.663260	2.605355	0.000000	-0.236550	0.000000	-0.001013	-0.000030	0.000000	0.000000
59.923480	16.476660	19.430105	2.060448	-2.405493	2.454913	0.000000	-0.310677	0.000000	-0.001021	0.000003	0.000000	0.000000
60.369440	14.879265	21.404009	1.534193	-2.002060	2.331677	0.000000	-0.242316	0.000000	-0.001025	-0.000024	0.000000	0.000000
60.810400	13.729894	22.958088	1.082238	-1.508889	2.239307	0.000000	-0.177109	0.000000	-0.001042	-0.000050	0.000000	0.000000
61.251360	12.955876	24.045187	0.679726	-0.947068	2.175231	0.000000	-0.113918	0.000000	-0.001070	-0.000078	0.000000	0.000000
61.692320	12.521849	24.615846	0.308268	-0.342157	2.138718	0.000000	-0.052024	0.000000	-0.001110	-0.000106	0.000000	0.000000
62.134530	12.408031	24.643558	-0.018446	0.217218	2.129359	0.000000	0.003999	0.000000	-0.001164	-0.000132	0.000000	0.000000
62.431853	12.426127	24.518146	-0.042416	0.204584	2.130588	0.000000	0.003999	0.000000	-0.001203	-0.000132	0.000000	0.000000
62.765186	12.463362	24.386478	-0.069289	0.190420	2.131965	0.000000	0.003999	0.000000	-0.001247	-0.000132	0.000000	0.000000
63.098520	12.518512	24.264253	-0.096163	0.176255	2.133342	0.000000	0.003999	0.000000	-0.001291	-0.000132	0.000000	0.000000
63.433103	12.591886	24.151066	-0.123137	0.162038	2.134724	0.000000	0.003999	0.000000	-0.001335	-0.000132	0.000000	0.000000
63.730426	12.672235	24.058469	-0.115629	0.089597	2.135953	0.000000	-0.001307	0.000000	-0.001375	-0.000129	0.000000	0.000000
64.171386	12.935299	23.714520	-0.483269	0.687451	2.148990	0.000000	0.060213	0.000000	-0.001439	-0.000165	0.000000	0.000000
64.612346	13.531049	22.855153	-0.872985	1.254028	2.189296	0.000000	0.122420	0.000000	-0.001521	-0.000203	0.000000	0.000000
65.053306	14.486701	21.519470	-1.302582	1.763548	2.257331	0.000000	0.186023	0.000000	-0.001619	-0.000244	0.000000	0.000000
65.494266	15.845909	19.768242	-1.791683	2.192832	2.353870	0.000000	0.251748	0.000000	-0.001736	-0.000287	0.000000	0.000000
65.940226	17.693959	17.656371	-2.367292	2.523060	2.481586	0.000000	0.320739	0.000000	-0.001874	-0.000334	0.000000	0.000000
66.489286	20.062092	15.293929	-1.920529	1.805162	2.637465	0.000000	0.245663	0.000000	-0.002040	-0.000270	0.000000	0.000000
67.038346	21.861811	13.645002	-1.338127	1.215836	2.750829	0.000000	0.166225	0.000000	-0.002170	-0.000202	0.000000	0.000000
67.587406	22.966015	12.592146	-0.661220	0.713106	2.819666	0.000000	0.083836	0.000000	-0.002262	-0.000130	0.000000	0.000000
68.136466	23.296725	12.060368	0.062385	0.261167	2.842752	0.000000	-0.000042	0.000000	-0.002313	-0.000056	0.000000	0.000000
68.435038	23.300343	11.893257	-0.012474	0.266409	2.845018	0.000000	0.007529	0.000000	-0.002332	-0.000062	0.000000	0.000000
68.768372	23.313428	11.725657	-0.026782	0.236392	2.847549	0.000000	0.007529	0.000000	-0.002352	-0.000062	0.000000	0.000000
69.101705	23.336052	11.578068	-0.041090	0.206376	2.850079	0.000000	0.007529	0.000000	-0.002373	-0.000062	0.000000	0.000000
69.436288	23.368353	11.450048	-0.055452	0.176247	2.852619	0.000000	0.007529	0.000000	-0.002394	-0.000062	0.000000	0.000000
69.733611	23.405126	11.353202	-0.130596	0.179722	2.854876	0.000000	0.015138	0.000000	-0.002412	-0.000069	0.000000	0.000000
70.282671	23.146586	11.383239	0.598683	-0.234754	2.840011	0.000000	-0.069266	0.000000	-0.002429	0.000010	0.000000	0.000000
