#ParticleID	Turn	x[m]	xp	y[m]	yp	z[m]	dE[GeV]# s	beta_x	beta_y	alpha_x	alpha_y	D_x	D_y	D_px	D_py	orbit_x	orbit_px	orbit_y	orbit_py
0.300000	11.953609	25.311669	-0.020109	-0.021763	2.600344	0.000000	0.000577	0.000000	-0.000776	0.000676	0.000000	0.000000
0.601250	11.973320	25.328368	-0.045321	-0.033670	2.600314	0.000000	0.000577	0.000000	-0.000572	0.000676	0.000000	0.000000
0.898573	12.007668	25.351884	-0.040654	-0.107565	2.600284	0.000000	-0.005822	0.000000	-0.000371	0.000677	0.000000	0.000000
1.339533	12.197326	25.165385	-0.390849	0.528896	2.613622	0.000000	0.067673	0.000000	-0.000074	0.000672	0.000000	0.000000
1.780493	12.702511	24.426083	-0.758906	1.141295	2.659508	0.000000	0.141932	0.000000	0.000222	0.000674	0.000000	0.000000
2.221453	13.546311	23.167610	-1.161641	1.701769	2.738459	0.000000	0.217801	0.000000	0.000521	0.000683	0.000000	0.000000
2.662413	14.767285	21.447219	-1.617454	2.184814	2.851375	0.000000	0.296143	0.000000	0.000826	0.000701	0.000000	0.000000
3.108373	16.442308	19.317977	-2.151544	2.569617	3.001386	0.000000	0.378340	0.000000	0.001144	0.000726	0.000000	0.000000
3.657433	18.589532	16.926138	-1.735603	1.812256	3.183665	0.000000	0.285984	0.000000	0.001531	0.000683	0.000000	0.000000
4.206493	20.209564	15.290639	-1.197047	1.183979	3.313794	0.000000	0.188565	0.000000	0.001891	0.000627	0.000000	0.000000
4.755553	21.187944	14.294993	-0.573918	0.640036	3.389470	0.000000	0.087812	0.000000	0.002218	0.000561	0.000000	0.000000
5.304613	21.455541	13.868287	0.089766	0.141682	3.409356	0.000000	-0.014490	0.000000	0.002505	0.000484	0.000000	0.000000
5.603185	21.438863	13.769191	0.020958	0.154852	3.407486	0.000000	-0.005770	0.000000	0.002652	0.000491	0.000000	0.000000
5.936519	21.430076	13.674219	0.005403	0.130062	3.405399	0.000000	-0.005770	0.000000	0.002815	0.000491	0.000000	0.000000
6.269852	21.431659	13.595774	-0.010152	0.105273	3.403312	0.000000	-0.005770	0.000000	0.002979	0.000491	0.000000	0.000000
6.604435	21.443677	13.533654	-0.025766	0.080391	3.401217	0.000000	-0.005770	0.000000	0.003143	0.000491	0.000000	0.000000
6.901758	21.463130	13.492420	-0.094159	0.092650	3.399356	0.000000	0.002864	0.000000	0.003289	0.000499	0.000000	0.000000
7.450818	21.200481	13.652422	0.569936	-0.385768	3.372690	0.000000	-0.099007	0.000000	0.003533	0.000389	0.000000	0.000000
7.999878	20.226387	14.349731	1.193777	-0.891668	3.290548	0.000000	-0.199115	0.000000	0.003714	0.000271	0.000000	0.000000
8.548938	18.609659	15.634022	1.733287	-1.461087	3.154392	0.000000	-0.295688	0.000000	0.003830	0.000149	0.000000	0.000000
9.097998	16.464516	17.596786	2.150349	-2.134588	2.966638	0.000000	-0.387012	0.000000	0.003877	0.000024	0.000000	0.000000
9.543958	14.790800	19.345489	1.615907	-1.769843	2.812212	0.000000	-0.305754	0.000000	0.003911	0.000125	0.000000	0.000000
9.984918	13.571444	20.715881	1.159732	-1.325901	2.694456	0.000000	-0.228476	0.000000	0.003988	0.000227	0.000000	0.000000
10.425878	12.729632	21.666527	0.756548	-0.821625	2.610128	0.000000	-0.153803	0.000000	0.004111	0.000331	0.000000	0.000000
10.866838	12.226899	22.154166	0.387933	-0.279959	2.558267	0.000000	-0.080885	0.000000	0.004281	0.000440	0.000000	0.000000
11.309048	12.040119	22.156037	0.065194	0.222219	2.538261	0.000000	-0.014851	0.000000	0.004500	0.000542	0.000000	0.000000
11.606371	12.008725	22.028082	0.040394	0.208137	2.533684	0.000000	-0.014851	0.000000	0.004661	0.000542	0.000000	0.000000
12.086371	11.989164	21.839183	0.000358	0.185403	2.526296	0.000000	-0.014851	0.000000	0.004921	0.000542	0.000000	0.000000
12.566371	12.008038	21.672109	-0.039678	0.162668	2.518907	0.000000	-0.014851	0.000000	0.005181	0.000542	0.000000	0.000000
13.046371	12.065346	21.526859	-0.079714	0.139934	2.511519	0.000000	-0.014851	0.000000	0.005442	0.000542	0.000000	0.000000
13.526371	12.161089	21.403435	-0.119750	0.117200	2.504131	0.000000	-0.014851	0.000000	0.005702	0.000542	0.000000	0.000000
14.007621	12.295667	21.301600	-0.159891	0.094406	2.496723	0.000000	-0.014851	0.000000	0.005962	0.000542	0.000000	0.000000
14.304943	12.398105	21.249672	-0.156076	0.031437	2.492145	0.000000	-0.020602	0.000000	0.006124	0.000527	0.000000	0.000000
14.745903	12.694682	20.989528	-0.518770	0.556215	2.498369	0.000000	0.050026	0.000000	0.006391	0.000689	0.000000	0.000000
15.186863	13.320398	20.275963	-0.905178	1.055683	2.535764	0.000000	0.121216	0.000000	0.006732	0.000858	0.000000	0.000000
15.627823	14.303859	19.141442	-1.332960	1.507111	2.604753	0.000000	0.193779	0.000000	0.007150	0.001037	0.000000	0.000000
16.068783	15.690026	17.637588	-1.821669	1.889956	2.706119	0.000000	0.268538	0.000000	0.007648	0.001228	0.000000	0.000000
16.514743	17.565895	15.811269	-2.398557	2.187686	2.842711	0.000000	0.346830	0.000000	0.008241	0.001434	0.000000	0.000000
17.063803	19.974321	13.772807	-1.960680	1.546413	3.008848	0.000000	0.259856	0.000000	0.008953	0.001155	0.000000	0.000000
17.612863	21.822398	12.374338	-1.384233	1.015310	3.126046	0.000000	0.168290	0.000000	0.009506	0.000856	0.000000	0.000000
18.161923	22.979489	11.516243	-0.709952	0.556542	3.192234	0.000000	0.073752	0.000000	0.009890	0.000542	0.000000	0.000000
18.710983	23.363798	11.137396	0.014510	0.137425	3.206241	0.000000	-0.022086	0.000000	0.010099	0.000218	0.000000	0.000000
19.009556	23.392171	11.047740	-0.054034	0.136433	3.201853	0.000000	-0.014436	0.000000	0.010172	0.000243	0.000000	0.000000
19.342889	23.432958	10.967029	-0.068325	0.105699	3.196960	0.000000	-0.014436	0.000000	0.010253	0.000243	0.000000	0.000000
19.676223	23.483271	10.906808	-0.082616	0.074965	3.192067	0.000000	-0.014436	0.000000	0.010334	0.000243	0.000000	0.000000
20.010806	23.543647	10.866830	-0.213610	0.097957	3.187175	0.000000	0.001355	0.000000	0.010415	0.000295	0.000000	0.000000
20.308129	23.674671	10.816759	-0.283074	0.096090	3.187495	0.000000	0.008929	0.000000	0.010503	0.000321	0.000000	0.000000
20.857189	23.577374	10.930949	0.459307	-0.305260	3.166173	0.000000	-0.086184	0.000000	0.010585	-0.000021	0.000000	0.000000
21.406249	22.677677	11.495222	1.169230	-0.728361	3.093144	0.000000	-0.179768	0.000000	0.010480	-0.000362	0.000000	0.000000
21.955309	21.039178	12.549780	1.796519	-1.203355	2.969701	0.000000	-0.270169	0.000000	0.010189	-0.000697	0.000000	0.000000
22.504369	18.777695	14.169750	2.296840	-1.764084	2.798032	0.000000	-0.355788	0.000000	0.009717	-0.001020	0.000000	0.000000
22.950329	16.997328	15.625102	1.708385	-1.485070	2.656991	0.000000	-0.278703	0.000000	0.009317	-0.000773	0.000000	0.000000
23.391289	15.718107	16.787001	1.202928	-1.139486	2.550649	0.000000	-0.205271	0.000000	0.009029	-0.000536	0.000000	0.000000
23.832249	14.858931	17.619958	0.752456	-0.742045	2.476049	0.000000	-0.134172	0.000000	0.008843	-0.000306	0.000000	0.000000
24.273209	14.380519	18.086067	0.336377	-0.310833	2.432342	0.000000	-0.064598	0.000000	0.008759	-0.000079	0.000000	0.000000
24.715418	14.261113	18.163843	-0.032409	0.093655	2.419032	0.000000	-0.001188	0.000000	0.008774	0.000127	0.000000	0.000000
25.012741	14.286591	18.113061	-0.053279	0.077142	2.418642	0.000000	-0.001188	0.000000	0.008812	0.000127	0.000000	0.000000
25.346075	14.329910	18.067804	-0.076678	0.058630	2.418203	0.000000	-0.001188	0.000000	0.008854	0.000127	0.000000	0.000000
25.679408	14.388827	18.034888	-0.100076	0.040117	2.417765	0.000000	-0.001188	0.000000	0.008896	0.000127	0.000000	0.000000
26.013991	14.463359	18.014625	-0.006225	-0.124608	2.417301	0.000000	-0.020799	0.000000	0.008938	0.000054	0.000000	0.000000
26.311314	14.473139	18.093749	0.005634	-0.181887	2.411098	0.000000	-0.026199	0.000000	0.008954	0.000033	0.000000	0.000000
26.752274	14.647022	18.058157	-0.401346	0.262284	2.414584	0.000000	0.042309	0.000000	0.009020	0.000265	0.000000	0.000000
27.193234	15.186624	17.634579	-0.826672	0.694518	2.448261	0.000000	0.111296	0.000000	0.009188	0.000500	0.000000	0.000000
27.634194	16.116615	16.842287	-1.289787	1.095146	2.512511	0.000000	0.181546	0.000000	0.009461	0.000740	0.000000	0.000000
28.075154	17.479517	15.717336	-1.811860	1.445933	2.608064	0.000000	0.253856	0.000000	0.009842	0.000989	0.000000	0.000000
28.521114	19.361518	14.293843	-2.421880	1.732018	2.737623	0.000000	0.329525	0.000000	0.010341	0.001251	0.000000	0.000000
29.070174	21.754604	12.708562	-1.909523	1.171851	2.895333	0.000000	0.246088	0.000000	0.010934	0.000906	0.000000	0.000000
29.619234	23.506988	11.689307	-1.262205	0.695175	3.006149	0.000000	0.158300	0.000000	0.011333	0.000545	0.000000	0.000000
30.168294	24.494787	11.163470	-0.525674	0.268028	3.068108	0.000000	0.067712	0.000000	0.011531	0.000175	0.000000	0.000000
30.717354	24.648170	11.093588	0.248010	-0.140022	3.080114	0.000000	-0.024075	0.000000	0.011525	-0.000199	0.000000	0.000000
31.015927	24.538352	11.169779	0.177469	-0.141152	3.075134	0.000000	-0.016828	0.000000	0.011474	-0.000170	0.000000	0.000000
31.349260	24.424710	11.274026	0.163457	-0.171589	3.069581	0.000000	-0.016828	0.000000	0.011417	-0.000170	0.000000	0.000000
31.682593	24.320409	11.398564	0.149445	-0.202026	3.064029	0.000000	-0.016828	0.000000	0.011360	-0.000170	0.000000	0.000000
32.017177	24.225111	11.543975	0.135380	-0.232577	3.058455	0.000000	-0.016828	0.000000	0.011303	-0.000170	0.000000	0.000000
32.314499	24.148414	11.690304	0.065913	-0.232171	3.053508	0.000000	-0.009624	0.000000	0.011253	-0.000142	0.000000	0.000000
32.863559	23.662591	12.183898	0.813312	-0.671972	3.023464	0.000000	-0.100256	0.000000	0.011075	-0.000504	0.000000	0.000000
33.412619	22.382649	13.183820	1.503224	-1.159649	2.944252	0.000000	-0.189116	0.000000	0.010700	-0.000857	0.000000	0.000000
33.961679	20.399073	14.761304	2.086888	-1.729947	2.817273	0.000000	-0.274635	0.000000	0.010136	-0.001195	0.000000	0.000000
34.510739	17.852088	17.028725	2.523056	-2.423495	2.644773	0.000000	-0.355301	0.000000	0.009392	-0.001511	0.000000	0.000000
34.956699	15.873201	19.057205	1.928877	-2.105453	2.503278	0.000000	-0.282204	0.000000	0.008771	-0.001275	0.000000	0.000000
35.397659	14.398147	20.738570	1.427996	-1.692535	2.394733	0.000000	-0.212766	0.000000	0.008258	-0.001056	0.000000	0.000000
35.838619	13.334600	22.020231	0.992389	-1.202593	2.316160	0.000000	-0.145741	0.000000	0.007838	-0.000848	0.000000	0.000000
36.279579	12.633934	22.843870	0.602143	-0.657925	2.266669	0.000000	-0.080367	0.000000	0.007508	-0.000650	0.000000	0.000000
36.721789	12.263465	23.172316	0.267283	-0.136070	2.245674	0.000000	-0.021023	0.000000	0.007263	-0.000477	0.000000	0.000000
37.019112	12.112250	23.257114	0.241306	-0.149138	2.239566	0.000000	-0.021023	0.000000	0.007121	-0.000477	0.000000	0.000000
37.352445	11.961087	23.361424	0.212183	-0.163790	2.232717	0.000000	-0.021023	0.000000	0.006962	-0.000477	0.000000	0.000000
37.685779	11.829339	23.475501	0.183060	-0.178441	2.225869	0.000000	-0.021023	0.000000	0.006803	-0.000477	0.000000	0.000000
38.020362	11.716622	23.599828	0.153828	-0.193147	2.218995	0.000000	-0.021023	0.000000	0.006643	-0.000477	0.000000	0.000000
38.317684	11.632857	23.718597	0.154597	-0.260909	2.212885	0.000000	-0.026110	0.000000	0.006501	-0.000493	0.000000	0.000000
38.758644	11.645494	23.685851	-0.183496	0.334881	2.215518	0.000000	0.037271	0.000000	0.006321	-0.000327	0.000000	0.000000
39.199604	11.958906	23.132358	-0.529971	0.915429	2.246101	0.000000	0.101081	0.000000	0.006212	-0.000166	0.000000	0.000000
39.640564	12.587417	22.083309	-0.900665	1.454319	2.304982	0.000000	0.166044	0.000000	0.006174	-0.000006	0.000000	0.000000
40.081524	13.559751	20.586442	-1.312518	1.927027	2.392834	0.000000	0.232898	0.000000	0.006207	0.000153	0.000000	0.000000
40.527484	14.937891	18.687149	-1.788275	2.313502	2.512141	0.000000	0.302831	0.000000	0.006311	0.000316	0.000000	0.000000
41.076544	16.699042	16.552264	-1.399920	1.597352	2.657686	0.000000	0.226911	0.000000	0.006428	0.000109	0.000000	0.000000
41.625604	17.976465	15.137132	-0.912653	0.994999	2.760485	0.000000	0.146968	0.000000	0.006431	-0.000099	0.000000	0.000000
42.174664	18.679895	14.340940	-0.360905	0.463530	2.818714	0.000000	0.064416	0.000000	0.006320	-0.000306	0.000000	0.000000
42.723724	18.759631	14.106965	0.216337	-0.034915	2.831339	0.000000	-0.019283	0.000000	0.006096	-0.000507	0.000000	0.000000
43.022297	18.663064	14.113219	0.153493	-0.021031	2.827820	0.000000	-0.012270	0.000000	0.005950	-0.000491	0.000000	0.000000
43.502297	18.528347	14.149741	0.127167	-0.055056	2.822167	0.000000	-0.012270	0.000000	0.005714	-0.000491	0.000000	0.000000
43.982297	18.418902	14.218927	0.100842	-0.089082	2.816513	0.000000	-0.012270	0.000000	0.005478	-0.000491	0.000000	0.000000
44.462297	18.334730	14.320779	0.074517	-0.123108	2.810859	0.000000	-0.012270	0.000000	0.005243	-0.000491	0.000000	0.000000
44.942297	18.275829	14.455294	0.048192	-0.157134	2.805205	0.000000	-0.012270	0.000000	0.005007	-0.000491	0.000000	0.000000
45.423547	18.242373	14.622772	-0.068585	-0.118798	2.799554	0.000000	0.001601	0.000000	0.004770	-0.000468	0.000000	0.000000
45.720870	18.288036	14.699536	-0.130867	-0.102616	2.800170	0.000000	0.008630	0.000000	0.004631	-0.000456	0.000000	0.000000
46.269930	18.123569	15.096198	0.428342	-0.624042	2.782483	0.000000	-0.073974	0.000000	0.004341	-0.000601	0.000000	0.000000
46.818990	17.358015	16.086386	0.957279	-1.189920	2.719805	0.000000	-0.155274	0.000000	0.003973	-0.000736	0.000000	0.000000
47.368050	16.045478	17.740625	1.418574	-1.840559	2.613242	0.000000	-0.233833	0.000000	0.003535	-0.000857	0.000000	0.000000
47.917110	14.278705	20.176740	1.779639	-2.622306	2.464678	0.000000	-0.308257	0.000000	0.003034	-0.000964	0.000000	0.000000
48.363070	12.902758	22.342091	1.316172	-2.212597	2.342973	0.000000	-0.239606	0.000000	0.002621	-0.000890	0.000000	0.000000
48.804030	11.921726	24.075628	0.916651	-1.703585	2.252213	0.000000	-0.174082	0.000000	0.002243	-0.000828	0.000000	0.000000
49.244990	11.273338	25.324207	0.559019	-1.117058	2.189860	0.000000	-0.110532	0.000000	0.001890	-0.000775	0.000000	0.000000
49.685950	10.927960	26.031024	0.226936	-0.479706	2.155209	0.000000	-0.048233	0.000000	0.001558	-0.000730	0.000000	0.000000
50.128160	10.869975	26.163633	-0.068549	0.116276	2.147879	0.000000	0.008320	0.000000	0.001244	-0.000697	0.000000	0.000000
50.425482	10.918908	26.097915	-0.096030	0.104758	2.150560	0.000000	0.008320	0.000000	0.001037	-0.000697	0.000000	0.000000
50.758816	10.993198	26.032380	-0.126840	0.091845	2.153565	0.000000	0.008320	0.000000	0.000804	-0.000697	0.000000	0.000000
51.092149	11.088028	25.975454	-0.157649	0.078933	2.156571	0.000000	0.008320	0.000000	0.000572	-0.000697	0.000000	0.000000
51.426732	11.203642	25.927497	-0.097683	-0.144365	2.159566	0.000000	-0.009200	0.000000	0.000339	-0.000700	0.000000	0.000000
51.724055	11.269694	26.016824	-0.096872	-0.220053	2.157039	0.000000	-0.014483	0.000000	0.000131	-0.000700	0.000000	0.000000
52.165015	11.501879	25.921288	-0.431895	0.435882	2.164613	0.000000	0.047512	0.000000	-0.000178	-0.000701	0.000000	0.000000
52.605975	12.037069	25.253843	-0.786645	1.071983	2.199621	0.000000	0.110056	0.000000	-0.000488	-0.000709	0.000000	0.000000
53.046935	12.899711	24.044864	-1.177328	1.659307	2.262464	0.000000	0.173860	0.000000	-0.000804	-0.000726	0.000000	0.000000
53.487895	14.129205	22.349364	-1.621793	2.171133	2.353862	0.000000	0.239653	0.000000	-0.001130	-0.000751	0.000000	0.000000
53.933855	15.802735	20.219158	-2.144617	2.585490	2.476372	0.000000	0.308579	0.000000	-0.001472	-0.000785	0.000000	0.000000
54.482915	17.956864	17.821724	-1.755919	1.806821	2.625883	0.000000	0.233776	0.000000	-0.001888	-0.000730	0.000000	0.000000
55.031975	19.613118	16.204088	-1.243215	1.156846	2.733085	0.000000	0.154814	0.000000	-0.002271	-0.000663	0.000000	0.000000
55.581035	20.654540	15.251026	-0.642718	0.589268	2.796073	0.000000	0.073095	0.000000	-0.002614	-0.000584	0.000000	0.000000
56.130095	21.007596	14.894645	0.003159	0.063662	2.813723	0.000000	-0.009929	0.000000	-0.002910	-0.000494	0.000000	0.000000
56.428668	21.043530	14.838819	-0.067311	0.083364	2.813156	0.000000	-0.002399	0.000000	-0.003060	-0.000502	0.000000	0.000000
56.762001	21.093708	14.790783	-0.083223	0.060745	2.812524	0.000000	-0.002399	0.000000	-0.003227	-0.000502	0.000000	0.000000
57.095334	21.154494	14.757826	-0.099135	0.038125	2.811891	0.000000	-0.002399	0.000000	-0.003395	-0.000502	0.000000	0.000000
57.429918	21.226176	14.739911	-0.115107	0.015420	2.811256	0.000000	-0.002399	0.000000	-0.003562	-0.000502	0.000000	0.000000
57.727240	21.298852	14.736734	-0.186662	0.034828	2.810693	0.000000	0.005170	0.000000	-0.003712	-0.000512	0.000000	0.000000
58.276300	21.139758	14.981026	0.474447	-0.482406	2.790985	0.000000	-0.077720	0.000000	-0.003959	-0.000387	0.000000	0.000000
58.825360	20.268963	15.808688	1.102041	-1.033995	2.726011	0.000000	-0.159238	0.000000	-0.004136	-0.000256	0.000000	0.000000
59.374420	18.747970	17.278662	1.651800	-1.659223	2.616920	0.000000	-0.237937	0.000000	-0.004239	-0.000121	0.000000	0.000000
59.923480	16.684190	19.495636	2.084904	-2.402619	2.465645	0.000000	-0.312417	0.000000	-0.004268	0.000017	0.000000	0.000000
60.369440	15.067629	21.465867	1.552940	-1.996834	2.341705	0.000000	-0.243803	0.000000	-0.004285	-0.000094	0.000000	0.000000
60.810400	13.903968	23.014287	1.096098	-1.501497	2.248786	0.000000	-0.178351	0.000000	-0.004351	-0.000205	0.000000	0.000000
61.251360	13.119647	24.093983	0.689327	-0.937851	2.184302	0.000000	-0.114927	0.000000	-0.004466	-0.000319	0.000000	0.000000
61.692320	12.678839	24.655835	0.314046	-0.331541	2.147518	0.000000	-0.052808	0.000000	-0.004632	-0.000436	0.000000	0.000000
62.134530	12.561453	24.673704	-0.014786	0.226747	2.138023	0.000000	0.003233	0.000000	-0.004852	-0.000546	0.000000	0.000000
62.431853	12.577284	24.542637	-0.038461	0.214077	2.139147	0.000000	0.003233	0.000000	-0.005014	-0.000546	0.000000	0.000000
62.765186	12.611772	24.404654	-0.065003	0.199873	2.140406	0.000000	0.003233	0.000000	-0.005196	-0.000546	0.000000	0.000000
63.098520	12.663955	24.276140	-0.091545	0.185669	2.141666	0.000000	0.003233	0.000000	-0.005378	-0.000546	0.000000	0.000000
63.433103	12.734128	24.156667	-0.118187	0.171411	2.142930	0.000000	0.003233	0.000000	-0.005561	-0.000546	0.000000	0.000000
63.730426	12.811434	24.058528	-0.108770	0.096413	2.144052	0.000000	-0.002305	0.000000	-0.005723	-0.000532	0.000000	0.000000
64.171386	13.069688	23.708662	-0.479387	0.694054	2.156890	0.000000	0.059413	0.000000	-0.005991	-0.000683	0.000000	0.000000
64.612346	13.663118	22.843735	-0.871894	1.260118	2.197131	0.000000	0.121816	0.000000	-0.006326	-0.000841	0.000000	0.000000
65.053306	14.618818	21.503101	-1.304217	1.768856	2.265237	0.000000	0.185615	0.000000	-0.006734	-0.001010	0.000000	0.000000
65.494266	15.980425	19.747757	-1.796100	2.197124	2.361987	0.000000	0.251538	0.000000	-0.007218	-0.001189	0.000000	0.000000
65.940226	17.833410	17.632716	-2.374539	2.526024	2.490068	0.000000	0.320716	0.000000	-0.007792	-0.001384	0.000000	0.000000
66.489286	20.206215	15.267160	-1.922634	1.808278	2.646352	0.000000	0.245375	0.000000	-0.008480	-0.001120	0.000000	0.000000
67.038346	22.004948	13.614793	-1.334996	1.219306	2.759865	0.000000	0.165664	0.000000	-0.009018	-0.000837	0.000000	0.000000
67.587406	23.102649	12.557931	-0.653115	0.717164	2.828587	0.000000	0.083002	0.000000	-0.009396	-0.000539	0.000000	0.000000
68.136466	23.421846	12.021305	0.074868	0.266092	2.851294	0.000000	-0.001140	0.000000	-0.009608	-0.000231	0.000000	0.000000
68.435038	23.420293	11.850274	-0.003880	0.272932	2.853425	0.000000	0.006895	0.000000	-0.009685	-0.000257	0.000000	0.000000
68.768372	23.427624	11.678394	-0.018113	0.242708	2.855809	0.000000	0.006895	0.000000	-0.009770	-0.000257	0.000000	0.000000
69.101705	23.444444	11.526663	-0.032346	0.212484	2.858193	0.000000	0.006895	0.000000	-0.009856	-0.000257	0.000000	0.000000
69.436288	23.470869	11.394626	-0.046632	0.182147	2.860586	0.000000	0.006895	0.000000	-0.009942	-0.000257	0.000000	0.000000
69.733611	23.502442	11.294296	-0.125751	0.187065	2.862716	0.000000	0.014985	0.000000	-0.010019	-0.000284	0.000000	0.000000
70.282671	23.236941	11.315316	0.606434	-0.225579	2.847753	0.000000	-0.069651	0.000000	-0.010085	0.000041	0.000000	0.000000
