#ParticleID	Turn	x[m]	xp	y[m]	yp	z[m]	dE[GeV]# s	beta_x	beta_y	alpha_x	alpha_y	D_x	D_y	D_px	D_py	orbit_x	orbit_px	orbit_y	orbit_py
0.300000	11.937521	25.270727	-0.019807	-0.022318	2.602817	0.000000	0.000650	0.000000	-0.000633	0.000554	0.000000	0.000000
0.601250	11.957060	25.287767	-0.045052	-0.034245	2.602846	0.000000	0.000650	0.000000	-0.000466	0.000554	0.000000	0.000000
0.898573	11.991258	25.311630	-0.040478	-0.108064	2.602874	0.000000	-0.005752	0.000000	-0.000301	0.000555	0.000000	0.000000
1.339533	12.180576	25.126039	-0.390293	0.527344	2.616310	0.000000	0.067812	0.000000	-0.000058	0.000550	0.000000	0.000000
1.780493	12.685075	24.388545	-0.757943	1.138762	2.662324	0.000000	0.142142	0.000000	0.000184	0.000552	0.000000	0.000000
2.221453	13.527810	23.132700	-1.160226	1.698368	2.741436	0.000000	0.218085	0.000000	0.000429	0.000559	0.000000	0.000000
2.662413	14.747289	21.415639	-1.615523	2.180700	2.854547	0.000000	0.296506	0.000000	0.000679	0.000574	0.000000	0.000000
3.108373	16.420292	19.290323	-2.148996	2.564972	3.004794	0.000000	0.378789	0.000000	0.000939	0.000595	0.000000	0.000000
3.657433	18.565037	16.902957	-1.733741	1.808723	3.187354	0.000000	0.286318	0.000000	0.001256	0.000559	0.000000	0.000000
4.206493	20.183420	15.270853	-1.196005	1.181307	3.317696	0.000000	0.188778	0.000000	0.001551	0.000514	0.000000	0.000000
4.755553	21.161105	14.277764	-0.573774	0.638034	3.393510	0.000000	0.087897	0.000000	0.001819	0.000459	0.000000	0.000000
5.304613	21.429012	13.852958	0.088999	0.140207	3.413456	0.000000	-0.014536	0.000000	0.002054	0.000396	0.000000	0.000000
5.603185	21.412885	13.754677	0.020028	0.153479	3.411612	0.000000	-0.005771	0.000000	0.002174	0.000402	0.000000	0.000000
5.936519	21.404724	13.660626	0.004455	0.128674	3.409555	0.000000	-0.005771	0.000000	0.002308	0.000402	0.000000	0.000000
6.269852	21.406945	13.583112	-0.011118	0.103869	3.407497	0.000000	-0.005771	0.000000	0.002442	0.000402	0.000000	0.000000
6.604435	21.419616	13.521937	-0.026750	0.078971	3.405432	0.000000	-0.005771	0.000000	0.002576	0.000402	0.000000	0.000000
6.901758	21.439657	13.481552	-0.095384	0.091348	3.403596	0.000000	0.002919	0.000000	0.002696	0.000409	0.000000	0.000000
7.450818	21.178752	13.642817	0.567959	-0.386781	3.376965	0.000000	-0.099088	0.000000	0.002895	0.000318	0.000000	0.000000
7.999878	20.207171	14.341107	1.191185	-0.892463	3.294774	0.000000	-0.199333	0.000000	0.003044	0.000222	0.000000	0.000000
8.548938	18.593548	15.626166	1.730266	-1.461720	3.158483	0.000000	-0.296037	0.000000	0.003138	0.000122	0.000000	0.000000
9.097998	16.451877	17.589537	2.147115	-2.135102	2.970512	0.000000	-0.387489	0.000000	0.003177	0.000019	0.000000	0.000000
9.543958	14.780810	19.338821	1.613212	-1.770668	2.815902	0.000000	-0.306138	0.000000	0.003204	0.000102	0.000000	0.000000
9.984918	13.563654	20.710042	1.157432	-1.326982	2.698012	0.000000	-0.228768	0.000000	0.003267	0.000186	0.000000	0.000000
10.425878	12.723737	21.661726	0.754536	-0.822913	2.613598	0.000000	-0.154005	0.000000	0.003368	0.000271	0.000000	0.000000
10.866838	12.222681	22.150567	0.386117	-0.281397	2.561697	0.000000	-0.081000	0.000000	0.003507	0.000360	0.000000	0.000000
11.309048	12.037436	22.153758	0.063715	0.220305	2.541698	0.000000	-0.014935	0.000000	0.003686	0.000444	0.000000	0.000000
11.606371	12.006922	22.026939	0.038915	0.206233	2.537125	0.000000	-0.014935	0.000000	0.003818	0.000444	0.000000	0.000000
12.086371	11.988782	21.839860	-0.001123	0.183515	2.529743	0.000000	-0.014935	0.000000	0.004031	0.000444	0.000000	0.000000
12.566371	12.009077	21.674591	-0.041160	0.160796	2.522361	0.000000	-0.014935	0.000000	0.004244	0.000444	0.000000	0.000000
13.046371	12.067809	21.531131	-0.081198	0.138078	2.514980	0.000000	-0.014935	0.000000	0.004457	0.000444	0.000000	0.000000
13.526371	12.164977	21.409481	-0.121235	0.115360	2.507598	0.000000	-0.014935	0.000000	0.004670	0.000444	0.000000	0.000000
14.007621	12.300984	21.309409	-0.161377	0.092582	2.500197	0.000000	-0.014935	0.000000	0.004883	0.000444	0.000000	0.000000
14.304943	12.404310	21.258555	-0.157220	0.029012	2.495623	0.000000	-0.020761	0.000000	0.005015	0.000432	0.000000	0.000000
14.745903	12.701946	21.000436	-0.520085	0.554076	2.501843	0.000000	0.049954	0.000000	0.005234	0.000564	0.000000	0.000000
15.186863	13.328883	20.288606	-0.906721	1.053929	2.539285	0.000000	0.121233	0.000000	0.005513	0.000702	0.000000	0.000000
15.627823	14.313782	19.155453	-1.334798	1.505823	2.608373	0.000000	0.193885	0.000000	0.005855	0.000849	0.000000	0.000000
16.068783	15.701663	17.652537	-1.823881	1.889194	2.709891	0.000000	0.268737	0.000000	0.006263	0.001005	0.000000	0.000000
16.514743	17.579589	15.826708	-2.401211	2.187457	2.846691	0.000000	0.347123	0.000000	0.006749	0.001174	0.000000	0.000000
17.063803	19.990670	13.788686	-1.963060	1.545919	3.013074	0.000000	0.260021	0.000000	0.007331	0.000946	0.000000	0.000000
17.612863	21.841035	12.390956	-1.386185	1.014512	3.130420	0.000000	0.168320	0.000000	0.007784	0.000701	0.000000	0.000000
18.161923	22.999901	11.533953	-0.711349	0.555379	3.196651	0.000000	0.073645	0.000000	0.008099	0.000443	0.000000	0.000000
18.710983	23.385360	11.156631	0.013761	0.135813	3.210598	0.000000	-0.022330	0.000000	0.008270	0.000178	0.000000	0.000000
19.009556	23.414818	11.067599	-0.055806	0.135398	3.206195	0.000000	-0.014535	0.000000	0.008329	0.000199	0.000000	0.000000
19.342889	23.456782	10.987557	-0.070086	0.104728	3.201284	0.000000	-0.014535	0.000000	0.008395	0.000199	0.000000	0.000000
19.676223	23.508266	10.927961	-0.084367	0.074058	3.196373	0.000000	-0.014535	0.000000	0.008462	0.000199	0.000000	0.000000
20.010806	23.569809	10.888570	-0.215478	0.097221	3.191463	0.000000	0.001277	0.000000	0.008528	0.000241	0.000000	0.000000
20.308129	23.701918	10.838929	-0.286041	0.095932	3.191774	0.000000	0.009002	0.000000	0.008600	0.000263	0.000000	0.000000
20.857189	23.607381	10.953623	0.457265	-0.306030	3.170470	0.000000	-0.086245	0.000000	0.008668	-0.000017	0.000000	0.000000
21.406249	22.709386	11.519084	1.168260	-0.729794	3.097354	0.000000	-0.179962	0.000000	0.008581	-0.000296	0.000000	0.000000
21.955309	21.071401	12.575595	1.796698	-1.205551	2.973722	0.000000	-0.270491	0.000000	0.008343	-0.000571	0.000000	0.000000
22.504369	18.809194	14.198421	2.298168	-1.767196	2.801766	0.000000	-0.356230	0.000000	0.007957	-0.000835	0.000000	0.000000
22.950329	17.028030	15.656205	1.709084	-1.487500	2.660483	0.000000	-0.279060	0.000000	0.007630	-0.000632	0.000000	0.000000
23.391289	15.748530	16.819863	1.202988	-1.141094	2.553955	0.000000	-0.205543	0.000000	0.007394	-0.000439	0.000000	0.000000
23.832249	14.889616	17.653828	0.751874	-0.742759	2.479222	0.000000	-0.134363	0.000000	0.007242	-0.000250	0.000000	0.000000
24.273209	14.412027	18.120150	0.335125	-0.310623	2.435434	0.000000	-0.064712	0.000000	0.007173	-0.000064	0.000000	0.000000
24.715418	14.294037	18.197346	-0.033768	0.094012	2.422092	0.000000	-0.001325	0.000000	0.007185	0.000104	0.000000	0.000000
25.012741	14.320309	18.146343	-0.054593	0.077529	2.421667	0.000000	-0.001325	0.000000	0.007216	0.000104	0.000000	0.000000
25.346075	14.364486	18.100817	-0.077939	0.059049	2.421191	0.000000	-0.001325	0.000000	0.007251	0.000104	0.000000	0.000000
25.679408	14.424227	18.067611	-0.101285	0.040570	2.420715	0.000000	-0.001325	0.000000	0.007285	0.000104	0.000000	0.000000
26.013991	14.499551	18.047035	-0.007089	-0.124386	2.420212	0.000000	-0.020959	0.000000	0.007320	0.000044	0.000000	0.000000
26.311314	14.509840	18.126003	0.005472	-0.182418	2.413966	0.000000	-0.026461	0.000000	0.007333	0.000027	0.000000	0.000000
26.752274	14.684236	18.090497	-0.402370	0.262623	2.417363	0.000000	0.042117	0.000000	0.007387	0.000217	0.000000	0.000000
27.193234	15.225110	17.666249	-0.828603	0.695714	2.450999	0.000000	0.111172	0.000000	0.007525	0.000409	0.000000	0.000000
27.634194	16.157189	16.872563	-1.292709	1.097144	2.515255	0.000000	0.181490	0.000000	0.007748	0.000606	0.000000	0.000000
28.075154	17.523084	15.745556	-1.815902	1.448645	2.610862	0.000000	0.253868	0.000000	0.008060	0.000810	0.000000	0.000000
28.521114	19.409115	14.319440	-2.427185	1.735287	2.740522	0.000000	0.329602	0.000000	0.008469	0.001024	0.000000	0.000000
29.070174	21.807143	12.731106	-1.913403	1.174253	2.898349	0.000000	0.246075	0.000000	0.008954	0.000742	0.000000	0.000000
29.619234	23.562784	11.709640	-1.264399	0.696877	3.009198	0.000000	0.158194	0.000000	0.009281	0.000446	0.000000	0.000000
30.168294	24.551943	11.182276	-0.526039	0.269150	3.071106	0.000000	0.067514	0.000000	0.009443	0.000143	0.000000	0.000000
30.717354	24.704703	11.111445	0.249496	-0.139402	3.082977	0.000000	-0.024362	0.000000	0.009437	-0.000163	0.000000	0.000000
31.015927	24.594811	11.186895	0.177658	-0.139908	3.077951	0.000000	-0.016960	0.000000	0.009396	-0.000139	0.000000	0.000000
31.349260	24.481033	11.290294	0.163677	-0.170288	3.072344	0.000000	-0.016960	0.000000	0.009349	-0.000139	0.000000	0.000000
31.682593	24.376575	11.413946	0.149697	-0.200668	3.066737	0.000000	-0.016960	0.000000	0.009303	-0.000139	0.000000	0.000000
32.017177	24.281098	11.558430	0.135663	-0.231162	3.061109	0.000000	-0.016960	0.000000	0.009256	-0.000139	0.000000	0.000000
32.314499	24.204195	11.703917	0.064954	-0.230119	3.056112	0.000000	-0.009606	0.000000	0.009215	-0.000116	0.000000	0.000000
32.863559	23.718456	12.195394	0.814183	-0.670174	3.026026	0.000000	-0.100316	0.000000	0.009070	-0.000412	0.000000	0.000000
33.412619	22.436652	13.193393	1.505871	-1.157975	2.946697	0.000000	-0.189252	0.000000	0.008763	-0.000701	0.000000	0.000000
33.961679	20.449386	14.769008	2.091136	-1.728273	2.819529	0.000000	-0.274842	0.000000	0.008302	-0.000978	0.000000	0.000000
34.510739	17.897121	17.034477	2.528620	-2.421698	2.646773	0.000000	-0.355571	0.000000	0.007693	-0.001237	0.000000	0.000000
34.956699	15.913959	19.061133	1.933206	-2.103319	2.505063	0.000000	-0.282433	0.000000	0.007184	-0.001044	0.000000	0.000000
35.397659	14.435645	20.740450	1.431253	-1.690127	2.396338	0.000000	-0.212954	0.000000	0.006764	-0.000864	0.000000	0.000000
35.838619	13.369696	22.019880	0.994718	-1.200023	2.317619	0.000000	-0.145891	0.000000	0.006421	-0.000694	0.000000	0.000000
36.279579	12.667383	22.841208	0.603646	-0.655311	2.268012	0.000000	-0.080483	0.000000	0.006150	-0.000532	0.000000	0.000000
36.721789	12.295940	23.167375	0.268488	-0.134278	2.246930	0.000000	-0.021182	0.000000	0.005950	-0.000390	0.000000	0.000000
37.019112	12.143993	23.251107	0.242564	-0.147344	2.240748	0.000000	-0.021182	0.000000	0.005834	-0.000390	0.000000	0.000000
37.352445	11.991971	23.354219	0.213501	-0.161991	2.233818	0.000000	-0.021182	0.000000	0.005704	-0.000390	0.000000	0.000000
37.685779	11.859325	23.467095	0.184437	-0.176639	2.226887	0.000000	-0.021182	0.000000	0.005573	-0.000390	0.000000	0.000000
38.020362	11.745666	23.590215	0.155265	-0.191341	2.219931	0.000000	-0.021182	0.000000	0.005443	-0.000390	0.000000	0.000000
38.317684	11.661036	23.707899	0.156478	-0.259711	2.213748	0.000000	-0.026333	0.000000	0.005327	-0.000403	0.000000	0.000000
38.758644	11.672297	23.674230	-0.182221	0.335770	2.216256	0.000000	0.037067	0.000000	0.005179	-0.000268	0.000000	0.000000
39.199604	11.984833	23.120114	-0.529246	0.915969	2.246732	0.000000	0.100892	0.000000	0.005090	-0.000135	0.000000	0.000000
39.640564	12.612925	22.070768	-0.900454	1.454487	2.305525	0.000000	0.165868	0.000000	0.005059	-0.000004	0.000000	0.000000
40.081524	13.585277	20.573944	-1.312811	1.926817	2.393306	0.000000	0.232734	0.000000	0.005086	0.000126	0.000000	0.000000
40.527484	14.963863	18.675054	-1.789062	2.312895	2.512557	0.000000	0.302672	0.000000	0.005172	0.000259	0.000000	0.000000
41.076544	16.725289	16.540678	-1.399702	1.597090	2.658030	0.000000	0.226744	0.000000	0.005268	0.000090	0.000000	0.000000
41.625604	18.001906	15.125679	-0.911451	0.995059	2.760733	0.000000	0.146794	0.000000	0.005271	-0.000081	0.000000	0.000000
42.174664	18.703512	14.329257	-0.358807	0.463915	2.818845	0.000000	0.064239	0.000000	0.005180	-0.000250	0.000000	0.000000
42.723724	18.780538	14.094673	0.219183	-0.034179	2.831333	0.000000	-0.019460	0.000000	0.004997	-0.000415	0.000000	0.000000
43.022297	18.682586	14.100310	0.155827	-0.020014	2.827757	0.000000	-0.012377	0.000000	0.004877	-0.000402	0.000000	0.000000
43.502297	18.545624	14.135870	0.129510	-0.054069	2.822009	0.000000	-0.012377	0.000000	0.004684	-0.000402	0.000000	0.000000
43.982297	18.433926	14.204123	0.103194	-0.088125	2.816261	0.000000	-0.012377	0.000000	0.004491	-0.000402	0.000000	0.000000
44.462297	18.347491	14.305069	0.076878	-0.122180	2.810513	0.000000	-0.012377	0.000000	0.004299	-0.000402	0.000000	0.000000
44.942297	18.286320	14.438708	0.050562	-0.156236	2.804765	0.000000	-0.012377	0.000000	0.004106	-0.000402	0.000000	0.000000
45.423547	18.250578	14.605336	-0.066247	-0.118016	2.799020	0.000000	0.001491	0.000000	0.003912	-0.000383	0.000000	0.000000
45.720870	18.294844	14.681644	-0.128874	-0.101608	2.799578	0.000000	0.008571	0.000000	0.003798	-0.000373	0.000000	0.000000
46.269930	18.128116	15.076882	0.430496	-0.622447	2.781814	0.000000	-0.074010	0.000000	0.003561	-0.000492	0.000000	0.000000
46.818990	17.360218	16.064935	0.959445	-1.187624	2.719059	0.000000	-0.155286	0.000000	0.003260	-0.000603	0.000000	0.000000
47.368050	16.045414	17.716179	1.420604	-1.837398	2.612422	0.000000	-0.233817	0.000000	0.002901	-0.000702	0.000000	0.000000
47.917110	14.276607	20.148227	1.781394	-2.618052	2.463789	0.000000	-0.308212	0.000000	0.002491	-0.000790	0.000000	0.000000
48.363070	12.899187	22.310025	1.317820	-2.208954	2.342028	0.000000	-0.239586	0.000000	0.002152	-0.000730	0.000000	0.000000
48.804030	11.916755	24.040663	0.918258	-1.700702	2.251204	0.000000	-0.174088	0.000000	0.001842	-0.000678	0.000000	0.000000
49.244990	11.266966	25.287077	0.560657	-1.115067	2.188782	0.000000	-0.110566	0.000000	0.001553	-0.000634	0.000000	0.000000
49.685950	10.920123	25.992563	0.228677	-0.478698	2.154051	0.000000	-0.048296	0.000000	0.001282	-0.000598	0.000000	0.000000
50.128160	10.860541	26.124734	-0.066592	0.116169	2.146631	0.000000	0.008217	0.000000	0.001024	-0.000571	0.000000	0.000000
50.425482	10.908316	26.059084	-0.094090	0.104635	2.149244	0.000000	0.008217	0.000000	0.000855	-0.000571	0.000000	0.000000
50.758816	10.981318	25.993638	-0.124918	0.091703	2.152173	0.000000	0.008217	0.000000	0.000664	-0.000571	0.000000	0.000000
51.092149	11.074873	25.936813	-0.155746	0.078772	2.155102	0.000000	0.008217	0.000000	0.000474	-0.000571	0.000000	0.000000
51.426732	11.189219	25.888969	-0.095916	-0.144232	2.158021	0.000000	-0.009290	0.000000	0.000283	-0.000573	0.000000	0.000000
51.724055	11.254228	25.978222	-0.095163	-0.219806	2.155429	0.000000	-0.014570	0.000000	0.000113	-0.000573	0.000000	0.000000
52.165015	11.484754	25.882920	-0.429787	0.435107	2.162901	0.000000	0.047382	0.000000	-0.000140	-0.000573	0.000000	0.000000
52.605975	12.017895	25.216597	-0.784042	1.070222	2.197787	0.000000	0.109880	0.000000	-0.000394	-0.000580	0.000000	0.000000
53.046935	12.878002	24.009576	-1.174113	1.656640	2.260487	0.000000	0.173636	0.000000	-0.000652	-0.000594	0.000000	0.000000
53.487895	14.104365	22.316779	-1.617820	2.167682	2.351717	0.000000	0.239375	0.000000	-0.000918	-0.000614	0.000000	0.000000
53.933855	15.773977	20.189939	-2.139704	2.581416	2.474031	0.000000	0.308245	0.000000	-0.001198	-0.000641	0.000000	0.000000
54.482915	17.923119	17.796353	-1.751720	1.803826	2.623307	0.000000	0.233520	0.000000	-0.001539	-0.000597	0.000000	0.000000
55.031975	19.575339	16.181506	-1.240023	1.154717	2.730326	0.000000	0.154643	0.000000	-0.001852	-0.000542	0.000000	0.000000
55.581035	20.613956	15.230372	-0.640754	0.587853	2.793185	0.000000	0.073015	0.000000	-0.002132	-0.000478	0.000000	0.000000
56.130095	20.965630	14.875198	0.003760	0.062861	2.810766	0.000000	-0.009916	0.000000	-0.002375	-0.000405	0.000000	0.000000
56.428668	21.001003	14.820001	-0.066383	0.082298	2.810164	0.000000	-0.002427	0.000000	-0.002497	-0.000411	0.000000	0.000000
56.762001	21.050572	14.772684	-0.082325	0.059654	2.809492	0.000000	-0.002427	0.000000	-0.002634	-0.000411	0.000000	0.000000
57.095334	21.110769	14.740463	-0.098267	0.037009	2.808820	0.000000	-0.002427	0.000000	-0.002771	-0.000411	0.000000	0.000000
57.429918	21.181880	14.723303	-0.114269	0.014280	2.808145	0.000000	-0.002427	0.000000	-0.002909	-0.000411	0.000000	0.000000
57.727240	21.254064	14.720813	-0.185420	0.033426	2.807546	0.000000	0.005094	0.000000	-0.003031	-0.000419	0.000000	0.000000
58.276300	21.094455	14.966404	0.474183	-0.483381	2.787781	0.000000	-0.077696	0.000000	-0.003234	-0.000317	0.000000	0.000000
58.825360	20.224782	15.794944	1.100291	-1.034613	2.722817	0.000000	-0.159112	0.000000	-0.003379	-0.000210	0.000000	0.000000
59.374420	18.706469	17.265439	1.648686	-1.659530	2.613804	0.000000	-0.237710	0.000000	-0.003464	-0.000099	0.000000	0.000000
59.923480	16.646743	19.482618	2.080641	-2.402640	2.462674	0.000000	-0.312094	0.000000	-0.003488	0.000013	0.000000	0.000000
60.369440	15.033515	21.453063	1.549688	-1.997271	2.338859	0.000000	-0.243551	0.000000	-0.003502	-0.000078	0.000000	0.000000
60.810400	13.872319	23.002068	1.093720	-1.502343	2.246023	0.000000	-0.178170	0.000000	-0.003556	-0.000168	0.000000	0.000000
61.251360	13.089749	24.082689	0.687715	-0.939066	2.181582	0.000000	-0.114815	0.000000	-0.003651	-0.000261	0.000000	0.000000
61.692320	12.650059	24.645762	0.313127	-0.333069	2.144803	0.000000	-0.052765	0.000000	-0.003787	-0.000357	0.000000	0.000000
62.134530	12.533205	24.665100	-0.015378	0.225457	2.135273	0.000000	0.003257	0.000000	-0.003967	-0.000447	0.000000	0.000000
62.431853	12.549404	24.534800	-0.039106	0.212789	2.136374	0.000000	0.003257	0.000000	-0.004100	-0.000447	0.000000	0.000000
62.765186	12.584342	24.397674	-0.065708	0.198588	2.137609	0.000000	0.003257	0.000000	-0.004249	-0.000447	0.000000	0.000000
63.098520	12.637015	24.270015	-0.092311	0.184387	2.138844	0.000000	0.003257	0.000000	-0.004398	-0.000447	0.000000	0.000000
63.433103	12.707720	24.151399	-0.119013	0.170132	2.140083	0.000000	0.003257	0.000000	-0.004548	-0.000447	0.000000	0.000000
63.730426	12.785537	24.054013	-0.110017	0.095748	2.141183	0.000000	-0.002224	0.000000	-0.004681	-0.000436	0.000000	0.000000
64.171386	13.044666	23.704771	-0.480081	0.693295	2.153994	0.000000	0.059422	0.000000	-0.004900	-0.000559	0.000000	0.000000
64.612346	13.638510	22.840527	-0.872069	1.259301	2.194164	0.000000	0.121751	0.000000	-0.005175	-0.000689	0.000000	0.000000
65.053306	14.594187	21.500605	-1.303884	1.768015	2.262155	0.000000	0.185474	0.000000	-0.005508	-0.000827	0.000000	0.000000
65.494266	15.955335	19.745968	-1.795248	2.196296	2.358742	0.000000	0.251317	0.000000	-0.005905	-0.000974	0.000000	0.000000
65.940226	17.807385	17.631623	-2.373169	2.525271	2.486607	0.000000	0.320415	0.000000	-0.006374	-0.001133	0.000000	0.000000
66.489286	20.179318	15.266785	-1.922214	1.807625	2.642639	0.000000	0.245186	0.000000	-0.006938	-0.000917	0.000000	0.000000
67.038346	21.978222	13.615061	-1.335544	1.218712	2.755990	0.000000	0.165595	0.000000	-0.007379	-0.000685	0.000000	0.000000
67.587406	23.077107	12.558811	-0.654582	0.716590	2.824643	0.000000	0.083055	0.000000	-0.007688	-0.000441	0.000000	0.000000
68.136466	23.398405	12.022808	0.072592	0.265499	2.847377	0.000000	-0.000964	0.000000	-0.007862	-0.000189	0.000000	0.000000
68.435038	23.397687	11.852378	-0.005250	0.271918	2.849514	0.000000	0.006955	0.000000	-0.007924	-0.000211	0.000000	0.000000
68.768372	23.405936	11.681168	-0.019496	0.241714	2.851902	0.000000	0.006955	0.000000	-0.007995	-0.000211	0.000000	0.000000
69.101705	23.423682	11.530093	-0.033743	0.211511	2.854291	0.000000	0.006955	0.000000	-0.008065	-0.000211	0.000000	0.000000
69.436288	23.451047	11.398700	-0.048043	0.181195	2.856689	0.000000	0.006955	0.000000	-0.008135	-0.000211	0.000000	0.000000
69.733611	23.483440	11.298941	-0.126231	0.185724	2.858822	0.000000	0.014927	0.000000	-0.008198	-0.000233	0.000000	0.000000
70.282671	23.218787	11.321515	0.605380	-0.227085	2.843848	0.000000	-0.069588	0.000000	-0.008253	0.000034	0.000000	0.000000
