#ParticleID	Turn	x[m]	xp	y[m]	yp	z[m]	dE[GeV]# s	beta_x	beta_y	alpha_x	alpha_y	D_x	D_y	D_px	D_py	orbit_x	orbit_px	orbit_y	orbit_py
0.300000	11.950484	25.214220	-0.014953	-0.024591	2.600746	0.000000	-0.001191	0.000000	-0.001206	0.001022	0.000000	0.000000
0.601250	11.967089	25.232637	-0.040167	-0.036545	2.600079	0.000000	-0.001191	0.000000	-0.000898	0.001022	0.000000	0.000000
0.898573	11.998373	25.257877	-0.035464	-0.110262	2.599421	0.000000	-0.007602	0.000000	-0.000594	0.001023	0.000000	0.000000
1.339533	12.183371	25.074842	-0.385312	0.523768	2.611822	0.000000	0.065859	0.000000	-0.000146	0.001013	0.000000	0.000000
1.780493	12.683482	24.341052	-0.752771	1.133971	2.656750	0.000000	0.140059	0.000000	0.000301	0.001015	0.000000	0.000000
2.221453	13.521567	23.089884	-1.154631	1.692583	2.734713	0.000000	0.215844	0.000000	0.000752	0.001029	0.000000	0.000000
2.662413	14.735926	21.378256	-1.609254	2.174185	2.846595	0.000000	0.294076	0.000000	0.001211	0.001054	0.000000	0.000000
3.108373	16.403047	19.258945	-2.141776	2.558042	2.995502	0.000000	0.376138	0.000000	0.001689	0.001092	0.000000	0.000000
3.657433	18.539958	16.878329	-1.726481	1.803230	3.176442	0.000000	0.283990	0.000000	0.002272	0.001028	0.000000	0.000000
4.206493	20.150741	15.251624	-1.189205	1.176860	3.305372	0.000000	0.186822	0.000000	0.002814	0.000945	0.000000	0.000000
4.755553	21.121579	14.262971	-0.567900	0.634318	3.380011	0.000000	0.086355	0.000000	0.003307	0.000846	0.000000	0.000000
5.304613	21.383859	13.841957	0.093543	0.136958	3.399044	0.000000	-0.015630	0.000000	0.003741	0.000732	0.000000	0.000000
5.603185	21.364476	13.745984	0.025454	0.149627	3.396723	0.000000	-0.007030	0.000000	0.003962	0.000742	0.000000	0.000000
5.936519	21.352711	13.654496	0.009841	0.124835	3.394132	0.000000	-0.007030	0.000000	0.004209	0.000742	0.000000	0.000000
6.269852	21.351354	13.579538	-0.005771	0.100042	3.391541	0.000000	-0.007030	0.000000	0.004456	0.000742	0.000000	0.000000
6.604435	21.360459	13.520919	-0.021442	0.075157	3.388941	0.000000	-0.007030	0.000000	0.004705	0.000742	0.000000	0.000000
6.901758	21.377365	13.482793	-0.088885	0.086945	3.386632	0.000000	0.001448	0.000000	0.004925	0.000754	0.000000	0.000000
7.450818	21.110601	13.648967	0.572237	-0.391362	3.359182	0.000000	-0.100003	0.000000	0.005294	0.000589	0.000000	0.000000
7.999878	20.135726	14.352559	1.192943	-0.897551	3.276522	0.000000	-0.199671	0.000000	0.005570	0.000413	0.000000	0.000000
8.548938	18.521609	15.643696	1.729374	-1.467682	3.140123	0.000000	-0.295790	0.000000	0.005746	0.000229	0.000000	0.000000
9.097998	16.382294	17.614362	2.143626	-2.142371	2.952408	0.000000	-0.386658	0.000000	0.005821	0.000042	0.000000	0.000000
9.543958	14.713643	19.370092	1.611138	-1.777628	2.798037	0.000000	-0.305757	0.000000	0.005873	0.000194	0.000000	0.000000
9.984918	13.497680	20.747274	1.156734	-1.333368	2.680157	0.000000	-0.228842	0.000000	0.005992	0.000347	0.000000	0.000000
10.425878	12.657782	21.704265	0.755189	-0.828430	2.595522	0.000000	-0.154537	0.000000	0.006179	0.000503	0.000000	0.000000
10.866838	12.155567	22.197513	0.388151	-0.285790	2.543168	0.000000	-0.081998	0.000000	0.006437	0.000666	0.000000	0.000000
11.309048	11.967936	22.203990	0.066181	0.218630	2.522475	0.000000	-0.016184	0.000000	0.006769	0.000820	0.000000	0.000000
11.606371	11.936000	22.078154	0.041229	0.204600	2.517419	0.000000	-0.016184	0.000000	0.007013	0.000820	0.000000	0.000000
12.086371	11.915756	21.892611	0.000946	0.181949	2.509257	0.000000	-0.016184	0.000000	0.007406	0.000820	0.000000	0.000000
12.566371	11.934183	21.728813	-0.039336	0.159298	2.501095	0.000000	-0.016184	0.000000	0.007800	0.000820	0.000000	0.000000
13.046371	11.991282	21.586759	-0.079619	0.136647	2.492933	0.000000	-0.016184	0.000000	0.008194	0.000820	0.000000	0.000000
13.526371	12.087052	21.466451	-0.119902	0.113996	2.484772	0.000000	-0.016184	0.000000	0.008588	0.000820	0.000000	0.000000
14.007621	12.221895	21.367659	-0.160290	0.091286	2.476588	0.000000	-0.016184	0.000000	0.008982	0.000820	0.000000	0.000000
14.304943	12.324599	21.317602	-0.157721	0.029887	2.471530	0.000000	-0.021703	0.000000	0.009226	0.000799	0.000000	0.000000
14.745903	12.621979	21.057989	-0.518811	0.556537	2.477018	0.000000	0.048390	0.000000	0.009632	0.001042	0.000000	0.000000
15.186863	13.247123	20.343283	-0.903623	1.057861	2.513403	0.000000	0.119023	0.000000	0.010147	0.001297	0.000000	0.000000
15.627823	14.228622	19.206000	-1.329747	1.511043	2.581095	0.000000	0.190999	0.000000	0.010778	0.001566	0.000000	0.000000
16.068783	15.611364	17.697887	-1.816666	1.895457	2.680859	0.000000	0.265133	0.000000	0.011531	0.001854	0.000000	0.000000
16.514743	17.482248	15.865848	-2.391623	2.194605	2.815509	0.000000	0.342764	0.000000	0.012427	0.002165	0.000000	0.000000
17.063803	19.884920	13.820758	-1.956558	1.551399	2.979321	0.000000	0.256696	0.000000	0.013502	0.001745	0.000000	0.000000
17.612863	21.730432	12.417606	-1.383175	1.018730	3.094786	0.000000	0.166101	0.000000	0.014337	0.001294	0.000000	0.000000
18.161923	22.888281	11.556434	-0.712003	0.558649	3.159866	0.000000	0.072580	0.000000	0.014918	0.000820	0.000000	0.000000
18.710983	23.276583	11.175893	0.009512	0.138372	3.173413	0.000000	-0.022216	0.000000	0.015235	0.000331	0.000000	0.000000
19.009556	23.306076	11.086442	-0.056082	0.136209	3.168806	0.000000	-0.015025	0.000000	0.015345	0.000368	0.000000	0.000000
19.342889	23.348247	11.005844	-0.070429	0.105584	3.163675	0.000000	-0.015025	0.000000	0.015467	0.000368	0.000000	0.000000
19.676223	23.399982	10.945663	-0.084777	0.074960	3.158544	0.000000	-0.015025	0.000000	0.015590	0.000368	0.000000	0.000000
20.010806	23.461821	10.905652	-0.215421	0.098254	3.153413	0.000000	0.000598	0.000000	0.015713	0.000446	0.000000	0.000000
20.308129	23.594037	10.855330	-0.281793	0.095244	3.153470	0.000000	0.007697	0.000000	0.015846	0.000485	0.000000	0.000000
20.857189	23.496769	10.971069	0.458010	-0.307235	3.131729	0.000000	-0.086322	0.000000	0.015971	-0.000031	0.000000	0.000000
21.406249	22.599779	11.538235	1.165439	-0.731606	3.058971	0.000000	-0.178810	0.000000	0.015812	-0.000546	0.000000	0.000000
21.955309	20.966492	12.597240	1.790479	-1.208111	2.936484	0.000000	-0.268133	0.000000	0.015373	-0.001051	0.000000	0.000000
22.504369	18.712403	14.223534	2.288944	-1.770699	2.766438	0.000000	-0.352716	0.000000	0.014661	-0.001538	0.000000	0.000000
22.950329	16.937968	15.684339	1.702194	-1.490244	2.626770	0.000000	-0.276409	0.000000	0.014058	-0.001165	0.000000	0.000000
23.391289	15.663357	16.850199	1.198277	-1.143085	2.521406	0.000000	-0.203736	0.000000	0.013623	-0.000808	0.000000	0.000000
23.832249	14.807583	17.685624	0.749145	-0.743898	2.447406	0.000000	-0.133375	0.000000	0.013344	-0.000461	0.000000	0.000000
24.273209	14.331506	18.152593	0.334264	-0.310853	2.403929	0.000000	-0.064528	0.000000	0.013216	-0.000118	0.000000	0.000000
24.715418	14.213516	18.229518	-0.035081	0.097300	2.390484	0.000000	-0.001519	0.000000	0.013239	0.000192	0.000000	0.000000
25.012741	14.240604	18.176554	-0.056026	0.080835	2.389975	0.000000	-0.001519	0.000000	0.013296	0.000192	0.000000	0.000000
25.346075	14.285782	18.128817	-0.079506	0.062377	2.389404	0.000000	-0.001519	0.000000	0.013360	0.000192	0.000000	0.000000
25.679408	14.346613	18.093385	-0.102987	0.043918	2.388834	0.000000	-0.001519	0.000000	0.013424	0.000192	0.000000	0.000000
26.013991	14.423121	18.070562	-0.009546	-0.121207	2.388237	0.000000	-0.020894	0.000000	0.013489	0.000083	0.000000	0.000000
26.311314	14.434850	18.147698	0.000554	-0.176505	2.381994	0.000000	-0.025963	0.000000	0.013513	0.000052	0.000000	0.000000
26.752274	14.612895	18.106713	-0.405679	0.269079	2.385387	0.000000	0.041802	0.000000	0.013613	0.000402	0.000000	0.000000
27.193234	15.156136	17.676600	-0.830461	0.702417	2.418594	0.000000	0.110038	0.000000	0.013868	0.000756	0.000000	0.000000
27.634194	16.089423	16.876933	-1.293215	1.103785	2.481990	0.000000	0.179520	0.000000	0.014281	0.001119	0.000000	0.000000
28.075154	17.455444	15.744101	-1.815099	1.454914	2.576294	0.000000	0.251036	0.000000	0.014857	0.001494	0.000000	0.000000
28.521114	19.340769	14.312364	-2.425224	1.741032	2.704186	0.000000	0.325882	0.000000	0.015611	0.001890	0.000000	0.000000
29.070174	21.738533	12.717847	-1.913972	1.179527	2.859916	0.000000	0.243547	0.000000	0.016508	0.001369	0.000000	0.000000
29.619234	23.496522	11.690554	-1.267400	0.702072	2.969464	0.000000	0.156911	0.000000	0.017111	0.000825	0.000000	0.000000
30.168294	24.490410	11.157294	-0.531221	0.274646	3.030892	0.000000	0.067505	0.000000	0.017411	0.000265	0.000000	0.000000
30.717354	24.649904	11.080074	0.242516	-0.133209	3.043113	0.000000	-0.023095	0.000000	0.017401	-0.000299	0.000000	0.000000
31.015927	24.541202	11.153178	0.175398	-0.135891	3.038293	0.000000	-0.016358	0.000000	0.017325	-0.000257	0.000000	0.000000
31.349260	24.428937	11.253919	0.161398	-0.166329	3.032926	0.000000	-0.016358	0.000000	0.017239	-0.000257	0.000000	0.000000
31.682593	24.326005	11.374951	0.147397	-0.196768	3.027559	0.000000	-0.016358	0.000000	0.017153	-0.000257	0.000000	0.000000
32.017177	24.232073	11.516844	0.133344	-0.227321	3.022172	0.000000	-0.016358	0.000000	0.017067	-0.000257	0.000000	0.000000
32.314499	24.156698	11.659993	0.067128	-0.228576	3.017397	0.000000	-0.009647	0.000000	0.016991	-0.000216	0.000000	0.000000
32.863559	23.669238	12.149139	0.814874	-0.667348	2.987741	0.000000	-0.099129	0.000000	0.016722	-0.000762	0.000000	0.000000
33.412619	22.387220	13.143353	1.505002	-1.153674	2.909636	0.000000	-0.186865	0.000000	0.016156	-0.001295	0.000000	0.000000
33.961679	20.401315	14.713468	2.088721	-1.722206	2.784458	0.000000	-0.271306	0.000000	0.015304	-0.001805	0.000000	0.000000
34.510739	17.851970	16.971342	2.524768	-2.413451	2.614420	0.000000	-0.350962	0.000000	0.014180	-0.002282	0.000000	0.000000
34.956699	15.871321	18.991432	1.930268	-2.096295	2.474983	0.000000	-0.278606	0.000000	0.013242	-0.001927	0.000000	0.000000
35.397659	14.394898	20.665422	1.429251	-1.684794	2.368114	0.000000	-0.209870	0.000000	0.012466	-0.001595	0.000000	0.000000
35.838619	13.330129	21.941085	0.993581	-1.196613	2.290874	0.000000	-0.143507	0.000000	0.011832	-0.001282	0.000000	0.000000
36.279579	12.628311	22.760373	0.603340	-0.653972	2.242389	0.000000	-0.078765	0.000000	0.011333	-0.000983	0.000000	0.000000
36.721789	12.256722	23.086257	0.267426	-0.131978	2.222089	0.000000	-0.019779	0.000000	0.010963	-0.000721	0.000000	0.000000
37.019112	12.105426	23.168633	0.241433	-0.145081	2.216423	0.000000	-0.019779	0.000000	0.010748	-0.000721	0.000000	0.000000
37.352445	11.954184	23.270250	0.212292	-0.159771	2.210071	0.000000	-0.019779	0.000000	0.010508	-0.000721	0.000000	0.000000
37.685779	11.822370	23.381661	0.183151	-0.174461	2.203718	0.000000	-0.019779	0.000000	0.010267	-0.000721	0.000000	0.000000
38.020362	11.709597	23.503338	0.153901	-0.189206	2.197342	0.000000	-0.019779	0.000000	0.010026	-0.000721	0.000000	0.000000
38.317684	11.625776	23.619812	0.153708	-0.254967	2.191673	0.000000	-0.024642	0.000000	0.009811	-0.000744	0.000000	0.000000
38.758644	11.639110	23.582986	-0.184263	0.338151	2.194925	0.000000	0.038206	0.000000	0.009538	-0.000495	0.000000	0.000000
39.199604	11.953155	23.027822	-0.530653	0.915877	2.225860	0.000000	0.101494	0.000000	0.009374	-0.000251	0.000000	0.000000
39.640564	12.582263	21.979590	-0.901294	1.451919	2.284831	0.000000	0.165942	0.000000	0.009317	-0.000010	0.000000	0.000000
40.081524	13.555192	20.485995	-1.313130	1.921882	2.372512	0.000000	0.232280	0.000000	0.009365	0.000231	0.000000	0.000000
40.527484	14.934022	18.592291	-1.788968	2.305907	2.491385	0.000000	0.301694	0.000000	0.009523	0.000476	0.000000	0.000000
41.076544	16.696149	16.464029	-1.400796	1.592636	2.636440	0.000000	0.226448	0.000000	0.009699	0.000164	0.000000	0.000000
41.625604	17.974659	15.052587	-0.913635	0.992836	2.739175	0.000000	0.147187	0.000000	0.009703	-0.000150	0.000000	0.000000
42.174664	18.679193	14.257405	-0.361916	0.463774	2.797768	0.000000	0.065311	0.000000	0.009535	-0.000462	0.000000	0.000000
42.723724	18.759965	14.021828	0.215369	-0.032243	2.811176	0.000000	-0.017730	0.000000	0.009197	-0.000765	0.000000	0.000000
43.022297	18.663158	14.027231	0.153850	-0.019637	2.808120	0.000000	-0.010966	0.000000	0.008976	-0.000742	0.000000	0.000000
43.502297	18.528100	14.062514	0.127522	-0.053869	2.803212	0.000000	-0.010966	0.000000	0.008620	-0.000742	0.000000	0.000000
43.982297	18.418316	14.130660	0.101194	-0.088101	2.798305	0.000000	-0.010966	0.000000	0.008263	-0.000742	0.000000	0.000000
44.462297	18.333808	14.231668	0.074866	-0.122334	2.793397	0.000000	-0.010966	0.000000	0.007907	-0.000742	0.000000	0.000000
44.942297	18.274574	14.365540	0.048538	-0.156566	2.788490	0.000000	-0.010966	0.000000	0.007551	-0.000742	0.000000	0.000000
45.423547	18.240785	14.532572	-0.068233	-0.118884	2.783587	0.000000	0.002826	0.000000	0.007194	-0.000706	0.000000	0.000000
45.720870	18.286255	14.609414	-0.129543	-0.103882	2.784639	0.000000	0.009668	0.000000	0.006984	-0.000689	0.000000	0.000000
46.269930	18.120275	15.006035	0.429606	-0.622676	2.767798	0.000000	-0.072452	0.000000	0.006545	-0.000908	0.000000	0.000000
46.818990	17.353293	15.993272	0.958384	-1.185826	2.706260	0.000000	-0.153301	0.000000	0.005990	-0.001111	0.000000	0.000000
47.368050	16.039527	17.641440	1.419430	-1.833449	2.601107	0.000000	-0.231448	0.000000	0.005328	-0.001294	0.000000	0.000000
47.917110	14.271833	20.067930	1.780169	-2.611677	2.454197	0.000000	-0.305511	0.000000	0.004573	-0.001455	0.000000	0.000000
48.363070	12.895286	22.225018	1.316734	-2.204680	2.333861	0.000000	-0.237108	0.000000	0.003949	-0.001344	0.000000	0.000000
48.804030	11.913633	23.952949	0.917304	-1.698766	2.244338	0.000000	-0.171801	0.000000	0.003377	-0.001250	0.000000	0.000000
49.244990	11.264547	25.198750	0.559798	-1.115556	2.183122	0.000000	-0.108438	0.000000	0.002844	-0.001170	0.000000	0.000000
49.685950	10.918355	25.905744	0.227878	-0.481590	2.149521	0.000000	-0.046298	0.000000	0.002344	-0.001103	0.000000	0.000000
50.128160	10.859398	26.041493	-0.067580	0.111898	2.143172	0.000000	0.010164	0.000000	0.001869	-0.001053	0.000000	0.000000
50.425482	10.907762	25.978390	-0.095085	0.100337	2.146507	0.000000	0.010164	0.000000	0.001556	-0.001053	0.000000	0.000000
50.758816	10.981430	25.915819	-0.125920	0.087377	2.150247	0.000000	0.010164	0.000000	0.001205	-0.001053	0.000000	0.000000
51.092149	11.075656	25.861888	-0.156756	0.074417	2.153986	0.000000	0.010164	0.000000	0.000854	-0.001053	0.000000	0.000000
51.426732	11.190681	25.816967	-0.096921	-0.148032	2.157717	0.000000	-0.007340	0.000000	0.000501	-0.001057	0.000000	0.000000
51.724055	11.256288	25.908492	-0.096184	-0.223615	2.155849	0.000000	-0.012618	0.000000	0.000187	-0.001058	0.000000	0.000000
52.165015	11.487676	25.817351	-0.430885	0.429517	2.164393	0.000000	0.049359	0.000000	-0.000279	-0.001059	0.000000	0.000000
52.605975	12.021761	25.156656	-0.785263	1.063102	2.200370	0.000000	0.111910	0.000000	-0.000749	-0.001072	0.000000	0.000000
53.046935	12.882935	23.956479	-1.175508	1.648314	2.264194	0.000000	0.175746	0.000000	-0.001226	-0.001097	0.000000	0.000000
53.487895	14.110529	22.271436	-1.619447	2.158528	2.356595	0.000000	0.241596	0.000000	-0.001718	-0.001135	0.000000	0.000000
53.933855	15.781603	20.153002	-2.141613	2.571830	2.480158	0.000000	0.310604	0.000000	-0.002235	-0.001187	0.000000	0.000000
54.482915	17.932623	17.768908	-1.753527	1.796091	2.630947	0.000000	0.235659	0.000000	-0.002865	-0.001104	0.000000	0.000000
55.031975	19.586543	16.161830	-1.241616	1.148279	2.739323	0.000000	0.156518	0.000000	-0.003444	-0.001002	0.000000	0.000000
55.581035	20.626586	15.217288	-0.642036	0.582254	2.803355	0.000000	0.074584	0.000000	-0.003962	-0.000882	0.000000	0.000000
56.130095	20.979328	14.867997	0.002869	0.057700	2.821901	0.000000	-0.008688	0.000000	-0.004410	-0.000746	0.000000	0.000000
56.428668	21.015794	14.815466	-0.068223	0.077848	2.821815	0.000000	-0.001045	0.000000	-0.004636	-0.000758	0.000000	0.000000
56.762001	21.066588	14.771112	-0.084158	0.055213	2.821719	0.000000	-0.001045	0.000000	-0.004889	-0.000758	0.000000	0.000000
57.095334	21.128005	14.741848	-0.100093	0.032577	2.821624	0.000000	-0.001045	0.000000	-0.005141	-0.000758	0.000000	0.000000
57.429918	21.200336	14.727651	-0.116088	0.009857	2.821528	0.000000	-0.001045	0.000000	-0.005395	-0.000758	0.000000	0.000000
57.727240	21.273612	14.727778	-0.188461	0.029773	2.821444	0.000000	0.006669	0.000000	-0.005620	-0.000773	0.000000	0.000000
58.276300	21.116892	14.977518	0.471817	-0.487344	2.802583	0.000000	-0.076579	0.000000	-0.005994	-0.000585	0.000000	0.000000
58.825360	20.249331	15.810673	1.098765	-1.039166	2.738220	0.000000	-0.158478	0.000000	-0.006261	-0.000386	0.000000	0.000000
59.374420	18.732201	17.286572	1.648114	-1.664989	2.629492	0.000000	-0.237573	0.000000	-0.006417	-0.000181	0.000000	0.000000
59.923480	16.672630	19.510317	2.081077	-2.409384	2.478325	0.000000	-0.312457	0.000000	-0.006459	0.000028	0.000000	0.000000
60.369440	15.059207	21.486656	1.549726	-2.003758	2.354447	0.000000	-0.243524	0.000000	-0.006484	-0.000140	0.000000	0.000000
60.810400	13.898212	23.041064	1.093293	-1.508211	2.261758	0.000000	-0.177744	0.000000	-0.006583	-0.000309	0.000000	0.000000
61.251360	13.116236	24.126442	0.686799	-0.944056	2.197673	0.000000	-0.113985	0.000000	-0.006756	-0.000481	0.000000	0.000000
61.692320	12.677563	24.693420	0.311676	-0.336957	2.161463	0.000000	-0.051518	0.000000	-0.007007	-0.000658	0.000000	0.000000
62.134530	12.562215	24.715617	-0.016400	0.220981	2.152729	0.000000	0.004730	0.000000	-0.007339	-0.000824	0.000000	0.000000
62.431853	12.579006	24.587964	-0.040074	0.208363	2.154380	0.000000	0.004730	0.000000	-0.007584	-0.000824	0.000000	0.000000
62.765186	12.614569	24.453770	-0.066616	0.194218	2.156232	0.000000	0.004730	0.000000	-0.007859	-0.000824	0.000000	0.000000
63.098520	12.667827	24.329006	-0.093158	0.180073	2.158083	0.000000	0.004730	0.000000	-0.008133	-0.000824	0.000000	0.000000
63.433103	12.739079	24.213258	-0.119799	0.165874	2.159942	0.000000	0.004730	0.000000	-0.008409	-0.000824	0.000000	0.000000
63.730426	12.817328	24.118426	-0.109530	0.089101	2.161591	0.000000	-0.000994	0.000000	-0.008654	-0.000802	0.000000	0.000000
64.171386	13.076245	23.774273	-0.480276	0.688492	2.175237	0.000000	0.061182	0.000000	-0.009058	-0.001030	0.000000	0.000000
64.612346	13.670438	22.913421	-0.872947	1.256561	2.216527	0.000000	0.124066	0.000000	-0.009565	-0.001270	0.000000	0.000000
65.053306	14.627025	21.575039	-1.305473	1.767469	2.285935	0.000000	0.188376	0.000000	-0.010180	-0.001525	0.000000	0.000000
65.494266	15.989669	19.820020	-1.797602	2.197978	2.384256	0.000000	0.254848	0.000000	-0.010912	-0.001797	0.000000	0.000000
65.940226	17.843955	17.703262	-2.376239	2.529030	2.514225	0.000000	0.324606	0.000000	-0.011778	-0.002091	0.000000	0.000000
66.489286	20.218200	15.335492	-1.924137	1.809578	2.672757	0.000000	0.248458	0.000000	-0.012818	-0.001693	0.000000	0.000000
67.038346	22.018165	13.682697	-1.336232	1.218980	2.787982	0.000000	0.167876	0.000000	-0.013631	-0.001264	0.000000	0.000000
67.587406	23.116853	12.627167	-0.654026	0.715179	2.857849	0.000000	0.084298	0.000000	-0.014202	-0.000813	0.000000	0.000000
68.136466	23.436754	12.093730	0.074332	0.262301	2.881110	0.000000	-0.000789	0.000000	-0.014521	-0.000348	0.000000	0.000000
68.435038	23.436873	11.924086	-0.006812	0.270779	2.883492	0.000000	0.007620	0.000000	-0.014637	-0.000388	0.000000	0.000000
68.768372	23.446155	11.753568	-0.021035	0.240775	2.886162	0.000000	0.007620	0.000000	-0.014766	-0.000388	0.000000	0.000000
69.101705	23.464919	11.603053	-0.035258	0.210771	2.888831	0.000000	0.007620	0.000000	-0.014896	-0.000388	0.000000	0.000000
69.436288	23.493290	11.472089	-0.049535	0.180654	2.891511	0.000000	0.007620	0.000000	-0.015026	-0.000388	0.000000	0.000000
69.733611	23.526676	11.372544	-0.131174	0.187157	2.893902	0.000000	0.016102	0.000000	-0.015141	-0.000430	0.000000	0.000000
70.282671	23.266690	11.394646	0.601861	-0.227657	2.879311	0.000000	-0.069538	0.000000	-0.015242	0.000062	0.000000	0.000000
