#ParticleID	Turn	x[m]	xp	y[m]	yp	z[m]	dE[GeV]# s	beta_x	beta_y	alpha_x	alpha_y	D_x	D_y	D_px	D_py	orbit_x	orbit_px	orbit_y	orbit_py
0.300000	11.936333	25.141877	-0.012717	-0.026170	2.602977	0.000000	-0.001837	0.000000	-0.001262	0.001061	0.000000	0.000000
0.601250	11.951599	25.161257	-0.037960	-0.038160	2.602104	0.000000	-0.001837	0.000000	-0.000942	0.001061	0.000000	0.000000
0.898573	11.981579	25.187468	-0.033316	-0.111744	2.601243	0.000000	-0.008254	0.000000	-0.000627	0.001062	0.000000	0.000000
1.339533	12.164502	25.006555	-0.382725	0.520455	2.613349	0.000000	0.065250	0.000000	-0.000161	0.001052	0.000000	0.000000
1.780493	12.662102	24.276441	-0.749627	1.128979	2.658000	0.000000	0.139485	0.000000	0.000303	0.001054	0.000000	0.000000
2.221453	13.497122	23.030335	-1.150786	1.686138	2.735701	0.000000	0.215299	0.000000	0.000770	0.001068	0.000000	0.000000
2.662413	14.707726	21.324925	-1.604533	2.166581	2.847331	0.000000	0.293553	0.000000	0.001246	0.001094	0.000000	0.000000
3.108373	16.370171	19.212788	-2.135955	2.549625	2.995992	0.000000	0.375631	0.000000	0.001742	0.001132	0.000000	0.000000
3.657433	18.501107	16.840307	-1.721462	1.796739	3.176630	0.000000	0.283473	0.000000	0.002346	0.001066	0.000000	0.000000
4.206493	20.106997	15.219887	-1.185341	1.171833	3.305255	0.000000	0.186303	0.000000	0.002909	0.000981	0.000000	0.000000
4.755553	21.074366	14.236117	-0.565462	0.630396	3.379594	0.000000	0.085844	0.000000	0.003420	0.000878	0.000000	0.000000
5.304613	21.334846	13.818934	0.094382	0.133862	3.398334	0.000000	-0.016123	0.000000	0.003871	0.000760	0.000000	0.000000
5.603185	21.314860	13.724875	0.026445	0.146414	3.395854	0.000000	-0.007535	0.000000	0.004101	0.000770	0.000000	0.000000
5.936519	21.302446	13.635535	0.010796	0.121606	3.393085	0.000000	-0.007535	0.000000	0.004357	0.000770	0.000000	0.000000
6.269852	21.300465	13.562734	-0.004854	0.096799	3.390317	0.000000	-0.007535	0.000000	0.004614	0.000770	0.000000	0.000000
6.604435	21.308969	13.506290	-0.020562	0.071898	3.387538	0.000000	-0.007535	0.000000	0.004872	0.000770	0.000000	0.000000
6.901758	21.325363	13.470105	-0.087824	0.083593	3.385070	0.000000	0.000926	0.000000	0.005101	0.000783	0.000000	0.000000
7.450818	21.058402	13.639787	0.571545	-0.394435	3.357335	0.000000	-0.100470	0.000000	0.005484	0.000612	0.000000	0.000000
7.999878	20.085238	14.346704	1.190545	-0.900565	3.274425	0.000000	-0.200075	0.000000	0.005770	0.000429	0.000000	0.000000
8.548938	18.474617	15.641222	1.725440	-1.470853	3.137815	0.000000	-0.296123	0.000000	0.005954	0.000239	0.000000	0.000000
9.097998	16.340340	17.615565	2.138432	-2.145926	2.949934	0.000000	-0.386914	0.000000	0.006033	0.000045	0.000000	0.000000
9.543958	14.675771	19.374598	1.607133	-1.781435	2.795431	0.000000	-0.306078	0.000000	0.006088	0.000202	0.000000	0.000000
9.984918	13.462886	20.755191	1.153730	-1.337256	2.677389	0.000000	-0.229232	0.000000	0.006212	0.000361	0.000000	0.000000
10.425878	12.625249	21.715585	0.753048	-0.832221	2.592559	0.000000	-0.155000	0.000000	0.006407	0.000524	0.000000	0.000000
10.866838	12.124578	22.212072	0.386777	-0.289312	2.539973	0.000000	-0.082540	0.000000	0.006674	0.000692	0.000000	0.000000
11.309048	11.937852	22.221481	0.065370	0.215623	2.519009	0.000000	-0.016788	0.000000	0.007019	0.000852	0.000000	0.000000
11.606371	11.906417	22.097425	0.040358	0.201621	2.513765	0.000000	-0.016788	0.000000	0.007273	0.000852	0.000000	0.000000
12.086371	11.887055	21.914720	-0.000022	0.179016	2.505297	0.000000	-0.016788	0.000000	0.007682	0.000852	0.000000	0.000000
12.566371	11.906459	21.753715	-0.040402	0.156411	2.496830	0.000000	-0.016788	0.000000	0.008091	0.000852	0.000000	0.000000
13.046371	11.964628	21.614411	-0.080782	0.133806	2.488362	0.000000	-0.016788	0.000000	0.008500	0.000852	0.000000	0.000000
13.526371	12.061561	21.496807	-0.121162	0.111201	2.479895	0.000000	-0.016788	0.000000	0.008909	0.000852	0.000000	0.000000
14.007621	12.197664	21.400683	-0.161648	0.088537	2.471405	0.000000	-0.016788	0.000000	0.009319	0.000852	0.000000	0.000000
14.304943	12.301190	21.352256	-0.159295	0.027279	2.466157	0.000000	-0.022274	0.000000	0.009572	0.000830	0.000000	0.000000
14.745903	12.599749	21.094514	-0.519904	0.554918	2.471347	0.000000	0.047677	0.000000	0.009993	0.001082	0.000000	0.000000
15.186863	13.225675	20.380767	-0.904285	1.057304	2.507366	0.000000	0.118159	0.000000	0.010528	0.001347	0.000000	0.000000
15.627823	14.207596	19.243488	-1.330011	1.511574	2.574619	0.000000	0.189974	0.000000	0.011183	0.001626	0.000000	0.000000
16.068783	15.590421	17.734426	-1.816545	1.897051	2.673867	0.000000	0.263936	0.000000	0.011966	0.001925	0.000000	0.000000
16.514743	17.461065	15.900488	-2.391120	2.197207	2.807910	0.000000	0.341380	0.000000	0.012895	0.002247	0.000000	0.000000
17.063803	19.863698	13.853087	-1.956920	1.553003	2.970993	0.000000	0.255568	0.000000	0.014012	0.001811	0.000000	0.000000
17.612863	21.710105	12.448654	-1.384372	1.019453	3.085884	0.000000	0.165251	0.000000	0.014879	0.001343	0.000000	0.000000
18.161923	22.869713	11.587139	-0.713947	0.558542	3.150556	0.000000	0.072023	0.000000	0.015483	0.000851	0.000000	0.000000
18.710983	23.260510	11.207167	0.006960	0.137430	3.163869	0.000000	-0.022469	0.000000	0.015811	0.000344	0.000000	0.000000
19.009556	23.291308	11.118310	-0.058292	0.135267	3.159162	0.000000	-0.015343	0.000000	0.015925	0.000383	0.000000	0.000000
19.342889	23.334955	11.038308	-0.072652	0.104738	3.153920	0.000000	-0.015343	0.000000	0.016053	0.000383	0.000000	0.000000
19.676223	23.388177	10.978659	-0.087012	0.074209	3.148678	0.000000	-0.015343	0.000000	0.016181	0.000383	0.000000	0.000000
20.010806	23.451515	10.939118	-0.217618	0.097765	3.143436	0.000000	0.000232	0.000000	0.016309	0.000463	0.000000	0.000000
20.308129	23.585056	10.889055	-0.283651	0.094765	3.143380	0.000000	0.007263	0.000000	0.016447	0.000503	0.000000	0.000000
20.857189	23.489977	11.005839	0.455910	-0.308669	3.121485	0.000000	-0.086429	0.000000	0.016576	-0.000032	0.000000	0.000000
21.406249	22.595347	11.575155	1.163244	-0.734100	3.048763	0.000000	-0.178587	0.000000	0.016412	-0.000566	0.000000	0.000000
21.955309	20.964429	12.637568	1.788342	-1.211842	2.926504	0.000000	-0.267585	0.000000	0.015956	-0.001091	0.000000	0.000000
22.504369	18.712553	14.268772	2.287011	-1.775936	2.756870	0.000000	-0.351852	0.000000	0.015217	-0.001596	0.000000	0.000000
22.950329	16.939730	15.733779	1.700409	-1.494340	2.617554	0.000000	-0.275787	0.000000	0.014592	-0.001209	0.000000	0.000000
23.391289	15.666637	16.902696	1.196568	-1.145872	2.512427	0.000000	-0.203347	0.000000	0.014141	-0.000839	0.000000	0.000000
23.832249	14.812354	17.739958	0.747436	-0.745249	2.438558	0.000000	-0.133215	0.000000	0.013851	-0.000478	0.000000	0.000000
24.273209	14.337807	18.207463	0.332478	-0.310705	2.395105	0.000000	-0.064595	0.000000	0.013718	-0.000122	0.000000	0.000000
24.715418	14.221466	18.283584	-0.037186	0.099051	2.381579	0.000000	-0.001765	0.000000	0.013743	0.000200	0.000000	0.000000
25.012741	14.249803	18.229566	-0.058121	0.082630	2.380995	0.000000	-0.001765	0.000000	0.013802	0.000200	0.000000	0.000000
25.346075	14.296375	18.180617	-0.081592	0.064219	2.380340	0.000000	-0.001765	0.000000	0.013869	0.000200	0.000000	0.000000
25.679408	14.358593	18.143941	-0.105064	0.045809	2.379685	0.000000	-0.001765	0.000000	0.013936	0.000200	0.000000	0.000000
26.013991	14.436488	18.119837	-0.011505	-0.119667	2.379003	0.000000	-0.021065	0.000000	0.014003	0.000087	0.000000	0.000000
26.311314	14.449370	18.196050	-0.001541	-0.174783	2.372707	0.000000	-0.026084	0.000000	0.014028	0.000055	0.000000	0.000000
26.752274	14.629434	18.152969	-0.408174	0.272089	2.375990	0.000000	0.041441	0.000000	0.014132	0.000418	0.000000	0.000000
27.193234	15.175103	17.719679	-0.833471	0.706577	2.408974	0.000000	0.109433	0.000000	0.014397	0.000785	0.000000	0.000000
27.634194	16.111338	16.915897	-1.296879	1.108905	2.472033	0.000000	0.178664	0.000000	0.014827	0.001162	0.000000	0.000000
28.075154	17.480962	15.778200	-1.819587	1.460761	2.565881	0.000000	0.249918	0.000000	0.015425	0.001552	0.000000	0.000000
28.521114	19.370794	14.340989	-2.430765	1.747353	2.693188	0.000000	0.324489	0.000000	0.016208	0.001963	0.000000	0.000000
29.070174	21.774331	12.740242	-1.918800	1.184593	2.848220	0.000000	0.242519	0.000000	0.017139	0.001422	0.000000	0.000000
29.619234	23.537102	11.707895	-1.271168	0.706245	2.957287	0.000000	0.156269	0.000000	0.017766	0.000857	0.000000	0.000000
30.168294	24.534438	11.170399	-0.533660	0.278223	3.018460	0.000000	0.067259	0.000000	0.018077	0.000276	0.000000	0.000000
30.717354	24.695798	11.089456	0.241579	-0.129971	3.030657	0.000000	-0.022939	0.000000	0.018068	-0.000310	0.000000	0.000000
31.015927	24.587455	11.160715	0.174781	-0.132766	3.025862	0.000000	-0.016278	0.000000	0.017988	-0.000266	0.000000	0.000000
31.349260	24.475592	11.259357	0.160810	-0.163159	3.020525	0.000000	-0.016278	0.000000	0.017899	-0.000266	0.000000	0.000000
31.682593	24.373042	11.378261	0.146839	-0.193552	3.015188	0.000000	-0.016278	0.000000	0.017811	-0.000266	0.000000	0.000000
32.017177	24.279475	11.517987	0.132815	-0.224059	3.009831	0.000000	-0.016278	0.000000	0.017721	-0.000266	0.000000	0.000000
32.314499	24.204423	11.659176	0.066896	-0.225458	3.005084	0.000000	-0.009641	0.000000	0.017642	-0.000224	0.000000	0.000000
32.863559	23.716328	12.144814	0.816235	-0.664033	2.975550	0.000000	-0.098728	0.000000	0.017363	-0.000791	0.000000	0.000000
33.412619	22.431953	13.135181	1.507858	-1.149925	2.897792	0.000000	-0.186076	0.000000	0.016776	-0.001344	0.000000	0.000000
33.961679	20.442142	14.700836	2.092866	-1.717759	2.773181	0.000000	-0.270144	0.000000	0.015891	-0.001874	0.000000	0.000000
34.510739	17.887622	16.953319	2.529904	-2.407991	2.603919	0.000000	-0.349448	0.000000	0.014724	-0.002370	0.000000	0.000000
34.956699	15.902855	18.968577	1.934292	-2.090909	2.465131	0.000000	-0.277355	0.000000	0.013750	-0.002000	0.000000	0.000000
35.397659	14.423270	20.637959	1.432368	-1.679744	2.358787	0.000000	-0.208864	0.000000	0.012945	-0.001656	0.000000	0.000000
35.838619	13.356078	21.909410	0.995937	-1.192128	2.281962	0.000000	-0.142736	0.000000	0.012287	-0.001331	0.000000	0.000000
36.279579	12.652466	22.725072	0.605043	-0.650257	2.233784	0.000000	-0.078220	0.000000	0.011769	-0.001021	0.000000	0.000000
36.721789	12.279626	23.048070	0.268478	-0.128870	2.213691	0.000000	-0.019410	0.000000	0.011384	-0.000749	0.000000	0.000000
37.019112	12.127694	23.128601	0.242520	-0.141984	2.208143	0.000000	-0.019410	0.000000	0.011161	-0.000749	0.000000	0.000000
37.352445	11.975715	23.228158	0.213418	-0.156687	2.201922	0.000000	-0.019410	0.000000	0.010912	-0.000749	0.000000	0.000000
37.685779	11.843136	23.337518	0.184316	-0.171390	2.195702	0.000000	-0.019410	0.000000	0.010662	-0.000749	0.000000	0.000000
38.020362	11.729572	23.457144	0.155105	-0.186148	2.189458	0.000000	-0.019410	0.000000	0.010412	-0.000749	0.000000	0.000000
38.317684	11.645021	23.571807	0.154883	-0.251604	2.183906	0.000000	-0.024237	0.000000	0.010189	-0.000772	0.000000	0.000000
38.758644	11.657507	23.532586	-0.183515	0.340197	2.187303	0.000000	0.038414	0.000000	0.009906	-0.000513	0.000000	0.000000
39.199604	11.971066	22.976231	-0.530297	0.916514	2.218293	0.000000	0.101507	0.000000	0.009735	-0.000260	0.000000	0.000000
39.640564	12.600029	21.928065	-0.901314	1.451118	2.277229	0.000000	0.165759	0.000000	0.009676	-0.000010	0.000000	0.000000
40.081524	13.573147	20.435793	-1.313528	1.919679	2.364785	0.000000	0.231901	0.000000	0.009727	0.000240	0.000000	0.000000
40.527484	14.952526	18.544632	-1.789771	2.302401	2.483438	0.000000	0.301113	0.000000	0.009891	0.000495	0.000000	0.000000
41.076544	16.715161	16.419408	-1.400889	1.590556	2.628239	0.000000	0.226128	0.000000	0.010074	0.000171	0.000000	0.000000
41.625604	17.993385	15.009532	-0.913010	0.992035	2.730872	0.000000	0.147133	0.000000	0.010078	-0.000155	0.000000	0.000000
42.174664	18.696857	14.214554	-0.360616	0.464195	2.789515	0.000000	0.065525	0.000000	0.009904	-0.000479	0.000000	0.000000
42.723724	18.775864	13.977833	0.217252	-0.030570	2.803125	0.000000	-0.017253	0.000000	0.009554	-0.000794	0.000000	0.000000
43.022297	18.677859	13.982388	0.155851	-0.018246	2.800207	0.000000	-0.010531	0.000000	0.009324	-0.000770	0.000000	0.000000
43.502297	18.540877	14.016387	0.129528	-0.052586	2.795522	0.000000	-0.010531	0.000000	0.008954	-0.000770	0.000000	0.000000
43.982297	18.429165	14.083353	0.103205	-0.086926	2.790836	0.000000	-0.010531	0.000000	0.008584	-0.000770	0.000000	0.000000
44.462297	18.342724	14.183285	0.076882	-0.121267	2.786151	0.000000	-0.010531	0.000000	0.008215	-0.000770	0.000000	0.000000
44.942297	18.281552	14.316185	0.050559	-0.155607	2.781466	0.000000	-0.010531	0.000000	0.007845	-0.000770	0.000000	0.000000
45.423547	18.245816	14.482346	-0.066233	-0.118282	2.776786	0.000000	0.003227	0.000000	0.007474	-0.000733	0.000000	0.000000
45.720870	18.290096	14.558849	-0.127429	-0.103568	2.777965	0.000000	0.010035	0.000000	0.007256	-0.000715	0.000000	0.000000
46.269930	18.121730	14.954295	0.431794	-0.620834	2.761400	0.000000	-0.071873	0.000000	0.006800	-0.000943	0.000000	0.000000
46.818990	17.352362	15.938619	0.960491	-1.182325	2.700255	0.000000	-0.152522	0.000000	0.006224	-0.001154	0.000000	0.000000
47.368050	16.036380	17.581929	1.421306	-1.828040	2.595606	0.000000	-0.230484	0.000000	0.005537	-0.001344	0.000000	0.000000
47.917110	14.266797	20.001270	1.781680	-2.603976	2.449301	0.000000	-0.304379	0.000000	0.004752	-0.001511	0.000000	0.000000
48.363070	12.888919	22.152174	1.318192	-2.198561	2.329465	0.000000	-0.236095	0.000000	0.004105	-0.001396	0.000000	0.000000
48.804030	11.905968	23.875513	0.918780	-1.694504	2.240386	0.000000	-0.170896	0.000000	0.003511	-0.001298	0.000000	0.000000
49.244990	11.255539	25.118451	0.561360	-1.113345	2.179567	0.000000	-0.107630	0.000000	0.002958	-0.001215	0.000000	0.000000
49.685950	10.907898	25.824441	0.229599	-0.481531	2.146322	0.000000	-0.045576	0.000000	0.002438	-0.001145	0.000000	0.000000
50.128160	10.847314	25.961095	-0.065670	0.110056	2.140292	0.000000	0.010819	0.000000	0.001945	-0.001093	0.000000	0.000000
50.425482	10.894550	25.899097	-0.093198	0.098464	2.143834	0.000000	0.010819	0.000000	0.001620	-0.001093	0.000000	0.000000
50.758816	10.966969	25.837786	-0.124061	0.085469	2.147805	0.000000	0.010819	0.000000	0.001255	-0.001093	0.000000	0.000000
51.092149	11.059964	25.785138	-0.154923	0.072474	2.151775	0.000000	0.010819	0.000000	0.000891	-0.001093	0.000000	0.000000
51.426732	11.173772	25.741528	-0.095252	-0.149398	2.155739	0.000000	-0.006670	0.000000	0.000525	-0.001097	0.000000	0.000000
51.724055	11.238396	25.833877	-0.094594	-0.224844	2.154082	0.000000	-0.011942	0.000000	0.000199	-0.001098	0.000000	0.000000
52.165015	11.468183	25.744687	-0.428844	0.426338	2.162932	0.000000	0.049993	0.000000	-0.000285	-0.001099	0.000000	0.000000
52.605975	12.000231	25.087605	-0.782679	1.058118	2.199198	0.000000	0.112509	0.000000	-0.000772	-0.001113	0.000000	0.000000
53.046935	12.858838	23.892540	-1.172262	1.641751	2.263297	0.000000	0.176319	0.000000	-0.001268	-0.001139	0.000000	0.000000
53.487895	14.083216	22.213876	-1.615391	2.150684	2.355965	0.000000	0.242149	0.000000	-0.001779	-0.001178	0.000000	0.000000
53.933855	15.750228	20.102882	-2.136550	2.563060	2.479790	0.000000	0.311144	0.000000	-0.002316	-0.001231	0.000000	0.000000
54.482915	17.896095	17.727249	-1.749283	1.789366	2.630900	0.000000	0.236207	0.000000	-0.002969	-0.001146	0.000000	0.000000
55.031975	19.545933	16.126660	-1.238493	1.143120	2.739597	0.000000	0.157061	0.000000	-0.003570	-0.001040	0.000000	0.000000
55.581035	20.583254	15.187099	-0.640255	0.578292	2.803944	0.000000	0.075114	0.000000	-0.004108	-0.000915	0.000000	0.000000
56.130095	20.934831	14.841634	0.003180	0.054654	2.822791	0.000000	-0.008181	0.000000	-0.004572	-0.000775	0.000000	0.000000
56.428668	20.971090	14.790937	-0.067894	0.074764	2.822868	0.000000	-0.000526	0.000000	-0.004807	-0.000787	0.000000	0.000000
56.762001	21.021676	14.748648	-0.083863	0.052102	2.822955	0.000000	-0.000526	0.000000	-0.005070	-0.000787	0.000000	0.000000
57.095334	21.082907	14.721468	-0.099831	0.029440	2.823042	0.000000	-0.000526	0.000000	-0.005332	-0.000787	0.000000	0.000000
57.429918	21.155073	14.709378	-0.115859	0.006692	2.823130	0.000000	-0.000526	0.000000	-0.005595	-0.000787	0.000000	0.000000
57.727240	21.228224	14.711394	-0.188232	0.026599	2.823209	0.000000	0.007205	0.000000	-0.005829	-0.000803	0.000000	0.000000
58.276300	21.072081	14.964386	0.470529	-0.490131	2.804640	0.000000	-0.076104	0.000000	-0.006217	-0.000608	0.000000	0.000000
58.825360	20.206727	15.800477	1.096050	-1.041763	2.740529	0.000000	-0.158073	0.000000	-0.006495	-0.000402	0.000000	0.000000
59.374420	18.693279	17.279203	1.644165	-1.667581	2.632009	0.000000	-0.237246	0.000000	-0.006657	-0.000189	0.000000	0.000000
59.923480	16.638603	19.505867	2.076173	-2.412154	2.481000	0.000000	-0.312214	0.000000	-0.006701	0.000028	0.000000	0.000000
60.369440	15.029076	21.484862	1.545863	-2.006925	2.357248	0.000000	-0.243211	0.000000	-0.006727	-0.000146	0.000000	0.000000
60.810400	13.871104	23.042175	1.090280	-1.511621	2.264717	0.000000	-0.177357	0.000000	-0.006830	-0.000321	0.000000	0.000000
61.251360	13.091463	24.130607	0.684497	-0.947555	2.200827	0.000000	-0.113519	0.000000	-0.007011	-0.000499	0.000000	0.000000
61.692320	12.654543	24.700648	0.309982	-0.340386	2.164851	0.000000	-0.050969	0.000000	-0.007271	-0.000683	0.000000	0.000000
62.134530	12.540451	24.725786	-0.017544	0.217611	2.156392	0.000000	0.005347	0.000000	-0.007616	-0.000856	0.000000	0.000000
62.431853	12.557935	24.600129	-0.041261	0.205017	2.158236	0.000000	0.005347	0.000000	-0.007870	-0.000856	0.000000	0.000000
62.765186	12.594306	24.468158	-0.067850	0.190897	2.160303	0.000000	0.005347	0.000000	-0.008156	-0.000856	0.000000	0.000000
63.098520	12.648402	24.345600	-0.094438	0.176778	2.162371	0.000000	0.005347	0.000000	-0.008441	-0.000856	0.000000	0.000000
63.433103	12.720526	24.232048	-0.121127	0.162605	2.164446	0.000000	0.005347	0.000000	-0.008727	-0.000856	0.000000	0.000000
63.730426	12.799575	24.139158	-0.110855	0.085613	2.166288	0.000000	-0.000406	0.000000	-0.008982	-0.000833	0.000000	0.000000
64.171386	13.059484	23.797812	-0.481224	0.685640	2.180236	0.000000	0.061895	0.000000	-0.009401	-0.001070	0.000000	0.000000
64.612346	13.654353	22.939149	-0.873562	1.254475	2.221888	0.000000	0.124912	0.000000	-0.009927	-0.001319	0.000000	0.000000
65.053306	14.611333	21.602240	-1.305782	1.766244	2.291722	0.000000	0.189366	0.000000	-0.010566	-0.001583	0.000000	0.000000
65.494266	15.974101	19.847908	-1.797618	2.197670	2.390540	0.000000	0.255992	0.000000	-0.011326	-0.001865	0.000000	0.000000
65.940226	17.828252	17.731007	-2.375947	2.529654	2.521088	0.000000	0.325918	0.000000	-0.012225	-0.002171	0.000000	0.000000
66.489286	20.202500	15.362907	-1.924501	1.809588	2.680314	0.000000	0.249538	0.000000	-0.013305	-0.001757	0.000000	0.000000
67.038346	22.003187	13.710448	-1.337231	1.218375	2.796093	0.000000	0.168704	0.000000	-0.014149	-0.001312	0.000000	0.000000
67.587406	23.103269	12.655946	-0.655592	0.713914	2.866361	0.000000	0.084857	0.000000	-0.014741	-0.000845	0.000000	0.000000
68.136466	23.425143	12.124302	0.072307	0.260287	2.889865	0.000000	-0.000507	0.000000	-0.015073	-0.000362	0.000000	0.000000
68.435038	23.426597	11.955703	-0.009069	0.269086	2.892353	0.000000	0.007959	0.000000	-0.015193	-0.000403	0.000000	0.000000
68.768372	23.437386	11.786279	-0.023299	0.239186	2.895140	0.000000	0.007959	0.000000	-0.015328	-0.000403	0.000000	0.000000
69.101705	23.457663	11.636788	-0.037529	0.209287	2.897928	0.000000	0.007959	0.000000	-0.015462	-0.000403	0.000000	0.000000
69.436288	23.487555	11.506781	-0.051813	0.179275	2.900726	0.000000	0.007959	0.000000	-0.015597	-0.000403	0.000000	0.000000
69.733611	23.522310	11.408023	-0.133717	0.186105	2.903223	0.000000	0.016502	0.000000	-0.015717	-0.000447	0.000000	0.000000
70.282671	23.265178	11.431826	0.599236	-0.229723	2.888773	0.000000	-0.069440	0.000000	-0.015823	0.000064	0.000000	0.000000
