#ParticleID	Turn	x[m]	xp	y[m]	yp	z[m]	dE[GeV]# s	beta_x	beta_y	alpha_x	alpha_y	D_x	D_y	D_px	D_py	orbit_x	orbit_px	orbit_y	orbit_py
0.300000	11.952107	25.308303	-0.020108	-0.021801	2.600577	0.000000	0.000592	0.000000	-0.000760	0.000663	0.000000	0.000000
0.601250	11.971818	25.325026	-0.045323	-0.033710	2.600555	0.000000	0.000592	0.000000	-0.000561	0.000663	0.000000	0.000000
0.898573	12.006168	25.348566	-0.040665	-0.107598	2.600534	0.000000	-0.005807	0.000000	-0.000363	0.000664	0.000000	0.000000
1.339533	12.195819	25.162135	-0.390826	0.528776	2.613886	0.000000	0.067695	0.000000	-0.000072	0.000658	0.000000	0.000000
1.780493	12.700966	24.422975	-0.758847	1.141094	2.659788	0.000000	0.141961	0.000000	0.000218	0.000660	0.000000	0.000000
2.221453	13.544696	23.164713	-1.161544	1.701495	2.738760	0.000000	0.217837	0.000000	0.000511	0.000670	0.000000	0.000000
2.662413	14.765563	21.444591	-1.617315	2.184480	2.851699	0.000000	0.296187	0.000000	0.000810	0.000687	0.000000	0.000000
3.108373	16.440437	19.315669	-2.151355	2.569238	3.001738	0.000000	0.378394	0.000000	0.001122	0.000712	0.000000	0.000000
3.657433	18.587482	16.924195	-1.735475	1.811968	3.184050	0.000000	0.286025	0.000000	0.001502	0.000669	0.000000	0.000000
4.206493	20.207407	15.288971	-1.196990	1.183763	3.314205	0.000000	0.188594	0.000000	0.001855	0.000615	0.000000	0.000000
4.755553	21.185762	14.293531	-0.573936	0.639877	3.389900	0.000000	0.087827	0.000000	0.002175	0.000550	0.000000	0.000000
5.304613	21.453416	13.866975	0.089674	0.141567	3.409796	0.000000	-0.014489	0.000000	0.002457	0.000475	0.000000	0.000000
5.603185	21.436804	13.767940	0.020846	0.154749	3.407931	0.000000	-0.005764	0.000000	0.002600	0.000481	0.000000	0.000000
5.936519	21.428092	13.673038	0.005290	0.129958	3.405849	0.000000	-0.005764	0.000000	0.002761	0.000481	0.000000	0.000000
6.269852	21.429750	13.594663	-0.010266	0.105167	3.403767	0.000000	-0.005764	0.000000	0.002921	0.000481	0.000000	0.000000
6.604435	21.441845	13.532614	-0.025881	0.080284	3.401677	0.000000	-0.005764	0.000000	0.003082	0.000481	0.000000	0.000000
6.901758	21.461367	13.491444	-0.094302	0.092556	3.399821	0.000000	0.002877	0.000000	0.003225	0.000489	0.000000	0.000000
7.450818	21.198904	13.651534	0.569738	-0.385835	3.373161	0.000000	-0.099010	0.000000	0.003464	0.000381	0.000000	0.000000
7.999878	20.225051	14.348904	1.193537	-0.891713	3.291018	0.000000	-0.199133	0.000000	0.003642	0.000266	0.000000	0.000000
8.548938	18.608602	15.633233	1.733023	-1.461113	3.154850	0.000000	-0.295720	0.000000	0.003755	0.000146	0.000000	0.000000
9.097998	16.463755	17.596013	2.150080	-2.134597	2.967076	0.000000	-0.387059	0.000000	0.003802	0.000024	0.000000	0.000000
9.543958	14.790263	19.344736	1.615678	-1.769882	2.812632	0.000000	-0.305791	0.000000	0.003834	0.000123	0.000000	0.000000
9.984918	13.571096	20.715172	1.159531	-1.325966	2.694864	0.000000	-0.228502	0.000000	0.003910	0.000222	0.000000	0.000000
10.425878	12.729453	21.665883	0.756366	-0.821712	2.610529	0.000000	-0.153819	0.000000	0.004031	0.000325	0.000000	0.000000
10.866838	12.226875	22.153607	0.387761	-0.280065	2.558666	0.000000	-0.080891	0.000000	0.004197	0.000431	0.000000	0.000000
11.309048	12.040243	22.155580	0.065049	0.222057	2.538665	0.000000	-0.014852	0.000000	0.004412	0.000531	0.000000	0.000000
11.606371	12.008936	22.027721	0.040250	0.207976	2.534091	0.000000	-0.014852	0.000000	0.004570	0.000531	0.000000	0.000000
12.086371	11.989512	21.838976	0.000215	0.185242	2.526707	0.000000	-0.014852	0.000000	0.004825	0.000531	0.000000	0.000000
12.566371	12.008522	21.672056	-0.039820	0.162509	2.519323	0.000000	-0.014852	0.000000	0.005080	0.000531	0.000000	0.000000
13.046371	12.065966	21.526959	-0.079855	0.139776	2.511939	0.000000	-0.014852	0.000000	0.005335	0.000531	0.000000	0.000000
13.526371	12.161843	21.403686	-0.119890	0.117043	2.504555	0.000000	-0.014852	0.000000	0.005590	0.000531	0.000000	0.000000
14.007621	12.296554	21.302001	-0.160029	0.094250	2.497152	0.000000	-0.014852	0.000000	0.005846	0.000531	0.000000	0.000000
14.304943	12.399075	21.250165	-0.156176	0.031216	2.492577	0.000000	-0.020612	0.000000	0.006004	0.000517	0.000000	0.000000
14.745903	12.695748	20.990209	-0.518894	0.556012	2.498803	0.000000	0.050027	0.000000	0.006266	0.000675	0.000000	0.000000
15.186863	13.321582	20.276813	-0.905332	1.055507	2.536208	0.000000	0.121229	0.000000	0.006600	0.000841	0.000000	0.000000
15.627823	14.305189	19.142435	-1.333150	1.506970	2.605213	0.000000	0.193803	0.000000	0.007009	0.001016	0.000000	0.000000
16.068783	15.691537	17.638691	-1.821904	1.889857	2.706601	0.000000	0.268573	0.000000	0.007499	0.001203	0.000000	0.000000
16.514743	17.567626	15.812447	-2.398844	2.187629	2.843222	0.000000	0.346878	0.000000	0.008080	0.001406	0.000000	0.000000
17.063803	19.976333	13.774059	-1.960926	1.546341	3.009394	0.000000	0.259887	0.000000	0.008778	0.001132	0.000000	0.000000
17.612863	21.824639	12.375684	-1.384423	1.015218	3.126615	0.000000	0.168304	0.000000	0.009320	0.000839	0.000000	0.000000
18.161923	22.981895	11.517707	-0.710073	0.556422	3.192812	0.000000	0.073748	0.000000	0.009697	0.000531	0.000000	0.000000
18.710983	23.366291	11.139012	0.014465	0.137269	3.206816	0.000000	-0.022108	0.000000	0.009901	0.000213	0.000000	0.000000
19.009556	23.394761	11.049413	-0.054190	0.136336	3.202428	0.000000	-0.014443	0.000000	0.009972	0.000238	0.000000	0.000000
19.342889	23.435651	10.968765	-0.068480	0.105608	3.197534	0.000000	-0.014443	0.000000	0.010052	0.000238	0.000000	0.000000
19.676223	23.486067	10.908602	-0.082770	0.074880	3.192641	0.000000	-0.014443	0.000000	0.010131	0.000238	0.000000	0.000000
20.010806	23.546545	10.868680	-0.213776	0.097887	3.187748	0.000000	0.001351	0.000000	0.010211	0.000289	0.000000	0.000000
20.308129	23.677665	10.818650	-0.283359	0.096080	3.188069	0.000000	0.008942	0.000000	0.010297	0.000315	0.000000	0.000000
20.857189	23.580626	10.932880	0.459122	-0.305323	3.166751	0.000000	-0.086189	0.000000	0.010378	-0.000020	0.000000	0.000000
21.406249	22.681075	11.497251	1.169159	-0.728479	3.093712	0.000000	-0.179792	0.000000	0.010275	-0.000355	0.000000	0.000000
21.955309	21.042595	12.551970	1.796568	-1.203538	2.970246	0.000000	-0.270210	0.000000	0.009989	-0.000683	0.000000	0.000000
22.504369	18.781004	14.172176	2.297008	-1.764343	2.798542	0.000000	-0.355845	0.000000	0.009526	-0.001000	0.000000	0.000000
22.950329	17.000530	15.627730	1.708484	-1.485273	2.657471	0.000000	-0.278748	0.000000	0.009135	-0.000757	0.000000	0.000000
23.391289	15.721258	16.789775	1.202958	-1.139620	2.551107	0.000000	-0.205304	0.000000	0.008852	-0.000526	0.000000	0.000000
23.832249	14.862088	17.622814	0.752419	-0.742102	2.476492	0.000000	-0.134194	0.000000	0.008670	-0.000300	0.000000	0.000000
24.273209	14.383740	18.088938	0.336271	-0.310813	2.432776	0.000000	-0.064609	0.000000	0.008587	-0.000077	0.000000	0.000000
24.715418	14.264459	18.166664	-0.032522	0.093670	2.419464	0.000000	-0.001199	0.000000	0.008602	0.000124	0.000000	0.000000
25.012741	14.290003	18.115872	-0.053388	0.077160	2.419070	0.000000	-0.001199	0.000000	0.008639	0.000124	0.000000	0.000000
25.346075	14.333392	18.070602	-0.076781	0.058650	2.418629	0.000000	-0.001199	0.000000	0.008680	0.000124	0.000000	0.000000
25.679408	14.392377	18.037672	-0.100174	0.040141	2.418188	0.000000	-0.001199	0.000000	0.008722	0.000124	0.000000	0.000000
26.013991	14.466973	18.017392	-0.006289	-0.124604	2.417721	0.000000	-0.020813	0.000000	0.008763	0.000053	0.000000	0.000000
26.311314	14.476790	18.096511	0.005646	-0.181964	2.411514	0.000000	-0.026225	0.000000	0.008779	0.000032	0.000000	0.000000
26.752274	14.650699	18.060954	-0.401420	0.262282	2.414992	0.000000	0.042293	0.000000	0.008843	0.000260	0.000000	0.000000
27.193234	15.190401	17.637346	-0.826834	0.694591	2.448667	0.000000	0.111291	0.000000	0.009008	0.000490	0.000000	0.000000
27.634194	16.120571	16.844960	-1.290043	1.095290	2.512922	0.000000	0.181551	0.000000	0.009276	0.000725	0.000000	0.000000
28.075154	17.483738	15.719855	-1.812222	1.446143	2.608486	0.000000	0.253871	0.000000	0.009649	0.000969	0.000000	0.000000
28.521114	19.366100	14.296157	-2.422361	1.732280	2.738063	0.000000	0.329550	0.000000	0.010139	0.001226	0.000000	0.000000
29.070174	21.759627	12.710635	-1.909865	1.172038	2.895794	0.000000	0.246100	0.000000	0.010720	0.000888	0.000000	0.000000
29.619234	23.512287	11.691213	-1.262384	0.695300	3.006619	0.000000	0.158297	0.000000	0.011111	0.000534	0.000000	0.000000
30.168294	24.500182	11.165269	-0.525679	0.268100	3.068576	0.000000	0.067694	0.000000	0.011305	0.000171	0.000000	0.000000
30.717354	24.653474	11.095334	0.248178	-0.139998	3.080568	0.000000	-0.024107	0.000000	0.011299	-0.000195	0.000000	0.000000
31.015927	24.543643	11.171471	0.177498	-0.141061	3.075584	0.000000	-0.016843	0.000000	0.011249	-0.000167	0.000000	0.000000
31.349260	24.429980	11.275656	0.163489	-0.171493	3.070025	0.000000	-0.016843	0.000000	0.011193	-0.000167	0.000000	0.000000
31.682593	24.325657	11.400128	0.149480	-0.201924	3.064466	0.000000	-0.016843	0.000000	0.011138	-0.000167	0.000000	0.000000
32.017177	24.230335	11.545469	0.135418	-0.232470	3.058887	0.000000	-0.016843	0.000000	0.011082	-0.000167	0.000000	0.000000
32.314499	24.153610	11.691735	0.065818	-0.231996	3.053934	0.000000	-0.009623	0.000000	0.011032	-0.000140	0.000000	0.000000
32.863559	23.667802	12.185152	0.813387	-0.671826	3.023884	0.000000	-0.100267	0.000000	0.010858	-0.000494	0.000000	0.000000
33.412619	22.387694	13.184921	1.503465	-1.159521	2.944655	0.000000	-0.189140	0.000000	0.010491	-0.000840	0.000000	0.000000
33.961679	20.403783	14.762266	2.087279	-1.729828	2.817650	0.000000	-0.274671	0.000000	0.009938	-0.001171	0.000000	0.000000
34.510739	17.856313	17.029551	2.523570	-2.423375	2.645113	0.000000	-0.355348	0.000000	0.009209	-0.001481	0.000000	0.000000
34.956699	15.877033	19.057901	1.929277	-2.105297	2.503588	0.000000	-0.282243	0.000000	0.008600	-0.001250	0.000000	0.000000
35.397659	14.401679	20.739109	1.428296	-1.692347	2.395017	0.000000	-0.212798	0.000000	0.008096	-0.001035	0.000000	0.000000
35.838619	13.337912	22.020590	0.992602	-1.202381	2.316424	0.000000	-0.145766	0.000000	0.007685	-0.000832	0.000000	0.000000
36.279579	12.637097	22.844033	0.602279	-0.657698	2.266917	0.000000	-0.080386	0.000000	0.007361	-0.000638	0.000000	0.000000
36.721789	12.266541	23.172277	0.267396	-0.135922	2.245911	0.000000	-0.021044	0.000000	0.007121	-0.000468	0.000000	0.000000
37.019112	12.115257	23.256988	0.241425	-0.148990	2.239793	0.000000	-0.021044	0.000000	0.006982	-0.000468	0.000000	0.000000
37.352445	11.964013	23.361198	0.212307	-0.163641	2.232934	0.000000	-0.021044	0.000000	0.006826	-0.000468	0.000000	0.000000
37.685779	11.832180	23.475175	0.183190	-0.178291	2.226076	0.000000	-0.021044	0.000000	0.006670	-0.000468	0.000000	0.000000
38.020362	11.719374	23.599402	0.153964	-0.192997	2.219191	0.000000	-0.021044	0.000000	0.006513	-0.000468	0.000000	0.000000
38.317684	11.635528	23.718080	0.154779	-0.260826	2.213072	0.000000	-0.026139	0.000000	0.006374	-0.000483	0.000000	0.000000
38.758644	11.648031	23.685268	-0.183371	0.334948	2.215691	0.000000	0.037247	0.000000	0.006197	-0.000321	0.000000	0.000000
39.199604	11.961357	23.131725	-0.529898	0.915478	2.246262	0.000000	0.101061	0.000000	0.006091	-0.000163	0.000000	0.000000
39.640564	12.589824	22.082644	-0.900640	1.454346	2.305134	0.000000	0.166028	0.000000	0.006054	-0.000006	0.000000	0.000000
40.081524	13.562155	20.585765	-1.312540	1.927032	2.392980	0.000000	0.232886	0.000000	0.006085	0.000150	0.000000	0.000000
40.527484	14.940331	18.686483	-1.788343	2.313482	2.512284	0.000000	0.302822	0.000000	0.006188	0.000310	0.000000	0.000000
41.076544	16.701500	16.551614	-1.399893	1.597350	2.657825	0.000000	0.226898	0.000000	0.006303	0.000107	0.000000	0.000000
41.625604	17.978839	15.136476	-0.912533	0.995015	2.760615	0.000000	0.146951	0.000000	0.006306	-0.000097	0.000000	0.000000
42.174664	18.682091	14.340258	-0.360702	0.463565	2.818832	0.000000	0.064395	0.000000	0.006197	-0.000300	0.000000	0.000000
42.723724	18.761566	14.106233	0.216609	-0.034859	2.831439	0.000000	-0.019308	0.000000	0.005978	-0.000497	0.000000	0.000000
43.022297	18.664870	14.112434	0.153710	-0.020942	2.827913	0.000000	-0.012286	0.000000	0.005834	-0.000482	0.000000	0.000000
43.502297	18.529944	14.148872	0.127386	-0.054970	2.822247	0.000000	-0.012286	0.000000	0.005603	-0.000482	0.000000	0.000000
43.982297	18.420289	14.217976	0.101062	-0.088997	2.816581	0.000000	-0.012286	0.000000	0.005372	-0.000482	0.000000	0.000000
44.462297	18.335906	14.319746	0.074737	-0.123025	2.810914	0.000000	-0.012286	0.000000	0.005140	-0.000482	0.000000	0.000000
44.942297	18.276794	14.454183	0.048413	-0.157052	2.805248	0.000000	-0.012286	0.000000	0.004909	-0.000482	0.000000	0.000000
45.423547	18.243124	14.621583	-0.068367	-0.118724	2.799584	0.000000	0.001584	0.000000	0.004678	-0.000458	0.000000	0.000000
45.720870	18.288657	14.698304	-0.130686	-0.102515	2.800192	0.000000	0.008619	0.000000	0.004541	-0.000447	0.000000	0.000000
46.269930	18.123985	15.094833	0.428538	-0.623899	2.782494	0.000000	-0.073985	0.000000	0.004256	-0.000589	0.000000	0.000000
46.818990	17.358220	16.084835	0.957476	-1.189724	2.719803	0.000000	-0.155285	0.000000	0.003896	-0.000721	0.000000	0.000000
47.368050	16.045478	17.738822	1.418758	-1.840298	2.613226	0.000000	-0.233843	0.000000	0.003467	-0.000841	0.000000	0.000000
47.917110	14.278522	20.174604	1.779798	-2.621959	2.464647	0.000000	-0.308267	0.000000	0.002976	-0.000945	0.000000	0.000000
48.363070	12.902442	22.339662	1.316321	-2.212295	2.342930	0.000000	-0.239616	0.000000	0.002571	-0.000873	0.000000	0.000000
48.804030	11.921283	24.072955	0.916797	-1.703338	2.252158	0.000000	-0.174094	0.000000	0.002200	-0.000812	0.000000	0.000000
49.244990	11.272768	25.321344	0.559168	-1.116879	2.189793	0.000000	-0.110546	0.000000	0.001853	-0.000759	0.000000	0.000000
49.685950	10.927257	26.028035	0.227094	-0.479602	2.155129	0.000000	-0.048248	0.000000	0.001529	-0.000716	0.000000	0.000000
50.128160	10.869129	26.160587	-0.068371	0.116287	2.147785	0.000000	0.008301	0.000000	0.001220	-0.000683	0.000000	0.000000
50.425482	10.917956	26.094862	-0.095853	0.104768	2.150456	0.000000	0.008301	0.000000	0.001017	-0.000683	0.000000	0.000000
50.758816	10.992129	26.029322	-0.126665	0.091854	2.153451	0.000000	0.008301	0.000000	0.000789	-0.000683	0.000000	0.000000
51.092149	11.086843	25.972390	-0.157476	0.078940	2.156446	0.000000	0.008301	0.000000	0.000561	-0.000683	0.000000	0.000000
51.426732	11.202341	25.924429	-0.097522	-0.144334	2.159430	0.000000	-0.009218	0.000000	0.000333	-0.000686	0.000000	0.000000
51.724055	11.268298	26.013738	-0.096716	-0.220012	2.156893	0.000000	-0.014500	0.000000	0.000129	-0.000686	0.000000	0.000000
52.165015	11.500331	25.918202	-0.431703	0.435841	2.164453	0.000000	0.047491	0.000000	-0.000174	-0.000687	0.000000	0.000000
52.605975	12.035335	25.250829	-0.786408	1.071862	2.199445	0.000000	0.110030	0.000000	-0.000478	-0.000695	0.000000	0.000000
53.046935	12.897747	24.041990	-1.177036	1.659111	2.262270	0.000000	0.173830	0.000000	-0.000788	-0.000712	0.000000	0.000000
53.487895	14.126957	22.346692	-1.621431	2.170872	2.353647	0.000000	0.239617	0.000000	-0.001107	-0.000736	0.000000	0.000000
53.933855	15.800132	20.216743	-2.144171	2.585175	2.476133	0.000000	0.308538	0.000000	-0.001442	-0.000769	0.000000	0.000000
54.482915	17.953807	17.819604	-1.755537	1.806594	2.625615	0.000000	0.233742	0.000000	-0.001850	-0.000716	0.000000	0.000000
55.031975	19.609695	16.202178	-1.242924	1.156689	2.732795	0.000000	0.154789	0.000000	-0.002226	-0.000650	0.000000	0.000000
55.581035	20.650862	15.249253	-0.642538	0.589170	2.795765	0.000000	0.073080	0.000000	-0.002562	-0.000572	0.000000	0.000000
56.130095	21.003791	14.892951	0.003216	0.063617	2.813405	0.000000	-0.009934	0.000000	-0.002852	-0.000484	0.000000	0.000000
56.428668	21.039670	14.837168	-0.067221	0.083292	2.812832	0.000000	-0.002409	0.000000	-0.002999	-0.000492	0.000000	0.000000
56.762001	21.089789	14.789180	-0.083135	0.060670	2.812193	0.000000	-0.002409	0.000000	-0.003163	-0.000492	0.000000	0.000000
57.095334	21.150517	14.756275	-0.099050	0.038048	2.811554	0.000000	-0.002409	0.000000	-0.003327	-0.000492	0.000000	0.000000
57.429918	21.222143	14.738412	-0.115024	0.015341	2.810913	0.000000	-0.002409	0.000000	-0.003492	-0.000492	0.000000	0.000000
57.727240	21.294771	14.735283	-0.186538	0.034721	2.810343	0.000000	0.005156	0.000000	-0.003638	-0.000502	0.000000	0.000000
58.276300	21.135618	14.979670	0.474434	-0.482473	2.790626	0.000000	-0.077724	0.000000	-0.003880	-0.000380	0.000000	0.000000
58.825360	20.264913	15.807388	1.101892	-1.034027	2.725650	0.000000	-0.159230	0.000000	-0.004054	-0.000251	0.000000	0.000000
59.374420	18.744153	17.277381	1.651525	-1.659223	2.616564	0.000000	-0.237917	0.000000	-0.004155	-0.000118	0.000000	0.000000
59.923480	16.680734	19.494341	2.084522	-2.402587	2.465303	0.000000	-0.312387	0.000000	-0.004183	0.000017	0.000000	0.000000
60.369440	15.064471	21.464562	1.552650	-1.996841	2.341374	0.000000	-0.243781	0.000000	-0.004200	-0.000092	0.000000	0.000000
60.810400	13.901028	23.013007	1.095888	-1.501543	2.248462	0.000000	-0.178337	0.000000	-0.004265	-0.000201	0.000000	0.000000
61.251360	13.116860	24.092761	0.689188	-0.937935	2.183979	0.000000	-0.114921	0.000000	-0.004378	-0.000312	0.000000	0.000000
61.692320	12.676147	24.654703	0.313971	-0.331658	2.147193	0.000000	-0.052811	0.000000	-0.004541	-0.000427	0.000000	0.000000
62.134530	12.558801	24.672689	-0.014835	0.226654	2.137691	0.000000	0.003227	0.000000	-0.004756	-0.000535	0.000000	0.000000
62.431853	12.574663	24.541677	-0.038514	0.213985	2.138810	0.000000	0.003227	0.000000	-0.004915	-0.000535	0.000000	0.000000
62.765186	12.609189	24.403755	-0.065062	0.199780	2.140064	0.000000	0.003227	0.000000	-0.005094	-0.000535	0.000000	0.000000
63.098520	12.661413	24.275303	-0.091610	0.185576	2.141318	0.000000	0.003227	0.000000	-0.005272	-0.000535	0.000000	0.000000
63.433103	12.731631	24.155892	-0.118257	0.171319	2.142577	0.000000	0.003227	0.000000	-0.005451	-0.000535	0.000000	0.000000
63.730426	12.808980	24.057807	-0.108884	0.096387	2.143695	0.000000	-0.002304	0.000000	-0.005610	-0.000521	0.000000	0.000000
64.171386	13.067314	23.707971	-0.479449	0.694010	2.156526	0.000000	0.059405	0.000000	-0.005873	-0.000669	0.000000	0.000000
64.612346	13.660780	22.843088	-0.871906	1.260059	2.196755	0.000000	0.121799	0.000000	-0.006202	-0.000825	0.000000	0.000000
65.053306	14.616475	21.502510	-1.304181	1.768784	2.264843	0.000000	0.185588	0.000000	-0.006601	-0.000990	0.000000	0.000000
65.494266	15.978035	19.747230	-1.796015	2.197043	2.361571	0.000000	0.251501	0.000000	-0.007076	-0.001166	0.000000	0.000000
65.940226	17.830928	17.632263	-2.374404	2.525938	2.489622	0.000000	0.320668	0.000000	-0.007638	-0.001357	0.000000	0.000000
66.489286	20.203647	15.266785	-1.922589	1.808210	2.645871	0.000000	0.245342	0.000000	-0.008313	-0.001098	0.000000	0.000000
67.038346	22.002391	13.614480	-1.335043	1.219252	2.759360	0.000000	0.165647	0.000000	-0.008841	-0.000821	0.000000	0.000000
67.587406	23.100200	12.557670	-0.653249	0.717120	2.828070	0.000000	0.083001	0.000000	-0.009212	-0.000528	0.000000	0.000000
68.136466	23.419591	12.021086	0.074657	0.266055	2.850776	0.000000	-0.001125	0.000000	-0.009419	-0.000226	0.000000	0.000000
68.435038	23.418109	11.850104	-0.003994	0.272848	2.852907	0.000000	0.006897	0.000000	-0.009494	-0.000252	0.000000	0.000000
68.768372	23.425517	11.678280	-0.018229	0.242625	2.855290	0.000000	0.006897	0.000000	-0.009578	-0.000252	0.000000	0.000000
69.101705	23.442414	11.526605	-0.032463	0.212401	2.857673	0.000000	0.006897	0.000000	-0.009662	-0.000252	0.000000	0.000000
69.436288	23.468917	11.394623	-0.046750	0.182065	2.860065	0.000000	0.006897	0.000000	-0.009747	-0.000252	0.000000	0.000000
69.733611	23.500559	11.294342	-0.125769	0.186938	2.862194	0.000000	0.014974	0.000000	-0.009821	-0.000279	0.000000	0.000000
70.282671	23.235109	11.315503	0.606358	-0.225710	2.847228	0.000000	-0.069646	0.000000	-0.009887	0.000041	0.000000	0.000000
