#ParticleID	Turn	x[m]	xp	y[m]	yp	z[m]	dE[GeV]# s	beta_x	beta_y	alpha_x	alpha_y	D_x	D_y	D_px	D_py	orbit_x	orbit_px	orbit_y	orbit_py
0.300000	11.952796	25.226877	-0.015371	-0.024306	2.600384	0.000000	-0.001068	0.000000	-0.001192	0.001012	0.000000	0.000000
0.601250	11.969651	25.245122	-0.040580	-0.036255	2.599757	0.000000	-0.001068	0.000000	-0.000887	0.001012	0.000000	0.000000
0.898573	12.001179	25.270187	-0.035867	-0.109995	2.599139	0.000000	-0.007477	0.000000	-0.000586	0.001013	0.000000	0.000000
1.339533	12.186562	25.086774	-0.385789	0.524355	2.611597	0.000000	0.065977	0.000000	-0.000142	0.001004	0.000000	0.000000
1.780493	12.687134	24.352334	-0.753345	1.134851	2.656580	0.000000	0.140172	0.000000	0.000300	0.001006	0.000000	0.000000
2.221453	13.525775	23.100275	-1.155328	1.693716	2.734596	0.000000	0.215953	0.000000	0.000746	0.001019	0.000000	0.000000
2.662413	14.740813	21.387554	-1.610104	2.175519	2.846530	0.000000	0.294182	0.000000	0.001201	0.001044	0.000000	0.000000
3.108373	16.408774	19.266986	-2.142821	2.559517	2.995489	0.000000	0.376243	0.000000	0.001674	0.001081	0.000000	0.000000
3.657433	18.546761	16.884944	-1.727391	1.804368	3.176492	0.000000	0.284095	0.000000	0.002252	0.001018	0.000000	0.000000
4.206493	20.158435	15.257135	-1.189914	1.177743	3.305483	0.000000	0.186925	0.000000	0.002789	0.000936	0.000000	0.000000
4.755553	21.129915	14.267623	-0.568359	0.635009	3.380182	0.000000	0.086453	0.000000	0.003277	0.000838	0.000000	0.000000
5.304613	21.392544	13.845934	0.093366	0.137506	3.399271	0.000000	-0.015539	0.000000	0.003706	0.000725	0.000000	0.000000
5.603185	21.373288	13.749619	0.025244	0.150199	3.396980	0.000000	-0.006935	0.000000	0.003926	0.000734	0.000000	0.000000
5.936519	21.361660	13.657750	0.009638	0.125409	3.394424	0.000000	-0.006935	0.000000	0.004170	0.000734	0.000000	0.000000
6.269852	21.360437	13.582408	-0.005967	0.100619	3.391867	0.000000	-0.006935	0.000000	0.004415	0.000734	0.000000	0.000000
6.604435	21.369671	13.523403	-0.021632	0.075736	3.389301	0.000000	-0.006935	0.000000	0.004661	0.000734	0.000000	0.000000
6.901758	21.386688	13.484932	-0.089114	0.087543	3.387022	0.000000	0.001548	0.000000	0.004879	0.000747	0.000000	0.000000
7.450818	21.120001	13.650477	0.572324	-0.390809	3.359626	0.000000	-0.099917	0.000000	0.005245	0.000583	0.000000	0.000000
7.999878	20.144858	14.353468	1.193339	-0.897004	3.277012	0.000000	-0.199600	0.000000	0.005517	0.000408	0.000000	0.000000
8.548938	18.530149	15.643990	1.730051	-1.467103	3.140649	0.000000	-0.295735	0.000000	0.005692	0.000227	0.000000	0.000000
9.097998	16.389959	17.613981	2.144536	-2.141718	2.952960	0.000000	-0.386620	0.000000	0.005766	0.000041	0.000000	0.000000
9.543958	14.720594	19.369106	1.611836	-1.776934	2.798610	0.000000	-0.305706	0.000000	0.005817	0.000191	0.000000	0.000000
9.984918	13.504098	20.745669	1.157251	-1.332664	2.680757	0.000000	-0.228775	0.000000	0.005935	0.000343	0.000000	0.000000
10.425878	12.663815	21.702046	0.755548	-0.827749	2.596157	0.000000	-0.154455	0.000000	0.006121	0.000498	0.000000	0.000000
10.866838	12.161345	22.194715	0.388370	-0.285163	2.543845	0.000000	-0.081899	0.000000	0.006376	0.000659	0.000000	0.000000
11.309048	11.973578	22.200673	0.066301	0.219151	2.523203	0.000000	-0.016072	0.000000	0.006704	0.000812	0.000000	0.000000
11.606371	11.941568	22.074529	0.041360	0.205115	2.518183	0.000000	-0.016072	0.000000	0.006946	0.000812	0.000000	0.000000
12.086371	11.921189	21.888495	0.001095	0.182456	2.510079	0.000000	-0.016072	0.000000	0.007336	0.000812	0.000000	0.000000
12.566371	11.939465	21.724213	-0.039169	0.159796	2.501974	0.000000	-0.016072	0.000000	0.007725	0.000812	0.000000	0.000000
13.046371	11.996394	21.581685	-0.079434	0.137137	2.493870	0.000000	-0.016072	0.000000	0.008115	0.000812	0.000000	0.000000
13.526371	12.091977	21.460910	-0.119698	0.114478	2.485765	0.000000	-0.016072	0.000000	0.008505	0.000812	0.000000	0.000000
14.007621	12.226615	21.361659	-0.160067	0.091759	2.477640	0.000000	-0.016072	0.000000	0.008896	0.000812	0.000000	0.000000
14.304943	12.329183	21.311320	-0.157450	0.030321	2.472616	0.000000	-0.021599	0.000000	0.009137	0.000791	0.000000	0.000000
14.745903	12.626365	21.051402	-0.518636	0.556792	2.478161	0.000000	0.048522	0.000000	0.009539	0.001031	0.000000	0.000000
15.186863	13.251391	20.336555	-0.903534	1.057926	2.514616	0.000000	0.119186	0.000000	0.010049	0.001284	0.000000	0.000000
15.627823	14.232845	19.199301	-1.329742	1.510916	2.582392	0.000000	0.191193	0.000000	0.010673	0.001551	0.000000	0.000000
16.068783	15.615613	17.691387	-1.816743	1.895142	2.682256	0.000000	0.265363	0.000000	0.011420	0.001836	0.000000	0.000000
16.514743	17.486592	15.859714	-2.391783	2.194114	2.817025	0.000000	0.343031	0.000000	0.012306	0.002144	0.000000	0.000000
17.063803	19.889336	13.815065	-1.956547	1.551088	2.980979	0.000000	0.256912	0.000000	0.013371	0.001728	0.000000	0.000000
17.612863	21.734735	12.412169	-1.382995	1.018577	3.096555	0.000000	0.166262	0.000000	0.014198	0.001281	0.000000	0.000000
18.161923	22.892294	11.551086	-0.711668	0.558642	3.161712	0.000000	0.072682	0.000000	0.014774	0.000811	0.000000	0.000000
18.710983	23.280150	11.170472	0.009978	0.138512	3.175302	0.000000	-0.022174	0.000000	0.015087	0.000328	0.000000	0.000000
19.009556	23.309422	11.080925	-0.055704	0.136362	3.170714	0.000000	-0.014968	0.000000	0.015196	0.000364	0.000000	0.000000
19.342889	23.351339	11.000231	-0.070048	0.105721	3.165603	0.000000	-0.014968	0.000000	0.015317	0.000364	0.000000	0.000000
19.676223	23.402819	10.939964	-0.084393	0.075080	3.160492	0.000000	-0.014968	0.000000	0.015439	0.000364	0.000000	0.000000
20.010806	23.464401	10.899878	-0.215047	0.098328	3.155382	0.000000	0.000666	0.000000	0.015561	0.000442	0.000000	0.000000
20.308129	23.596390	10.849518	-0.281508	0.095329	3.155460	0.000000	0.007780	0.000000	0.015692	0.000480	0.000000	0.000000
20.857189	23.498769	10.965073	0.458363	-0.306984	3.133748	0.000000	-0.086303	0.000000	0.015815	-0.000031	0.000000	0.000000
21.406249	22.601366	11.531865	1.165836	-0.731173	3.060981	0.000000	-0.178856	0.000000	0.015658	-0.000541	0.000000	0.000000
21.955309	20.967638	12.590278	1.790892	-1.207463	2.938447	0.000000	-0.268243	0.000000	0.015223	-0.001041	0.000000	0.000000
22.504369	18.713109	14.215720	2.289344	-1.769791	2.768317	0.000000	-0.352888	0.000000	0.014518	-0.001523	0.000000	0.000000
22.950329	16.938347	15.675794	1.702552	-1.489534	2.628578	0.000000	-0.276534	0.000000	0.013921	-0.001154	0.000000	0.000000
23.391289	15.663440	16.841124	1.198605	-1.142601	2.523165	0.000000	-0.203815	0.000000	0.013491	-0.000801	0.000000	0.000000
23.832249	14.807387	17.676229	0.749458	-0.743663	2.449138	0.000000	-0.133409	0.000000	0.013214	-0.000456	0.000000	0.000000
24.273209	14.331037	18.143104	0.334576	-0.310878	2.405654	0.000000	-0.064518	0.000000	0.013087	-0.000117	0.000000	0.000000
24.715418	14.212765	18.220167	-0.034713	0.096979	2.392223	0.000000	-0.001476	0.000000	0.013110	0.000190	0.000000	0.000000
25.012741	14.239634	18.167397	-0.055657	0.080507	2.391728	0.000000	-0.001476	0.000000	0.013167	0.000190	0.000000	0.000000
25.346075	14.284566	18.119881	-0.079139	0.062040	2.391173	0.000000	-0.001476	0.000000	0.013230	0.000190	0.000000	0.000000
25.679408	14.345152	18.084676	-0.102620	0.043574	2.390617	0.000000	-0.001476	0.000000	0.013294	0.000190	0.000000	0.000000
26.013991	14.421415	18.062086	-0.009193	-0.121491	2.390036	0.000000	-0.020866	0.000000	0.013357	0.000082	0.000000	0.000000
26.311314	14.432937	18.139392	0.000947	-0.176840	2.383801	0.000000	-0.025946	0.000000	0.013382	0.000051	0.000000	0.000000
26.752274	14.610610	18.098801	-0.405230	0.268523	2.387213	0.000000	0.041865	0.000000	0.013480	0.000398	0.000000	0.000000
27.193234	15.153421	17.669269	-0.829935	0.701666	2.420460	0.000000	0.110149	0.000000	0.013733	0.000748	0.000000	0.000000
27.634194	16.086197	16.870340	-1.292587	1.102872	2.483919	0.000000	0.179680	0.000000	0.014142	0.001108	0.000000	0.000000
28.075154	17.451604	15.738371	-1.814341	1.453881	2.578311	0.000000	0.251246	0.000000	0.014712	0.001480	0.000000	0.000000
28.521114	19.336166	14.307599	-2.424295	1.739924	2.706314	0.000000	0.326146	0.000000	0.015459	0.001871	0.000000	0.000000
29.070174	21.732950	12.714179	-1.913146	1.178634	2.862179	0.000000	0.243739	0.000000	0.016346	0.001356	0.000000	0.000000
29.619234	23.490108	11.687781	-1.266736	0.701330	2.971817	0.000000	0.157030	0.000000	0.016944	0.000816	0.000000	0.000000
30.168294	24.483374	11.155280	-0.530767	0.274001	3.033292	0.000000	0.067547	0.000000	0.017240	0.000262	0.000000	0.000000
30.717354	24.642500	11.078736	0.242727	-0.133803	3.045515	0.000000	-0.023131	0.000000	0.017231	-0.000296	0.000000	0.000000
31.015927	24.533728	11.152170	0.175521	-0.136449	3.040688	0.000000	-0.016376	0.000000	0.017155	-0.000254	0.000000	0.000000
31.349260	24.421382	11.253284	0.161516	-0.166895	3.035314	0.000000	-0.016376	0.000000	0.017070	-0.000254	0.000000	0.000000
31.682593	24.318373	11.374696	0.147511	-0.197341	3.029941	0.000000	-0.016376	0.000000	0.016985	-0.000254	0.000000	0.000000
32.017177	24.224367	11.516975	0.133453	-0.227901	3.024547	0.000000	-0.016376	0.000000	0.016900	-0.000254	0.000000	0.000000
32.314499	24.148925	11.660472	0.067154	-0.229115	3.019766	0.000000	-0.009647	0.000000	0.016825	-0.000214	0.000000	0.000000
32.863559	23.661583	12.150229	0.814639	-0.667930	2.990087	0.000000	-0.099206	0.000000	0.016558	-0.000755	0.000000	0.000000
33.412619	22.379965	13.145123	1.504524	-1.154340	2.911913	0.000000	-0.187016	0.000000	0.015998	-0.001282	0.000000	0.000000
33.961679	20.394714	14.716035	2.088035	-1.723004	2.786625	0.000000	-0.271529	0.000000	0.015154	-0.001787	0.000000	0.000000
34.510739	17.846226	16.974879	2.523923	-2.414439	2.616436	0.000000	-0.351252	0.000000	0.014041	-0.002260	0.000000	0.000000
34.956699	15.866260	18.995837	1.929606	-2.097260	2.476872	0.000000	-0.278846	0.000000	0.013112	-0.001908	0.000000	0.000000
35.397659	14.390360	20.670647	1.428736	-1.685689	2.369901	0.000000	-0.210062	0.000000	0.012344	-0.001580	0.000000	0.000000
35.838619	13.325993	21.947051	0.993190	-1.197397	2.292580	0.000000	-0.143655	0.000000	0.011716	-0.001269	0.000000	0.000000
36.279579	12.624476	22.766967	0.603053	-0.654611	2.244034	0.000000	-0.078870	0.000000	0.011222	-0.000974	0.000000	0.000000
36.721789	12.253100	23.093342	0.267256	-0.132520	2.223694	0.000000	-0.019851	0.000000	0.010855	-0.000714	0.000000	0.000000
37.019112	12.101907	23.176040	0.241258	-0.145621	2.218004	0.000000	-0.019851	0.000000	0.010643	-0.000714	0.000000	0.000000
37.352445	11.950784	23.278016	0.212111	-0.160309	2.211625	0.000000	-0.019851	0.000000	0.010405	-0.000714	0.000000	0.000000
37.685779	11.819093	23.389785	0.182964	-0.174996	2.205246	0.000000	-0.019851	0.000000	0.010166	-0.000714	0.000000	0.000000
38.020362	11.706448	23.511819	0.153707	-0.189739	2.198843	0.000000	-0.019851	0.000000	0.009927	-0.000714	0.000000	0.000000
38.317684	11.622744	23.628607	0.153529	-0.255570	2.193150	0.000000	-0.024723	0.000000	0.009715	-0.000737	0.000000	0.000000
38.758644	11.636207	23.592209	-0.184375	0.337788	2.196372	0.000000	0.038162	0.000000	0.009445	-0.000490	0.000000	0.000000
39.199604	11.950323	23.037253	-0.530702	0.915771	2.227295	0.000000	0.101488	0.000000	0.009282	-0.000249	0.000000	0.000000
39.640564	12.579447	21.988999	-0.901283	1.452076	2.286271	0.000000	0.165972	0.000000	0.009225	-0.000010	0.000000	0.000000
40.081524	13.552338	20.495155	-1.313058	1.922294	2.373974	0.000000	0.232347	0.000000	0.009273	0.000228	0.000000	0.000000
40.527484	14.931071	18.600980	-1.788829	2.306554	2.492886	0.000000	0.301800	0.000000	0.009429	0.000471	0.000000	0.000000
41.076544	16.693104	16.472156	-1.400770	1.593023	2.637987	0.000000	0.226504	0.000000	0.009604	0.000163	0.000000	0.000000
41.625604	17.971647	15.060420	-0.913724	0.992990	2.740740	0.000000	0.147193	0.000000	0.009607	-0.000149	0.000000	0.000000
42.174664	18.676340	14.265193	-0.362114	0.463705	2.799321	0.000000	0.065267	0.000000	0.009441	-0.000457	0.000000	0.000000
42.723724	18.757385	14.029816	0.215076	-0.032540	2.812687	0.000000	-0.017824	0.000000	0.009107	-0.000758	0.000000	0.000000
43.022297	18.660774	14.035363	0.153523	-0.019874	2.809604	0.000000	-0.011050	0.000000	0.008887	-0.000735	0.000000	0.000000
43.502297	18.526029	14.070865	0.127194	-0.054087	2.804653	0.000000	-0.011050	0.000000	0.008535	-0.000735	0.000000	0.000000
43.982297	18.416560	14.139210	0.100866	-0.088300	2.799702	0.000000	-0.011050	0.000000	0.008182	-0.000735	0.000000	0.000000
44.462297	18.332367	14.240400	0.074537	-0.122512	2.794751	0.000000	-0.011050	0.000000	0.007829	-0.000735	0.000000	0.000000
44.942297	18.273449	14.374434	0.048208	-0.156725	2.789799	0.000000	-0.011050	0.000000	0.007477	-0.000735	0.000000	0.000000
45.423547	18.239978	14.541610	-0.068560	-0.118979	2.784852	0.000000	0.002748	0.000000	0.007123	-0.000700	0.000000	0.000000
45.720870	18.285642	14.618505	-0.129897	-0.103918	2.785879	0.000000	0.009598	0.000000	0.006915	-0.000682	0.000000	0.000000
46.269930	18.120062	15.015314	0.429239	-0.622985	2.768985	0.000000	-0.072561	0.000000	0.006480	-0.000899	0.000000	0.000000
46.818990	17.353481	16.003049	0.958032	-1.186431	2.707371	0.000000	-0.153447	0.000000	0.005931	-0.001100	0.000000	0.000000
47.368050	16.040088	17.652062	1.419117	-1.834393	2.602122	0.000000	-0.231629	0.000000	0.005276	-0.001282	0.000000	0.000000
47.917110	14.272709	20.079803	1.779919	-2.613027	2.455097	0.000000	-0.305723	0.000000	0.004527	-0.001441	0.000000	0.000000
48.363070	12.896385	22.237972	1.316492	-2.205747	2.334666	0.000000	-0.237297	0.000000	0.003910	-0.001331	0.000000	0.000000
48.804030	11.914949	23.966700	0.917058	-1.699502	2.245058	0.000000	-0.171971	0.000000	0.003344	-0.001238	0.000000	0.000000
49.244990	11.266087	25.212990	0.559536	-1.115927	2.183766	0.000000	-0.108591	0.000000	0.002816	-0.001158	0.000000	0.000000
49.685950	10.920138	25.920144	0.227590	-0.481579	2.150097	0.000000	-0.046435	0.000000	0.002320	-0.001092	0.000000	0.000000
50.128160	10.861455	26.055712	-0.067899	0.112241	2.143686	0.000000	0.010039	0.000000	0.001850	-0.001043	0.000000	0.000000
50.425482	10.910007	25.992404	-0.095400	0.100686	2.146981	0.000000	0.010039	0.000000	0.001540	-0.001043	0.000000	0.000000
50.758816	10.983884	25.929598	-0.126231	0.087732	2.150675	0.000000	0.010039	0.000000	0.001192	-0.001043	0.000000	0.000000
51.092149	11.078315	25.875429	-0.157062	0.074778	2.154369	0.000000	0.010039	0.000000	0.000845	-0.001043	0.000000	0.000000
51.426732	11.193543	25.830264	-0.097199	-0.147773	2.158055	0.000000	-0.007468	0.000000	0.000496	-0.001047	0.000000	0.000000
51.724055	11.259314	25.921634	-0.096449	-0.223379	2.156146	0.000000	-0.012746	0.000000	0.000185	-0.001047	0.000000	0.000000
52.165015	11.490969	25.830132	-0.431225	0.430096	2.164631	0.000000	0.049237	0.000000	-0.000277	-0.001048	0.000000	0.000000
52.605975	12.025396	25.168784	-0.785695	1.063998	2.200551	0.000000	0.111793	0.000000	-0.000742	-0.001062	0.000000	0.000000
53.046935	12.887001	23.967691	-1.176052	1.649486	2.264319	0.000000	0.175633	0.000000	-0.001215	-0.001087	0.000000	0.000000
53.487895	14.115135	22.281512	-1.620128	2.159923	2.356667	0.000000	0.241486	0.000000	-0.001702	-0.001124	0.000000	0.000000
53.933855	15.786891	20.161757	-2.142464	2.573385	2.480176	0.000000	0.310495	0.000000	-0.002214	-0.001175	0.000000	0.000000
54.482915	17.938777	17.776162	-1.754238	1.797286	2.630900	0.000000	0.235551	0.000000	-0.002838	-0.001093	0.000000	0.000000
55.031975	19.593383	16.167928	-1.242138	1.149200	2.739211	0.000000	0.156412	0.000000	-0.003411	-0.000992	0.000000	0.000000
55.581035	20.633880	15.222495	-0.642332	0.582965	2.803182	0.000000	0.074482	0.000000	-0.003924	-0.000873	0.000000	0.000000
56.130095	20.986815	14.872514	0.002820	0.058253	2.821670	0.000000	-0.008782	0.000000	-0.004367	-0.000739	0.000000	0.000000
56.428668	21.023309	14.819653	-0.068268	0.078402	2.821552	0.000000	-0.001143	0.000000	-0.004591	-0.000751	0.000000	0.000000
56.762001	21.074131	14.774928	-0.084197	0.055771	2.821422	0.000000	-0.001143	0.000000	-0.004842	-0.000751	0.000000	0.000000
57.095334	21.135572	14.745291	-0.100127	0.033141	2.821291	0.000000	-0.001143	0.000000	-0.005092	-0.000751	0.000000	0.000000
57.429918	21.207923	14.730715	-0.116116	0.010425	2.821159	0.000000	-0.001143	0.000000	-0.005343	-0.000751	0.000000	0.000000
57.727240	21.281215	14.730504	-0.188480	0.030336	2.821044	0.000000	0.006566	0.000000	-0.005566	-0.000765	0.000000	0.000000
58.276300	21.124377	14.979663	0.472052	-0.486844	2.802128	0.000000	-0.076668	0.000000	-0.005936	-0.000579	0.000000	0.000000
58.825360	20.256426	15.812289	1.099237	-1.038694	2.737718	0.000000	-0.158551	0.000000	-0.006200	-0.000383	0.000000	0.000000
59.374420	18.738661	17.287670	1.648791	-1.664512	2.628952	0.000000	-0.237629	0.000000	-0.006354	-0.000179	0.000000	0.000000
59.923480	16.678254	19.510875	2.081909	-2.408867	2.477758	0.000000	-0.312496	0.000000	-0.006396	0.000027	0.000000	0.000000
60.369440	15.064169	21.486723	1.550384	-2.003176	2.353859	0.000000	-0.243578	0.000000	-0.006421	-0.000139	0.000000	0.000000
60.810400	13.902659	23.040600	1.093809	-1.507592	2.261142	0.000000	-0.177813	0.000000	-0.006519	-0.000306	0.000000	0.000000
61.251360	13.120281	24.125428	0.687196	-0.943429	2.197022	0.000000	-0.114070	0.000000	-0.006691	-0.000476	0.000000	0.000000
61.692320	12.681303	24.691859	0.311975	-0.336349	2.160769	0.000000	-0.051621	0.000000	-0.006939	-0.000651	0.000000	0.000000
62.134530	12.565731	24.713539	-0.016199	0.221583	2.151982	0.000000	0.004615	0.000000	-0.007267	-0.000816	0.000000	0.000000
62.431853	12.582400	24.585529	-0.039866	0.208961	2.153597	0.000000	0.004615	0.000000	-0.007510	-0.000816	0.000000	0.000000
62.765186	12.617823	24.450938	-0.066401	0.194811	2.155407	0.000000	0.004615	0.000000	-0.007782	-0.000816	0.000000	0.000000
63.098520	12.670935	24.325780	-0.092935	0.180661	2.157217	0.000000	0.004615	0.000000	-0.008054	-0.000816	0.000000	0.000000
63.433103	12.742035	24.209640	-0.119568	0.166458	2.159034	0.000000	0.004615	0.000000	-0.008327	-0.000816	0.000000	0.000000
63.730426	12.820145	24.114461	-0.109310	0.089738	2.160647	0.000000	-0.001103	0.000000	-0.008570	-0.000794	0.000000	0.000000
64.171386	13.078896	23.769797	-0.480115	0.689009	2.174236	0.000000	0.061048	0.000000	-0.008970	-0.001020	0.000000	0.000000
64.612346	13.672972	22.908550	-0.872838	1.256934	2.215456	0.000000	0.123906	0.000000	-0.009471	-0.001258	0.000000	0.000000
65.053306	14.629488	21.569908	-1.305412	1.767680	2.284782	0.000000	0.188188	0.000000	-0.010081	-0.001510	0.000000	0.000000
65.494266	15.992104	19.814775	-1.797586	2.198018	2.383006	0.000000	0.254628	0.000000	-0.010806	-0.001779	0.000000	0.000000
65.940226	17.846401	17.698059	-2.376272	2.528898	2.512862	0.000000	0.324354	0.000000	-0.011663	-0.002071	0.000000	0.000000
66.489286	20.220633	15.330366	-1.924065	1.809562	2.671257	0.000000	0.248251	0.000000	-0.012693	-0.001676	0.000000	0.000000
67.038346	22.020472	13.677522	-1.336060	1.219080	2.786375	0.000000	0.167719	0.000000	-0.013498	-0.001252	0.000000	0.000000
67.587406	23.118926	12.621813	-0.653764	0.715402	2.856165	0.000000	0.084194	0.000000	-0.014063	-0.000805	0.000000	0.000000
68.136466	23.438503	12.088054	0.074664	0.262664	2.879381	0.000000	-0.000838	0.000000	-0.014379	-0.000345	0.000000	0.000000
68.435038	23.438388	11.918228	-0.006416	0.271073	2.881744	0.000000	0.007558	0.000000	-0.014494	-0.000384	0.000000	0.000000
68.768372	23.447407	11.747520	-0.020639	0.241050	2.884391	0.000000	0.007558	0.000000	-0.014622	-0.000384	0.000000	0.000000
69.101705	23.465907	11.596828	-0.034861	0.211026	2.887039	0.000000	0.007558	0.000000	-0.014751	-0.000384	0.000000	0.000000
69.436288	23.494011	11.465699	-0.049137	0.180890	2.889696	0.000000	0.007558	0.000000	-0.014879	-0.000384	0.000000	0.000000
69.733611	23.527157	11.366021	-0.130706	0.187324	2.892067	0.000000	0.016025	0.000000	-0.014993	-0.000426	0.000000	0.000000
70.282671	23.266652	11.387839	0.602334	-0.227304	2.877450	0.000000	-0.069554	0.000000	-0.015094	0.000061	0.000000	0.000000
