#ParticleID	Turn	x[m]	xp	y[m]	yp	z[m]	dE[GeV]# s	beta_x	beta_y	alpha_x	alpha_y	D_x	D_y	D_px	D_py	orbit_x	orbit_px	orbit_y	orbit_py
0.300000	11.958989	25.262423	-0.016590	-0.023492	2.599425	0.000000	-0.000704	0.000000	-0.001146	0.000977	0.000000	0.000000
0.601250	11.976575	25.280171	-0.041788	-0.035424	2.598918	0.000000	-0.000704	0.000000	-0.000852	0.000977	0.000000	0.000000
0.898573	12.008818	25.304737	-0.037051	-0.109229	2.598418	0.000000	-0.007109	0.000000	-0.000561	0.000979	0.000000	0.000000
1.339533	12.195326	25.120249	-0.387179	0.526018	2.611050	0.000000	0.066328	0.000000	-0.000132	0.000970	0.000000	0.000000
1.780493	12.697232	24.383973	-0.755003	1.137336	2.656199	0.000000	0.140512	0.000000	0.000296	0.000972	0.000000	0.000000
2.221453	13.537476	23.129400	-1.157330	1.696909	2.734377	0.000000	0.216285	0.000000	0.000727	0.000985	0.000000	0.000000
2.662413	14.754457	21.413604	-1.612542	2.179276	2.846471	0.000000	0.294511	0.000000	0.001166	0.001010	0.000000	0.000000
3.108373	16.424821	19.289497	-2.145809	2.563665	2.995591	0.000000	0.376572	0.000000	0.001624	0.001046	0.000000	0.000000
3.657433	18.565891	16.903444	-1.730003	1.807572	3.176791	0.000000	0.284418	0.000000	0.002182	0.000984	0.000000	0.000000
4.206493	20.180131	15.272531	-1.191969	1.180231	3.305974	0.000000	0.187235	0.000000	0.002702	0.000905	0.000000	0.000000
4.755553	21.153481	14.280598	-0.569711	0.636958	3.380854	0.000000	0.086745	0.000000	0.003173	0.000810	0.000000	0.000000
5.304613	21.417154	13.857000	0.092811	0.139055	3.400110	0.000000	-0.015271	0.000000	0.003588	0.000700	0.000000	0.000000
5.603185	21.398295	13.759717	0.024588	0.151823	3.397910	0.000000	-0.006657	0.000000	0.003800	0.000709	0.000000	0.000000
5.936519	21.387099	13.666763	0.009001	0.127039	3.395455	0.000000	-0.006657	0.000000	0.004037	0.000709	0.000000	0.000000
6.269852	21.386294	13.590331	-0.006586	0.102255	3.392999	0.000000	-0.006657	0.000000	0.004273	0.000709	0.000000	0.000000
6.604435	21.395936	13.530229	-0.022232	0.077379	3.390535	0.000000	-0.006657	0.000000	0.004510	0.000709	0.000000	0.000000
6.901758	21.413304	13.490779	-0.089840	0.089250	3.388346	0.000000	0.001841	0.000000	0.004721	0.000721	0.000000	0.000000
7.450818	21.146914	13.654529	0.572500	-0.389226	3.361111	0.000000	-0.099668	0.000000	0.005074	0.000563	0.000000	0.000000
7.999878	20.171083	14.355795	1.194404	-0.895431	3.278630	0.000000	-0.199401	0.000000	0.005338	0.000394	0.000000	0.000000
8.548938	18.554748	15.644541	1.731931	-1.465428	3.142368	0.000000	-0.295590	0.000000	0.005506	0.000218	0.000000	0.000000
9.097998	16.412108	17.612577	2.147099	-2.139821	2.954747	0.000000	-0.386531	0.000000	0.005577	0.000039	0.000000	0.000000
9.543958	14.740740	19.365950	1.613790	-1.774930	2.800449	0.000000	-0.305570	0.000000	0.005626	0.000184	0.000000	0.000000
9.984918	13.522757	20.740727	1.158687	-1.330643	2.682670	0.000000	-0.228592	0.000000	0.005740	0.000331	0.000000	0.000000
10.425878	12.681411	21.695346	0.756531	-0.825803	2.598169	0.000000	-0.154222	0.000000	0.005919	0.000481	0.000000	0.000000
10.866838	12.178256	22.186362	0.388943	-0.283381	2.545980	0.000000	-0.081613	0.000000	0.006165	0.000637	0.000000	0.000000
11.309048	11.990148	22.190848	0.066594	0.220602	2.525488	0.000000	-0.015748	0.000000	0.006482	0.000784	0.000000	0.000000
11.606371	11.957954	22.063846	0.041686	0.206551	2.520573	0.000000	-0.015748	0.000000	0.006715	0.000784	0.000000	0.000000
12.086371	11.937236	21.876445	0.001476	0.183868	2.512637	0.000000	-0.015748	0.000000	0.007092	0.000784	0.000000	0.000000
12.566371	11.955120	21.710819	-0.038734	0.161185	2.504702	0.000000	-0.015748	0.000000	0.007468	0.000784	0.000000	0.000000
13.046371	12.011606	21.566970	-0.078945	0.138502	2.496766	0.000000	-0.015748	0.000000	0.007845	0.000784	0.000000	0.000000
13.526371	12.106694	21.444896	-0.119155	0.115818	2.488831	0.000000	-0.015748	0.000000	0.008221	0.000784	0.000000	0.000000
14.007621	12.240783	21.344366	-0.159470	0.093076	2.480874	0.000000	-0.015748	0.000000	0.008599	0.000784	0.000000	0.000000
14.304943	12.342989	21.293245	-0.156697	0.031498	2.475956	0.000000	-0.021301	0.000000	0.008832	0.000764	0.000000	0.000000
14.745903	12.639630	21.032514	-0.518172	0.557456	2.481664	0.000000	0.048909	0.000000	0.009220	0.000996	0.000000	0.000000
15.186863	13.264355	20.317322	-0.903337	1.058048	2.518326	0.000000	0.119664	0.000000	0.009713	0.001240	0.000000	0.000000
15.627823	14.245736	19.180209	-1.329801	1.510489	2.586355	0.000000	0.191770	0.000000	0.010316	0.001499	0.000000	0.000000
16.068783	15.628652	17.672914	-1.817061	1.894188	2.686521	0.000000	0.266045	0.000000	0.011037	0.001774	0.000000	0.000000
16.514743	17.499999	15.842336	-2.392365	2.192662	2.821646	0.000000	0.343827	0.000000	0.011894	0.002071	0.000000	0.000000
17.063803	19.903068	13.799002	-1.956614	1.550155	2.986029	0.000000	0.257552	0.000000	0.012922	0.001669	0.000000	0.000000
17.612863	21.748227	12.396887	-1.382547	1.018096	3.101937	0.000000	0.166734	0.000000	0.013722	0.001238	0.000000	0.000000
18.161923	22.905003	11.536109	-0.710738	0.558577	3.167324	0.000000	0.072978	0.000000	0.014278	0.000784	0.000000	0.000000
18.710983	23.291594	11.155345	0.011322	0.138858	3.181036	0.000000	-0.022061	0.000000	0.014580	0.000316	0.000000	0.000000
19.009556	23.320252	11.065538	-0.054657	0.136767	3.176501	0.000000	-0.014803	0.000000	0.014685	0.000352	0.000000	0.000000
19.342889	23.361469	10.984589	-0.068993	0.106080	3.171450	0.000000	-0.014803	0.000000	0.014802	0.000352	0.000000	0.000000
19.676223	23.412243	10.924098	-0.083329	0.075393	3.166398	0.000000	-0.014803	0.000000	0.014920	0.000352	0.000000	0.000000
20.010806	23.473109	10.883818	-0.214018	0.098516	3.161347	0.000000	0.000860	0.000000	0.015038	0.000426	0.000000	0.000000
20.308129	23.604472	10.833364	-0.280782	0.095571	3.161486	0.000000	0.008028	0.000000	0.015164	0.000463	0.000000	0.000000
20.857189	23.505915	10.948403	0.459329	-0.306282	3.139861	0.000000	-0.086251	0.000000	0.015284	-0.000030	0.000000	0.000000
21.406249	22.607361	11.514146	1.166973	-0.729962	3.067064	0.000000	-0.179000	0.000000	0.015132	-0.000523	0.000000	0.000000
21.955309	20.972346	12.570902	1.792123	-1.205655	2.944385	0.000000	-0.268581	0.000000	0.014711	-0.001006	0.000000	0.000000
22.504369	18.716481	14.193961	2.290586	-1.767256	2.773996	0.000000	-0.353412	0.000000	0.014030	-0.001472	0.000000	0.000000
22.950329	16.940719	15.651993	1.703641	-1.487552	2.634038	0.000000	-0.276916	0.000000	0.013453	-0.001115	0.000000	0.000000
23.391289	15.664920	16.815840	1.199579	-1.141251	2.528474	0.000000	-0.204059	0.000000	0.013036	-0.000774	0.000000	0.000000
23.832249	14.808051	17.650051	0.750362	-0.743006	2.454360	0.000000	-0.133518	0.000000	0.012769	-0.000441	0.000000	0.000000
24.273209	14.330925	18.116661	0.335449	-0.310944	2.410854	0.000000	-0.064494	0.000000	0.012646	-0.000114	0.000000	0.000000
24.715418	14.211875	18.194110	-0.033677	0.096051	2.397464	0.000000	-0.001355	0.000000	0.012669	0.000184	0.000000	0.000000
25.012741	14.238127	18.141897	-0.054621	0.079559	2.397007	0.000000	-0.001355	0.000000	0.012723	0.000184	0.000000	0.000000
25.346075	14.282368	18.095021	-0.078102	0.061069	2.396494	0.000000	-0.001355	0.000000	0.012784	0.000184	0.000000	0.000000
25.679408	14.342264	18.060472	-0.101583	0.042579	2.395981	0.000000	-0.001355	0.000000	0.012846	0.000184	0.000000	0.000000
26.013991	14.417833	18.038556	-0.008186	-0.122318	2.395442	0.000000	-0.020788	0.000000	0.012907	0.000079	0.000000	0.000000
26.311314	14.428762	18.116354	0.002102	-0.177846	2.389232	0.000000	-0.025907	0.000000	0.012930	0.000049	0.000000	0.000000
26.752274	14.605359	18.076926	-0.403943	0.266905	2.392695	0.000000	0.042044	0.000000	0.013026	0.000384	0.000000	0.000000
27.193234	15.146949	17.649068	-0.828458	0.699508	2.426061	0.000000	0.110470	0.000000	0.013269	0.000723	0.000000	0.000000
27.634194	16.078301	16.852249	-1.290851	1.100275	2.489706	0.000000	0.180147	0.000000	0.013664	0.001070	0.000000	0.000000
28.075154	17.442013	15.722731	-1.812265	1.450963	2.584355	0.000000	0.251865	0.000000	0.014215	0.001429	0.000000	0.000000
28.521114	19.324486	14.294682	-2.421766	1.736806	2.712692	0.000000	0.326923	0.000000	0.014937	0.001808	0.000000	0.000000
29.070174	21.718574	12.704354	-1.910862	1.176111	2.868953	0.000000	0.244305	0.000000	0.015794	0.001310	0.000000	0.000000
29.619234	23.473409	11.680494	-1.264864	0.699220	2.978861	0.000000	0.157373	0.000000	0.016371	0.000789	0.000000	0.000000
30.168294	24.464892	11.150158	-0.529441	0.272154	3.040470	0.000000	0.067661	0.000000	0.016657	0.000253	0.000000	0.000000
30.717354	24.622906	11.075560	0.243411	-0.135520	3.052693	0.000000	-0.023248	0.000000	0.016648	-0.000286	0.000000	0.000000
31.015927	24.513922	11.149931	0.175895	-0.138038	3.047847	0.000000	-0.016434	0.000000	0.016575	-0.000246	0.000000	0.000000
31.349260	24.401332	11.252111	0.161876	-0.168503	3.042451	0.000000	-0.016434	0.000000	0.016493	-0.000246	0.000000	0.000000
31.682593	24.298087	11.374601	0.147858	-0.198968	3.037055	0.000000	-0.016434	0.000000	0.016411	-0.000246	0.000000	0.000000
32.017177	24.203853	11.517976	0.133787	-0.229547	3.031639	0.000000	-0.016434	0.000000	0.016328	-0.000246	0.000000	0.000000
32.314499	24.128203	11.662464	0.067196	-0.230614	3.026837	0.000000	-0.009649	0.000000	0.016255	-0.000207	0.000000	0.000000
32.863559	23.641210	12.153930	0.813985	-0.669569	2.997086	0.000000	-0.099434	0.000000	0.015998	-0.000729	0.000000	0.000000
33.412619	22.360695	13.150745	1.503222	-1.156234	2.918709	0.000000	-0.187466	0.000000	0.015457	-0.001239	0.000000	0.000000
33.961679	20.377221	14.723925	2.086181	-1.725287	2.793088	0.000000	-0.272192	0.000000	0.014641	-0.001727	0.000000	0.000000
34.510739	17.831052	16.985546	2.521653	-2.417271	2.622444	0.000000	-0.352116	0.000000	0.013566	-0.002184	0.000000	0.000000
34.956699	15.852926	19.008983	1.927826	-2.100014	2.482499	0.000000	-0.279562	0.000000	0.012669	-0.001843	0.000000	0.000000
35.397659	14.378439	20.686124	1.427348	-1.688224	2.375219	0.000000	-0.210637	0.000000	0.011926	-0.001526	0.000000	0.000000
35.838619	13.315163	21.964618	0.992129	-1.199600	2.297655	0.000000	-0.144096	0.000000	0.011320	-0.001227	0.000000	0.000000
36.279579	12.614467	22.786290	0.602270	-0.656382	2.248926	0.000000	-0.079184	0.000000	0.010842	-0.000941	0.000000	0.000000
36.721789	12.243677	23.114013	0.266804	-0.134039	2.228463	0.000000	-0.020071	0.000000	0.010488	-0.000690	0.000000	0.000000
37.019112	12.092757	23.197612	0.240791	-0.147133	2.222700	0.000000	-0.020071	0.000000	0.010282	-0.000690	0.000000	0.000000
37.352445	11.941951	23.300595	0.211628	-0.161814	2.216240	0.000000	-0.020071	0.000000	0.010052	-0.000690	0.000000	0.000000
37.685779	11.810586	23.413364	0.182465	-0.176494	2.209780	0.000000	-0.020071	0.000000	0.009822	-0.000690	0.000000	0.000000
38.020362	11.698280	23.536398	0.153193	-0.191230	2.203295	0.000000	-0.020071	0.000000	0.009591	-0.000690	0.000000	0.000000
38.317684	11.614889	23.654066	0.153076	-0.257292	2.197530	0.000000	-0.024971	0.000000	0.009386	-0.000712	0.000000	0.000000
38.758644	11.628675	23.618885	-0.184652	0.336761	2.200659	0.000000	0.038026	0.000000	0.009125	-0.000474	0.000000	0.000000
39.199604	11.942963	23.064512	-0.530816	0.915487	2.231540	0.000000	0.101461	0.000000	0.008967	-0.000240	0.000000	0.000000
39.640564	12.572116	22.016180	-0.901239	1.452548	2.290526	0.000000	0.166054	0.000000	0.008912	-0.000010	0.000000	0.000000
40.081524	13.544892	20.521599	-1.312853	1.923501	2.378291	0.000000	0.232540	0.000000	0.008959	0.000221	0.000000	0.000000
40.527484	14.923352	18.626052	-1.788446	2.308438	2.497319	0.000000	0.302105	0.000000	0.009109	0.000455	0.000000	0.000000
41.076544	16.685113	16.495592	-1.400681	1.594154	2.642552	0.000000	0.226664	0.000000	0.009278	0.000157	0.000000	0.000000
41.625604	17.963718	15.082996	-0.913937	0.993447	2.745352	0.000000	0.147204	0.000000	0.009281	-0.000144	0.000000	0.000000
42.174664	18.668805	14.287624	-0.362614	0.463521	2.803893	0.000000	0.065131	0.000000	0.009120	-0.000442	0.000000	0.000000
42.723724	18.750548	14.052807	0.214323	-0.033380	2.817133	0.000000	-0.018106	0.000000	0.008797	-0.000732	0.000000	0.000000
43.022297	18.654459	14.058755	0.152652	-0.020529	2.813968	0.000000	-0.011301	0.000000	0.008585	-0.000710	0.000000	0.000000
43.502297	18.520552	14.094858	0.126322	-0.054686	2.808884	0.000000	-0.011301	0.000000	0.008245	-0.000710	0.000000	0.000000
43.982297	18.411922	14.163752	0.099991	-0.088843	2.803801	0.000000	-0.011301	0.000000	0.007904	-0.000710	0.000000	0.000000
44.462297	18.328569	14.265436	0.073660	-0.123000	2.798717	0.000000	-0.011301	0.000000	0.007563	-0.000710	0.000000	0.000000
44.942297	18.270494	14.399911	0.047329	-0.157156	2.793633	0.000000	-0.011301	0.000000	0.007222	-0.000710	0.000000	0.000000
45.423547	18.237870	14.567474	-0.069431	-0.119226	2.788554	0.000000	0.002515	0.000000	0.006881	-0.000676	0.000000	0.000000
45.720870	18.284051	14.644507	-0.130865	-0.103982	2.789504	0.000000	0.009389	0.000000	0.006680	-0.000659	0.000000	0.000000
46.269930	18.119567	15.041811	0.428241	-0.623831	2.772450	0.000000	-0.072884	0.000000	0.006260	-0.000869	0.000000	0.000000
46.818990	17.354077	16.030926	0.957074	-1.188118	2.710610	0.000000	-0.153879	0.000000	0.005728	-0.001063	0.000000	0.000000
47.368050	16.041695	17.682300	1.418269	-1.837041	2.605076	0.000000	-0.232160	0.000000	0.005096	-0.001238	0.000000	0.000000
47.917110	14.275174	20.113554	1.779243	-2.616824	2.457710	0.000000	-0.306344	0.000000	0.004373	-0.001392	0.000000	0.000000
48.363070	12.899452	22.274759	1.315838	-2.208737	2.336996	0.000000	-0.237855	0.000000	0.003776	-0.001286	0.000000	0.000000
48.804030	11.918604	24.005713	0.916392	-1.701548	2.247137	0.000000	-0.172472	0.000000	0.003229	-0.001196	0.000000	0.000000
49.244990	11.270354	25.253353	0.558828	-1.116936	2.185618	0.000000	-0.109041	0.000000	0.002720	-0.001119	0.000000	0.000000
49.685950	10.925066	25.960920	0.226806	-0.481506	2.151744	0.000000	-0.046840	0.000000	0.002241	-0.001055	0.000000	0.000000
50.128160	10.867128	26.095944	-0.068765	0.113245	2.145148	0.000000	0.009667	0.000000	0.001786	-0.001007	0.000000	0.000000
50.425482	10.916192	26.032034	-0.096255	0.101706	2.148322	0.000000	0.009667	0.000000	0.001486	-0.001007	0.000000	0.000000
50.758816	10.990635	25.968543	-0.127073	0.088768	2.151880	0.000000	0.009667	0.000000	0.001151	-0.001007	0.000000	0.000000
51.092149	11.085624	25.913676	-0.157892	0.075831	2.155438	0.000000	0.009667	0.000000	0.000815	-0.001007	0.000000	0.000000
51.426732	11.201403	25.867802	-0.097953	-0.147007	2.158988	0.000000	-0.007848	0.000000	0.000478	-0.001011	0.000000	0.000000
51.724055	11.267618	25.958710	-0.097166	-0.222676	2.156955	0.000000	-0.013128	0.000000	0.000177	-0.001012	0.000000	0.000000
52.165015	11.499999	25.866157	-0.432150	0.431767	2.165261	0.000000	0.048874	0.000000	-0.000269	-0.001013	0.000000	0.000000
52.605975	12.035354	25.202935	-0.786871	1.066560	2.201009	0.000000	0.111444	0.000000	-0.000718	-0.001026	0.000000	0.000000
53.046935	12.898132	23.999231	-1.177533	1.652823	2.264610	0.000000	0.175294	0.000000	-0.001175	-0.001050	0.000000	0.000000
53.487895	14.127737	22.309820	-1.621982	2.163883	2.356794	0.000000	0.241152	0.000000	-0.001646	-0.001086	0.000000	0.000000
53.933855	15.801354	20.186318	-2.144781	2.577790	2.480138	0.000000	0.310162	0.000000	-0.002141	-0.001136	0.000000	0.000000
54.482915	17.955602	17.796465	-1.756175	1.800677	2.630659	0.000000	0.235223	0.000000	-0.002744	-0.001056	0.000000	0.000000
55.031975	19.612074	16.184948	-1.243557	1.151818	2.738775	0.000000	0.156094	0.000000	-0.003298	-0.000959	0.000000	0.000000
55.581035	20.653807	15.236975	-0.643131	0.584998	2.802559	0.000000	0.074181	0.000000	-0.003793	-0.000844	0.000000	0.000000
56.130095	21.007260	14.885015	0.002698	0.059845	2.820873	0.000000	-0.009061	0.000000	-0.004221	-0.000714	0.000000	0.000000
56.428668	21.043818	14.831209	-0.068366	0.079987	2.820662	0.000000	-0.001432	0.000000	-0.004438	-0.000725	0.000000	0.000000
56.762001	21.094700	14.785424	-0.084280	0.057368	2.820426	0.000000	-0.001432	0.000000	-0.004679	-0.000725	0.000000	0.000000
57.095334	21.156191	14.754718	-0.100194	0.034749	2.820190	0.000000	-0.001432	0.000000	-0.004921	-0.000725	0.000000	0.000000
57.429918	21.228582	14.739062	-0.116168	0.012046	2.819953	0.000000	-0.001432	0.000000	-0.005164	-0.000725	0.000000	0.000000
57.727240	21.301899	14.737885	-0.188491	0.031935	2.819744	0.000000	0.006262	0.000000	-0.005379	-0.000740	0.000000	0.000000
58.276300	21.144699	14.985393	0.472732	-0.485416	2.800661	0.000000	-0.076927	0.000000	-0.005737	-0.000559	0.000000	0.000000
58.825360	20.275644	15.816499	1.100561	-1.037334	2.736113	0.000000	-0.158762	0.000000	-0.005992	-0.000369	0.000000	0.000000
59.374420	18.756112	17.290386	1.650663	-1.663125	2.627241	0.000000	-0.237786	0.000000	-0.006141	-0.000173	0.000000	0.000000
59.923480	16.693402	19.512015	2.084198	-2.407354	2.475973	0.000000	-0.312597	0.000000	-0.006181	0.000027	0.000000	0.000000
60.369440	15.077494	21.486431	1.552196	-2.001487	2.352018	0.000000	-0.243725	0.000000	-0.006205	-0.000134	0.000000	0.000000
60.810400	13.914558	23.038778	1.095237	-1.505812	2.259222	0.000000	-0.178008	0.000000	-0.006299	-0.000295	0.000000	0.000000
61.251360	13.131066	24.122028	0.688306	-0.941636	2.194999	0.000000	-0.114315	0.000000	-0.006466	-0.000460	0.000000	0.000000
61.692320	12.691233	24.686905	0.312816	-0.334627	2.158618	0.000000	-0.051920	0.000000	-0.006705	-0.000629	0.000000	0.000000
62.134530	12.575023	24.707124	-0.015632	0.223299	2.149675	0.000000	0.004276	0.000000	-0.007023	-0.000788	0.000000	0.000000
62.431853	12.591350	24.578097	-0.039282	0.210665	2.151181	0.000000	0.004276	0.000000	-0.007257	-0.000788	0.000000	0.000000
62.765186	12.626376	24.442375	-0.065796	0.196501	2.152870	0.000000	0.004276	0.000000	-0.007520	-0.000788	0.000000	0.000000
63.098520	12.679078	24.316095	-0.092310	0.182337	2.154558	0.000000	0.004276	0.000000	-0.007783	-0.000788	0.000000	0.000000
63.433103	12.749753	24.198839	-0.118923	0.168120	2.156253	0.000000	0.004276	0.000000	-0.008047	-0.000788	0.000000	0.000000
63.730426	12.827476	24.102672	-0.108709	0.091583	2.157756	0.000000	-0.001420	0.000000	-0.008281	-0.000767	0.000000	0.000000
64.171386	13.085774	23.756531	-0.479669	0.690496	2.171176	0.000000	0.060655	0.000000	-0.008667	-0.000986	0.000000	0.000000
64.612346	13.679527	22.894153	-0.872528	1.257995	2.212189	0.000000	0.123432	0.000000	-0.009152	-0.001215	0.000000	0.000000
65.053306	14.635838	21.554774	-1.305224	1.768268	2.281267	0.000000	0.187627	0.000000	-0.009741	-0.001459	0.000000	0.000000
65.494266	15.998357	19.799334	-1.797514	2.198104	2.379201	0.000000	0.253974	0.000000	-0.010441	-0.001719	0.000000	0.000000
65.940226	17.852655	17.682766	-2.376324	2.528482	2.508714	0.000000	0.323598	0.000000	-0.011270	-0.002001	0.000000	0.000000
66.489286	20.226827	15.315325	-1.923845	1.809492	2.666700	0.000000	0.247635	0.000000	-0.012265	-0.001619	0.000000	0.000000
67.038346	22.026306	13.662361	-1.335580	1.219351	2.781496	0.000000	0.167255	0.000000	-0.013042	-0.001209	0.000000	0.000000
67.587406	23.124122	12.606151	-0.653055	0.716036	2.851056	0.000000	0.083890	0.000000	-0.013589	-0.000778	0.000000	0.000000
68.136466	23.442825	12.071475	0.075554	0.263705	2.874141	0.000000	-0.000975	0.000000	-0.013894	-0.000333	0.000000	0.000000
68.435038	23.442057	11.901138	-0.005306	0.271896	2.876447	0.000000	0.007377	0.000000	-0.014005	-0.000371	0.000000	0.000000
68.768372	23.450334	11.729900	-0.019526	0.241817	2.879029	0.000000	0.007377	0.000000	-0.014129	-0.000371	0.000000	0.000000
69.101705	23.468091	11.578715	-0.033746	0.211738	2.881612	0.000000	0.007377	0.000000	-0.014252	-0.000371	0.000000	0.000000
69.436288	23.495448	11.447129	-0.048019	0.181546	2.884205	0.000000	0.007377	0.000000	-0.014377	-0.000371	0.000000	0.000000
69.733611	23.527919	11.347081	-0.129348	0.187760	2.886517	0.000000	0.015799	0.000000	-0.014487	-0.000411	0.000000	0.000000
70.282671	23.265917	11.368129	0.603688	-0.226330	2.871821	0.000000	-0.069601	0.000000	-0.014584	0.000059	0.000000	0.000000
