#ParticleID	Turn	x[m]	xp	y[m]	yp	z[m]	dE[GeV]# s	beta_x	beta_y	alpha_x	alpha_y	D_x	D_y	D_px	D_py	orbit_x	orbit_px	orbit_y	orbit_py
0.300000	11.964763	25.325062	-0.019443	-0.021832	2.598588	0.000000	0.000229	0.000000	-0.000951	0.000823	0.000000	0.000000
0.601250	11.984066	25.341800	-0.044631	-0.033733	2.598410	0.000000	0.000229	0.000000	-0.000703	0.000823	0.000000	0.000000
0.898573	12.017997	25.365352	-0.039891	-0.107652	2.598233	0.000000	-0.006170	0.000000	-0.000458	0.000824	0.000000	0.000000
1.339533	12.207102	25.178772	-0.390303	0.529165	2.611344	0.000000	0.067270	0.000000	-0.000097	0.000817	0.000000	0.000000
1.780493	12.711915	24.439080	-0.758552	1.141909	2.656976	0.000000	0.141467	0.000000	0.000263	0.000819	0.000000	0.000000
2.221453	13.555507	23.179921	-1.161465	1.702700	2.735646	0.000000	0.217266	0.000000	0.000626	0.000830	0.000000	0.000000
2.662413	14.776431	21.458579	-1.617450	2.186021	2.848246	0.000000	0.295532	0.000000	0.000997	0.000851	0.000000	0.000000
3.108373	16.451565	19.328150	-2.151718	2.571051	2.997902	0.000000	0.377645	0.000000	0.001383	0.000882	0.000000	0.000000
3.657433	18.598820	16.934944	-1.735390	1.813309	3.179751	0.000000	0.285407	0.000000	0.001853	0.000830	0.000000	0.000000
4.206493	20.218461	15.298453	-1.196458	1.184728	3.309526	0.000000	0.188119	0.000000	0.002291	0.000762	0.000000	0.000000
4.755553	21.196051	14.302121	-0.572989	0.640533	3.384929	0.000000	0.087507	0.000000	0.002688	0.000682	0.000000	0.000000
5.304613	21.462509	13.874987	0.090971	0.141964	3.404629	0.000000	-0.014646	0.000000	0.003038	0.000589	0.000000	0.000000
5.603185	21.444967	13.775821	0.022402	0.154975	3.402665	0.000000	-0.005979	0.000000	0.003216	0.000597	0.000000	0.000000
5.936519	21.435216	13.680764	0.006851	0.130197	3.400473	0.000000	-0.005979	0.000000	0.003415	0.000597	0.000000	0.000000
6.269852	21.435833	13.602226	-0.008701	0.105418	3.398282	0.000000	-0.005979	0.000000	0.003614	0.000597	0.000000	0.000000
6.604435	21.446878	13.540005	-0.024311	0.080547	3.396081	0.000000	-0.005979	0.000000	0.003813	0.000597	0.000000	0.000000
6.901758	21.465469	13.498672	-0.092370	0.092642	3.394127	0.000000	0.002589	0.000000	0.003991	0.000607	0.000000	0.000000
7.450818	21.200853	13.658790	0.571762	-0.385966	3.367305	0.000000	-0.099112	0.000000	0.004288	0.000473	0.000000	0.000000
7.999878	20.224805	14.356435	1.195511	-0.892071	3.285115	0.000000	-0.199048	0.000000	0.004509	0.000330	0.000000	0.000000
8.548938	18.606275	15.641310	1.734806	-1.461726	3.149018	0.000000	-0.295447	0.000000	0.004650	0.000182	0.000000	0.000000
9.097998	16.459613	17.604949	2.151542	-2.135511	2.961430	0.000000	-0.386602	0.000000	0.004708	0.000030	0.000000	0.000000
9.543958	14.784845	19.354401	1.617043	-1.770542	2.807149	0.000000	-0.305473	0.000000	0.004749	0.000153	0.000000	0.000000
9.984918	13.564474	20.725323	1.160885	-1.326362	2.689471	0.000000	-0.228323	0.000000	0.004844	0.000277	0.000000	0.000000
10.425878	12.721617	21.676273	0.757774	-0.821825	2.605156	0.000000	-0.153776	0.000000	0.004993	0.000404	0.000000	0.000000
10.866838	12.217758	22.163977	0.389287	-0.279889	2.553242	0.000000	-0.080985	0.000000	0.005200	0.000535	0.000000	0.000000
11.309048	12.029719	22.165658	0.066436	0.223008	2.533118	0.000000	-0.015009	0.000000	0.005467	0.000659	0.000000	0.000000
11.606371	11.997594	22.037234	0.041611	0.208927	2.528459	0.000000	-0.015009	0.000000	0.005663	0.000659	0.000000	0.000000
12.086371	11.976884	21.847576	0.001534	0.186195	2.520938	0.000000	-0.015009	0.000000	0.005980	0.000659	0.000000	0.000000
12.566371	11.994648	21.679740	-0.038543	0.163463	2.513417	0.000000	-0.015009	0.000000	0.006296	0.000659	0.000000	0.000000
13.046371	12.050887	21.533727	-0.078621	0.140731	2.505896	0.000000	-0.015009	0.000000	0.006613	0.000659	0.000000	0.000000
13.526371	12.145600	21.409537	-0.118698	0.117999	2.498375	0.000000	-0.015009	0.000000	0.006929	0.000659	0.000000	0.000000
14.007621	12.279184	21.306931	-0.158880	0.095207	2.490834	0.000000	-0.015009	0.000000	0.007246	0.000659	0.000000	0.000000
14.304943	12.381022	21.254538	-0.155522	0.032935	2.486174	0.000000	-0.020669	0.000000	0.007443	0.000642	0.000000	0.000000
14.745903	12.676964	20.993016	-0.517818	0.557817	2.492278	0.000000	0.049806	0.000000	0.007768	0.000838	0.000000	0.000000
15.186863	13.301690	20.278005	-0.903786	1.057315	2.529472	0.000000	0.120840	0.000000	0.008183	0.001044	0.000000	0.000000
15.627823	14.283764	19.142035	-1.331069	1.508698	2.598174	0.000000	0.193239	0.000000	0.008691	0.001261	0.000000	0.000000
16.068783	15.668094	17.636795	-1.819198	1.891423	2.699163	0.000000	0.267826	0.000000	0.009297	0.001493	0.000000	0.000000
16.514743	17.541608	15.809167	-2.395432	2.189001	2.835280	0.000000	0.345941	0.000000	0.010019	0.001744	0.000000	0.000000
17.063803	19.947107	13.769284	-1.958235	1.547599	3.000852	0.000000	0.259211	0.000000	0.010884	0.001405	0.000000	0.000000
17.612863	21.793072	12.369502	-1.382625	1.016457	3.117656	0.000000	0.167904	0.000000	0.011557	0.001041	0.000000	0.000000
18.161923	22.948993	11.510105	-0.709282	0.557734	3.183628	0.000000	0.073636	0.000000	0.012024	0.000659	0.000000	0.000000
18.710983	23.333143	11.129873	0.014203	0.138749	3.197603	0.000000	-0.021929	0.000000	0.012279	0.000265	0.000000	0.000000
19.009556	23.360924	11.039801	-0.053105	0.137143	3.193190	0.000000	-0.014462	0.000000	0.012367	0.000296	0.000000	0.000000
19.342889	23.401097	10.958626	-0.067414	0.106382	3.188271	0.000000	-0.014462	0.000000	0.012466	0.000296	0.000000	0.000000
19.676223	23.450809	10.897958	-0.081723	0.075620	3.183351	0.000000	-0.014462	0.000000	0.012564	0.000296	0.000000	0.000000
20.010806	23.510592	10.857552	-0.212570	0.098538	3.178433	0.000000	0.001286	0.000000	0.012663	0.000358	0.000000	0.000000
20.308129	23.641039	10.807126	-0.280721	0.096063	3.178717	0.000000	0.008672	0.000000	0.012770	0.000390	0.000000	0.000000
20.857189	23.541766	10.921211	0.460545	-0.305033	3.157312	0.000000	-0.086162	0.000000	0.012870	-0.000025	0.000000	0.000000
21.406249	22.641323	11.485108	1.169262	-0.727865	3.084391	0.000000	-0.179468	0.000000	0.012742	-0.000440	0.000000	0.000000
21.955309	21.003367	12.538994	1.795334	-1.202558	2.961245	0.000000	-0.269596	0.000000	0.012388	-0.000848	0.000000	0.000000
22.504369	18.743699	14.157949	2.294506	-1.762933	2.790056	0.000000	-0.354954	0.000000	0.011814	-0.001240	0.000000	0.000000
22.950329	16.964941	15.612453	1.706800	-1.484174	2.649419	0.000000	-0.278061	0.000000	0.011328	-0.000940	0.000000	0.000000
23.391289	15.686728	16.773739	1.202071	-1.138923	2.543376	0.000000	-0.204817	0.000000	0.010977	-0.000652	0.000000	0.000000
23.832249	14.827959	17.606377	0.752293	-0.741838	2.468973	0.000000	-0.133899	0.000000	0.010752	-0.000372	0.000000	0.000000
24.273209	14.349366	18.072477	0.336905	-0.310989	2.425363	0.000000	-0.064503	0.000000	0.010649	-0.000096	0.000000	0.000000
24.715418	14.229194	18.150531	-0.031893	0.094001	2.412054	0.000000	-0.001142	0.000000	0.010667	0.000154	0.000000	0.000000
25.012741	14.254378	18.099547	-0.052810	0.077475	2.411669	0.000000	-0.001142	0.000000	0.010713	0.000154	0.000000	0.000000
25.346075	14.297401	18.054073	-0.076259	0.058948	2.411237	0.000000	-0.001142	0.000000	0.010764	0.000154	0.000000	0.000000
25.679408	14.356057	18.020950	-0.099709	0.040421	2.410805	0.000000	-0.001142	0.000000	0.010815	0.000154	0.000000	0.000000
26.013991	14.430362	18.000489	-0.006179	-0.124205	2.410347	0.000000	-0.020697	0.000000	0.010867	0.000066	0.000000	0.000000
26.311314	14.440112	18.079396	0.004879	-0.180609	2.404169	0.000000	-0.025968	0.000000	0.010886	0.000041	0.000000	0.000000
26.752274	14.614340	18.042847	-0.401351	0.263167	2.407704	0.000000	0.042365	0.000000	0.010966	0.000322	0.000000	0.000000
27.193234	15.153647	17.618666	-0.825930	0.694967	2.441333	0.000000	0.111178	0.000000	0.011171	0.000608	0.000000	0.000000
27.634194	16.082697	16.826157	-1.288267	1.095137	2.505437	0.000000	0.181251	0.000000	0.011503	0.000900	0.000000	0.000000
28.075154	17.443975	15.701383	-1.809500	1.445466	2.600743	0.000000	0.253379	0.000000	0.011967	0.001203	0.000000	0.000000
28.521114	19.323641	14.278414	-2.418627	1.731154	2.729952	0.000000	0.328863	0.000000	0.012574	0.001521	0.000000	0.000000
29.070174	21.713962	12.693804	-1.907488	1.171391	2.887249	0.000000	0.245676	0.000000	0.013295	0.001102	0.000000	0.000000
29.619234	23.464957	11.674812	-1.261513	0.695091	2.997830	0.000000	0.158147	0.000000	0.013780	0.000663	0.000000	0.000000
30.168294	24.452819	11.148843	-0.526363	0.268318	3.059738	0.000000	0.067822	0.000000	0.014021	0.000213	0.000000	0.000000
30.717354	24.607701	11.078427	0.245994	-0.139337	3.071879	0.000000	-0.023702	0.000000	0.014013	-0.000242	0.000000	0.000000
31.015927	24.498134	11.154643	0.176962	-0.141177	3.066959	0.000000	-0.016654	0.000000	0.013951	-0.000207	0.000000	0.000000
31.349260	24.384837	11.258920	0.162930	-0.171655	3.061477	0.000000	-0.016654	0.000000	0.013882	-0.000207	0.000000	0.000000
31.682593	24.280894	11.383517	0.148897	-0.202134	3.055995	0.000000	-0.016654	0.000000	0.013813	-0.000207	0.000000	0.000000
32.017177	24.185970	11.529014	0.134812	-0.232727	3.050492	0.000000	-0.016654	0.000000	0.013743	-0.000207	0.000000	0.000000
32.314499	24.109659	11.675423	0.066784	-0.233061	3.045610	0.000000	-0.009642	0.000000	0.013682	-0.000174	0.000000	0.000000
32.863559	23.623525	12.169811	0.812925	-0.672507	3.015661	0.000000	-0.100025	0.000000	0.013465	-0.000613	0.000000	0.000000
33.412619	22.344598	13.170179	1.501598	-1.159870	2.936717	0.000000	-0.188644	0.000000	0.013010	-0.001043	0.000000	0.000000
33.961679	20.363309	14.747796	2.084122	-1.729875	2.810175	0.000000	-0.273932	0.000000	0.012324	-0.001453	0.000000	0.000000
34.510739	17.819742	17.015048	2.519327	-2.423131	2.638270	0.000000	-0.354383	0.000000	0.011419	-0.001838	0.000000	0.000000
34.956699	15.843644	19.043460	1.925984	-2.105479	2.497273	0.000000	-0.281440	0.000000	0.010664	-0.001551	0.000000	0.000000
35.397659	14.370717	20.725086	1.425850	-1.692995	2.389136	0.000000	-0.212148	0.000000	0.010039	-0.001284	0.000000	0.000000
35.838619	13.308706	22.007367	0.990899	-1.203462	2.310891	0.000000	-0.145260	0.000000	0.009529	-0.001032	0.000000	0.000000
36.279579	12.609046	22.831958	0.601247	-0.659161	2.261651	0.000000	-0.080016	0.000000	0.009127	-0.000792	0.000000	0.000000
36.721789	12.239105	23.161628	0.266422	-0.136685	2.240836	0.000000	-0.020701	0.000000	0.008828	-0.000581	0.000000	0.000000
37.019112	12.088414	23.246795	0.240405	-0.149761	2.234854	0.000000	-0.020701	0.000000	0.008656	-0.000581	0.000000	0.000000
37.352445	11.937867	23.351523	0.211236	-0.164422	2.228147	0.000000	-0.020701	0.000000	0.008462	-0.000581	0.000000	0.000000
37.685779	11.806766	23.466024	0.182068	-0.179082	2.221440	0.000000	-0.020701	0.000000	0.008269	-0.000581	0.000000	0.000000
38.020362	11.694728	23.590784	0.152790	-0.193798	2.214709	0.000000	-0.020701	0.000000	0.008074	-0.000581	0.000000	0.000000
38.317684	11.611586	23.709956	0.153079	-0.260784	2.208725	0.000000	-0.025704	0.000000	0.007901	-0.000599	0.000000	0.000000
38.758644	11.625345	23.677196	-0.184562	0.334786	2.211552	0.000000	0.037575	0.000000	0.007682	-0.000399	0.000000	0.000000
39.199604	11.939515	23.123871	-0.530634	0.915119	2.242270	0.000000	0.101286	0.000000	0.007549	-0.000202	0.000000	0.000000
39.640564	12.568453	22.075167	-0.900955	1.453806	2.301231	0.000000	0.166153	0.000000	0.007503	-0.000008	0.000000	0.000000
40.081524	13.540907	20.578806	-1.312452	1.926331	2.389105	0.000000	0.232914	0.000000	0.007542	0.000186	0.000000	0.000000
40.527484	14.918884	18.680144	-1.787877	2.312685	2.508380	0.000000	0.302756	0.000000	0.007669	0.000383	0.000000	0.000000
41.076544	16.680053	16.545984	-1.400267	1.596764	2.653896	0.000000	0.226955	0.000000	0.007810	0.000132	0.000000	0.000000
41.625604	17.958279	15.131362	-0.913714	0.994601	2.756753	0.000000	0.147131	0.000000	0.007814	-0.000121	0.000000	0.000000
42.174664	18.663234	14.335498	-0.362602	0.463298	2.815128	0.000000	0.064694	0.000000	0.007678	-0.000372	0.000000	0.000000
42.723724	18.745106	14.101690	0.214124	-0.034996	2.827982	0.000000	-0.018897	0.000000	0.007406	-0.000616	0.000000	0.000000
43.022297	18.649498	14.108247	0.151869	-0.021530	2.824582	0.000000	-0.011976	0.000000	0.007228	-0.000598	0.000000	0.000000
43.502297	18.516342	14.145254	0.125538	-0.055568	2.819121	0.000000	-0.011976	0.000000	0.006941	-0.000598	0.000000	0.000000
43.982297	18.408465	14.214938	0.099206	-0.089606	2.813659	0.000000	-0.011976	0.000000	0.006654	-0.000598	0.000000	0.000000
44.462297	18.325866	14.317298	0.072875	-0.123645	2.808198	0.000000	-0.011976	0.000000	0.006368	-0.000598	0.000000	0.000000
44.942297	18.268546	14.452336	0.046543	-0.157683	2.802736	0.000000	-0.011976	0.000000	0.006081	-0.000598	0.000000	0.000000
45.423547	18.236679	14.620349	-0.070212	-0.119372	2.797278	0.000000	0.001884	0.000000	0.005793	-0.000569	0.000000	0.000000
45.720870	18.283319	14.697452	-0.132083	-0.103551	2.798009	0.000000	0.008845	0.000000	0.005624	-0.000555	0.000000	0.000000
46.269930	18.120221	15.095133	0.427016	-0.624962	2.780518	0.000000	-0.073694	0.000000	0.005271	-0.000731	0.000000	0.000000
46.818990	17.356093	16.086366	0.955933	-1.190892	2.718084	0.000000	-0.154938	0.000000	0.004824	-0.000895	0.000000	0.000000
47.368050	16.044943	17.741752	1.417297	-1.841654	2.611810	0.000000	-0.233447	0.000000	0.004291	-0.001042	0.000000	0.000000
47.917110	14.279431	20.179198	1.778515	-2.623603	2.463572	0.000000	-0.307833	0.000000	0.003682	-0.001171	0.000000	0.000000
48.363070	12.904402	22.345732	1.315120	-2.213904	2.342136	0.000000	-0.239204	0.000000	0.003180	-0.001082	0.000000	0.000000
48.804030	11.924242	24.080425	0.915635	-1.704859	2.251626	0.000000	-0.173698	0.000000	0.002720	-0.001006	0.000000	0.000000
49.244990	11.276721	25.330100	0.557995	-1.118241	2.189514	0.000000	-0.110159	0.000000	0.002291	-0.000942	0.000000	0.000000
49.685950	10.932242	26.037903	0.225857	-0.480744	2.155095	0.000000	-0.047865	0.000000	0.001888	-0.000888	0.000000	0.000000
50.128160	10.875232	26.171347	-0.069783	0.115627	2.147993	0.000000	0.008701	0.000000	0.001505	-0.000848	0.000000	0.000000
50.425482	10.924896	26.106013	-0.097255	0.104115	2.150832	0.000000	0.008701	0.000000	0.001253	-0.000848	0.000000	0.000000
50.758816	10.999999	26.040906	-0.128055	0.091208	2.154015	0.000000	0.008701	0.000000	0.000971	-0.000848	0.000000	0.000000
51.092149	11.095636	25.984403	-0.158855	0.078301	2.157198	0.000000	0.008701	0.000000	0.000688	-0.000848	0.000000	0.000000
51.426732	11.212054	25.936867	-0.098811	-0.145067	2.160371	0.000000	-0.008826	0.000000	0.000404	-0.000851	0.000000	0.000000
51.724055	11.278773	26.026611	-0.097969	-0.220821	2.158000	0.000000	-0.014110	0.000000	0.000151	-0.000851	0.000000	0.000000
52.165015	11.512003	25.931636	-0.433229	0.435384	2.165809	0.000000	0.047913	0.000000	-0.000224	-0.000852	0.000000	0.000000
52.605975	12.048473	25.264503	-0.788276	1.071776	2.201066	0.000000	0.110490	0.000000	-0.000602	-0.000863	0.000000	0.000000
53.046935	12.912684	24.055576	-1.179329	1.659401	2.264176	0.000000	0.174336	0.000000	-0.000987	-0.000884	0.000000	0.000000
53.487895	14.144109	22.359867	-1.624254	2.171524	2.355862	0.000000	0.240176	0.000000	-0.001383	-0.000914	0.000000	0.000000
53.933855	15.820043	20.229193	-2.147646	2.586154	2.478689	0.000000	0.309157	0.000000	-0.001799	-0.000955	0.000000	0.000000
54.482915	17.977232	17.831205	-1.758530	1.807196	2.628582	0.000000	0.234273	0.000000	-0.002306	-0.000889	0.000000	0.000000
55.031975	19.635985	16.213315	-1.245228	1.156957	2.736112	0.000000	0.155220	0.000000	-0.002772	-0.000807	0.000000	0.000000
55.581035	20.679174	15.260278	-0.643997	0.589123	2.799367	0.000000	0.073401	0.000000	-0.003189	-0.000710	0.000000	0.000000
56.130095	21.033146	14.904204	0.002703	0.063250	2.817217	0.000000	-0.009732	0.000000	-0.003549	-0.000601	0.000000	0.000000
56.428668	21.069560	14.848471	-0.068110	0.083219	2.816755	0.000000	-0.002154	0.000000	-0.003732	-0.000610	0.000000	0.000000
56.762001	21.120265	14.800526	-0.084004	0.060615	2.816241	0.000000	-0.002154	0.000000	-0.003935	-0.000610	0.000000	0.000000
57.095334	21.181565	14.767651	-0.099898	0.038010	2.815726	0.000000	-0.002154	0.000000	-0.004139	-0.000610	0.000000	0.000000
57.429918	21.253752	14.749807	-0.115852	0.015321	2.815209	0.000000	-0.002154	0.000000	-0.004343	-0.000610	0.000000	0.000000
57.727240	21.326871	14.746682	-0.187837	0.035002	2.814751	0.000000	0.005475	0.000000	-0.004524	-0.000622	0.000000	0.000000
58.276300	21.168522	14.990937	0.474216	-0.482518	2.795226	0.000000	-0.077547	0.000000	-0.004825	-0.000471	0.000000	0.000000
58.825360	20.297441	15.818872	1.102770	-1.034401	2.730347	0.000000	-0.159203	0.000000	-0.005040	-0.000311	0.000000	0.000000
59.374420	18.775147	17.289445	1.653439	-1.659949	2.621260	0.000000	-0.238039	0.000000	-0.005165	-0.000146	0.000000	0.000000
59.923480	16.709141	19.507384	2.087341	-2.403714	2.469899	0.000000	-0.312657	0.000000	-0.005199	0.000022	0.000000	0.000000
60.369440	15.090697	21.478464	1.554753	-1.997658	2.345879	0.000000	-0.243938	0.000000	-0.005219	-0.000113	0.000000	0.000000
60.810400	13.925698	23.027448	1.097352	-1.501993	2.252938	0.000000	-0.178380	0.000000	-0.005299	-0.000249	0.000000	0.000000
61.251360	13.140498	24.107413	0.690076	-0.937999	2.188489	0.000000	-0.114850	0.000000	-0.005439	-0.000387	0.000000	0.000000
61.692320	12.699232	24.669232	0.314324	-0.331335	2.151797	0.000000	-0.052624	0.000000	-0.005641	-0.000530	0.000000	0.000000
62.134530	12.581791	24.686758	-0.014613	0.226719	2.142455	0.000000	0.003465	0.000000	-0.005908	-0.000664	0.000000	0.000000
62.431853	12.597508	24.555706	-0.038250	0.214056	2.143682	0.000000	0.003465	0.000000	-0.006105	-0.000664	0.000000	0.000000
62.765186	12.631841	24.417734	-0.064749	0.199860	2.145058	0.000000	0.003465	0.000000	-0.006326	-0.000664	0.000000	0.000000
63.098520	12.683840	24.289226	-0.091248	0.185663	2.146435	0.000000	0.003465	0.000000	-0.006548	-0.000664	0.000000	0.000000
63.433103	12.753799	24.169754	-0.117846	0.171413	2.147816	0.000000	0.003465	0.000000	-0.006770	-0.000664	0.000000	0.000000
63.730426	12.830885	24.071623	-0.107984	0.095677	2.149042	0.000000	-0.002146	0.000000	-0.006967	-0.000646	0.000000	0.000000
64.171386	13.088605	23.722258	-0.479016	0.693673	2.162033	0.000000	0.059702	0.000000	-0.007292	-0.000830	0.000000	0.000000
64.612346	13.681844	22.857519	-0.871919	1.260110	2.202500	0.000000	0.122237	0.000000	-0.007700	-0.001023	0.000000	0.000000
65.053306	14.637685	21.516754	-1.304635	1.769223	2.270906	0.000000	0.186176	0.000000	-0.008196	-0.001228	0.000000	0.000000
65.494266	15.999763	19.760963	-1.796925	2.197852	2.368036	0.000000	0.252248	0.000000	-0.008785	-0.001447	0.000000	0.000000
65.940226	17.853602	17.645144	-2.375760	2.527054	2.496587	0.000000	0.321580	0.000000	-0.009482	-0.001684	0.000000	0.000000
66.489286	20.227223	15.278713	-1.923146	1.808956	2.653428	0.000000	0.246024	0.000000	-0.010320	-0.001363	0.000000	0.000000
67.038346	22.025998	13.625819	-1.334778	1.219674	2.767343	0.000000	0.166083	0.000000	-0.010974	-0.001018	0.000000	0.000000
67.587406	23.122986	12.568743	-0.652194	0.717244	2.836305	0.000000	0.083180	0.000000	-0.011434	-0.000655	0.000000	0.000000
68.136466	23.440777	12.032199	0.076420	0.265888	2.859085	0.000000	-0.001208	0.000000	-0.011691	-0.000280	0.000000	0.000000
68.435038	23.438899	11.860968	-0.003381	0.273305	2.861254	0.000000	0.006971	0.000000	-0.011785	-0.000312	0.000000	0.000000
68.768372	23.445893	11.688832	-0.017603	0.243102	2.863682	0.000000	0.006971	0.000000	-0.011889	-0.000312	0.000000	0.000000
69.101705	23.462369	11.536832	-0.031824	0.212899	2.866110	0.000000	0.006971	0.000000	-0.011993	-0.000312	0.000000	0.000000
69.436288	23.488441	11.404510	-0.046099	0.182584	2.868547	0.000000	0.006971	0.000000	-0.012097	-0.000312	0.000000	0.000000
69.733611	23.519728	11.303898	-0.126308	0.188044	2.870719	0.000000	0.015213	0.000000	-0.012190	-0.000346	0.000000	0.000000
70.282671	23.254542	11.323979	0.606417	-0.224840	2.855825	0.000000	-0.069678	0.000000	-0.012271	0.000050	0.000000	0.000000
