#ParticleID	Turn	x[m]	xp	y[m]	yp	z[m]	dE[GeV]# s	beta_x	beta_y	alpha_x	alpha_y	D_x	D_y	D_px	D_py	orbit_x	orbit_px	orbit_y	orbit_py
0.300000	11.903763	25.168834	-0.018257	-0.023938	2.607951	0.000000	0.000512	0.000000	-0.000404	0.000354	0.000000	0.000000
0.601250	11.922389	25.186864	-0.043572	-0.035914	2.607999	0.000000	0.000512	0.000000	-0.000297	0.000354	0.000000	0.000000
0.898573	11.955728	25.211735	-0.039186	-0.109545	2.608046	0.000000	-0.005895	0.000000	-0.000192	0.000355	0.000000	0.000000
1.339533	12.143508	25.028608	-0.388154	0.523256	2.621533	0.000000	0.067803	0.000000	-0.000036	0.000352	0.000000	0.000000
1.780493	12.645680	24.295807	-0.754858	1.132251	2.667656	0.000000	0.142269	0.000000	0.000119	0.000353	0.000000	0.000000
2.221453	13.485191	23.046669	-1.156052	1.689730	2.746940	0.000000	0.218352	0.000000	0.000276	0.000358	0.000000	0.000000
2.662413	14.700400	21.338027	-1.610067	2.170329	2.860286	0.000000	0.296918	0.000000	0.000435	0.000367	0.000000	0.000000
3.108373	16.367817	19.222577	-2.141989	2.553327	3.010840	0.000000	0.379352	0.000000	0.000602	0.000380	0.000000	0.000000
3.657433	18.505597	16.846434	-1.728264	1.799831	3.193763	0.000000	0.286681	0.000000	0.000805	0.000358	0.000000	0.000000
4.206493	20.118921	15.222892	-1.192453	1.174533	3.324347	0.000000	0.188931	0.000000	0.000993	0.000329	0.000000	0.000000
4.755553	21.093820	14.236314	-0.572403	0.632896	3.400277	0.000000	0.087835	0.000000	0.001164	0.000294	0.000000	0.000000
5.304613	21.361418	13.816428	0.088088	0.136339	3.420210	0.000000	-0.014815	0.000000	0.001315	0.000253	0.000000	0.000000
5.603185	21.345954	13.720369	0.018899	0.149740	3.418349	0.000000	-0.005977	0.000000	0.001392	0.000257	0.000000	0.000000
5.936519	21.338562	13.628822	0.003278	0.124901	3.416271	0.000000	-0.005977	0.000000	0.001477	0.000257	0.000000	0.000000
6.269852	21.341584	13.553835	-0.012344	0.100061	3.414193	0.000000	-0.005977	0.000000	0.001563	0.000257	0.000000	0.000000
6.604435	21.355090	13.495219	-0.028024	0.075129	3.412107	0.000000	-0.005977	0.000000	0.001649	0.000257	0.000000	0.000000
6.901758	21.375899	13.457131	-0.096997	0.087673	3.410254	0.000000	0.002804	0.000000	0.001725	0.000261	0.000000	0.000000
7.450818	21.117888	13.622064	0.564259	-0.389831	3.383569	0.000000	-0.099415	0.000000	0.001853	0.000203	0.000000	0.000000
7.999878	20.151384	14.323450	1.185661	-0.895105	3.301193	0.000000	-0.199868	0.000000	0.001948	0.000142	0.000000	0.000000
8.548938	18.544661	15.611251	1.723309	-1.464139	3.164588	0.000000	-0.296772	0.000000	0.002008	0.000078	0.000000	0.000000
9.097998	16.411220	17.577201	2.139223	-2.137467	2.976178	0.000000	-0.388412	0.000000	0.002033	0.000012	0.000000	0.000000
9.543958	14.746539	19.328867	1.606784	-1.773685	2.821199	0.000000	-0.306925	0.000000	0.002050	0.000065	0.000000	0.000000
9.984918	13.534546	20.702950	1.152132	-1.330484	2.703015	0.000000	-0.229424	0.000000	0.002090	0.000119	0.000000	0.000000
10.425878	12.698897	21.657864	0.750122	-0.826743	2.618375	0.000000	-0.154539	0.000000	0.002155	0.000173	0.000000	0.000000
10.866838	12.201410	22.150157	0.382385	-0.285384	2.566314	0.000000	-0.081415	0.000000	0.002243	0.000230	0.000000	0.000000
11.309048	12.019205	22.156883	0.060827	0.215695	2.546220	0.000000	-0.015325	0.000000	0.002358	0.000284	0.000000	0.000000
11.606371	11.990416	22.032796	0.035999	0.201651	2.541579	0.000000	-0.015325	0.000000	0.002443	0.000284	0.000000	0.000000
12.086371	11.975098	21.850093	-0.004085	0.178980	2.534087	0.000000	-0.015325	0.000000	0.002579	0.000284	0.000000	0.000000
12.566371	11.998260	21.689155	-0.044169	0.156308	2.526595	0.000000	-0.015325	0.000000	0.002715	0.000284	0.000000	0.000000
13.046371	12.059902	21.549982	-0.084253	0.133637	2.519103	0.000000	-0.015325	0.000000	0.002851	0.000284	0.000000	0.000000
13.526371	12.160026	21.432573	-0.124337	0.110965	2.511611	0.000000	-0.015325	0.000000	0.002987	0.000284	0.000000	0.000000
14.007621	12.299040	21.336708	-0.164525	0.088234	2.504100	0.000000	-0.015325	0.000000	0.003123	0.000284	0.000000	0.000000
14.304943	12.404253	21.288422	-0.159866	0.023665	2.499459	0.000000	-0.021267	0.000000	0.003208	0.000276	0.000000	0.000000
14.745903	12.704208	21.034639	-0.522801	0.549640	2.505552	0.000000	0.049543	0.000000	0.003348	0.000360	0.000000	0.000000
15.186863	13.333561	20.326264	-0.909627	1.050606	2.542929	0.000000	0.120913	0.000000	0.003526	0.000449	0.000000	0.000000
15.627823	14.321075	19.195527	-1.338022	1.503766	2.612012	0.000000	0.193655	0.000000	0.003744	0.000543	0.000000	0.000000
16.068783	15.711885	17.693875	-1.827563	1.888500	2.713587	0.000000	0.268598	0.000000	0.004006	0.000643	0.000000	0.000000
16.514743	17.593175	15.868131	-2.405462	2.188119	2.850507	0.000000	0.347069	0.000000	0.004316	0.000750	0.000000	0.000000
17.063803	20.008708	13.829939	-1.967239	1.545702	3.017023	0.000000	0.259849	0.000000	0.004689	0.000605	0.000000	0.000000
17.612863	21.863327	12.432990	-1.390020	1.013395	3.134392	0.000000	0.168028	0.000000	0.004978	0.000448	0.000000	0.000000
18.161923	23.025980	11.577780	-0.714587	0.553278	3.200536	0.000000	0.073234	0.000000	0.005179	0.000283	0.000000	0.000000
18.710983	23.414506	11.203388	0.011340	0.132574	3.214284	0.000000	-0.022855	0.000000	0.005288	0.000114	0.000000	0.000000
19.009556	23.446422	11.115709	-0.059869	0.133176	3.209815	0.000000	-0.014834	0.000000	0.005326	0.000127	0.000000	0.000000
19.342889	23.491091	11.037099	-0.074137	0.102657	3.204828	0.000000	-0.014834	0.000000	0.005369	0.000127	0.000000	0.000000
19.676223	23.545271	10.978834	-0.088405	0.072137	3.199841	0.000000	-0.014834	0.000000	0.005411	0.000127	0.000000	0.000000
20.010806	23.609513	10.940676	-0.219701	0.095710	3.194855	0.000000	0.000995	0.000000	0.005454	0.000154	0.000000	0.000000
20.308129	23.744103	10.891907	-0.292040	0.095440	3.195106	0.000000	0.008953	0.000000	0.005500	0.000168	0.000000	0.000000
20.857189	23.655374	11.007936	0.452725	-0.307993	3.173772	0.000000	-0.086392	0.000000	0.005543	-0.000011	0.000000	0.000000
21.406249	22.761470	11.576394	1.165504	-0.733366	3.100522	0.000000	-0.180205	0.000000	0.005488	-0.000189	0.000000	0.000000
21.955309	21.125555	12.637775	1.795934	-1.210984	2.976655	0.000000	-0.270824	0.000000	0.005336	-0.000365	0.000000	0.000000
22.504369	18.863228	14.267687	2.299472	-1.774868	2.804366	0.000000	-0.356644	0.000000	0.005089	-0.000534	0.000000	0.000000
22.950329	17.081501	15.731520	1.709389	-1.493498	2.662804	0.000000	-0.279425	0.000000	0.004880	-0.000404	0.000000	0.000000
23.391289	15.802286	16.899562	1.202236	-1.145102	2.556048	0.000000	-0.205857	0.000000	0.004729	-0.000280	0.000000	0.000000
23.832249	14.944572	17.736084	0.750024	-0.744598	2.481137	0.000000	-0.134630	0.000000	0.004632	-0.000160	0.000000	0.000000
24.273209	14.469158	18.203020	0.332087	-0.310211	2.437219	0.000000	-0.064935	0.000000	0.004588	-0.000041	0.000000	0.000000
24.715418	14.354419	18.278875	-0.037109	0.095348	2.423791	0.000000	-0.001662	0.000000	0.004596	0.000067	0.000000	0.000000
25.012741	14.382653	18.227057	-0.057851	0.078934	2.423277	0.000000	-0.001662	0.000000	0.004616	0.000067	0.000000	0.000000
25.346075	14.428972	18.180568	-0.081105	0.060532	2.422701	0.000000	-0.001662	0.000000	0.004638	0.000067	0.000000	0.000000
25.679408	14.490793	18.146347	-0.104358	0.042130	2.422124	0.000000	-0.001662	0.000000	0.004660	0.000067	0.000000	0.000000
26.013991	14.568140	18.124703	-0.009513	-0.123377	2.421521	0.000000	-0.021307	0.000000	0.004683	0.000029	0.000000	0.000000
26.311314	14.579856	18.203031	0.004225	-0.182661	2.415177	0.000000	-0.026964	0.000000	0.004691	0.000017	0.000000	0.000000
26.752274	14.756066	18.166825	-0.405289	0.264452	2.418376	0.000000	0.041638	0.000000	0.004725	0.000139	0.000000	0.000000
27.193234	15.300255	17.740094	-0.833324	0.699531	2.451852	0.000000	0.110712	0.000000	0.004814	0.000262	0.000000	0.000000
27.634194	16.237294	16.942255	-1.299442	1.102779	2.515984	0.000000	0.181045	0.000000	0.004957	0.000388	0.000000	0.000000
28.075154	17.610011	15.809613	-1.824944	1.455845	2.611502	0.000000	0.253436	0.000000	0.005156	0.000518	0.000000	0.000000
28.521114	19.505075	14.376595	-2.438887	1.743672	2.741104	0.000000	0.329171	0.000000	0.005418	0.000655	0.000000	0.000000
29.070174	21.914279	12.780298	-1.922319	1.180586	2.898852	0.000000	0.245635	0.000000	0.005728	0.000475	0.000000	0.000000
29.619234	23.677736	11.752842	-1.269925	0.701603	3.009565	0.000000	0.157749	0.000000	0.005937	0.000286	0.000000	0.000000
30.168294	24.670831	11.221039	-0.527799	0.272602	3.071282	0.000000	0.067070	0.000000	0.006041	0.000091	0.000000	0.000000
30.717354	24.823385	11.147005	0.251619	-0.136980	3.082908	0.000000	-0.024798	0.000000	0.006037	-0.000104	0.000000	0.000000
31.015927	24.713565	11.220399	0.177632	-0.136441	3.077810	0.000000	-0.017157	0.000000	0.006011	-0.000089	0.000000	0.000000
31.349260	24.599782	11.321447	0.163718	-0.166701	3.072121	0.000000	-0.017157	0.000000	0.005981	-0.000089	0.000000	0.000000
31.682593	24.495274	11.442668	0.149805	-0.196962	3.066431	0.000000	-0.017157	0.000000	0.005952	-0.000089	0.000000	0.000000
32.017177	24.399703	11.584631	0.135839	-0.227337	3.060720	0.000000	-0.017157	0.000000	0.005922	-0.000089	0.000000	0.000000
32.314499	24.322641	11.727829	0.063066	-0.225235	3.055647	0.000000	-0.009574	0.000000	0.005895	-0.000074	0.000000	0.000000
32.863559	23.836893	12.214158	0.816196	-0.665668	3.025536	0.000000	-0.100259	0.000000	0.005803	-0.000263	0.000000	0.000000
33.412619	22.550917	13.207221	1.511653	-1.153521	2.946144	0.000000	-0.189169	0.000000	0.005607	-0.000448	0.000000	0.000000
33.961679	20.555587	14.777756	2.100298	-1.723549	2.818875	0.000000	-0.274731	0.000000	0.005312	-0.000625	0.000000	0.000000
34.510739	17.991906	17.037638	2.540542	-2.416356	2.645984	0.000000	-0.355429	0.000000	0.004923	-0.000791	0.000000	0.000000
34.956699	15.999509	19.059162	1.942480	-2.097405	2.504161	0.000000	-0.282325	0.000000	0.004598	-0.000667	0.000000	0.000000
35.397659	14.514164	20.733024	1.438254	-1.683857	2.395335	0.000000	-0.212874	0.000000	0.004329	-0.000552	0.000000	0.000000
35.838619	13.443012	22.006830	0.999754	-1.193687	2.316528	0.000000	-0.145843	0.000000	0.004109	-0.000444	0.000000	0.000000
36.279579	12.737096	22.822621	0.606942	-0.649200	2.266842	0.000000	-0.080468	0.000000	0.003937	-0.000340	0.000000	0.000000
36.721789	12.363481	23.143593	0.270977	-0.129839	2.245689	0.000000	-0.021312	0.000000	0.003809	-0.000249	0.000000	0.000000
37.019112	12.210021	23.224685	0.245162	-0.142902	2.239426	0.000000	-0.021312	0.000000	0.003735	-0.000249	0.000000	0.000000
37.352445	12.056226	23.324835	0.216221	-0.157548	2.232405	0.000000	-0.021312	0.000000	0.003652	-0.000249	0.000000	0.000000
37.685779	11.921726	23.434749	0.187281	-0.172194	2.225384	0.000000	-0.021312	0.000000	0.003569	-0.000249	0.000000	0.000000
38.020362	11.806123	23.554894	0.158231	-0.186894	2.218337	0.000000	-0.021312	0.000000	0.003485	-0.000249	0.000000	0.000000
38.317684	11.719703	23.669922	0.160222	-0.256201	2.212074	0.000000	-0.026561	0.000000	0.003411	-0.000257	0.000000	0.000000
38.758644	11.728250	23.633619	-0.179750	0.338210	2.214419	0.000000	0.036791	0.000000	0.003317	-0.000171	0.000000	0.000000
39.199604	12.039126	23.077880	-0.527934	0.917230	2.244730	0.000000	0.100564	0.000000	0.003260	-0.000086	0.000000	0.000000
39.640564	12.666535	22.027993	-0.900240	1.454512	2.303354	0.000000	0.165483	0.000000	0.003241	-0.000002	0.000000	0.000000
40.081524	13.639148	20.531731	-1.313682	1.925610	2.390958	0.000000	0.232287	0.000000	0.003258	0.000082	0.000000	0.000000
40.527484	15.018940	18.634527	-1.791023	2.310461	2.510020	0.000000	0.302154	0.000000	0.003314	0.000167	0.000000	0.000000
41.076544	16.781305	16.502222	-1.399555	1.595834	2.655261	0.000000	0.226315	0.000000	0.003376	0.000059	0.000000	0.000000
41.625604	18.056569	15.088042	-0.909214	0.994885	2.757754	0.000000	0.146463	0.000000	0.003378	-0.000051	0.000000	0.000000
42.174664	18.754637	14.291248	-0.354642	0.464807	2.815679	0.000000	0.064012	0.000000	0.003320	-0.000159	0.000000	0.000000
42.723724	18.826193	14.055082	0.224980	-0.032160	2.828009	0.000000	-0.019577	0.000000	0.003203	-0.000265	0.000000	0.000000
43.022297	18.725303	14.059266	0.160766	-0.017621	2.824387	0.000000	-0.012388	0.000000	0.003127	-0.000257	0.000000	0.000000
43.502297	18.583590	14.092575	0.134470	-0.051772	2.818564	0.000000	-0.012388	0.000000	0.003003	-0.000257	0.000000	0.000000
43.982297	18.467121	14.158669	0.108173	-0.085924	2.812741	0.000000	-0.012388	0.000000	0.002880	-0.000257	0.000000	0.000000
44.462297	18.375897	14.257549	0.081877	-0.120076	2.806918	0.000000	-0.012388	0.000000	0.002757	-0.000257	0.000000	0.000000
44.942297	18.309918	14.389215	0.055581	-0.154228	2.801095	0.000000	-0.012388	0.000000	0.002633	-0.000257	0.000000	0.000000
45.423547	18.269335	14.553957	-0.061300	-0.116359	2.795275	0.000000	0.001462	0.000000	0.002510	-0.000244	0.000000	0.000000
45.720870	18.310648	14.629303	-0.124495	-0.099677	2.795782	0.000000	0.008616	0.000000	0.002437	-0.000238	0.000000	0.000000
46.269930	18.138915	15.021517	0.435264	-0.618851	2.777996	0.000000	-0.073838	0.000000	0.002285	-0.000315	0.000000	0.000000
46.818990	17.365788	16.004579	0.964270	-1.182107	2.715267	0.000000	-0.154987	0.000000	0.002093	-0.000386	0.000000	0.000000
47.368050	16.045890	17.648509	1.425152	-1.829564	2.608706	0.000000	-0.233394	0.000000	0.001863	-0.000450	0.000000	0.000000
47.917110	14.272473	20.070401	1.785353	-2.607342	2.460199	0.000000	-0.307668	0.000000	0.001600	-0.000506	0.000000	0.000000
48.363070	12.891714	22.223358	1.321519	-2.199971	2.338543	0.000000	-0.239137	0.000000	0.001384	-0.000467	0.000000	0.000000
48.804030	11.906128	23.946957	0.921851	-1.693826	2.247791	0.000000	-0.173729	0.000000	0.001185	-0.000434	0.000000	0.000000
49.244990	11.253197	25.188345	0.564306	-1.110612	2.185407	0.000000	-0.110295	0.000000	0.001000	-0.000406	0.000000	0.000000
49.685950	10.903086	25.891043	0.232546	-0.476866	2.150682	0.000000	-0.048113	0.000000	0.000827	-0.000382	0.000000	0.000000
50.128160	10.839950	26.022792	-0.062287	0.115247	2.143233	0.000000	0.008303	0.000000	0.000662	-0.000365	0.000000	0.000000
50.425482	10.885175	25.957703	-0.089821	0.103669	2.145810	0.000000	0.008303	0.000000	0.000554	-0.000365	0.000000	0.000000
50.758816	10.955346	25.892916	-0.120691	0.090690	2.148699	0.000000	0.008303	0.000000	0.000432	-0.000365	0.000000	0.000000
51.092149	11.046097	25.836783	-0.151561	0.077711	2.151589	0.000000	0.008303	0.000000	0.000310	-0.000365	0.000000	0.000000
51.426732	11.157657	25.789663	-0.092028	-0.144536	2.154467	0.000000	-0.009175	0.000000	0.000188	-0.000366	0.000000	0.000000
51.724055	11.220371	25.879110	-0.091406	-0.219856	2.151848	0.000000	-0.014448	0.000000	0.000080	-0.000366	0.000000	0.000000
52.165015	11.447242	25.785009	-0.425157	0.432444	2.159265	0.000000	0.047411	0.000000	-0.000082	-0.000366	0.000000	0.000000
52.605975	11.975870	25.122146	-0.778329	1.065066	2.194054	0.000000	0.109814	0.000000	-0.000244	-0.000371	0.000000	0.000000
53.046935	12.830404	23.920685	-1.167058	1.649228	2.256612	0.000000	0.173472	0.000000	-0.000409	-0.000379	0.000000	0.000000
53.487895	14.049880	22.235292	-1.609102	2.158351	2.347655	0.000000	0.239109	0.000000	-0.000579	-0.000392	0.000000	0.000000
53.933855	15.710874	20.117469	-2.128920	2.570596	2.469729	0.000000	0.307872	0.000000	-0.000757	-0.000409	0.000000	0.000000
54.482915	17.849046	17.734174	-1.742506	1.795760	2.618721	0.000000	0.233289	0.000000	-0.000975	-0.000381	0.000000	0.000000
55.031975	19.492386	16.126929	-1.233023	1.148830	2.725546	0.000000	0.154562	0.000000	-0.001175	-0.000346	0.000000	0.000000
55.581035	20.524833	15.181250	-0.636457	0.583728	2.788306	0.000000	0.073088	0.000000	-0.001354	-0.000305	0.000000	0.000000
56.130095	20.873474	14.829775	0.005057	0.060203	2.805886	0.000000	-0.009687	0.000000	-0.001509	-0.000259	0.000000	0.000000
56.428668	20.907712	14.776435	-0.064508	0.079160	2.805289	0.000000	-0.002263	0.000000	-0.001587	-0.000263	0.000000	0.000000
56.762001	20.956054	14.731228	-0.080518	0.056461	2.804622	0.000000	-0.002263	0.000000	-0.001675	-0.000263	0.000000	0.000000
57.095334	21.015069	14.701154	-0.096527	0.033761	2.803955	0.000000	-0.002263	0.000000	-0.001763	-0.000263	0.000000	0.000000
57.429918	21.085038	14.686186	-0.112597	0.010976	2.803286	0.000000	-0.002263	0.000000	-0.001850	-0.000263	0.000000	0.000000
57.727240	21.156242	14.685678	-0.183042	0.029660	2.802692	0.000000	0.005178	0.000000	-0.001929	-0.000268	0.000000	0.000000
58.276300	20.995865	14.934880	0.473272	-0.486224	2.782944	0.000000	-0.077458	0.000000	-0.002058	-0.000203	0.000000	0.000000
58.825360	20.128994	15.766147	1.096156	-1.036738	2.718102	0.000000	-0.158722	0.000000	-0.002151	-0.000135	0.000000	0.000000
59.374420	18.616858	17.238680	1.641618	-1.661092	2.609312	0.000000	-0.237174	0.000000	-0.002206	-0.000065	0.000000	0.000000
59.923480	16.566254	19.457358	2.071133	-2.403754	2.458505	0.000000	-0.311420	0.000000	-0.002222	0.000007	0.000000	0.000000
60.369440	14.960480	21.429224	1.542396	-1.999291	2.334962	0.000000	-0.242976	0.000000	-0.002232	-0.000051	0.000000	0.000000
60.810400	13.804844	22.980416	1.088325	-1.505198	2.242339	0.000000	-0.177690	0.000000	-0.002267	-0.000109	0.000000	0.000000
61.251360	13.026288	24.063895	0.683972	-0.942624	2.178055	0.000000	-0.114426	0.000000	-0.002327	-0.000168	0.000000	0.000000
61.692320	12.589245	24.630367	0.310866	-0.337165	2.141380	0.000000	-0.052464	0.000000	-0.002415	-0.000229	0.000000	0.000000
62.134530	12.473793	24.653503	-0.016820	0.221787	2.131902	0.000000	0.003552	0.000000	-0.002530	-0.000286	0.000000	0.000000
62.431853	12.490884	24.525381	-0.040663	0.209134	2.133043	0.000000	0.003552	0.000000	-0.002615	-0.000286	0.000000	0.000000
62.765186	12.526902	24.390686	-0.067393	0.194948	2.134323	0.000000	0.003552	0.000000	-0.002711	-0.000286	0.000000	0.000000
63.098520	12.580741	24.265449	-0.094123	0.180763	2.135602	0.000000	0.003552	0.000000	-0.002806	-0.000286	0.000000	0.000000
63.433103	12.652702	24.149253	-0.120954	0.166524	2.136886	0.000000	0.003552	0.000000	-0.002902	-0.000286	0.000000	0.000000
63.730426	12.731712	24.053999	-0.112700	0.093133	2.138027	0.000000	-0.001838	0.000000	-0.002987	-0.000279	0.000000	0.000000
64.171386	12.992727	23.707027	-0.481613	0.690763	2.150914	0.000000	0.059730	0.000000	-0.003127	-0.000358	0.000000	0.000000
64.612346	13.587496	22.844915	-0.872523	1.256966	2.191108	0.000000	0.121983	0.000000	-0.003303	-0.000441	0.000000	0.000000
65.053306	14.543185	21.506890	-1.303287	1.765981	2.259069	0.000000	0.185629	0.000000	-0.003517	-0.000529	0.000000	0.000000
65.494266	15.903440	19.753830	-1.793581	2.194652	2.355573	0.000000	0.251395	0.000000	-0.003770	-0.000622	0.000000	0.000000
65.940226	17.753620	17.640699	-2.370415	2.524136	2.483293	0.000000	0.320420	0.000000	-0.004070	-0.000724	0.000000	0.000000
66.489286	20.123801	15.277052	-1.921447	1.806432	2.639166	0.000000	0.245295	0.000000	-0.004430	-0.000586	0.000000	0.000000
67.038346	21.923136	13.626645	-1.336795	1.217383	2.752457	0.000000	0.165810	0.000000	-0.004712	-0.000438	0.000000	0.000000
67.587406	23.024576	12.571929	-0.657747	0.715035	2.821153	0.000000	0.083377	0.000000	-0.004910	-0.000282	0.000000	0.000000
68.136466	23.350354	12.037783	0.067744	0.263612	2.844033	0.000000	-0.000539	0.000000	-0.005021	-0.000122	0.000000	0.000000
68.435038	23.351647	11.868860	-0.008586	0.269409	2.846222	0.000000	0.007200	0.000000	-0.005062	-0.000135	0.000000	0.000000
68.768372	23.362129	11.699294	-0.022862	0.239286	2.848667	0.000000	0.007200	0.000000	-0.005107	-0.000135	0.000000	0.000000
69.101705	23.382129	11.549811	-0.037137	0.209163	2.851112	0.000000	0.007200	0.000000	-0.005152	-0.000135	0.000000	0.000000
69.436288	23.411775	11.419963	-0.051467	0.178927	2.853566	0.000000	0.007200	0.000000	-0.005197	-0.000135	0.000000	0.000000
69.733611	23.446184	11.321544	-0.128111	0.182896	2.855748	0.000000	0.014985	0.000000	-0.005237	-0.000149	0.000000	0.000000
70.282671	23.184222	11.347590	0.602390	-0.230616	2.840812	0.000000	-0.069439	0.000000	-0.005272	0.000021	0.000000	0.000000
