#ParticleID	Turn	x[m]	xp	y[m]	yp	z[m]	dE[GeV]# s	beta_x	beta_y	alpha_x	alpha_y	D_x	D_y	D_px	D_py	orbit_x	orbit_px	orbit_y	orbit_py
0.300000	11.906124	25.176350	-0.018386	-0.023815	2.607593	0.000000	0.000528	0.000000	-0.000418	0.000367	0.000000	0.000000
0.601250	11.924826	25.194305	-0.043696	-0.035787	2.607642	0.000000	0.000528	0.000000	-0.000308	0.000367	0.000000	0.000000
0.898573	11.958237	25.219099	-0.039297	-0.109432	2.607689	0.000000	-0.005879	0.000000	-0.000199	0.000368	0.000000	0.000000
1.339533	12.146144	25.035787	-0.388325	0.523561	2.621176	0.000000	0.067810	0.000000	-0.000037	0.000364	0.000000	0.000000
1.780493	12.648499	24.302637	-0.755098	1.132734	2.667295	0.000000	0.142267	0.000000	0.000123	0.000366	0.000000	0.000000
2.221453	13.488257	23.053002	-1.156371	1.690370	2.746570	0.000000	0.218340	0.000000	0.000286	0.000371	0.000000	0.000000
2.662413	14.703790	21.343737	-1.610480	2.171096	2.859904	0.000000	0.296896	0.000000	0.000451	0.000380	0.000000	0.000000
3.108373	16.371629	19.227558	-2.142516	2.554187	3.010439	0.000000	0.379320	0.000000	0.000624	0.000394	0.000000	0.000000
3.657433	18.509935	16.850586	-1.728683	1.800488	3.193342	0.000000	0.286663	0.000000	0.000834	0.000371	0.000000	0.000000
4.206493	20.123649	15.226410	-1.192732	1.175035	3.323913	0.000000	0.188926	0.000000	0.001029	0.000340	0.000000	0.000000
4.755553	21.098772	14.239349	-0.572522	0.633278	3.399839	0.000000	0.087844	0.000000	0.001207	0.000304	0.000000	0.000000
5.304613	21.366414	13.819098	0.088136	0.136627	3.419775	0.000000	-0.014792	0.000000	0.001363	0.000263	0.000000	0.000000
5.603185	21.350914	13.722872	0.018960	0.150022	3.417917	0.000000	-0.005959	0.000000	0.001442	0.000266	0.000000	0.000000
5.936519	21.343480	13.631136	0.003342	0.125185	3.415842	0.000000	-0.005959	0.000000	0.001531	0.000266	0.000000	0.000000
6.269852	21.346458	13.555959	-0.012276	0.100347	3.413767	0.000000	-0.005959	0.000000	0.001619	0.000266	0.000000	0.000000
6.604435	21.359917	13.497151	-0.027952	0.075417	3.411684	0.000000	-0.005959	0.000000	0.001708	0.000266	0.000000	0.000000
6.901758	21.380683	13.458890	-0.096905	0.087952	3.409834	0.000000	0.002817	0.000000	0.001788	0.000271	0.000000	0.000000
7.450818	21.122485	13.623544	0.564509	-0.389597	3.383155	0.000000	-0.099389	0.000000	0.001920	0.000211	0.000000	0.000000
7.999878	20.155631	14.324690	1.186050	-0.894899	3.300794	0.000000	-0.199829	0.000000	0.002018	0.000147	0.000000	0.000000
8.548938	18.548416	15.612274	1.723810	-1.463946	3.164212	0.000000	-0.296721	0.000000	0.002081	0.000081	0.000000	0.000000
9.097998	16.414377	17.578016	2.139800	-2.137274	2.975832	0.000000	-0.388349	0.000000	0.002106	0.000013	0.000000	0.000000
9.543958	14.749230	19.329489	1.607251	-1.773445	2.820878	0.000000	-0.306870	0.000000	0.002124	0.000068	0.000000	0.000000
9.984918	13.536864	20.703348	1.152514	-1.330211	2.702715	0.000000	-0.229377	0.000000	0.002166	0.000123	0.000000	0.000000
10.425878	12.700909	21.658012	0.750436	-0.826450	2.618092	0.000000	-0.154499	0.000000	0.002233	0.000180	0.000000	0.000000
10.866838	12.203171	22.150042	0.382645	-0.285082	2.566044	0.000000	-0.081382	0.000000	0.002325	0.000238	0.000000	0.000000
11.309048	12.020757	22.156502	0.061025	0.216032	2.545958	0.000000	-0.015293	0.000000	0.002444	0.000294	0.000000	0.000000
11.606371	11.991850	22.032216	0.036199	0.201987	2.541324	0.000000	-0.015293	0.000000	0.002531	0.000294	0.000000	0.000000
12.086371	11.976337	21.849193	-0.003881	0.179312	2.533842	0.000000	-0.015293	0.000000	0.002672	0.000294	0.000000	0.000000
12.566371	11.999301	21.687938	-0.043961	0.156636	2.526360	0.000000	-0.015293	0.000000	0.002813	0.000294	0.000000	0.000000
13.046371	12.060742	21.548451	-0.084040	0.133961	2.518879	0.000000	-0.015293	0.000000	0.002954	0.000294	0.000000	0.000000
13.526371	12.160659	21.430732	-0.124120	0.111286	2.511397	0.000000	-0.015293	0.000000	0.003095	0.000294	0.000000	0.000000
14.007621	12.299463	21.334560	-0.164304	0.088552	2.503896	0.000000	-0.015293	0.000000	0.003237	0.000294	0.000000	0.000000
14.304943	12.404542	21.286086	-0.159675	0.024048	2.499261	0.000000	-0.021228	0.000000	0.003324	0.000286	0.000000	0.000000
14.745903	12.704333	21.031995	-0.522612	0.549952	2.505366	0.000000	0.049577	0.000000	0.003469	0.000373	0.000000	0.000000
15.186863	13.333520	20.323380	-0.909431	1.050833	2.542750	0.000000	0.120942	0.000000	0.003654	0.000465	0.000000	0.000000
15.627823	14.320861	19.192481	-1.337811	1.503898	2.611838	0.000000	0.193680	0.000000	0.003880	0.000562	0.000000	0.000000
16.068783	15.711480	17.690755	-1.827326	1.888531	2.713415	0.000000	0.268619	0.000000	0.004151	0.000666	0.000000	0.000000
16.514743	17.592555	15.865024	-2.405194	2.188049	2.850332	0.000000	0.347087	0.000000	0.004473	0.000778	0.000000	0.000000
17.063803	20.007802	13.826866	-1.966965	1.545701	3.016847	0.000000	0.259871	0.000000	0.004859	0.000627	0.000000	0.000000
17.612863	21.862135	12.429878	-1.389758	1.013462	3.134220	0.000000	0.168056	0.000000	0.005159	0.000464	0.000000	0.000000
18.161923	23.024522	11.574551	-0.714353	0.553419	3.200374	0.000000	0.073266	0.000000	0.005367	0.000294	0.000000	0.000000
18.710983	23.412819	11.199957	0.011528	0.132800	3.214137	0.000000	-0.022818	0.000000	0.005480	0.000118	0.000000	0.000000
19.009556	23.444558	11.112182	-0.059576	0.133334	3.209674	0.000000	-0.014811	0.000000	0.005520	0.000132	0.000000	0.000000
19.342889	23.489032	11.033470	-0.073845	0.102804	3.204693	0.000000	-0.014811	0.000000	0.005564	0.000132	0.000000	0.000000
19.676223	23.543018	10.975110	-0.088113	0.072274	3.199712	0.000000	-0.014811	0.000000	0.005608	0.000132	0.000000	0.000000
20.010806	23.607065	10.936865	-0.219398	0.095817	3.194732	0.000000	0.001017	0.000000	0.005652	0.000160	0.000000	0.000000
20.308129	23.741476	10.888035	-0.291623	0.095478	3.194988	0.000000	0.008961	0.000000	0.005699	0.000174	0.000000	0.000000
20.857189	23.652338	11.003963	0.453051	-0.307846	3.173658	0.000000	-0.086382	0.000000	0.005744	-0.000011	0.000000	0.000000
21.406249	22.758134	11.572197	1.165715	-0.733102	3.100416	0.000000	-0.180191	0.000000	0.005687	-0.000196	0.000000	0.000000
21.955309	21.122051	12.633218	1.796014	-1.210582	2.976562	0.000000	-0.270808	0.000000	0.005529	-0.000378	0.000000	0.000000
22.504369	18.859700	14.262606	2.299414	-1.774302	2.804291	0.000000	-0.356626	0.000000	0.005274	-0.000553	0.000000	0.000000
22.950329	17.077988	15.725991	1.709394	-1.493055	2.662743	0.000000	-0.279407	0.000000	0.005057	-0.000419	0.000000	0.000000
23.391289	15.798732	16.893708	1.202309	-1.144804	2.556000	0.000000	-0.205840	0.000000	0.004901	-0.000291	0.000000	0.000000
23.832249	14.940918	17.730039	0.750169	-0.744460	2.481100	0.000000	-0.134614	0.000000	0.004800	-0.000165	0.000000	0.000000
24.273209	14.465341	18.196927	0.332310	-0.310239	2.437190	0.000000	-0.064920	0.000000	0.004754	-0.000042	0.000000	0.000000
24.715418	14.350367	18.272878	-0.036864	0.095242	2.423768	0.000000	-0.001638	0.000000	0.004763	0.000069	0.000000	0.000000
25.012741	14.378457	18.221125	-0.057611	0.078823	2.423261	0.000000	-0.001638	0.000000	0.004783	0.000069	0.000000	0.000000
25.346075	14.424617	18.174712	-0.080870	0.060416	2.422692	0.000000	-0.001638	0.000000	0.004806	0.000069	0.000000	0.000000
25.679408	14.486284	18.140571	-0.104130	0.042008	2.422123	0.000000	-0.001638	0.000000	0.004829	0.000069	0.000000	0.000000
26.013991	14.563480	18.119009	-0.009329	-0.123458	2.421528	0.000000	-0.021283	0.000000	0.004852	0.000030	0.000000	0.000000
26.311314	14.575088	18.197389	0.004333	-0.182662	2.415190	0.000000	-0.026930	0.000000	0.004861	0.000018	0.000000	0.000000
26.752274	14.751155	18.161250	-0.405066	0.264300	2.418404	0.000000	0.041673	0.000000	0.004897	0.000144	0.000000	0.000000
27.193234	15.295096	17.734717	-0.832977	0.699235	2.451892	0.000000	0.110749	0.000000	0.004988	0.000271	0.000000	0.000000
27.634194	16.231774	16.937197	-1.298955	1.102351	2.516036	0.000000	0.181083	0.000000	0.005136	0.000402	0.000000	0.000000
28.075154	17.603999	15.804980	-1.824296	1.455305	2.611564	0.000000	0.253476	0.000000	0.005343	0.000537	0.000000	0.000000
28.521114	19.498415	14.372479	-2.438052	1.743047	2.741176	0.000000	0.329213	0.000000	0.005614	0.000679	0.000000	0.000000
29.070174	21.906816	12.776777	-1.921676	1.180112	2.898936	0.000000	0.245674	0.000000	0.005936	0.000492	0.000000	0.000000
29.619234	23.669703	11.749773	-1.269516	0.701246	3.009663	0.000000	0.157785	0.000000	0.006152	0.000296	0.000000	0.000000
30.168294	24.662497	11.218309	-0.527654	0.272335	3.071395	0.000000	0.067101	0.000000	0.006260	0.000095	0.000000	0.000000
30.717354	24.815040	11.144526	0.251492	-0.137174	3.083037	0.000000	-0.024771	0.000000	0.006256	-0.000108	0.000000	0.000000
31.015927	24.705210	11.218075	0.177644	-0.136703	3.077944	0.000000	-0.017145	0.000000	0.006229	-0.000092	0.000000	0.000000
31.349260	24.591421	11.319300	0.163726	-0.166972	3.072259	0.000000	-0.017145	0.000000	0.006198	-0.000092	0.000000	0.000000
31.682593	24.486910	11.440704	0.149807	-0.197241	3.066575	0.000000	-0.017145	0.000000	0.006167	-0.000092	0.000000	0.000000
32.017177	24.391338	11.582857	0.135837	-0.227624	3.060869	0.000000	-0.017145	0.000000	0.006137	-0.000092	0.000000	0.000000
32.314499	24.314281	11.726227	0.063198	-0.225591	3.055801	0.000000	-0.009576	0.000000	0.006109	-0.000077	0.000000	0.000000
32.863559	23.828535	12.212933	0.816052	-0.666000	3.025691	0.000000	-0.100267	0.000000	0.006013	-0.000273	0.000000	0.000000
33.412619	22.542856	13.206361	1.511243	-1.153853	2.946299	0.000000	-0.189182	0.000000	0.005810	-0.000465	0.000000	0.000000
33.961679	20.548099	14.777277	2.099650	-1.723905	2.819031	0.000000	-0.274750	0.000000	0.005504	-0.000648	0.000000	0.000000
34.510739	17.985227	17.037580	2.539699	-2.416763	2.646141	0.000000	-0.355453	0.000000	0.005101	-0.000820	0.000000	0.000000
34.956699	15.993484	19.059491	1.941825	-2.097850	2.504319	0.000000	-0.282344	0.000000	0.004764	-0.000692	0.000000	0.000000
35.397659	14.508637	20.733760	1.437759	-1.684322	2.395495	0.000000	-0.212889	0.000000	0.004486	-0.000572	0.000000	0.000000
35.838619	13.437853	22.007980	0.999398	-1.194152	2.316689	0.000000	-0.145854	0.000000	0.004258	-0.000460	0.000000	0.000000
36.279579	12.732193	22.824175	0.606709	-0.649643	2.267006	0.000000	-0.080474	0.000000	0.004079	-0.000352	0.000000	0.000000
36.721789	12.358732	23.145522	0.270804	-0.130166	2.245855	0.000000	-0.021307	0.000000	0.003947	-0.000258	0.000000	0.000000
37.019112	12.205377	23.226809	0.244982	-0.143230	2.239597	0.000000	-0.021307	0.000000	0.003870	-0.000258	0.000000	0.000000
37.352445	12.051706	23.327177	0.216032	-0.157875	2.232580	0.000000	-0.021307	0.000000	0.003784	-0.000258	0.000000	0.000000
37.685779	11.917334	23.437309	0.187083	-0.172521	2.225564	0.000000	-0.021307	0.000000	0.003698	-0.000258	0.000000	0.000000
38.020362	11.801867	23.557673	0.158025	-0.187222	2.218521	0.000000	-0.021307	0.000000	0.003611	-0.000258	0.000000	0.000000
38.317684	11.715571	23.672896	0.159964	-0.256470	2.212263	0.000000	-0.026549	0.000000	0.003535	-0.000267	0.000000	0.000000
38.758644	11.724304	23.636795	-0.179918	0.338024	2.214617	0.000000	0.036808	0.000000	0.003437	-0.000177	0.000000	0.000000
39.199604	12.035292	23.081178	-0.528019	0.917136	2.244939	0.000000	0.100586	0.000000	0.003378	-0.000089	0.000000	0.000000
39.640564	12.662743	22.031329	-0.900248	1.454515	2.303574	0.000000	0.165511	0.000000	0.003358	-0.000002	0.000000	0.000000
40.081524	13.635330	20.535019	-1.313612	1.925708	2.391192	0.000000	0.232321	0.000000	0.003376	0.000085	0.000000	0.000000
40.527484	15.015029	18.637682	-1.790874	2.310653	2.510268	0.000000	0.302194	0.000000	0.003434	0.000173	0.000000	0.000000
41.076544	16.777315	16.505213	-1.399555	1.595935	2.655527	0.000000	0.226347	0.000000	0.003498	0.000061	0.000000	0.000000
41.625604	18.052664	15.090966	-0.909362	0.994902	2.758035	0.000000	0.146486	0.000000	0.003500	-0.000053	0.000000	0.000000
42.174664	18.750973	14.294198	-0.354928	0.464741	2.815972	0.000000	0.064025	0.000000	0.003440	-0.000165	0.000000	0.000000
42.723724	18.822909	14.058152	0.224576	-0.032313	2.828311	0.000000	-0.019574	0.000000	0.003319	-0.000275	0.000000	0.000000
43.022297	18.722226	14.062442	0.160418	-0.017796	2.824690	0.000000	-0.012391	0.000000	0.003239	-0.000266	0.000000	0.000000
43.502297	18.580847	14.095915	0.134120	-0.051940	2.818870	0.000000	-0.012391	0.000000	0.003112	-0.000266	0.000000	0.000000
43.982297	18.464715	14.162166	0.107823	-0.086084	2.813050	0.000000	-0.012391	0.000000	0.002984	-0.000266	0.000000	0.000000
44.462297	18.373828	14.261196	0.081525	-0.120229	2.807230	0.000000	-0.012391	0.000000	0.002856	-0.000266	0.000000	0.000000
44.942297	18.308187	14.393005	0.055227	-0.154373	2.801410	0.000000	-0.012391	0.000000	0.002728	-0.000266	0.000000	0.000000
45.423547	18.267946	14.557883	-0.061649	-0.116477	2.795592	0.000000	0.001460	0.000000	0.002600	-0.000253	0.000000	0.000000
45.720870	18.309466	14.633298	-0.124807	-0.099810	2.796101	0.000000	0.008610	0.000000	0.002525	-0.000247	0.000000	0.000000
46.269930	18.138091	15.025726	0.434923	-0.619111	2.778314	0.000000	-0.073855	0.000000	0.002368	-0.000326	0.000000	0.000000
46.818990	17.365339	16.009151	0.963923	-1.182511	2.715580	0.000000	-0.155015	0.000000	0.002168	-0.000400	0.000000	0.000000
47.368050	16.045810	17.653620	1.424823	-1.830142	2.609008	0.000000	-0.233432	0.000000	0.001930	-0.000466	0.000000	0.000000
47.917110	14.272728	20.076262	1.785065	-2.608135	2.460487	0.000000	-0.307715	0.000000	0.001658	-0.000524	0.000000	0.000000
48.363070	12.892212	22.229872	1.321251	-2.200633	2.338819	0.000000	-0.239177	0.000000	0.001433	-0.000484	0.000000	0.000000
48.804030	11.906854	23.953988	0.921592	-1.694329	2.248058	0.000000	-0.173762	0.000000	0.001228	-0.000450	0.000000	0.000000
49.244990	11.254151	25.195742	0.564043	-1.110932	2.185667	0.000000	-0.110321	0.000000	0.001036	-0.000420	0.000000	0.000000
49.685950	10.904275	25.898636	0.232269	-0.476990	2.150938	0.000000	-0.048132	0.000000	0.000856	-0.000396	0.000000	0.000000
50.128160	10.841394	26.030405	-0.062594	0.115326	2.143488	0.000000	0.008291	0.000000	0.000686	-0.000378	0.000000	0.000000
50.425482	10.886801	25.965268	-0.090126	0.103752	2.146066	0.000000	0.008291	0.000000	0.000573	-0.000378	0.000000	0.000000
50.758816	10.957174	25.900426	-0.120993	0.090776	2.148955	0.000000	0.008291	0.000000	0.000447	-0.000378	0.000000	0.000000
51.092149	11.048125	25.844234	-0.151860	0.077800	2.151845	0.000000	0.008291	0.000000	0.000321	-0.000378	0.000000	0.000000
51.426732	11.159885	25.797054	-0.092306	-0.144503	2.154723	0.000000	-0.009190	0.000000	0.000195	-0.000379	0.000000	0.000000
51.724055	11.222763	25.886480	-0.091675	-0.219841	2.152104	0.000000	-0.014463	0.000000	0.000082	-0.000380	0.000000	0.000000
52.165015	11.449895	25.792281	-0.425488	0.432653	2.159522	0.000000	0.047403	0.000000	-0.000085	-0.000380	0.000000	0.000000
52.605975	11.978846	25.129151	-0.778736	1.065460	2.194314	0.000000	0.109812	0.000000	-0.000254	-0.000384	0.000000	0.000000
53.046935	12.833777	23.927267	-1.167560	1.649789	2.256880	0.000000	0.173477	0.000000	-0.000425	-0.000393	0.000000	0.000000
53.487895	14.053743	22.241317	-1.609722	2.159053	2.347932	0.000000	0.239121	0.000000	-0.000601	-0.000406	0.000000	0.000000
53.933855	15.715351	20.122817	-2.129687	2.571407	2.470020	0.000000	0.307891	0.000000	-0.000786	-0.000424	0.000000	0.000000
54.482915	17.854305	17.738750	-1.743163	1.796366	2.619027	0.000000	0.233299	0.000000	-0.001011	-0.000395	0.000000	0.000000
55.031975	19.498278	16.130933	-1.233522	1.149275	2.725862	0.000000	0.154562	0.000000	-0.001218	-0.000359	0.000000	0.000000
55.581035	20.531166	15.184840	-0.636764	0.584043	2.788626	0.000000	0.073078	0.000000	-0.001404	-0.000316	0.000000	0.000000
56.130095	20.880025	14.833080	0.004963	0.060410	2.806203	0.000000	-0.009707	0.000000	-0.001564	-0.000268	0.000000	0.000000
56.428668	20.914343	14.779598	-0.064640	0.079400	2.805604	0.000000	-0.002279	0.000000	-0.001646	-0.000272	0.000000	0.000000
56.762001	20.962771	14.734230	-0.080645	0.056704	2.804935	0.000000	-0.002279	0.000000	-0.001736	-0.000272	0.000000	0.000000
57.095334	21.021869	14.703992	-0.096649	0.034008	2.804266	0.000000	-0.002279	0.000000	-0.001827	-0.000272	0.000000	0.000000
57.429918	21.091919	14.688857	-0.112714	0.011228	2.803594	0.000000	-0.002279	0.000000	-0.001918	-0.000272	0.000000	0.000000
57.727240	21.163191	14.688198	-0.183206	0.029943	2.802998	0.000000	0.005167	0.000000	-0.001999	-0.000278	0.000000	0.000000
58.276300	21.002863	14.937128	0.473342	-0.486008	2.783247	0.000000	-0.077478	0.000000	-0.002134	-0.000211	0.000000	0.000000
58.825360	20.135789	15.768185	1.096455	-1.036572	2.718393	0.000000	-0.158752	0.000000	-0.002230	-0.000140	0.000000	0.000000
59.374420	18.623209	17.240556	1.642124	-1.660964	2.609587	0.000000	-0.237213	0.000000	-0.002287	-0.000067	0.000000	0.000000
59.923480	16.571953	19.459107	2.071811	-2.403655	2.458756	0.000000	-0.311468	0.000000	-0.002303	0.000008	0.000000	0.000000
60.369440	14.965646	21.430854	1.542917	-1.999127	2.335194	0.000000	-0.243018	0.000000	-0.002313	-0.000052	0.000000	0.000000
60.810400	13.809612	22.981873	1.088711	-1.504975	2.242555	0.000000	-0.177726	0.000000	-0.002349	-0.000112	0.000000	0.000000
61.251360	13.030768	24.065131	0.684241	-0.942353	2.178259	0.000000	-0.114457	0.000000	-0.002412	-0.000174	0.000000	0.000000
61.692320	12.593534	24.631347	0.311031	-0.336858	2.141575	0.000000	-0.052489	0.000000	-0.002503	-0.000237	0.000000	0.000000
62.134530	12.477978	24.654200	-0.016716	0.222067	2.132091	0.000000	0.003526	0.000000	-0.002622	-0.000297	0.000000	0.000000
62.431853	12.495005	24.525911	-0.040550	0.209412	2.133227	0.000000	0.003526	0.000000	-0.002711	-0.000297	0.000000	0.000000
62.765186	12.530945	24.391032	-0.067271	0.195225	2.134501	0.000000	0.003526	0.000000	-0.002810	-0.000297	0.000000	0.000000
63.098520	12.584700	24.265611	-0.093993	0.181038	2.135776	0.000000	0.003526	0.000000	-0.002908	-0.000297	0.000000	0.000000
63.433103	12.656571	24.149231	-0.120814	0.166798	2.137055	0.000000	0.003526	0.000000	-0.003008	-0.000297	0.000000	0.000000
63.730426	12.735495	24.053815	-0.112511	0.093344	2.138191	0.000000	-0.001870	0.000000	-0.003096	-0.000289	0.000000	0.000000
64.171386	12.996378	23.706662	-0.481505	0.690962	2.151070	0.000000	0.059703	0.000000	-0.003241	-0.000371	0.000000	0.000000
64.612346	13.591083	22.844385	-0.872491	1.257144	2.191259	0.000000	0.121959	0.000000	-0.003423	-0.000457	0.000000	0.000000
65.053306	14.546771	21.506217	-1.303329	1.766131	2.259218	0.000000	0.185609	0.000000	-0.003645	-0.000548	0.000000	0.000000
65.494266	15.907089	19.753042	-1.793699	2.194767	2.355722	0.000000	0.251379	0.000000	-0.003907	-0.000645	0.000000	0.000000
65.940226	17.757401	17.639830	-2.370609	2.524209	2.483446	0.000000	0.320407	0.000000	-0.004218	-0.000750	0.000000	0.000000
66.489286	20.127708	15.276103	-1.921501	1.806514	2.639323	0.000000	0.245277	0.000000	-0.004592	-0.000608	0.000000	0.000000
67.038346	21.927013	13.625603	-1.336707	1.217479	2.752612	0.000000	0.165787	0.000000	-0.004884	-0.000454	0.000000	0.000000
67.587406	23.028273	12.570773	-0.657524	0.715153	2.821301	0.000000	0.083350	0.000000	-0.005089	-0.000293	0.000000	0.000000
68.136466	23.353737	12.036484	0.068086	0.263759	2.844169	0.000000	-0.000570	0.000000	-0.005204	-0.000126	0.000000	0.000000
68.435038	23.354883	11.867448	-0.008343	0.269595	2.846353	0.000000	0.007181	0.000000	-0.005246	-0.000140	0.000000	0.000000
68.768372	23.365202	11.697762	-0.022616	0.239465	2.848794	0.000000	0.007181	0.000000	-0.005292	-0.000140	0.000000	0.000000
69.101705	23.385037	11.548161	-0.036890	0.209336	2.851234	0.000000	0.007181	0.000000	-0.005339	-0.000140	0.000000	0.000000
69.436288	23.414516	11.418199	-0.051217	0.179093	2.853683	0.000000	0.007181	0.000000	-0.005386	-0.000140	0.000000	0.000000
69.733611	23.448778	11.319683	-0.127961	0.183096	2.855861	0.000000	0.014977	0.000000	-0.005427	-0.000154	0.000000	0.000000
70.282671	23.186608	11.345478	0.602616	-0.230358	2.840920	0.000000	-0.069450	0.000000	-0.005464	0.000022	0.000000	0.000000
