#ParticleID	Turn	x[m]	xp	y[m]	yp	z[m]	dE[GeV]# s	beta_x	beta_y	alpha_x	alpha_y	D_x	D_y	D_px	D_py	orbit_x	orbit_px	orbit_y	orbit_py
0.300000	11.959993	25.323522	-0.019972	-0.021675	2.599349	0.000000	0.000462	0.000000	-0.000855	0.000743	0.000000	0.000000
0.601250	11.979618	25.340167	-0.045170	-0.033576	2.599264	0.000000	0.000462	0.000000	-0.000631	0.000743	0.000000	0.000000
0.898573	12.013872	25.363625	-0.040464	-0.107493	2.599180	0.000000	-0.005937	0.000000	-0.000410	0.000744	0.000000	0.000000
1.339533	12.203434	25.176926	-0.390796	0.529276	2.612433	0.000000	0.067529	0.000000	-0.000084	0.000737	0.000000	0.000000
1.780493	12.708643	24.437158	-0.758988	1.141967	2.658220	0.000000	0.141756	0.000000	0.000242	0.000740	0.000000	0.000000
2.221453	13.552588	23.177974	-1.161863	1.702701	2.737058	0.000000	0.217590	0.000000	0.000570	0.000750	0.000000	0.000000
2.662413	14.773836	21.456659	-1.617827	2.185965	2.849844	0.000000	0.295894	0.000000	0.000904	0.000769	0.000000	0.000000
3.108373	16.449283	19.326309	-2.152088	2.570937	2.999706	0.000000	0.378050	0.000000	0.001253	0.000797	0.000000	0.000000
3.657433	18.596996	16.933203	-1.735901	1.813249	3.181805	0.000000	0.285751	0.000000	0.001678	0.000749	0.000000	0.000000
4.206493	20.217232	15.296755	-1.197076	1.184716	3.311789	0.000000	0.188394	0.000000	0.002074	0.000689	0.000000	0.000000
4.755553	21.195516	14.300412	-0.573673	0.640570	3.387360	0.000000	0.087707	0.000000	0.002432	0.000616	0.000000	0.000000
5.304613	21.462719	13.873212	0.090268	0.142051	3.407179	0.000000	-0.014527	0.000000	0.002748	0.000532	0.000000	0.000000
5.603185	21.445680	13.773938	0.021561	0.155154	3.405277	0.000000	-0.005831	0.000000	0.002909	0.000539	0.000000	0.000000
5.936519	21.436490	13.678763	0.006010	0.130371	3.403154	0.000000	-0.005831	0.000000	0.003088	0.000539	0.000000	0.000000
6.269852	21.437667	13.600109	-0.009540	0.105588	3.401031	0.000000	-0.005831	0.000000	0.003268	0.000539	0.000000	0.000000
6.604435	21.449273	13.537776	-0.025149	0.080713	3.398900	0.000000	-0.005831	0.000000	0.003448	0.000539	0.000000	0.000000
6.901758	21.468360	13.496348	-0.093399	0.092901	3.397007	0.000000	0.002774	0.000000	0.003608	0.000548	0.000000	0.000000
7.450818	21.204797	13.656139	0.570854	-0.385629	3.370288	0.000000	-0.099021	0.000000	0.003877	0.000427	0.000000	0.000000
7.999878	20.229645	14.353355	1.194786	-0.891630	3.288142	0.000000	-0.199053	0.000000	0.004076	0.000298	0.000000	0.000000
8.548938	18.611788	15.637667	1.734317	-1.461150	3.152029	0.000000	-0.295549	0.000000	0.004203	0.000164	0.000000	0.000000
9.097998	16.465528	17.600566	2.151325	-2.134757	2.964367	0.000000	-0.386799	0.000000	0.004255	0.000027	0.000000	0.000000
9.543958	14.790992	19.349375	1.616761	-1.769886	2.810019	0.000000	-0.305597	0.000000	0.004292	0.000138	0.000000	0.000000
9.984918	13.570912	20.719760	1.160515	-1.325826	2.692312	0.000000	-0.228374	0.000000	0.004377	0.000249	0.000000	0.000000
10.425878	12.728428	21.670292	0.757297	-0.821433	2.608004	0.000000	-0.153756	0.000000	0.004512	0.000364	0.000000	0.000000
10.866838	12.225041	22.157717	0.388681	-0.279659	2.556136	0.000000	-0.080892	0.000000	0.004699	0.000483	0.000000	0.000000
11.309048	12.037594	22.159276	0.065844	0.222821	2.536094	0.000000	-0.014880	0.000000	0.004940	0.000595	0.000000	0.000000
11.606371	12.005816	22.030965	0.041037	0.208737	2.531493	0.000000	-0.014880	0.000000	0.005117	0.000595	0.000000	0.000000
12.086371	11.985643	21.841491	0.000989	0.186000	2.524065	0.000000	-0.014880	0.000000	0.005402	0.000595	0.000000	0.000000
12.566371	12.003917	21.673844	-0.039059	0.163263	2.516637	0.000000	-0.014880	0.000000	0.005688	0.000595	0.000000	0.000000
13.046371	12.060636	21.528025	-0.079107	0.140526	2.509209	0.000000	-0.014880	0.000000	0.005974	0.000595	0.000000	0.000000
13.526371	12.155802	21.404034	-0.119155	0.117790	2.501780	0.000000	-0.014880	0.000000	0.006259	0.000595	0.000000	0.000000
14.007621	12.289812	21.301632	-0.159307	0.094994	2.494333	0.000000	-0.014880	0.000000	0.006546	0.000595	0.000000	0.000000
14.304943	12.391902	21.249360	-0.155692	0.032344	2.489730	0.000000	-0.020590	0.000000	0.006723	0.000579	0.000000	0.000000
14.745903	12.688088	20.988422	-0.518237	0.557096	2.495920	0.000000	0.049976	0.000000	0.007017	0.000756	0.000000	0.000000
15.186863	13.313277	20.274099	-0.904471	1.056498	2.533247	0.000000	0.121104	0.000000	0.007391	0.000942	0.000000	0.000000
15.627823	14.296053	19.138891	-1.332050	1.507823	2.602134	0.000000	0.193601	0.000000	0.007850	0.001139	0.000000	0.000000
16.068783	15.681350	17.634452	-1.820517	1.890531	2.703361	0.000000	0.268292	0.000000	0.008397	0.001348	0.000000	0.000000
16.514743	17.556130	15.807657	-2.397127	2.188112	2.839774	0.000000	0.346515	0.000000	0.009049	0.001574	0.000000	0.000000
17.063803	19.963184	13.768696	-1.959502	1.546853	3.005699	0.000000	0.259636	0.000000	0.009830	0.001268	0.000000	0.000000
17.612863	21.810199	12.369702	-1.383383	1.015799	3.122754	0.000000	0.168172	0.000000	0.010438	0.000940	0.000000	0.000000
18.161923	22.966603	11.511017	-0.709485	0.557115	3.188870	0.000000	0.073739	0.000000	0.010860	0.000595	0.000000	0.000000
18.710983	23.350642	11.131470	0.014565	0.138123	3.202880	0.000000	-0.021993	0.000000	0.011089	0.000239	0.000000	0.000000
19.009556	23.378633	11.041573	-0.053419	0.136840	3.198488	0.000000	-0.014424	0.000000	0.011169	0.000267	0.000000	0.000000
19.342889	23.419012	10.960597	-0.067718	0.106086	3.193591	0.000000	-0.014424	0.000000	0.011258	0.000267	0.000000	0.000000
19.676223	23.468923	10.900125	-0.082017	0.075331	3.188694	0.000000	-0.014424	0.000000	0.011347	0.000267	0.000000	0.000000
20.010806	23.528900	10.859910	-0.212944	0.098269	3.183798	0.000000	0.001350	0.000000	0.011436	0.000324	0.000000	0.000000
20.308129	23.659546	10.809651	-0.281812	0.096113	3.184109	0.000000	0.008840	0.000000	0.011532	0.000352	0.000000	0.000000
20.857189	23.561138	10.923713	0.460063	-0.305046	3.162760	0.000000	-0.086166	0.000000	0.011623	-0.000023	0.000000	0.000000
21.406249	22.660896	11.487648	1.169425	-0.727939	3.089778	0.000000	-0.179643	0.000000	0.011507	-0.000398	0.000000	0.000000
21.955309	21.022458	12.541632	1.796135	-1.202698	2.966459	0.000000	-0.269940	0.000000	0.011187	-0.000765	0.000000	0.000000
22.504369	18.761648	14.160753	2.295898	-1.763146	2.794985	0.000000	-0.355459	0.000000	0.010669	-0.001120	0.000000	0.000000
22.950329	16.981909	15.615388	1.707784	-1.484339	2.654109	0.000000	-0.278447	0.000000	0.010230	-0.000848	0.000000	0.000000
23.391289	15.703038	16.776768	1.202663	-1.139012	2.547891	0.000000	-0.205086	0.000000	0.009914	-0.000589	0.000000	0.000000
23.832249	14.843932	17.609437	0.752519	-0.741847	2.473374	0.000000	-0.134055	0.000000	0.009710	-0.000336	0.000000	0.000000
24.273209	14.365309	18.075503	0.336772	-0.310920	2.429711	0.000000	-0.064548	0.000000	0.009617	-0.000087	0.000000	0.000000
24.715418	14.245407	18.153473	-0.031996	0.093685	2.416408	0.000000	-0.001148	0.000000	0.009634	0.000139	0.000000	0.000000
25.012741	14.270645	18.102676	-0.052889	0.077163	2.416025	0.000000	-0.001148	0.000000	0.009675	0.000139	0.000000	0.000000
25.346075	14.313712	18.057408	-0.076312	0.058640	2.415596	0.000000	-0.001148	0.000000	0.009721	0.000139	0.000000	0.000000
25.679408	14.372395	18.024489	-0.099736	0.040117	2.415167	0.000000	-0.001148	0.000000	0.009768	0.000139	0.000000	0.000000
26.013991	14.446708	18.004230	-0.006046	-0.124535	2.414712	0.000000	-0.020737	0.000000	0.009814	0.000059	0.000000	0.000000
26.311314	14.456382	18.083321	0.005444	-0.181413	2.408525	0.000000	-0.026081	0.000000	0.009832	0.000036	0.000000	0.000000
26.752274	14.630267	18.047434	-0.401150	0.262474	2.412043	0.000000	0.042363	0.000000	0.009904	0.000291	0.000000	0.000000
27.193234	15.169537	17.623811	-0.826083	0.694417	2.445714	0.000000	0.111286	0.000000	0.010089	0.000549	0.000000	0.000000
27.634194	16.098849	16.831727	-1.288778	1.094756	2.509920	0.000000	0.181471	0.000000	0.010389	0.000813	0.000000	0.000000
28.075154	17.460698	15.707226	-1.810389	1.445271	2.605391	0.000000	0.253715	0.000000	0.010807	0.001086	0.000000	0.000000
28.521114	19.341238	14.284394	-2.419903	1.731133	2.734828	0.000000	0.329318	0.000000	0.011355	0.001373	0.000000	0.000000
29.070174	21.732561	12.699900	-1.908179	1.171251	2.892396	0.000000	0.245971	0.000000	0.012006	0.000995	0.000000	0.000000
29.619234	23.483909	11.681151	-1.261579	0.694820	3.003137	0.000000	0.158276	0.000000	0.012444	0.000599	0.000000	0.000000
30.168294	24.471464	11.155572	-0.525806	0.267894	3.065091	0.000000	0.067783	0.000000	0.012662	0.000192	0.000000	0.000000
30.717354	24.625407	11.085719	0.247132	-0.139943	3.077163	0.000000	-0.023910	0.000000	0.012654	-0.000218	0.000000	0.000000
31.015927	24.515678	11.162061	0.177282	-0.141401	3.072210	0.000000	-0.016752	0.000000	0.012598	-0.000187	0.000000	0.000000
31.349260	24.402164	11.266482	0.163258	-0.171861	3.066688	0.000000	-0.016752	0.000000	0.012536	-0.000187	0.000000	0.000000
31.682593	24.298000	11.391210	0.149234	-0.202321	3.061166	0.000000	-0.016752	0.000000	0.012474	-0.000187	0.000000	0.000000
32.017177	24.202847	11.536826	0.135158	-0.232896	3.055624	0.000000	-0.016752	0.000000	0.012411	-0.000187	0.000000	0.000000
32.314499	24.126304	11.683342	0.066350	-0.232829	3.050706	0.000000	-0.009633	0.000000	0.012355	-0.000157	0.000000	0.000000
32.863559	23.640377	12.177579	0.813028	-0.672478	3.020697	0.000000	-0.100177	0.000000	0.012160	-0.000554	0.000000	0.000000
33.412619	22.361094	13.178006	1.502235	-1.160040	2.941586	0.000000	-0.188952	0.000000	0.011749	-0.000941	0.000000	0.000000
33.961679	20.378902	14.755894	2.085257	-1.730253	2.814771	0.000000	-0.274390	0.000000	0.011129	-0.001312	0.000000	0.000000
34.510739	17.833938	17.023648	2.520889	-2.423741	2.642494	0.000000	-0.354981	0.000000	0.010312	-0.001659	0.000000	0.000000
34.956699	15.856694	19.052465	1.927193	-2.105878	2.501185	0.000000	-0.281937	0.000000	0.009631	-0.001401	0.000000	0.000000
35.397659	14.382893	20.734306	1.426738	-1.693139	2.392793	0.000000	-0.212550	0.000000	0.009067	-0.001160	0.000000	0.000000
35.838619	13.320261	22.016582	0.991501	-1.203347	2.314344	0.000000	-0.145572	0.000000	0.008606	-0.000932	0.000000	0.000000
36.279579	12.620209	22.840948	0.601589	-0.658793	2.264949	0.000000	-0.080242	0.000000	0.008243	-0.000715	0.000000	0.000000
36.721789	12.250084	23.170193	0.266796	-0.136596	2.244023	0.000000	-0.020898	0.000000	0.007974	-0.000524	0.000000	0.000000
37.019112	12.099165	23.255306	0.240797	-0.149668	2.237966	0.000000	-0.020898	0.000000	0.007818	-0.000524	0.000000	0.000000
37.352445	11.948349	23.359970	0.211650	-0.164323	2.231174	0.000000	-0.020898	0.000000	0.007643	-0.000524	0.000000	0.000000
37.685779	11.816965	23.474403	0.182502	-0.178977	2.224383	0.000000	-0.020898	0.000000	0.007468	-0.000524	0.000000	0.000000
38.020362	11.704629	23.599090	0.153245	-0.193687	2.217566	0.000000	-0.020898	0.000000	0.007293	-0.000524	0.000000	0.000000
38.317684	11.621215	23.718188	0.153788	-0.261105	2.211507	0.000000	-0.025949	0.000000	0.007137	-0.000541	0.000000	0.000000
38.758644	11.634448	23.685616	-0.184056	0.334682	2.214222	0.000000	0.037399	0.000000	0.006939	-0.000360	0.000000	0.000000
39.199604	11.948253	23.132292	-0.530308	0.915236	2.244864	0.000000	0.101177	0.000000	0.006819	-0.000182	0.000000	0.000000
39.640564	12.576973	22.083399	-0.900794	1.454140	2.303786	0.000000	0.166110	0.000000	0.006777	-0.000007	0.000000	0.000000
40.081524	13.549342	20.586669	-1.312447	1.926868	2.391658	0.000000	0.232935	0.000000	0.006813	0.000168	0.000000	0.000000
40.527484	14.927352	18.687478	-1.788012	2.313385	2.510967	0.000000	0.302840	0.000000	0.006928	0.000346	0.000000	0.000000
41.076544	16.688461	16.552702	-1.400068	1.597234	2.656517	0.000000	0.226957	0.000000	0.007056	0.000120	0.000000	0.000000
41.625604	17.966279	15.137691	-0.913199	0.994873	2.759352	0.000000	0.147050	0.000000	0.007059	-0.000109	0.000000	0.000000
42.174664	18.670510	14.341637	-0.361808	0.463389	2.817646	0.000000	0.064532	0.000000	0.006936	-0.000336	0.000000	0.000000
42.723724	18.751395	14.107827	0.215140	-0.035080	2.830364	0.000000	-0.019136	0.000000	0.006691	-0.000556	0.000000	0.000000
43.022297	18.655376	14.114289	0.152566	-0.021372	2.826891	0.000000	-0.012164	0.000000	0.006530	-0.000539	0.000000	0.000000
43.502297	18.521550	14.151138	0.126238	-0.055396	2.821312	0.000000	-0.012164	0.000000	0.006271	-0.000539	0.000000	0.000000
43.982297	18.413000	14.220649	0.099909	-0.089420	2.815732	0.000000	-0.012164	0.000000	0.006012	-0.000539	0.000000	0.000000
44.462297	18.329725	14.322823	0.073580	-0.123443	2.810153	0.000000	-0.012164	0.000000	0.005753	-0.000539	0.000000	0.000000
44.942297	18.271726	14.457660	0.047251	-0.157467	2.804573	0.000000	-0.012164	0.000000	0.005494	-0.000539	0.000000	0.000000
45.423547	18.239176	14.625458	-0.069513	-0.119116	2.798996	0.000000	0.001704	0.000000	0.005235	-0.000514	0.000000	0.000000
45.720870	18.285396	14.702408	-0.131609	-0.103083	2.799657	0.000000	0.008704	0.000000	0.005082	-0.000501	0.000000	0.000000
46.269930	18.121766	15.099643	0.427539	-0.624618	2.782042	0.000000	-0.073885	0.000000	0.004763	-0.000660	0.000000	0.000000
46.818990	17.357080	16.090548	0.956470	-1.190648	2.719449	0.000000	-0.155174	0.000000	0.004359	-0.000808	0.000000	0.000000
47.368050	16.045382	17.745702	1.417813	-1.841491	2.612985	0.000000	-0.233724	0.000000	0.003878	-0.000941	0.000000	0.000000
47.917110	14.279366	20.182994	1.778977	-2.623509	2.464529	0.000000	-0.308143	0.000000	0.003329	-0.001058	0.000000	0.000000
48.363070	12.903968	22.349377	1.315550	-2.213684	2.342914	0.000000	-0.239493	0.000000	0.002875	-0.000978	0.000000	0.000000
48.804030	11.923458	24.083813	0.916046	-1.704514	2.252238	0.000000	-0.173969	0.000000	0.002459	-0.000909	0.000000	0.000000
49.244990	11.275591	25.333131	0.558406	-1.117788	2.189969	0.000000	-0.110417	0.000000	0.002072	-0.000850	0.000000	0.000000
49.685950	10.930758	26.040492	0.226285	-0.480203	2.155401	0.000000	-0.048114	0.000000	0.001708	-0.000802	0.000000	0.000000
50.128160	10.873366	26.173428	-0.069287	0.116108	2.148155	0.000000	0.008450	0.000000	0.001363	-0.000765	0.000000	0.000000
50.425482	10.922736	26.107808	-0.096762	0.104595	2.150895	0.000000	0.008450	0.000000	0.001135	-0.000765	0.000000	0.000000
50.758816	10.997512	26.042380	-0.127566	0.091688	2.153967	0.000000	0.008450	0.000000	0.000880	-0.000765	0.000000	0.000000
51.092149	11.092824	25.985557	-0.158369	0.078781	2.157039	0.000000	0.008450	0.000000	0.000625	-0.000765	0.000000	0.000000
51.426732	11.208916	25.937700	-0.098353	-0.144594	2.160100	0.000000	-0.009074	0.000000	0.000369	-0.000768	0.000000	0.000000
51.724055	11.275365	26.027162	-0.097522	-0.220324	2.157631	0.000000	-0.014358	0.000000	0.000140	-0.000769	0.000000	0.000000
52.165015	11.508174	25.931744	-0.432692	0.435888	2.165293	0.000000	0.047654	0.000000	-0.000199	-0.000770	0.000000	0.000000
52.605975	12.044135	25.264171	-0.787624	1.072265	2.200397	0.000000	0.110216	0.000000	-0.000540	-0.000779	0.000000	0.000000
53.046935	12.907724	24.054827	-1.178535	1.659852	2.263346	0.000000	0.174042	0.000000	-0.000887	-0.000797	0.000000	0.000000
53.487895	14.138389	22.358741	-1.623281	2.171917	2.354860	0.000000	0.239859	0.000000	-0.001245	-0.000825	0.000000	0.000000
53.933855	15.813380	20.227746	-2.146453	2.586474	2.477501	0.000000	0.308812	0.000000	-0.001620	-0.000862	0.000000	0.000000
54.482915	17.969368	17.829403	-1.757494	1.807512	2.627168	0.000000	0.233970	0.000000	-0.002078	-0.000802	0.000000	0.000000
55.031975	19.627132	16.211152	-1.244420	1.157292	2.734501	0.000000	0.154965	0.000000	-0.002499	-0.000728	0.000000	0.000000
55.581035	20.669612	15.257722	-0.643470	0.589501	2.797591	0.000000	0.073200	0.000000	-0.002875	-0.000641	0.000000	0.000000
56.130095	21.023200	14.901196	0.002912	0.063698	2.815314	0.000000	-0.009875	0.000000	-0.003200	-0.000543	0.000000	0.000000
56.428668	21.059381	14.845274	-0.067722	0.083530	2.814784	0.000000	-0.002323	0.000000	-0.003365	-0.000551	0.000000	0.000000
56.762001	21.109829	14.797125	-0.083623	0.060919	2.814194	0.000000	-0.002323	0.000000	-0.003549	-0.000551	0.000000	0.000000
57.095334	21.170878	14.764049	-0.099524	0.038309	2.813603	0.000000	-0.002323	0.000000	-0.003732	-0.000551	0.000000	0.000000
57.429918	21.242816	14.746007	-0.115484	0.015613	2.813010	0.000000	-0.002323	0.000000	-0.003917	-0.000551	0.000000	0.000000
57.727240	21.315716	14.742712	-0.187243	0.035151	2.812484	0.000000	0.005274	0.000000	-0.004081	-0.000562	0.000000	0.000000
58.276300	21.156936	14.986740	0.474433	-0.482249	2.792841	0.000000	-0.077675	0.000000	-0.004352	-0.000425	0.000000	0.000000
58.825360	20.285837	15.814310	1.102595	-1.033992	2.727892	0.000000	-0.159253	0.000000	-0.004546	-0.000281	0.000000	0.000000
59.374420	18.763942	17.284356	1.652885	-1.659373	2.618787	0.000000	-0.238011	0.000000	-0.004660	-0.000132	0.000000	0.000000
59.923480	16.698725	19.501569	2.086443	-2.402931	2.467459	0.000000	-0.312550	0.000000	-0.004691	0.000019	0.000000	0.000000
60.369440	15.080967	21.472004	1.554101	-1.996987	2.343471	0.000000	-0.243891	0.000000	-0.004709	-0.000102	0.000000	0.000000
60.810400	13.916436	23.020473	1.096927	-1.501475	2.250530	0.000000	-0.178394	0.000000	-0.004781	-0.000225	0.000000	0.000000
61.251360	13.131518	24.100067	0.689860	-0.937657	2.186047	0.000000	-0.114926	0.000000	-0.004908	-0.000350	0.000000	0.000000
61.692320	12.690358	24.661672	0.314307	-0.331184	2.149289	0.000000	-0.052763	0.000000	-0.005090	-0.000479	0.000000	0.000000
62.134530	12.572851	24.679156	-0.014619	0.226989	2.139846	0.000000	0.003296	0.000000	-0.005331	-0.000599	0.000000	0.000000
62.431853	12.588576	24.547944	-0.038272	0.214321	2.141004	0.000000	0.003296	0.000000	-0.005509	-0.000599	0.000000	0.000000
62.765186	12.622931	24.409798	-0.064790	0.200118	2.142302	0.000000	0.003296	0.000000	-0.005709	-0.000599	0.000000	0.000000
63.098520	12.674963	24.281120	-0.091308	0.185916	2.143601	0.000000	0.003296	0.000000	-0.005909	-0.000599	0.000000	0.000000
63.433103	12.744969	24.161481	-0.117925	0.171660	2.144904	0.000000	0.003296	0.000000	-0.006110	-0.000599	0.000000	0.000000
63.730426	12.822111	24.063199	-0.108297	0.096328	2.146061	0.000000	-0.002275	0.000000	-0.006288	-0.000584	0.000000	0.000000
64.171386	13.080038	23.713357	-0.479142	0.694090	2.158948	0.000000	0.059495	0.000000	-0.006581	-0.000749	0.000000	0.000000
64.612346	13.673330	22.848353	-0.871865	1.260274	2.199268	0.000000	0.121951	0.000000	-0.006950	-0.000924	0.000000	0.000000
65.053306	14.629074	21.507544	-1.304400	1.769125	2.267484	0.000000	0.185805	0.000000	-0.007398	-0.001109	0.000000	0.000000
65.494266	15.990904	19.751934	-1.796502	2.197495	2.364376	0.000000	0.251787	0.000000	-0.007930	-0.001306	0.000000	0.000000
65.940226	17.844315	17.636533	-2.375156	2.526468	2.492636	0.000000	0.321025	0.000000	-0.008559	-0.001520	0.000000	0.000000
66.489286	20.217522	15.270585	-1.922860	1.808600	2.649131	0.000000	0.245600	0.000000	-0.009315	-0.001231	0.000000	0.000000
67.038346	22.016230	13.617941	-1.334823	1.219527	2.762792	0.000000	0.165799	0.000000	-0.009906	-0.000919	0.000000	0.000000
67.587406	23.113491	12.560899	-0.652560	0.717298	2.831597	0.000000	0.083044	0.000000	-0.010322	-0.000592	0.000000	0.000000
68.136466	23.431869	12.024177	0.075762	0.266147	2.854320	0.000000	-0.001194	0.000000	-0.010554	-0.000253	0.000000	0.000000
68.435038	23.430059	11.852971	-0.003469	0.273237	2.856461	0.000000	0.006905	0.000000	-0.010638	-0.000282	0.000000	0.000000
68.768372	23.437114	11.680887	-0.017695	0.243015	2.858857	0.000000	0.006905	0.000000	-0.010732	-0.000282	0.000000	0.000000
69.101705	23.453653	11.528951	-0.031922	0.212793	2.861253	0.000000	0.006905	0.000000	-0.010826	-0.000282	0.000000	0.000000
69.436288	23.479792	11.396707	-0.046203	0.182458	2.863658	0.000000	0.006905	0.000000	-0.010921	-0.000282	0.000000	0.000000
69.733611	23.511123	11.296184	-0.125820	0.187609	2.865800	0.000000	0.015063	0.000000	-0.011004	-0.000312	0.000000	0.000000
70.282671	23.245549	11.316630	0.606633	-0.225073	2.850859	0.000000	-0.069671	0.000000	-0.011078	0.000045	0.000000	0.000000
