#ParticleID	Turn	x[m]	xp	y[m]	yp	z[m]	dE[GeV]# s	beta_x	beta_y	alpha_x	alpha_y	D_x	D_y	D_px	D_py	orbit_x	orbit_px	orbit_y	orbit_py
0.300000	11.953016	25.310358	-0.020109	-0.021777	2.600436	0.000000	0.000583	0.000000	-0.000770	0.000671	0.000000	0.000000
0.601250	11.972727	25.327066	-0.045322	-0.033685	2.600409	0.000000	0.000583	0.000000	-0.000568	0.000671	0.000000	0.000000
0.898573	12.007076	25.350592	-0.040659	-0.107578	2.600383	0.000000	-0.005816	0.000000	-0.000368	0.000672	0.000000	0.000000
1.339533	12.196733	25.164119	-0.390841	0.528849	2.613727	0.000000	0.067682	0.000000	-0.000073	0.000666	0.000000	0.000000
1.780493	12.701904	24.424872	-0.758884	1.141217	2.659619	0.000000	0.141944	0.000000	0.000221	0.000668	0.000000	0.000000
2.221453	13.545677	23.166480	-1.161604	1.701662	2.738579	0.000000	0.217816	0.000000	0.000517	0.000678	0.000000	0.000000
2.662413	14.766610	21.446194	-1.617401	2.184684	2.851504	0.000000	0.296161	0.000000	0.000820	0.000695	0.000000	0.000000
3.108373	16.441576	19.317076	-2.151471	2.569470	3.001526	0.000000	0.378362	0.000000	0.001135	0.000720	0.000000	0.000000
3.657433	18.588731	16.925379	-1.735554	1.812144	3.183818	0.000000	0.286001	0.000000	0.001519	0.000677	0.000000	0.000000
4.206493	20.208722	15.289988	-1.197026	1.183895	3.313958	0.000000	0.188577	0.000000	0.001877	0.000622	0.000000	0.000000
4.755553	21.187094	14.294421	-0.573926	0.639974	3.389642	0.000000	0.087818	0.000000	0.002201	0.000556	0.000000	0.000000
5.304613	21.454715	13.867774	0.089729	0.141638	3.409532	0.000000	-0.014490	0.000000	0.002486	0.000480	0.000000	0.000000
5.603185	21.438063	13.768701	0.020913	0.154812	3.407664	0.000000	-0.005768	0.000000	0.002631	0.000487	0.000000	0.000000
5.936519	21.429306	13.673756	0.005357	0.130022	3.405579	0.000000	-0.005768	0.000000	0.002793	0.000487	0.000000	0.000000
6.269852	21.430920	13.595338	-0.010198	0.105232	3.403494	0.000000	-0.005768	0.000000	0.002956	0.000487	0.000000	0.000000
6.604435	21.442968	13.533246	-0.025812	0.080350	3.401402	0.000000	-0.005768	0.000000	0.003119	0.000487	0.000000	0.000000
6.901758	21.462449	13.492036	-0.094217	0.092614	3.399542	0.000000	0.002869	0.000000	0.003263	0.000495	0.000000	0.000000
7.450818	21.199875	13.652072	0.569857	-0.385793	3.372879	0.000000	-0.099008	0.000000	0.003505	0.000386	0.000000	0.000000
7.999878	20.225876	14.349404	1.193682	-0.891684	3.290736	0.000000	-0.199122	0.000000	0.003685	0.000269	0.000000	0.000000
8.548938	18.609258	15.633709	1.733183	-1.461096	3.154576	0.000000	-0.295700	0.000000	0.003800	0.000148	0.000000	0.000000
9.097998	16.464231	17.596477	2.150244	-2.134590	2.966814	0.000000	-0.387031	0.000000	0.003847	0.000024	0.000000	0.000000
9.543958	14.790603	19.345187	1.615817	-1.769857	2.812381	0.000000	-0.305769	0.000000	0.003880	0.000124	0.000000	0.000000
9.984918	13.571320	20.715595	1.159653	-1.325925	2.694620	0.000000	-0.228486	0.000000	0.003957	0.000225	0.000000	0.000000
10.425878	12.729575	21.666265	0.756476	-0.821658	2.610289	0.000000	-0.153809	0.000000	0.004079	0.000329	0.000000	0.000000
10.866838	12.226903	22.153937	0.387865	-0.280000	2.558427	0.000000	-0.080887	0.000000	0.004247	0.000436	0.000000	0.000000
11.309048	12.040182	22.155847	0.065136	0.222156	2.538423	0.000000	-0.014851	0.000000	0.004465	0.000538	0.000000	0.000000
11.606371	12.008822	22.027930	0.040337	0.208074	2.533848	0.000000	-0.014851	0.000000	0.004625	0.000538	0.000000	0.000000
12.086371	11.989316	21.839091	0.000301	0.185340	2.526461	0.000000	-0.014851	0.000000	0.004883	0.000538	0.000000	0.000000
12.566371	12.008243	21.672077	-0.039734	0.162606	2.519075	0.000000	-0.014851	0.000000	0.005141	0.000538	0.000000	0.000000
13.046371	12.065605	21.526887	-0.079770	0.139872	2.511688	0.000000	-0.014851	0.000000	0.005399	0.000538	0.000000	0.000000
13.526371	12.161401	21.403522	-0.119806	0.117138	2.504302	0.000000	-0.014851	0.000000	0.005657	0.000538	0.000000	0.000000
14.007621	12.296032	21.301746	-0.159945	0.094345	2.496896	0.000000	-0.014851	0.000000	0.005916	0.000538	0.000000	0.000000
14.304943	12.398502	21.249854	-0.156115	0.031350	2.492319	0.000000	-0.020606	0.000000	0.006076	0.000523	0.000000	0.000000
14.745903	12.695118	20.989784	-0.518819	0.556135	2.498544	0.000000	0.050027	0.000000	0.006341	0.000683	0.000000	0.000000
15.186863	13.320880	20.276286	-0.905239	1.055613	2.535943	0.000000	0.121222	0.000000	0.006679	0.000851	0.000000	0.000000
15.627823	14.304399	19.141822	-1.333036	1.507055	2.604939	0.000000	0.193789	0.000000	0.007094	0.001029	0.000000	0.000000
16.068783	15.690639	17.638013	-1.821763	1.889916	2.706314	0.000000	0.268552	0.000000	0.007588	0.001218	0.000000	0.000000
16.514743	17.566595	15.811724	-2.398672	2.187662	2.842918	0.000000	0.346850	0.000000	0.008177	0.001422	0.000000	0.000000
17.063803	19.975134	13.773292	-1.960778	1.546383	3.009069	0.000000	0.259869	0.000000	0.008883	0.001146	0.000000	0.000000
17.612863	21.823302	12.374861	-1.384308	1.015273	3.126277	0.000000	0.168296	0.000000	0.009432	0.000849	0.000000	0.000000
18.161923	22.980458	11.516814	-0.710000	0.556495	3.192468	0.000000	0.073750	0.000000	0.009813	0.000537	0.000000	0.000000
18.710983	23.364800	11.138027	0.014493	0.137363	3.206474	0.000000	-0.022095	0.000000	0.010020	0.000216	0.000000	0.000000
19.009556	23.393212	11.048393	-0.054095	0.136395	3.202087	0.000000	-0.014439	0.000000	0.010092	0.000241	0.000000	0.000000
19.342889	23.434039	10.967707	-0.068386	0.105663	3.197193	0.000000	-0.014439	0.000000	0.010172	0.000241	0.000000	0.000000
19.676223	23.484393	10.907509	-0.082676	0.074931	3.192300	0.000000	-0.014439	0.000000	0.010253	0.000241	0.000000	0.000000
20.010806	23.544808	10.867554	-0.213675	0.097929	3.187408	0.000000	0.001353	0.000000	0.010334	0.000292	0.000000	0.000000
20.308129	23.675870	10.817499	-0.283187	0.096086	3.187728	0.000000	0.008935	0.000000	0.010420	0.000318	0.000000	0.000000
20.857189	23.578675	10.931704	0.459234	-0.305285	3.166408	0.000000	-0.086186	0.000000	0.010502	-0.000021	0.000000	0.000000
21.406249	22.679035	11.496015	1.169203	-0.728407	3.093374	0.000000	-0.179778	0.000000	0.010398	-0.000359	0.000000	0.000000
21.955309	21.040542	12.550636	1.796539	-1.203426	2.969922	0.000000	-0.270186	0.000000	0.010109	-0.000692	0.000000	0.000000
22.504369	18.779015	14.170698	2.296908	-1.764185	2.798239	0.000000	-0.355811	0.000000	0.009641	-0.001012	0.000000	0.000000
22.950329	16.998605	15.626129	1.708425	-1.485149	2.657186	0.000000	-0.278721	0.000000	0.009244	-0.000767	0.000000	0.000000
23.391289	15.719363	16.788085	1.202941	-1.139538	2.550836	0.000000	-0.205284	0.000000	0.008958	-0.000532	0.000000	0.000000
23.832249	14.860189	17.621073	0.752442	-0.742067	2.476229	0.000000	-0.134181	0.000000	0.008774	-0.000303	0.000000	0.000000
24.273209	14.381802	18.087188	0.336336	-0.310825	2.432519	0.000000	-0.064602	0.000000	0.008690	-0.000078	0.000000	0.000000
24.715418	14.262445	18.164945	-0.032453	0.093660	2.419208	0.000000	-0.001192	0.000000	0.008705	0.000126	0.000000	0.000000
25.012741	14.287948	18.114159	-0.053322	0.077149	2.418816	0.000000	-0.001192	0.000000	0.008743	0.000126	0.000000	0.000000
25.346075	14.331295	18.068897	-0.076718	0.058637	2.418377	0.000000	-0.001192	0.000000	0.008784	0.000126	0.000000	0.000000
25.679408	14.390238	18.035976	-0.100114	0.040126	2.417938	0.000000	-0.001192	0.000000	0.008826	0.000126	0.000000	0.000000
26.013991	14.464795	18.015708	-0.006250	-0.124607	2.417472	0.000000	-0.020804	0.000000	0.008868	0.000054	0.000000	0.000000
26.311314	14.474590	18.094830	0.005640	-0.181918	2.411268	0.000000	-0.026209	0.000000	0.008884	0.000033	0.000000	0.000000
26.752274	14.648482	18.059253	-0.401374	0.262282	2.414751	0.000000	0.042303	0.000000	0.008949	0.000263	0.000000	0.000000
27.193234	15.188123	17.635663	-0.826736	0.694546	2.448427	0.000000	0.111294	0.000000	0.009116	0.000496	0.000000	0.000000
27.634194	16.118184	16.843337	-1.289888	1.095201	2.512679	0.000000	0.181548	0.000000	0.009387	0.000734	0.000000	0.000000
28.075154	17.481190	15.718326	-1.812002	1.446015	2.608237	0.000000	0.253863	0.000000	0.009765	0.000981	0.000000	0.000000
28.521114	19.363333	14.294753	-2.422069	1.732120	2.737803	0.000000	0.329536	0.000000	0.010260	0.001241	0.000000	0.000000
29.070174	21.756592	12.709379	-1.909657	1.171924	2.895522	0.000000	0.246093	0.000000	0.010849	0.000899	0.000000	0.000000
29.619234	23.509084	11.690060	-1.262274	0.695223	3.006341	0.000000	0.158299	0.000000	0.011245	0.000541	0.000000	0.000000
30.168294	24.496920	11.164182	-0.525675	0.268055	3.068300	0.000000	0.067705	0.000000	0.011441	0.000173	0.000000	0.000000
30.717354	24.650266	11.094280	0.248077	-0.140014	3.080300	0.000000	-0.024088	0.000000	0.011434	-0.000197	0.000000	0.000000
31.015927	24.540442	11.170451	0.177481	-0.141117	3.075318	0.000000	-0.016834	0.000000	0.011384	-0.000169	0.000000	0.000000
31.349260	24.426792	11.274674	0.163470	-0.171552	3.069763	0.000000	-0.016834	0.000000	0.011327	-0.000169	0.000000	0.000000
31.682593	24.322482	11.399186	0.149459	-0.201987	3.064208	0.000000	-0.016834	0.000000	0.011271	-0.000169	0.000000	0.000000
32.017177	24.227174	11.544570	0.135396	-0.232536	3.058632	0.000000	-0.016834	0.000000	0.011215	-0.000169	0.000000	0.000000
32.314499	24.150466	11.690875	0.065875	-0.232103	3.053683	0.000000	-0.009624	0.000000	0.011164	-0.000141	0.000000	0.000000
32.863559	23.664650	12.184400	0.813342	-0.671915	3.023636	0.000000	-0.100260	0.000000	0.010988	-0.000500	0.000000	0.000000
33.412619	22.384642	13.184263	1.503319	-1.159599	2.944418	0.000000	-0.189126	0.000000	0.010617	-0.000850	0.000000	0.000000
33.961679	20.400934	14.761693	2.087042	-1.729901	2.817428	0.000000	-0.274650	0.000000	0.010057	-0.001185	0.000000	0.000000
34.510739	17.853757	17.029062	2.523259	-2.423449	2.644913	0.000000	-0.355320	0.000000	0.009319	-0.001499	0.000000	0.000000
34.956699	15.874715	19.057492	1.929035	-2.105393	2.503406	0.000000	-0.282220	0.000000	0.008703	-0.001265	0.000000	0.000000
35.397659	14.399543	20.738797	1.428114	-1.692462	2.394850	0.000000	-0.212779	0.000000	0.008193	-0.001048	0.000000	0.000000
35.838619	13.335910	22.020388	0.992473	-1.202510	2.316269	0.000000	-0.145751	0.000000	0.007777	-0.000842	0.000000	0.000000
36.279579	12.635185	22.843950	0.602197	-0.657836	2.266771	0.000000	-0.080374	0.000000	0.007450	-0.000645	0.000000	0.000000
36.721789	12.264682	23.172317	0.267328	-0.136012	2.245772	0.000000	-0.021031	0.000000	0.007206	-0.000473	0.000000	0.000000
37.019112	12.113439	23.257081	0.241353	-0.149080	2.239660	0.000000	-0.021031	0.000000	0.007065	-0.000473	0.000000	0.000000
37.352445	11.962244	23.361352	0.212232	-0.163731	2.232807	0.000000	-0.021031	0.000000	0.006908	-0.000473	0.000000	0.000000
37.685779	11.830463	23.475390	0.183112	-0.178383	2.225955	0.000000	-0.021031	0.000000	0.006750	-0.000473	0.000000	0.000000
38.020362	11.717710	23.599678	0.153882	-0.193089	2.219076	0.000000	-0.021031	0.000000	0.006591	-0.000473	0.000000	0.000000
38.317684	11.633914	23.718412	0.154669	-0.260877	2.212963	0.000000	-0.026122	0.000000	0.006451	-0.000489	0.000000	0.000000
38.758644	11.646497	23.685640	-0.183446	0.334906	2.215590	0.000000	0.037262	0.000000	0.006271	-0.000325	0.000000	0.000000
39.199604	11.959876	23.132128	-0.529942	0.915448	2.246168	0.000000	0.101073	0.000000	0.006164	-0.000165	0.000000	0.000000
39.640564	12.588369	22.083066	-0.900655	1.454330	2.305046	0.000000	0.166038	0.000000	0.006126	-0.000006	0.000000	0.000000
40.081524	13.560702	20.586194	-1.312527	1.927030	2.392895	0.000000	0.232893	0.000000	0.006158	0.000152	0.000000	0.000000
40.527484	14.938855	18.686904	-1.788301	2.313495	2.512201	0.000000	0.302827	0.000000	0.006262	0.000313	0.000000	0.000000
41.076544	16.700013	16.552024	-1.399909	1.597352	2.657745	0.000000	0.226906	0.000000	0.006378	0.000109	0.000000	0.000000
41.625604	17.977403	15.136889	-0.912605	0.995005	2.760540	0.000000	0.146961	0.000000	0.006381	-0.000098	0.000000	0.000000
42.174664	18.680762	14.340686	-0.360824	0.463544	2.818764	0.000000	0.064408	0.000000	0.006271	-0.000303	0.000000	0.000000
42.723724	18.760395	14.106692	0.216445	-0.034893	2.831382	0.000000	-0.019293	0.000000	0.006049	-0.000503	0.000000	0.000000
43.022297	18.663777	14.112926	0.153579	-0.020996	2.827861	0.000000	-0.012277	0.000000	0.005903	-0.000487	0.000000	0.000000
43.502297	18.528977	14.149414	0.127254	-0.055022	2.822202	0.000000	-0.012277	0.000000	0.005670	-0.000487	0.000000	0.000000
43.982297	18.419449	14.218569	0.100929	-0.089049	2.816543	0.000000	-0.012277	0.000000	0.005436	-0.000487	0.000000	0.000000
44.462297	18.335194	14.320388	0.074604	-0.123075	2.810884	0.000000	-0.012277	0.000000	0.005202	-0.000487	0.000000	0.000000
44.942297	18.276210	14.454873	0.048279	-0.157101	2.805225	0.000000	-0.012277	0.000000	0.004968	-0.000487	0.000000	0.000000
45.423547	18.242669	14.622320	-0.068499	-0.118768	2.799569	0.000000	0.001594	0.000000	0.004733	-0.000464	0.000000	0.000000
45.720870	18.288281	14.699066	-0.130796	-0.102575	2.800182	0.000000	0.008625	0.000000	0.004595	-0.000452	0.000000	0.000000
46.269930	18.123733	15.095676	0.428419	-0.623985	2.782490	0.000000	-0.073978	0.000000	0.004307	-0.000596	0.000000	0.000000
46.818990	17.358096	16.085791	0.957357	-1.189843	2.719806	0.000000	-0.155279	0.000000	0.003942	-0.000730	0.000000	0.000000
47.368050	16.045478	17.739932	1.418647	-1.840457	2.613237	0.000000	-0.233838	0.000000	0.003508	-0.000851	0.000000	0.000000
47.917110	14.278633	20.175918	1.779701	-2.622171	2.464668	0.000000	-0.308262	0.000000	0.003011	-0.000956	0.000000	0.000000
48.363070	12.902634	22.341154	1.316231	-2.212479	2.342958	0.000000	-0.239610	0.000000	0.002601	-0.000884	0.000000	0.000000
48.804030	11.921552	24.074596	0.916708	-1.703488	2.252192	0.000000	-0.174087	0.000000	0.002226	-0.000821	0.000000	0.000000
49.244990	11.273114	25.323101	0.559078	-1.116988	2.189835	0.000000	-0.110538	0.000000	0.001875	-0.000768	0.000000	0.000000
49.685950	10.927683	26.029867	0.226998	-0.479665	2.155178	0.000000	-0.048239	0.000000	0.001547	-0.000724	0.000000	0.000000
50.128160	10.869642	26.162453	-0.068479	0.116281	2.147843	0.000000	0.008312	0.000000	0.001234	-0.000692	0.000000	0.000000
50.425482	10.918534	26.096732	-0.095960	0.104763	2.150520	0.000000	0.008312	0.000000	0.001029	-0.000692	0.000000	0.000000
50.758816	10.992778	26.031194	-0.126771	0.091850	2.153521	0.000000	0.008312	0.000000	0.000798	-0.000692	0.000000	0.000000
51.092149	11.087562	25.974266	-0.157581	0.078936	2.156522	0.000000	0.008312	0.000000	0.000568	-0.000692	0.000000	0.000000
51.426732	11.203130	25.926307	-0.097620	-0.144352	2.159513	0.000000	-0.009207	0.000000	0.000336	-0.000694	0.000000	0.000000
51.724055	11.269145	26.015626	-0.096811	-0.220036	2.156981	0.000000	-0.014490	0.000000	0.000130	-0.000695	0.000000	0.000000
52.165015	11.501269	25.920089	-0.431819	0.435867	2.164550	0.000000	0.047503	0.000000	-0.000176	-0.000695	0.000000	0.000000
52.605975	12.036387	25.252671	-0.786552	1.071937	2.199551	0.000000	0.110045	0.000000	-0.000484	-0.000704	0.000000	0.000000
53.046935	12.898937	24.043746	-1.177213	1.659232	2.262387	0.000000	0.173848	0.000000	-0.000798	-0.000720	0.000000	0.000000
53.487895	14.128320	22.348324	-1.621650	2.171032	2.353776	0.000000	0.239638	0.000000	-0.001121	-0.000745	0.000000	0.000000
53.933855	15.801710	20.218217	-2.144441	2.585368	2.476277	0.000000	0.308563	0.000000	-0.001460	-0.000778	0.000000	0.000000
54.482915	17.955660	17.820897	-1.755768	1.806734	2.625776	0.000000	0.233762	0.000000	-0.001873	-0.000724	0.000000	0.000000
55.031975	19.611770	16.203342	-1.243100	1.156786	2.732969	0.000000	0.154804	0.000000	-0.002253	-0.000658	0.000000	0.000000
55.581035	20.653092	15.250332	-0.642647	0.589231	2.795950	0.000000	0.073089	0.000000	-0.002593	-0.000579	0.000000	0.000000
56.130095	21.006097	14.893981	0.003182	0.063645	2.813596	0.000000	-0.009931	0.000000	-0.002887	-0.000490	0.000000	0.000000
56.428668	21.042010	14.838171	-0.067275	0.083337	2.813027	0.000000	-0.002403	0.000000	-0.003036	-0.000498	0.000000	0.000000
56.762001	21.092164	14.790154	-0.083188	0.060716	2.812391	0.000000	-0.002403	0.000000	-0.003202	-0.000498	0.000000	0.000000
57.095334	21.152927	14.757217	-0.099101	0.038095	2.811756	0.000000	-0.002403	0.000000	-0.003368	-0.000498	0.000000	0.000000
57.429918	21.224587	14.739321	-0.115074	0.015390	2.811119	0.000000	-0.002403	0.000000	-0.003534	-0.000498	0.000000	0.000000
57.727240	21.297244	14.736163	-0.186613	0.034786	2.810553	0.000000	0.005164	0.000000	-0.003682	-0.000508	0.000000	0.000000
58.276300	21.138126	14.980492	0.474442	-0.482432	2.790841	0.000000	-0.077722	0.000000	-0.003927	-0.000384	0.000000	0.000000
58.825360	20.267366	15.808174	1.101982	-1.034007	2.725866	0.000000	-0.159235	0.000000	-0.004103	-0.000254	0.000000	0.000000
59.374420	18.746464	17.278155	1.651692	-1.659222	2.616777	0.000000	-0.237929	0.000000	-0.004206	-0.000120	0.000000	0.000000
59.923480	16.682827	19.495122	2.084753	-2.402605	2.465507	0.000000	-0.312405	0.000000	-0.004234	0.000017	0.000000	0.000000
60.369440	15.066383	21.465348	1.552826	-1.996835	2.341572	0.000000	-0.243795	0.000000	-0.004251	-0.000093	0.000000	0.000000
60.810400	13.902808	23.013777	1.096016	-1.501514	2.248656	0.000000	-0.178345	0.000000	-0.004316	-0.000203	0.000000	0.000000
61.251360	13.118546	24.093494	0.689272	-0.937883	2.184172	0.000000	-0.114925	0.000000	-0.004431	-0.000316	0.000000	0.000000
61.692320	12.677776	24.655381	0.314016	-0.331586	2.147387	0.000000	-0.052810	0.000000	-0.004596	-0.000433	0.000000	0.000000
62.134530	12.560405	24.673296	-0.014805	0.226711	2.137889	0.000000	0.003230	0.000000	-0.004814	-0.000542	0.000000	0.000000
62.431853	12.576249	24.542250	-0.038482	0.214042	2.139011	0.000000	0.003230	0.000000	-0.004975	-0.000542	0.000000	0.000000
62.765186	12.610751	24.404290	-0.065026	0.199837	2.140268	0.000000	0.003230	0.000000	-0.005155	-0.000542	0.000000	0.000000
63.098520	12.662950	24.275800	-0.091570	0.185633	2.141525	0.000000	0.003230	0.000000	-0.005336	-0.000542	0.000000	0.000000
63.433103	12.733140	24.156350	-0.118214	0.171376	2.142788	0.000000	0.003230	0.000000	-0.005517	-0.000542	0.000000	0.000000
63.730426	12.810463	24.058232	-0.108815	0.096405	2.143908	0.000000	-0.002305	0.000000	-0.005678	-0.000527	0.000000	0.000000
64.171386	13.068749	23.708377	-0.479411	0.694038	2.156742	0.000000	0.059410	0.000000	-0.005943	-0.000677	0.000000	0.000000
64.612346	13.662193	22.843466	-0.871899	1.260096	2.196979	0.000000	0.121809	0.000000	-0.006276	-0.000835	0.000000	0.000000
65.053306	14.617891	21.502854	-1.304203	1.768828	2.265077	0.000000	0.185604	0.000000	-0.006681	-0.001002	0.000000	0.000000
65.494266	15.979480	19.747536	-1.796066	2.197092	2.361818	0.000000	0.251523	0.000000	-0.007161	-0.001180	0.000000	0.000000
65.940226	17.832428	17.632524	-2.374486	2.525990	2.489887	0.000000	0.320696	0.000000	-0.007730	-0.001373	0.000000	0.000000
66.489286	20.205198	15.266999	-1.922616	1.808251	2.646157	0.000000	0.245361	0.000000	-0.008413	-0.001112	0.000000	0.000000
67.038346	22.003936	13.614657	-1.335014	1.219285	2.759660	0.000000	0.165657	0.000000	-0.008947	-0.000830	0.000000	0.000000
67.587406	23.101679	12.557815	-0.653168	0.717147	2.828377	0.000000	0.083002	0.000000	-0.009323	-0.000535	0.000000	0.000000
68.136466	23.420953	12.021205	0.074785	0.266078	2.851084	0.000000	-0.001134	0.000000	-0.009532	-0.000229	0.000000	0.000000
68.435038	23.419428	11.850193	-0.003925	0.272899	2.853215	0.000000	0.006895	0.000000	-0.009609	-0.000255	0.000000	0.000000
68.768372	23.426789	11.678335	-0.018158	0.242676	2.855598	0.000000	0.006895	0.000000	-0.009694	-0.000255	0.000000	0.000000
69.101705	23.443639	11.526626	-0.032392	0.212452	2.857982	0.000000	0.006895	0.000000	-0.009779	-0.000255	0.000000	0.000000
69.436288	23.470094	11.394610	-0.046679	0.182115	2.860374	0.000000	0.006895	0.000000	-0.009864	-0.000255	0.000000	0.000000
69.733611	23.501694	11.294299	-0.125757	0.187015	2.862504	0.000000	0.014981	0.000000	-0.009940	-0.000282	0.000000	0.000000
70.282671	23.236213	11.315374	0.606405	-0.225631	2.847540	0.000000	-0.069649	0.000000	-0.010006	0.000041	0.000000	0.000000
