#ParticleID	Turn	x[m]	xp	y[m]	yp	z[m]	dE[GeV]# s	beta_x	beta_y	alpha_x	alpha_y	D_x	D_y	D_px	D_py	orbit_x	orbit_px	orbit_y	orbit_py
0.300000	11.828056	24.961635	-0.012837	-0.027709	2.618212	0.000000	-0.000026	0.000000	-0.000000	0.000000	0.000000	0.000000
0.601250	11.843464	24.981968	-0.038310	-0.039787	2.618205	0.000000	-0.000026	0.000000	-0.000000	0.000000	0.000000	0.000000
0.898573	11.873720	25.009172	-0.034333	-0.113037	2.618197	0.000000	-0.006446	0.000000	-0.000000	0.000000	0.000000	0.000000
1.339533	12.056306	24.831474	-0.381302	0.514483	2.631648	0.000000	0.067513	0.000000	0.000000	0.000000	0.000000	0.000000
1.780493	12.551387	24.108601	-0.745692	1.118595	2.677850	0.000000	0.142241	0.000000	0.000000	0.000000	0.000000	0.000000
2.221453	13.381582	22.873443	-1.144150	1.671811	2.757330	0.000000	0.218589	0.000000	0.000000	0.000000	0.000000	0.000000
2.662413	14.584821	21.182200	-1.594881	2.148962	2.870993	0.000000	0.297427	0.000000	0.000001	0.000000	0.000000	0.000000
3.108373	16.236871	19.087014	-2.122776	2.529467	3.021995	0.000000	0.380142	0.000000	0.000001	0.000000	0.000000	0.000000
3.657433	18.355310	16.733905	-1.712686	1.781536	3.205444	0.000000	0.287104	0.000000	0.000001	0.000000	0.000000	0.000000
4.206493	19.953921	15.128029	-1.181620	1.160501	3.336334	0.000000	0.188974	0.000000	0.000001	0.000000	0.000000	0.000000
4.755553	20.919785	14.155004	-0.567090	0.622125	3.412344	0.000000	0.087492	0.000000	0.000001	0.000000	0.000000	0.000000
5.304613	21.184679	13.745523	0.087496	0.128062	3.432125	0.000000	-0.015542	0.000000	0.000001	0.000000	0.000000	0.000000
5.603185	21.169696	13.654265	0.018037	0.141671	3.430162	0.000000	-0.006575	0.000000	0.000001	0.000000	0.000000	0.000000
5.936519	21.162922	13.568119	0.002286	0.116768	3.427970	0.000000	-0.006575	0.000000	0.000001	0.000000	0.000000	0.000000
6.269852	21.166649	13.498574	-0.013465	0.091866	3.425778	0.000000	-0.006575	0.000000	0.000001	0.000000	0.000000	0.000000
6.604435	21.180949	13.445463	-0.029275	0.066870	3.423578	0.000000	-0.006575	0.000000	0.000002	0.000000	0.000000	0.000000
6.901758	21.202534	13.412303	-0.098722	0.079702	3.421623	0.000000	0.002365	0.000000	0.000002	0.000000	0.000000	0.000000
7.450818	20.949524	13.585331	0.556800	-0.396696	3.394721	0.000000	-0.100214	0.000000	0.000002	0.000000	0.000000	0.000000
7.999878	19.994109	14.293853	1.172992	-0.901349	3.311903	0.000000	-0.201014	0.000000	0.000002	0.000000	0.000000	0.000000
8.548938	18.403774	15.588336	1.706330	-1.470203	3.174638	0.000000	-0.298250	0.000000	0.000002	0.000000	0.000000	0.000000
9.097998	16.290854	17.560984	2.119141	-2.143777	2.985361	0.000000	-0.390195	0.000000	0.000002	-0.000000	0.000000	0.000000
9.543958	14.642283	19.318769	1.590680	-1.781140	2.829655	0.000000	-0.308492	0.000000	0.000002	0.000000	0.000000	0.000000
9.984918	13.443070	20.699746	1.139188	-1.338693	2.710869	0.000000	-0.230786	0.000000	0.000002	0.000000	0.000000	0.000000
10.425878	12.617668	21.662068	0.739743	-0.835336	2.625735	0.000000	-0.155708	0.000000	0.000002	0.000000	0.000000	0.000000
10.866838	12.128366	22.161950	0.374095	-0.293972	2.573286	0.000000	-0.082404	0.000000	0.000002	0.000000	0.000000	0.000000
11.309048	11.952673	22.176132	0.054744	0.206326	2.552904	0.000000	-0.016299	0.000000	0.000002	0.000000	0.000000	0.000000
11.606371	11.927538	22.057597	0.029794	0.192348	2.548058	0.000000	-0.016299	0.000000	0.000002	0.000000	0.000000	0.000000
12.086371	11.918269	21.883775	-0.010484	0.169782	2.540234	0.000000	-0.016299	0.000000	0.000002	0.000000	0.000000	0.000000
12.566371	11.947668	21.731617	-0.050763	0.147215	2.532411	0.000000	-0.016299	0.000000	0.000002	0.000000	0.000000	0.000000
13.046371	12.015735	21.601122	-0.091042	0.124649	2.524587	0.000000	-0.016299	0.000000	0.000003	0.000000	0.000000	0.000000
13.526371	12.122468	21.492291	-0.131321	0.102083	2.516764	0.000000	-0.016299	0.000000	0.000003	0.000000	0.000000	0.000000
14.007621	12.268299	21.404925	-0.171704	0.079457	2.508920	0.000000	-0.016299	0.000000	0.000003	0.000000	0.000000	0.000000
14.304943	12.377820	21.361832	-0.166300	0.013095	2.504074	0.000000	-0.022439	0.000000	0.000003	0.000000	0.000000	0.000000
14.745903	12.683180	21.116453	-0.528816	0.541252	2.509809	0.000000	0.048478	0.000000	0.000003	0.000000	0.000000	0.000000
15.186863	13.317655	20.414405	-0.915491	1.044781	2.546909	0.000000	0.119948	0.000000	0.000003	0.000000	0.000000	0.000000
15.627823	14.310231	19.287629	-1.343992	1.500774	2.615794	0.000000	0.192784	0.000000	0.000003	0.000000	0.000000	0.000000
16.068783	15.706257	17.787393	-1.833897	1.888483	2.717251	0.000000	0.267816	0.000000	0.000003	0.000001	0.000000	0.000000
16.514743	17.593168	15.960455	-2.412345	2.191016	2.854128	0.000000	0.346360	0.000000	0.000004	0.000001	0.000000	0.000000
17.063803	20.016417	13.920398	-1.974980	1.546459	3.020572	0.000000	0.259037	0.000000	0.000004	0.000001	0.000000	0.000000
17.612863	21.879477	12.523865	-1.398113	1.012053	3.137737	0.000000	0.167119	0.000000	0.000004	0.000000	0.000000	0.000000
18.161923	23.050748	11.671383	-0.722490	0.549733	3.203544	0.000000	0.072237	0.000000	0.000004	0.000000	0.000000	0.000000
18.710983	23.447500	11.302232	0.004166	0.126569	3.216826	0.000000	-0.023927	0.000000	0.000005	0.000000	0.000000	0.000000
19.009556	23.485409	11.217099	-0.069871	0.129037	3.212192	0.000000	-0.015522	0.000000	0.000005	0.000000	0.000000	0.000000
19.342889	23.536743	11.141144	-0.084133	0.098826	3.207018	0.000000	-0.015522	0.000000	0.000005	0.000000	0.000000	0.000000
19.676223	23.597586	11.085331	-0.098396	0.068615	3.201844	0.000000	-0.015522	0.000000	0.000005	0.000000	0.000000	0.000000
20.010806	23.668512	11.049425	-0.229979	0.093036	3.196670	0.000000	0.000316	0.000000	0.000005	0.000000	0.000000	0.000000
20.308129	23.809200	11.002172	-0.305411	0.094640	3.196764	0.000000	0.008669	0.000000	0.000005	0.000000	0.000000	0.000000
20.857189	23.733938	11.120740	0.441674	-0.311863	3.175307	0.000000	-0.086712	0.000000	0.000005	-0.000000	0.000000	0.000000
21.406249	22.850633	11.695203	1.157562	-0.740578	3.101826	0.000000	-0.180555	0.000000	0.000005	-0.000000	0.000000	0.000000
21.955309	21.221675	12.766476	1.791686	-1.222044	2.977624	0.000000	-0.271196	0.000000	0.000005	-0.000000	0.000000	0.000000
22.504369	18.962128	14.410866	2.299254	-1.790552	2.804905	0.000000	-0.357026	0.000000	0.000004	-0.000000	0.000000	0.000000
22.950329	17.181534	15.887084	1.707563	-1.505684	2.662977	0.000000	-0.279824	0.000000	0.000004	-0.000000	0.000000	0.000000
23.391289	15.904884	17.064009	1.198582	-1.153166	2.555907	0.000000	-0.206264	0.000000	0.000004	-0.000000	0.000000	0.000000
23.832249	15.051361	17.905628	0.744362	-0.748179	2.480725	0.000000	-0.135053	0.000000	0.000004	-0.000000	0.000000	0.000000
24.273209	14.581971	18.373650	0.324149	-0.309151	2.436575	0.000000	-0.065380	0.000000	0.000004	-0.000000	0.000000	0.000000
24.715418	14.475383	18.446531	-0.045844	0.098640	2.422953	0.000000	-0.002394	0.000000	0.000004	0.000000	0.000000	0.000000
25.012741	14.508764	18.392715	-0.066427	0.082365	2.422241	0.000000	-0.002394	0.000000	0.000004	0.000000	0.000000	0.000000
25.346075	14.560741	18.343887	-0.089503	0.064119	2.421443	0.000000	-0.002394	0.000000	0.000004	0.000000	0.000000	0.000000
25.679408	14.628102	18.307223	-0.112579	0.045873	2.420645	0.000000	-0.002394	0.000000	0.000004	0.000000	0.000000	0.000000
26.013991	14.710888	18.283025	-0.016398	-0.120763	2.419820	0.000000	-0.022025	0.000000	0.000004	0.000000	0.000000	0.000000
26.311314	14.726650	18.359742	-0.000501	-0.182284	2.413271	0.000000	-0.027943	0.000000	0.000004	0.000000	0.000000	0.000000
26.752274	14.908554	18.321343	-0.413582	0.269033	2.416059	0.000000	0.040596	0.000000	0.000004	0.000000	0.000000	0.000000
27.193234	15.461685	17.888816	-0.845557	0.708109	2.449142	0.000000	0.109598	0.000000	0.000004	0.000000	0.000000	0.000000
27.634194	16.411315	17.081842	-1.316164	1.114967	2.512898	0.000000	0.179847	0.000000	0.000004	0.000000	0.000000	0.000000
28.075154	17.800830	15.937136	-1.846902	1.471095	2.608053	0.000000	0.252145	0.000000	0.000004	0.000000	0.000000	0.000000
28.521114	19.717857	14.489542	-2.466978	1.761202	2.737293	0.000000	0.327758	0.000000	0.000005	0.000001	0.000000	0.000000
29.070174	22.154408	12.876502	-1.944428	1.193959	2.894590	0.000000	0.244368	0.000000	0.000005	0.000000	0.000000	0.000000
29.619234	23.937859	11.836289	-1.284533	0.711759	3.004842	0.000000	0.156644	0.000000	0.000005	0.000000	0.000000	0.000000
30.168294	24.942236	11.294809	-0.533905	0.280255	3.066094	0.000000	0.066142	0.000000	0.000005	0.000000	0.000000	0.000000
30.717354	25.096596	11.213496	0.254435	-0.131286	3.077259	0.000000	-0.025534	0.000000	0.000005	-0.000000	0.000000	0.000000
31.015927	24.987495	11.282431	0.176544	-0.128892	3.072035	0.000000	-0.017494	0.000000	0.000005	-0.000000	0.000000	0.000000
31.349260	24.874385	11.378370	0.162788	-0.158927	3.066204	0.000000	-0.017494	0.000000	0.000005	-0.000000	0.000000	0.000000
31.682593	24.770445	11.494333	0.149032	-0.188962	3.060373	0.000000	-0.017494	0.000000	0.000005	-0.000000	0.000000	0.000000
32.017177	24.675337	11.630867	0.135225	-0.219110	3.054520	0.000000	-0.017494	0.000000	0.000005	-0.000000	0.000000	0.000000
32.314499	24.598574	11.769125	0.058686	-0.215151	3.049319	0.000000	-0.009527	0.000000	0.000005	-0.000000	0.000000	0.000000
32.863559	24.112736	12.244714	0.820931	-0.656149	3.019209	0.000000	-0.099990	0.000000	0.000005	-0.000000	0.000000	0.000000
33.412619	22.816903	13.227241	1.525190	-1.143883	2.939844	0.000000	-0.188680	0.000000	0.000005	-0.000000	0.000000	0.000000
33.961679	20.802609	14.786687	2.121717	-1.713093	2.812631	0.000000	-0.274023	0.000000	0.000004	-0.000001	0.000000	0.000000
34.510739	18.212132	17.034130	2.568376	-2.404323	2.639827	0.000000	-0.354506	0.000000	0.000004	-0.000001	0.000000	0.000000
34.956699	16.198044	19.044324	1.964103	-2.084421	2.498071	0.000000	-0.281584	0.000000	0.000004	-0.000001	0.000000	0.000000
35.397659	14.696244	20.706387	1.454569	-1.670427	2.389284	0.000000	-0.212297	0.000000	0.000004	-0.000000	0.000000	0.000000
35.838619	13.612920	21.968304	1.011490	-1.180431	2.310488	0.000000	-0.145428	0.000000	0.000003	-0.000000	0.000000	0.000000
36.279579	12.898580	22.772658	0.614623	-0.636725	2.260786	0.000000	-0.080216	0.000000	0.000003	-0.000000	0.000000	0.000000
36.721789	12.519894	23.083153	0.276432	-0.120709	2.239584	0.000000	-0.021409	0.000000	0.000003	-0.000000	0.000000	0.000000
37.019112	12.363116	23.158818	0.250869	-0.133777	2.233219	0.000000	-0.021409	0.000000	0.000003	-0.000000	0.000000	0.000000
37.352445	12.205423	23.252886	0.222210	-0.148428	2.226083	0.000000	-0.021409	0.000000	0.000003	-0.000000	0.000000	0.000000
37.685779	12.066835	23.356721	0.193552	-0.163079	2.218947	0.000000	-0.021409	0.000000	0.000003	-0.000000	0.000000	0.000000
38.020362	11.946942	23.470769	0.164785	-0.177785	2.211784	0.000000	-0.021409	0.000000	0.000003	-0.000000	0.000000	0.000000
38.317684	11.856553	23.580373	0.168298	-0.248677	2.205418	0.000000	-0.026817	0.000000	0.000003	-0.000000	0.000000	0.000000
38.758644	11.859352	23.538521	-0.174668	0.343228	2.207519	0.000000	0.036355	0.000000	0.000003	-0.000000	0.000000	0.000000
39.199604	12.166980	22.979574	-0.525613	0.919517	2.237541	0.000000	0.099940	0.000000	0.000003	-0.000000	0.000000	0.000000
39.640564	12.793495	21.928964	-0.900573	1.453968	2.295826	0.000000	0.164664	0.000000	0.000003	-0.000000	0.000000	0.000000
40.081524	13.767518	20.434493	-1.316676	1.922265	2.383037	0.000000	0.231264	0.000000	0.000003	0.000000	0.000000	0.000000
40.527484	15.151115	18.541590	-1.796760	2.304380	2.501640	0.000000	0.300902	0.000000	0.000003	0.000000	0.000000	0.000000
41.076544	16.916957	16.414529	-1.400321	1.592493	2.646326	0.000000	0.225352	0.000000	0.000003	0.000000	0.000000	0.000000
41.625604	18.190239	15.002703	-0.904971	0.994036	2.748370	0.000000	0.145806	0.000000	0.000003	-0.000000	0.000000	0.000000
42.174664	18.881021	14.205552	-0.345699	0.466381	2.805963	0.000000	0.063672	0.000000	0.000003	-0.000000	0.000000	0.000000
42.723724	18.940511	13.966296	0.237992	-0.028054	2.818082	0.000000	-0.019590	0.000000	0.000003	-0.000000	0.000000	0.000000
43.022297	18.832819	13.967641	0.172181	-0.012943	2.814432	0.000000	-0.012227	0.000000	0.000003	-0.000000	0.000000	0.000000
43.502297	18.680122	13.996564	0.145938	-0.047314	2.808563	0.000000	-0.012227	0.000000	0.000002	-0.000000	0.000000	0.000000
43.982297	18.552618	14.058483	0.119695	-0.081684	2.802694	0.000000	-0.012227	0.000000	0.000002	-0.000000	0.000000	0.000000
44.462297	18.450307	14.153398	0.093452	-0.116055	2.796825	0.000000	-0.012227	0.000000	0.000002	-0.000000	0.000000	0.000000
44.942297	18.373190	14.281309	0.067209	-0.150426	2.790956	0.000000	-0.012227	0.000000	0.000002	-0.000000	0.000000	0.000000
45.423547	18.321390	14.442500	-0.049877	-0.113330	2.785089	0.000000	0.001572	0.000000	0.000002	-0.000000	0.000000	0.000000
45.720870	18.355886	14.516090	-0.114105	-0.096253	2.785557	0.000000	0.008850	0.000000	0.000002	-0.000000	0.000000	0.000000
46.269930	18.172104	14.902610	0.446845	-0.611868	2.767846	0.000000	-0.073268	0.000000	0.000002	-0.000000	0.000000	0.000000
46.818990	17.386096	15.875802	0.976232	-1.171065	2.705339	0.000000	-0.154087	0.000000	0.000002	-0.000000	0.000000	0.000000
47.368050	16.053384	17.504986	1.436662	-1.813674	2.599143	0.000000	-0.232172	0.000000	0.000001	-0.000000	0.000000	0.000000
47.917110	14.268102	19.906205	1.795614	-2.585467	2.451143	0.000000	-0.306139	0.000000	0.000001	-0.000000	0.000000	0.000000
48.363070	12.878689	22.041189	1.330976	-2.181796	2.329908	0.000000	-0.237845	0.000000	0.000001	-0.000000	0.000000	0.000000
48.804030	11.885056	23.750646	0.930914	-1.680124	2.239487	0.000000	-0.172657	0.000000	0.000001	-0.000000	0.000000	0.000000
49.244990	11.224228	24.982142	0.573383	-1.102009	2.177351	0.000000	-0.109435	0.000000	0.000001	-0.000000	0.000000	0.000000
49.685950	10.866014	25.679644	0.242048	-0.473753	2.142792	0.000000	-0.047459	0.000000	0.000001	-0.000000	0.000000	0.000000
50.128160	10.794179	25.811134	-0.051875	0.112713	2.135427	0.000000	0.008739	0.000000	0.000000	-0.000000	0.000000	0.000000
50.425482	10.833238	25.747578	-0.079494	0.101048	2.138026	0.000000	0.008739	0.000000	0.000000	-0.000000	0.000000	0.000000
50.758816	10.896555	25.684573	-0.110458	0.087969	2.140939	0.000000	0.008739	0.000000	0.000000	-0.000000	0.000000	0.000000
51.092149	10.980515	25.630286	-0.141422	0.074891	2.143852	0.000000	0.008739	0.000000	0.000000	-0.000000	0.000000	0.000000
51.426732	11.085324	25.585083	-0.082570	-0.145795	2.146755	0.000000	-0.008677	0.000000	0.000000	-0.000000	0.000000	0.000000
51.724055	11.142453	25.675308	-0.082250	-0.220627	2.144175	0.000000	-0.013935	0.000000	-0.000000	-0.000000	0.000000	0.000000
52.165015	11.360444	25.584265	-0.413982	0.426307	2.151618	0.000000	0.047727	0.000000	-0.000000	-0.000000	0.000000	0.000000
52.605975	11.878200	24.929084	-0.764627	1.053844	2.186346	0.000000	0.109932	0.000000	-0.000000	-0.000000	0.000000	0.000000
53.046935	12.719374	23.739576	-1.150207	1.633432	2.248753	0.000000	0.173389	0.000000	-0.000000	-0.000000	0.000000	0.000000
53.487895	13.922397	22.069863	-1.588335	2.138700	2.339551	0.000000	0.238821	0.000000	-0.000001	-0.000000	0.000000	0.000000
53.933855	15.562851	19.970947	-2.103268	2.547994	2.461279	0.000000	0.307372	0.000000	-0.000001	-0.000000	0.000000	0.000000
54.482915	17.674836	17.609218	-1.720510	1.778801	2.609864	0.000000	0.233067	0.000000	-0.000001	-0.000000	0.000000	0.000000
55.031975	19.296881	16.018040	-1.216224	1.136308	2.716455	0.000000	0.154628	0.000000	-0.000001	-0.000000	0.000000	0.000000
55.581035	20.314413	15.084079	-0.626031	0.574752	2.779161	0.000000	0.073446	0.000000	-0.000001	-0.000000	0.000000	0.000000
56.130095	20.655558	14.740809	0.008383	0.054134	2.796869	0.000000	-0.009039	0.000000	-0.000001	-0.000000	0.000000	0.000000
56.428668	20.687105	14.691584	-0.060072	0.072220	2.796352	0.000000	-0.001731	0.000000	-0.000001	-0.000000	0.000000	0.000000
56.762001	20.732543	14.651039	-0.076243	0.049413	2.795775	0.000000	-0.001731	0.000000	-0.000002	-0.000000	0.000000	0.000000
57.095334	20.788762	14.625700	-0.092414	0.026606	2.795199	0.000000	-0.001731	0.000000	-0.000002	-0.000000	0.000000	0.000000
57.429918	20.856034	14.615555	-0.108646	0.003714	2.794620	0.000000	-0.001731	0.000000	-0.000002	-0.000000	0.000000	0.000000
57.727240	20.924928	14.619395	-0.177744	0.021569	2.794105	0.000000	0.005570	0.000000	-0.000002	-0.000000	0.000000	0.000000
58.276300	20.763074	14.876509	0.470784	-0.492613	2.774523	0.000000	-0.076795	0.000000	-0.000002	-0.000000	0.000000	0.000000
58.825360	19.903185	15.714094	1.086058	-1.041882	2.710025	0.000000	-0.157797	0.000000	-0.000002	-0.000000	0.000000	0.000000
59.374420	18.405998	17.191811	1.624618	-1.665362	2.601757	0.000000	-0.236001	0.000000	-0.000002	-0.000000	0.000000	0.000000
59.923480	16.377269	19.414913	2.048423	-2.407462	2.451637	0.000000	-0.310019	0.000000	-0.000002	0.000000	0.000000	0.000000
60.369440	14.789314	21.390891	1.524944	-2.004679	2.328672	0.000000	-0.241734	0.000000	-0.000002	-0.000000	0.000000	0.000000
60.810400	13.647024	22.947553	1.075346	-1.512055	2.236525	0.000000	-0.176600	0.000000	-0.000002	-0.000000	0.000000	0.000000
61.251360	12.878162	24.037649	0.674877	-0.950634	2.172630	0.000000	-0.113477	0.000000	-0.000002	-0.000000	0.000000	0.000000
61.692320	12.447602	24.611579	0.305242	-0.345960	2.136258	0.000000	-0.051647	0.000000	-0.000002	-0.000000	0.000000	0.000000
62.134530	12.335723	24.642696	-0.020297	0.213968	2.127001	0.000000	0.004380	0.000000	-0.000002	-0.000000	0.000000	0.000000
62.431853	12.354962	24.519212	-0.044410	0.201350	2.128303	0.000000	0.004380	0.000000	-0.000002	-0.000000	0.000000	0.000000
62.765186	12.393579	24.389694	-0.071443	0.187204	2.129763	0.000000	0.004380	0.000000	-0.000002	-0.000000	0.000000	0.000000
63.098520	12.450219	24.269607	-0.098476	0.173058	2.131223	0.000000	0.004380	0.000000	-0.000002	-0.000000	0.000000	0.000000
63.433103	12.525194	24.158553	-0.125610	0.158859	2.132689	0.000000	0.004380	0.000000	-0.000003	-0.000000	0.000000	0.000000
63.730426	12.607057	24.067839	-0.118806	0.087219	2.133991	0.000000	-0.000854	0.000000	-0.000003	-0.000000	0.000000	0.000000
64.171386	12.872326	23.725847	-0.485048	0.685394	2.147155	0.000000	0.060619	0.000000	-0.000003	-0.000000	0.000000	0.000000
64.612346	13.469105	22.868100	-0.873451	1.252385	2.187553	0.000000	0.122782	0.000000	-0.000003	-0.000000	0.000000	0.000000
65.053306	14.424661	21.533625	-1.301759	1.762393	2.255645	0.000000	0.186344	0.000000	-0.000003	-0.000000	0.000000	0.000000
65.494266	15.782648	19.783140	-1.789541	2.192214	2.352206	0.000000	0.252028	0.000000	-0.000003	-0.000001	0.000000	0.000000
65.940226	17.628279	17.671512	-2.363776	2.523048	2.479907	0.000000	0.320984	0.000000	-0.000004	-0.000001	0.000000	0.000000
66.489286	19.994029	15.309188	-1.919445	1.804838	2.635780	0.000000	0.245958	0.000000	-0.000004	-0.000001	0.000000	0.000000
67.038346	21.794060	13.660746	-1.339535	1.215183	2.749198	0.000000	0.166568	0.000000	-0.000004	-0.000000	0.000000	0.000000
67.587406	22.901227	12.608771	-0.665007	0.712082	2.818149	0.000000	0.084224	0.000000	-0.000004	-0.000000	0.000000	0.000000
68.136466	23.237327	12.078335	0.056494	0.259702	2.841412	0.000000	0.000386	0.000000	-0.000004	-0.000000	0.000000	0.000000
68.435038	23.243685	11.912416	-0.017072	0.264445	2.843744	0.000000	0.007811	0.000000	-0.000004	-0.000000	0.000000	0.000000
68.768372	23.259848	11.746099	-0.031417	0.234506	2.846347	0.000000	0.007811	0.000000	-0.000004	-0.000000	0.000000	0.000000
69.101705	23.285574	11.599742	-0.045762	0.204567	2.848951	0.000000	0.007811	0.000000	-0.000004	-0.000000	0.000000	0.000000
69.436288	23.321014	11.472907	-0.060161	0.174516	2.851564	0.000000	0.007811	0.000000	-0.000004	-0.000000	0.000000	0.000000
69.733611	23.360592	11.377072	-0.133995	0.177539	2.853887	0.000000	0.015268	0.000000	-0.000005	-0.000000	0.000000	0.000000
70.282671	23.106537	11.409891	0.593965	-0.237665	2.839083	0.000000	-0.069111	0.000000	-0.000005	0.000000	0.000000	0.000000
