#ParticleID	Turn	x[m]	xp	y[m]	yp	z[m]	dE[GeV]# s	beta_x	beta_y	alpha_x	alpha_y	D_x	D_y	D_px	D_py	orbit_x	orbit_px	orbit_y	orbit_py
0.300000	11.832393	24.946185	-0.013437	-0.027769	2.618298	0.000000	-0.000060	0.000000	0.000001	0.000000	0.000000	0.000000
0.601250	11.848160	24.966557	-0.038901	-0.039854	2.618280	0.000000	-0.000060	0.000000	0.000001	0.000000	0.000000	0.000000
0.898573	11.878765	24.993802	-0.034903	-0.113074	2.618262	0.000000	-0.006480	0.000000	0.000001	0.000000	0.000000	0.000000
1.339533	12.061909	24.816316	-0.382002	0.514041	2.631699	0.000000	0.067480	0.000000	0.000001	0.000000	0.000000	0.000000
1.780493	12.557676	24.094005	-0.746554	1.117768	2.677887	0.000000	0.142210	0.000000	0.000001	0.000000	0.000000	0.000000
2.221453	13.388717	22.859733	-1.145213	1.670637	2.757354	0.000000	0.218559	0.000000	0.000001	0.000000	0.000000	0.000000
2.662413	14.592999	21.169659	-1.596194	2.147494	2.871003	0.000000	0.297397	0.000000	0.000001	0.000000	0.000000	0.000000
3.108373	16.246354	19.075890	-2.124401	2.527771	3.021991	0.000000	0.380112	0.000000	0.000001	0.000000	0.000000	0.000000
3.657433	18.366457	16.724399	-1.714073	1.780267	3.205424	0.000000	0.287074	0.000000	0.000001	0.000000	0.000000	0.000000
4.206493	19.966415	15.119726	-1.182672	1.159568	3.336298	0.000000	0.188945	0.000000	0.000001	0.000000	0.000000	0.000000
4.755553	20.933215	14.147572	-0.567732	0.621462	3.412293	0.000000	0.087464	0.000000	0.000002	0.000000	0.000000	0.000000
5.304613	21.198567	13.738693	0.087309	0.127622	3.432059	0.000000	-0.015568	0.000000	0.000002	0.000000	0.000000	0.000000
5.603185	21.183714	13.647711	0.017823	0.141205	3.430088	0.000000	-0.006601	0.000000	0.000002	0.000000	0.000000	0.000000
5.936519	21.177079	13.561879	0.002083	0.116294	3.427888	0.000000	-0.006601	0.000000	0.000002	0.000000	0.000000	0.000000
6.269852	21.180937	13.492653	-0.013658	0.091382	3.425688	0.000000	-0.006601	0.000000	0.000002	0.000000	0.000000	0.000000
6.604435	21.195362	13.439869	-0.029457	0.066378	3.423479	0.000000	-0.006601	0.000000	0.000002	0.000000	0.000000	0.000000
6.901758	21.217053	13.407005	-0.098932	0.079188	3.421517	0.000000	0.002339	0.000000	0.000002	0.000000	0.000000	0.000000
7.450818	20.964006	13.580516	0.557078	-0.397068	3.394602	0.000000	-0.100236	0.000000	0.000002	-0.000000	0.000000	0.000000
7.999878	20.008025	14.289382	1.173738	-0.901607	3.311773	0.000000	-0.201033	0.000000	0.000002	-0.000000	0.000000	0.000000
8.548938	18.416636	15.584095	1.707492	-1.470364	3.174499	0.000000	-0.298264	0.000000	0.000002	-0.000000	0.000000	0.000000
9.097998	16.302247	17.556872	2.120637	-2.143853	2.985215	0.000000	-0.390204	0.000000	0.000001	-0.000000	0.000000	0.000000
9.543958	14.652495	19.314791	1.591843	-1.781362	2.829505	0.000000	-0.308505	0.000000	0.000001	-0.000000	0.000000	0.000000
9.984918	13.452381	20.696023	1.140075	-1.339050	2.710711	0.000000	-0.230803	0.000000	0.000001	-0.000000	0.000000	0.000000
10.425878	12.626303	21.658713	0.740394	-0.835811	2.625570	0.000000	-0.155729	0.000000	0.000001	-0.000000	0.000000	0.000000
10.866838	12.136519	22.159059	0.374540	-0.294544	2.573111	0.000000	-0.082430	0.000000	0.000001	-0.000000	0.000000	0.000000
11.309048	11.960517	22.173780	0.055022	0.205689	2.552716	0.000000	-0.016329	0.000000	0.000001	0.000000	0.000000	0.000000
11.606371	11.935211	22.055623	0.030088	0.191713	2.547861	0.000000	-0.016329	0.000000	0.000001	0.000000	0.000000	0.000000
12.086371	11.925648	21.882409	-0.010165	0.169150	2.540023	0.000000	-0.016329	0.000000	0.000001	0.000000	0.000000	0.000000
12.566371	11.954728	21.730855	-0.050419	0.146587	2.532185	0.000000	-0.016329	0.000000	0.000001	0.000000	0.000000	0.000000
13.046371	12.022452	21.600962	-0.090672	0.124024	2.524347	0.000000	-0.016329	0.000000	0.000001	0.000000	0.000000	0.000000
13.526371	12.128819	21.492730	-0.130926	0.101461	2.516510	0.000000	-0.016329	0.000000	0.000001	0.000000	0.000000	0.000000
14.007621	12.274257	21.405960	-0.171284	0.078839	2.508652	0.000000	-0.016329	0.000000	0.000001	0.000000	0.000000	0.000000
14.304943	12.383524	21.363235	-0.165850	0.012475	2.503797	0.000000	-0.022469	0.000000	0.000001	0.000000	0.000000	0.000000
14.745903	12.688539	21.118383	-0.528481	0.540683	2.509518	0.000000	0.048442	0.000000	0.000001	0.000000	0.000000	0.000000
15.186863	13.322764	20.416803	-0.915257	1.044290	2.546599	0.000000	0.119904	0.000000	0.000001	0.000000	0.000000	0.000000
15.627823	14.315174	19.290418	-1.343848	1.500383	2.615464	0.000000	0.192732	0.000000	0.000001	0.000000	0.000000	0.000000
16.068783	15.711109	17.790476	-1.833836	1.888210	2.716895	0.000000	0.267754	0.000000	0.000001	0.000000	0.000000	0.000000
16.514743	17.598001	15.963724	-2.412364	2.190875	2.853743	0.000000	0.346289	0.000000	0.000002	0.000000	0.000000	0.000000
17.063803	20.021156	13.923849	-1.974789	1.546269	3.020152	0.000000	0.258979	0.000000	0.000002	0.000000	0.000000	0.000000
17.612863	21.883895	12.527558	-1.397725	1.011800	3.137289	0.000000	0.167075	0.000000	0.000002	0.000000	0.000000	0.000000
18.161923	23.054646	11.675396	-0.721933	0.549399	3.203076	0.000000	0.072208	0.000000	0.000002	0.000000	0.000000	0.000000
18.710983	23.450710	11.306665	0.004853	0.126131	3.216347	0.000000	-0.023940	0.000000	0.000002	-0.000000	0.000000	0.000000
19.009556	23.488214	11.221781	-0.069191	0.128626	3.211708	0.000000	-0.015537	0.000000	0.000002	-0.000000	0.000000	0.000000
19.342889	23.539095	11.146095	-0.083451	0.098431	3.206529	0.000000	-0.015537	0.000000	0.000002	-0.000000	0.000000	0.000000
19.676223	23.599481	11.090540	-0.097710	0.068235	3.201350	0.000000	-0.015537	0.000000	0.000002	-0.000000	0.000000	0.000000
20.010806	23.669948	11.054883	-0.229297	0.092699	3.196171	0.000000	0.000299	0.000000	0.000002	-0.000000	0.000000	0.000000
20.308129	23.810229	11.007825	-0.304730	0.094334	3.196260	0.000000	0.008650	0.000000	0.000002	-0.000000	0.000000	0.000000
20.857189	23.734203	11.126818	0.442376	-0.312335	3.174798	0.000000	-0.086714	0.000000	0.000002	-0.000000	0.000000	0.000000
21.406249	22.850140	11.701905	1.158233	-0.741250	3.101320	0.000000	-0.180541	0.000000	0.000002	-0.000000	0.000000	0.000000
21.955309	21.220484	12.774047	1.792279	-1.222963	2.977131	0.000000	-0.271165	0.000000	0.000002	-0.000000	0.000000	0.000000
22.504369	18.960348	14.419612	2.299728	-1.791785	2.804432	0.000000	-0.356979	0.000000	0.000001	-0.000000	0.000000	0.000000
22.950329	17.179336	15.896845	1.708029	-1.506720	2.662523	0.000000	-0.279790	0.000000	0.000001	-0.000000	0.000000	0.000000
23.391289	15.902270	17.074579	1.199062	-1.153957	2.555465	0.000000	-0.206241	0.000000	0.000001	-0.000000	0.000000	0.000000
23.832249	15.048310	17.916776	0.744877	-0.748691	2.480290	0.000000	-0.135041	0.000000	0.000001	-0.000000	0.000000	0.000000
24.273209	14.578442	18.385116	0.324724	-0.309360	2.436143	0.000000	-0.065380	0.000000	0.000001	-0.000000	0.000000	0.000000
24.715418	14.471310	18.458044	-0.045194	0.098714	2.422518	0.000000	-0.002404	0.000000	0.000001	-0.000000	0.000000	0.000000
25.012741	14.504306	18.404180	-0.065781	0.082449	2.421804	0.000000	-0.002404	0.000000	0.000001	-0.000000	0.000000	0.000000
25.346075	14.555853	18.355292	-0.088862	0.064214	2.421003	0.000000	-0.002404	0.000000	0.000001	-0.000000	0.000000	0.000000
25.679408	14.622789	18.318561	-0.111943	0.045979	2.420201	0.000000	-0.002404	0.000000	0.000001	-0.000000	0.000000	0.000000
26.013991	14.705151	18.294288	-0.015813	-0.120736	2.419373	0.000000	-0.022031	0.000000	0.000001	-0.000000	0.000000	0.000000
26.311314	14.720567	18.370986	0.000061	-0.182276	2.412822	0.000000	-0.027948	0.000000	0.000001	-0.000000	0.000000	0.000000
26.752274	14.901907	18.332446	-0.412860	0.269345	2.415605	0.000000	0.040579	0.000000	0.000001	-0.000000	0.000000	0.000000
27.193234	15.454320	17.899515	-0.844644	0.708711	2.448678	0.000000	0.109569	0.000000	0.000001	-0.000000	0.000000	0.000000
27.634194	16.403046	17.091892	-1.315018	1.115831	2.512418	0.000000	0.179806	0.000000	0.000001	0.000000	0.000000	0.000000
28.075154	17.791428	15.946323	-1.845471	1.472182	2.607553	0.000000	0.252091	0.000000	0.000001	0.000000	0.000000	0.000000
28.521114	19.707025	14.497677	-2.465192	1.762463	2.736766	0.000000	0.327691	0.000000	0.000001	0.000000	0.000000	0.000000
29.070174	22.141754	12.883426	-1.942916	1.194918	2.894032	0.000000	0.244319	0.000000	0.000001	0.000000	0.000000	0.000000
29.619234	23.923745	11.842294	-1.283402	0.712483	3.004262	0.000000	0.156613	0.000000	0.000001	-0.000000	0.000000	0.000000
30.168294	24.927127	11.300124	-0.533235	0.280797	3.065502	0.000000	0.066130	0.000000	0.000001	-0.000000	0.000000	0.000000
30.717354	25.081028	11.218299	0.254597	-0.130888	3.076665	0.000000	-0.025526	0.000000	0.000001	-0.000000	0.000000	0.000000
31.015927	24.971809	11.286984	0.176735	-0.128467	3.071444	0.000000	-0.017488	0.000000	0.000001	-0.000000	0.000000	0.000000
31.349260	24.858574	11.382635	0.162970	-0.158487	3.065614	0.000000	-0.017488	0.000000	0.000001	-0.000000	0.000000	0.000000
31.682593	24.754516	11.498299	0.149205	-0.188507	3.059785	0.000000	-0.017488	0.000000	0.000001	-0.000000	0.000000	0.000000
32.017177	24.659296	11.634523	0.135388	-0.218639	3.053934	0.000000	-0.017488	0.000000	0.000001	-0.000000	0.000000	0.000000
32.314499	24.582439	11.772497	0.058881	-0.214657	3.048735	0.000000	-0.009522	0.000000	0.000001	-0.000000	0.000000	0.000000
32.863559	24.096682	12.247584	0.820588	-0.655723	3.018632	0.000000	-0.099967	0.000000	0.000001	-0.000000	0.000000	0.000000
33.412619	22.801513	13.229665	1.524333	-1.143495	2.939285	0.000000	-0.188638	0.000000	0.000001	-0.000000	0.000000	0.000000
33.961679	20.788416	14.788693	2.120407	-1.712715	2.812100	0.000000	-0.273963	0.000000	0.000001	-0.000000	0.000000	0.000000
34.510739	18.199585	17.035714	2.566705	-2.403928	2.639333	0.000000	-0.354430	0.000000	0.000001	-0.000000	0.000000	0.000000
34.956699	16.186817	19.045511	1.962805	-2.083928	2.497609	0.000000	-0.281520	0.000000	0.000001	-0.000000	0.000000	0.000000
35.397659	14.686021	20.707104	1.453580	-1.669861	2.388847	0.000000	-0.212245	0.000000	0.000000	-0.000000	0.000000	0.000000
35.838619	13.603450	21.968498	1.010766	-1.179816	2.310071	0.000000	-0.145387	0.000000	0.000000	-0.000000	0.000000	0.000000
36.279579	12.889643	22.772299	0.614130	-0.636090	2.260385	0.000000	-0.080185	0.000000	0.000000	-0.000000	0.000000	0.000000
36.721789	12.511300	23.082234	0.276128	-0.120081	2.239194	0.000000	-0.021387	0.000000	0.000000	-0.000000	0.000000	0.000000
37.019112	12.354705	23.157525	0.250552	-0.133148	2.232835	0.000000	-0.021387	0.000000	0.000000	-0.000000	0.000000	0.000000
37.352445	12.197229	23.251174	0.221878	-0.147797	2.225706	0.000000	-0.021387	0.000000	0.000000	-0.000000	0.000000	0.000000
37.685779	12.058868	23.354588	0.193204	-0.162447	2.218577	0.000000	-0.021387	0.000000	0.000000	-0.000000	0.000000	0.000000
38.020362	11.939212	23.468212	0.164423	-0.177151	2.211421	0.000000	-0.021387	0.000000	0.000000	-0.000000	0.000000	0.000000
38.317684	11.849043	23.577439	0.167904	-0.248037	2.205062	0.000000	-0.026795	0.000000	0.000000	-0.000000	0.000000	0.000000
38.758644	11.852114	23.535058	-0.174895	0.343782	2.207171	0.000000	0.036368	0.000000	0.000000	-0.000000	0.000000	0.000000
39.199604	12.159874	22.975670	-0.525684	0.919959	2.237196	0.000000	0.099944	0.000000	0.000000	-0.000000	0.000000	0.000000
39.640564	12.786383	21.924727	-0.900490	1.454279	2.295481	0.000000	0.164659	0.000000	-0.000000	-0.000000	0.000000	0.000000
40.081524	13.760265	20.430046	-1.316437	1.922430	2.382688	0.000000	0.231250	0.000000	-0.000000	-0.000000	0.000000	0.000000
40.527484	15.143574	18.537065	-1.796351	2.304390	2.501282	0.000000	0.300879	0.000000	-0.000000	-0.000000	0.000000	0.000000
41.076544	16.909119	16.409938	-1.400191	1.592603	2.645959	0.000000	0.225341	0.000000	-0.000000	-0.000000	0.000000	0.000000
41.625604	18.182415	14.997933	-0.905129	0.994254	2.748000	0.000000	0.145806	0.000000	-0.000000	-0.000000	0.000000	0.000000
42.174664	18.873524	14.200475	-0.346133	0.466724	2.805596	0.000000	0.063685	0.000000	-0.000000	-0.000000	0.000000	0.000000
42.723724	18.933629	13.960765	0.237312	-0.027563	2.817726	0.000000	-0.019566	0.000000	-0.000000	-0.000000	0.000000	0.000000
43.022297	18.826334	13.961827	0.171516	-0.012474	2.814083	0.000000	-0.012204	0.000000	-0.000000	-0.000000	0.000000	0.000000
43.502297	18.674277	13.990307	0.145270	-0.046859	2.808225	0.000000	-0.012204	0.000000	-0.000000	-0.000000	0.000000	0.000000
43.982297	18.547416	14.051796	0.119024	-0.081244	2.802367	0.000000	-0.012204	0.000000	-0.000000	-0.000000	0.000000	0.000000
44.462297	18.445751	14.146295	0.092778	-0.115628	2.796510	0.000000	-0.012204	0.000000	-0.000000	-0.000000	0.000000	0.000000
44.942297	18.369283	14.273803	0.066531	-0.150013	2.790652	0.000000	-0.012204	0.000000	-0.000001	-0.000000	0.000000	0.000000
45.423547	18.318137	14.434602	-0.050541	-0.112970	2.784796	0.000000	0.001594	0.000000	-0.000001	-0.000000	0.000000	0.000000
45.720870	18.353029	14.507981	-0.114767	-0.095924	2.785270	0.000000	0.008871	0.000000	-0.000001	-0.000000	0.000000	0.000000
46.269930	18.170022	14.894001	0.446105	-0.611281	2.767574	0.000000	-0.073238	0.000000	-0.000001	-0.000000	0.000000	0.000000
46.818990	17.384845	15.866389	0.975467	-1.170179	2.705085	0.000000	-0.154048	0.000000	-0.000001	-0.000000	0.000000	0.000000
47.368050	16.052961	17.494408	1.435927	-1.812426	2.598913	0.000000	-0.232125	0.000000	-0.000001	-0.000000	0.000000	0.000000
47.917110	14.268446	19.894018	1.794960	-2.583768	2.450940	0.000000	-0.306085	0.000000	-0.000001	-0.000000	0.000000	0.000000
48.363070	12.879592	22.027598	1.330375	-2.180360	2.329728	0.000000	-0.237796	0.000000	-0.000001	-0.000000	0.000000	0.000000
48.804030	11.886476	23.735930	0.930338	-1.679017	2.239327	0.000000	-0.172612	0.000000	-0.000001	-0.000000	0.000000	0.000000
49.244990	11.226155	24.966613	0.572805	-1.101280	2.177210	0.000000	-0.109394	0.000000	-0.000001	-0.000000	0.000000	0.000000
49.685950	10.868462	25.663652	0.241442	-0.473435	2.142668	0.000000	-0.047422	0.000000	-0.000001	-0.000000	0.000000	0.000000
50.128160	10.797186	25.795051	-0.052529	0.112643	2.135319	0.000000	0.008774	0.000000	-0.000001	-0.000000	0.000000	0.000000
50.425482	10.836632	25.731539	-0.080142	0.100970	2.137928	0.000000	0.008774	0.000000	-0.000001	-0.000000	0.000000	0.000000
50.758816	10.900379	25.668587	-0.111100	0.087884	2.140852	0.000000	0.008774	0.000000	-0.000001	-0.000000	0.000000	0.000000
51.092149	10.984765	25.614360	-0.142057	0.074797	2.143777	0.000000	0.008774	0.000000	-0.000001	-0.000000	0.000000	0.000000
51.426732	11.089996	25.569222	-0.083161	-0.145768	2.146691	0.000000	-0.008642	0.000000	-0.000001	-0.000000	0.000000	0.000000
51.724055	11.147474	25.659433	-0.082820	-0.220568	2.144121	0.000000	-0.013900	0.000000	-0.000001	-0.000000	0.000000	0.000000
52.165015	11.366023	25.568524	-0.414681	0.425946	2.151580	0.000000	0.047761	0.000000	-0.000001	-0.000000	0.000000	0.000000
52.605975	11.884463	24.913842	-0.765487	1.053079	2.186322	0.000000	0.109965	0.000000	-0.000001	-0.000000	0.000000	0.000000
53.046935	12.726481	23.725174	-1.151267	1.632299	2.248744	0.000000	0.173422	0.000000	-0.000001	-0.000000	0.000000	0.000000
53.487895	13.930545	22.056604	-1.589645	2.137250	2.339556	0.000000	0.238854	0.000000	-0.000001	-0.000000	0.000000	0.000000
53.933855	15.572301	19.959101	-2.104888	2.546292	2.461298	0.000000	0.307405	0.000000	-0.000001	-0.000000	0.000000	0.000000
54.482915	17.685946	17.598988	-1.721894	1.777542	2.609902	0.000000	0.233099	0.000000	-0.000001	-0.000000	0.000000	0.000000
55.031975	19.309335	16.008992	-1.217274	1.135403	2.716510	0.000000	0.154658	0.000000	-0.000001	-0.000000	0.000000	0.000000
55.581035	20.327801	15.075860	-0.626672	0.574136	2.779231	0.000000	0.073475	0.000000	-0.000002	-0.000000	0.000000	0.000000
56.130095	20.669405	14.733129	0.008195	0.053763	2.796954	0.000000	-0.009013	0.000000	-0.000002	-0.000000	0.000000	0.000000
56.428668	20.701082	14.684139	-0.060286	0.071821	2.796445	0.000000	-0.001705	0.000000	-0.000002	-0.000000	0.000000	0.000000
56.762001	20.746660	14.643865	-0.076447	0.049004	2.795877	0.000000	-0.001705	0.000000	-0.000002	-0.000000	0.000000	0.000000
57.095334	20.803012	14.618801	-0.092608	0.026186	2.795309	0.000000	-0.001705	0.000000	-0.000002	-0.000000	0.000000	0.000000
57.429918	20.870410	14.608941	-0.108829	0.003283	2.794739	0.000000	-0.001705	0.000000	-0.000002	-0.000000	0.000000	0.000000
57.727240	20.939410	14.613040	-0.177956	0.021113	2.794232	0.000000	0.005596	0.000000	-0.000002	-0.000000	0.000000	0.000000
58.276300	20.777521	14.870556	0.471059	-0.492893	2.774663	0.000000	-0.076773	0.000000	-0.000002	0.000000	0.000000	0.000000
58.825360	19.917069	15.708363	1.086801	-1.042007	2.710176	0.000000	-0.157780	0.000000	-0.000002	0.000000	0.000000	0.000000
59.374420	18.418832	17.186136	1.625776	-1.665341	2.601916	0.000000	-0.235989	0.000000	-0.000002	0.000000	0.000000	0.000000
59.923480	16.388640	19.409134	2.049915	-2.407293	2.451801	0.000000	-0.310011	0.000000	-0.000002	0.000000	0.000000	0.000000
60.369440	14.799506	21.385042	1.526104	-2.004691	2.328840	0.000000	-0.241722	0.000000	-0.000001	0.000000	0.000000	0.000000
60.810400	13.656318	22.941795	1.076230	-1.512246	2.236699	0.000000	-0.176584	0.000000	-0.000001	0.000000	0.000000	0.000000
61.251360	12.886783	24.032135	0.675526	-0.950996	2.172812	0.000000	-0.113456	0.000000	-0.000001	0.000000	0.000000	0.000000
61.692320	12.455744	24.606453	0.305685	-0.346476	2.136450	0.000000	-0.051621	0.000000	-0.000001	0.000000	0.000000	0.000000
62.134530	12.343557	24.638086	-0.020022	0.213334	2.127206	0.000000	0.004410	0.000000	-0.000001	-0.000000	0.000000	0.000000
62.431853	12.362628	24.514979	-0.044119	0.200717	2.128517	0.000000	0.004410	0.000000	-0.000001	-0.000000	0.000000	0.000000
62.765186	12.401045	24.385883	-0.071134	0.186572	2.129987	0.000000	0.004410	0.000000	-0.000001	-0.000000	0.000000	0.000000
63.098520	12.457473	24.266216	-0.098149	0.172427	2.131456	0.000000	0.004410	0.000000	-0.000001	-0.000000	0.000000	0.000000
63.433103	12.532224	24.155584	-0.125266	0.158229	2.132932	0.000000	0.004410	0.000000	-0.000001	-0.000000	0.000000	0.000000
63.730426	12.613878	24.065245	-0.118430	0.086596	2.134243	0.000000	-0.000824	0.000000	-0.000001	-0.000000	0.000000	0.000000
64.171386	12.878881	23.723827	-0.484819	0.684720	2.147422	0.000000	0.060655	0.000000	-0.000001	-0.000000	0.000000	0.000000
64.612346	13.475518	22.866686	-0.873357	1.251689	2.187837	0.000000	0.122826	0.000000	-0.000001	-0.000000	0.000000	0.000000
65.053306	14.431049	21.532824	-1.301797	1.761707	2.255949	0.000000	0.186395	0.000000	-0.000001	-0.000000	0.000000	0.000000
65.494266	15.789129	19.782929	-1.789712	2.191569	2.352534	0.000000	0.252087	0.000000	-0.000002	-0.000000	0.000000	0.000000
65.940226	17.634976	17.671847	-2.364089	2.522474	2.480264	0.000000	0.321052	0.000000	-0.000002	-0.000000	0.000000	0.000000
66.489286	20.000930	15.310114	-1.919502	1.804328	2.636170	0.000000	0.246013	0.000000	-0.000002	-0.000000	0.000000	0.000000
67.038346	21.800880	13.662213	-1.339331	1.214700	2.749615	0.000000	0.166611	0.000000	-0.000002	-0.000000	0.000000	0.000000
67.587406	22.907686	12.610769	-0.664557	0.711593	2.818586	0.000000	0.084253	0.000000	-0.000002	-0.000000	0.000000	0.000000
68.136466	23.243170	12.080888	0.057159	0.259171	2.841860	0.000000	0.000401	0.000000	-0.000002	0.000000	0.000000	0.000000
68.435038	23.249138	11.915279	-0.016418	0.263934	2.844197	0.000000	0.007826	0.000000	-0.000002	0.000000	0.000000	0.000000
68.768372	23.264864	11.749298	-0.030759	0.234009	2.846806	0.000000	0.007826	0.000000	-0.000002	0.000000	0.000000	0.000000
69.101705	23.290150	11.603266	-0.045100	0.204085	2.849414	0.000000	0.007826	0.000000	-0.000002	0.000000	0.000000	0.000000
69.436288	23.325146	11.476749	-0.059496	0.174049	2.852033	0.000000	0.007826	0.000000	-0.000002	0.000000	0.000000	0.000000
69.733611	23.364328	11.381187	-0.133335	0.177095	2.854360	0.000000	0.015284	0.000000	-0.000002	0.000000	0.000000	0.000000
70.282671	23.109487	11.414558	0.594729	-0.238232	2.839561	0.000000	-0.069110	0.000000	-0.000002	0.000000	0.000000	0.000000
