#ParticleID	Turn	x[m]	xp	y[m]	yp	z[m]	dE[GeV]# s	beta_x	beta_y	alpha_x	alpha_y	D_x	D_y	D_px	D_py	orbit_x	orbit_px	orbit_y	orbit_py
0.300000	11.828687	24.959308	-0.012923	-0.027720	2.618224	0.000000	-0.000030	0.000000	0.000000	0.000000	0.000000	0.000000
0.601250	11.844146	24.979648	-0.038395	-0.039799	2.618215	0.000000	-0.000030	0.000000	0.000000	0.000000	0.000000	0.000000
0.898573	11.874452	25.006859	-0.034415	-0.113045	2.618206	0.000000	-0.006451	0.000000	0.000000	0.000000	0.000000	0.000000
1.339533	12.057119	24.829194	-0.381403	0.514415	2.631655	0.000000	0.067509	0.000000	0.000000	0.000000	0.000000	0.000000
1.780493	12.552299	24.106408	-0.745816	1.118469	2.677855	0.000000	0.142237	0.000000	0.000000	0.000000	0.000000	0.000000
2.221453	13.382616	22.871385	-1.144304	1.671633	2.757334	0.000000	0.218585	0.000000	0.000001	0.000000	0.000000	0.000000
2.662413	14.586006	21.180318	-1.595071	2.148740	2.870995	0.000000	0.297423	0.000000	0.000001	0.000000	0.000000	0.000000
3.108373	16.238245	19.085347	-2.123011	2.529210	3.021995	0.000000	0.380138	0.000000	0.000001	0.000000	0.000000	0.000000
3.657433	18.356924	16.732482	-1.712886	1.781344	3.205441	0.000000	0.287100	0.000000	0.000001	0.000000	0.000000	0.000000
4.206493	19.955729	15.126788	-1.181772	1.160359	3.336329	0.000000	0.188970	0.000000	0.000001	0.000000	0.000000	0.000000
4.755553	20.921728	14.153895	-0.567182	0.622024	3.412337	0.000000	0.087488	0.000000	0.000001	0.000000	0.000000	0.000000
5.304613	21.186688	13.744507	0.087470	0.127994	3.432117	0.000000	-0.015546	0.000000	0.000001	0.000000	0.000000	0.000000
5.603185	21.171724	13.653291	0.018006	0.141599	3.430152	0.000000	-0.006578	0.000000	0.000001	0.000000	0.000000	0.000000
5.936519	21.164969	13.567193	0.002257	0.116696	3.427959	0.000000	-0.006578	0.000000	0.000001	0.000000	0.000000	0.000000
6.269852	21.168715	13.497697	-0.013493	0.091792	3.425767	0.000000	-0.006578	0.000000	0.000001	0.000000	0.000000	0.000000
6.604435	21.183033	13.444637	-0.029301	0.066795	3.423566	0.000000	-0.006578	0.000000	0.000002	0.000000	0.000000	0.000000
6.901758	21.204633	13.411522	-0.098752	0.079623	3.421610	0.000000	0.002361	0.000000	0.000002	0.000000	0.000000	0.000000
7.450818	20.951617	13.584624	0.556840	-0.396754	3.394706	0.000000	-0.100216	0.000000	0.000002	0.000000	0.000000	0.000000
7.999878	19.996120	14.293200	1.173100	-0.901390	3.311886	0.000000	-0.201017	0.000000	0.000002	0.000000	0.000000	0.000000
8.548938	18.405633	15.587721	1.706498	-1.470231	3.174620	0.000000	-0.298252	0.000000	0.000002	0.000000	0.000000	0.000000
9.097998	16.292499	17.560393	2.119358	-2.143793	2.985342	0.000000	-0.390196	0.000000	0.000002	-0.000000	0.000000	0.000000
9.543958	14.643758	19.318201	1.590848	-1.781177	2.829636	0.000000	-0.308493	0.000000	0.000002	0.000000	0.000000	0.000000
9.984918	13.444414	20.699219	1.139317	-1.338750	2.710848	0.000000	-0.230788	0.000000	0.000002	0.000000	0.000000	0.000000
10.425878	12.618914	21.661599	0.739837	-0.835410	2.625714	0.000000	-0.155711	0.000000	0.000002	0.000000	0.000000	0.000000
10.866838	12.129543	22.161552	0.374159	-0.294059	2.573263	0.000000	-0.082407	0.000000	0.000002	0.000000	0.000000	0.000000
11.309048	11.953805	22.175816	0.054785	0.206230	2.552879	0.000000	-0.016303	0.000000	0.000002	0.000000	0.000000	0.000000
11.606371	11.928645	22.057338	0.029837	0.192252	2.548032	0.000000	-0.016303	0.000000	0.000002	0.000000	0.000000	0.000000
12.086371	11.919333	21.883608	-0.010438	0.169686	2.540206	0.000000	-0.016303	0.000000	0.000002	0.000000	0.000000	0.000000
12.566371	11.948685	21.731541	-0.050713	0.147120	2.532381	0.000000	-0.016303	0.000000	0.000002	0.000000	0.000000	0.000000
13.046371	12.016702	21.601136	-0.090988	0.124555	2.524556	0.000000	-0.016303	0.000000	0.000002	0.000000	0.000000	0.000000
13.526371	12.123382	21.492396	-0.131263	0.101989	2.516730	0.000000	-0.016303	0.000000	0.000002	0.000000	0.000000	0.000000
14.007621	12.269156	21.405119	-0.171643	0.079364	2.508884	0.000000	-0.016303	0.000000	0.000002	0.000000	0.000000	0.000000
14.304943	12.378640	21.362082	-0.166235	0.013002	2.504037	0.000000	-0.022443	0.000000	0.000002	0.000000	0.000000	0.000000
14.745903	12.683950	21.116782	-0.528767	0.541167	2.509771	0.000000	0.048474	0.000000	0.000003	0.000000	0.000000	0.000000
15.186863	13.318388	20.414803	-0.915456	1.044709	2.546868	0.000000	0.119942	0.000000	0.000003	0.000000	0.000000	0.000000
15.627823	14.310939	19.288084	-1.343971	1.500718	2.615750	0.000000	0.192777	0.000000	0.000003	0.000000	0.000000	0.000000
16.068783	15.706952	17.787889	-1.833887	1.888446	2.717204	0.000000	0.267808	0.000000	0.000003	0.000000	0.000000	0.000000
16.514743	17.593859	15.960975	-2.412346	2.190999	2.854077	0.000000	0.346351	0.000000	0.000003	0.000001	0.000000	0.000000
17.063803	20.017093	13.920942	-1.974952	1.546434	3.020517	0.000000	0.259029	0.000000	0.000003	0.000000	0.000000	0.000000
17.612863	21.880105	12.524443	-1.398056	1.012017	3.137678	0.000000	0.167113	0.000000	0.000004	0.000000	0.000000	0.000000
18.161923	23.051301	11.672007	-0.722409	0.549684	3.203482	0.000000	0.072233	0.000000	0.000004	0.000000	0.000000	0.000000
18.710983	23.447953	11.302918	0.004266	0.126504	3.216763	0.000000	-0.023928	0.000000	0.000004	0.000000	0.000000	0.000000
19.009556	23.485803	11.217821	-0.069772	0.128977	3.212128	0.000000	-0.015524	0.000000	0.000004	0.000000	0.000000	0.000000
19.342889	23.537072	11.141906	-0.084035	0.098768	3.206953	0.000000	-0.015524	0.000000	0.000004	0.000000	0.000000	0.000000
19.676223	23.597849	11.086131	-0.098297	0.068559	3.201778	0.000000	-0.015524	0.000000	0.000004	0.000000	0.000000	0.000000
20.010806	23.668709	11.050262	-0.229880	0.092986	3.196604	0.000000	0.000314	0.000000	0.000004	0.000000	0.000000	0.000000
20.308129	23.809338	11.003037	-0.305313	0.094595	3.196698	0.000000	0.008666	0.000000	0.000004	0.000000	0.000000	0.000000
20.857189	23.733966	11.121668	0.441775	-0.311932	3.175240	0.000000	-0.086713	0.000000	0.000004	-0.000000	0.000000	0.000000
21.406249	22.850552	11.696223	1.157658	-0.740678	3.101759	0.000000	-0.180553	0.000000	0.000004	-0.000000	0.000000	0.000000
21.955309	21.221495	12.767627	1.791771	-1.222181	2.977559	0.000000	-0.271192	0.000000	0.000004	-0.000000	0.000000	0.000000
22.504369	18.961863	14.412193	2.299321	-1.790738	2.804842	0.000000	-0.357020	0.000000	0.000004	-0.000000	0.000000	0.000000
22.950329	17.181210	15.888562	1.707629	-1.505839	2.662917	0.000000	-0.279819	0.000000	0.000004	-0.000000	0.000000	0.000000
23.391289	15.904500	17.065608	1.198651	-1.153284	2.555848	0.000000	-0.206261	0.000000	0.000003	-0.000000	0.000000	0.000000
23.832249	15.050915	17.907314	0.744436	-0.748255	2.480667	0.000000	-0.135051	0.000000	0.000003	-0.000000	0.000000	0.000000
24.273209	14.581457	18.375382	0.324232	-0.309181	2.436518	0.000000	-0.065380	0.000000	0.000003	-0.000000	0.000000	0.000000
24.715418	14.474791	18.448268	-0.045751	0.098653	2.422895	0.000000	-0.002395	0.000000	0.000003	0.000000	0.000000	0.000000
25.012741	14.508116	18.394444	-0.066334	0.082379	2.422183	0.000000	-0.002395	0.000000	0.000003	0.000000	0.000000	0.000000
25.346075	14.560031	18.345606	-0.089411	0.064135	2.421385	0.000000	-0.002395	0.000000	0.000003	0.000000	0.000000	0.000000
25.679408	14.627331	18.308931	-0.112488	0.045890	2.420587	0.000000	-0.002395	0.000000	0.000003	0.000000	0.000000	0.000000
26.013991	14.710056	18.284720	-0.016314	-0.120757	2.419761	0.000000	-0.022026	0.000000	0.000003	-0.000000	0.000000	0.000000
26.311314	14.725768	18.361433	-0.000420	-0.182281	2.413212	0.000000	-0.027943	0.000000	0.000003	-0.000000	0.000000	0.000000
26.752274	14.907590	18.323011	-0.413478	0.269082	2.415999	0.000000	0.040594	0.000000	0.000003	0.000000	0.000000	0.000000
27.193234	15.460618	17.890422	-0.845425	0.708201	2.449080	0.000000	0.109594	0.000000	0.000003	0.000000	0.000000	0.000000
27.634194	16.410118	17.083349	-1.315998	1.115098	2.512834	0.000000	0.179842	0.000000	0.000003	0.000000	0.000000	0.000000
28.075154	17.799469	15.938512	-1.846696	1.471259	2.607986	0.000000	0.252138	0.000000	0.000004	0.000000	0.000000	0.000000
28.521114	19.716290	14.490759	-2.466720	1.761393	2.737223	0.000000	0.327749	0.000000	0.000004	0.000000	0.000000	0.000000
29.070174	22.152577	12.877536	-1.944210	1.194104	2.894516	0.000000	0.244362	0.000000	0.000004	0.000000	0.000000	0.000000
29.619234	23.935817	11.837183	-1.284370	0.711869	3.004765	0.000000	0.156640	0.000000	0.000004	0.000000	0.000000	0.000000
30.168294	24.940051	11.295599	-0.533809	0.280338	3.066015	0.000000	0.066140	0.000000	0.000004	0.000000	0.000000	0.000000
30.717354	25.094345	11.214207	0.254458	-0.131225	3.077180	0.000000	-0.025533	0.000000	0.000004	-0.000000	0.000000	0.000000
31.015927	24.985227	11.283103	0.176571	-0.128826	3.071957	0.000000	-0.017493	0.000000	0.000004	-0.000000	0.000000	0.000000
31.349260	24.872099	11.378998	0.162814	-0.158859	3.066126	0.000000	-0.017493	0.000000	0.000004	-0.000000	0.000000	0.000000
31.682593	24.768142	11.494915	0.149056	-0.188892	3.060295	0.000000	-0.017493	0.000000	0.000004	-0.000000	0.000000	0.000000
32.017177	24.673019	11.631402	0.135248	-0.219038	3.054442	0.000000	-0.017493	0.000000	0.000004	-0.000000	0.000000	0.000000
32.314499	24.596243	11.769616	0.058714	-0.215075	3.049241	0.000000	-0.009526	0.000000	0.000004	-0.000000	0.000000	0.000000
32.863559	24.110417	12.245128	0.820881	-0.656083	3.019132	0.000000	-0.099987	0.000000	0.000004	-0.000000	0.000000	0.000000
33.412619	22.814681	13.227585	1.525065	-1.143822	2.939770	0.000000	-0.188674	0.000000	0.000004	-0.000000	0.000000	0.000000
33.961679	20.800560	14.786965	2.121527	-1.713033	2.812560	0.000000	-0.274015	0.000000	0.000004	-0.000000	0.000000	0.000000
34.510739	18.210322	17.034339	2.568134	-2.404259	2.639761	0.000000	-0.354496	0.000000	0.000003	-0.000001	0.000000	0.000000
34.956699	16.196425	19.044470	1.963915	-2.084343	2.498010	0.000000	-0.281575	0.000000	0.000003	-0.000000	0.000000	0.000000
35.397659	14.694770	20.706458	1.454426	-1.670339	2.389226	0.000000	-0.212290	0.000000	0.000003	-0.000000	0.000000	0.000000
35.838619	13.611556	21.968294	1.011385	-1.180336	2.310433	0.000000	-0.145423	0.000000	0.000003	-0.000000	0.000000	0.000000
36.279579	12.897293	22.772562	0.614551	-0.636628	2.260733	0.000000	-0.080212	0.000000	0.000003	-0.000000	0.000000	0.000000
36.721789	12.518657	23.082973	0.276388	-0.120614	2.239532	0.000000	-0.021406	0.000000	0.000003	-0.000000	0.000000	0.000000
37.019112	12.361905	23.158581	0.250823	-0.133682	2.233168	0.000000	-0.021406	0.000000	0.000002	-0.000000	0.000000	0.000000
37.352445	12.204244	23.252586	0.222162	-0.148333	2.226033	0.000000	-0.021406	0.000000	0.000002	-0.000000	0.000000	0.000000
37.685779	12.065690	23.356358	0.193501	-0.162983	2.218898	0.000000	-0.021406	0.000000	0.000002	-0.000000	0.000000	0.000000
38.020362	11.945831	23.470341	0.164733	-0.177689	2.211736	0.000000	-0.021406	0.000000	0.000002	-0.000000	0.000000	0.000000
38.317684	11.855474	23.579888	0.168240	-0.248581	2.205371	0.000000	-0.026814	0.000000	0.000002	-0.000000	0.000000	0.000000
38.758644	11.858312	23.537957	-0.174701	0.343311	2.207473	0.000000	0.036356	0.000000	0.000002	-0.000000	0.000000	0.000000
39.199604	12.165960	22.978945	-0.525624	0.919581	2.237495	0.000000	0.099941	0.000000	0.000002	-0.000000	0.000000	0.000000
39.640564	12.792474	21.928287	-0.900561	1.454012	2.295780	0.000000	0.164664	0.000000	0.000002	-0.000000	0.000000	0.000000
40.081524	13.766478	20.433787	-1.316643	1.922286	2.382991	0.000000	0.231262	0.000000	0.000002	0.000000	0.000000	0.000000
40.527484	15.150034	18.540877	-1.796702	2.304377	2.501593	0.000000	0.300899	0.000000	0.000002	0.000000	0.000000	0.000000
41.076544	16.915835	16.413810	-1.400304	1.592506	2.646277	0.000000	0.225351	0.000000	0.000002	0.000000	0.000000	0.000000
41.625604	18.189120	15.001960	-0.904995	0.994066	2.748321	0.000000	0.145806	0.000000	0.000002	-0.000000	0.000000	0.000000
42.174664	18.879950	14.204765	-0.345762	0.466431	2.805914	0.000000	0.063674	0.000000	0.000002	-0.000000	0.000000	0.000000
42.723724	18.939528	13.965442	0.237894	-0.027981	2.818035	0.000000	-0.019587	0.000000	0.000002	-0.000000	0.000000	0.000000
43.022297	18.831894	13.966745	0.172085	-0.012873	2.814386	0.000000	-0.012224	0.000000	0.000002	-0.000000	0.000000	0.000000
43.502297	18.679289	13.995603	0.145842	-0.047246	2.808518	0.000000	-0.012224	0.000000	0.000002	-0.000000	0.000000	0.000000
43.982297	18.551878	14.057458	0.119598	-0.081619	2.802651	0.000000	-0.012224	0.000000	0.000002	-0.000000	0.000000	0.000000
44.462297	18.449661	14.152311	0.093355	-0.115992	2.796783	0.000000	-0.012224	0.000000	0.000002	-0.000000	0.000000	0.000000
44.942297	18.372637	14.280163	0.067111	-0.150365	2.790916	0.000000	-0.012224	0.000000	0.000002	-0.000000	0.000000	0.000000
45.423547	18.320932	14.441296	-0.049973	-0.113277	2.785050	0.000000	0.001575	0.000000	0.000001	-0.000000	0.000000	0.000000
45.720870	18.355485	14.514855	-0.114201	-0.096205	2.785519	0.000000	0.008853	0.000000	0.000001	-0.000000	0.000000	0.000000
46.269930	18.171814	14.901301	0.446738	-0.611781	2.767810	0.000000	-0.073264	0.000000	0.000001	-0.000000	0.000000	0.000000
46.818990	17.385927	15.874373	0.976122	-1.170932	2.705305	0.000000	-0.154081	0.000000	0.000001	-0.000000	0.000000	0.000000
47.368050	16.053333	17.503382	1.436557	-1.813486	2.599112	0.000000	-0.232166	0.000000	0.000001	-0.000000	0.000000	0.000000
47.917110	14.268160	19.904359	1.795521	-2.585211	2.451116	0.000000	-0.306132	0.000000	0.000001	-0.000000	0.000000	0.000000
48.363070	12.878828	22.039132	1.330890	-2.181580	2.329884	0.000000	-0.237838	0.000000	0.000001	-0.000000	0.000000	0.000000
48.804030	11.885268	23.748421	0.930832	-1.679959	2.239466	0.000000	-0.172651	0.000000	0.000001	-0.000000	0.000000	0.000000
49.244990	11.224512	24.979795	0.573300	-1.101900	2.177332	0.000000	-0.109429	0.000000	0.000000	-0.000000	0.000000	0.000000
49.685950	10.866374	25.677228	0.241961	-0.473706	2.142775	0.000000	-0.047454	0.000000	0.000000	-0.000000	0.000000	0.000000
50.128160	10.794619	25.808707	-0.051969	0.112701	2.135413	0.000000	0.008744	0.000000	0.000000	-0.000000	0.000000	0.000000
50.425482	10.833734	25.745158	-0.079587	0.101034	2.138013	0.000000	0.008744	0.000000	0.000000	-0.000000	0.000000	0.000000
50.758816	10.897113	25.682162	-0.110550	0.087955	2.140928	0.000000	0.008744	0.000000	0.000000	-0.000000	0.000000	0.000000
51.092149	10.981134	25.627886	-0.141513	0.074875	2.143842	0.000000	0.008744	0.000000	-0.000000	-0.000000	0.000000	0.000000
51.426732	11.086003	25.582693	-0.082655	-0.145793	2.146746	0.000000	-0.008672	0.000000	-0.000000	-0.000000	0.000000	0.000000
51.724055	11.143182	25.672917	-0.082332	-0.220620	2.144168	0.000000	-0.013930	0.000000	-0.000000	-0.000000	0.000000	0.000000
52.165015	11.361254	25.581896	-0.414082	0.426251	2.151613	0.000000	0.047731	0.000000	-0.000000	-0.000000	0.000000	0.000000
52.605975	11.879108	24.926792	-0.764751	1.053727	2.186343	0.000000	0.109936	0.000000	-0.000000	-0.000000	0.000000	0.000000
53.046935	12.720403	23.737412	-1.150359	1.633260	2.248752	0.000000	0.173394	0.000000	-0.000001	-0.000000	0.000000	0.000000
53.487895	13.923577	22.067872	-1.588524	2.138481	2.339552	0.000000	0.238826	0.000000	-0.000001	-0.000000	0.000000	0.000000
53.933855	15.564218	19.969170	-2.103501	2.547737	2.461281	0.000000	0.307377	0.000000	-0.000001	-0.000000	0.000000	0.000000
54.482915	17.676443	17.607685	-1.720710	1.778610	2.609869	0.000000	0.233071	0.000000	-0.000001	-0.000000	0.000000	0.000000
55.031975	19.298682	16.016686	-1.216375	1.136171	2.716463	0.000000	0.154632	0.000000	-0.000001	-0.000000	0.000000	0.000000
55.581035	20.316348	15.082851	-0.626123	0.574658	2.779170	0.000000	0.073450	0.000000	-0.000001	-0.000000	0.000000	0.000000
56.130095	20.657558	14.739664	0.008356	0.054076	2.796880	0.000000	-0.009035	0.000000	-0.000001	-0.000000	0.000000	0.000000
56.428668	20.689123	14.690475	-0.060102	0.072159	2.796365	0.000000	-0.001727	0.000000	-0.000001	-0.000000	0.000000	0.000000
56.762001	20.734581	14.649973	-0.076272	0.049350	2.795789	0.000000	-0.001727	0.000000	-0.000002	-0.000000	0.000000	0.000000
57.095334	20.790819	14.624675	-0.092442	0.026541	2.795213	0.000000	-0.001727	0.000000	-0.000002	-0.000000	0.000000	0.000000
57.429918	20.858109	14.614575	-0.108672	0.003647	2.794635	0.000000	-0.001727	0.000000	-0.000002	-0.000000	0.000000	0.000000
57.727240	20.927018	14.618455	-0.177774	0.021499	2.794122	0.000000	0.005573	0.000000	-0.000002	-0.000000	0.000000	0.000000
58.276300	20.765158	14.875631	0.470824	-0.492657	2.774541	0.000000	-0.076792	0.000000	-0.000002	-0.000000	0.000000	0.000000
58.825360	19.905187	15.713252	1.086165	-1.041903	2.710045	0.000000	-0.157795	0.000000	-0.000002	-0.000000	0.000000	0.000000
59.374420	18.407848	17.190980	1.624785	-1.665362	2.601778	0.000000	-0.235999	0.000000	-0.000002	-0.000000	0.000000	0.000000
59.923480	16.378907	19.414071	2.048639	-2.407441	2.451659	0.000000	-0.310018	0.000000	-0.000002	0.000000	0.000000	0.000000
60.369440	14.790782	21.390042	1.525111	-2.004684	2.328694	0.000000	-0.241732	0.000000	-0.000002	0.000000	0.000000	0.000000
60.810400	13.648362	22.946722	1.075474	-1.512087	2.236548	0.000000	-0.176598	0.000000	-0.000002	-0.000000	0.000000	0.000000
61.251360	12.879403	24.036856	0.674971	-0.950691	2.172654	0.000000	-0.113474	0.000000	-0.000002	-0.000000	0.000000	0.000000
61.692320	12.448773	24.610847	0.305307	-0.346039	2.136284	0.000000	-0.051643	0.000000	-0.000002	-0.000000	0.000000	0.000000
62.134530	12.336849	24.642042	-0.020257	0.213872	2.127028	0.000000	0.004384	0.000000	-0.000002	-0.000000	0.000000	0.000000
62.431853	12.356063	24.518615	-0.044367	0.201254	2.128332	0.000000	0.004384	0.000000	-0.000002	-0.000000	0.000000	0.000000
62.765186	12.394651	24.389161	-0.071398	0.187109	2.129793	0.000000	0.004384	0.000000	-0.000002	-0.000000	0.000000	0.000000
63.098520	12.451260	24.269137	-0.098428	0.172963	2.131254	0.000000	0.004384	0.000000	-0.000002	-0.000000	0.000000	0.000000
63.433103	12.526202	24.158147	-0.125560	0.158764	2.132721	0.000000	0.004384	0.000000	-0.000002	-0.000000	0.000000	0.000000
63.730426	12.608035	24.067490	-0.118751	0.087125	2.134024	0.000000	-0.000850	0.000000	-0.000002	-0.000000	0.000000	0.000000
64.171386	12.873265	23.725583	-0.485014	0.685293	2.147191	0.000000	0.060624	0.000000	-0.000002	-0.000000	0.000000	0.000000
64.612346	13.470023	22.867926	-0.873436	1.252282	2.187591	0.000000	0.122788	0.000000	-0.000003	-0.000000	0.000000	0.000000
65.053306	14.425574	21.533542	-1.301763	1.762293	2.255685	0.000000	0.186351	0.000000	-0.000003	-0.000000	0.000000	0.000000
65.494266	15.783574	19.783143	-1.789564	2.192121	2.352249	0.000000	0.252036	0.000000	-0.000003	-0.000000	0.000000	0.000000
65.940226	17.629235	17.671594	-2.363819	2.522966	2.479955	0.000000	0.320993	0.000000	-0.000003	-0.000001	0.000000	0.000000
66.489286	19.995012	15.309354	-1.919452	1.804764	2.635831	0.000000	0.245965	0.000000	-0.000003	-0.000000	0.000000	0.000000
67.038346	21.795030	13.660990	-1.339505	1.215112	2.749253	0.000000	0.166574	0.000000	-0.000004	-0.000000	0.000000	0.000000
67.587406	22.902144	12.609094	-0.664941	0.712010	2.818207	0.000000	0.084228	0.000000	-0.000004	-0.000000	0.000000	0.000000
68.136466	23.238154	12.078739	0.056590	0.259623	2.841471	0.000000	0.000388	0.000000	-0.000004	-0.000000	0.000000	0.000000
68.435038	23.244456	11.912867	-0.016977	0.264369	2.843804	0.000000	0.007813	0.000000	-0.000004	-0.000000	0.000000	0.000000
68.768372	23.260556	11.746600	-0.031322	0.234432	2.846408	0.000000	0.007813	0.000000	-0.000004	-0.000000	0.000000	0.000000
69.101705	23.286218	11.600291	-0.045666	0.204495	2.849012	0.000000	0.007813	0.000000	-0.000004	-0.000000	0.000000	0.000000
69.436288	23.321594	11.473503	-0.060064	0.174447	2.851626	0.000000	0.007813	0.000000	-0.000004	-0.000000	0.000000	0.000000
69.733611	23.361115	11.377708	-0.133899	0.177473	2.853949	0.000000	0.015270	0.000000	-0.000004	-0.000000	0.000000	0.000000
70.282671	23.106947	11.410609	0.594075	-0.237749	2.839146	0.000000	-0.069111	0.000000	-0.000004	0.000000	0.000000	0.000000
