#ParticleID	Turn	x[m]	xp	y[m]	yp	z[m]	dE[GeV]# s	beta_x	beta_y	alpha_x	alpha_y	D_x	D_y	D_px	D_py	orbit_x	orbit_px	orbit_y	orbit_py
0.300000	11.831215	24.950277	-0.013272	-0.027757	2.618275	0.000000	-0.000050	0.000000	0.000000	0.000000	0.000000	0.000000
0.601250	11.846883	24.970641	-0.038738	-0.039840	2.618260	0.000000	-0.000050	0.000000	0.000000	0.000000	0.000000	0.000000
0.898573	11.877392	24.997877	-0.034746	-0.113068	2.618245	0.000000	-0.006471	0.000000	0.000000	0.000000	0.000000	0.000000
1.339533	12.060383	24.820338	-0.381810	0.514155	2.631685	0.000000	0.067490	0.000000	0.000000	0.000000	0.000000	0.000000
1.780493	12.555962	24.097881	-0.746317	1.117984	2.677878	0.000000	0.142219	0.000000	0.000000	0.000000	0.000000	0.000000
2.221453	13.386770	22.863377	-1.144922	1.670946	2.757348	0.000000	0.218567	0.000000	0.000000	0.000000	0.000000	0.000000
2.662413	14.590767	21.172995	-1.595834	2.147880	2.871002	0.000000	0.297405	0.000000	0.000001	0.000000	0.000000	0.000000
3.108373	16.243764	19.078853	-2.123956	2.528218	3.021994	0.000000	0.380120	0.000000	0.000001	0.000000	0.000000	0.000000
3.657433	18.363411	16.726935	-1.713693	1.780602	3.205431	0.000000	0.287083	0.000000	0.000001	0.000000	0.000000	0.000000
4.206493	19.962999	15.121945	-1.182383	1.159813	3.336310	0.000000	0.188953	0.000000	0.000001	0.000000	0.000000	0.000000
4.755553	20.929542	14.149562	-0.567555	0.621635	3.412309	0.000000	0.087472	0.000000	0.000001	0.000000	0.000000	0.000000
5.304613	21.194767	13.740527	0.087362	0.127736	3.432079	0.000000	-0.015561	0.000000	0.000001	0.000000	0.000000	0.000000
5.603185	21.179878	13.649474	0.017883	0.141326	3.430111	0.000000	-0.006593	0.000000	0.000001	0.000000	0.000000	0.000000
5.936519	21.173204	13.563560	0.002139	0.116417	3.427913	0.000000	-0.006593	0.000000	0.000001	0.000000	0.000000	0.000000
6.269852	21.177025	13.494251	-0.013604	0.091508	3.425715	0.000000	-0.006593	0.000000	0.000001	0.000000	0.000000	0.000000
6.604435	21.191416	13.441382	-0.029406	0.066506	3.423509	0.000000	-0.006593	0.000000	0.000001	0.000000	0.000000	0.000000
6.901758	21.213077	13.408441	-0.098874	0.079322	3.421549	0.000000	0.002346	0.000000	0.000001	0.000000	0.000000	0.000000
7.450818	20.960040	13.581827	0.557002	-0.396973	3.394637	0.000000	-0.100229	0.000000	0.000001	0.000000	0.000000	0.000000
7.999878	20.004213	14.290606	1.173535	-0.901543	3.311811	0.000000	-0.201028	0.000000	0.000001	0.000000	0.000000	0.000000
8.548938	18.413112	15.585263	1.707174	-1.470328	3.174540	0.000000	-0.298260	0.000000	0.000001	-0.000000	0.000000	0.000000
9.097998	16.299125	17.558014	2.120228	-2.143841	2.985258	0.000000	-0.390202	0.000000	0.000001	-0.000000	0.000000	0.000000
9.543958	14.649696	19.315904	1.591525	-1.781310	2.829549	0.000000	-0.308501	0.000000	0.000001	-0.000000	0.000000	0.000000
9.984918	13.449828	20.697074	1.139833	-1.338960	2.710757	0.000000	-0.230798	0.000000	0.000001	0.000000	0.000000	0.000000
10.425878	12.623935	21.659671	0.740216	-0.835689	2.625618	0.000000	-0.155723	0.000000	0.000001	0.000000	0.000000	0.000000
10.866838	12.134283	22.159896	0.374418	-0.294394	2.573161	0.000000	-0.082422	0.000000	0.000001	0.000000	0.000000	0.000000
11.309048	11.958364	22.174475	0.054947	0.205857	2.552770	0.000000	-0.016320	0.000000	0.000001	0.000000	0.000000	0.000000
11.606371	11.933105	22.056218	0.030009	0.191881	2.547917	0.000000	-0.016320	0.000000	0.000001	0.000000	0.000000	0.000000
12.086371	11.923622	21.882843	-0.010252	0.169317	2.540084	0.000000	-0.016320	0.000000	0.000001	0.000000	0.000000	0.000000
12.566371	11.952789	21.731130	-0.050512	0.146753	2.532250	0.000000	-0.016320	0.000000	0.000001	0.000000	0.000000	0.000000
13.046371	12.020606	21.601077	-0.090773	0.124189	2.524416	0.000000	-0.016320	0.000000	0.000001	0.000000	0.000000	0.000000
13.526371	12.127073	21.492686	-0.131033	0.101626	2.516583	0.000000	-0.016320	0.000000	0.000002	0.000000	0.000000	0.000000
14.007621	12.272618	21.405758	-0.171399	0.079003	2.508728	0.000000	-0.016320	0.000000	0.000002	0.000000	0.000000	0.000000
14.304943	12.381954	21.362935	-0.165973	0.012639	2.503876	0.000000	-0.022460	0.000000	0.000002	0.000000	0.000000	0.000000
14.745903	12.687063	21.117943	-0.528572	0.540835	2.509601	0.000000	0.048452	0.000000	0.000002	0.000000	0.000000	0.000000
15.186863	13.321355	20.416237	-0.915320	1.044424	2.546688	0.000000	0.119917	0.000000	0.000002	0.000000	0.000000	0.000000
15.627823	14.313809	19.289744	-1.343886	1.500492	2.615558	0.000000	0.192747	0.000000	0.000002	0.000000	0.000000	0.000000
16.068783	15.709768	17.789719	-1.833851	1.888289	2.716997	0.000000	0.267772	0.000000	0.000002	0.000000	0.000000	0.000000
16.514743	17.596664	15.962910	-2.412357	2.190920	2.853853	0.000000	0.346309	0.000000	0.000002	0.000000	0.000000	0.000000
17.063803	20.019842	13.922980	-1.974840	1.546325	3.020272	0.000000	0.258995	0.000000	0.000002	0.000000	0.000000	0.000000
17.612863	21.882668	12.526619	-1.397830	1.011871	3.137417	0.000000	0.167088	0.000000	0.000002	0.000000	0.000000	0.000000
18.161923	23.053560	11.674368	-0.722085	0.549491	3.203210	0.000000	0.072216	0.000000	0.000003	0.000000	0.000000	0.000000
18.710983	23.449812	11.305523	0.004665	0.126249	3.216483	0.000000	-0.023936	0.000000	0.000003	0.000000	0.000000	0.000000
19.009556	23.487426	11.220572	-0.069377	0.128738	3.211846	0.000000	-0.015533	0.000000	0.000003	0.000000	0.000000	0.000000
19.342889	23.538431	11.144813	-0.083637	0.098538	3.206668	0.000000	-0.015533	0.000000	0.000003	0.000000	0.000000	0.000000
19.676223	23.598943	11.089188	-0.097898	0.068338	3.201491	0.000000	-0.015533	0.000000	0.000003	0.000000	0.000000	0.000000
20.010806	23.669535	11.053464	-0.229483	0.092791	3.196314	0.000000	0.000304	0.000000	0.000003	0.000000	0.000000	0.000000
20.308129	23.809928	11.006352	-0.304916	0.094418	3.196404	0.000000	0.008655	0.000000	0.000003	0.000000	0.000000	0.000000
20.857189	23.734111	11.125230	0.442183	-0.312207	3.174943	0.000000	-0.086714	0.000000	0.000003	-0.000000	0.000000	0.000000
21.406249	22.850255	11.700149	1.158049	-0.741070	3.101464	0.000000	-0.180545	0.000000	0.000003	-0.000000	0.000000	0.000000
21.955309	21.220793	12.772060	1.792115	-1.222718	2.977271	0.000000	-0.271174	0.000000	0.000003	-0.000000	0.000000	0.000000
22.504369	18.960819	14.417312	2.299596	-1.791458	2.804566	0.000000	-0.356993	0.000000	0.000002	-0.000000	0.000000	0.000000
22.950329	17.179924	15.894275	1.707899	-1.506444	2.662652	0.000000	-0.279799	0.000000	0.000002	-0.000000	0.000000	0.000000
23.391289	15.902973	17.071793	1.198929	-1.153745	2.555590	0.000000	-0.206248	0.000000	0.000002	-0.000000	0.000000	0.000000
23.832249	15.049133	17.913834	0.744735	-0.748553	2.480414	0.000000	-0.135045	0.000000	0.000002	-0.000000	0.000000	0.000000
24.273209	14.579397	18.382088	0.324566	-0.309301	2.436266	0.000000	-0.065380	0.000000	0.000002	-0.000000	0.000000	0.000000
24.715418	14.472414	18.455000	-0.045372	0.098698	2.422642	0.000000	-0.002401	0.000000	0.000002	0.000000	0.000000	0.000000
25.012741	14.505515	18.401147	-0.065958	0.082430	2.421928	0.000000	-0.002401	0.000000	0.000002	0.000000	0.000000	0.000000
25.346075	14.557181	18.352273	-0.089038	0.064192	2.421128	0.000000	-0.002401	0.000000	0.000002	0.000000	0.000000	0.000000
25.679408	14.624233	18.315557	-0.112118	0.045954	2.420327	0.000000	-0.002401	0.000000	0.000002	0.000000	0.000000	0.000000
26.013991	14.706711	18.291302	-0.015974	-0.120740	2.419500	0.000000	-0.022029	0.000000	0.000002	-0.000000	0.000000	0.000000
26.311314	14.722223	18.368003	-0.000093	-0.182275	2.412950	0.000000	-0.027946	0.000000	0.000002	-0.000000	0.000000	0.000000
26.752274	14.903717	18.329496	-0.413058	0.269266	2.415733	0.000000	0.040584	0.000000	0.000002	0.000000	0.000000	0.000000
27.193234	15.456328	17.896670	-0.844894	0.708554	2.448809	0.000000	0.109577	0.000000	0.000002	0.000000	0.000000	0.000000
27.634194	16.405301	17.089216	-1.315332	1.115605	2.512554	0.000000	0.179818	0.000000	0.000002	0.000000	0.000000	0.000000
28.075154	17.793993	15.943873	-1.845862	1.471896	2.607694	0.000000	0.252106	0.000000	0.000002	0.000000	0.000000	0.000000
28.521114	19.709982	14.495505	-2.465681	1.762131	2.736916	0.000000	0.327710	0.000000	0.000002	0.000000	0.000000	0.000000
29.070174	22.145209	12.881573	-1.943330	1.194665	2.894190	0.000000	0.244333	0.000000	0.000003	0.000000	0.000000	0.000000
29.619234	23.927600	11.840683	-1.283712	0.712293	3.004426	0.000000	0.156622	0.000000	0.000003	0.000000	0.000000	0.000000
30.168294	24.931255	11.298693	-0.533419	0.280656	3.065669	0.000000	0.066133	0.000000	0.000003	0.000000	0.000000	0.000000
30.717354	25.085282	11.217000	0.254552	-0.130991	3.076833	0.000000	-0.025528	0.000000	0.000003	-0.000000	0.000000	0.000000
31.015927	24.976096	11.285749	0.176682	-0.128576	3.071611	0.000000	-0.017489	0.000000	0.000003	-0.000000	0.000000	0.000000
31.349260	24.862896	11.381475	0.162920	-0.158600	3.065781	0.000000	-0.017489	0.000000	0.000003	-0.000000	0.000000	0.000000
31.682593	24.758870	11.497217	0.149157	-0.188625	3.059951	0.000000	-0.017489	0.000000	0.000003	-0.000000	0.000000	0.000000
32.017177	24.663681	11.633521	0.135343	-0.218761	3.054100	0.000000	-0.017489	0.000000	0.000003	-0.000000	0.000000	0.000000
32.314499	24.586851	11.771569	0.058827	-0.214785	3.048900	0.000000	-0.009523	0.000000	0.000003	-0.000000	0.000000	0.000000
32.863559	24.101072	12.246785	0.820681	-0.655832	3.018795	0.000000	-0.099973	0.000000	0.000002	-0.000000	0.000000	0.000000
33.412619	22.805722	13.228980	1.524567	-1.143593	2.939443	0.000000	-0.188650	0.000000	0.000002	-0.000000	0.000000	0.000000
33.961679	20.792297	14.788112	2.120765	-1.712809	2.812250	0.000000	-0.273980	0.000000	0.000002	-0.000000	0.000000	0.000000
34.510739	18.203017	17.035236	2.567162	-2.404024	2.639472	0.000000	-0.354451	0.000000	0.000002	-0.000000	0.000000	0.000000
34.956699	16.189888	19.045131	1.963159	-2.084051	2.497740	0.000000	-0.281538	0.000000	0.000002	-0.000000	0.000000	0.000000
35.397659	14.688817	20.706843	1.453850	-1.670005	2.388971	0.000000	-0.212260	0.000000	0.000002	-0.000000	0.000000	0.000000
35.838619	13.606041	21.968370	1.010964	-1.179974	2.310189	0.000000	-0.145399	0.000000	0.000002	-0.000000	0.000000	0.000000
36.279579	12.892088	22.772314	0.614265	-0.636256	2.260498	0.000000	-0.080194	0.000000	0.000002	-0.000000	0.000000	0.000000
36.721789	12.513651	23.082397	0.276211	-0.120247	2.239304	0.000000	-0.021394	0.000000	0.000002	-0.000000	0.000000	0.000000
37.019112	12.357007	23.157787	0.250638	-0.133314	2.232943	0.000000	-0.021394	0.000000	0.000002	-0.000000	0.000000	0.000000
37.352445	12.199471	23.251546	0.221969	-0.147964	2.225812	0.000000	-0.021394	0.000000	0.000001	-0.000000	0.000000	0.000000
37.685779	12.061049	23.355072	0.193299	-0.162614	2.218681	0.000000	-0.021394	0.000000	0.000001	-0.000000	0.000000	0.000000
38.020362	11.941328	23.468807	0.164521	-0.177318	2.211523	0.000000	-0.021394	0.000000	0.000001	-0.000000	0.000000	0.000000
38.317684	11.851100	23.578134	0.168011	-0.248205	2.205162	0.000000	-0.026801	0.000000	0.000001	-0.000000	0.000000	0.000000
38.758644	11.854097	23.535893	-0.174833	0.343634	2.207269	0.000000	0.036364	0.000000	0.000001	-0.000000	0.000000	0.000000
39.199604	12.161821	22.976624	-0.525665	0.919839	2.237293	0.000000	0.099943	0.000000	0.000001	-0.000000	0.000000	0.000000
39.640564	12.788332	21.925773	-0.900513	1.454191	2.295578	0.000000	0.164661	0.000000	0.000001	-0.000000	0.000000	0.000000
40.081524	13.762253	20.431153	-1.316503	1.922379	2.382786	0.000000	0.231254	0.000000	0.000001	-0.000000	0.000000	0.000000
40.527484	15.145642	18.538200	-1.796464	2.304379	2.501383	0.000000	0.300885	0.000000	0.000001	0.000000	0.000000	0.000000
41.076544	16.911269	16.411098	-1.400228	1.592568	2.646062	0.000000	0.225344	0.000000	0.000001	-0.000000	0.000000	0.000000
41.625604	18.184563	14.999146	-0.905087	0.994192	2.748104	0.000000	0.145806	0.000000	0.000001	-0.000000	0.000000	0.000000
42.174664	18.875583	14.201774	-0.346015	0.466630	2.805699	0.000000	0.063681	0.000000	0.000001	-0.000000	0.000000	0.000000
42.723724	18.935520	13.962186	0.237498	-0.027694	2.817826	0.000000	-0.019573	0.000000	0.000001	-0.000000	0.000000	0.000000
43.022297	18.828117	13.963324	0.171698	-0.012600	2.814180	0.000000	-0.012210	0.000000	0.000001	-0.000000	0.000000	0.000000
43.502297	18.675884	13.991923	0.145453	-0.046981	2.808320	0.000000	-0.012210	0.000000	0.000001	-0.000000	0.000000	0.000000
43.982297	18.548847	14.053528	0.119208	-0.081362	2.802459	0.000000	-0.012210	0.000000	0.000001	-0.000000	0.000000	0.000000
44.462297	18.447006	14.148139	0.092962	-0.115744	2.796598	0.000000	-0.012210	0.000000	0.000001	-0.000000	0.000000	0.000000
44.942297	18.370360	14.275756	0.066717	-0.150125	2.790737	0.000000	-0.012210	0.000000	0.000001	-0.000000	0.000000	0.000000
45.423547	18.319035	14.436661	-0.050359	-0.113067	2.784878	0.000000	0.001588	0.000000	0.000001	-0.000000	0.000000	0.000000
45.720870	18.353819	14.510098	-0.114586	-0.096014	2.785350	0.000000	0.008865	0.000000	0.000001	-0.000000	0.000000	0.000000
46.269930	18.170599	14.896252	0.446308	-0.611439	2.767649	0.000000	-0.073246	0.000000	0.000001	-0.000000	0.000000	0.000000
46.818990	17.385194	15.868856	0.975677	-1.170415	2.705156	0.000000	-0.154059	0.000000	0.000001	-0.000000	0.000000	0.000000
47.368050	16.053082	17.497185	1.436129	-1.812757	2.598977	0.000000	-0.232138	0.000000	0.000001	-0.000000	0.000000	0.000000
47.917110	14.268356	19.897221	1.795140	-2.584218	2.450996	0.000000	-0.306101	0.000000	0.000000	-0.000000	0.000000	0.000000
48.363070	12.879349	22.031174	1.330541	-2.180742	2.329778	0.000000	-0.237810	0.000000	0.000000	-0.000000	0.000000	0.000000
48.804030	11.886090	23.739805	0.930496	-1.679312	2.239371	0.000000	-0.172625	0.000000	0.000000	-0.000000	0.000000	0.000000
49.244990	11.225630	24.970706	0.572964	-1.101476	2.177249	0.000000	-0.109406	0.000000	0.000000	-0.000000	0.000000	0.000000
49.685950	10.867794	25.667870	0.241608	-0.473523	2.142702	0.000000	-0.047433	0.000000	0.000000	-0.000000	0.000000	0.000000
50.128160	10.796364	25.799296	-0.052350	0.112658	2.135349	0.000000	0.008764	0.000000	0.000000	-0.000000	0.000000	0.000000
50.425482	10.835704	25.735774	-0.079964	0.100987	2.137955	0.000000	0.008764	0.000000	-0.000000	-0.000000	0.000000	0.000000
50.758816	10.899333	25.672811	-0.110924	0.087903	2.140876	0.000000	0.008764	0.000000	-0.000000	-0.000000	0.000000	0.000000
51.092149	10.983602	25.618570	-0.141883	0.074819	2.143797	0.000000	0.008764	0.000000	-0.000000	-0.000000	0.000000	0.000000
51.426732	11.088718	25.573417	-0.082999	-0.145779	2.146708	0.000000	-0.008652	0.000000	-0.000000	-0.000000	0.000000	0.000000
51.724055	11.146100	25.663634	-0.082663	-0.220587	2.144135	0.000000	-0.013910	0.000000	-0.000000	-0.000000	0.000000	0.000000
52.165015	11.364496	25.572692	-0.414489	0.426038	2.151590	0.000000	0.047751	0.000000	-0.000000	-0.000000	0.000000	0.000000
52.605975	11.882748	24.917881	-0.765252	1.053279	2.186328	0.000000	0.109956	0.000000	-0.000000	-0.000000	0.000000	0.000000
53.046935	12.724534	23.728993	-1.150976	1.632596	2.248746	0.000000	0.173413	0.000000	-0.000000	-0.000000	0.000000	0.000000
53.487895	13.928314	22.060123	-1.589286	2.137632	2.339554	0.000000	0.238845	0.000000	-0.000001	-0.000000	0.000000	0.000000
53.933855	15.569712	19.962247	-2.104444	2.546741	2.461291	0.000000	0.307396	0.000000	-0.000001	-0.000000	0.000000	0.000000
54.482915	17.682903	17.601708	-1.721515	1.777874	2.609890	0.000000	0.233090	0.000000	-0.000001	-0.000000	0.000000	0.000000
55.031975	19.305924	16.011401	-1.216986	1.135640	2.716493	0.000000	0.154650	0.000000	-0.000001	-0.000000	0.000000	0.000000
55.581035	20.324134	15.078053	-0.626496	0.574297	2.779210	0.000000	0.073466	0.000000	-0.000001	-0.000000	0.000000	0.000000
56.130095	20.665611	14.735182	0.008247	0.053859	2.796929	0.000000	-0.009020	0.000000	-0.000001	-0.000000	0.000000	0.000000
56.428668	20.697253	14.686131	-0.060227	0.071924	2.796417	0.000000	-0.001712	0.000000	-0.000001	-0.000000	0.000000	0.000000
56.762001	20.742792	14.645787	-0.076391	0.049109	2.795847	0.000000	-0.001712	0.000000	-0.000001	-0.000000	0.000000	0.000000
57.095334	20.799107	14.620652	-0.092554	0.026295	2.795276	0.000000	-0.001712	0.000000	-0.000001	-0.000000	0.000000	0.000000
57.429918	20.866470	14.610719	-0.108779	0.003395	2.794703	0.000000	-0.001712	0.000000	-0.000001	-0.000000	0.000000	0.000000
57.727240	20.935441	14.614751	-0.177897	0.021231	2.794194	0.000000	0.005589	0.000000	-0.000001	-0.000000	0.000000	0.000000
58.276300	20.773561	14.872163	0.470984	-0.492823	2.774622	0.000000	-0.076779	0.000000	-0.000001	-0.000000	0.000000	0.000000
58.825360	19.913262	15.709916	1.086598	-1.041979	2.710132	0.000000	-0.157785	0.000000	-0.000001	-0.000000	0.000000	0.000000
59.374420	18.415313	17.187681	1.625459	-1.665353	2.601869	0.000000	-0.235992	0.000000	-0.000001	0.000000	0.000000	0.000000
59.923480	16.385521	19.410714	2.049506	-2.407346	2.451753	0.000000	-0.310013	0.000000	-0.000001	0.000000	0.000000	0.000000
60.369440	14.796710	21.386648	1.525786	-2.004695	2.328791	0.000000	-0.241726	0.000000	-0.000001	0.000000	0.000000	0.000000
60.810400	13.653768	22.943383	1.075988	-1.512202	2.236649	0.000000	-0.176588	0.000000	-0.000001	-0.000000	0.000000	0.000000
61.251360	12.884417	24.033663	0.675349	-0.950905	2.172759	0.000000	-0.113462	0.000000	-0.000001	-0.000000	0.000000	0.000000
61.692320	12.453509	24.607882	0.305564	-0.346342	2.136395	0.000000	-0.051628	0.000000	-0.000001	-0.000000	0.000000	0.000000
62.134530	12.341405	24.639379	-0.020097	0.213501	2.127147	0.000000	0.004401	0.000000	-0.000001	-0.000000	0.000000	0.000000
62.431853	12.360522	24.516173	-0.044198	0.200884	2.128455	0.000000	0.004401	0.000000	-0.000001	-0.000000	0.000000	0.000000
62.765186	12.398994	24.386966	-0.071218	0.186739	2.129922	0.000000	0.004401	0.000000	-0.000001	-0.000000	0.000000	0.000000
63.098520	12.455479	24.267188	-0.098238	0.172593	2.131389	0.000000	0.004401	0.000000	-0.000001	-0.000000	0.000000	0.000000
63.433103	12.530291	24.156445	-0.125360	0.158395	2.132862	0.000000	0.004401	0.000000	-0.000002	-0.000000	0.000000	0.000000
63.730426	12.612002	24.066007	-0.118532	0.086760	2.134170	0.000000	-0.000833	0.000000	-0.000002	-0.000000	0.000000	0.000000
64.171386	12.877077	23.724436	-0.484881	0.684900	2.147345	0.000000	0.060645	0.000000	-0.000002	-0.000000	0.000000	0.000000
64.612346	13.473753	22.867133	-0.873382	1.251876	2.187756	0.000000	0.122813	0.000000	-0.000002	-0.000000	0.000000	0.000000
65.053306	14.429290	21.533105	-1.301786	1.761893	2.255862	0.000000	0.186380	0.000000	-0.000002	-0.000000	0.000000	0.000000
65.494266	15.787344	19.783049	-1.789664	2.191746	2.352440	0.000000	0.252070	0.000000	-0.000002	-0.000000	0.000000	0.000000
65.940226	17.633130	17.671816	-2.364002	2.522634	2.480162	0.000000	0.321033	0.000000	-0.000002	-0.000000	0.000000	0.000000
66.489286	19.999026	15.309919	-1.919485	1.804469	2.636058	0.000000	0.245997	0.000000	-0.000002	-0.000000	0.000000	0.000000
67.038346	21.798997	13.661869	-1.339386	1.214832	2.749496	0.000000	0.166599	0.000000	-0.000002	-0.000000	0.000000	0.000000
67.587406	22.905901	12.610281	-0.664679	0.711726	2.818461	0.000000	0.084245	0.000000	-0.000002	-0.000000	0.000000	0.000000
68.136466	23.241553	12.080251	0.056977	0.259313	2.841732	0.000000	0.000397	0.000000	-0.000002	-0.000000	0.000000	0.000000
68.435038	23.247629	11.914558	-0.016597	0.264071	2.844068	0.000000	0.007822	0.000000	-0.000002	-0.000000	0.000000	0.000000
68.768372	23.263474	11.748487	-0.030939	0.234143	2.846675	0.000000	0.007822	0.000000	-0.000002	-0.000000	0.000000	0.000000
69.101705	23.288881	11.602368	-0.045282	0.204215	2.849282	0.000000	0.007822	0.000000	-0.000003	-0.000000	0.000000	0.000000
69.436288	23.323999	11.475765	-0.059678	0.174175	2.851899	0.000000	0.007822	0.000000	-0.000003	-0.000000	0.000000	0.000000
69.733611	23.363289	11.380130	-0.133516	0.177215	2.854225	0.000000	0.015280	0.000000	-0.000003	-0.000000	0.000000	0.000000
70.282671	23.108664	11.413353	0.594519	-0.238081	2.839425	0.000000	-0.069111	0.000000	-0.000003	0.000000	0.000000	0.000000
