#ParticleID	Turn	x[m]	xp	y[m]	yp	z[m]	dE[GeV]# s	beta_x	beta_y	alpha_x	alpha_y	D_x	D_y	D_px	D_py	orbit_x	orbit_px	orbit_y	orbit_py
0.300000	11.813050	25.021044	-0.010993	-0.027233	2.618118	0.000000	0.000009	0.000000	0.000000	0.000001	0.000000	0.000000
0.601250	11.827357	25.041082	-0.036497	-0.039282	2.618120	0.000000	0.000009	0.000000	0.000000	0.000001	0.000000	0.000000
0.898573	11.856544	25.067977	-0.032594	-0.112647	2.618123	0.000000	-0.006412	0.000000	0.000001	0.000001	0.000000	0.000000
1.339533	12.037410	24.889250	-0.379126	0.516418	2.631588	0.000000	0.067546	0.000000	0.000001	0.000001	0.000000	0.000000
1.780493	12.530345	24.164018	-0.742980	1.121988	2.677805	0.000000	0.142273	0.000000	0.000002	0.000001	0.000000	0.000000
2.221453	13.357868	22.925280	-1.140779	1.676507	2.757298	0.000000	0.218620	0.000000	0.000002	0.000001	0.000000	0.000000
2.662413	14.557787	21.229397	-1.590696	2.154747	2.870974	0.000000	0.297457	0.000000	0.000003	0.000001	0.000000	0.000000
3.108373	16.205668	19.128660	-2.117578	2.536080	3.021988	0.000000	0.380171	0.000000	0.000003	0.000001	0.000000	0.000000
3.657433	18.318806	16.769219	-1.708285	1.786522	3.205453	0.000000	0.287134	0.000000	0.000004	0.000001	0.000000	0.000000
4.206493	19.913168	15.158594	-1.178327	1.164215	3.336359	0.000000	0.189003	0.000000	0.000005	0.000001	0.000000	0.000000
4.755553	20.876135	14.182064	-0.565138	0.624832	3.412384	0.000000	0.087520	0.000000	0.000005	0.000001	0.000000	0.000000
5.304613	21.139690	13.770074	0.087969	0.129954	3.432180	0.000000	-0.015516	0.000000	0.000006	0.000001	0.000000	0.000000
5.603185	21.124362	13.677641	0.018599	0.143651	3.430224	0.000000	-0.006549	0.000000	0.000006	0.000001	0.000000	0.000000
5.936519	21.117224	13.590165	0.002814	0.118777	3.428041	0.000000	-0.006549	0.000000	0.000006	0.000001	0.000000	0.000000
6.269852	21.120610	13.519271	-0.012971	0.093904	3.425858	0.000000	-0.006549	0.000000	0.000007	0.000001	0.000000	0.000000
6.604435	21.134591	13.464787	-0.028815	0.068937	3.423666	0.000000	-0.006549	0.000000	0.000007	0.000001	0.000000	0.000000
6.901758	21.155912	13.430391	-0.098168	0.081840	3.421719	0.000000	0.002391	0.000000	0.000007	0.000001	0.000000	0.000000
7.450818	20.903154	13.601342	0.555789	-0.395030	3.394830	0.000000	-0.100191	0.000000	0.000008	0.000001	0.000000	0.000000
7.999878	19.949680	14.308239	1.170489	-0.900037	3.312023	0.000000	-0.200995	0.000000	0.000008	0.000000	0.000000	0.000000
8.548938	18.362837	15.601431	1.702511	-1.469151	3.174767	0.000000	-0.298235	0.000000	0.000008	0.000000	0.000000	0.000000
9.097998	16.254713	17.573032	2.114276	-2.142910	2.985497	0.000000	-0.390184	0.000000	0.000008	-0.000000	0.000000	0.000000
9.543958	14.609993	19.329825	1.586879	-1.779791	2.829797	0.000000	-0.308477	0.000000	0.000008	0.000000	0.000000	0.000000
9.984918	13.413731	20.709423	1.136271	-1.336928	2.711017	0.000000	-0.230768	0.000000	0.000008	0.000000	0.000000	0.000000
10.425878	12.590562	21.670033	0.737576	-0.833235	2.625893	0.000000	-0.155686	0.000000	0.000008	0.000000	0.000000	0.000000
10.866838	12.102879	22.167949	0.372578	-0.291630	2.573454	0.000000	-0.082378	0.000000	0.000008	0.000001	0.000000	0.000000
11.309048	11.928266	22.179992	0.053747	0.208795	2.553084	0.000000	-0.016268	0.000000	0.000009	0.000001	0.000000	0.000000
11.606371	11.903738	22.059993	0.028749	0.194806	2.548247	0.000000	-0.016268	0.000000	0.000009	0.000001	0.000000	0.000000
12.086371	11.895510	21.883820	-0.011607	0.172221	2.540438	0.000000	-0.016268	0.000000	0.000009	0.000001	0.000000	0.000000
12.566371	11.926024	21.729328	-0.051964	0.149637	2.532628	0.000000	-0.016268	0.000000	0.000010	0.000001	0.000000	0.000000
13.046371	11.995281	21.596517	-0.092321	0.127052	2.524819	0.000000	-0.016268	0.000000	0.000010	0.000001	0.000000	0.000000
13.526371	12.103281	21.485388	-0.132678	0.104467	2.517010	0.000000	-0.016268	0.000000	0.000011	0.000001	0.000000	0.000000
14.007621	12.250455	21.395735	-0.173140	0.081824	2.509181	0.000000	-0.016268	0.000000	0.000011	0.000001	0.000000	0.000000
14.304943	12.360844	21.351238	-0.167828	0.015481	2.504344	0.000000	-0.022409	0.000000	0.000011	0.000001	0.000000	0.000000
14.745903	12.667399	21.103898	-0.530006	0.543299	2.510094	0.000000	0.048516	0.000000	0.000012	0.000001	0.000000	0.000000
15.186863	13.302795	20.400227	-0.916399	1.046398	2.547211	0.000000	0.119993	0.000000	0.000012	0.000001	0.000000	0.000000
15.627823	14.296063	19.272243	-1.344658	1.501886	2.616118	0.000000	0.192838	0.000000	0.000013	0.000002	0.000000	0.000000
16.068783	15.692582	17.771269	-1.834352	1.889040	2.717599	0.000000	0.267878	0.000000	0.000014	0.000002	0.000000	0.000000
16.514743	17.579813	15.944095	-2.412610	2.190988	2.854505	0.000000	0.346432	0.000000	0.000015	0.000002	0.000000	0.000000
17.063803	20.003697	13.903889	-1.975862	1.546760	3.020985	0.000000	0.259096	0.000000	0.000016	0.000002	0.000000	0.000000
17.612863	21.868037	12.506835	-1.399549	1.012705	3.138177	0.000000	0.167164	0.000000	0.000017	0.000001	0.000000	0.000000
18.161923	23.041146	11.653423	-0.724379	0.550783	3.204005	0.000000	0.072267	0.000000	0.000017	0.000001	0.000000	0.000000
18.710983	23.440160	11.282868	0.001958	0.128092	3.217299	0.000000	-0.023912	0.000000	0.000018	0.000000	0.000000	0.000000
19.009556	23.479374	11.196874	-0.072060	0.130448	3.212669	0.000000	-0.015507	0.000000	0.000018	0.000000	0.000000	0.000000
19.342889	23.532171	11.120002	-0.086330	0.100171	3.207500	0.000000	-0.015507	0.000000	0.000018	0.000000	0.000000	0.000000
19.676223	23.594481	11.063313	-0.100601	0.069894	3.202331	0.000000	-0.015507	0.000000	0.000018	0.000000	0.000000	0.000000
20.010806	23.666886	11.026574	-0.232184	0.094136	3.197162	0.000000	0.000334	0.000000	0.000018	0.000000	0.000000	0.000000
20.308129	23.808890	10.978685	-0.307623	0.095614	3.197262	0.000000	0.008687	0.000000	0.000018	0.000000	0.000000	0.000000
20.857189	23.736050	11.095817	0.439500	-0.310206	3.175810	0.000000	-0.086711	0.000000	0.000018	-0.000000	0.000000	0.000000
21.406249	22.855040	11.668034	1.155579	-0.738121	3.102326	0.000000	-0.180570	0.000000	0.000018	-0.000001	0.000000	0.000000
21.955309	21.228090	12.736093	1.790033	-1.218611	2.978112	0.000000	-0.271226	0.000000	0.000018	-0.000001	0.000000	0.000000
22.504369	18.970121	14.376070	2.298049	-1.785900	2.805372	0.000000	-0.357072	0.000000	0.000017	-0.000002	0.000000	0.000000
22.950329	17.190616	15.848482	1.706314	-1.501839	2.663427	0.000000	-0.279858	0.000000	0.000016	-0.000001	0.000000	0.000000
23.391289	15.915106	17.022437	1.197233	-1.150300	2.556344	0.000000	-0.206286	0.000000	0.000016	-0.000001	0.000000	0.000000
23.832249	15.062841	17.862011	0.742849	-0.746423	2.481155	0.000000	-0.135064	0.000000	0.000015	-0.000001	0.000000	0.000000
24.273209	14.594881	18.329004	0.322405	-0.308584	2.437003	0.000000	-0.065380	0.000000	0.000015	-0.000000	0.000000	0.000000
24.715418	14.489968	18.401923	-0.047868	0.098105	2.423383	0.000000	-0.002383	0.000000	0.000015	0.000000	0.000000	0.000000
25.012741	14.524547	18.348436	-0.068434	0.081792	2.422674	0.000000	-0.002383	0.000000	0.000015	0.000000	0.000000	0.000000
25.346075	14.577856	18.300004	-0.091491	0.063504	2.421880	0.000000	-0.002383	0.000000	0.000015	0.000000	0.000000	0.000000
25.679408	14.646536	18.263764	-0.114549	0.045215	2.421085	0.000000	-0.002383	0.000000	0.000015	0.000000	0.000000	0.000000
26.013991	14.730633	18.240019	-0.018188	-0.121113	2.420264	0.000000	-0.022018	0.000000	0.000015	-0.000000	0.000000	0.000000
26.311314	14.747451	18.316956	-0.002218	-0.182565	2.413717	0.000000	-0.027936	0.000000	0.000015	-0.000000	0.000000	0.000000
26.752274	14.931100	18.279317	-0.415836	0.267599	2.416510	0.000000	0.040614	0.000000	0.000015	0.000000	0.000000	0.000000
27.193234	15.486494	17.848542	-0.848453	0.705587	2.449603	0.000000	0.109627	0.000000	0.000015	0.000001	0.000000	0.000000
27.634194	16.439008	17.044230	-1.319833	1.111472	2.513375	0.000000	0.179889	0.000000	0.000016	0.000001	0.000000	0.000000
28.075154	17.832159	15.902979	-1.851512	1.466786	2.608550	0.000000	0.252199	0.000000	0.000016	0.000002	0.000000	0.000000
28.521114	19.753800	14.459521	-2.472749	1.756274	2.737817	0.000000	0.327825	0.000000	0.000017	0.000002	0.000000	0.000000
29.070174	22.196216	12.851237	-1.949274	1.190174	2.895146	0.000000	0.244418	0.000000	0.000018	0.000001	0.000000	0.000000
29.619234	23.984320	11.814679	-1.288112	0.708847	3.005420	0.000000	0.156676	0.000000	0.000019	0.000001	0.000000	0.000000
30.168294	24.991811	11.276015	-0.535964	0.278010	3.066684	0.000000	0.066155	0.000000	0.000019	0.000000	0.000000	0.000000
30.717354	25.147525	11.196876	0.254042	-0.133025	3.077850	0.000000	-0.025540	0.000000	0.000019	-0.000000	0.000000	0.000000
31.015927	25.038725	11.266891	0.176053	-0.130727	3.072626	0.000000	-0.017500	0.000000	0.000019	-0.000000	0.000000	0.000000
31.349260	24.925932	11.364073	0.162328	-0.160818	3.066792	0.000000	-0.017500	0.000000	0.000019	-0.000000	0.000000	0.000000
31.682593	24.822288	11.481315	0.148602	-0.190908	3.060959	0.000000	-0.017500	0.000000	0.000019	-0.000000	0.000000	0.000000
32.017177	24.727458	11.619170	0.134825	-0.221112	3.055105	0.000000	-0.017500	0.000000	0.000019	-0.000000	0.000000	0.000000
32.314499	24.650925	11.758633	0.058184	-0.217234	3.049902	0.000000	-0.009532	0.000000	0.000018	-0.000000	0.000000	0.000000
32.863559	24.164679	12.236397	0.822170	-0.658050	3.019784	0.000000	-0.100014	0.000000	0.000018	-0.000001	0.000000	0.000000
33.412619	22.866566	13.220973	1.528081	-1.145738	2.940401	0.000000	-0.188722	0.000000	0.000017	-0.000001	0.000000	0.000000
33.961679	20.848277	14.782492	2.126056	-1.715034	2.813161	0.000000	-0.274083	0.000000	0.000016	-0.000002	0.000000	0.000000
34.510739	18.252375	17.032177	2.573856	-2.406489	2.640320	0.000000	-0.354582	0.000000	0.000015	-0.000003	0.000000	0.000000
34.956699	16.233952	19.044441	1.968377	-2.086877	2.498534	0.000000	-0.281648	0.000000	0.000014	-0.000002	0.000000	0.000000
35.397659	14.728836	20.708756	1.457842	-1.673060	2.389722	0.000000	-0.212350	0.000000	0.000013	-0.000002	0.000000	0.000000
35.838619	13.643011	21.973028	1.013911	-1.183119	2.310905	0.000000	-0.145470	0.000000	0.000013	-0.000001	0.000000	0.000000
36.279579	12.926869	22.779733	0.616302	-0.639347	2.261187	0.000000	-0.080247	0.000000	0.000012	-0.000001	0.000000	0.000000
36.721789	12.546997	23.092474	0.277511	-0.123163	2.239975	0.000000	-0.021430	0.000000	0.000012	-0.000001	0.000000	0.000000
37.019112	12.389564	23.169598	0.251990	-0.136234	2.233603	0.000000	-0.021430	0.000000	0.000011	-0.000001	0.000000	0.000000
37.352445	12.231109	23.265305	0.223377	-0.150887	2.226460	0.000000	-0.021430	0.000000	0.000011	-0.000001	0.000000	0.000000
37.685779	12.091728	23.370781	0.194764	-0.165541	2.219317	0.000000	-0.021430	0.000000	0.000011	-0.000001	0.000000	0.000000
38.020362	11.971008	23.486477	0.166044	-0.180250	2.212147	0.000000	-0.021430	0.000000	0.000010	-0.000001	0.000000	0.000000
38.317684	11.879859	23.597548	0.169653	-0.251183	2.205776	0.000000	-0.026839	0.000000	0.000010	-0.000001	0.000000	0.000000
38.758644	11.881693	23.557697	-0.173829	0.341212	2.207870	0.000000	0.036342	0.000000	0.000010	-0.000001	0.000000	0.000000
39.199604	12.188796	23.000278	-0.525253	0.918082	2.237888	0.000000	0.099937	0.000000	0.000010	-0.000000	0.000000	0.000000
39.640564	12.815196	21.950652	-0.900674	1.453180	2.296173	0.000000	0.164670	0.000000	0.000009	-0.000000	0.000000	0.000000
40.081524	13.789514	20.456577	-1.317245	1.922159	2.383389	0.000000	0.231278	0.000000	0.000009	0.000000	0.000000	0.000000
40.527484	15.173837	18.563459	-1.797823	2.304966	2.502000	0.000000	0.300926	0.000000	0.000010	0.000000	0.000000	0.000000
41.076544	16.940383	16.436058	-1.400531	1.592528	2.646695	0.000000	0.225364	0.000000	0.000010	0.000000	0.000000	0.000000
41.625604	18.213416	15.024493	-0.904312	0.993523	2.748743	0.000000	0.145805	0.000000	0.000010	-0.000000	0.000000	0.000000
42.174664	18.903016	14.228220	-0.344217	0.465284	2.806332	0.000000	0.063660	0.000000	0.000009	-0.000001	0.000000	0.000000
42.723724	18.960472	13.990524	0.240192	-0.029814	2.818442	0.000000	-0.019614	0.000000	0.000009	-0.000001	0.000000	0.000000
43.022297	18.851496	13.992873	0.174336	-0.014604	2.814785	0.000000	-0.012251	0.000000	0.000009	-0.000001	0.000000	0.000000
43.502297	18.696727	14.023361	0.148100	-0.048914	2.808905	0.000000	-0.012251	0.000000	0.000008	-0.000001	0.000000	0.000000
43.982297	18.567144	14.086788	0.121864	-0.083225	2.803025	0.000000	-0.012251	0.000000	0.000008	-0.000001	0.000000	0.000000
44.462297	18.462749	14.183153	0.095628	-0.117535	2.797145	0.000000	-0.012251	0.000000	0.000007	-0.000001	0.000000	0.000000
44.942297	18.383539	14.312456	0.069392	-0.151846	2.791265	0.000000	-0.012251	0.000000	0.000007	-0.000001	0.000000	0.000000
45.423547	18.329636	14.474983	-0.047728	-0.114528	2.785387	0.000000	0.001550	0.000000	0.000007	-0.000001	0.000000	0.000000
45.720870	18.362851	14.549274	-0.111962	-0.097325	2.785848	0.000000	0.008828	0.000000	0.000006	-0.000001	0.000000	0.000000
46.269930	18.176606	14.937532	0.449160	-0.613980	2.768124	0.000000	-0.073299	0.000000	0.000006	-0.000001	0.000000	0.000000
46.818990	17.388036	15.913680	0.978556	-1.174368	2.705597	0.000000	-0.154126	0.000000	0.000005	-0.000001	0.000000	0.000000
47.368050	16.052840	17.547249	1.438832	-1.818404	2.599378	0.000000	-0.232220	0.000000	0.000005	-0.000001	0.000000	0.000000
47.917110	14.265331	19.954594	1.797476	-2.591960	2.451350	0.000000	-0.306194	0.000000	0.000004	-0.000001	0.000000	0.000000
48.363070	12.874319	22.094914	1.332717	-2.187218	2.330093	0.000000	-0.237895	0.000000	0.000003	-0.000001	0.000000	0.000000
48.804030	11.879173	23.808591	0.932616	-1.684234	2.239651	0.000000	-0.172702	0.000000	0.000003	-0.000001	0.000000	0.000000
49.244990	11.216833	25.043061	0.575123	-1.104619	2.177496	0.000000	-0.109476	0.000000	0.000002	-0.000001	0.000000	0.000000
49.685950	10.857039	25.742158	0.243906	-0.474744	2.142920	0.000000	-0.047497	0.000000	0.000001	-0.000001	0.000000	0.000000
50.128160	10.783477	25.873788	-0.049840	0.113232	2.135540	0.000000	0.008704	0.000000	0.000001	-0.000001	0.000000	0.000000
50.425482	10.821332	25.809916	-0.077481	0.101594	2.138129	0.000000	0.008704	0.000000	0.000001	-0.000001	0.000000	0.000000
50.758816	10.883316	25.746536	-0.108469	0.088545	2.141031	0.000000	0.008704	0.000000	0.000000	-0.000001	0.000000	0.000000
51.092149	10.965958	25.691855	-0.139457	0.075497	2.143932	0.000000	0.008704	0.000000	-0.000000	-0.000001	0.000000	0.000000
51.426732	11.069460	25.646237	-0.080759	-0.145655	2.146823	0.000000	-0.008712	0.000000	-0.000001	-0.000001	0.000000	0.000000
51.724055	11.125521	25.736370	-0.080511	-0.220608	2.144233	0.000000	-0.013970	0.000000	-0.000001	-0.000001	0.000000	0.000000
52.165015	11.341795	25.644597	-0.411812	0.427937	2.151662	0.000000	0.047693	0.000000	-0.000002	-0.000001	0.000000	0.000000
52.605975	11.857412	24.987293	-0.761929	1.057011	2.186375	0.000000	0.109899	0.000000	-0.000002	-0.000001	0.000000	0.000000
53.046935	12.695928	23.794365	-1.146855	1.637992	2.248769	0.000000	0.173357	0.000000	-0.000003	-0.000001	0.000000	0.000000
53.487895	13.895653	22.120090	-1.584178	2.144446	2.339553	0.000000	0.238789	0.000000	-0.000003	-0.000001	0.000000	0.000000
53.933855	15.531965	20.015613	-2.098106	2.554667	2.461266	0.000000	0.307340	0.000000	-0.000004	-0.000001	0.000000	0.000000
54.482915	17.638684	17.647528	-1.716137	1.783774	2.609834	0.000000	0.233035	0.000000	-0.000005	-0.000001	0.000000	0.000000
55.031975	19.256504	16.051656	-1.212948	1.139936	2.716409	0.000000	0.154597	0.000000	-0.000005	-0.000001	0.000000	0.000000
55.581035	20.271151	15.114327	-0.624083	0.577293	2.779098	0.000000	0.073417	0.000000	-0.000006	-0.000001	0.000000	0.000000
56.130095	20.610954	14.768778	0.008864	0.055769	2.796791	0.000000	-0.009065	0.000000	-0.000006	-0.000001	0.000000	0.000000
56.428668	20.642155	14.718522	-0.059507	0.073963	2.796267	0.000000	-0.001757	0.000000	-0.000007	-0.000001	0.000000	0.000000
56.762001	20.687228	14.676804	-0.075712	0.051192	2.795681	0.000000	-0.001757	0.000000	-0.000007	-0.000001	0.000000	0.000000
57.095334	20.743105	14.650267	-0.091918	0.028420	2.795096	0.000000	-0.001757	0.000000	-0.000007	-0.000001	0.000000	0.000000
57.429918	20.810056	14.638896	-0.108184	0.005564	2.794508	0.000000	-0.001757	0.000000	-0.000008	-0.000001	0.000000	0.000000
57.727240	20.878684	14.641626	-0.177194	0.023511	2.793986	0.000000	0.005543	0.000000	-0.000008	-0.000001	0.000000	0.000000
58.276300	20.717080	14.896948	0.469781	-0.491272	2.774391	0.000000	-0.076817	0.000000	-0.000008	-0.000001	0.000000	0.000000
58.825360	19.859116	15.733346	1.083574	-1.041047	2.709882	0.000000	-0.157815	0.000000	-0.000008	-0.000000	0.000000	0.000000
59.374420	18.365395	17.210395	1.620828	-1.664974	2.601605	0.000000	-0.236014	0.000000	-0.000009	-0.000000	0.000000	0.000000
59.923480	16.341425	19.433302	2.043595	-2.407493	2.451479	0.000000	-0.310027	0.000000	-0.000008	0.000000	0.000000	0.000000
60.369440	14.757291	21.409031	1.521172	-2.004091	2.328510	0.000000	-0.241746	0.000000	-0.000008	0.000000	0.000000	0.000000
60.810400	13.617930	22.964913	1.072450	-1.510879	2.236357	0.000000	-0.176616	0.000000	-0.000008	-0.000000	0.000000	0.000000
61.251360	12.851286	24.053731	0.672725	-0.948924	2.172453	0.000000	-0.113498	0.000000	-0.000009	-0.000000	0.000000	0.000000
61.692320	12.422334	24.625945	0.303735	-0.343793	2.136071	0.000000	-0.051672	0.000000	-0.000009	-0.000001	0.000000	0.000000
62.134530	12.311529	24.654979	-0.021286	0.216459	2.126802	0.000000	0.004349	0.000000	-0.000009	-0.000001	0.000000	0.000000
62.431853	12.331370	24.530016	-0.045447	0.203834	2.128096	0.000000	0.004349	0.000000	-0.000009	-0.000001	0.000000	0.000000
62.765186	12.370698	24.398844	-0.072535	0.189681	2.129546	0.000000	0.004349	0.000000	-0.000010	-0.000001	0.000000	0.000000
63.098520	12.428083	24.277108	-0.099622	0.175528	2.130995	0.000000	0.004349	0.000000	-0.000010	-0.000001	0.000000	0.000000
63.433103	12.503843	24.164404	-0.126810	0.161321	2.132451	0.000000	0.004349	0.000000	-0.000010	-0.000001	0.000000	0.000000
63.730426	12.586434	24.072229	-0.120103	0.089658	2.133744	0.000000	-0.000884	0.000000	-0.000011	-0.000001	0.000000	0.000000
64.171386	12.852650	23.728053	-0.485908	0.687887	2.146894	0.000000	0.060582	0.000000	-0.000011	-0.000001	0.000000	0.000000
64.612346	13.450010	22.868126	-0.873913	1.254817	2.187275	0.000000	0.122738	0.000000	-0.000011	-0.000001	0.000000	0.000000
65.053306	14.405806	21.531574	-1.301844	1.764654	2.255346	0.000000	0.186293	0.000000	-0.000012	-0.000002	0.000000	0.000000
65.494266	15.763704	19.779210	-1.789253	2.194200	2.351883	0.000000	0.251969	0.000000	-0.000013	-0.000002	0.000000	0.000000
65.940226	17.608906	17.665969	-2.363100	2.524666	2.479557	0.000000	0.320916	0.000000	-0.000014	-0.000002	0.000000	0.000000
66.489286	19.974332	15.301928	-1.919537	1.806365	2.635396	0.000000	0.245901	0.000000	-0.000015	-0.000002	0.000000	0.000000
67.038346	21.774885	13.651810	-1.340389	1.216727	2.748787	0.000000	0.166525	0.000000	-0.000016	-0.000001	0.000000	0.000000
67.587406	22.883382	12.598079	-0.666562	0.713755	2.817719	0.000000	0.084195	0.000000	-0.000017	-0.000001	0.000000	0.000000
68.136466	23.221526	12.065682	0.054348	0.261621	2.840969	0.000000	0.000371	0.000000	-0.000017	-0.000000	0.000000	0.000000
68.435038	23.229148	11.898652	-0.019193	0.266279	2.843297	0.000000	0.007795	0.000000	-0.000017	-0.000000	0.000000	0.000000
68.768372	23.246728	11.731133	-0.033548	0.236278	2.845895	0.000000	0.007795	0.000000	-0.000017	-0.000000	0.000000	0.000000
69.101705	23.273878	11.583614	-0.047903	0.206277	2.848494	0.000000	0.007795	0.000000	-0.000017	-0.000000	0.000000	0.000000
69.436288	23.310754	11.455655	-0.062312	0.176164	2.851102	0.000000	0.007795	0.000000	-0.000017	-0.000000	0.000000	0.000000
69.733611	23.351615	11.358856	-0.136139	0.179087	2.853420	0.000000	0.015251	0.000000	-0.000018	-0.000000	0.000000	0.000000
70.282671	23.100057	11.389689	0.591587	-0.235574	2.838611	0.000000	-0.069112	0.000000	-0.000018	0.000000	0.000000	0.000000
