#ParticleID	Turn	x[m]	xp	y[m]	yp	z[m]	dE[GeV]# s	beta_x	beta_y	alpha_x	alpha_y	D_x	D_y	D_px	D_py	orbit_x	orbit_px	orbit_y	orbit_py
0.300000	11.803134	25.059652	-0.010079	-0.026751	2.618353	0.000000	-0.000080	0.000000	-0.000002	0.000002	0.000000	0.000000
0.601250	11.816896	25.079394	-0.035604	-0.038781	2.618328	0.000000	-0.000080	0.000000	-0.000002	0.000002	0.000000	0.000000
0.898573	11.845558	25.105985	-0.031748	-0.112221	2.618304	0.000000	-0.006501	0.000000	-0.000001	0.000002	0.000000	0.000000
1.339533	12.025561	24.926440	-0.378008	0.517840	2.631731	0.000000	0.067461	0.000000	-0.000000	0.000002	0.000000	0.000000
1.780493	12.517371	24.199539	-0.741539	1.124340	2.677911	0.000000	0.142191	0.000000	0.000000	0.000002	0.000000	0.000000
2.221453	13.343457	22.958354	-1.138948	1.679683	2.757368	0.000000	0.218541	0.000000	0.000001	0.000002	0.000000	0.000000
2.662413	14.541561	21.259359	-1.588393	2.158602	2.871009	0.000000	0.297379	0.000000	0.000002	0.000002	0.000000	0.000000
3.108373	16.187136	19.154942	-2.114692	2.540440	3.021989	0.000000	0.380094	0.000000	0.000003	0.000002	0.000000	0.000000
3.657433	18.297358	16.791314	-1.705894	1.789835	3.205411	0.000000	0.287057	0.000000	0.000004	0.000002	0.000000	0.000000
4.206493	19.889446	15.177516	-1.176600	1.166715	3.336275	0.000000	0.188928	0.000000	0.000005	0.000002	0.000000	0.000000
4.755553	20.850940	14.198603	-0.564197	0.626698	3.412260	0.000000	0.087448	0.000000	0.000006	0.000001	0.000000	0.000000
5.304613	21.113926	13.784849	0.088058	0.131319	3.432017	0.000000	-0.015583	0.000000	0.000006	0.000001	0.000000	0.000000
5.603185	21.098510	13.691574	0.018738	0.145068	3.430041	0.000000	-0.006616	0.000000	0.000007	0.000001	0.000000	0.000000
5.936519	21.091287	13.603148	0.002933	0.120210	3.427836	0.000000	-0.006616	0.000000	0.000007	0.000001	0.000000	0.000000
6.269852	21.094599	13.531294	-0.012871	0.095352	3.425630	0.000000	-0.006616	0.000000	0.000008	0.000001	0.000000	0.000000
6.604435	21.108520	13.475836	-0.028735	0.070400	3.423416	0.000000	-0.006616	0.000000	0.000008	0.000001	0.000000	0.000000
6.901758	21.129798	13.440566	-0.098036	0.083343	3.421448	0.000000	0.002323	0.000000	0.000009	0.000001	0.000000	0.000000
7.450818	20.877376	13.610016	0.555050	-0.393784	3.394524	0.000000	-0.100249	0.000000	0.000009	0.000001	0.000000	0.000000
7.999878	19.925171	14.315644	1.168931	-0.898959	3.311688	0.000000	-0.201044	0.000000	0.000010	0.000001	0.000000	0.000000
8.548938	18.340440	15.607710	1.700244	-1.468165	3.174408	0.000000	-0.298272	0.000000	0.000010	0.000000	0.000000	0.000000
9.097998	16.235122	17.578246	2.111461	-2.141945	2.985121	0.000000	-0.390210	0.000000	0.000010	0.000000	0.000000	0.000000
9.543958	14.592640	19.334060	1.584658	-1.778568	2.829407	0.000000	-0.308512	0.000000	0.000010	0.000000	0.000000	0.000000
9.984918	13.398115	20.712487	1.134538	-1.335504	2.710610	0.000000	-0.230813	0.000000	0.000010	0.000001	0.000000	0.000000
10.425878	12.576290	21.671777	0.736251	-0.831676	2.625463	0.000000	-0.155742	0.000000	0.000011	0.000001	0.000000	0.000000
10.866838	12.089618	22.168284	0.371601	-0.290007	2.572997	0.000000	-0.082445	0.000000	0.000011	0.000001	0.000000	0.000000
11.309048	11.915732	22.178890	0.053042	0.210413	2.552594	0.000000	-0.016346	0.000000	0.000012	0.000001	0.000000	0.000000
11.606371	11.891630	22.057931	0.028020	0.196414	2.547733	0.000000	-0.016346	0.000000	0.000012	0.000001	0.000000	0.000000
12.086371	11.884122	21.880222	-0.012377	0.173814	2.539886	0.000000	-0.016346	0.000000	0.000013	0.000001	0.000000	0.000000
12.566371	11.915393	21.724209	-0.052773	0.151213	2.532039	0.000000	-0.016346	0.000000	0.000014	0.000001	0.000000	0.000000
13.046371	11.985446	21.589893	-0.093169	0.128613	2.524192	0.000000	-0.016346	0.000000	0.000014	0.000001	0.000000	0.000000
13.526371	12.094278	21.477272	-0.133565	0.106012	2.516345	0.000000	-0.016346	0.000000	0.000015	0.000001	0.000000	0.000000
14.007621	12.242326	21.386140	-0.174067	0.083353	2.508478	0.000000	-0.016346	0.000000	0.000016	0.000001	0.000000	0.000000
14.304943	12.353274	21.340737	-0.168800	0.017029	2.503617	0.000000	-0.022485	0.000000	0.000016	0.000001	0.000000	0.000000
14.745903	12.660620	21.092166	-0.530837	0.544531	2.509329	0.000000	0.048421	0.000000	0.000017	0.000002	0.000000	0.000000
15.186863	13.296702	20.387569	-0.917127	1.047257	2.546399	0.000000	0.119878	0.000000	0.000018	0.000002	0.000000	0.000000
15.627823	14.290580	19.259007	-1.345319	1.502334	2.615250	0.000000	0.192700	0.000000	0.000019	0.000003	0.000000	0.000000
16.068783	15.687663	17.757826	-1.834973	1.889056	2.716665	0.000000	0.267717	0.000000	0.000020	0.000003	0.000000	0.000000
16.514743	17.575442	15.930833	-2.413222	2.190569	2.853494	0.000000	0.346246	0.000000	0.000022	0.000004	0.000000	0.000000
17.063803	20.000147	13.890913	-1.976735	1.546655	3.019879	0.000000	0.258944	0.000000	0.000024	0.000003	0.000000	0.000000
17.612863	21.865563	12.493807	-1.400622	1.012906	3.136998	0.000000	0.167049	0.000000	0.000025	0.000002	0.000000	0.000000
18.161923	23.039926	11.640002	-0.725576	0.551303	3.202773	0.000000	0.072191	0.000000	0.000026	0.000001	0.000000	0.000000
18.710983	23.440284	11.268683	0.000722	0.128969	3.216037	0.000000	-0.023947	0.000000	0.000027	0.000001	0.000000	0.000000
19.009556	23.480235	11.182201	-0.073294	0.131245	3.211395	0.000000	-0.015546	0.000000	0.000027	0.000001	0.000000	0.000000
19.342889	23.533855	11.104812	-0.087566	0.100922	3.206213	0.000000	-0.015546	0.000000	0.000027	0.000001	0.000000	0.000000
19.676223	23.596990	11.047638	-0.101839	0.070600	3.201031	0.000000	-0.015546	0.000000	0.000027	0.000001	0.000000	0.000000
20.010806	23.670223	11.010442	-0.233441	0.094716	3.195849	0.000000	0.000288	0.000000	0.000028	0.000001	0.000000	0.000000
20.308129	23.812976	10.962221	-0.308890	0.096105	3.195934	0.000000	0.008637	0.000000	0.000028	0.000001	0.000000	0.000000
20.857189	23.741447	11.078558	0.438395	-0.309241	3.174467	0.000000	-0.086717	0.000000	0.000028	-0.000000	0.000000	0.000000
21.406249	22.861526	11.649427	1.154714	-0.736615	3.100991	0.000000	-0.180533	0.000000	0.000028	-0.000001	0.000000	0.000000
21.955309	21.235365	12.715487	1.789469	-1.216456	2.976809	0.000000	-0.271147	0.000000	0.000027	-0.000002	0.000000	0.000000
22.504369	18.977830	14.352673	2.297826	-1.782942	2.804125	0.000000	-0.356951	0.000000	0.000026	-0.000003	0.000000	0.000000
22.950329	17.198577	15.822686	1.705968	-1.499439	2.662227	0.000000	-0.279769	0.000000	0.000025	-0.000002	0.000000	0.000000
23.391289	15.923431	16.994811	1.196749	-1.148565	2.555177	0.000000	-0.206228	0.000000	0.000024	-0.000001	0.000000	0.000000
23.832249	15.071661	17.833178	0.742206	-0.745431	2.480007	0.000000	-0.135035	0.000000	0.000024	-0.000001	0.000000	0.000000
24.273209	14.604349	18.299642	0.321573	-0.308382	2.435862	0.000000	-0.065381	0.000000	0.000023	-0.000000	0.000000	0.000000
24.715418	14.500270	18.372737	-0.048905	0.097585	2.422234	0.000000	-0.002410	0.000000	0.000023	0.000000	0.000000	0.000000
25.012741	14.535462	18.319566	-0.069459	0.081248	2.421518	0.000000	-0.002410	0.000000	0.000023	0.000000	0.000000	0.000000
25.346075	14.589449	18.271506	-0.092502	0.062932	2.420714	0.000000	-0.002410	0.000000	0.000024	0.000000	0.000000	0.000000
25.679408	14.658798	18.235657	-0.115545	0.044616	2.419911	0.000000	-0.002410	0.000000	0.000024	0.000000	0.000000	0.000000
26.013991	14.743556	18.212321	-0.019065	-0.121515	2.419080	0.000000	-0.022035	0.000000	0.000024	0.000000	0.000000	0.000000
26.311314	14.760891	18.289505	-0.003049	-0.182923	2.412528	0.000000	-0.027950	0.000000	0.000024	0.000000	0.000000	0.000000
26.752274	14.945419	18.252508	-0.417008	0.266504	2.415308	0.000000	0.040569	0.000000	0.000024	0.000001	0.000000	0.000000
27.193234	15.502016	17.823006	-0.850019	0.703805	2.448374	0.000000	0.109551	0.000000	0.000025	0.000001	0.000000	0.000000
27.634194	16.456112	17.020541	-1.321865	1.109083	2.512105	0.000000	0.179781	0.000000	0.000025	0.000002	0.000000	0.000000
28.075154	17.851295	15.881625	-1.854104	1.463899	2.607225	0.000000	0.252057	0.000000	0.000026	0.000003	0.000000	0.000000
28.521114	19.775544	14.440917	-2.476024	1.753020	2.736421	0.000000	0.327648	0.000000	0.000028	0.000003	0.000000	0.000000
29.070174	22.221257	12.835788	-1.951968	1.187648	2.893664	0.000000	0.244288	0.000000	0.000029	0.000002	0.000000	0.000000
29.619234	24.011912	11.801687	-1.290034	0.706870	3.003880	0.000000	0.156595	0.000000	0.000030	0.000001	0.000000	0.000000
30.168294	25.021026	11.264959	-0.536979	0.276440	3.065112	0.000000	0.066124	0.000000	0.000031	0.000000	0.000000	0.000000
30.717354	25.177321	11.187373	0.254006	-0.134299	3.076276	0.000000	-0.025520	0.000000	0.000031	-0.000001	0.000000	0.000000
31.015927	25.068580	11.258176	0.175961	-0.132059	3.071055	0.000000	-0.017485	0.000000	0.000031	-0.000000	0.000000	0.000000
31.349260	24.955843	11.356257	0.162252	-0.162184	3.065227	0.000000	-0.017485	0.000000	0.000031	-0.000000	0.000000	0.000000
31.682593	24.852245	11.474421	0.148543	-0.192308	3.059399	0.000000	-0.017485	0.000000	0.000030	-0.000000	0.000000	0.000000
32.017177	24.757448	11.613224	0.134783	-0.222546	3.053550	0.000000	-0.017485	0.000000	0.000030	-0.000000	0.000000	0.000000
32.314499	24.680935	11.753549	0.058085	-0.218714	3.048351	0.000000	-0.009522	0.000000	0.000030	-0.000000	0.000000	0.000000
32.863559	24.194252	12.232895	0.823061	-0.659469	3.018253	0.000000	-0.099954	0.000000	0.000030	-0.000001	0.000000	0.000000
33.412619	22.894641	13.219042	1.529899	-1.147197	2.938917	0.000000	-0.188613	0.000000	0.000029	-0.000002	0.000000	0.000000
33.961679	20.873902	14.782232	2.128673	-1.716637	2.811749	0.000000	-0.273927	0.000000	0.000027	-0.000003	0.000000	0.000000
34.510739	18.274769	17.033808	2.577088	-2.408350	2.639007	0.000000	-0.354382	0.000000	0.000025	-0.000004	0.000000	0.000000
34.956699	16.253780	19.047796	1.970918	-2.088868	2.497304	0.000000	-0.281481	0.000000	0.000024	-0.000003	0.000000	0.000000
35.397659	14.746681	20.713891	1.459814	-1.675088	2.388559	0.000000	-0.212213	0.000000	0.000022	-0.000003	0.000000	0.000000
35.838619	13.659333	21.979935	1.015405	-1.185093	2.309796	0.000000	-0.145363	0.000000	0.000021	-0.000002	0.000000	0.000000
36.279579	12.942058	22.788323	0.617386	-0.641177	2.260119	0.000000	-0.080168	0.000000	0.000020	-0.000002	0.000000	0.000000
36.721789	12.561390	23.102587	0.278268	-0.124785	2.238935	0.000000	-0.021375	0.000000	0.000020	-0.000001	0.000000	0.000000
37.019112	12.403501	23.180676	0.252766	-0.137856	2.232580	0.000000	-0.021375	0.000000	0.000019	-0.000001	0.000000	0.000000
37.352445	12.244521	23.277464	0.224174	-0.152509	2.225456	0.000000	-0.021375	0.000000	0.000019	-0.000001	0.000000	0.000000
37.685779	12.104602	23.384021	0.195583	-0.167162	2.218331	0.000000	-0.021375	0.000000	0.000018	-0.000001	0.000000	0.000000
38.020362	11.983326	23.500801	0.166885	-0.181870	2.211180	0.000000	-0.021375	0.000000	0.000018	-0.000001	0.000000	0.000000
38.317684	11.891671	23.612835	0.170540	-0.252836	2.204825	0.000000	-0.026781	0.000000	0.000018	-0.000001	0.000000	0.000000
38.758644	11.892841	23.574259	-0.173202	0.339987	2.206938	0.000000	0.036375	0.000000	0.000017	-0.000001	0.000000	0.000000
39.199604	12.199494	23.017710	-0.524858	0.917340	2.236966	0.000000	0.099946	0.000000	0.000017	-0.000000	0.000000	0.000000
39.640564	12.825641	21.968511	-0.900492	1.452956	2.295250	0.000000	0.164655	0.000000	0.000017	0.000000	0.000000	0.000000
40.081524	13.799888	20.474401	-1.317267	1.922462	2.382454	0.000000	0.231239	0.000000	0.000017	0.000000	0.000000	0.000000
40.527484	15.184324	18.580779	-1.798053	2.305786	2.501042	0.000000	0.300863	0.000000	0.000017	0.000001	0.000000	0.000000
41.076544	16.950893	16.452741	-1.400342	1.592876	2.645711	0.000000	0.225333	0.000000	0.000017	0.000000	0.000000	0.000000
41.625604	18.223494	15.041040	-0.903718	0.993422	2.747750	0.000000	0.145806	0.000000	0.000017	-0.000000	0.000000	0.000000
42.174664	18.912237	14.245126	-0.343260	0.464728	2.805349	0.000000	0.063692	0.000000	0.000017	-0.000001	0.000000	0.000000
42.723724	18.968472	14.008307	0.241445	-0.030865	2.817485	0.000000	-0.019550	0.000000	0.000017	-0.000001	0.000000	0.000000
43.022297	18.858758	14.011248	0.175570	-0.015583	2.813846	0.000000	-0.012190	0.000000	0.000016	-0.000001	0.000000	0.000000
43.502297	18.702804	14.042656	0.149333	-0.049850	2.807996	0.000000	-0.012190	0.000000	0.000016	-0.000001	0.000000	0.000000
43.982297	18.572038	14.106959	0.123097	-0.084116	2.802145	0.000000	-0.012190	0.000000	0.000015	-0.000001	0.000000	0.000000
44.462297	18.466459	14.204159	0.096860	-0.118383	2.796295	0.000000	-0.012190	0.000000	0.000014	-0.000001	0.000000	0.000000
44.942297	18.386067	14.334254	0.070623	-0.152649	2.790444	0.000000	-0.012190	0.000000	0.000014	-0.000001	0.000000	0.000000
45.423547	18.330979	14.497533	-0.046504	-0.115175	2.784596	0.000000	0.001607	0.000000	0.000013	-0.000001	0.000000	0.000000
45.720870	18.363466	14.572200	-0.110734	-0.097885	2.785074	0.000000	0.008883	0.000000	0.000013	-0.000001	0.000000	0.000000
46.269930	18.175873	14.961457	0.450373	-0.615252	2.767386	0.000000	-0.073220	0.000000	0.000012	-0.000002	0.000000	0.000000
46.818990	17.386017	15.939432	0.979669	-1.176442	2.704910	0.000000	-0.154024	0.000000	0.000011	-0.000002	0.000000	0.000000
47.368050	16.049691	17.575784	1.439766	-1.821427	2.598753	0.000000	-0.232096	0.000000	0.000010	-0.000002	0.000000	0.000000
47.917110	14.261285	19.987065	1.798165	-2.596148	2.450799	0.000000	-0.306052	0.000000	0.000008	-0.000003	0.000000	0.000000
48.363070	12.869658	22.130808	1.333412	-2.190673	2.329602	0.000000	-0.237766	0.000000	0.000007	-0.000002	0.000000	0.000000
48.804030	11.873884	23.847151	0.933349	-1.686802	2.239215	0.000000	-0.172585	0.000000	0.000006	-0.000002	0.000000	0.000000
49.244990	11.210869	25.083450	0.575928	-1.106182	2.177110	0.000000	-0.109370	0.000000	0.000005	-0.000002	0.000000	0.000000
49.685950	10.850319	25.783453	0.244820	-0.475231	2.142579	0.000000	-0.047400	0.000000	0.000004	-0.000002	0.000000	0.000000
50.128160	10.775885	25.915028	-0.048795	0.113744	2.135240	0.000000	0.008794	0.000000	0.000004	-0.000002	0.000000	0.000000
50.425482	10.813124	25.850846	-0.076452	0.102122	2.137855	0.000000	0.008794	0.000000	0.000003	-0.000002	0.000000	0.000000
50.758816	10.874428	25.787108	-0.107459	0.089093	2.140787	0.000000	0.008794	0.000000	0.000002	-0.000002	0.000000	0.000000
51.092149	10.956403	25.732055	-0.138466	0.076064	2.143719	0.000000	0.008794	0.000000	0.000002	-0.000002	0.000000	0.000000
51.426732	11.059249	25.686052	-0.079870	-0.145391	2.146640	0.000000	-0.008621	0.000000	0.000001	-0.000002	0.000000	0.000000
51.724055	11.114788	25.776022	-0.079669	-0.220422	2.144078	0.000000	-0.013879	0.000000	0.000001	-0.000002	0.000000	0.000000
52.165015	11.330206	25.683622	-0.410706	0.429167	2.151546	0.000000	0.047781	0.000000	-0.000000	-0.000002	0.000000	0.000000
52.605975	11.844712	25.024792	-0.760507	1.059229	2.186298	0.000000	0.109984	0.000000	-0.000001	-0.000002	0.000000	0.000000
53.046935	12.681811	23.829509	-1.145053	1.641096	2.248729	0.000000	0.173441	0.000000	-0.000002	-0.000002	0.000000	0.000000
53.487895	13.879749	22.152155	-1.581913	2.148296	2.339550	0.000000	0.238872	0.000000	-0.000003	-0.000002	0.000000	0.000000
53.933855	15.513795	20.043975	-2.095270	2.559088	2.461301	0.000000	0.307423	0.000000	-0.000004	-0.000002	0.000000	0.000000
54.482915	17.617650	17.671662	-1.713787	1.787097	2.609915	0.000000	0.233117	0.000000	-0.000005	-0.000002	0.000000	0.000000
55.031975	19.233234	16.072633	-1.211251	1.142396	2.716534	0.000000	0.154676	0.000000	-0.000006	-0.000002	0.000000	0.000000
55.581035	20.246432	15.132994	-0.623158	0.579066	2.779266	0.000000	0.073491	0.000000	-0.000007	-0.000002	0.000000	0.000000
56.130095	20.585675	14.785815	0.008952	0.056982	2.796998	0.000000	-0.008997	0.000000	-0.000007	-0.000001	0.000000	0.000000
56.428668	20.616789	14.734802	-0.059371	0.075239	2.796494	0.000000	-0.001689	0.000000	-0.000008	-0.000001	0.000000	0.000000
56.762001	20.661778	14.692226	-0.075596	0.052489	2.795932	0.000000	-0.001689	0.000000	-0.000008	-0.000001	0.000000	0.000000
57.095334	20.717584	14.664817	-0.091821	0.029739	2.795369	0.000000	-0.001689	0.000000	-0.000009	-0.000001	0.000000	0.000000
57.429918	20.784477	14.652557	-0.108107	0.006903	2.794805	0.000000	-0.001689	0.000000	-0.000009	-0.000001	0.000000	0.000000
57.727240	20.853065	14.654486	-0.177069	0.024903	2.794303	0.000000	0.005613	0.000000	-0.000009	-0.000001	0.000000	0.000000
58.276300	20.691794	14.908474	0.469051	-0.490219	2.774743	0.000000	-0.076759	0.000000	-0.000010	-0.000001	0.000000	0.000000
58.825360	19.835080	15.743867	1.082040	-1.040259	2.710264	0.000000	-0.157769	0.000000	-0.000011	-0.000001	0.000000	0.000000
59.374420	18.343437	17.220169	1.618599	-1.664394	2.602009	0.000000	-0.235980	0.000000	-0.000011	-0.000000	0.000000	0.000000
59.923480	16.322227	19.442533	2.040828	-2.407079	2.451899	0.000000	-0.310006	0.000000	-0.000011	-0.000000	0.000000	0.000000
60.369440	14.740294	21.417737	1.518987	-2.003329	2.328940	0.000000	-0.241715	0.000000	-0.000011	-0.000000	0.000000	0.000000
60.810400	13.602643	22.972807	1.070742	-1.509808	2.236804	0.000000	-0.176573	0.000000	-0.000011	-0.000001	0.000000	0.000000
61.251360	12.837325	24.060560	0.671416	-0.947591	2.172922	0.000000	-0.113443	0.000000	-0.000012	-0.000001	0.000000	0.000000
61.692320	12.409373	24.631505	0.302765	-0.342259	2.136568	0.000000	-0.051605	0.000000	-0.000012	-0.000001	0.000000	0.000000
62.134530	12.299292	24.659118	-0.021990	0.218112	2.127331	0.000000	0.004428	0.000000	-0.000013	-0.000001	0.000000	0.000000
62.431853	12.319559	24.533174	-0.046175	0.205481	2.128648	0.000000	0.004428	0.000000	-0.000013	-0.000001	0.000000	0.000000
62.765186	12.359381	24.400907	-0.073290	0.191321	2.130125	0.000000	0.004428	0.000000	-0.000014	-0.000001	0.000000	0.000000
63.098520	12.417279	24.278080	-0.100405	0.177160	2.131601	0.000000	0.004428	0.000000	-0.000014	-0.000001	0.000000	0.000000
63.433103	12.493573	24.164287	-0.127622	0.162946	2.133083	0.000000	0.004428	0.000000	-0.000015	-0.000001	0.000000	0.000000
63.730426	12.576654	24.071147	-0.120962	0.091277	2.134400	0.000000	-0.000807	0.000000	-0.000015	-0.000001	0.000000	0.000000
64.171386	12.843537	23.725570	-0.486567	0.689434	2.147588	0.000000	0.060677	0.000000	-0.000016	-0.000002	0.000000	0.000000
64.612346	13.441402	22.864336	-0.874403	1.256223	2.188015	0.000000	0.122851	0.000000	-0.000017	-0.000002	0.000000	0.000000
65.053306	14.397563	21.526630	-1.302187	1.765855	2.256141	0.000000	0.186425	0.000000	-0.000018	-0.000003	0.000000	0.000000
65.494266	15.755705	19.773318	-1.789465	2.195142	2.352741	0.000000	0.252123	0.000000	-0.000019	-0.000003	0.000000	0.000000
65.940226	17.601040	17.659371	-2.363189	2.525301	2.480490	0.000000	0.321093	0.000000	-0.000021	-0.000004	0.000000	0.000000
66.489286	19.966758	15.294609	-1.919979	1.807051	2.636418	0.000000	0.246047	0.000000	-0.000022	-0.000003	0.000000	0.000000
67.038346	21.767976	13.643688	-1.341151	1.217513	2.749880	0.000000	0.166636	0.000000	-0.000024	-0.000002	0.000000	0.000000
67.587406	22.877463	12.589016	-0.667592	0.714695	2.818864	0.000000	0.084270	0.000000	-0.000025	-0.000001	0.000000	0.000000
68.136466	23.216851	12.055471	0.053123	0.262783	2.842145	0.000000	0.000408	0.000000	-0.000025	-0.000001	0.000000	0.000000
68.435038	23.225200	11.887773	-0.020412	0.267377	2.844485	0.000000	0.007836	0.000000	-0.000026	-0.000001	0.000000	0.000000
68.768372	23.243594	11.719536	-0.034770	0.237333	2.847097	0.000000	0.007836	0.000000	-0.000026	-0.000001	0.000000	0.000000
69.101705	23.271560	11.571329	-0.049128	0.207288	2.849710	0.000000	0.007836	0.000000	-0.000026	-0.000001	0.000000	0.000000
69.436288	23.309257	11.442709	-0.063540	0.177131	2.852332	0.000000	0.007836	0.000000	-0.000026	-0.000001	0.000000	0.000000
69.733611	23.350849	11.345347	-0.137372	0.179982	2.854662	0.000000	0.015296	0.000000	-0.000026	-0.000001	0.000000	0.000000
70.282671	23.100649	11.374986	0.590364	-0.234283	2.839867	0.000000	-0.069108	0.000000	-0.000027	0.000000	0.000000	0.000000
