#ParticleID	Turn	x[m]	xp	y[m]	yp	z[m]	dE[GeV]# s	beta_x	beta_y	alpha_x	alpha_y	D_x	D_y	D_px	D_py	orbit_x	orbit_px	orbit_y	orbit_py
0.300000	11.834959	24.937822	-0.013790	-0.027790	2.618358	0.000000	-0.000082	0.000000	-0.000001	0.000000	0.000000	0.000000
0.601250	11.850937	24.958207	-0.039249	-0.039879	2.618334	0.000000	-0.000082	0.000000	-0.000001	0.000000	0.000000	0.000000
0.898573	11.881747	24.985468	-0.035239	-0.113083	2.618309	0.000000	-0.006502	0.000000	-0.000001	0.000000	0.000000	0.000000
1.339533	12.065220	24.808088	-0.382414	0.513812	2.631736	0.000000	0.067459	0.000000	-0.000001	0.000000	0.000000	0.000000
1.780493	12.561391	24.086072	-0.747061	1.117330	2.677916	0.000000	0.142190	0.000000	-0.000001	0.000000	0.000000	0.000000
2.221453	13.392930	22.852272	-1.145839	1.670009	2.757374	0.000000	0.218539	0.000000	-0.000000	0.000000	0.000000	0.000000
2.662413	14.597827	21.162825	-1.596968	2.146705	2.871015	0.000000	0.297378	0.000000	-0.000000	0.000000	0.000000	0.000000
3.108373	16.251952	19.069820	-2.125359	2.526856	3.021995	0.000000	0.380093	0.000000	-0.000000	0.000000	0.000000	0.000000
3.657433	18.373035	16.719201	-1.714891	1.779584	3.205417	0.000000	0.287056	0.000000	-0.000000	0.000000	0.000000	0.000000
4.206493	19.973786	15.115173	-1.183291	1.159068	3.336281	0.000000	0.188927	0.000000	-0.000000	0.000000	0.000000	0.000000
4.755553	20.941137	14.143484	-0.568110	0.621110	3.412265	0.000000	0.087447	0.000000	-0.000000	0.000000	0.000000	0.000000
5.304613	21.206758	13.734924	0.087200	0.127392	3.432023	0.000000	-0.015585	0.000000	-0.000000	0.000000	0.000000	0.000000
5.603185	21.191982	13.644086	0.017697	0.140961	3.430047	0.000000	-0.006617	0.000000	-0.000000	0.000000	0.000000	0.000000
5.936519	21.185429	13.558418	0.001963	0.116045	3.427841	0.000000	-0.006617	0.000000	-0.000000	0.000000	0.000000	0.000000
6.269852	21.189365	13.489360	-0.013771	0.091129	3.425635	0.000000	-0.006617	0.000000	-0.000000	0.000000	0.000000	0.000000
6.604435	21.203864	13.436748	-0.029564	0.066119	3.423421	0.000000	-0.006617	0.000000	-0.000000	0.000000	0.000000	0.000000
6.901758	21.225617	13.404038	-0.099057	0.078917	3.421454	0.000000	0.002322	0.000000	-0.000000	0.000000	0.000000	0.000000
7.450818	20.972549	13.577801	0.557241	-0.397259	3.394530	0.000000	-0.100250	0.000000	-0.000000	0.000000	0.000000	0.000000
7.999878	20.016235	14.286839	1.174178	-0.901731	3.311693	0.000000	-0.201045	0.000000	-0.000000	0.000000	0.000000	0.000000
8.548938	18.424226	15.581656	1.708177	-1.470432	3.174413	0.000000	-0.298273	0.000000	-0.000000	0.000000	0.000000	0.000000
9.097998	16.308971	17.554479	2.121519	-2.143868	2.985125	0.000000	-0.390211	0.000000	-0.000000	0.000000	0.000000	0.000000
9.543958	14.658523	19.312447	1.592529	-1.781460	2.829411	0.000000	-0.308514	0.000000	0.000000	0.000000	0.000000	0.000000
9.984918	13.457877	20.693800	1.140598	-1.339224	2.710614	0.000000	-0.230814	0.000000	0.000000	0.000000	0.000000	0.000000
10.425878	12.631401	21.656675	0.740778	-0.836055	2.625466	0.000000	-0.155743	0.000000	0.000000	0.000000	0.000000	0.000000
10.866838	12.141335	22.157262	0.374801	-0.294846	2.573000	0.000000	-0.082446	0.000000	0.000000	0.000000	0.000000	0.000000
11.309048	11.965150	22.172272	0.055186	0.205345	2.552597	0.000000	-0.016348	0.000000	0.000000	0.000000	0.000000	0.000000
11.606371	11.939745	22.054319	0.030261	0.191370	2.547737	0.000000	-0.016348	0.000000	0.000000	0.000000	0.000000	0.000000
12.086371	11.930009	21.881433	-0.009978	0.168809	2.539889	0.000000	-0.016348	0.000000	0.000000	0.000000	0.000000	0.000000
12.566371	11.958902	21.730207	-0.050216	0.146247	2.532042	0.000000	-0.016348	0.000000	0.000000	0.000000	0.000000	0.000000
13.046371	12.026424	21.600639	-0.090455	0.123686	2.524195	0.000000	-0.016348	0.000000	0.000000	0.000000	0.000000	0.000000
13.526371	12.132575	21.492730	-0.130694	0.101124	2.516348	0.000000	-0.016348	0.000000	0.000000	0.000000	0.000000	0.000000
14.007621	12.277783	21.406284	-0.171037	0.078504	2.508481	0.000000	-0.016348	0.000000	0.000000	0.000000	0.000000	0.000000
14.304943	12.386900	21.363757	-0.165586	0.012139	2.503620	0.000000	-0.022488	0.000000	0.000001	0.000000	0.000000	0.000000
14.745903	12.691713	21.119193	-0.528285	0.540369	2.509332	0.000000	0.048418	0.000000	0.000001	0.000000	0.000000	0.000000
15.186863	13.325791	20.417876	-0.915120	1.044012	2.546402	0.000000	0.119875	0.000000	0.000001	0.000000	0.000000	0.000000
15.627823	14.318104	19.291715	-1.343764	1.500154	2.615252	0.000000	0.192698	0.000000	0.000001	0.000000	0.000000	0.000000
16.068783	15.713988	17.791950	-1.833802	1.888040	2.716667	0.000000	0.267715	0.000000	0.000001	0.000000	0.000000	0.000000
16.514743	17.600871	15.965320	-2.412378	2.190772	2.853496	0.000000	0.346243	0.000000	0.000001	0.000000	0.000000	0.000000
17.063803	20.023973	13.925568	-1.974679	1.546146	3.019882	0.000000	0.258941	0.000000	0.000001	0.000000	0.000000	0.000000
17.612863	21.886526	12.529427	-1.397498	1.011648	3.137001	0.000000	0.167047	0.000000	0.000001	0.000000	0.000000	0.000000
18.161923	23.056970	11.677452	-0.721606	0.549209	3.202775	0.000000	0.072189	0.000000	0.000001	0.000000	0.000000	0.000000
18.710983	23.452630	11.308958	0.005258	0.125888	3.216038	0.000000	-0.023949	0.000000	0.000001	0.000000	0.000000	0.000000
19.009556	23.489895	11.224214	-0.068790	0.128396	3.211396	0.000000	-0.015546	0.000000	0.000001	0.000000	0.000000	0.000000
19.342889	23.540507	11.148679	-0.083048	0.098209	3.206214	0.000000	-0.015546	0.000000	0.000001	0.000000	0.000000	0.000000
19.676223	23.600625	11.093269	-0.097305	0.068022	3.201032	0.000000	-0.015546	0.000000	0.000001	0.000000	0.000000	0.000000
20.010806	23.670820	11.057752	-0.228895	0.092508	3.195850	0.000000	0.000288	0.000000	0.000001	0.000000	0.000000	0.000000
20.308129	23.810861	11.010805	-0.304326	0.094159	3.195936	0.000000	0.008638	0.000000	0.000001	0.000000	0.000000	0.000000
20.857189	23.734383	11.130037	0.442791	-0.312598	3.174469	0.000000	-0.086716	0.000000	0.000001	0.000000	0.000000	0.000000
21.406249	22.849870	11.705469	1.158632	-0.741620	3.100994	0.000000	-0.180532	0.000000	0.000001	-0.000000	0.000000	0.000000
21.955309	21.219799	12.778088	1.792632	-1.223466	2.976812	0.000000	-0.271145	0.000000	0.000001	-0.000000	0.000000	0.000000
22.504369	18.959312	14.424294	2.300011	-1.792457	2.804127	0.000000	-0.356950	0.000000	0.000001	-0.000000	0.000000	0.000000
22.950329	17.178051	15.902082	1.708306	-1.507287	2.662229	0.000000	-0.279768	0.000000	0.000001	-0.000000	0.000000	0.000000
23.391289	15.900738	17.080260	1.199347	-1.154394	2.555179	0.000000	-0.206227	0.000000	0.000001	-0.000000	0.000000	0.000000
23.832249	15.046519	17.922778	0.745183	-0.748978	2.480009	0.000000	-0.135034	0.000000	0.000001	0.000000	0.000000	0.000000
24.273209	14.576366	18.391300	0.325064	-0.309484	2.435864	0.000000	-0.065380	0.000000	0.000001	0.000000	0.000000	0.000000
24.715418	14.468913	18.464263	-0.044809	0.098743	2.422237	0.000000	-0.002410	0.000000	0.000001	0.000000	0.000000	0.000000
25.012741	14.501680	18.410380	-0.065399	0.082484	2.421520	0.000000	-0.002410	0.000000	0.000001	0.000000	0.000000	0.000000
25.346075	14.552974	18.361467	-0.088483	0.064255	2.420717	0.000000	-0.002410	0.000000	0.000001	0.000000	0.000000	0.000000
25.679408	14.619658	18.324707	-0.111567	0.046026	2.419913	0.000000	-0.002410	0.000000	0.000001	0.000000	0.000000	0.000000
26.013991	14.701769	18.300401	-0.015468	-0.120733	2.419082	0.000000	-0.022035	0.000000	0.000001	0.000000	0.000000	0.000000
26.311314	14.716981	18.377095	0.000394	-0.182282	2.412531	0.000000	-0.027952	0.000000	0.000001	0.000000	0.000000	0.000000
26.752274	14.897988	18.338487	-0.412434	0.269504	2.415310	0.000000	0.040568	0.000000	0.000001	0.000000	0.000000	0.000000
27.193234	15.449978	17.905345	-0.844106	0.709028	2.448376	0.000000	0.109550	0.000000	0.000001	0.000000	0.000000	0.000000
27.634194	16.398170	17.097378	-1.314341	1.116292	2.512107	0.000000	0.179779	0.000000	0.000001	0.000000	0.000000	0.000000
28.075154	17.785883	15.951346	-1.844626	1.472765	2.607227	0.000000	0.252056	0.000000	0.000001	0.000000	0.000000	0.000000
28.521114	19.700638	14.502135	-2.464139	1.763143	2.736424	0.000000	0.327647	0.000000	0.000002	0.000000	0.000000	0.000000
29.070174	22.134292	12.887232	-1.942024	1.195433	2.893668	0.000000	0.244287	0.000000	0.000002	0.000000	0.000000	0.000000
29.619234	23.915422	11.845608	-1.282735	0.712870	3.003884	0.000000	0.156593	0.000000	0.000002	0.000000	0.000000	0.000000
30.168294	24.918218	11.303070	-0.532840	0.281084	3.065116	0.000000	0.066122	0.000000	0.000002	0.000000	0.000000	0.000000
30.717354	25.071846	11.220975	0.254693	-0.130682	3.076278	0.000000	-0.025522	0.000000	0.000002	0.000000	0.000000	0.000000
31.015927	24.962558	11.289530	0.176851	-0.128246	3.071058	0.000000	-0.017484	0.000000	0.000002	0.000000	0.000000	0.000000
31.349260	24.849248	11.385031	0.163080	-0.158257	3.065230	0.000000	-0.017484	0.000000	0.000002	0.000000	0.000000	0.000000
31.682593	24.745118	11.500539	0.149309	-0.188269	3.059402	0.000000	-0.017484	0.000000	0.000002	0.000000	0.000000	0.000000
32.017177	24.649831	11.636601	0.135486	-0.218393	3.053552	0.000000	-0.017484	0.000000	0.000002	0.000000	0.000000	0.000000
32.314499	24.572917	11.774427	0.058999	-0.214398	3.048353	0.000000	-0.009519	0.000000	0.000002	0.000000	0.000000	0.000000
32.863559	24.087204	12.249252	0.820389	-0.655504	3.018256	0.000000	-0.099952	0.000000	0.000002	-0.000000	0.000000	0.000000
33.412619	22.792422	13.231109	1.523831	-1.143301	2.938920	0.000000	-0.188611	0.000000	0.000002	-0.000000	0.000000	0.000000
33.961679	20.780028	14.789932	2.119636	-1.712532	2.811753	0.000000	-0.273925	0.000000	0.000002	-0.000000	0.000000	0.000000
34.510739	18.192166	17.036752	2.565721	-2.403744	2.639010	0.000000	-0.354380	0.000000	0.000002	-0.000000	0.000000	0.000000
34.956699	16.180175	19.046358	1.962040	-2.083688	2.497306	0.000000	-0.281479	0.000000	0.000001	-0.000000	0.000000	0.000000
35.397659	14.679970	20.707719	1.452999	-1.669575	2.388561	0.000000	-0.212211	0.000000	0.000001	-0.000000	0.000000	0.000000
35.838619	13.597841	21.968845	1.010341	-1.179498	2.309798	0.000000	-0.145361	0.000000	0.000001	-0.000000	0.000000	0.000000
36.279579	12.884348	22.772357	0.613842	-0.635755	2.260122	0.000000	-0.080166	0.000000	0.000001	-0.000000	0.000000	0.000000
36.721789	12.506203	23.081995	0.275951	-0.119743	2.238938	0.000000	-0.021374	0.000000	0.000001	-0.000000	0.000000	0.000000
37.019112	12.349717	23.157084	0.250367	-0.132809	2.232583	0.000000	-0.021374	0.000000	0.000001	-0.000000	0.000000	0.000000
37.352445	12.192367	23.250506	0.221684	-0.147457	2.225459	0.000000	-0.021374	0.000000	0.000001	-0.000000	0.000000	0.000000
37.685779	12.054139	23.353694	0.193001	-0.162106	2.218334	0.000000	-0.021374	0.000000	0.000001	-0.000000	0.000000	0.000000
38.020362	11.934622	23.467089	0.164210	-0.176809	2.211183	0.000000	-0.021374	0.000000	0.000001	-0.000000	0.000000	0.000000
38.317684	11.844582	23.576112	0.167672	-0.247690	2.204828	0.000000	-0.026781	0.000000	0.000001	-0.000000	0.000000	0.000000
38.758644	11.847813	23.533442	-0.175028	0.344089	2.206941	0.000000	0.036376	0.000000	0.000001	-0.000000	0.000000	0.000000
39.199604	12.155649	22.973806	-0.525724	0.920212	2.236969	0.000000	0.099947	0.000000	0.000001	0.000000	0.000000	0.000000
39.640564	12.782152	21.922667	-0.900439	1.454467	2.295253	0.000000	0.164656	0.000000	0.000001	0.000000	0.000000	0.000000
40.081524	13.755948	20.427852	-1.316292	1.922544	2.382457	0.000000	0.231240	0.000000	0.000001	0.000000	0.000000	0.000000
40.527484	15.139083	18.534806	-1.796105	2.304424	2.501046	0.000000	0.300863	0.000000	0.000001	0.000000	0.000000	0.000000
41.076544	16.904448	16.407616	-1.400111	1.592685	2.645716	0.000000	0.225333	0.000000	0.000001	0.000000	0.000000	0.000000
41.625604	18.177751	14.995493	-0.905220	0.994389	2.747755	0.000000	0.145806	0.000000	0.000001	0.000000	0.000000	0.000000
42.174664	18.869051	14.197855	-0.346388	0.466921	2.805353	0.000000	0.063693	0.000000	0.000001	-0.000000	0.000000	0.000000
42.723724	18.929519	13.957887	0.236910	-0.027289	2.817490	0.000000	-0.019550	0.000000	0.000001	-0.000000	0.000000	0.000000
43.022297	18.822458	13.958793	0.171124	-0.012213	2.813851	0.000000	-0.012189	0.000000	0.000001	-0.000000	0.000000	0.000000
43.502297	18.670778	13.987026	0.144876	-0.046605	2.808000	0.000000	-0.012189	0.000000	0.000001	-0.000000	0.000000	0.000000
43.982297	18.544296	14.048275	0.118628	-0.080997	2.802150	0.000000	-0.012189	0.000000	0.000001	-0.000000	0.000000	0.000000
44.462297	18.443013	14.142541	0.092380	-0.115389	2.796299	0.000000	-0.012189	0.000000	0.000001	-0.000000	0.000000	0.000000
44.942297	18.366928	14.269823	0.066131	-0.149781	2.790448	0.000000	-0.012189	0.000000	0.000001	-0.000000	0.000000	0.000000
45.423547	18.316168	14.430403	-0.050934	-0.112766	2.784600	0.000000	0.001608	0.000000	0.000001	-0.000000	0.000000	0.000000
45.720870	18.351294	14.503663	-0.115157	-0.095737	2.785078	0.000000	0.008885	0.000000	0.000001	-0.000000	0.000000	0.000000
46.269930	18.168743	14.889403	0.445669	-0.610957	2.767391	0.000000	-0.073218	0.000000	0.000001	-0.000000	0.000000	0.000000
46.818990	17.384057	15.861350	0.975014	-1.169694	2.704914	0.000000	-0.154022	0.000000	0.000001	-0.000000	0.000000	0.000000
47.368050	16.052665	17.488734	1.435490	-1.811746	2.598757	0.000000	-0.232095	0.000000	0.000001	-0.000000	0.000000	0.000000
47.917110	14.268607	19.887469	1.794569	-2.582845	2.450803	0.000000	-0.306050	0.000000	0.000001	-0.000000	0.000000	0.000000
48.363070	12.880086	22.020286	1.330017	-2.179578	2.329606	0.000000	-0.237764	0.000000	0.000001	-0.000000	0.000000	0.000000
48.804030	11.887278	23.728004	0.929995	-1.678411	2.239219	0.000000	-0.172583	0.000000	0.000001	-0.000000	0.000000	0.000000
49.244990	11.227258	24.958240	0.572462	-1.100877	2.177113	0.000000	-0.109368	0.000000	0.000001	-0.000000	0.000000	0.000000
49.685950	10.869873	25.655021	0.241083	-0.473255	2.142583	0.000000	-0.047398	0.000000	0.000001	-0.000000	0.000000	0.000000
50.128160	10.798927	25.786361	-0.052916	0.112616	2.135244	0.000000	0.008796	0.000000	0.000001	-0.000000	0.000000	0.000000
50.425482	10.838603	25.722866	-0.080526	0.100939	2.137859	0.000000	0.008796	0.000000	0.000001	-0.000000	0.000000	0.000000
50.758816	10.902605	25.659937	-0.111480	0.087849	2.140791	0.000000	0.008796	0.000000	0.000001	-0.000000	0.000000	0.000000
51.092149	10.987243	25.605735	-0.142433	0.074758	2.143723	0.000000	0.008796	0.000000	0.000001	-0.000000	0.000000	0.000000
51.426732	11.092725	25.560624	-0.083512	-0.145742	2.146644	0.000000	-0.008619	0.000000	0.000001	-0.000000	0.000000	0.000000
51.724055	11.150409	25.650821	-0.083158	-0.220524	2.144081	0.000000	-0.013877	0.000000	0.000001	-0.000000	0.000000	0.000000
52.165015	11.369289	25.559973	-0.415095	0.425762	2.151550	0.000000	0.047782	0.000000	0.000000	-0.000000	0.000000	0.000000
52.605975	11.888134	24.905551	-0.765996	1.052676	2.186302	0.000000	0.109986	0.000000	0.000000	-0.000000	0.000000	0.000000
53.046935	12.730651	23.717330	-1.151894	1.631694	2.248733	0.000000	0.173443	0.000000	0.000000	-0.000000	0.000000	0.000000
53.487895	13.935331	22.049372	-1.590418	2.136471	2.339554	0.000000	0.238874	0.000000	0.000000	-0.000000	0.000000	0.000000
53.933855	15.577855	19.952628	-2.105845	2.545374	2.461305	0.000000	0.307426	0.000000	0.000000	-0.000000	0.000000	0.000000
54.482915	17.692481	17.593385	-1.722713	1.776866	2.609919	0.000000	0.233119	0.000000	0.000000	-0.000000	0.000000	0.000000
55.031975	19.316667	16.004022	-1.217896	1.134919	2.716538	0.000000	0.154678	0.000000	0.000000	-0.000000	0.000000	0.000000
55.581035	20.335687	15.071332	-0.627054	0.573811	2.779270	0.000000	0.073493	0.000000	0.000000	-0.000000	0.000000	0.000000
56.130095	20.677564	14.728882	0.008081	0.053573	2.797003	0.000000	-0.008996	0.000000	0.000000	-0.000000	0.000000	0.000000
56.428668	20.709321	14.680014	-0.060416	0.071614	2.796499	0.000000	-0.001688	0.000000	0.000000	-0.000000	0.000000	0.000000
56.762001	20.754983	14.639879	-0.076570	0.048791	2.795936	0.000000	-0.001688	0.000000	0.000000	-0.000000	0.000000	0.000000
57.095334	20.811415	14.614960	-0.092725	0.025968	2.795374	0.000000	-0.001688	0.000000	0.000000	-0.000000	0.000000	0.000000
57.429918	20.878889	14.605248	-0.108940	0.003059	2.794809	0.000000	-0.001688	0.000000	0.000000	-0.000000	0.000000	0.000000
57.727240	20.947954	14.609481	-0.178083	0.020874	2.794307	0.000000	0.005613	0.000000	0.000000	-0.000000	0.000000	0.000000
58.276300	20.786046	14.867204	0.471220	-0.493034	2.774747	0.000000	-0.076758	0.000000	0.000000	-0.000000	0.000000	0.000000
58.825360	19.925264	15.705116	1.087237	-1.042059	2.710268	0.000000	-0.157768	0.000000	0.000000	-0.000000	0.000000	0.000000
59.374420	18.426410	17.182900	1.626458	-1.665307	2.602013	0.000000	-0.235980	0.000000	0.000000	-0.000000	0.000000	0.000000
59.923480	16.395355	19.405814	2.050794	-2.407172	2.451902	0.000000	-0.310006	0.000000	-0.000000	-0.000000	0.000000	0.000000
60.369440	14.805528	21.381659	1.526787	-2.004672	2.328944	0.000000	-0.241715	0.000000	-0.000000	-0.000000	0.000000	0.000000
60.810400	13.661811	22.938440	1.076750	-1.512330	2.236808	0.000000	-0.176573	0.000000	-0.000000	-0.000000	0.000000	0.000000
61.251360	12.891880	24.028898	0.675907	-0.951177	2.172926	0.000000	-0.113443	0.000000	-0.000000	-0.000000	0.000000	0.000000
61.692320	12.460559	24.603417	0.305944	-0.346747	2.136571	0.000000	-0.051605	0.000000	-0.000000	-0.000000	0.000000	0.000000
62.134530	12.348192	24.635325	-0.019861	0.212992	2.127334	0.000000	0.004429	0.000000	-0.000000	-0.000000	0.000000	0.000000
62.431853	12.367164	24.512421	-0.043949	0.200375	2.128651	0.000000	0.004429	0.000000	-0.000000	-0.000000	0.000000	0.000000
62.765186	12.405465	24.383552	-0.070954	0.186231	2.130127	0.000000	0.004429	0.000000	-0.000000	-0.000000	0.000000	0.000000
63.098520	12.461770	24.264113	-0.097959	0.172086	2.131604	0.000000	0.004429	0.000000	-0.000000	-0.000000	0.000000	0.000000
63.433103	12.536390	24.153709	-0.125065	0.157889	2.133086	0.000000	0.004429	0.000000	-0.000000	-0.000000	0.000000	0.000000
63.730426	12.617921	24.063572	-0.118210	0.086261	2.134403	0.000000	-0.000805	0.000000	-0.000000	-0.000000	0.000000	0.000000
64.171386	12.882770	23.722466	-0.484686	0.684349	2.147591	0.000000	0.060679	0.000000	-0.000000	-0.000000	0.000000	0.000000
64.612346	13.479326	22.865663	-0.873305	1.251299	2.188018	0.000000	0.122853	0.000000	-0.000001	-0.000000	0.000000	0.000000
65.053306	14.434846	21.532145	-1.301824	1.761316	2.256143	0.000000	0.186428	0.000000	-0.000001	-0.000000	0.000000	0.000000
65.494266	15.792984	19.782589	-1.789818	2.191195	2.352743	0.000000	0.252125	0.000000	-0.000001	-0.000000	0.000000	0.000000
65.940226	17.638963	17.671826	-2.364280	2.522134	2.480492	0.000000	0.321096	0.000000	-0.000001	-0.000000	0.000000	0.000000
66.489286	20.005044	15.310441	-1.919541	1.804031	2.636419	0.000000	0.246049	0.000000	-0.000001	-0.000000	0.000000	0.000000
67.038346	21.804951	13.662853	-1.339215	1.214424	2.749882	0.000000	0.166638	0.000000	-0.000001	-0.000000	0.000000	0.000000
67.587406	22.911548	12.611710	-0.664294	0.711318	2.818866	0.000000	0.084272	0.000000	-0.000001	-0.000000	0.000000	0.000000
68.136466	23.246670	12.082140	0.057550	0.258878	2.842148	0.000000	0.000410	0.000000	-0.000001	-0.000000	0.000000	0.000000
68.435038	23.252409	11.916701	-0.016033	0.263650	2.844487	0.000000	0.007836	0.000000	-0.000001	-0.000000	0.000000	0.000000
68.768372	23.267878	11.750907	-0.030372	0.233734	2.847100	0.000000	0.007836	0.000000	-0.000001	-0.000000	0.000000	0.000000
69.101705	23.292906	11.605056	-0.044712	0.203818	2.849712	0.000000	0.007836	0.000000	-0.000001	-0.000000	0.000000	0.000000
69.436288	23.327641	11.478715	-0.059104	0.173789	2.852334	0.000000	0.007836	0.000000	-0.000001	-0.000000	0.000000	0.000000
69.733611	23.366590	11.383306	-0.132948	0.176847	2.854664	0.000000	0.015295	0.000000	-0.000001	-0.000000	0.000000	0.000000
70.282671	23.111285	11.416983	0.595180	-0.238544	2.839868	0.000000	-0.069109	0.000000	-0.000001	-0.000000	0.000000	0.000000
