#ParticleID	Turn	x[m]	xp	y[m]	yp	z[m]	dE[GeV]# s	beta_x	beta_y	alpha_x	alpha_y	D_x	D_y	D_px	D_py	orbit_x	orbit_px	orbit_y	orbit_py
0.300000	11.819560	24.994650	-0.011737	-0.027487	2.618107	0.000000	0.000014	0.000000	-0.000000	0.000001	0.000000	0.000000
0.601250	11.834310	25.014844	-0.037227	-0.039549	2.618111	0.000000	0.000014	0.000000	-0.000000	0.000001	0.000000	0.000000
0.898573	11.863928	25.041901	-0.033292	-0.112863	2.618115	0.000000	-0.006406	0.000000	0.000000	0.000001	0.000000	0.000000
1.339533	12.045489	24.863668	-0.380011	0.515518	2.631583	0.000000	0.067551	0.000000	0.000001	0.000001	0.000000	0.000000
1.780493	12.539301	24.139519	-0.744092	1.120444	2.677802	0.000000	0.142278	0.000000	0.000001	0.000001	0.000000	0.000000
2.221453	13.367922	22.902401	-1.142168	1.674390	2.757298	0.000000	0.218625	0.000000	0.000001	0.000001	0.000000	0.000000
2.662413	14.569212	21.208603	-1.592426	2.152153	2.870977	0.000000	0.297462	0.000000	0.000002	0.000001	0.000000	0.000000
3.108373	16.218818	19.110350	-2.119731	2.533126	3.021994	0.000000	0.380177	0.000000	0.000002	0.000001	0.000000	0.000000
3.657433	18.334147	16.753740	-1.710098	1.784289	3.205462	0.000000	0.287139	0.000000	0.000002	0.000001	0.000000	0.000000
4.206493	19.930253	15.145247	-1.179672	1.162543	3.336371	0.000000	0.189008	0.000000	0.000003	0.000001	0.000000	0.000000
4.755553	20.894395	14.170300	-0.565920	0.623603	3.412399	0.000000	0.087524	0.000000	0.000003	0.000001	0.000000	0.000000
5.304613	21.158472	13.759457	0.087806	0.129080	3.432197	0.000000	-0.015512	0.000000	0.000003	0.000000	0.000000	0.000000
5.603185	21.143268	13.667566	0.018398	0.142739	3.430243	0.000000	-0.006545	0.000000	0.000004	0.000000	0.000000	0.000000
5.936519	21.136260	13.580702	0.002627	0.117854	3.428061	0.000000	-0.006545	0.000000	0.000004	0.000000	0.000000	0.000000
6.269852	21.139766	13.510428	-0.013144	0.092968	3.425879	0.000000	-0.006545	0.000000	0.000004	0.000000	0.000000	0.000000
6.604435	21.153857	13.456574	-0.028974	0.067989	3.423690	0.000000	-0.006545	0.000000	0.000004	0.000000	0.000000	0.000000
6.901758	21.175269	13.422744	-0.098366	0.080862	3.421744	0.000000	0.002396	0.000000	0.000004	0.000001	0.000000	0.000000
7.450818	20.922372	13.594655	0.556240	-0.395810	3.394857	0.000000	-0.100187	0.000000	0.000004	0.000000	0.000000	0.000000
7.999878	19.968059	14.302325	1.171556	-0.900674	3.312052	0.000000	-0.200993	0.000000	0.000005	0.000000	0.000000	0.000000
8.548938	18.379738	15.596161	1.704119	-1.469692	3.174798	0.000000	-0.298233	0.000000	0.000005	0.000000	0.000000	0.000000
9.097998	16.269601	17.568321	2.116312	-2.143393	2.985528	0.000000	-0.390184	0.000000	0.000005	-0.000000	0.000000	0.000000
9.543958	14.623268	19.325637	1.588474	-1.780475	2.829829	0.000000	-0.308476	0.000000	0.000005	0.000000	0.000000	0.000000
9.984918	13.425765	20.705914	1.137500	-1.337779	2.711050	0.000000	-0.230765	0.000000	0.000005	0.000000	0.000000	0.000000
10.425878	12.601653	21.667336	0.738496	-0.834215	2.625927	0.000000	-0.155683	0.000000	0.000005	0.000000	0.000000	0.000000
10.866838	12.113278	22.166156	0.373231	-0.292695	2.573490	0.000000	-0.082373	0.000000	0.000005	0.000000	0.000000	0.000000
11.309048	11.938195	22.179161	0.054188	0.207695	2.553122	0.000000	-0.016263	0.000000	0.000005	0.000001	0.000000	0.000000
11.606371	11.913399	22.059814	0.029210	0.193711	2.548286	0.000000	-0.016263	0.000000	0.000005	0.000001	0.000000	0.000000
12.086371	11.904714	21.884688	-0.011116	0.171135	2.540480	0.000000	-0.016263	0.000000	0.000006	0.000001	0.000000	0.000000
12.566371	11.934741	21.731234	-0.051441	0.148560	2.532673	0.000000	-0.016263	0.000000	0.000006	0.000001	0.000000	0.000000
13.046371	12.003480	21.599453	-0.091766	0.125984	2.524867	0.000000	-0.016263	0.000000	0.000006	0.000001	0.000000	0.000000
13.526371	12.110931	21.489344	-0.132091	0.103409	2.517060	0.000000	-0.016263	0.000000	0.000006	0.000001	0.000000	0.000000
14.007621	12.257526	21.400706	-0.172521	0.080775	2.509233	0.000000	-0.016263	0.000000	0.000007	0.000001	0.000000	0.000000
14.304943	12.367541	21.356831	-0.167173	0.014421	2.504398	0.000000	-0.022404	0.000000	0.000007	0.000001	0.000000	0.000000
14.745903	12.673577	21.110352	-0.529481	0.542413	2.510150	0.000000	0.048522	0.000000	0.000007	0.000001	0.000000	0.000000
15.186863	13.308559	20.407371	-0.915981	1.045726	2.547271	0.000000	0.120001	0.000000	0.000007	0.000001	0.000000	0.000000
15.627823	14.301499	19.279874	-1.344329	1.501459	2.616181	0.000000	0.192847	0.000000	0.000008	0.000001	0.000000	0.000000
16.068783	15.697760	17.779161	-1.834096	1.888877	2.717667	0.000000	0.267889	0.000000	0.000008	0.000001	0.000000	0.000000
16.514743	17.584791	15.952010	-2.412415	2.191098	2.854579	0.000000	0.346444	0.000000	0.000009	0.000001	0.000000	0.000000
17.063803	20.008325	13.911777	-1.975426	1.546700	3.021065	0.000000	0.259106	0.000000	0.000010	0.000001	0.000000	0.000000
17.612863	21.872067	12.514884	-1.398903	1.012470	3.138263	0.000000	0.167171	0.000000	0.000010	0.000001	0.000000	0.000000
18.161923	23.044372	11.661835	-0.723568	0.550355	3.204093	0.000000	0.072272	0.000000	0.000011	0.000001	0.000000	0.000000
18.710983	23.442432	11.291867	0.002875	0.127442	3.217390	0.000000	-0.023910	0.000000	0.000011	0.000000	0.000000	0.000000
19.009556	23.481103	11.206239	-0.071150	0.129850	3.212760	0.000000	-0.015504	0.000000	0.000011	0.000000	0.000000	0.000000
19.342889	23.533292	11.129754	-0.085417	0.099603	3.207592	0.000000	-0.015504	0.000000	0.000011	0.000000	0.000000	0.000000
19.676223	23.594992	11.073434	-0.099685	0.069356	3.202424	0.000000	-0.015504	0.000000	0.000011	0.000000	0.000000	0.000000
20.010806	23.666783	11.037045	-0.231264	0.093680	3.197256	0.000000	0.000337	0.000000	0.000011	0.000000	0.000000	0.000000
20.308129	23.808238	10.989418	-0.306700	0.095216	3.197357	0.000000	0.008690	0.000000	0.000011	0.000000	0.000000	0.000000
20.857189	23.734402	11.107155	0.440382	-0.310915	3.175906	0.000000	-0.086710	0.000000	0.000011	-0.000000	0.000000	0.000000
21.406249	22.852476	11.680342	1.156357	-0.739191	3.102421	0.000000	-0.180572	0.000000	0.000011	-0.000000	0.000000	0.000000
21.955309	21.224755	12.749808	1.790653	-1.220118	2.978205	0.000000	-0.271232	0.000000	0.000011	-0.000001	0.000000	0.000000
22.504369	18.966213	14.391727	2.298466	-1.787951	2.805461	0.000000	-0.357080	0.000000	0.000010	-0.000001	0.000000	0.000000
22.950329	17.186322	15.865812	1.706767	-1.503524	2.663512	0.000000	-0.279864	0.000000	0.000010	-0.000001	0.000000	0.000000
23.391289	15.910389	17.041062	1.197743	-1.151542	2.556427	0.000000	-0.206290	0.000000	0.000010	-0.000001	0.000000	0.000000
23.832249	15.057640	17.881515	0.743440	-0.747167	2.481237	0.000000	-0.135066	0.000000	0.000009	-0.000000	0.000000	0.000000
24.273209	14.589115	18.348931	0.323102	-0.308795	2.437084	0.000000	-0.065380	0.000000	0.000009	-0.000000	0.000000	0.000000
24.715418	14.483526	18.421796	-0.047046	0.098385	2.423464	0.000000	-0.002382	0.000000	0.000009	0.000000	0.000000	0.000000
25.012741	14.517619	18.368137	-0.067620	0.082089	2.422756	0.000000	-0.002382	0.000000	0.000009	0.000000	0.000000	0.000000
25.346075	14.570387	18.319501	-0.090685	0.063819	2.421962	0.000000	-0.002382	0.000000	0.000009	0.000000	0.000000	0.000000
25.679408	14.638533	18.283045	-0.113751	0.045549	2.421169	0.000000	-0.002382	0.000000	0.000009	0.000000	0.000000	0.000000
26.013991	14.722098	18.259071	-0.017468	-0.120915	2.420347	0.000000	-0.022017	0.000000	0.000009	0.000000	0.000000	0.000000
26.311314	14.738492	18.335885	-0.001529	-0.182398	2.413801	0.000000	-0.027936	0.000000	0.000009	-0.000000	0.000000	0.000000
26.752274	14.921434	18.297871	-0.414917	0.268276	2.416594	0.000000	0.040617	0.000000	0.000009	0.000000	0.000000	0.000000
27.193234	15.475901	17.866285	-0.847261	0.706743	2.449689	0.000000	0.109632	0.000000	0.000010	0.000000	0.000000	0.000000
27.634194	16.427223	17.060762	-1.318314	1.113054	2.513464	0.000000	0.179896	0.000000	0.000010	0.000001	0.000000	0.000000
28.075154	17.818866	15.917953	-1.849596	1.468722	2.608643	0.000000	0.252209	0.000000	0.000010	0.000001	0.000000	0.000000
28.521114	19.738587	14.472642	-2.470345	1.758477	2.737915	0.000000	0.327837	0.000000	0.000011	0.000001	0.000000	0.000000
29.070174	22.178565	12.862229	-1.947266	1.191872	2.895250	0.000000	0.244427	0.000000	0.000011	0.000001	0.000000	0.000000
29.619234	23.964748	11.824027	-1.286641	0.710162	3.005528	0.000000	0.156681	0.000000	0.000012	0.000001	0.000000	0.000000
30.168294	24.970969	11.284085	-0.535134	0.279035	3.066794	0.000000	0.066156	0.000000	0.000012	0.000000	0.000000	0.000000
30.717354	25.126152	11.203946	0.254172	-0.132217	3.077960	0.000000	-0.025542	0.000000	0.000012	-0.000000	0.000000	0.000000
31.015927	25.017247	11.273461	0.176223	-0.129877	3.072735	0.000000	-0.017501	0.000000	0.000012	-0.000000	0.000000	0.000000
31.349260	24.904344	11.370068	0.162485	-0.159944	3.066901	0.000000	-0.017501	0.000000	0.000012	-0.000000	0.000000	0.000000
31.682593	24.800600	11.486719	0.148747	-0.190011	3.061068	0.000000	-0.017501	0.000000	0.000012	-0.000000	0.000000	0.000000
32.017177	24.705677	11.623966	0.134958	-0.220190	3.055212	0.000000	-0.017501	0.000000	0.000012	-0.000000	0.000000	0.000000
32.314499	24.629068	11.762874	0.058359	-0.216277	3.050009	0.000000	-0.009532	0.000000	0.000011	-0.000000	0.000000	0.000000
32.863559	24.143030	12.239630	0.821619	-0.657161	3.019890	0.000000	-0.100018	0.000000	0.000011	-0.000001	0.000000	0.000000
33.412619	22.845904	13.223237	1.526844	-1.144852	2.940504	0.000000	-0.188729	0.000000	0.000011	-0.000001	0.000000	0.000000
33.961679	20.829313	14.783756	2.124220	-1.714089	2.813258	0.000000	-0.274093	0.000000	0.000010	-0.000001	0.000000	0.000000
34.510739	18.235699	17.032339	2.571552	-2.405416	2.640411	0.000000	-0.354596	0.000000	0.000009	-0.000002	0.000000	0.000000
34.956699	16.219100	19.043590	1.966576	-2.085690	2.498619	0.000000	-0.281659	0.000000	0.000009	-0.000001	0.000000	0.000000
35.397659	14.715384	20.706828	1.456457	-1.671812	2.389802	0.000000	-0.212359	0.000000	0.000008	-0.000001	0.000000	0.000000
35.838619	13.630619	21.969994	1.012880	-1.181869	2.310982	0.000000	-0.145477	0.000000	0.000008	-0.000001	0.000000	0.000000
36.279579	12.915248	22.775616	0.615579	-0.638151	2.261261	0.000000	-0.080252	0.000000	0.000008	-0.000001	0.000000	0.000000
36.721789	12.535892	23.087344	0.277035	-0.122066	2.240046	0.000000	-0.021434	0.000000	0.000007	-0.000001	0.000000	0.000000
37.019112	12.378748	23.163816	0.251497	-0.135136	2.233673	0.000000	-0.021434	0.000000	0.000007	-0.000001	0.000000	0.000000
37.352445	12.220626	23.258790	0.222866	-0.149789	2.226529	0.000000	-0.021434	0.000000	0.000007	-0.000001	0.000000	0.000000
37.685779	12.081593	23.363534	0.194235	-0.164442	2.219385	0.000000	-0.021434	0.000000	0.000007	-0.000001	0.000000	0.000000
38.020362	11.961232	23.478494	0.165497	-0.179150	2.212214	0.000000	-0.021434	0.000000	0.000007	-0.000001	0.000000	0.000000
38.317684	11.870413	23.588910	0.169067	-0.250063	2.205841	0.000000	-0.026843	0.000000	0.000006	-0.000001	0.000000	0.000000
38.758644	11.872671	23.548177	-0.174206	0.342087	2.207933	0.000000	0.036340	0.000000	0.000006	-0.000000	0.000000	0.000000
39.199604	12.180020	22.990108	-0.525438	0.918673	2.237951	0.000000	0.099936	0.000000	0.000006	-0.000000	0.000000	0.000000
39.640564	12.806503	21.940096	-0.900676	1.453460	2.296236	0.000000	0.164670	0.000000	0.000006	-0.000000	0.000000	0.000000
40.081524	13.780741	20.445916	-1.317063	1.922116	2.383452	0.000000	0.231280	0.000000	0.000006	0.000000	0.000000	0.000000
40.527484	15.164817	18.552983	-1.797449	2.304599	2.502065	0.000000	0.300930	0.000000	0.000006	0.000000	0.000000	0.000000
41.076544	16.931139	16.425834	-1.400500	1.592434	2.646762	0.000000	0.225366	0.000000	0.000006	0.000000	0.000000	0.000000
41.625604	18.204329	15.014227	-0.904627	0.993694	2.748810	0.000000	0.145805	0.000000	0.000006	-0.000000	0.000000	0.000000
42.174664	18.894455	14.217616	-0.344855	0.465733	2.806398	0.000000	0.063658	0.000000	0.000006	-0.000000	0.000000	0.000000
42.723724	18.952770	13.979260	0.239275	-0.029054	2.818507	0.000000	-0.019619	0.000000	0.000006	-0.000001	0.000000	0.000000
43.022297	18.844330	13.981177	0.173437	-0.013890	2.814848	0.000000	-0.012255	0.000000	0.000006	-0.000001	0.000000	0.000000
43.502297	18.690425	14.010994	0.147199	-0.048229	2.808966	0.000000	-0.012255	0.000000	0.000005	-0.000001	0.000000	0.000000
43.982297	18.561709	14.073776	0.120961	-0.082567	2.803084	0.000000	-0.012255	0.000000	0.000005	-0.000001	0.000000	0.000000
44.462297	18.458181	14.169523	0.094722	-0.116906	2.797202	0.000000	-0.012255	0.000000	0.000005	-0.000001	0.000000	0.000000
44.942297	18.379841	14.298235	0.068484	-0.151244	2.791320	0.000000	-0.012255	0.000000	0.000005	-0.000001	0.000000	0.000000
45.423547	18.326812	14.460196	-0.048623	-0.114027	2.785440	0.000000	0.001546	0.000000	0.000004	-0.000001	0.000000	0.000000
45.720870	18.360561	14.534195	-0.112856	-0.096882	2.785899	0.000000	0.008825	0.000000	0.000004	-0.000000	0.000000	0.000000
46.269930	18.175332	14.921712	0.448215	-0.613067	2.768172	0.000000	-0.073304	0.000000	0.000004	-0.000001	0.000000	0.000000
46.818990	17.387797	15.896571	0.977626	-1.172918	2.705642	0.000000	-0.154133	0.000000	0.000004	-0.000001	0.000000	0.000000
47.368050	16.053584	17.528208	1.437983	-1.816314	2.599419	0.000000	-0.232228	0.000000	0.000003	-0.000001	0.000000	0.000000
47.917110	14.266935	19.932841	1.796768	-2.589082	2.451386	0.000000	-0.306203	0.000000	0.000003	-0.000001	0.000000	0.000000
48.363070	12.876535	22.070801	1.332046	-2.184826	2.330124	0.000000	-0.237903	0.000000	0.000002	-0.000001	0.000000	0.000000
48.804030	11.881977	23.782622	0.931950	-1.682434	2.239679	0.000000	-0.172709	0.000000	0.000002	-0.000001	0.000000	0.000000
49.244990	11.220233	25.015796	0.574432	-1.103492	2.177521	0.000000	-0.109483	0.000000	0.000001	-0.000001	0.000000	0.000000
49.685950	10.861071	25.714216	0.243158	-0.474342	2.142942	0.000000	-0.047503	0.000000	0.000001	-0.000001	0.000000	0.000000
50.128160	10.788208	25.845820	-0.050667	0.112959	2.135559	0.000000	0.008698	0.000000	0.000001	-0.000001	0.000000	0.000000
50.425482	10.826552	25.782114	-0.078298	0.101309	2.138145	0.000000	0.008698	0.000000	0.000001	-0.000001	0.000000	0.000000
50.758816	10.889076	25.718928	-0.109275	0.088247	2.141045	0.000000	0.008698	0.000000	0.000000	-0.000001	0.000000	0.000000
51.092149	10.972252	25.664451	-0.140252	0.075186	2.143945	0.000000	0.008698	0.000000	0.000000	-0.000001	0.000000	0.000000
51.426732	11.076282	25.619045	-0.081488	-0.145759	2.146833	0.000000	-0.008718	0.000000	-0.000000	-0.000001	0.000000	0.000000
51.724055	11.132773	25.709244	-0.081208	-0.220658	2.144242	0.000000	-0.013976	0.000000	-0.000000	-0.000001	0.000000	0.000000
52.165015	11.349740	25.617832	-0.412693	0.427172	2.151667	0.000000	0.047687	0.000000	-0.000001	-0.000001	0.000000	0.000000
52.605975	11.866228	24.961507	-0.763032	1.055566	2.186378	0.000000	0.109893	0.000000	-0.000001	-0.000001	0.000000	0.000000
53.046935	12.705834	23.770130	-1.148232	1.635932	2.248768	0.000000	0.173351	0.000000	-0.000001	-0.000001	0.000000	0.000000
53.487895	13.906916	22.097909	-1.585891	2.141865	2.339550	0.000000	0.238783	0.000000	-0.000002	-0.000001	0.000000	0.000000
53.933855	15.544937	19.995926	-2.100238	2.551681	2.461260	0.000000	0.307334	0.000000	-0.000002	-0.000001	0.000000	0.000000
54.482915	17.653825	17.630687	-1.717933	1.781542	2.609825	0.000000	0.233030	0.000000	-0.000003	-0.000001	0.000000	0.000000
55.031975	19.273374	16.036927	-1.214282	1.138299	2.716396	0.000000	0.154592	0.000000	-0.000003	-0.000001	0.000000	0.000000
55.581035	20.289187	15.101124	-0.624861	0.576134	2.779083	0.000000	0.073412	0.000000	-0.000003	-0.000001	0.000000	0.000000
56.130095	20.629512	14.756624	0.008697	0.055006	2.796773	0.000000	-0.009069	0.000000	-0.000004	-0.000001	0.000000	0.000000
56.428668	20.660837	14.706847	-0.059708	0.073153	2.796247	0.000000	-0.001762	0.000000	-0.000004	-0.000001	0.000000	0.000000
56.762001	20.706039	14.665673	-0.075899	0.050367	2.795660	0.000000	-0.001762	0.000000	-0.000004	-0.000001	0.000000	0.000000
57.095334	20.762036	14.639691	-0.092090	0.027580	2.795073	0.000000	-0.001762	0.000000	-0.000004	-0.000001	0.000000	0.000000
57.429918	20.829097	14.628887	-0.108342	0.004709	2.794484	0.000000	-0.001762	0.000000	-0.000004	-0.000001	0.000000	0.000000
57.727240	20.897816	14.632131	-0.177388	0.022616	2.793960	0.000000	0.005539	0.000000	-0.000005	-0.000001	0.000000	0.000000
58.276300	20.736071	14.888290	0.470229	-0.491912	2.774362	0.000000	-0.076821	0.000000	-0.000005	-0.000000	0.000000	0.000000
58.825360	19.877276	15.725273	1.084631	-1.041478	2.709852	0.000000	-0.157818	0.000000	-0.000005	-0.000000	0.000000	0.000000
59.374420	18.382091	17.202695	1.622420	-1.665226	2.601573	0.000000	-0.236016	0.000000	-0.000005	-0.000000	0.000000	0.000000
59.923480	16.356130	19.425790	2.045610	-2.407585	2.451447	0.000000	-0.310028	0.000000	-0.000005	0.000000	0.000000	0.000000
60.369440	14.770399	21.401719	1.522751	-2.004444	2.328477	0.000000	-0.241748	0.000000	-0.000005	-0.000000	0.000000	0.000000
60.810400	13.629810	22.958021	1.073668	-1.511477	2.236323	0.000000	-0.176619	0.000000	-0.000005	-0.000000	0.000000	0.000000
61.251360	12.862230	24.047464	0.673637	-0.949738	2.172418	0.000000	-0.113501	0.000000	-0.000005	-0.000000	0.000000	0.000000
61.692320	12.432592	24.620479	0.304384	-0.344787	2.136034	0.000000	-0.051677	0.000000	-0.000005	-0.000000	0.000000	0.000000
62.134530	12.321318	24.650455	-0.020848	0.215344	2.126763	0.000000	0.004344	0.000000	-0.000005	-0.000001	0.000000	0.000000
62.431853	12.340893	24.526154	-0.044989	0.202723	2.128055	0.000000	0.004344	0.000000	-0.000006	-0.000001	0.000000	0.000000
62.765186	12.379908	24.395722	-0.072055	0.188573	2.129503	0.000000	0.004344	0.000000	-0.000006	-0.000001	0.000000	0.000000
63.098520	12.436966	24.274723	-0.099120	0.174424	2.130951	0.000000	0.004344	0.000000	-0.000006	-0.000001	0.000000	0.000000
63.433103	12.512383	24.162757	-0.126286	0.160221	2.132404	0.000000	0.004344	0.000000	-0.000006	-0.000001	0.000000	0.000000
63.730426	12.594656	24.071234	-0.119540	0.088567	2.133696	0.000000	-0.000889	0.000000	-0.000006	-0.000001	0.000000	0.000000
64.171386	12.860454	23.728024	-0.485518	0.686797	2.146844	0.000000	0.060576	0.000000	-0.000007	-0.000001	0.000000	0.000000
64.612346	13.457540	22.869038	-0.873678	1.253779	2.187221	0.000000	0.122731	0.000000	-0.000007	-0.000001	0.000000	0.000000
65.053306	14.413193	21.533362	-1.301754	1.763715	2.255288	0.000000	0.186284	0.000000	-0.000007	-0.000001	0.000000	0.000000
65.494266	15.771074	19.781766	-1.789303	2.193403	2.351821	0.000000	0.251958	0.000000	-0.000008	-0.000001	0.000000	0.000000
65.940226	17.616384	17.669158	-2.363293	2.524048	2.479489	0.000000	0.320904	0.000000	-0.000008	-0.000001	0.000000	0.000000
66.489286	19.981855	15.305784	-1.919427	1.805761	2.635322	0.000000	0.245892	0.000000	-0.000009	-0.000001	0.000000	0.000000
67.038346	21.782122	13.656340	-1.339982	1.216094	2.748708	0.000000	0.166518	0.000000	-0.000010	-0.000001	0.000000	0.000000
67.587406	22.890023	12.603341	-0.665887	0.713047	2.817637	0.000000	0.084190	0.000000	-0.000010	-0.000001	0.000000	0.000000
68.136466	23.227300	12.071784	0.055242	0.260789	2.840885	0.000000	0.000369	0.000000	-0.000010	-0.000000	0.000000	0.000000
68.435038	23.234394	11.905235	-0.018307	0.265487	2.843212	0.000000	0.007792	0.000000	-0.000010	-0.000000	0.000000	0.000000
68.768372	23.251382	11.738234	-0.032658	0.235514	2.845809	0.000000	0.007792	0.000000	-0.000010	-0.000000	0.000000	0.000000
69.101705	23.277937	11.591215	-0.047009	0.205542	2.848407	0.000000	0.007792	0.000000	-0.000011	-0.000000	0.000000	0.000000
69.436288	23.314214	11.463739	-0.061414	0.175457	2.851014	0.000000	0.007792	0.000000	-0.000011	-0.000000	0.000000	0.000000
69.733611	23.354540	11.367353	-0.135242	0.178426	2.853331	0.000000	0.015248	0.000000	-0.000011	-0.000000	0.000000	0.000000
70.282671	23.101953	11.399045	0.592554	-0.236487	2.838522	0.000000	-0.069113	0.000000	-0.000011	0.000000	0.000000	0.000000
