#ParticleID	Turn	x[m]	xp	y[m]	yp	z[m]	dE[GeV]# s	beta_x	beta_y	alpha_x	alpha_y	D_x	D_y	D_px	D_py	orbit_x	orbit_px	orbit_y	orbit_py
0.300000	11.800123	25.069751	-0.009888	-0.026587	2.618500	0.000000	-0.000136	0.000000	-0.000002	0.000002	0.000000	0.000000
0.601250	11.813772	25.089393	-0.035420	-0.038612	2.618458	0.000000	-0.000136	0.000000	-0.000002	0.000002	0.000000	0.000000
0.898573	11.842326	25.115882	-0.031578	-0.112072	2.618417	0.000000	-0.006558	0.000000	-0.000001	0.000002	0.000000	0.000000
1.339533	12.022146	24.936090	-0.377760	0.518248	2.631820	0.000000	0.067407	0.000000	-0.000000	0.000002	0.000000	0.000000
1.780493	12.513698	24.208721	-0.741201	1.124988	2.677975	0.000000	0.142139	0.000000	0.000001	0.000002	0.000000	0.000000
2.221453	13.339442	22.966869	-1.138506	1.680541	2.757410	0.000000	0.218489	0.000000	0.000002	0.000002	0.000000	0.000000
2.662413	14.537101	21.267038	-1.587825	2.159632	2.871029	0.000000	0.297329	0.000000	0.000002	0.000002	0.000000	0.000000
3.108373	16.182104	19.161643	-2.113972	2.541595	3.021986	0.000000	0.380044	0.000000	0.000003	0.000002	0.000000	0.000000
3.657433	18.291610	16.796903	-1.705315	1.790717	3.205380	0.000000	0.287007	0.000000	0.000005	0.000002	0.000000	0.000000
4.206493	19.883158	15.182256	-1.176203	1.167388	3.336217	0.000000	0.188880	0.000000	0.000006	0.000002	0.000000	0.000000
4.755553	20.844331	14.202696	-0.564011	0.627210	3.412176	0.000000	0.087402	0.000000	0.000007	0.000002	0.000000	0.000000
5.304613	21.107235	13.788450	0.088021	0.131707	3.431909	0.000000	-0.015626	0.000000	0.000007	0.000001	0.000000	0.000000
5.603185	21.091831	13.694938	0.018714	0.145468	3.429920	0.000000	-0.006659	0.000000	0.000008	0.000001	0.000000	0.000000
5.936519	21.084625	13.606244	0.002905	0.120613	3.427700	0.000000	-0.006659	0.000000	0.000008	0.000001	0.000000	0.000000
6.269852	21.087958	13.534121	-0.012905	0.095758	3.425480	0.000000	-0.006659	0.000000	0.000009	0.000001	0.000000	0.000000
6.604435	21.101903	13.478390	-0.028773	0.070810	3.423252	0.000000	-0.006659	0.000000	0.000009	0.000001	0.000000	0.000000
6.901758	21.123206	13.442875	-0.098061	0.083761	3.421271	0.000000	0.002279	0.000000	0.000010	0.000001	0.000000	0.000000
7.450818	20.870932	13.611900	0.554807	-0.393422	3.394325	0.000000	-0.100287	0.000000	0.000010	0.000001	0.000000	0.000000
7.999878	19.919105	14.317150	1.168487	-0.898627	3.311470	0.000000	-0.201075	0.000000	0.000011	0.000001	0.000000	0.000000
8.548938	18.334959	15.608858	1.699631	-1.467840	3.174175	0.000000	-0.298295	0.000000	0.000011	0.000000	0.000000	0.000000
9.097998	16.230389	17.579030	2.110721	-2.141604	2.984877	0.000000	-0.390225	0.000000	0.000011	0.000000	0.000000	0.000000
9.543958	14.588498	19.334514	1.584068	-1.778172	2.829155	0.000000	-0.308535	0.000000	0.000012	0.000000	0.000000	0.000000
9.984918	13.394439	20.712574	1.134068	-1.335071	2.710346	0.000000	-0.230842	0.000000	0.000012	0.000001	0.000000	0.000000
10.425878	12.572983	21.671473	0.735880	-0.831226	2.625185	0.000000	-0.155778	0.000000	0.000012	0.000001	0.000000	0.000000
10.866838	12.086600	22.167583	0.371313	-0.289560	2.572701	0.000000	-0.082488	0.000000	0.000013	0.000001	0.000000	0.000000
11.309048	11.912937	22.177803	0.052816	0.210840	2.552277	0.000000	-0.016397	0.000000	0.000013	0.000002	0.000000	0.000000
11.606371	11.888972	22.056592	0.027788	0.196837	2.547402	0.000000	-0.016397	0.000000	0.000014	0.000002	0.000000	0.000000
12.086371	11.881689	21.878479	-0.012617	0.174232	2.539530	0.000000	-0.016397	0.000000	0.000015	0.000002	0.000000	0.000000
12.566371	11.913196	21.722066	-0.053021	0.151627	2.531659	0.000000	-0.016397	0.000000	0.000015	0.000002	0.000000	0.000000
13.046371	11.983490	21.587356	-0.093426	0.129021	2.523788	0.000000	-0.016397	0.000000	0.000016	0.000002	0.000000	0.000000
13.526371	12.092573	21.474346	-0.133831	0.106416	2.515917	0.000000	-0.016397	0.000000	0.000017	0.000002	0.000000	0.000000
14.007621	12.240881	21.382828	-0.174341	0.083752	2.508025	0.000000	-0.016397	0.000000	0.000018	0.000002	0.000000	0.000000
14.304943	12.351993	21.337189	-0.169083	0.017434	2.503150	0.000000	-0.022534	0.000000	0.000018	0.000002	0.000000	0.000000
14.745903	12.659579	21.088305	-0.531101	0.544832	2.508837	0.000000	0.048359	0.000000	0.000019	0.000002	0.000000	0.000000
15.186863	13.295890	20.383495	-0.917383	1.047440	2.545878	0.000000	0.119803	0.000000	0.000020	0.000003	0.000000	0.000000
15.627823	14.289995	19.254826	-1.345579	1.502391	2.614692	0.000000	0.192612	0.000000	0.000021	0.000003	0.000000	0.000000
16.068783	15.687313	17.753652	-1.835250	1.888984	2.716065	0.000000	0.267614	0.000000	0.000023	0.000004	0.000000	0.000000
16.514743	17.575350	15.926779	-2.413527	2.190371	2.852844	0.000000	0.346126	0.000000	0.000024	0.000004	0.000000	0.000000
17.063803	20.000414	13.887019	-1.977079	1.546561	3.019170	0.000000	0.258847	0.000000	0.000026	0.000003	0.000000	0.000000
17.612863	21.866218	12.489962	-1.400980	1.012909	3.136241	0.000000	0.166976	0.000000	0.000028	0.000003	0.000000	0.000000
18.161923	23.040971	11.636100	-0.725923	0.551404	3.201982	0.000000	0.072143	0.000000	0.000029	0.000002	0.000000	0.000000
18.710983	23.441694	11.264614	0.000410	0.129175	3.215226	0.000000	-0.023969	0.000000	0.000030	0.000001	0.000000	0.000000
19.009556	23.481831	11.178020	-0.073608	0.131428	3.210577	0.000000	-0.015571	0.000000	0.000030	0.000001	0.000000	0.000000
19.342889	23.535660	11.100513	-0.087880	0.101092	3.205387	0.000000	-0.015571	0.000000	0.000030	0.000001	0.000000	0.000000
19.676223	23.599004	11.043230	-0.102152	0.070757	3.200196	0.000000	-0.015571	0.000000	0.000030	0.000001	0.000000	0.000000
20.010806	23.672447	11.005933	-0.233764	0.094838	3.195006	0.000000	0.000259	0.000000	0.000031	0.000001	0.000000	0.000000
20.308129	23.815393	10.957643	-0.309220	0.096203	3.195083	0.000000	0.008605	0.000000	0.000031	0.000001	0.000000	0.000000
20.857189	23.744180	11.073803	0.438152	-0.309013	3.173606	0.000000	-0.086721	0.000000	0.000031	-0.000000	0.000000	0.000000
21.406249	22.864469	11.644343	1.154575	-0.736240	3.100135	0.000000	-0.180509	0.000000	0.000031	-0.000001	0.000000	0.000000
21.955309	21.238398	12.709900	1.789445	-1.215908	2.975974	0.000000	-0.271095	0.000000	0.000030	-0.000002	0.000000	0.000000
22.504369	18.980826	14.346371	2.297916	-1.782182	2.803325	0.000000	-0.356873	0.000000	0.000029	-0.000003	0.000000	0.000000
22.950329	17.201520	15.815772	1.705996	-1.498832	2.661458	0.000000	-0.279711	0.000000	0.000027	-0.000002	0.000000	0.000000
23.391289	15.926377	16.987439	1.196716	-1.148138	2.554429	0.000000	-0.206190	0.000000	0.000027	-0.000002	0.000000	0.000000
23.832249	15.074662	17.825517	0.742110	-0.745205	2.479272	0.000000	-0.135017	0.000000	0.000026	-0.000001	0.000000	0.000000
24.273209	14.607465	18.291873	0.321410	-0.308365	2.435130	0.000000	-0.065381	0.000000	0.000026	-0.000000	0.000000	0.000000
24.715418	14.503561	18.365047	-0.049135	0.097410	2.421499	0.000000	-0.002427	0.000000	0.000026	0.000000	0.000000	0.000000
25.012741	14.538889	18.311981	-0.069684	0.081067	2.420777	0.000000	-0.002427	0.000000	0.000026	0.000000	0.000000	0.000000
25.346075	14.593025	18.264044	-0.092723	0.062744	2.419968	0.000000	-0.002427	0.000000	0.000026	0.000000	0.000000	0.000000
25.679408	14.662519	18.228322	-0.115761	0.044422	2.419159	0.000000	-0.002427	0.000000	0.000026	0.000000	0.000000	0.000000
26.013991	14.747421	18.205119	-0.019245	-0.121658	2.418322	0.000000	-0.022046	0.000000	0.000026	0.000000	0.000000	0.000000
26.311314	14.764861	18.282391	-0.003215	-0.183055	2.411767	0.000000	-0.027959	0.000000	0.000026	0.000000	0.000000	0.000000
26.752274	14.949579	18.245595	-0.417273	0.266181	2.414538	0.000000	0.040541	0.000000	0.000027	0.000001	0.000000	0.000000
27.193234	15.506458	17.816457	-0.850395	0.703306	2.447588	0.000000	0.109502	0.000000	0.000027	0.000001	0.000000	0.000000
27.634194	16.460940	17.014501	-1.322370	1.108431	2.511292	0.000000	0.179711	0.000000	0.000028	0.000002	0.000000	0.000000
28.075154	17.856633	15.876216	-1.854760	1.463124	2.606377	0.000000	0.251967	0.000000	0.000029	0.000003	0.000000	0.000000
28.521114	19.781546	14.436241	-2.476863	1.752156	2.735527	0.000000	0.327535	0.000000	0.000030	0.000004	0.000000	0.000000
29.070174	22.228093	12.831953	-1.952640	1.186972	2.892717	0.000000	0.244205	0.000000	0.000032	0.000003	0.000000	0.000000
29.619234	24.019372	11.798514	-1.290492	0.706333	3.002895	0.000000	0.156542	0.000000	0.000033	0.000002	0.000000	0.000000
30.168294	25.028855	11.262317	-0.537189	0.276004	3.064107	0.000000	0.066104	0.000000	0.000034	0.000001	0.000000	0.000000
30.717354	25.185238	11.185169	0.254057	-0.134665	3.075269	0.000000	-0.025508	0.000000	0.000034	-0.000001	0.000000	0.000000
31.015927	25.076477	11.256196	0.175997	-0.132439	3.070051	0.000000	-0.017475	0.000000	0.000034	-0.000000	0.000000	0.000000
31.349260	24.963714	11.354533	0.162292	-0.162572	3.064227	0.000000	-0.017475	0.000000	0.000034	-0.000000	0.000000	0.000000
31.682593	24.860088	11.472958	0.148588	-0.192704	3.058402	0.000000	-0.017475	0.000000	0.000033	-0.000000	0.000000	0.000000
32.017177	24.765260	11.612029	0.134832	-0.222950	3.052555	0.000000	-0.017475	0.000000	0.000033	-0.000000	0.000000	0.000000
32.314499	24.688717	11.752597	0.058119	-0.219129	3.047360	0.000000	-0.009515	0.000000	0.000033	-0.000000	0.000000	0.000000
32.863559	24.201856	12.232394	0.823349	-0.659880	3.017274	0.000000	-0.099915	0.000000	0.000033	-0.000001	0.000000	0.000000
33.412619	22.901798	13.219004	1.530421	-1.147634	2.937968	0.000000	-0.188543	0.000000	0.000032	-0.000003	0.000000	0.000000
33.961679	20.880373	14.782703	2.129392	-1.717131	2.810848	0.000000	-0.273827	0.000000	0.000030	-0.000004	0.000000	0.000000
34.510739	18.280364	17.034867	2.577954	-2.408935	2.638169	0.000000	-0.354254	0.000000	0.000028	-0.000004	0.000000	0.000000
34.956699	16.258685	19.049390	1.971605	-2.089475	2.496518	0.000000	-0.281374	0.000000	0.000026	-0.000004	0.000000	0.000000
35.397659	14.751045	20.716019	1.460356	-1.675689	2.387816	0.000000	-0.212126	0.000000	0.000024	-0.000003	0.000000	0.000000
35.838619	13.663274	21.982580	1.015826	-1.185659	2.309088	0.000000	-0.145294	0.000000	0.000023	-0.000002	0.000000	0.000000
36.279579	12.945674	22.791443	0.617706	-0.641683	2.259437	0.000000	-0.080117	0.000000	0.000022	-0.000002	0.000000	0.000000
36.721789	12.564763	23.106119	0.278508	-0.125216	2.238272	0.000000	-0.021340	0.000000	0.000021	-0.000001	0.000000	0.000000
37.019112	12.406731	23.184465	0.253009	-0.138286	2.231928	0.000000	-0.021340	0.000000	0.000021	-0.000001	0.000000	0.000000
37.352445	12.247587	23.281539	0.224422	-0.152938	2.224815	0.000000	-0.021340	0.000000	0.000021	-0.000001	0.000000	0.000000
37.685779	12.107502	23.388382	0.195835	-0.167591	2.217702	0.000000	-0.021340	0.000000	0.000020	-0.000001	0.000000	0.000000
38.020362	11.986056	23.505449	0.167141	-0.182298	2.210562	0.000000	-0.021340	0.000000	0.000020	-0.000001	0.000000	0.000000
38.317684	11.894247	23.617738	0.170805	-0.253275	2.204218	0.000000	-0.026744	0.000000	0.000019	-0.000001	0.000000	0.000000
38.758644	11.895208	23.579489	-0.172993	0.339684	2.206345	0.000000	0.036397	0.000000	0.000019	-0.000001	0.000000	0.000000
39.199604	12.201698	23.023142	-0.524694	0.917187	2.236378	0.000000	0.099952	0.000000	0.000018	-0.000000	0.000000	0.000000
39.640564	12.827718	21.974010	-0.900368	1.452959	2.294662	0.000000	0.164646	0.000000	0.000018	-0.000000	0.000000	0.000000
40.081524	13.801871	20.479827	-1.317176	1.922623	2.381858	0.000000	0.231215	0.000000	0.000018	0.000000	0.000000	0.000000
40.527484	15.186239	18.585995	-1.797991	2.306097	2.500432	0.000000	0.300823	0.000000	0.000019	0.000001	0.000000	0.000000
41.076544	16.952692	16.457698	-1.400194	1.593037	2.645085	0.000000	0.225313	0.000000	0.000019	0.000000	0.000000	0.000000
41.625604	18.225088	15.045897	-0.903495	0.993446	2.747118	0.000000	0.145806	0.000000	0.000019	-0.000000	0.000000	0.000000
42.174664	18.913551	14.250031	-0.342976	0.464616	2.804723	0.000000	0.063713	0.000000	0.000019	-0.000001	0.000000	0.000000
42.723724	18.969451	14.013412	0.241768	-0.031120	2.816877	0.000000	-0.019510	0.000000	0.000018	-0.000001	0.000000	0.000000
43.022297	18.859546	14.016495	0.175891	-0.015818	2.813249	0.000000	-0.012151	0.000000	0.000018	-0.000001	0.000000	0.000000
43.502297	18.703285	14.048122	0.149652	-0.050071	2.807418	0.000000	-0.012151	0.000000	0.000017	-0.000001	0.000000	0.000000
43.982297	18.572214	14.112633	0.123413	-0.084325	2.801586	0.000000	-0.012151	0.000000	0.000016	-0.000001	0.000000	0.000000
44.462297	18.466332	14.210027	0.097174	-0.118579	2.795755	0.000000	-0.012151	0.000000	0.000016	-0.000001	0.000000	0.000000
44.942297	18.385639	14.340305	0.070936	-0.152833	2.789923	0.000000	-0.012151	0.000000	0.000015	-0.000001	0.000000	0.000000
45.423547	18.330251	14.503755	-0.046190	-0.115316	2.784093	0.000000	0.001643	0.000000	0.000014	-0.000001	0.000000	0.000000
45.720870	18.362550	14.578503	-0.110417	-0.098002	2.784582	0.000000	0.008918	0.000000	0.000014	-0.000001	0.000000	0.000000
46.269930	18.174629	14.967994	0.450651	-0.615563	2.766918	0.000000	-0.073169	0.000000	0.000013	-0.000002	0.000000	0.000000
46.818990	17.384499	15.946426	0.979887	-1.176968	2.704474	0.000000	-0.153959	0.000000	0.000012	-0.000002	0.000000	0.000000
47.368050	16.047973	17.583490	1.439909	-1.822207	2.598357	0.000000	-0.232017	0.000000	0.000011	-0.000003	0.000000	0.000000
47.917110	14.259456	19.995792	1.798223	-2.597238	2.450450	0.000000	-0.305961	0.000000	0.000009	-0.000003	0.000000	0.000000
48.363070	12.867766	22.140421	1.333495	-2.191562	2.329292	0.000000	-0.237683	0.000000	0.000008	-0.000003	0.000000	0.000000
48.804030	11.871906	23.857445	0.933462	-1.687451	2.238940	0.000000	-0.172510	0.000000	0.000007	-0.000002	0.000000	0.000000
49.244990	11.208776	25.094199	0.576075	-1.106561	2.176866	0.000000	-0.109301	0.000000	0.000006	-0.000002	0.000000	0.000000
49.685950	10.848079	25.794411	0.245008	-0.475324	2.142364	0.000000	-0.047337	0.000000	0.000005	-0.000002	0.000000	0.000000
50.128160	10.773457	25.925938	-0.048563	0.113916	2.135052	0.000000	0.008852	0.000000	0.000004	-0.000002	0.000000	0.000000
50.425482	10.810559	25.861653	-0.076226	0.102299	2.137684	0.000000	0.008852	0.000000	0.000003	-0.000002	0.000000	0.000000
50.758816	10.871714	25.797795	-0.107239	0.089275	2.140636	0.000000	0.008852	0.000000	0.000002	-0.000002	0.000000	0.000000
51.092149	10.953544	25.742620	-0.138252	0.076251	2.143587	0.000000	0.008852	0.000000	0.000002	-0.000002	0.000000	0.000000
51.426732	11.056249	25.696490	-0.079686	-0.145284	2.146527	0.000000	-0.008562	0.000000	0.000001	-0.000002	0.000000	0.000000
51.724055	11.111680	25.786396	-0.079500	-0.220336	2.143982	0.000000	-0.013820	0.000000	0.000000	-0.000002	0.000000	0.000000
52.165015	11.326917	25.693799	-0.410462	0.429525	2.151476	0.000000	0.047837	0.000000	-0.000000	-0.000002	0.000000	0.000000
52.605975	11.841170	25.034538	-0.760177	1.059843	2.186253	0.000000	0.110039	0.000000	-0.000001	-0.000002	0.000000	0.000000
53.046935	12.677936	23.838609	-1.144623	1.641939	2.248708	0.000000	0.173495	0.000000	-0.000002	-0.000002	0.000000	0.000000
53.487895	13.875443	22.160426	-1.581363	2.149328	2.339553	0.000000	0.238926	0.000000	-0.000003	-0.000002	0.000000	0.000000
53.933855	15.508934	20.051256	-2.094573	2.560264	2.461328	0.000000	0.307478	0.000000	-0.000004	-0.000002	0.000000	0.000000
54.482915	17.612094	17.677816	-1.713227	1.787986	2.609972	0.000000	0.233170	0.000000	-0.000005	-0.000002	0.000000	0.000000
55.031975	19.227157	16.077939	-1.210867	1.143062	2.716619	0.000000	0.154727	0.000000	-0.000007	-0.000002	0.000000	0.000000
55.581035	20.240043	15.137668	-0.622978	0.579557	2.779378	0.000000	0.073539	0.000000	-0.000008	-0.000002	0.000000	0.000000
56.130095	20.579207	14.790030	0.008916	0.057331	2.797136	0.000000	-0.008954	0.000000	-0.000008	-0.000001	0.000000	0.000000
56.428668	20.610334	14.738800	-0.059395	0.075605	2.796645	0.000000	-0.001645	0.000000	-0.000009	-0.000001	0.000000	0.000000
56.762001	20.655341	14.695979	-0.075625	0.052859	2.796097	0.000000	-0.001645	0.000000	-0.000009	-0.000001	0.000000	0.000000
57.095334	20.711168	14.668321	-0.091856	0.030114	2.795550	0.000000	-0.001645	0.000000	-0.000010	-0.000001	0.000000	0.000000
57.429918	20.778085	14.655809	-0.108147	0.007283	2.795000	0.000000	-0.001645	0.000000	-0.000010	-0.000001	0.000000	0.000000
57.727240	20.846698	14.657510	-0.177097	0.025296	2.794511	0.000000	0.005657	0.000000	-0.000011	-0.000002	0.000000	0.000000
58.276300	20.685575	14.911110	0.468812	-0.489904	2.774974	0.000000	-0.076721	0.000000	-0.000011	-0.000001	0.000000	0.000000
58.825360	19.829232	15.746189	1.081607	-1.039998	2.710513	0.000000	-0.157739	0.000000	-0.000012	-0.000001	0.000000	0.000000
59.374420	18.338158	17.222227	1.618002	-1.664170	2.602272	0.000000	-0.235959	0.000000	-0.000012	-0.000000	0.000000	0.000000
59.923480	16.317675	19.444358	2.040110	-2.406876	2.452171	0.000000	-0.309993	0.000000	-0.000012	0.000000	0.000000	0.000000
60.369440	14.736316	21.419344	1.518412	-2.003047	2.329220	0.000000	-0.241695	0.000000	-0.000012	-0.000000	0.000000	0.000000
60.810400	13.599119	22.974135	1.070283	-1.509459	2.237095	0.000000	-0.176546	0.000000	-0.000013	-0.000001	0.000000	0.000000
61.251360	12.834162	24.061558	0.671052	-0.947193	2.173227	0.000000	-0.113408	0.000000	-0.000013	-0.000001	0.000000	0.000000
61.692320	12.406496	24.632136	0.302480	-0.341829	2.136889	0.000000	-0.051562	0.000000	-0.000014	-0.000001	0.000000	0.000000
62.134530	12.296636	24.659362	-0.022216	0.218553	2.127674	0.000000	0.004479	0.000000	-0.000014	-0.000002	0.000000	0.000000
62.431853	12.317039	24.533157	-0.046407	0.205920	2.129006	0.000000	0.004479	0.000000	-0.000015	-0.000002	0.000000	0.000000
62.765186	12.357018	24.400599	-0.073528	0.191756	2.130499	0.000000	0.004479	0.000000	-0.000015	-0.000002	0.000000	0.000000
63.098520	12.415076	24.277482	-0.100649	0.177593	2.131992	0.000000	0.004479	0.000000	-0.000016	-0.000002	0.000000	0.000000
63.433103	12.491536	24.163399	-0.127872	0.163377	2.133491	0.000000	0.004479	0.000000	-0.000016	-0.000002	0.000000	0.000000
63.730426	12.574767	24.070004	-0.121221	0.091707	2.134823	0.000000	-0.000757	0.000000	-0.000017	-0.000002	0.000000	0.000000
64.171386	12.841862	23.724064	-0.486791	0.689823	2.148036	0.000000	0.060737	0.000000	-0.000018	-0.000002	0.000000	0.000000
64.612346	13.439912	22.862511	-0.874601	1.256553	2.188492	0.000000	0.122924	0.000000	-0.000019	-0.000002	0.000000	0.000000
65.053306	14.396240	21.524547	-1.302369	1.766111	2.256653	0.000000	0.186511	0.000000	-0.000020	-0.000003	0.000000	0.000000
65.494266	15.754538	19.771046	-1.789639	2.195311	2.353294	0.000000	0.252222	0.000000	-0.000021	-0.000003	0.000000	0.000000
65.940226	17.600027	17.656989	-2.363363	2.525377	2.481090	0.000000	0.321207	0.000000	-0.000023	-0.000004	0.000000	0.000000
66.489286	19.965973	15.292125	-1.920216	1.807163	2.637075	0.000000	0.246141	0.000000	-0.000025	-0.000003	0.000000	0.000000
67.038346	21.767478	13.641056	-1.341435	1.217670	2.750583	0.000000	0.166708	0.000000	-0.000026	-0.000002	0.000000	0.000000
67.587406	22.877294	12.586181	-0.667902	0.714909	2.819600	0.000000	0.084318	0.000000	-0.000028	-0.000002	0.000000	0.000000
68.136466	23.217028	12.052364	0.052808	0.263069	2.842901	0.000000	0.000433	0.000000	-0.000028	-0.000001	0.000000	0.000000
68.435038	23.225566	11.884503	-0.020729	0.267645	2.845249	0.000000	0.007862	0.000000	-0.000028	-0.000001	0.000000	0.000000
68.768372	23.244171	11.716092	-0.035087	0.237588	2.847870	0.000000	0.007862	0.000000	-0.000029	-0.000001	0.000000	0.000000
69.101705	23.272349	11.567719	-0.049445	0.207531	2.850491	0.000000	0.007862	0.000000	-0.000029	-0.000001	0.000000	0.000000
69.436288	23.310258	11.438941	-0.063857	0.177361	2.853122	0.000000	0.007862	0.000000	-0.000029	-0.000001	0.000000	0.000000
69.733611	23.352038	11.341445	-0.137694	0.180192	2.855460	0.000000	0.015325	0.000000	-0.000029	-0.000001	0.000000	0.000000
70.282671	23.102165	11.370793	0.590091	-0.233959	2.840674	0.000000	-0.069105	0.000000	-0.000030	0.000000	0.000000	0.000000
