#ParticleID	Turn	x[m]	xp	y[m]	yp	z[m]	dE[GeV]# s	beta_x	beta_y	alpha_x	alpha_y	D_x	D_y	D_px	D_py	orbit_x	orbit_px	orbit_y	orbit_py
0.300000	11.816728	25.006190	-0.011399	-0.027384	2.618101	0.000000	0.000016	0.000000	-0.000001	0.000001	0.000000	0.000000
0.601250	11.831277	25.026320	-0.036896	-0.039440	2.618106	0.000000	0.000016	0.000000	-0.000001	0.000001	0.000000	0.000000
0.898573	11.860699	25.053311	-0.032974	-0.112777	2.618110	0.000000	-0.006405	0.000000	-0.000000	0.000001	0.000000	0.000000
1.339533	12.041945	24.874870	-0.379611	0.515904	2.631579	0.000000	0.067553	0.000000	0.000000	0.000001	0.000000	0.000000
1.780493	12.535361	24.150254	-0.743592	1.121111	2.677798	0.000000	0.142279	0.000000	0.000001	0.000001	0.000000	0.000000
2.221453	13.363489	22.912434	-1.141545	1.675309	2.757295	0.000000	0.218626	0.000000	0.000001	0.000001	0.000000	0.000000
2.662413	14.564165	21.217729	-1.591652	2.153282	2.870974	0.000000	0.297463	0.000000	0.000002	0.000001	0.000000	0.000000
3.108373	16.212999	19.118394	-2.118769	2.534414	3.021991	0.000000	0.380178	0.000000	0.000002	0.000001	0.000000	0.000000
3.657433	18.327346	16.760550	-1.709285	1.785262	3.205459	0.000000	0.287140	0.000000	0.000003	0.000001	0.000000	0.000000
4.206493	19.922668	15.151129	-1.179066	1.163270	3.336369	0.000000	0.189009	0.000000	0.000003	0.000001	0.000000	0.000000
4.755553	20.886279	14.175495	-0.565563	0.624135	3.412397	0.000000	0.087525	0.000000	0.000004	0.000001	0.000000	0.000000
5.304613	21.150114	13.764157	0.087888	0.129455	3.432196	0.000000	-0.015511	0.000000	0.000004	0.000001	0.000000	0.000000
5.603185	21.134849	13.672033	0.018496	0.143131	3.430242	0.000000	-0.006543	0.000000	0.000004	0.000001	0.000000	0.000000
5.936519	21.127778	13.584905	0.002719	0.118251	3.428061	0.000000	-0.006543	0.000000	0.000005	0.000001	0.000000	0.000000
6.269852	21.131224	13.514365	-0.013058	0.093371	3.425879	0.000000	-0.006543	0.000000	0.000005	0.000001	0.000000	0.000000
6.604435	21.145260	13.460239	-0.028894	0.068398	3.423690	0.000000	-0.006543	0.000000	0.000005	0.000001	0.000000	0.000000
6.901758	21.166626	13.426165	-0.098269	0.081284	3.421744	0.000000	0.002397	0.000000	0.000005	0.000001	0.000000	0.000000
7.450818	20.913782	13.597664	0.556047	-0.395477	3.394858	0.000000	-0.100186	0.000000	0.000006	0.000001	0.000000	0.000000
7.999878	19.959835	14.305006	1.171087	-0.900407	3.312053	0.000000	-0.200992	0.000000	0.000006	0.000000	0.000000	0.000000
8.548938	18.372166	15.598575	1.703407	-1.469470	3.174799	0.000000	-0.298232	0.000000	0.000006	0.000000	0.000000	0.000000
9.097998	16.262922	17.570509	2.115407	-2.143201	2.985530	0.000000	-0.390183	0.000000	0.000006	-0.000000	0.000000	0.000000
9.543958	14.617306	19.327613	1.587766	-1.780193	2.829831	0.000000	-0.308475	0.000000	0.000006	0.000000	0.000000	0.000000
9.984918	13.420353	20.707607	1.136956	-1.337420	2.711053	0.000000	-0.230764	0.000000	0.000006	0.000000	0.000000	0.000000
10.425878	12.596657	21.668684	0.738090	-0.833796	2.625930	0.000000	-0.155682	0.000000	0.000007	0.000000	0.000000	0.000000
10.866838	12.108587	22.167115	0.372946	-0.292235	2.573494	0.000000	-0.082372	0.000000	0.000007	0.000001	0.000000	0.000000
11.309048	11.933707	22.179702	0.053998	0.208175	2.553126	0.000000	-0.016262	0.000000	0.000007	0.000001	0.000000	0.000000
11.606371	11.909026	22.060069	0.029011	0.194189	2.548291	0.000000	-0.016262	0.000000	0.000007	0.000001	0.000000	0.000000
12.086371	11.900539	21.884486	-0.011329	0.171610	2.540485	0.000000	-0.016262	0.000000	0.000008	0.000001	0.000000	0.000000
12.566371	11.930777	21.730578	-0.051668	0.149031	2.532679	0.000000	-0.016262	0.000000	0.000008	0.000001	0.000000	0.000000
13.046371	11.999742	21.598347	-0.092008	0.126451	2.524873	0.000000	-0.016262	0.000000	0.000009	0.000001	0.000000	0.000000
13.526371	12.107432	21.487791	-0.132347	0.103872	2.517067	0.000000	-0.016262	0.000000	0.000009	0.000001	0.000000	0.000000
14.007621	12.254280	21.398709	-0.172792	0.081234	2.509240	0.000000	-0.016262	0.000000	0.000009	0.000001	0.000000	0.000000
14.304943	12.364459	21.354562	-0.167460	0.014885	2.504405	0.000000	-0.022403	0.000000	0.000010	0.000001	0.000000	0.000000
14.745903	12.670720	21.107703	-0.529708	0.542806	2.510158	0.000000	0.048524	0.000000	0.000010	0.000001	0.000000	0.000000
15.186863	13.305880	20.404414	-0.916157	1.046029	2.547279	0.000000	0.120003	0.000000	0.000010	0.000001	0.000000	0.000000
15.627823	14.298956	19.276693	-1.344463	1.501659	2.616191	0.000000	0.192849	0.000000	0.000011	0.000002	0.000000	0.000000
16.068783	15.695319	17.775852	-1.834193	1.888965	2.717677	0.000000	0.267891	0.000000	0.000012	0.000002	0.000000	0.000000
16.514743	17.582422	15.948674	-2.412480	2.191070	2.854590	0.000000	0.346447	0.000000	0.000013	0.000002	0.000000	0.000000
17.063803	20.006091	13.908434	-1.975603	1.546741	3.021077	0.000000	0.259108	0.000000	0.000014	0.000002	0.000000	0.000000
17.612863	21.870084	12.511457	-1.399179	1.012584	3.138276	0.000000	0.167173	0.000000	0.000015	0.000001	0.000000	0.000000
18.161923	23.042737	11.658238	-0.723924	0.550551	3.204107	0.000000	0.072273	0.000000	0.000015	0.000001	0.000000	0.000000
18.710983	23.441220	11.288006	0.002466	0.127732	3.217404	0.000000	-0.023909	0.000000	0.000016	0.000000	0.000000	0.000000
19.009556	23.480132	11.202214	-0.071555	0.130117	3.212775	0.000000	-0.015503	0.000000	0.000016	0.000000	0.000000	0.000000
19.342889	23.532592	11.125556	-0.085824	0.099857	3.207607	0.000000	-0.015503	0.000000	0.000016	0.000000	0.000000	0.000000
19.676223	23.594564	11.069071	-0.100093	0.069598	3.202439	0.000000	-0.015503	0.000000	0.000016	0.000000	0.000000	0.000000
20.010806	23.666629	11.032525	-0.231673	0.093886	3.197271	0.000000	0.000338	0.000000	0.000016	0.000000	0.000000	0.000000
20.308129	23.808328	10.984779	-0.307109	0.095396	3.197372	0.000000	0.008691	0.000000	0.000016	0.000000	0.000000	0.000000
20.857189	23.734937	11.102245	0.439985	-0.310600	3.175921	0.000000	-0.086710	0.000000	0.000016	-0.000000	0.000000	0.000000
21.406249	22.853427	11.675003	1.156000	-0.738719	3.102436	0.000000	-0.180573	0.000000	0.000016	-0.000001	0.000000	0.000000
21.955309	21.226065	12.743850	1.790361	-1.219456	2.978220	0.000000	-0.271233	0.000000	0.000016	-0.000001	0.000000	0.000000
22.504369	18.967798	14.384916	2.298259	-1.787051	2.805475	0.000000	-0.357082	0.000000	0.000015	-0.000002	0.000000	0.000000
22.950329	17.188095	15.858266	1.706549	-1.502783	2.663526	0.000000	-0.279865	0.000000	0.000014	-0.000001	0.000000	0.000000
23.391289	15.912364	17.032946	1.197503	-1.150993	2.556441	0.000000	-0.206291	0.000000	0.000014	-0.000001	0.000000	0.000000
23.832249	15.059840	17.873009	0.743168	-0.746835	2.481250	0.000000	-0.135067	0.000000	0.000014	-0.000000	0.000000	0.000000
24.273209	14.591573	18.340233	0.322785	-0.308696	2.437098	0.000000	-0.065380	0.000000	0.000013	-0.000000	0.000000	0.000000
24.715418	14.486290	18.413115	-0.047416	0.098271	2.423478	0.000000	-0.002381	0.000000	0.000013	0.000000	0.000000	0.000000
25.012741	14.520602	18.359526	-0.067987	0.081968	2.422770	0.000000	-0.002381	0.000000	0.000013	0.000000	0.000000	0.000000
25.346075	14.573614	18.310974	-0.091049	0.063690	2.421976	0.000000	-0.002381	0.000000	0.000014	0.000000	0.000000	0.000000
25.679408	14.642001	18.274607	-0.114111	0.045412	2.421182	0.000000	-0.002381	0.000000	0.000014	0.000000	0.000000	0.000000
26.013991	14.725806	18.250727	-0.017794	-0.120993	2.420361	0.000000	-0.022017	0.000000	0.000014	0.000000	0.000000	0.000000
26.311314	14.742393	18.327590	-0.001843	-0.182462	2.413815	0.000000	-0.027935	0.000000	0.000014	0.000000	0.000000	0.000000
26.752274	14.925655	18.289732	-0.415331	0.267989	2.416608	0.000000	0.040618	0.000000	0.000014	0.000000	0.000000	0.000000
27.193234	15.480538	17.858492	-0.847795	0.706245	2.449704	0.000000	0.109633	0.000000	0.000014	0.000001	0.000000	0.000000
27.634194	16.432393	17.053493	-1.318992	1.112369	2.513479	0.000000	0.179898	0.000000	0.000014	0.000001	0.000000	0.000000
28.075154	17.824709	15.911360	-1.850450	1.467880	2.608659	0.000000	0.252211	0.000000	0.000015	0.000001	0.000000	0.000000
28.521114	19.745285	14.466856	-2.471415	1.757516	2.737932	0.000000	0.327840	0.000000	0.000016	0.000002	0.000000	0.000000
29.070174	22.186348	12.857370	-1.948162	1.191133	2.895268	0.000000	0.244429	0.000000	0.000017	0.000001	0.000000	0.000000
29.619234	23.973391	11.819882	-1.287301	0.709592	3.005547	0.000000	0.156683	0.000000	0.000017	0.000001	0.000000	0.000000
30.168294	24.980184	11.280493	-0.535511	0.278593	3.066813	0.000000	0.066157	0.000000	0.000017	0.000000	0.000000	0.000000
30.717354	25.135613	11.200784	0.254105	-0.132562	3.077979	0.000000	-0.025542	0.000000	0.000017	-0.000000	0.000000	0.000000
31.015927	25.026759	11.270513	0.176140	-0.130242	3.072754	0.000000	-0.017501	0.000000	0.000017	-0.000000	0.000000	0.000000
31.349260	24.913910	11.367367	0.162407	-0.160319	3.066921	0.000000	-0.017501	0.000000	0.000017	-0.000000	0.000000	0.000000
31.682593	24.810216	11.484272	0.148675	-0.190396	3.061087	0.000000	-0.017501	0.000000	0.000017	-0.000000	0.000000	0.000000
32.017177	24.715340	11.621780	0.134891	-0.220587	3.055232	0.000000	-0.017501	0.000000	0.000017	-0.000000	0.000000	0.000000
32.314499	24.638769	11.760927	0.058275	-0.216690	3.050028	0.000000	-0.009533	0.000000	0.000017	-0.000000	0.000000	0.000000
32.863559	24.152646	12.238116	0.821857	-0.657541	3.019909	0.000000	-0.100019	0.000000	0.000017	-0.000001	0.000000	0.000000
33.412619	22.855088	13.222136	1.527387	-1.145227	2.940522	0.000000	-0.188731	0.000000	0.000016	-0.000001	0.000000	0.000000
33.961679	20.837749	14.783076	2.125030	-1.714486	2.813276	0.000000	-0.274096	0.000000	0.000015	-0.000002	0.000000	0.000000
34.510739	18.243123	17.032120	2.572572	-2.405863	2.640427	0.000000	-0.354599	0.000000	0.000014	-0.000002	0.000000	0.000000
34.956699	16.225718	19.043796	1.967372	-2.086190	2.498634	0.000000	-0.281662	0.000000	0.000013	-0.000002	0.000000	0.000000
35.397659	14.721383	20.707490	1.457068	-1.672343	2.389816	0.000000	-0.212361	0.000000	0.000012	-0.000002	0.000000	0.000000
35.838619	13.636151	21.971128	1.013334	-1.182405	2.310996	0.000000	-0.145478	0.000000	0.000012	-0.000001	0.000000	0.000000
36.279579	12.920440	22.777216	0.615896	-0.638669	2.261274	0.000000	-0.080253	0.000000	0.000011	-0.000001	0.000000	0.000000
36.721789	12.540860	23.089385	0.277241	-0.122544	2.240059	0.000000	-0.021434	0.000000	0.000011	-0.000001	0.000000	0.000000
37.019112	12.383590	23.166141	0.251711	-0.135614	2.233686	0.000000	-0.021434	0.000000	0.000011	-0.000001	0.000000	0.000000
37.352445	12.225324	23.261435	0.223088	-0.150268	2.226542	0.000000	-0.021434	0.000000	0.000010	-0.000001	0.000000	0.000000
37.685779	12.086140	23.366498	0.194465	-0.164921	2.219397	0.000000	-0.021434	0.000000	0.000010	-0.000001	0.000000	0.000000
38.020362	11.965623	23.481779	0.165735	-0.179630	2.212226	0.000000	-0.021434	0.000000	0.000010	-0.000001	0.000000	0.000000
38.317684	11.874660	23.592481	0.169322	-0.250551	2.205853	0.000000	-0.026843	0.000000	0.000010	-0.000001	0.000000	0.000000
38.758644	11.876735	23.552134	-0.174045	0.341701	2.207945	0.000000	0.036339	0.000000	0.000009	-0.000001	0.000000	0.000000
39.199604	12.183981	22.994355	-0.525364	0.918406	2.237962	0.000000	0.099936	0.000000	0.000009	-0.000000	0.000000	0.000000
39.640564	12.810435	21.944521	-0.900685	1.453324	2.296248	0.000000	0.164671	0.000000	0.000009	-0.000000	0.000000	0.000000
40.081524	13.784718	20.450401	-1.317156	1.922117	2.383464	0.000000	0.231281	0.000000	0.000009	0.000000	0.000000	0.000000
40.527484	15.168915	18.557404	-1.797630	2.304738	2.502077	0.000000	0.300931	0.000000	0.000009	0.000000	0.000000	0.000000
41.076544	16.935352	16.430165	-1.400526	1.592459	2.646774	0.000000	0.225367	0.000000	0.000010	0.000000	0.000000	0.000000
41.625604	18.208484	15.018591	-0.904496	0.993608	2.748822	0.000000	0.145805	0.000000	0.000010	-0.000000	0.000000	0.000000
42.174664	18.898384	14.222137	-0.344577	0.465530	2.806411	0.000000	0.063657	0.000000	0.000009	-0.000000	0.000000	0.000000
42.723724	18.956321	13.984076	0.239682	-0.029390	2.818519	0.000000	-0.019619	0.000000	0.000009	-0.000001	0.000000	0.000000
43.022297	18.847643	13.986184	0.173836	-0.014207	2.814860	0.000000	-0.012256	0.000000	0.000009	-0.000001	0.000000	0.000000
43.502297	18.693354	14.016299	0.147599	-0.048533	2.808978	0.000000	-0.012256	0.000000	0.000008	-0.000001	0.000000	0.000000
43.982297	18.564253	14.079368	0.121362	-0.082860	2.803095	0.000000	-0.012256	0.000000	0.000008	-0.000001	0.000000	0.000000
44.462297	18.460339	14.175390	0.095125	-0.117186	2.797213	0.000000	-0.012256	0.000000	0.000008	-0.000001	0.000000	0.000000
44.942297	18.381613	14.304366	0.068888	-0.151513	2.791331	0.000000	-0.012256	0.000000	0.000007	-0.000001	0.000000	0.000000
45.423547	18.328194	14.466581	-0.048225	-0.114252	2.785450	0.000000	0.001545	0.000000	0.000007	-0.000001	0.000000	0.000000
45.720870	18.361706	14.540711	-0.112458	-0.097083	2.785910	0.000000	0.008824	0.000000	0.000007	-0.000001	0.000000	0.000000
46.269930	18.176023	14.928558	0.448640	-0.613471	2.768182	0.000000	-0.073306	0.000000	0.000006	-0.000001	0.000000	0.000000
46.818990	17.388020	15.903986	0.978048	-1.173556	2.705651	0.000000	-0.154134	0.000000	0.000006	-0.000001	0.000000	0.000000
47.368050	16.053359	17.536471	1.438372	-1.817230	2.599427	0.000000	-0.232230	0.000000	0.000005	-0.000001	0.000000	0.000000
47.917110	14.266313	19.942291	1.797097	-2.590341	2.451393	0.000000	-0.306205	0.000000	0.000004	-0.000001	0.000000	0.000000
48.363070	12.875629	22.081285	1.332356	-2.185875	2.330131	0.000000	-0.237905	0.000000	0.000004	-0.000001	0.000000	0.000000
48.804030	11.880800	23.793921	0.932255	-1.683226	2.239685	0.000000	-0.172711	0.000000	0.000003	-0.000001	0.000000	0.000000
49.244990	11.218784	25.027667	0.574747	-1.103992	2.177526	0.000000	-0.109485	0.000000	0.000003	-0.000001	0.000000	0.000000
49.685950	10.859335	25.726390	0.243497	-0.474526	2.142946	0.000000	-0.047505	0.000000	0.000002	-0.000001	0.000000	0.000000
50.128160	10.786157	25.858013	-0.050295	0.113070	2.135563	0.000000	0.008697	0.000000	0.000002	-0.000001	0.000000	0.000000
50.425482	10.824281	25.794239	-0.077930	0.101425	2.138149	0.000000	0.008697	0.000000	0.000001	-0.000001	0.000000	0.000000
50.758816	10.886561	25.730975	-0.108912	0.088369	2.141049	0.000000	0.008697	0.000000	0.000001	-0.000001	0.000000	0.000000
51.092149	10.969497	25.676414	-0.139894	0.075313	2.143948	0.000000	0.008697	0.000000	0.000001	-0.000001	0.000000	0.000000
51.426732	11.073289	25.630922	-0.081158	-0.145722	2.146836	0.000000	-0.008719	0.000000	0.000000	-0.000001	0.000000	0.000000
51.724055	11.129585	25.721097	-0.080892	-0.220645	2.144244	0.000000	-0.013978	0.000000	-0.000000	-0.000001	0.000000	0.000000
52.165015	11.346240	25.629534	-0.412296	0.427498	2.151670	0.000000	0.047685	0.000000	-0.000001	-0.000001	0.000000	0.000000
52.605975	11.862336	24.972789	-0.762537	1.056190	2.186380	0.000000	0.109892	0.000000	-0.000001	-0.000001	0.000000	0.000000
53.046935	12.701453	23.780740	-1.147616	1.636826	2.248770	0.000000	0.173350	0.000000	-0.000001	-0.000001	0.000000	0.000000
53.487895	13.901928	22.107628	-1.585125	2.142987	2.339551	0.000000	0.238782	0.000000	-0.000002	-0.000001	0.000000	0.000000
53.933855	15.539186	20.004559	-2.099286	2.552981	2.461261	0.000000	0.307333	0.000000	-0.000003	-0.000001	0.000000	0.000000
54.482915	17.647104	17.638081	-1.717129	1.782513	2.609825	0.000000	0.233028	0.000000	-0.000003	-0.000001	0.000000	0.000000
55.031975	19.265877	16.043403	-1.213683	1.139009	2.716396	0.000000	0.154591	0.000000	-0.000004	-0.000001	0.000000	0.000000
55.581035	20.281164	15.106940	-0.624508	0.576634	2.779082	0.000000	0.073411	0.000000	-0.000004	-0.000001	0.000000	0.000000
56.130095	20.621250	14.761988	0.008778	0.055332	2.796772	0.000000	-0.009071	0.000000	-0.000005	-0.000001	0.000000	0.000000
56.428668	20.652515	14.712006	-0.059612	0.073500	2.796246	0.000000	-0.001763	0.000000	-0.000005	-0.000001	0.000000	0.000000
56.762001	20.697656	14.670599	-0.075809	0.050720	2.795658	0.000000	-0.001763	0.000000	-0.000005	-0.000001	0.000000	0.000000
57.095334	20.753594	14.644379	-0.092007	0.027941	2.795071	0.000000	-0.001763	0.000000	-0.000005	-0.000001	0.000000	0.000000
57.429918	20.820602	14.633332	-0.108265	0.005076	2.794481	0.000000	-0.001763	0.000000	-0.000006	-0.000001	0.000000	0.000000
57.727240	20.889277	14.636355	-0.177295	0.023001	2.793957	0.000000	0.005538	0.000000	-0.000006	-0.000001	0.000000	0.000000
58.276300	20.727587	14.892157	0.470035	-0.491641	2.774359	0.000000	-0.076822	0.000000	-0.000006	-0.000001	0.000000	0.000000
58.825360	19.869156	15.728895	1.084165	-1.041302	2.709848	0.000000	-0.157819	0.000000	-0.000007	-0.000000	0.000000	0.000000
59.374420	18.374619	17.206169	1.621715	-1.665132	2.601569	0.000000	-0.236017	0.000000	-0.000007	-0.000000	0.000000	0.000000
59.923480	16.349542	19.429202	2.044714	-2.407565	2.451443	0.000000	-0.310028	0.000000	-0.000007	0.000000	0.000000	0.000000
60.369440	14.764521	21.405061	1.522050	-2.004308	2.328472	0.000000	-0.241749	0.000000	-0.000007	-0.000000	0.000000	0.000000
60.810400	13.624477	22.961195	1.073128	-1.511231	2.236318	0.000000	-0.176620	0.000000	-0.000007	-0.000000	0.000000	0.000000
61.251360	12.857311	24.050376	0.673234	-0.949393	2.172413	0.000000	-0.113502	0.000000	-0.000007	-0.000000	0.000000	0.000000
61.692320	12.427975	24.623048	0.304099	-0.344359	2.136029	0.000000	-0.051678	0.000000	-0.000007	-0.000001	0.000000	0.000000
62.134530	12.316905	24.652616	-0.021038	0.215829	2.126757	0.000000	0.004343	0.000000	-0.000008	-0.000001	0.000000	0.000000
62.431853	12.336596	24.528027	-0.045188	0.203207	2.128048	0.000000	0.004343	0.000000	-0.000008	-0.000001	0.000000	0.000000
62.765186	12.375746	24.397273	-0.072263	0.189056	2.129496	0.000000	0.004343	0.000000	-0.000008	-0.000001	0.000000	0.000000
63.098520	12.432947	24.275953	-0.099338	0.174904	2.130944	0.000000	0.004343	0.000000	-0.000008	-0.000001	0.000000	0.000000
63.433103	12.508513	24.163665	-0.126515	0.160700	2.132397	0.000000	0.004343	0.000000	-0.000009	-0.000001	0.000000	0.000000
63.730426	12.590925	24.071859	-0.119785	0.089041	2.133689	0.000000	-0.000890	0.000000	-0.000009	-0.000001	0.000000	0.000000
64.171386	12.856904	23.728226	-0.485685	0.687276	2.146836	0.000000	0.060575	0.000000	-0.000009	-0.000001	0.000000	0.000000
64.612346	13.454105	22.868825	-0.873774	1.254240	2.187213	0.000000	0.122729	0.000000	-0.000010	-0.000001	0.000000	0.000000
65.053306	14.409812	21.532757	-1.301783	1.764137	2.255279	0.000000	0.186282	0.000000	-0.000010	-0.000002	0.000000	0.000000
65.494266	15.767689	19.780812	-1.789267	2.193768	2.351811	0.000000	0.251956	0.000000	-0.000011	-0.000002	0.000000	0.000000
65.940226	17.612937	17.667912	-2.363189	2.524337	2.479479	0.000000	0.320902	0.000000	-0.000012	-0.000002	0.000000	0.000000
66.489286	19.978370	15.304228	-1.919461	1.806039	2.635310	0.000000	0.245889	0.000000	-0.000013	-0.000002	0.000000	0.000000
67.038346	21.778749	13.654476	-1.340152	1.216381	2.748696	0.000000	0.166516	0.000000	-0.000014	-0.000001	0.000000	0.000000
67.587406	22.886906	12.601149	-0.666182	0.713363	2.817623	0.000000	0.084189	0.000000	-0.000014	-0.000001	0.000000	0.000000
68.136466	23.224566	12.069219	0.054844	0.261156	2.840871	0.000000	0.000368	0.000000	-0.000015	-0.000000	0.000000	0.000000
68.435038	23.231894	11.902457	-0.018701	0.265837	2.843198	0.000000	0.007792	0.000000	-0.000015	-0.000000	0.000000	0.000000
68.768372	23.249146	11.735227	-0.033054	0.235853	2.845795	0.000000	0.007792	0.000000	-0.000015	-0.000000	0.000000	0.000000
69.101705	23.275967	11.587986	-0.047407	0.205868	2.848392	0.000000	0.007792	0.000000	-0.000015	-0.000000	0.000000	0.000000
69.436288	23.312510	11.460296	-0.061814	0.175771	2.850999	0.000000	0.007792	0.000000	-0.000015	-0.000000	0.000000	0.000000
69.733611	23.353074	11.363727	-0.135642	0.178721	2.853316	0.000000	0.015248	0.000000	-0.000015	-0.000000	0.000000	0.000000
70.282671	23.100949	11.395038	0.592118	-0.236085	2.838507	0.000000	-0.069113	0.000000	-0.000015	0.000000	0.000000	0.000000
