#ParticleID	Turn	x[m]	xp	y[m]	yp	z[m]	dE[GeV]# s	beta_x	beta_y	alpha_x	alpha_y	D_x	D_y	D_px	D_py	orbit_x	orbit_px	orbit_y	orbit_py
0.300000	11.818057	25.000733	-0.011556	-0.027434	2.618102	0.000000	0.000016	0.000000	-0.000000	0.000001	0.000000	0.000000
0.601250	11.832699	25.020895	-0.037050	-0.039493	2.618107	0.000000	0.000016	0.000000	0.000000	0.000001	0.000000	0.000000
0.898573	11.862212	25.047918	-0.033122	-0.112819	2.618111	0.000000	-0.006404	0.000000	0.000000	0.000001	0.000000	0.000000
1.339533	12.043605	24.869576	-0.379798	0.515721	2.631580	0.000000	0.067553	0.000000	0.000001	0.000001	0.000000	0.000000
1.780493	12.537206	24.145181	-0.743825	1.120795	2.677800	0.000000	0.142280	0.000000	0.000001	0.000001	0.000000	0.000000
2.221453	13.365564	22.907694	-1.141836	1.674874	2.757297	0.000000	0.218627	0.000000	0.000001	0.000001	0.000000	0.000000
2.662413	14.566527	21.213418	-1.592014	2.152748	2.870976	0.000000	0.297464	0.000000	0.000002	0.000001	0.000000	0.000000
3.108373	16.215722	19.114595	-2.119218	2.533805	3.021994	0.000000	0.380179	0.000000	0.000002	0.000001	0.000000	0.000000
3.657433	18.330527	16.757335	-1.709665	1.784802	3.205462	0.000000	0.287141	0.000000	0.000003	0.000001	0.000000	0.000000
4.206493	19.926215	15.148353	-1.179349	1.162926	3.336372	0.000000	0.189009	0.000000	0.000003	0.000001	0.000000	0.000000
4.755553	20.890073	14.173045	-0.565730	0.623883	3.412401	0.000000	0.087526	0.000000	0.000003	0.000001	0.000000	0.000000
5.304613	21.154021	13.761941	0.087850	0.129277	3.432200	0.000000	-0.015511	0.000000	0.000004	0.000001	0.000000	0.000000
5.603185	21.138784	13.669928	0.018451	0.142945	3.430246	0.000000	-0.006543	0.000000	0.000004	0.000001	0.000000	0.000000
5.936519	21.131742	13.582925	0.002677	0.118063	3.428065	0.000000	-0.006543	0.000000	0.000004	0.000001	0.000000	0.000000
6.269852	21.135215	13.512511	-0.013097	0.093180	3.425884	0.000000	-0.006543	0.000000	0.000004	0.000001	0.000000	0.000000
6.604435	21.149277	13.458514	-0.028931	0.068204	3.423695	0.000000	-0.006543	0.000000	0.000004	0.000001	0.000000	0.000000
6.901758	21.170664	13.424556	-0.098314	0.081084	3.421749	0.000000	0.002397	0.000000	0.000005	0.000001	0.000000	0.000000
7.450818	20.917795	13.596250	0.556138	-0.395635	3.394863	0.000000	-0.100186	0.000000	0.000005	0.000000	0.000000	0.000000
7.999878	19.963676	14.303748	1.171307	-0.900534	3.312059	0.000000	-0.200992	0.000000	0.000005	0.000000	0.000000	0.000000
8.548938	18.375702	15.597445	1.703740	-1.469577	3.174805	0.000000	-0.298232	0.000000	0.000005	0.000000	0.000000	0.000000
9.097998	16.266041	17.569487	2.115830	-2.143294	2.985536	0.000000	-0.390183	0.000000	0.000005	-0.000000	0.000000	0.000000
9.543958	14.620089	19.326693	1.588097	-1.780328	2.829837	0.000000	-0.308475	0.000000	0.000005	0.000000	0.000000	0.000000
9.984918	13.422879	20.706822	1.137211	-1.337591	2.711058	0.000000	-0.230764	0.000000	0.000005	0.000000	0.000000	0.000000
10.425878	12.598989	21.668063	0.738280	-0.833995	2.625936	0.000000	-0.155681	0.000000	0.000005	0.000000	0.000000	0.000000
10.866838	12.110776	22.166679	0.373079	-0.292453	2.573499	0.000000	-0.082372	0.000000	0.000005	0.000000	0.000000	0.000000
11.309048	11.935801	22.179464	0.054087	0.207948	2.553132	0.000000	-0.016261	0.000000	0.000006	0.000001	0.000000	0.000000
11.606371	11.911066	22.059966	0.029104	0.193963	2.548297	0.000000	-0.016261	0.000000	0.000006	0.000001	0.000000	0.000000
12.086371	11.902485	21.884599	-0.011229	0.171385	2.540491	0.000000	-0.016261	0.000000	0.000006	0.000001	0.000000	0.000000
12.566371	11.932625	21.730906	-0.051561	0.148808	2.532685	0.000000	-0.016261	0.000000	0.000006	0.000001	0.000000	0.000000
13.046371	12.001483	21.598888	-0.091894	0.126230	2.524879	0.000000	-0.016261	0.000000	0.000007	0.000001	0.000000	0.000000
13.526371	12.109061	21.488544	-0.132227	0.103653	2.517074	0.000000	-0.016261	0.000000	0.000007	0.000001	0.000000	0.000000
14.007621	12.255790	21.399672	-0.172665	0.081017	2.509248	0.000000	-0.016261	0.000000	0.000007	0.000001	0.000000	0.000000
14.304943	12.365893	21.355654	-0.167325	0.014665	2.504413	0.000000	-0.022403	0.000000	0.000007	0.000001	0.000000	0.000000
14.745903	12.672048	21.108974	-0.529601	0.542620	2.510166	0.000000	0.048524	0.000000	0.000008	0.000001	0.000000	0.000000
15.186863	13.307124	20.405831	-0.916074	1.045886	2.547287	0.000000	0.120003	0.000000	0.000008	0.000001	0.000000	0.000000
15.627823	14.300135	19.278215	-1.344399	1.501565	2.616199	0.000000	0.192850	0.000000	0.000008	0.000001	0.000000	0.000000
16.068783	15.696449	17.777434	-1.834146	1.888925	2.717686	0.000000	0.267892	0.000000	0.000009	0.000001	0.000000	0.000000
16.514743	17.583516	15.950267	-2.412447	2.191085	2.854600	0.000000	0.346448	0.000000	0.000010	0.000002	0.000000	0.000000
17.063803	20.007120	13.910029	-1.975518	1.546723	3.021088	0.000000	0.259109	0.000000	0.000011	0.000001	0.000000	0.000000
17.612863	21.870994	12.513091	-1.399049	1.012531	3.138287	0.000000	0.167174	0.000000	0.000011	0.000001	0.000000	0.000000
18.161923	23.043483	11.659951	-0.723757	0.550459	3.204119	0.000000	0.072273	0.000000	0.000012	0.000001	0.000000	0.000000
18.710983	23.441767	11.289844	0.002657	0.127595	3.217415	0.000000	-0.023909	0.000000	0.000012	0.000000	0.000000	0.000000
19.009556	23.480567	11.204129	-0.071366	0.129991	3.212787	0.000000	-0.015503	0.000000	0.000012	0.000000	0.000000	0.000000
19.342889	23.532901	11.127553	-0.085634	0.099738	3.207619	0.000000	-0.015503	0.000000	0.000012	0.000000	0.000000	0.000000
19.676223	23.594747	11.071146	-0.099903	0.069484	3.202451	0.000000	-0.015503	0.000000	0.000012	0.000000	0.000000	0.000000
20.010806	23.666683	11.034673	-0.231483	0.093790	3.197283	0.000000	0.000338	0.000000	0.000012	0.000000	0.000000	0.000000
20.308129	23.808269	10.986983	-0.306919	0.095312	3.197384	0.000000	0.008691	0.000000	0.000012	0.000000	0.000000	0.000000
20.857189	23.734672	11.104576	0.440168	-0.310748	3.175934	0.000000	-0.086710	0.000000	0.000012	-0.000000	0.000000	0.000000
21.406249	22.852970	11.677536	1.156164	-0.738941	3.102448	0.000000	-0.180573	0.000000	0.000012	-0.000000	0.000000	0.000000
21.955309	21.225442	12.746675	1.790495	-1.219768	2.978231	0.000000	-0.271233	0.000000	0.000012	-0.000001	0.000000	0.000000
22.504369	18.967050	14.388144	2.298353	-1.787477	2.805486	0.000000	-0.357083	0.000000	0.000011	-0.000001	0.000000	0.000000
22.950329	17.187262	15.861841	1.706649	-1.503132	2.663537	0.000000	-0.279866	0.000000	0.000011	-0.000001	0.000000	0.000000
23.391289	15.911438	17.036789	1.197613	-1.151252	2.556451	0.000000	-0.206292	0.000000	0.000010	-0.000001	0.000000	0.000000
23.832249	15.058810	17.877036	0.743293	-0.746990	2.481260	0.000000	-0.135067	0.000000	0.000010	-0.000000	0.000000	0.000000
24.273209	14.590425	18.344350	0.322932	-0.308742	2.437108	0.000000	-0.065380	0.000000	0.000010	-0.000000	0.000000	0.000000
24.715418	14.485000	18.417223	-0.047244	0.098326	2.423488	0.000000	-0.002381	0.000000	0.000010	0.000000	0.000000	0.000000
25.012741	14.519210	18.363600	-0.067817	0.082026	2.422780	0.000000	-0.002381	0.000000	0.000010	0.000000	0.000000	0.000000
25.346075	14.572109	18.315008	-0.090880	0.063752	2.421986	0.000000	-0.002381	0.000000	0.000010	0.000000	0.000000	0.000000
25.679408	14.640384	18.278598	-0.113944	0.045478	2.421192	0.000000	-0.002381	0.000000	0.000010	0.000000	0.000000	0.000000
26.013991	14.724078	18.254673	-0.017643	-0.120956	2.420371	0.000000	-0.022017	0.000000	0.000010	0.000000	0.000000	0.000000
26.311314	14.740575	18.331512	-0.001697	-0.182431	2.413825	0.000000	-0.027935	0.000000	0.000010	-0.000000	0.000000	0.000000
26.752274	14.923688	18.293581	-0.415138	0.268124	2.416619	0.000000	0.040618	0.000000	0.000010	0.000000	0.000000	0.000000
27.193234	15.478378	17.862177	-0.847546	0.706481	2.449714	0.000000	0.109634	0.000000	0.000010	0.000001	0.000000	0.000000
27.634194	16.429985	17.056930	-1.318676	1.112693	2.513489	0.000000	0.179898	0.000000	0.000011	0.000001	0.000000	0.000000
28.075154	17.821987	15.914477	-1.850052	1.468278	2.608670	0.000000	0.252211	0.000000	0.000011	0.000001	0.000000	0.000000
28.521114	19.742165	14.469592	-2.470917	1.757970	2.737944	0.000000	0.327841	0.000000	0.000012	0.000001	0.000000	0.000000
29.070174	22.182723	12.859668	-1.947744	1.191483	2.895280	0.000000	0.244430	0.000000	0.000012	0.000001	0.000000	0.000000
29.619234	23.969365	11.821842	-1.286993	0.709861	3.005559	0.000000	0.156683	0.000000	0.000013	0.000001	0.000000	0.000000
30.168294	24.975891	11.282191	-0.535335	0.278802	3.066826	0.000000	0.066157	0.000000	0.000013	0.000000	0.000000	0.000000
30.717354	25.131206	11.202279	0.254136	-0.132399	3.077992	0.000000	-0.025542	0.000000	0.000013	-0.000000	0.000000	0.000000
31.015927	25.022330	11.271906	0.176177	-0.130069	3.072767	0.000000	-0.017501	0.000000	0.000013	-0.000000	0.000000	0.000000
31.349260	24.909456	11.368643	0.162442	-0.160141	3.066933	0.000000	-0.017501	0.000000	0.000013	-0.000000	0.000000	0.000000
31.682593	24.805740	11.485427	0.148707	-0.190213	3.061100	0.000000	-0.017501	0.000000	0.000013	-0.000000	0.000000	0.000000
32.017177	24.710843	11.622811	0.134921	-0.220398	3.055244	0.000000	-0.017501	0.000000	0.000013	-0.000000	0.000000	0.000000
32.314499	24.634255	11.761845	0.058312	-0.216494	3.050041	0.000000	-0.009533	0.000000	0.000012	-0.000000	0.000000	0.000000
32.863559	24.148174	12.238828	0.821744	-0.657360	3.019921	0.000000	-0.100019	0.000000	0.000012	-0.000001	0.000000	0.000000
33.412619	22.850820	13.222651	1.527132	-1.145048	2.940534	0.000000	-0.188732	0.000000	0.000012	-0.000001	0.000000	0.000000
33.961679	20.833831	14.783391	2.124652	-1.714296	2.813287	0.000000	-0.274097	0.000000	0.000011	-0.000001	0.000000	0.000000
34.510739	18.239677	17.032214	2.572096	-2.405649	2.640437	0.000000	-0.354600	0.000000	0.000010	-0.000002	0.000000	0.000000
34.956699	16.222648	19.043687	1.967001	-2.085951	2.498644	0.000000	-0.281663	0.000000	0.000010	-0.000001	0.000000	0.000000
35.397659	14.718602	20.707163	1.456783	-1.672090	2.389826	0.000000	-0.212362	0.000000	0.000009	-0.000001	0.000000	0.000000
35.838619	13.633589	21.970577	1.013121	-1.182150	2.311004	0.000000	-0.145479	0.000000	0.000009	-0.000001	0.000000	0.000000
36.279579	12.918038	22.776444	0.615747	-0.638423	2.261283	0.000000	-0.080253	0.000000	0.000008	-0.000001	0.000000	0.000000
36.721789	12.538563	23.088403	0.277144	-0.122318	2.240067	0.000000	-0.021435	0.000000	0.000008	-0.000001	0.000000	0.000000
37.019112	12.381353	23.165024	0.251610	-0.135388	2.233694	0.000000	-0.021435	0.000000	0.000008	-0.000001	0.000000	0.000000
37.352445	12.223155	23.260167	0.222984	-0.150041	2.226549	0.000000	-0.021435	0.000000	0.000008	-0.000001	0.000000	0.000000
37.685779	12.084041	23.365079	0.194357	-0.164694	2.219405	0.000000	-0.021435	0.000000	0.000007	-0.000001	0.000000	0.000000
38.020362	11.963598	23.480208	0.165623	-0.179403	2.212233	0.000000	-0.021435	0.000000	0.000007	-0.000001	0.000000	0.000000
38.317684	11.872703	23.590775	0.169202	-0.250321	2.205860	0.000000	-0.026844	0.000000	0.000007	-0.000001	0.000000	0.000000
38.758644	11.874864	23.550246	-0.174121	0.341883	2.207952	0.000000	0.036339	0.000000	0.000007	-0.000000	0.000000	0.000000
39.199604	12.182159	22.992331	-0.525400	0.918531	2.237969	0.000000	0.099936	0.000000	0.000007	-0.000000	0.000000	0.000000
39.640564	12.808628	21.942415	-0.900683	1.453387	2.296254	0.000000	0.164671	0.000000	0.000007	-0.000000	0.000000	0.000000
40.081524	13.782892	20.448268	-1.317115	1.922115	2.383471	0.000000	0.231281	0.000000	0.000007	0.000000	0.000000	0.000000
40.527484	15.167036	18.555302	-1.797549	2.304670	2.502084	0.000000	0.300931	0.000000	0.000007	0.000000	0.000000	0.000000
41.076544	16.933423	16.428109	-1.400517	1.592445	2.646782	0.000000	0.225367	0.000000	0.000007	0.000000	0.000000	0.000000
41.625604	18.206584	15.016520	-0.904559	0.993648	2.748830	0.000000	0.145805	0.000000	0.000007	-0.000000	0.000000	0.000000
42.174664	18.896590	14.219994	-0.344707	0.465625	2.806418	0.000000	0.063657	0.000000	0.000006	-0.000000	0.000000	0.000000
42.723724	18.954703	13.981794	0.239493	-0.029232	2.818526	0.000000	-0.019620	0.000000	0.000006	-0.000001	0.000000	0.000000
43.022297	18.846136	13.983813	0.173650	-0.014058	2.814867	0.000000	-0.012256	0.000000	0.000006	-0.000001	0.000000	0.000000
43.502297	18.692026	14.013787	0.147413	-0.048390	2.808984	0.000000	-0.012256	0.000000	0.000006	-0.000001	0.000000	0.000000
43.982297	18.563104	14.076721	0.121175	-0.082722	2.803101	0.000000	-0.012256	0.000000	0.000005	-0.000001	0.000000	0.000000
44.462297	18.459370	14.172614	0.094938	-0.117054	2.797219	0.000000	-0.012256	0.000000	0.000005	-0.000001	0.000000	0.000000
44.942297	18.380823	14.301465	0.068700	-0.151386	2.791336	0.000000	-0.012256	0.000000	0.000005	-0.000001	0.000000	0.000000
45.423547	18.327586	14.463561	-0.048410	-0.114147	2.785455	0.000000	0.001545	0.000000	0.000005	-0.000001	0.000000	0.000000
45.720870	18.361208	14.537629	-0.112644	-0.096989	2.785915	0.000000	0.008824	0.000000	0.000005	-0.000001	0.000000	0.000000
46.269930	18.175736	14.925321	0.448443	-0.613280	2.768187	0.000000	-0.073306	0.000000	0.000004	-0.000001	0.000000	0.000000
46.818990	17.387949	15.900480	0.977854	-1.173255	2.705656	0.000000	-0.154135	0.000000	0.000004	-0.000001	0.000000	0.000000
47.368050	16.053494	17.532564	1.438194	-1.816797	2.599431	0.000000	-0.232230	0.000000	0.000003	-0.000001	0.000000	0.000000
47.917110	14.266630	19.937824	1.796947	-2.589747	2.451397	0.000000	-0.306206	0.000000	0.000003	-0.000001	0.000000	0.000000
48.363070	12.876075	22.076329	1.332214	-2.185379	2.330134	0.000000	-0.237906	0.000000	0.000002	-0.000001	0.000000	0.000000
48.804030	11.881370	23.788580	0.932115	-1.682852	2.239687	0.000000	-0.172712	0.000000	0.000002	-0.000001	0.000000	0.000000
49.244990	11.219479	25.022057	0.574602	-1.103756	2.177528	0.000000	-0.109485	0.000000	0.000002	-0.000001	0.000000	0.000000
49.685950	10.860162	25.720636	0.243340	-0.474440	2.142948	0.000000	-0.047505	0.000000	0.000001	-0.000001	0.000000	0.000000
50.128160	10.787130	25.852251	-0.050467	0.113017	2.135565	0.000000	0.008697	0.000000	0.000001	-0.000001	0.000000	0.000000
50.425482	10.825355	25.788509	-0.078100	0.101369	2.138151	0.000000	0.008697	0.000000	0.000001	-0.000001	0.000000	0.000000
50.758816	10.887749	25.725282	-0.109080	0.088311	2.141050	0.000000	0.008697	0.000000	0.000000	-0.000001	0.000000	0.000000
51.092149	10.970795	25.670761	-0.140059	0.075252	2.143949	0.000000	0.008697	0.000000	0.000000	-0.000001	0.000000	0.000000
51.426732	11.074698	25.625310	-0.081310	-0.145740	2.146837	0.000000	-0.008720	0.000000	-0.000000	-0.000001	0.000000	0.000000
51.724055	11.131083	25.715497	-0.081038	-0.220652	2.144245	0.000000	-0.013978	0.000000	-0.000000	-0.000001	0.000000	0.000000
52.165015	11.347882	25.624006	-0.412480	0.427343	2.151669	0.000000	0.047685	0.000000	-0.000001	-0.000001	0.000000	0.000000
52.605975	11.864160	24.967460	-0.762766	1.055894	2.186379	0.000000	0.109891	0.000000	-0.000001	-0.000001	0.000000	0.000000
53.046935	12.703504	23.775730	-1.147902	1.636403	2.248769	0.000000	0.173349	0.000000	-0.000002	-0.000001	0.000000	0.000000
53.487895	13.904261	22.103039	-1.585481	2.142457	2.339549	0.000000	0.238781	0.000000	-0.000002	-0.000001	0.000000	0.000000
53.933855	15.541873	20.000483	-2.099728	2.552367	2.461259	0.000000	0.307332	0.000000	-0.000002	-0.000001	0.000000	0.000000
54.482915	17.650242	17.634591	-1.717502	1.782054	2.609823	0.000000	0.233028	0.000000	-0.000003	-0.000001	0.000000	0.000000
55.031975	19.269375	16.040347	-1.213960	1.138673	2.716393	0.000000	0.154590	0.000000	-0.000003	-0.000001	0.000000	0.000000
55.581035	20.284905	15.104196	-0.624671	0.576398	2.779079	0.000000	0.073411	0.000000	-0.000004	-0.000001	0.000000	0.000000
56.130095	20.625100	14.759459	0.008743	0.055177	2.796769	0.000000	-0.009071	0.000000	-0.000004	-0.000001	0.000000	0.000000
56.428668	20.656392	14.709574	-0.059654	0.073336	2.796242	0.000000	-0.001763	0.000000	-0.000004	-0.000001	0.000000	0.000000
56.762001	20.701559	14.668278	-0.075849	0.050553	2.795655	0.000000	-0.001763	0.000000	-0.000004	-0.000001	0.000000	0.000000
57.095334	20.757523	14.642170	-0.092043	0.027770	2.795067	0.000000	-0.001763	0.000000	-0.000005	-0.000001	0.000000	0.000000
57.429918	20.824555	14.631239	-0.108299	0.004902	2.794478	0.000000	-0.001763	0.000000	-0.000005	-0.000001	0.000000	0.000000
57.727240	20.893249	14.634366	-0.177336	0.022818	2.793953	0.000000	0.005537	0.000000	-0.000005	-0.000001	0.000000	0.000000
58.276300	20.731531	14.890338	0.470128	-0.491770	2.774355	0.000000	-0.076822	0.000000	-0.000005	-0.000000	0.000000	0.000000
58.825360	19.872928	15.727193	1.084384	-1.041386	2.709844	0.000000	-0.157819	0.000000	-0.000005	-0.000000	0.000000	0.000000
59.374420	18.378088	17.204539	1.622045	-1.665178	2.601565	0.000000	-0.236017	0.000000	-0.000005	-0.000000	0.000000	0.000000
59.923480	16.352598	19.427603	2.045132	-2.407577	2.451438	0.000000	-0.310028	0.000000	-0.000005	0.000000	0.000000	0.000000
60.369440	14.767246	21.403497	1.522377	-2.004374	2.328468	0.000000	-0.241749	0.000000	-0.000005	-0.000000	0.000000	0.000000
60.810400	13.626947	22.959712	1.073380	-1.511349	2.236313	0.000000	-0.176620	0.000000	-0.000005	-0.000000	0.000000	0.000000
61.251360	12.859587	24.049018	0.673423	-0.949557	2.172408	0.000000	-0.113503	0.000000	-0.000006	-0.000000	0.000000	0.000000
61.692320	12.430109	24.621853	0.304233	-0.344562	2.136024	0.000000	-0.051678	0.000000	-0.000006	-0.000000	0.000000	0.000000
62.134530	12.318943	24.651614	-0.020948	0.215600	2.126752	0.000000	0.004342	0.000000	-0.000006	-0.000001	0.000000	0.000000
62.431853	12.338579	24.527161	-0.045094	0.202978	2.128043	0.000000	0.004342	0.000000	-0.000006	-0.000001	0.000000	0.000000
62.765186	12.377665	24.396559	-0.072164	0.188828	2.129491	0.000000	0.004342	0.000000	-0.000006	-0.000001	0.000000	0.000000
63.098520	12.434798	24.275391	-0.099235	0.174677	2.130938	0.000000	0.004342	0.000000	-0.000007	-0.000001	0.000000	0.000000
63.433103	12.510294	24.163255	-0.126407	0.160474	2.132391	0.000000	0.004342	0.000000	-0.000007	-0.000001	0.000000	0.000000
63.730426	12.592640	24.071582	-0.119670	0.088818	2.133683	0.000000	-0.000891	0.000000	-0.000007	-0.000001	0.000000	0.000000
64.171386	12.858533	23.728148	-0.485605	0.687051	2.146829	0.000000	0.060574	0.000000	-0.000007	-0.000001	0.000000	0.000000
64.612346	13.455679	22.868942	-0.873727	1.254024	2.187206	0.000000	0.122729	0.000000	-0.000008	-0.000001	0.000000	0.000000
65.053306	14.411358	21.533058	-1.301766	1.763940	2.255272	0.000000	0.186281	0.000000	-0.000008	-0.000001	0.000000	0.000000
65.494266	15.769234	19.781276	-1.789280	2.193598	2.351803	0.000000	0.251955	0.000000	-0.000009	-0.000001	0.000000	0.000000
65.940226	17.614507	17.668512	-2.363232	2.524203	2.479470	0.000000	0.320900	0.000000	-0.000009	-0.000002	0.000000	0.000000
66.489286	19.979953	15.304972	-1.919441	1.805910	2.635301	0.000000	0.245889	0.000000	-0.000010	-0.000001	0.000000	0.000000
67.038346	21.780276	13.655364	-1.340070	1.216247	2.748686	0.000000	0.166515	0.000000	-0.000011	-0.000001	0.000000	0.000000
67.587406	22.888311	12.602191	-0.666043	0.713215	2.817613	0.000000	0.084188	0.000000	-0.000011	-0.000001	0.000000	0.000000
68.136466	23.225792	12.070436	0.055030	0.260984	2.840861	0.000000	0.000368	0.000000	-0.000011	-0.000000	0.000000	0.000000
68.435038	23.233010	11.903774	-0.018517	0.265672	2.843187	0.000000	0.007791	0.000000	-0.000011	-0.000000	0.000000	0.000000
68.768372	23.250139	11.736652	-0.032869	0.235693	2.845784	0.000000	0.007791	0.000000	-0.000011	-0.000000	0.000000	0.000000
69.101705	23.276836	11.589516	-0.047221	0.205715	2.848382	0.000000	0.007791	0.000000	-0.000012	-0.000000	0.000000	0.000000
69.436288	23.313255	11.461926	-0.061627	0.175623	2.850989	0.000000	0.007791	0.000000	-0.000012	-0.000000	0.000000	0.000000
69.733611	23.353707	11.365443	-0.135454	0.178582	2.853305	0.000000	0.015247	0.000000	-0.000012	-0.000000	0.000000	0.000000
70.282671	23.101366	11.396934	0.592321	-0.236275	2.838496	0.000000	-0.069113	0.000000	-0.000012	0.000000	0.000000	0.000000
