#ParticleID	Turn	x[m]	xp	y[m]	yp	z[m]	dE[GeV]# s	beta_x	beta_y	alpha_x	alpha_y	D_x	D_y	D_px	D_py	orbit_x	orbit_px	orbit_y	orbit_py
0.300000	11.822267	24.983854	-0.012073	-0.027573	2.618127	0.000000	0.000007	0.000000	-0.000000	0.000001	0.000000	0.000000
0.601250	11.837218	25.004101	-0.037558	-0.039640	2.618129	0.000000	0.000007	0.000000	-0.000000	0.000001	0.000000	0.000000
0.898573	11.867031	25.031214	-0.033609	-0.112933	2.618131	0.000000	-0.006414	0.000000	0.000000	0.000001	0.000000	0.000000
1.339533	12.048906	24.853167	-0.380407	0.515168	2.631595	0.000000	0.067544	0.000000	0.000000	0.000001	0.000000	0.000000
1.780493	12.543107	24.129445	-0.744585	1.119828	2.677811	0.000000	0.142271	0.000000	0.000001	0.000001	0.000000	0.000000
2.221453	13.372215	22.892977	-1.142781	1.673538	2.757304	0.000000	0.218618	0.000000	0.000001	0.000001	0.000000	0.000000
2.662413	14.574107	21.200022	-1.593187	2.151102	2.870979	0.000000	0.297455	0.000000	0.000001	0.000001	0.000000	0.000000
3.108373	16.224471	19.102777	-2.120675	2.531925	3.021993	0.000000	0.380170	0.000000	0.000002	0.000001	0.000000	0.000000
3.657433	18.340762	16.747318	-1.710898	1.783384	3.205458	0.000000	0.287132	0.000000	0.000002	0.000001	0.000000	0.000000
4.206493	19.937641	15.139687	-1.180271	1.161869	3.336363	0.000000	0.189001	0.000000	0.000002	0.000001	0.000000	0.000000
4.755553	20.902311	14.165376	-0.566276	0.623112	3.412387	0.000000	0.087518	0.000000	0.000003	0.000001	0.000000	0.000000
5.304613	21.166633	13.754989	0.087718	0.128737	3.432182	0.000000	-0.015518	0.000000	0.000003	0.000000	0.000000	0.000000
5.603185	21.151493	13.663310	0.018294	0.142380	3.430226	0.000000	-0.006550	0.000000	0.000003	0.000000	0.000000	0.000000
5.936519	21.144552	13.576687	0.002529	0.117489	3.428043	0.000000	-0.006550	0.000000	0.000003	0.000000	0.000000	0.000000
6.269852	21.148120	13.506658	-0.013235	0.092599	3.425859	0.000000	-0.006550	0.000000	0.000003	0.000000	0.000000	0.000000
6.604435	21.162271	13.453053	-0.029059	0.067614	3.423667	0.000000	-0.006550	0.000000	0.000003	0.000000	0.000000	0.000000
6.901758	21.183732	13.419448	-0.098468	0.080474	3.421720	0.000000	0.002390	0.000000	0.000004	0.000000	0.000000	0.000000
7.450818	20.930791	13.591735	0.556422	-0.396112	3.394830	0.000000	-0.100192	0.000000	0.000004	0.000000	0.000000	0.000000
7.999878	19.976127	14.299699	1.172009	-0.900912	3.312023	0.000000	-0.200997	0.000000	0.000004	0.000000	0.000000	0.000000
8.548938	18.387174	15.593769	1.704811	-1.469882	3.174766	0.000000	-0.298236	0.000000	0.000004	0.000000	0.000000	0.000000
9.097998	16.276167	17.566117	2.117194	-2.143548	2.985495	0.000000	-0.390186	0.000000	0.000004	-0.000000	0.000000	0.000000
9.543958	14.629136	19.323611	1.589163	-1.780719	2.829795	0.000000	-0.308479	0.000000	0.000004	0.000000	0.000000	0.000000
9.984918	13.431098	20.704138	1.138029	-1.338099	2.711014	0.000000	-0.230769	0.000000	0.000004	0.000000	0.000000	0.000000
10.425878	12.606581	21.665869	0.738888	-0.834596	2.625889	0.000000	-0.155688	0.000000	0.000004	0.000000	0.000000	0.000000
10.866838	12.117914	22.165047	0.373505	-0.293120	2.573450	0.000000	-0.082379	0.000000	0.000004	0.000000	0.000000	0.000000
11.309048	11.942635	22.178440	0.054367	0.207246	2.553079	0.000000	-0.016270	0.000000	0.000004	0.000000	0.000000	0.000000
11.606371	11.917730	22.059359	0.029398	0.193264	2.548241	0.000000	-0.016270	0.000000	0.000005	0.000000	0.000000	0.000000
12.086371	11.908857	21.884660	-0.010913	0.170692	2.540432	0.000000	-0.016270	0.000000	0.000005	0.000000	0.000000	0.000000
12.566371	11.938683	21.731630	-0.051224	0.148120	2.532622	0.000000	-0.016270	0.000000	0.000005	0.000000	0.000000	0.000000
13.046371	12.007208	21.600270	-0.091535	0.125548	2.524812	0.000000	-0.016270	0.000000	0.000005	0.000000	0.000000	0.000000
13.526371	12.114430	21.490578	-0.131846	0.102976	2.517002	0.000000	-0.016270	0.000000	0.000005	0.000000	0.000000	0.000000
14.007621	12.260782	21.402356	-0.172262	0.080345	2.509172	0.000000	-0.016270	0.000000	0.000006	0.000000	0.000000	0.000000
14.304943	12.370641	21.358736	-0.166896	0.013988	2.504334	0.000000	-0.022411	0.000000	0.000006	0.000000	0.000000	0.000000
14.745903	12.676461	21.112613	-0.529267	0.542041	2.510084	0.000000	0.048514	0.000000	0.000006	0.000001	0.000000	0.000000
15.186863	13.311278	20.409927	-0.915819	1.045431	2.547200	0.000000	0.119991	0.000000	0.000006	0.000001	0.000000	0.000000
15.627823	14.304095	19.282650	-1.344211	1.501256	2.616106	0.000000	0.192834	0.000000	0.000007	0.000001	0.000000	0.000000
16.068783	15.700270	17.782073	-1.834017	1.888774	2.717586	0.000000	0.267874	0.000000	0.000007	0.000001	0.000000	0.000000
16.514743	17.587246	15.954966	-2.412371	2.191102	2.854491	0.000000	0.346428	0.000000	0.000008	0.000001	0.000000	0.000000
17.063803	20.010670	13.914762	-1.975270	1.546644	3.020969	0.000000	0.259092	0.000000	0.000008	0.000001	0.000000	0.000000
17.612863	21.874184	12.517966	-1.398645	1.012350	3.138160	0.000000	0.167161	0.000000	0.000009	0.000001	0.000000	0.000000
18.161923	23.046157	11.665086	-0.723227	0.550164	3.203986	0.000000	0.072265	0.000000	0.000009	0.000000	0.000000	0.000000
18.710983	23.443807	11.295374	0.003276	0.127165	3.217279	0.000000	-0.023913	0.000000	0.000009	0.000000	0.000000	0.000000
19.009556	23.482241	11.209902	-0.070752	0.129593	3.212649	0.000000	-0.015508	0.000000	0.000010	0.000000	0.000000	0.000000
19.342889	23.534165	11.133585	-0.085018	0.099358	3.207480	0.000000	-0.015508	0.000000	0.000010	0.000000	0.000000	0.000000
19.676223	23.595599	11.077425	-0.099284	0.069123	3.202311	0.000000	-0.015508	0.000000	0.000010	0.000000	0.000000	0.000000
20.010806	23.667121	11.041187	-0.230864	0.093480	3.197142	0.000000	0.000333	0.000000	0.000010	0.000000	0.000000	0.000000
20.308129	23.808337	10.993677	-0.306298	0.095038	3.197241	0.000000	0.008686	0.000000	0.000010	0.000000	0.000000	0.000000
20.857189	23.734060	11.111675	0.440778	-0.311216	3.175789	0.000000	-0.086710	0.000000	0.000010	-0.000000	0.000000	0.000000
21.406249	22.851714	11.685271	1.156720	-0.739638	3.102305	0.000000	-0.180569	0.000000	0.000010	-0.000000	0.000000	0.000000
21.955309	21.223624	12.755322	1.790957	-1.220742	2.978091	0.000000	-0.271225	0.000000	0.000009	-0.000001	0.000000	0.000000
22.504369	18.964790	14.398043	2.298690	-1.788797	2.805352	0.000000	-0.357069	0.000000	0.000009	-0.000001	0.000000	0.000000
22.950329	17.184697	15.872820	1.706998	-1.504223	2.663408	0.000000	-0.279856	0.000000	0.000009	-0.000001	0.000000	0.000000
23.391289	15.908555	17.048611	1.197991	-1.152064	2.556326	0.000000	-0.206285	0.000000	0.000008	-0.000001	0.000000	0.000000
23.832249	15.055575	17.889436	0.743717	-0.747487	2.481137	0.000000	-0.135064	0.000000	0.000008	-0.000000	0.000000	0.000000
24.273209	14.586788	18.357040	0.323421	-0.308900	2.436985	0.000000	-0.065380	0.000000	0.000008	-0.000000	0.000000	0.000000
24.715418	14.480894	18.429900	-0.046677	0.098481	2.423365	0.000000	-0.002384	0.000000	0.000008	0.000000	0.000000	0.000000
25.012741	14.514768	18.376182	-0.067254	0.082192	2.422656	0.000000	-0.002384	0.000000	0.000008	0.000000	0.000000	0.000000
25.346075	14.567293	18.327474	-0.090323	0.063930	2.421861	0.000000	-0.002384	0.000000	0.000008	0.000000	0.000000	0.000000
25.679408	14.635198	18.290942	-0.113392	0.045668	2.421066	0.000000	-0.002384	0.000000	0.000008	0.000000	0.000000	0.000000
26.013991	14.718525	18.266886	-0.017141	-0.120852	2.420244	0.000000	-0.022018	0.000000	0.000008	0.000000	0.000000	0.000000
26.311314	14.734725	18.343660	-0.001216	-0.182347	2.413698	0.000000	-0.027937	0.000000	0.000008	0.000000	0.000000	0.000000
26.752274	14.917350	18.305509	-0.414506	0.268536	2.416490	0.000000	0.040613	0.000000	0.000008	0.000000	0.000000	0.000000
27.193234	15.471404	17.873605	-0.846734	0.707201	2.449583	0.000000	0.109625	0.000000	0.000008	0.000000	0.000000	0.000000
27.634194	16.422203	17.067598	-1.317647	1.113689	2.513353	0.000000	0.179886	0.000000	0.000009	0.000001	0.000000	0.000000
28.075154	17.813184	15.924162	-1.848759	1.469504	2.608528	0.000000	0.252196	0.000000	0.000009	0.000001	0.000000	0.000000
28.521114	19.732068	14.478100	-2.469297	1.759372	2.737794	0.000000	0.327822	0.000000	0.000009	0.000001	0.000000	0.000000
29.070174	22.170980	12.866823	-1.946385	1.192560	2.895121	0.000000	0.244416	0.000000	0.000010	0.000001	0.000000	0.000000
29.619234	23.956317	11.827956	-1.285990	0.710691	3.005394	0.000000	0.156674	0.000000	0.000010	0.000000	0.000000	0.000000
30.168294	24.961970	11.287504	-0.534759	0.279443	3.066657	0.000000	0.066154	0.000000	0.000010	0.000000	0.000000	0.000000
30.717354	25.116906	11.206970	0.254245	-0.131901	3.077823	0.000000	-0.025540	0.000000	0.000010	-0.000000	0.000000	0.000000
31.015927	25.007946	11.276289	0.176315	-0.129544	3.072599	0.000000	-0.017499	0.000000	0.000010	-0.000000	0.000000	0.000000
31.349260	24.894984	11.372671	0.162571	-0.159601	3.066766	0.000000	-0.017499	0.000000	0.000010	-0.000000	0.000000	0.000000
31.682593	24.791184	11.489090	0.148828	-0.189658	3.060933	0.000000	-0.017499	0.000000	0.000010	-0.000000	0.000000	0.000000
32.017177	24.696209	11.626097	0.135033	-0.219827	3.055078	0.000000	-0.017499	0.000000	0.000010	-0.000000	0.000000	0.000000
32.314499	24.619557	11.764787	0.058453	-0.215900	3.049875	0.000000	-0.009531	0.000000	0.000010	-0.000000	0.000000	0.000000
32.863559	24.133590	12.241149	0.821397	-0.656816	3.019758	0.000000	-0.100012	0.000000	0.000010	-0.000000	0.000000	0.000000
33.412619	22.836876	13.224385	1.526321	-1.144517	2.940375	0.000000	-0.188720	0.000000	0.000010	-0.000001	0.000000	0.000000
33.961679	20.821008	14.784529	2.123434	-1.713738	2.813136	0.000000	-0.274080	0.000000	0.000009	-0.000001	0.000000	0.000000
34.510739	18.228377	17.032707	2.570557	-2.405025	2.640297	0.000000	-0.354578	0.000000	0.000008	-0.000001	0.000000	0.000000
34.956699	16.212565	19.043585	1.965801	-2.085246	2.498512	0.000000	-0.281644	0.000000	0.000008	-0.000001	0.000000	0.000000
35.397659	14.709449	20.706415	1.455864	-1.671336	2.389701	0.000000	-0.212347	0.000000	0.000007	-0.000001	0.000000	0.000000
35.838619	13.625138	21.969155	1.012442	-1.181382	2.310886	0.000000	-0.145467	0.000000	0.000007	-0.000001	0.000000	0.000000
36.279579	12.910093	22.774351	0.615275	-0.637676	2.261168	0.000000	-0.080245	0.000000	0.000007	-0.000001	0.000000	0.000000
36.721789	12.530951	23.085671	0.276841	-0.121620	2.239956	0.000000	-0.021429	0.000000	0.000006	-0.000000	0.000000	0.000000
37.019112	12.373924	23.161878	0.251296	-0.134689	2.233585	0.000000	-0.021429	0.000000	0.000006	-0.000000	0.000000	0.000000
37.352445	12.215940	23.256555	0.222656	-0.149342	2.226442	0.000000	-0.021429	0.000000	0.000006	-0.000000	0.000000	0.000000
37.685779	12.077049	23.361001	0.194017	-0.163994	2.219300	0.000000	-0.021429	0.000000	0.000006	-0.000000	0.000000	0.000000
38.020362	11.956838	23.475661	0.165270	-0.178702	2.212130	0.000000	-0.021429	0.000000	0.000006	-0.000000	0.000000	0.000000
38.317684	11.866157	23.585811	0.168822	-0.249608	2.205759	0.000000	-0.026838	0.000000	0.000006	-0.000000	0.000000	0.000000
38.758644	11.868588	23.544713	-0.174357	0.342454	2.207853	0.000000	0.036343	0.000000	0.000006	-0.000000	0.000000	0.000000
39.199604	12.176031	22.986366	-0.525501	0.918935	2.237871	0.000000	0.099937	0.000000	0.000005	-0.000000	0.000000	0.000000
39.640564	12.802532	21.936174	-0.900654	1.453605	2.296156	0.000000	0.164669	0.000000	0.000005	-0.000000	0.000000	0.000000
40.081524	13.776714	20.441921	-1.316956	1.922137	2.383371	0.000000	0.231277	0.000000	0.000005	0.000000	0.000000	0.000000
40.527484	15.160653	18.549024	-1.797251	2.304494	2.501982	0.000000	0.300925	0.000000	0.000005	0.000000	0.000000	0.000000
41.076544	16.926843	16.421935	-1.400458	1.592429	2.646677	0.000000	0.225364	0.000000	0.000006	0.000000	0.000000	0.000000
41.625604	18.200074	15.010279	-0.904744	0.993789	2.748724	0.000000	0.145805	0.000000	0.000006	-0.000000	0.000000	0.000000
42.174664	18.890412	14.213506	-0.345123	0.465934	2.806314	0.000000	0.063661	0.000000	0.000005	-0.000000	0.000000	0.000000
42.723724	18.949096	13.974866	0.238875	-0.028734	2.818424	0.000000	-0.019613	0.000000	0.000005	-0.000000	0.000000	0.000000
43.022297	18.840890	13.976600	0.173045	-0.013588	2.814767	0.000000	-0.012249	0.000000	0.000005	-0.000000	0.000000	0.000000
43.502297	18.687361	14.006132	0.146806	-0.047937	2.808888	0.000000	-0.012249	0.000000	0.000005	-0.000000	0.000000	0.000000
43.982297	18.559023	14.068639	0.120566	-0.082287	2.803008	0.000000	-0.012249	0.000000	0.000005	-0.000000	0.000000	0.000000
44.462297	18.455874	14.164122	0.094327	-0.116636	2.797129	0.000000	-0.012249	0.000000	0.000004	-0.000000	0.000000	0.000000
44.942297	18.377915	14.292581	0.068088	-0.150985	2.791249	0.000000	-0.012249	0.000000	0.000004	-0.000000	0.000000	0.000000
45.423547	18.325268	14.454299	-0.049014	-0.113809	2.785372	0.000000	0.001551	0.000000	0.000004	-0.000000	0.000000	0.000000
45.720870	18.359249	14.528170	-0.113245	-0.096687	2.785833	0.000000	0.008830	0.000000	0.000004	-0.000000	0.000000	0.000000
46.269930	18.174468	14.915371	0.447793	-0.612682	2.768109	0.000000	-0.073297	0.000000	0.000004	-0.000001	0.000000	0.000000
46.818990	17.387402	15.889691	0.977201	-1.172318	2.705583	0.000000	-0.154124	0.000000	0.000003	-0.000001	0.000000	0.000000
47.368050	16.053643	17.520531	1.437585	-1.815455	2.599365	0.000000	-0.232217	0.000000	0.000003	-0.000001	0.000000	0.000000
47.917110	14.267404	19.924051	1.796425	-2.587902	2.451339	0.000000	-0.306191	0.000000	0.000002	-0.000001	0.000000	0.000000
48.363070	12.877299	22.061041	1.331726	-2.183840	2.330082	0.000000	-0.237892	0.000000	0.000002	-0.000001	0.000000	0.000000
48.804030	11.883018	23.772095	0.931638	-1.681686	2.239642	0.000000	-0.172699	0.000000	0.000002	-0.000001	0.000000	0.000000
49.244990	11.221552	25.004728	0.574113	-1.103017	2.177488	0.000000	-0.109473	0.000000	0.000001	-0.000001	0.000000	0.000000
49.685950	10.862679	25.702857	0.242819	-0.474161	2.142913	0.000000	-0.047495	0.000000	0.000001	-0.000001	0.000000	0.000000
50.128160	10.790131	25.834436	-0.051038	0.112866	2.135534	0.000000	0.008706	0.000000	0.000001	-0.000001	0.000000	0.000000
50.425482	10.828694	25.770786	-0.078665	0.101210	2.138122	0.000000	0.008706	0.000000	0.000001	-0.000001	0.000000	0.000000
50.758816	10.891462	25.707668	-0.109638	0.088143	2.141025	0.000000	0.008706	0.000000	0.000000	-0.000001	0.000000	0.000000
51.092149	10.974878	25.653262	-0.140611	0.075076	2.143927	0.000000	0.008706	0.000000	0.000000	-0.000001	0.000000	0.000000
51.426732	11.079147	25.607931	-0.081819	-0.145784	2.146819	0.000000	-0.008710	0.000000	-0.000000	-0.000001	0.000000	0.000000
51.724055	11.135833	25.698146	-0.081526	-0.220661	2.144229	0.000000	-0.013968	0.000000	-0.000000	-0.000001	0.000000	0.000000
52.165015	11.353114	25.606866	-0.413088	0.426876	2.151658	0.000000	0.047695	0.000000	-0.000001	-0.000001	0.000000	0.000000
52.605975	11.869992	24.950926	-0.763524	1.054991	2.186372	0.000000	0.109901	0.000000	-0.000001	-0.000001	0.000000	0.000000
53.046935	12.710081	23.760171	-1.148842	1.635104	2.248766	0.000000	0.173358	0.000000	-0.000001	-0.000001	0.000000	0.000000
53.487895	13.911764	22.088778	-1.586648	2.140821	2.339551	0.000000	0.238791	0.000000	-0.000001	-0.000001	0.000000	0.000000
53.933855	15.550538	19.987805	-2.101176	2.550469	2.461264	0.000000	0.307341	0.000000	-0.000002	-0.000001	0.000000	0.000000
54.482915	17.660385	17.623721	-1.718729	1.780639	2.609833	0.000000	0.233037	0.000000	-0.000002	-0.000001	0.000000	0.000000
55.031975	19.280704	16.030814	-1.214880	1.137640	2.716408	0.000000	0.154599	0.000000	-0.000003	-0.000001	0.000000	0.000000
55.581035	20.297044	15.095622	-0.625217	0.575673	2.779099	0.000000	0.073419	0.000000	-0.000003	-0.000001	0.000000	0.000000
56.130095	20.637615	14.751536	0.008607	0.054709	2.796793	0.000000	-0.009063	0.000000	-0.000003	-0.000000	0.000000	0.000000
56.428668	20.669004	14.701945	-0.059813	0.072837	2.796268	0.000000	-0.001756	0.000000	-0.000003	-0.000000	0.000000	0.000000
56.762001	20.714275	14.660985	-0.075998	0.050044	2.795683	0.000000	-0.001756	0.000000	-0.000003	-0.000000	0.000000	0.000000
57.095334	20.770335	14.635220	-0.092183	0.027251	2.795098	0.000000	-0.001756	0.000000	-0.000004	-0.000000	0.000000	0.000000
57.429918	20.837456	14.624639	-0.108429	0.004373	2.794511	0.000000	-0.001756	0.000000	-0.000004	-0.000000	0.000000	0.000000
57.727240	20.906225	14.628083	-0.177491	0.022264	2.793989	0.000000	0.005545	0.000000	-0.000004	-0.000000	0.000000	0.000000
58.276300	20.744438	14.884567	0.470408	-0.492155	2.774394	0.000000	-0.076816	0.000000	-0.000004	-0.000000	0.000000	0.000000
58.825360	19.885296	15.721764	1.085080	-1.041628	2.709887	0.000000	-0.157814	0.000000	-0.000004	-0.000000	0.000000	0.000000
59.374420	18.389484	17.199306	1.623108	-1.665295	2.601610	0.000000	-0.236013	0.000000	-0.000004	-0.000000	0.000000	0.000000
59.923480	16.362659	19.422434	2.046487	-2.407577	2.451485	0.000000	-0.310026	0.000000	-0.000004	0.000000	0.000000	0.000000
60.369440	14.776234	21.398406	1.523435	-2.004549	2.328515	0.000000	-0.241745	0.000000	-0.000004	-0.000000	0.000000	0.000000
60.810400	13.635114	22.954849	1.074193	-1.511689	2.236363	0.000000	-0.176615	0.000000	-0.000004	-0.000000	0.000000	0.000000
61.251360	12.867132	24.044523	0.674027	-0.950048	2.172460	0.000000	-0.113497	0.000000	-0.000004	-0.000000	0.000000	0.000000
61.692320	12.437204	24.617849	0.304656	-0.345180	2.136078	0.000000	-0.051671	0.000000	-0.000005	-0.000000	0.000000	0.000000
62.134530	12.325736	24.648203	-0.020671	0.214891	2.126810	0.000000	0.004351	0.000000	-0.000005	-0.000000	0.000000	0.000000
62.431853	12.345203	24.524171	-0.044803	0.202271	2.128103	0.000000	0.004351	0.000000	-0.000005	-0.000000	0.000000	0.000000
62.765186	12.384090	24.394039	-0.071858	0.188123	2.129554	0.000000	0.004351	0.000000	-0.000005	-0.000000	0.000000	0.000000
63.098520	12.441014	24.273340	-0.098914	0.173975	2.131004	0.000000	0.004351	0.000000	-0.000005	-0.000000	0.000000	0.000000
63.433103	12.516290	24.161673	-0.126070	0.159774	2.132460	0.000000	0.004351	0.000000	-0.000005	-0.000000	0.000000	0.000000
63.730426	12.598432	24.070417	-0.119306	0.088123	2.133754	0.000000	-0.000882	0.000000	-0.000005	-0.000000	0.000000	0.000000
64.171386	12.864060	23.727604	-0.485364	0.686343	2.146905	0.000000	0.060584	0.000000	-0.000006	-0.000001	0.000000	0.000000
64.612346	13.461043	22.869016	-0.873597	1.253336	2.187286	0.000000	0.122741	0.000000	-0.000006	-0.000001	0.000000	0.000000
65.053306	14.416655	21.533718	-1.301743	1.763302	2.255358	0.000000	0.186296	0.000000	-0.000006	-0.000001	0.000000	0.000000
65.494266	15.774556	19.782465	-1.789361	2.193040	2.351896	0.000000	0.251972	0.000000	-0.000007	-0.000001	0.000000	0.000000
65.940226	17.619949	17.670152	-2.363422	2.523752	2.479571	0.000000	0.320920	0.000000	-0.000007	-0.000001	0.000000	0.000000
66.489286	19.985487	15.307092	-1.919415	1.805482	2.635412	0.000000	0.245905	0.000000	-0.000008	-0.000001	0.000000	0.000000
67.038346	21.785664	13.657955	-1.339830	1.215812	2.748804	0.000000	0.166527	0.000000	-0.000009	-0.000001	0.000000	0.000000
67.587406	22.893326	12.605277	-0.665607	0.712742	2.817737	0.000000	0.084197	0.000000	-0.000009	-0.000000	0.000000	0.000000
68.136466	23.230233	12.074077	0.055632	0.260440	2.840988	0.000000	0.000372	0.000000	-0.000009	-0.000000	0.000000	0.000000
68.435038	23.237097	11.907730	-0.017922	0.265153	2.843316	0.000000	0.007796	0.000000	-0.000009	-0.000000	0.000000	0.000000
68.768372	23.253828	11.740949	-0.032271	0.235192	2.845914	0.000000	0.007796	0.000000	-0.000009	-0.000000	0.000000	0.000000
69.101705	23.280125	11.594141	-0.046621	0.205230	2.848513	0.000000	0.007796	0.000000	-0.000009	-0.000000	0.000000	0.000000
69.436288	23.316142	11.466870	-0.061024	0.175157	2.851122	0.000000	0.007796	0.000000	-0.000009	-0.000000	0.000000	0.000000
69.733611	23.356235	11.370659	-0.134854	0.178144	2.853439	0.000000	0.015252	0.000000	-0.000009	-0.000000	0.000000	0.000000
70.282671	23.103194	11.402712	0.592987	-0.236867	2.838631	0.000000	-0.069113	0.000000	-0.000009	0.000000	0.000000	0.000000
