#ParticleID	Turn	x[m]	xp	y[m]	yp	z[m]	dE[GeV]# s	beta_x	beta_y	alpha_x	alpha_y	D_x	D_y	D_px	D_py	orbit_x	orbit_px	orbit_y	orbit_py
0.300000	11.812826	25.021972	-0.010969	-0.027224	2.618122	0.000000	0.000008	0.000000	-0.000000	0.000001	0.000000	0.000000
0.601250	11.827118	25.042004	-0.036474	-0.039272	2.618124	0.000000	0.000008	0.000000	0.000000	0.000001	0.000000	0.000000
0.898573	11.856291	25.068892	-0.032571	-0.112639	2.618126	0.000000	-0.006413	0.000000	0.000000	0.000001	0.000000	0.000000
1.339533	12.037135	24.890147	-0.379097	0.516451	2.631591	0.000000	0.067545	0.000000	0.000001	0.000001	0.000000	0.000000
1.780493	12.530040	24.164877	-0.742944	1.122042	2.677807	0.000000	0.142272	0.000000	0.000001	0.000001	0.000000	0.000000
2.221453	13.357527	22.926082	-1.140733	1.676582	2.757300	0.000000	0.218619	0.000000	0.000002	0.000001	0.000000	0.000000
2.662413	14.557401	21.230125	-1.590639	2.154838	2.870975	0.000000	0.297456	0.000000	0.000003	0.000001	0.000000	0.000000
3.108373	16.205225	19.129300	-2.117506	2.536184	3.021989	0.000000	0.380171	0.000000	0.000003	0.000001	0.000000	0.000000
3.657433	18.318289	16.769759	-1.708225	1.786601	3.205453	0.000000	0.287133	0.000000	0.000004	0.000001	0.000000	0.000000
4.206493	19.912593	15.159059	-1.178283	1.164274	3.336359	0.000000	0.189002	0.000000	0.000005	0.000001	0.000000	0.000000
4.755553	20.875522	14.182474	-0.565113	0.624875	3.412383	0.000000	0.087519	0.000000	0.000005	0.000001	0.000000	0.000000
5.304613	21.139060	13.770442	0.087974	0.129985	3.432179	0.000000	-0.015517	0.000000	0.000006	0.000001	0.000000	0.000000
5.603185	21.123729	13.677990	0.018605	0.143684	3.430223	0.000000	-0.006550	0.000000	0.000006	0.000001	0.000000	0.000000
5.936519	21.116588	13.590492	0.002819	0.118810	3.428039	0.000000	-0.006550	0.000000	0.000006	0.000001	0.000000	0.000000
6.269852	21.119970	13.519576	-0.012966	0.093937	3.425856	0.000000	-0.006550	0.000000	0.000006	0.000001	0.000000	0.000000
6.604435	21.133948	13.465070	-0.028811	0.068971	3.423664	0.000000	-0.006550	0.000000	0.000007	0.000001	0.000000	0.000000
6.901758	21.155266	13.430653	-0.098163	0.081875	3.421717	0.000000	0.002390	0.000000	0.000007	0.000001	0.000000	0.000000
7.450818	20.902515	13.601570	0.555773	-0.395002	3.394827	0.000000	-0.100191	0.000000	0.000007	0.000001	0.000000	0.000000
7.999878	19.949069	14.308438	1.170452	-0.900013	3.312020	0.000000	-0.200996	0.000000	0.000008	0.000000	0.000000	0.000000
8.548938	18.362277	15.601607	1.702456	-1.469130	3.174764	0.000000	-0.298235	0.000000	0.000008	0.000000	0.000000	0.000000
9.097998	16.254221	17.573185	2.114207	-2.142891	2.985493	0.000000	-0.390185	0.000000	0.000008	-0.000000	0.000000	0.000000
9.543958	14.609555	19.329959	1.586826	-1.779765	2.829793	0.000000	-0.308478	0.000000	0.000008	0.000000	0.000000	0.000000
9.984918	13.413335	20.709532	1.136229	-1.336896	2.711013	0.000000	-0.230768	0.000000	0.000008	0.000000	0.000000	0.000000
10.425878	12.590199	21.670112	0.737544	-0.833199	2.625889	0.000000	-0.155687	0.000000	0.000008	0.000000	0.000000	0.000000
10.866838	12.102539	22.167995	0.372556	-0.291592	2.573450	0.000000	-0.082378	0.000000	0.000008	0.000001	0.000000	0.000000
11.309048	11.927942	22.180005	0.053732	0.208834	2.553079	0.000000	-0.016269	0.000000	0.000009	0.000001	0.000000	0.000000
11.606371	11.903423	22.059982	0.028733	0.194844	2.548242	0.000000	-0.016269	0.000000	0.000009	0.000001	0.000000	0.000000
12.086371	11.895211	21.883772	-0.011625	0.172259	2.540432	0.000000	-0.016269	0.000000	0.000009	0.000001	0.000000	0.000000
12.566371	11.925743	21.729244	-0.051983	0.149674	2.532623	0.000000	-0.016269	0.000000	0.000010	0.000001	0.000000	0.000000
13.046371	11.995018	21.596397	-0.092340	0.127090	2.524813	0.000000	-0.016269	0.000000	0.000010	0.000001	0.000000	0.000000
13.526371	12.103036	21.485232	-0.132698	0.104505	2.517004	0.000000	-0.016269	0.000000	0.000011	0.000001	0.000000	0.000000
14.007621	12.250231	21.395544	-0.173161	0.081861	2.509174	0.000000	-0.016269	0.000000	0.000011	0.000001	0.000000	0.000000
14.304943	12.360633	21.351025	-0.167851	0.015518	2.504336	0.000000	-0.022410	0.000000	0.000011	0.000001	0.000000	0.000000
14.745903	12.667206	21.103654	-0.530025	0.543330	2.510086	0.000000	0.048515	0.000000	0.000012	0.000001	0.000000	0.000000
15.186863	13.302617	20.399960	-0.916414	1.046420	2.547203	0.000000	0.119992	0.000000	0.000012	0.000001	0.000000	0.000000
15.627823	14.295897	19.271960	-1.344671	1.501900	2.616109	0.000000	0.192836	0.000000	0.000013	0.000002	0.000000	0.000000
16.068783	15.692427	17.770978	-1.834363	1.889044	2.717589	0.000000	0.267876	0.000000	0.000014	0.000002	0.000000	0.000000
16.514743	17.579667	15.943804	-2.412619	2.190982	2.854495	0.000000	0.346430	0.000000	0.000015	0.000002	0.000000	0.000000
17.063803	20.003565	13.903601	-1.975879	1.546761	3.020973	0.000000	0.259094	0.000000	0.000016	0.000002	0.000000	0.000000
17.612863	21.867927	12.506543	-1.399572	1.012712	3.138165	0.000000	0.167163	0.000000	0.000017	0.000001	0.000000	0.000000
18.161923	23.041064	11.653120	-0.724406	0.550797	3.203991	0.000000	0.072266	0.000000	0.000018	0.000001	0.000000	0.000000
18.710983	23.440111	11.282544	0.001928	0.128114	3.217285	0.000000	-0.023912	0.000000	0.000018	0.000000	0.000000	0.000000
19.009556	23.479342	11.196538	-0.072090	0.130468	3.212655	0.000000	-0.015507	0.000000	0.000018	0.000000	0.000000	0.000000
19.342889	23.532160	11.119652	-0.086361	0.100190	3.207486	0.000000	-0.015507	0.000000	0.000018	0.000000	0.000000	0.000000
19.676223	23.594490	11.062952	-0.100632	0.069912	3.202317	0.000000	-0.015507	0.000000	0.000018	0.000000	0.000000	0.000000
20.010806	23.666915	11.026200	-0.232215	0.094152	3.197148	0.000000	0.000334	0.000000	0.000018	0.000000	0.000000	0.000000
20.308129	23.808937	10.978302	-0.307654	0.095627	3.197247	0.000000	0.008686	0.000000	0.000019	0.000001	0.000000	0.000000
20.857189	23.736131	11.095414	0.439472	-0.310182	3.175796	0.000000	-0.086711	0.000000	0.000019	-0.000000	0.000000	0.000000
21.406249	22.855150	11.667597	1.155555	-0.738084	3.102311	0.000000	-0.180569	0.000000	0.000018	-0.000001	0.000000	0.000000
21.955309	21.228224	12.735608	1.790015	-1.218558	2.978098	0.000000	-0.271225	0.000000	0.000018	-0.000001	0.000000	0.000000
22.504369	18.970271	14.375517	2.298038	-1.785828	2.805358	0.000000	-0.357070	0.000000	0.000017	-0.000002	0.000000	0.000000
22.950329	17.190776	15.847870	1.706301	-1.501780	2.663414	0.000000	-0.279857	0.000000	0.000016	-0.000001	0.000000	0.000000
23.391289	15.915279	17.021780	1.197217	-1.150257	2.556332	0.000000	-0.206286	0.000000	0.000016	-0.000001	0.000000	0.000000
23.832249	15.063028	17.861324	0.742831	-0.746398	2.481143	0.000000	-0.135064	0.000000	0.000015	-0.000001	0.000000	0.000000
24.273209	14.595087	18.328303	0.322382	-0.308578	2.436991	0.000000	-0.065380	0.000000	0.000015	-0.000000	0.000000	0.000000
24.715418	14.490196	18.401225	-0.047895	0.098094	2.423370	0.000000	-0.002383	0.000000	0.000015	0.000000	0.000000	0.000000
25.012741	14.524791	18.347744	-0.068461	0.081781	2.422662	0.000000	-0.002383	0.000000	0.000015	0.000000	0.000000	0.000000
25.346075	14.578117	18.299319	-0.091518	0.063492	2.421867	0.000000	-0.002383	0.000000	0.000015	0.000000	0.000000	0.000000
25.679408	14.646814	18.263088	-0.114575	0.045203	2.421073	0.000000	-0.002383	0.000000	0.000015	0.000000	0.000000	0.000000
26.013991	14.730928	18.239352	-0.018211	-0.121121	2.420251	0.000000	-0.022018	0.000000	0.000015	0.000000	0.000000	0.000000
26.311314	14.747760	18.316294	-0.002241	-0.182572	2.413704	0.000000	-0.027936	0.000000	0.000015	-0.000000	0.000000	0.000000
26.752274	14.931432	18.278668	-0.415866	0.267574	2.416496	0.000000	0.040614	0.000000	0.000016	0.000000	0.000000	0.000000
27.193234	15.486857	17.847921	-0.848492	0.705546	2.449590	0.000000	0.109626	0.000000	0.000016	0.000001	0.000000	0.000000
27.634194	16.439411	17.043653	-1.319883	1.111416	2.513360	0.000000	0.179888	0.000000	0.000016	0.000001	0.000000	0.000000
28.075154	17.832612	15.902457	-1.851576	1.466717	2.608535	0.000000	0.252198	0.000000	0.000017	0.000002	0.000000	0.000000
28.521114	19.754317	14.459064	-2.472829	1.756196	2.737802	0.000000	0.327823	0.000000	0.000018	0.000002	0.000000	0.000000
29.070174	22.196814	12.850855	-1.949341	1.190114	2.895130	0.000000	0.244417	0.000000	0.000019	0.000001	0.000000	0.000000
29.619234	23.984983	11.814355	-1.288160	0.708801	3.005403	0.000000	0.156675	0.000000	0.000019	0.000001	0.000000	0.000000
30.168294	24.992515	11.275736	-0.535990	0.277974	3.066666	0.000000	0.066154	0.000000	0.000020	0.000000	0.000000	0.000000
30.717354	25.148246	11.196633	0.254039	-0.133054	3.077833	0.000000	-0.025540	0.000000	0.000020	-0.000000	0.000000	0.000000
31.015927	25.039448	11.266667	0.176048	-0.130757	3.072608	0.000000	-0.017499	0.000000	0.000019	-0.000000	0.000000	0.000000
31.349260	24.926658	11.363869	0.162324	-0.160849	3.066775	0.000000	-0.017499	0.000000	0.000019	-0.000000	0.000000	0.000000
31.682593	24.823017	11.481132	0.148599	-0.190941	3.060942	0.000000	-0.017499	0.000000	0.000019	-0.000000	0.000000	0.000000
32.017177	24.728189	11.619009	0.134822	-0.221145	3.055087	0.000000	-0.017499	0.000000	0.000019	-0.000000	0.000000	0.000000
32.314499	24.651658	11.758492	0.058180	-0.217268	3.049884	0.000000	-0.009532	0.000000	0.000019	-0.000000	0.000000	0.000000
32.863559	24.165403	12.236292	0.822189	-0.658082	3.019767	0.000000	-0.100013	0.000000	0.000019	-0.000001	0.000000	0.000000
33.412619	22.867255	13.220903	1.528123	-1.145770	2.940384	0.000000	-0.188721	0.000000	0.000018	-0.000001	0.000000	0.000000
33.961679	20.848909	14.782459	2.126118	-1.715069	2.813145	0.000000	-0.274081	0.000000	0.000017	-0.000002	0.000000	0.000000
34.510739	18.252929	17.032185	2.573934	-2.406529	2.640305	0.000000	-0.354580	0.000000	0.000016	-0.000003	0.000000	0.000000
34.956699	16.234444	19.044486	1.968438	-2.086921	2.498520	0.000000	-0.281646	0.000000	0.000015	-0.000002	0.000000	0.000000
35.397659	14.729281	20.708841	1.457889	-1.673105	2.389709	0.000000	-0.212348	0.000000	0.000014	-0.000002	0.000000	0.000000
35.838619	13.643419	21.973153	1.013946	-1.183164	2.310893	0.000000	-0.145469	0.000000	0.000013	-0.000001	0.000000	0.000000
36.279579	12.927250	22.779896	0.616328	-0.639390	2.261175	0.000000	-0.080246	0.000000	0.000012	-0.000001	0.000000	0.000000
36.721789	12.547360	23.092673	0.277528	-0.123202	2.239963	0.000000	-0.021429	0.000000	0.000012	-0.000001	0.000000	0.000000
37.019112	12.389917	23.169821	0.252007	-0.136272	2.233591	0.000000	-0.021429	0.000000	0.000012	-0.000001	0.000000	0.000000
37.352445	12.231450	23.265553	0.223395	-0.150926	2.226449	0.000000	-0.021429	0.000000	0.000011	-0.000001	0.000000	0.000000
37.685779	12.092057	23.371055	0.194783	-0.165580	2.219306	0.000000	-0.021429	0.000000	0.000011	-0.000001	0.000000	0.000000
38.020362	11.971324	23.486777	0.166063	-0.180288	2.212136	0.000000	-0.021429	0.000000	0.000011	-0.000001	0.000000	0.000000
38.317684	11.880164	23.597871	0.169673	-0.251222	2.205765	0.000000	-0.026838	0.000000	0.000011	-0.000001	0.000000	0.000000
38.758644	11.881984	23.558051	-0.173816	0.341182	2.207859	0.000000	0.036342	0.000000	0.000010	-0.000001	0.000000	0.000000
39.199604	12.189077	23.000653	-0.525246	0.918062	2.237877	0.000000	0.099937	0.000000	0.000010	-0.000000	0.000000	0.000000
39.640564	12.815473	21.951040	-0.900673	1.453172	2.296162	0.000000	0.164669	0.000000	0.000010	-0.000000	0.000000	0.000000
40.081524	13.789792	20.456967	-1.317249	1.922163	2.383378	0.000000	0.231278	0.000000	0.000010	0.000000	0.000000	0.000000
40.527484	15.174121	18.563840	-1.797833	2.304981	2.501989	0.000000	0.300925	0.000000	0.000010	0.000000	0.000000	0.000000
41.076544	16.940672	16.436428	-1.400530	1.592533	2.646684	0.000000	0.225364	0.000000	0.000010	0.000000	0.000000	0.000000
41.625604	18.213698	15.024863	-0.904300	0.993518	2.748731	0.000000	0.145805	0.000000	0.000010	-0.000000	0.000000	0.000000
42.174664	18.903279	14.228601	-0.344195	0.465269	2.806321	0.000000	0.063660	0.000000	0.000010	-0.000001	0.000000	0.000000
42.723724	18.960706	13.990928	0.240222	-0.029840	2.818431	0.000000	-0.019614	0.000000	0.000010	-0.000001	0.000000	0.000000
43.022297	18.851712	13.993291	0.174366	-0.014628	2.814774	0.000000	-0.012250	0.000000	0.000009	-0.000001	0.000000	0.000000
43.502297	18.696914	14.023803	0.148130	-0.048938	2.808894	0.000000	-0.012250	0.000000	0.000009	-0.000001	0.000000	0.000000
43.982297	18.567302	14.087252	0.121894	-0.083247	2.803015	0.000000	-0.012250	0.000000	0.000008	-0.000001	0.000000	0.000000
44.462297	18.462877	14.183638	0.095658	-0.117557	2.797135	0.000000	-0.012250	0.000000	0.000008	-0.000001	0.000000	0.000000
44.942297	18.383639	14.312961	0.069422	-0.151866	2.791255	0.000000	-0.012250	0.000000	0.000008	-0.000001	0.000000	0.000000
45.423547	18.329707	14.475507	-0.047698	-0.114545	2.785378	0.000000	0.001550	0.000000	0.000007	-0.000001	0.000000	0.000000
45.720870	18.362904	14.549808	-0.111932	-0.097340	2.785839	0.000000	0.008829	0.000000	0.000007	-0.000001	0.000000	0.000000
46.269930	18.176625	14.938091	0.449192	-0.614012	2.768114	0.000000	-0.073298	0.000000	0.000006	-0.000001	0.000000	0.000000
46.818990	17.388021	15.914285	0.978586	-1.174419	2.705588	0.000000	-0.154125	0.000000	0.000006	-0.000001	0.000000	0.000000
47.368050	16.052794	17.547921	1.438858	-1.818477	2.599370	0.000000	-0.232218	0.000000	0.000005	-0.000001	0.000000	0.000000
47.917110	14.265259	19.955361	1.797497	-2.592061	2.451343	0.000000	-0.306192	0.000000	0.000004	-0.000002	0.000000	0.000000
48.363070	12.874228	22.095764	1.332737	-2.187302	2.330086	0.000000	-0.237893	0.000000	0.000004	-0.000001	0.000000	0.000000
48.804030	11.879064	23.809505	0.932636	-1.684297	2.239645	0.000000	-0.172700	0.000000	0.000003	-0.000001	0.000000	0.000000
49.244990	11.216705	25.044021	0.575145	-1.104658	2.177491	0.000000	-0.109475	0.000000	0.000002	-0.000001	0.000000	0.000000
49.685950	10.856891	25.743140	0.243930	-0.474758	2.142916	0.000000	-0.047496	0.000000	0.000002	-0.000001	0.000000	0.000000
50.128160	10.783306	25.874771	-0.049813	0.113243	2.135536	0.000000	0.008705	0.000000	0.000001	-0.000001	0.000000	0.000000
50.425482	10.821146	25.810892	-0.077454	0.101605	2.138125	0.000000	0.008705	0.000000	0.000001	-0.000001	0.000000	0.000000
50.758816	10.883111	25.747505	-0.108443	0.088557	2.141027	0.000000	0.008705	0.000000	0.000000	-0.000001	0.000000	0.000000
51.092149	10.965736	25.692817	-0.139431	0.075509	2.143929	0.000000	0.008705	0.000000	0.000000	-0.000001	0.000000	0.000000
51.426732	11.069221	25.647191	-0.080736	-0.145650	2.146821	0.000000	-0.008711	0.000000	-0.000000	-0.000001	0.000000	0.000000
51.724055	11.125269	25.737321	-0.080488	-0.220605	2.144231	0.000000	-0.013969	0.000000	-0.000001	-0.000001	0.000000	0.000000
52.165015	11.341520	25.645534	-0.411784	0.427965	2.151660	0.000000	0.047694	0.000000	-0.000001	-0.000001	0.000000	0.000000
52.605975	11.857108	24.988195	-0.761892	1.057063	2.186374	0.000000	0.109900	0.000000	-0.000002	-0.000001	0.000000	0.000000
53.046935	12.695589	23.795212	-1.146810	1.638065	2.248767	0.000000	0.173357	0.000000	-0.000002	-0.000001	0.000000	0.000000
53.487895	13.895269	22.120864	-1.584122	2.144537	2.339552	0.000000	0.238790	0.000000	-0.000003	-0.000001	0.000000	0.000000
53.933855	15.531524	20.016300	-2.098035	2.554772	2.461265	0.000000	0.307340	0.000000	-0.000004	-0.000001	0.000000	0.000000
54.482915	17.638171	17.648113	-1.716078	1.783853	2.609834	0.000000	0.233036	0.000000	-0.000004	-0.000001	0.000000	0.000000
55.031975	19.255935	16.052167	-1.212905	1.139994	2.716409	0.000000	0.154598	0.000000	-0.000005	-0.000001	0.000000	0.000000
55.581035	20.270544	15.114784	-0.624059	0.577334	2.779099	0.000000	0.073418	0.000000	-0.000006	-0.000001	0.000000	0.000000
56.130095	20.610331	14.769197	0.008868	0.055796	2.796792	0.000000	-0.009064	0.000000	-0.000006	-0.000001	0.000000	0.000000
56.428668	20.641528	14.718924	-0.059502	0.073992	2.796268	0.000000	-0.001757	0.000000	-0.000006	-0.000001	0.000000	0.000000
56.762001	20.686598	14.677186	-0.075707	0.051221	2.795683	0.000000	-0.001757	0.000000	-0.000007	-0.000001	0.000000	0.000000
57.095334	20.742471	14.650629	-0.091913	0.028451	2.795098	0.000000	-0.001757	0.000000	-0.000007	-0.000001	0.000000	0.000000
57.429918	20.809419	14.639238	-0.108180	0.005595	2.794510	0.000000	-0.001757	0.000000	-0.000007	-0.000001	0.000000	0.000000
57.727240	20.878046	14.641950	-0.177189	0.023543	2.793988	0.000000	0.005544	0.000000	-0.000008	-0.000001	0.000000	0.000000
58.276300	20.716447	14.897241	0.469765	-0.491249	2.774394	0.000000	-0.076817	0.000000	-0.000008	-0.000001	0.000000	0.000000
58.825360	19.858512	15.733618	1.083538	-1.041031	2.709886	0.000000	-0.157815	0.000000	-0.000008	-0.000000	0.000000	0.000000
59.374420	18.364841	17.210652	1.620774	-1.664963	2.601609	0.000000	-0.236014	0.000000	-0.000008	-0.000000	0.000000	0.000000
59.923480	16.340939	19.433550	2.043528	-2.407487	2.451483	0.000000	-0.310026	0.000000	-0.000008	0.000000	0.000000	0.000000
60.369440	14.756858	21.409271	1.521119	-2.004076	2.328513	0.000000	-0.241746	0.000000	-0.000008	-0.000000	0.000000	0.000000
60.810400	13.617539	22.965136	1.072409	-1.510857	2.236361	0.000000	-0.176616	0.000000	-0.000008	-0.000000	0.000000	0.000000
61.251360	12.850927	24.053931	0.672694	-0.948894	2.172458	0.000000	-0.113497	0.000000	-0.000008	-0.000000	0.000000	0.000000
61.692320	12.421998	24.626116	0.303712	-0.343758	2.136076	0.000000	-0.051671	0.000000	-0.000009	-0.000001	0.000000	0.000000
62.134530	12.311209	24.655117	-0.021302	0.216498	2.126807	0.000000	0.004350	0.000000	-0.000009	-0.000001	0.000000	0.000000
62.431853	12.331060	24.530131	-0.045464	0.203874	2.128101	0.000000	0.004350	0.000000	-0.000009	-0.000001	0.000000	0.000000
62.765186	12.370399	24.398933	-0.072552	0.189720	2.129551	0.000000	0.004350	0.000000	-0.000010	-0.000001	0.000000	0.000000
63.098520	12.427796	24.277171	-0.099639	0.175566	2.131002	0.000000	0.004350	0.000000	-0.000010	-0.000001	0.000000	0.000000
63.433103	12.503568	24.164441	-0.126829	0.161360	2.132457	0.000000	0.004350	0.000000	-0.000010	-0.000001	0.000000	0.000000
63.730426	12.586170	24.072242	-0.120122	0.089697	2.133751	0.000000	-0.000883	0.000000	-0.000011	-0.000001	0.000000	0.000000
64.171386	12.852401	23.728033	-0.485922	0.687925	2.146901	0.000000	0.060583	0.000000	-0.000011	-0.000001	0.000000	0.000000
64.612346	13.449772	22.868073	-0.873922	1.254852	2.187283	0.000000	0.122740	0.000000	-0.000012	-0.000001	0.000000	0.000000
65.053306	14.405573	21.531492	-1.301849	1.764685	2.255354	0.000000	0.186294	0.000000	-0.000012	-0.000002	0.000000	0.000000
65.494266	15.763474	19.779102	-1.789254	2.194227	2.351892	0.000000	0.251970	0.000000	-0.000013	-0.000002	0.000000	0.000000
65.940226	17.608675	17.665841	-2.363096	2.524685	2.479567	0.000000	0.320918	0.000000	-0.000014	-0.000002	0.000000	0.000000
66.489286	19.974102	15.301779	-1.919544	1.806384	2.635407	0.000000	0.245903	0.000000	-0.000015	-0.000002	0.000000	0.000000
67.038346	21.774667	13.651638	-1.340404	1.216748	2.748798	0.000000	0.166526	0.000000	-0.000016	-0.000001	0.000000	0.000000
67.587406	22.883186	12.597883	-0.666586	0.713779	2.817731	0.000000	0.084195	0.000000	-0.000017	-0.000001	0.000000	0.000000
68.136466	23.221360	12.065457	0.054317	0.261650	2.840982	0.000000	0.000371	0.000000	-0.000017	-0.000000	0.000000	0.000000
68.435038	23.228999	11.898410	-0.019223	0.266306	2.843309	0.000000	0.007795	0.000000	-0.000017	-0.000000	0.000000	0.000000
68.768372	23.246600	11.730873	-0.033578	0.236304	2.845908	0.000000	0.007795	0.000000	-0.000017	-0.000000	0.000000	0.000000
69.101705	23.273770	11.583337	-0.047933	0.206303	2.848506	0.000000	0.007795	0.000000	-0.000018	-0.000000	0.000000	0.000000
69.436288	23.310666	11.455362	-0.062342	0.176188	2.851115	0.000000	0.007795	0.000000	-0.000018	-0.000000	0.000000	0.000000
69.733611	23.351544	11.358549	-0.136169	0.179110	2.853433	0.000000	0.015252	0.000000	-0.000018	-0.000000	0.000000	0.000000
70.282671	23.100021	11.389352	0.591556	-0.235543	2.838625	0.000000	-0.069112	0.000000	-0.000018	0.000000	0.000000	0.000000
