#ParticleID	Turn	x[m]	xp	y[m]	yp	z[m]	dE[GeV]# s	beta_x	beta_y	alpha_x	alpha_y	D_x	D_y	D_px	D_py	orbit_x	orbit_px	orbit_y	orbit_py
0.300000	11.828372	24.960468	-0.012880	-0.027715	2.618218	0.000000	-0.000028	0.000000	-0.000000	0.000000	0.000000	0.000000
0.601250	11.843805	24.980804	-0.038352	-0.039793	2.618210	0.000000	-0.000028	0.000000	0.000000	0.000000	0.000000	0.000000
0.898573	11.874086	25.008012	-0.034374	-0.113041	2.618201	0.000000	-0.006449	0.000000	0.000000	0.000000	0.000000	0.000000
1.339533	12.056712	24.830331	-0.381353	0.514449	2.631651	0.000000	0.067511	0.000000	0.000000	0.000000	0.000000	0.000000
1.780493	12.551843	24.107501	-0.745754	1.118531	2.677853	0.000000	0.142239	0.000000	0.000000	0.000000	0.000000	0.000000
2.221453	13.382100	22.872411	-1.144227	1.671722	2.757332	0.000000	0.218587	0.000000	0.000000	0.000000	0.000000	0.000000
2.662413	14.585414	21.181256	-1.594976	2.148850	2.870994	0.000000	0.297425	0.000000	0.000001	0.000000	0.000000	0.000000
3.108373	16.237558	19.086178	-2.122894	2.529338	3.021995	0.000000	0.380140	0.000000	0.000001	0.000000	0.000000	0.000000
3.657433	18.356117	16.733192	-1.712786	1.781440	3.205443	0.000000	0.287102	0.000000	0.000001	0.000000	0.000000	0.000000
4.206493	19.954825	15.127407	-1.181696	1.160430	3.336332	0.000000	0.188972	0.000000	0.000001	0.000000	0.000000	0.000000
4.755553	20.920757	14.154448	-0.567136	0.622075	3.412340	0.000000	0.087490	0.000000	0.000001	0.000000	0.000000	0.000000
5.304613	21.185684	13.745014	0.087483	0.128028	3.432121	0.000000	-0.015544	0.000000	0.000001	0.000000	0.000000	0.000000
5.603185	21.170710	13.653777	0.018022	0.141635	3.430157	0.000000	-0.006577	0.000000	0.000001	0.000000	0.000000	0.000000
5.936519	21.163946	13.567655	0.002271	0.116732	3.427965	0.000000	-0.006577	0.000000	0.000001	0.000000	0.000000	0.000000
6.269852	21.167681	13.498135	-0.013479	0.091829	3.425772	0.000000	-0.006577	0.000000	0.000002	0.000000	0.000000	0.000000
6.604435	21.181990	13.445049	-0.029288	0.066832	3.423572	0.000000	-0.006577	0.000000	0.000002	0.000000	0.000000	0.000000
6.901758	21.203583	13.411912	-0.098737	0.079662	3.421616	0.000000	0.002363	0.000000	0.000002	0.000000	0.000000	0.000000
7.450818	20.950570	13.584977	0.556820	-0.396725	3.394713	0.000000	-0.100215	0.000000	0.000002	0.000000	0.000000	0.000000
7.999878	19.995114	14.293526	1.173046	-0.901370	3.311895	0.000000	-0.201016	0.000000	0.000002	0.000000	0.000000	0.000000
8.548938	18.404703	15.588029	1.706414	-1.470217	3.174629	0.000000	-0.298251	0.000000	0.000002	0.000000	0.000000	0.000000
9.097998	16.291676	17.560689	2.119249	-2.143785	2.985351	0.000000	-0.390196	0.000000	0.000002	-0.000000	0.000000	0.000000
9.543958	14.643020	19.318486	1.590764	-1.781159	2.829645	0.000000	-0.308492	0.000000	0.000002	0.000000	0.000000	0.000000
9.984918	13.443742	20.699483	1.139253	-1.338722	2.710858	0.000000	-0.230787	0.000000	0.000002	0.000000	0.000000	0.000000
10.425878	12.618291	21.661834	0.739790	-0.835373	2.625725	0.000000	-0.155709	0.000000	0.000002	0.000000	0.000000	0.000000
10.866838	12.128954	22.161752	0.374127	-0.294016	2.573275	0.000000	-0.082406	0.000000	0.000002	0.000000	0.000000	0.000000
11.309048	11.953239	22.175975	0.054764	0.206278	2.552891	0.000000	-0.016301	0.000000	0.000002	0.000000	0.000000	0.000000
11.606371	11.928091	22.057469	0.029816	0.192300	2.548045	0.000000	-0.016301	0.000000	0.000002	0.000000	0.000000	0.000000
12.086371	11.918801	21.883693	-0.010461	0.169734	2.540220	0.000000	-0.016301	0.000000	0.000002	0.000000	0.000000	0.000000
12.566371	11.948176	21.731580	-0.050738	0.147168	2.532396	0.000000	-0.016301	0.000000	0.000002	0.000000	0.000000	0.000000
13.046371	12.016218	21.601131	-0.091015	0.124602	2.524571	0.000000	-0.016301	0.000000	0.000002	0.000000	0.000000	0.000000
13.526371	12.122925	21.492345	-0.131292	0.102036	2.516747	0.000000	-0.016301	0.000000	0.000002	0.000000	0.000000	0.000000
14.007621	12.268727	21.405024	-0.171674	0.079411	2.508902	0.000000	-0.016301	0.000000	0.000003	0.000000	0.000000	0.000000
14.304943	12.378230	21.361959	-0.166268	0.013048	2.504055	0.000000	-0.022441	0.000000	0.000003	0.000000	0.000000	0.000000
14.745903	12.683564	21.116620	-0.528791	0.541209	2.509790	0.000000	0.048476	0.000000	0.000003	0.000000	0.000000	0.000000
15.186863	13.318020	20.414606	-0.915474	1.044745	2.546888	0.000000	0.119945	0.000000	0.000003	0.000000	0.000000	0.000000
15.627823	14.310584	19.287858	-1.343981	1.500746	2.615772	0.000000	0.192781	0.000000	0.000003	0.000000	0.000000	0.000000
16.068783	15.706603	17.787643	-1.833892	1.888464	2.717227	0.000000	0.267812	0.000000	0.000003	0.000001	0.000000	0.000000
16.514743	17.593512	15.960717	-2.412345	2.191008	2.854102	0.000000	0.346355	0.000000	0.000004	0.000001	0.000000	0.000000
17.063803	20.016754	13.920672	-1.974966	1.546446	3.020544	0.000000	0.259033	0.000000	0.000004	0.000000	0.000000	0.000000
17.612863	21.879790	12.524155	-1.398084	1.012035	3.137707	0.000000	0.167116	0.000000	0.000004	0.000000	0.000000	0.000000
18.161923	23.051024	11.671697	-0.722449	0.549708	3.203513	0.000000	0.072235	0.000000	0.000004	0.000000	0.000000	0.000000
18.710983	23.447725	11.302577	0.004216	0.126536	3.216795	0.000000	-0.023927	0.000000	0.000004	0.000000	0.000000	0.000000
19.009556	23.485605	11.217461	-0.069822	0.129007	3.212160	0.000000	-0.015523	0.000000	0.000004	0.000000	0.000000	0.000000
19.342889	23.536906	11.141527	-0.084084	0.098797	3.206986	0.000000	-0.015523	0.000000	0.000004	0.000000	0.000000	0.000000
19.676223	23.597716	11.085732	-0.098346	0.068587	3.201811	0.000000	-0.015523	0.000000	0.000004	0.000000	0.000000	0.000000
20.010806	23.668609	11.049845	-0.229929	0.093011	3.196637	0.000000	0.000315	0.000000	0.000004	0.000000	0.000000	0.000000
20.308129	23.809268	11.002606	-0.305362	0.094618	3.196731	0.000000	0.008667	0.000000	0.000004	0.000000	0.000000	0.000000
20.857189	23.733951	11.121206	0.441725	-0.311898	3.175274	0.000000	-0.086713	0.000000	0.000004	-0.000000	0.000000	0.000000
21.406249	22.850591	11.695715	1.157610	-0.740628	3.101793	0.000000	-0.180554	0.000000	0.000004	-0.000000	0.000000	0.000000
21.955309	21.221584	12.767054	1.791728	-1.222113	2.977592	0.000000	-0.271194	0.000000	0.000004	-0.000000	0.000000	0.000000
22.504369	18.961995	14.411532	2.299287	-1.790645	2.804873	0.000000	-0.357023	0.000000	0.000004	-0.000000	0.000000	0.000000
22.950329	17.181371	15.887825	1.707596	-1.505762	2.662947	0.000000	-0.279822	0.000000	0.000004	-0.000000	0.000000	0.000000
23.391289	15.904691	17.064811	1.198616	-1.153225	2.555878	0.000000	-0.206262	0.000000	0.000004	-0.000000	0.000000	0.000000
23.832249	15.051137	17.906474	0.744399	-0.748217	2.480696	0.000000	-0.135052	0.000000	0.000004	-0.000000	0.000000	0.000000
24.273209	14.581713	18.374518	0.324190	-0.309166	2.436547	0.000000	-0.065380	0.000000	0.000004	-0.000000	0.000000	0.000000
24.715418	14.475086	18.447403	-0.045798	0.098646	2.422924	0.000000	-0.002394	0.000000	0.000004	0.000000	0.000000	0.000000
25.012741	14.508439	18.393582	-0.066381	0.082372	2.422212	0.000000	-0.002394	0.000000	0.000004	0.000000	0.000000	0.000000
25.346075	14.560386	18.344749	-0.089457	0.064127	2.421414	0.000000	-0.002394	0.000000	0.000004	0.000000	0.000000	0.000000
25.679408	14.627716	18.308079	-0.112534	0.045882	2.420616	0.000000	-0.002394	0.000000	0.000004	0.000000	0.000000	0.000000
26.013991	14.710471	18.283875	-0.016356	-0.120760	2.419790	0.000000	-0.022025	0.000000	0.000004	0.000000	0.000000	0.000000
26.311314	14.726208	18.360590	-0.000461	-0.182282	2.413242	0.000000	-0.027943	0.000000	0.000004	-0.000000	0.000000	0.000000
26.752274	14.908071	18.322179	-0.413530	0.269057	2.416029	0.000000	0.040595	0.000000	0.000004	0.000000	0.000000	0.000000
27.193234	15.461151	17.889622	-0.845491	0.708155	2.449111	0.000000	0.109596	0.000000	0.000004	0.000000	0.000000	0.000000
27.634194	16.410716	17.082597	-1.316081	1.115033	2.512866	0.000000	0.179844	0.000000	0.000004	0.000000	0.000000	0.000000
28.075154	17.800148	15.937826	-1.846799	1.471177	2.608020	0.000000	0.252141	0.000000	0.000004	0.000000	0.000000	0.000000
28.521114	19.717073	14.490152	-2.466849	1.761298	2.737258	0.000000	0.327753	0.000000	0.000004	0.000000	0.000000	0.000000
29.070174	22.153492	12.877020	-1.944319	1.194032	2.894553	0.000000	0.244365	0.000000	0.000004	0.000000	0.000000	0.000000
29.619234	23.936837	11.836737	-1.284452	0.711814	3.004804	0.000000	0.156642	0.000000	0.000005	0.000000	0.000000	0.000000
30.168294	24.941143	11.295205	-0.533857	0.280297	3.066055	0.000000	0.066141	0.000000	0.000005	0.000000	0.000000	0.000000
30.717354	25.095470	11.213852	0.254446	-0.131255	3.077219	0.000000	-0.025533	0.000000	0.000005	-0.000000	0.000000	0.000000
31.015927	24.986360	11.282767	0.176557	-0.128859	3.071996	0.000000	-0.017493	0.000000	0.000005	-0.000000	0.000000	0.000000
31.349260	24.873241	11.378685	0.162801	-0.158893	3.066165	0.000000	-0.017493	0.000000	0.000005	-0.000000	0.000000	0.000000
31.682593	24.769293	11.494624	0.149044	-0.188927	3.060334	0.000000	-0.017493	0.000000	0.000005	-0.000000	0.000000	0.000000
32.017177	24.674177	11.631135	0.135236	-0.219074	3.054481	0.000000	-0.017493	0.000000	0.000005	-0.000000	0.000000	0.000000
32.314499	24.597408	11.769371	0.058700	-0.215113	3.049280	0.000000	-0.009526	0.000000	0.000005	-0.000000	0.000000	0.000000
32.863559	24.111576	12.244921	0.820906	-0.656116	3.019171	0.000000	-0.099989	0.000000	0.000004	-0.000000	0.000000	0.000000
33.412619	22.815792	13.227412	1.525127	-1.143852	2.939807	0.000000	-0.188677	0.000000	0.000004	-0.000000	0.000000	0.000000
33.961679	20.801584	14.786825	2.121622	-1.713063	2.812596	0.000000	-0.274019	0.000000	0.000004	-0.000000	0.000000	0.000000
34.510739	18.211227	17.034234	2.568255	-2.404291	2.639794	0.000000	-0.354501	0.000000	0.000004	-0.000001	0.000000	0.000000
34.956699	16.197234	19.044396	1.964009	-2.084382	2.498041	0.000000	-0.281580	0.000000	0.000003	-0.000001	0.000000	0.000000
35.397659	14.695507	20.706421	1.454497	-1.670383	2.389256	0.000000	-0.212294	0.000000	0.000003	-0.000000	0.000000	0.000000
35.838619	13.612238	21.968297	1.011437	-1.180383	2.310461	0.000000	-0.145425	0.000000	0.000003	-0.000000	0.000000	0.000000
36.279579	12.897936	22.772608	0.614587	-0.636677	2.260759	0.000000	-0.080214	0.000000	0.000003	-0.000000	0.000000	0.000000
36.721789	12.519276	23.083061	0.276410	-0.120661	2.239558	0.000000	-0.021407	0.000000	0.000003	-0.000000	0.000000	0.000000
37.019112	12.362511	23.158697	0.250846	-0.133729	2.233194	0.000000	-0.021407	0.000000	0.000003	-0.000000	0.000000	0.000000
37.352445	12.204833	23.252734	0.222186	-0.148380	2.226058	0.000000	-0.021407	0.000000	0.000003	-0.000000	0.000000	0.000000
37.685779	12.066262	23.356537	0.193526	-0.163031	2.218922	0.000000	-0.021407	0.000000	0.000003	-0.000000	0.000000	0.000000
38.020362	11.946386	23.470552	0.164759	-0.177737	2.211760	0.000000	-0.021407	0.000000	0.000003	-0.000000	0.000000	0.000000
38.317684	11.856014	23.580128	0.168269	-0.248629	2.205395	0.000000	-0.026815	0.000000	0.000003	-0.000000	0.000000	0.000000
38.758644	11.858832	23.538236	-0.174684	0.343269	2.207496	0.000000	0.036356	0.000000	0.000002	-0.000000	0.000000	0.000000
39.199604	12.166470	22.979256	-0.525619	0.919549	2.237518	0.000000	0.099941	0.000000	0.000002	-0.000000	0.000000	0.000000
39.640564	12.792985	21.928623	-0.900567	1.453990	2.295803	0.000000	0.164664	0.000000	0.000002	-0.000000	0.000000	0.000000
40.081524	13.766998	20.434137	-1.316660	1.922276	2.383014	0.000000	0.231263	0.000000	0.000002	0.000000	0.000000	0.000000
40.527484	15.150575	18.541231	-1.796731	2.304378	2.501616	0.000000	0.300901	0.000000	0.000002	0.000000	0.000000	0.000000
41.076544	16.916396	16.414167	-1.400313	1.592499	2.646301	0.000000	0.225352	0.000000	0.000002	0.000000	0.000000	0.000000
41.625604	18.189680	15.002330	-0.904983	0.994051	2.748345	0.000000	0.145806	0.000000	0.000002	-0.000000	0.000000	0.000000
42.174664	18.880486	14.205156	-0.345730	0.466406	2.805939	0.000000	0.063673	0.000000	0.000002	-0.000000	0.000000	0.000000
42.723724	18.940020	13.965867	0.237943	-0.028017	2.818059	0.000000	-0.019588	0.000000	0.000002	-0.000000	0.000000	0.000000
43.022297	18.832357	13.967191	0.172133	-0.012908	2.814409	0.000000	-0.012226	0.000000	0.000002	-0.000000	0.000000	0.000000
43.502297	18.679706	13.996081	0.145890	-0.047280	2.808541	0.000000	-0.012226	0.000000	0.000002	-0.000000	0.000000	0.000000
43.982297	18.552249	14.057968	0.119647	-0.081652	2.802673	0.000000	-0.012226	0.000000	0.000002	-0.000000	0.000000	0.000000
44.462297	18.449984	14.152852	0.093403	-0.116024	2.796804	0.000000	-0.012226	0.000000	0.000002	-0.000000	0.000000	0.000000
44.942297	18.372914	14.280734	0.067160	-0.150396	2.790936	0.000000	-0.012226	0.000000	0.000002	-0.000000	0.000000	0.000000
45.423547	18.321161	14.441895	-0.049925	-0.113303	2.785070	0.000000	0.001573	0.000000	0.000002	-0.000000	0.000000	0.000000
45.720870	18.355686	14.515470	-0.114153	-0.096229	2.785538	0.000000	0.008851	0.000000	0.000002	-0.000000	0.000000	0.000000
46.269930	18.171960	14.901953	0.446792	-0.611824	2.767828	0.000000	-0.073266	0.000000	0.000002	-0.000000	0.000000	0.000000
46.818990	17.386012	15.875085	0.976177	-1.170998	2.705322	0.000000	-0.154084	0.000000	0.000001	-0.000000	0.000000	0.000000
47.368050	16.053359	17.504181	1.436610	-1.813580	2.599128	0.000000	-0.232169	0.000000	0.000001	-0.000000	0.000000	0.000000
47.917110	14.268131	19.905279	1.795568	-2.585339	2.451129	0.000000	-0.306136	0.000000	0.000001	-0.000000	0.000000	0.000000
48.363070	12.878759	22.040157	1.330933	-2.181688	2.329896	0.000000	-0.237842	0.000000	0.000001	-0.000000	0.000000	0.000000
48.804030	11.885162	23.749529	0.930873	-1.680041	2.239476	0.000000	-0.172654	0.000000	0.000001	-0.000000	0.000000	0.000000
49.244990	11.224371	24.980964	0.573341	-1.101954	2.177341	0.000000	-0.109432	0.000000	0.000001	-0.000000	0.000000	0.000000
49.685950	10.866194	25.678432	0.242004	-0.473729	2.142784	0.000000	-0.047457	0.000000	0.000000	-0.000000	0.000000	0.000000
50.128160	10.794400	25.809916	-0.051922	0.112707	2.135420	0.000000	0.008741	0.000000	0.000000	-0.000000	0.000000	0.000000
50.425482	10.833486	25.746364	-0.079540	0.101041	2.138019	0.000000	0.008741	0.000000	0.000000	-0.000000	0.000000	0.000000
50.758816	10.896834	25.683363	-0.110504	0.087962	2.140933	0.000000	0.008741	0.000000	0.000000	-0.000000	0.000000	0.000000
51.092149	10.980825	25.629082	-0.141467	0.074883	2.143847	0.000000	0.008741	0.000000	0.000000	-0.000000	0.000000	0.000000
51.426732	11.085664	25.583884	-0.082613	-0.145794	2.146750	0.000000	-0.008674	0.000000	-0.000000	-0.000000	0.000000	0.000000
51.724055	11.142818	25.674109	-0.082291	-0.220623	2.144171	0.000000	-0.013932	0.000000	-0.000000	-0.000000	0.000000	0.000000
52.165015	11.360849	25.583077	-0.414032	0.426279	2.151616	0.000000	0.047729	0.000000	-0.000000	-0.000000	0.000000	0.000000
52.605975	11.878654	24.927934	-0.764689	1.053785	2.186345	0.000000	0.109934	0.000000	-0.000000	-0.000000	0.000000	0.000000
53.046935	12.719889	23.738491	-1.150283	1.633346	2.248753	0.000000	0.173391	0.000000	-0.000001	-0.000000	0.000000	0.000000
53.487895	13.922987	22.068864	-1.588430	2.138590	2.339552	0.000000	0.238824	0.000000	-0.000001	-0.000000	0.000000	0.000000
53.933855	15.563535	19.970056	-2.103385	2.547865	2.461280	0.000000	0.307374	0.000000	-0.000001	-0.000000	0.000000	0.000000
54.482915	17.675640	17.608449	-1.720610	1.778705	2.609867	0.000000	0.233069	0.000000	-0.000001	-0.000000	0.000000	0.000000
55.031975	19.297782	16.017362	-1.216300	1.136239	2.716459	0.000000	0.154630	0.000000	-0.000001	-0.000000	0.000000	0.000000
55.581035	20.315381	15.083464	-0.626077	0.574704	2.779166	0.000000	0.073448	0.000000	-0.000001	-0.000000	0.000000	0.000000
56.130095	20.656558	14.740236	0.008370	0.054105	2.796875	0.000000	-0.009037	0.000000	-0.000001	-0.000000	0.000000	0.000000
56.428668	20.688114	14.691029	-0.060087	0.072189	2.796359	0.000000	-0.001729	0.000000	-0.000002	-0.000000	0.000000	0.000000
56.762001	20.733563	14.650505	-0.076257	0.049382	2.795782	0.000000	-0.001729	0.000000	-0.000002	-0.000000	0.000000	0.000000
57.095334	20.789791	14.625187	-0.092428	0.026574	2.795206	0.000000	-0.001729	0.000000	-0.000002	-0.000000	0.000000	0.000000
57.429918	20.857071	14.615064	-0.108659	0.003680	2.794628	0.000000	-0.001729	0.000000	-0.000002	-0.000000	0.000000	0.000000
57.727240	20.925973	14.618924	-0.177759	0.021534	2.794114	0.000000	0.005572	0.000000	-0.000002	-0.000000	0.000000	0.000000
58.276300	20.764116	14.876069	0.470804	-0.492635	2.774532	0.000000	-0.076793	0.000000	-0.000002	-0.000000	0.000000	0.000000
58.825360	19.904186	15.713673	1.086111	-1.041893	2.710036	0.000000	-0.157796	0.000000	-0.000002	-0.000000	0.000000	0.000000
59.374420	18.406924	17.191395	1.624702	-1.665362	2.601767	0.000000	-0.236000	0.000000	-0.000002	-0.000000	0.000000	0.000000
59.923480	16.378089	19.414492	2.048531	-2.407451	2.451648	0.000000	-0.310018	0.000000	-0.000002	0.000000	0.000000	0.000000
60.369440	14.790048	21.390467	1.525028	-2.004682	2.328683	0.000000	-0.241733	0.000000	-0.000002	-0.000000	0.000000	0.000000
60.810400	13.647693	22.947138	1.075410	-1.512071	2.236537	0.000000	-0.176599	0.000000	-0.000002	-0.000000	0.000000	0.000000
61.251360	12.878782	24.037253	0.674924	-0.950663	2.172642	0.000000	-0.113476	0.000000	-0.000002	-0.000000	0.000000	0.000000
61.692320	12.448188	24.611214	0.305274	-0.346000	2.136271	0.000000	-0.051645	0.000000	-0.000002	-0.000000	0.000000	0.000000
62.134530	12.336286	24.642370	-0.020277	0.213920	2.127015	0.000000	0.004382	0.000000	-0.000002	-0.000000	0.000000	0.000000
62.431853	12.355513	24.518915	-0.044389	0.201302	2.128317	0.000000	0.004382	0.000000	-0.000002	-0.000000	0.000000	0.000000
62.765186	12.394115	24.389429	-0.071420	0.187156	2.129778	0.000000	0.004382	0.000000	-0.000002	-0.000000	0.000000	0.000000
63.098520	12.450739	24.269373	-0.098452	0.173010	2.131239	0.000000	0.004382	0.000000	-0.000002	-0.000000	0.000000	0.000000
63.433103	12.525698	24.158351	-0.125585	0.158812	2.132705	0.000000	0.004382	0.000000	-0.000002	-0.000000	0.000000	0.000000
63.730426	12.607546	24.067666	-0.118778	0.087171	2.134007	0.000000	-0.000852	0.000000	-0.000002	-0.000000	0.000000	0.000000
64.171386	12.872795	23.725716	-0.485031	0.685344	2.147173	0.000000	0.060621	0.000000	-0.000003	-0.000000	0.000000	0.000000
64.612346	13.469564	22.868015	-0.873444	1.252333	2.187572	0.000000	0.122785	0.000000	-0.000003	-0.000000	0.000000	0.000000
65.053306	14.425117	21.533585	-1.301761	1.762343	2.255665	0.000000	0.186347	0.000000	-0.000003	-0.000000	0.000000	0.000000
65.494266	15.783111	19.783143	-1.789553	2.192167	2.352227	0.000000	0.252032	0.000000	-0.000003	-0.000000	0.000000	0.000000
65.940226	17.628757	17.671555	-2.363797	2.523007	2.479931	0.000000	0.320989	0.000000	-0.000003	-0.000001	0.000000	0.000000
66.489286	19.994520	15.309272	-1.919449	1.804801	2.635805	0.000000	0.245961	0.000000	-0.000004	-0.000000	0.000000	0.000000
67.038346	21.794544	13.660870	-1.339520	1.215147	2.749225	0.000000	0.166571	0.000000	-0.000004	-0.000000	0.000000	0.000000
67.587406	22.901685	12.608934	-0.664974	0.712046	2.818178	0.000000	0.084226	0.000000	-0.000004	-0.000000	0.000000	0.000000
68.136466	23.237740	12.078539	0.056542	0.259662	2.841441	0.000000	0.000387	0.000000	-0.000004	-0.000000	0.000000	0.000000
68.435038	23.244070	11.912643	-0.017024	0.264407	2.843774	0.000000	0.007812	0.000000	-0.000004	-0.000000	0.000000	0.000000
68.768372	23.260201	11.746351	-0.031369	0.234469	2.846378	0.000000	0.007812	0.000000	-0.000004	-0.000000	0.000000	0.000000
69.101705	23.285896	11.600018	-0.045714	0.204531	2.848982	0.000000	0.007812	0.000000	-0.000004	-0.000000	0.000000	0.000000
69.436288	23.321303	11.473207	-0.060112	0.174481	2.851595	0.000000	0.007812	0.000000	-0.000004	-0.000000	0.000000	0.000000
69.733611	23.360853	11.377392	-0.133947	0.177506	2.853918	0.000000	0.015269	0.000000	-0.000004	-0.000000	0.000000	0.000000
70.282671	23.106742	11.410252	0.594020	-0.237707	2.839115	0.000000	-0.069111	0.000000	-0.000004	0.000000	0.000000	0.000000
