#ParticleID	Turn	x[m]	xp	y[m]	yp	z[m]	dE[GeV]# s	beta_x	beta_y	alpha_x	alpha_y	D_x	D_y	D_px	D_py	orbit_x	orbit_px	orbit_y	orbit_py
0.300000	11.812601	25.022904	-0.010944	-0.027214	2.618125	0.000000	0.000007	0.000000	-0.000001	0.000001	0.000000	0.000000
0.601250	11.826879	25.042930	-0.036450	-0.039262	2.618127	0.000000	0.000007	0.000000	-0.000000	0.000001	0.000000	0.000000
0.898573	11.856038	25.069812	-0.032548	-0.112631	2.618128	0.000000	-0.006414	0.000000	0.000000	0.000001	0.000000	0.000000
1.339533	12.036858	24.891049	-0.379068	0.516483	2.631593	0.000000	0.067544	0.000000	0.000001	0.000001	0.000000	0.000000
1.780493	12.529735	24.165740	-0.742907	1.122097	2.677809	0.000000	0.142271	0.000000	0.000001	0.000001	0.000000	0.000000
2.221453	13.357185	22.926887	-1.140687	1.676657	2.757301	0.000000	0.218618	0.000000	0.000002	0.000001	0.000000	0.000000
2.662413	14.557014	21.230856	-1.590581	2.154930	2.870976	0.000000	0.297455	0.000000	0.000002	0.000001	0.000000	0.000000
3.108373	16.204780	19.129943	-2.117434	2.536288	3.021990	0.000000	0.380170	0.000000	0.000003	0.000001	0.000000	0.000000
3.657433	18.317771	16.770302	-1.708164	1.786680	3.205454	0.000000	0.287132	0.000000	0.000004	0.000001	0.000000	0.000000
4.206493	19.912017	15.159527	-1.178238	1.164333	3.336359	0.000000	0.189001	0.000000	0.000004	0.000001	0.000000	0.000000
4.755553	20.874908	14.182885	-0.565087	0.624919	3.412383	0.000000	0.087518	0.000000	0.000005	0.000001	0.000000	0.000000
5.304613	21.138429	13.770812	0.087979	0.130017	3.432178	0.000000	-0.015518	0.000000	0.000005	0.000001	0.000000	0.000000
5.603185	21.123094	13.678340	0.018611	0.143716	3.430222	0.000000	-0.006550	0.000000	0.000006	0.000001	0.000000	0.000000
5.936519	21.115949	13.590820	0.002825	0.118844	3.428038	0.000000	-0.006550	0.000000	0.000006	0.000001	0.000000	0.000000
6.269852	21.119328	13.519882	-0.012961	0.093971	3.425854	0.000000	-0.006550	0.000000	0.000006	0.000001	0.000000	0.000000
6.604435	21.133303	13.465353	-0.028807	0.069005	3.423662	0.000000	-0.006550	0.000000	0.000006	0.000001	0.000000	0.000000
6.901758	21.154619	13.430916	-0.098157	0.081910	3.421715	0.000000	0.002389	0.000000	0.000007	0.000001	0.000000	0.000000
7.450818	20.901873	13.601798	0.555757	-0.394973	3.394825	0.000000	-0.100192	0.000000	0.000007	0.000001	0.000000	0.000000
7.999878	19.948457	14.308638	1.170415	-0.899989	3.312017	0.000000	-0.200997	0.000000	0.000007	0.000000	0.000000	0.000000
8.548938	18.361715	15.601782	1.702402	-1.469110	3.174761	0.000000	-0.298236	0.000000	0.000008	0.000000	0.000000	0.000000
9.097998	16.253727	17.573339	2.114138	-2.142871	2.985490	0.000000	-0.390185	0.000000	0.000008	-0.000000	0.000000	0.000000
9.543958	14.609116	19.330092	1.586772	-1.779739	2.829790	0.000000	-0.308478	0.000000	0.000008	0.000000	0.000000	0.000000
9.984918	13.412938	20.709640	1.136188	-1.336865	2.711010	0.000000	-0.230769	0.000000	0.000008	0.000000	0.000000	0.000000
10.425878	12.589834	21.670191	0.737513	-0.833164	2.625885	0.000000	-0.155687	0.000000	0.000008	0.000001	0.000000	0.000000
10.866838	12.102198	22.168041	0.372533	-0.291554	2.573445	0.000000	-0.082379	0.000000	0.000008	0.000001	0.000000	0.000000
11.309048	11.927618	22.180016	0.053716	0.208873	2.553074	0.000000	-0.016270	0.000000	0.000009	0.000001	0.000000	0.000000
11.606371	11.903109	22.059970	0.028717	0.194883	2.548236	0.000000	-0.016270	0.000000	0.000009	0.000001	0.000000	0.000000
12.086371	11.894913	21.883723	-0.011642	0.172298	2.540426	0.000000	-0.016270	0.000000	0.000009	0.000001	0.000000	0.000000
12.566371	11.925461	21.729159	-0.052001	0.149712	2.532616	0.000000	-0.016270	0.000000	0.000010	0.000001	0.000000	0.000000
13.046371	11.994755	21.596275	-0.092360	0.127127	2.524807	0.000000	-0.016270	0.000000	0.000010	0.000001	0.000000	0.000000
13.526371	12.102792	21.485074	-0.132719	0.104542	2.516997	0.000000	-0.016270	0.000000	0.000011	0.000001	0.000000	0.000000
14.007621	12.250007	21.395350	-0.173183	0.081898	2.509166	0.000000	-0.016270	0.000000	0.000011	0.000001	0.000000	0.000000
14.304943	12.360422	21.350809	-0.167874	0.015555	2.504329	0.000000	-0.022411	0.000000	0.000011	0.000001	0.000000	0.000000
14.745903	12.667013	21.103408	-0.530043	0.543360	2.510078	0.000000	0.048514	0.000000	0.000012	0.000001	0.000000	0.000000
15.186863	13.302439	20.399691	-0.916429	1.046443	2.547194	0.000000	0.119991	0.000000	0.000012	0.000001	0.000000	0.000000
15.627823	14.295732	19.271675	-1.344684	1.501913	2.616099	0.000000	0.192835	0.000000	0.000013	0.000002	0.000000	0.000000
16.068783	15.692271	17.770684	-1.834374	1.889048	2.717579	0.000000	0.267874	0.000000	0.000014	0.000002	0.000000	0.000000
16.514743	17.579520	15.943512	-2.412629	2.190976	2.854484	0.000000	0.346428	0.000000	0.000015	0.000003	0.000000	0.000000
17.063803	20.003433	13.903312	-1.975896	1.546762	3.020961	0.000000	0.259092	0.000000	0.000016	0.000002	0.000000	0.000000
17.612863	21.867818	12.506249	-1.399595	1.012720	3.138152	0.000000	0.167161	0.000000	0.000017	0.000001	0.000000	0.000000
18.161923	23.040983	11.652814	-0.724434	0.550811	3.203978	0.000000	0.072265	0.000000	0.000018	0.000001	0.000000	0.000000
18.710983	23.440062	11.282219	0.001897	0.128136	3.217272	0.000000	-0.023912	0.000000	0.000018	0.000000	0.000000	0.000000
19.009556	23.479312	11.196201	-0.072121	0.130489	3.212641	0.000000	-0.015507	0.000000	0.000018	0.000000	0.000000	0.000000
19.342889	23.532149	11.119301	-0.086391	0.100210	3.207472	0.000000	-0.015507	0.000000	0.000018	0.000000	0.000000	0.000000
19.676223	23.594500	11.062588	-0.100662	0.069931	3.202303	0.000000	-0.015507	0.000000	0.000019	0.000000	0.000000	0.000000
20.010806	23.666946	11.025825	-0.232246	0.094167	3.197134	0.000000	0.000333	0.000000	0.000019	0.000000	0.000000	0.000000
20.308129	23.808986	10.977918	-0.307685	0.095641	3.197233	0.000000	0.008685	0.000000	0.000019	0.000001	0.000000	0.000000
20.857189	23.736212	11.095009	0.439443	-0.310157	3.175781	0.000000	-0.086711	0.000000	0.000019	-0.000000	0.000000	0.000000
21.406249	22.855261	11.667159	1.155530	-0.738047	3.102296	0.000000	-0.180569	0.000000	0.000019	-0.000001	0.000000	0.000000
21.955309	21.228359	12.735120	1.789997	-1.218506	2.978083	0.000000	-0.271224	0.000000	0.000018	-0.000001	0.000000	0.000000
22.504369	18.970422	14.374961	2.298027	-1.785756	2.805344	0.000000	-0.357069	0.000000	0.000017	-0.000002	0.000000	0.000000
22.950329	17.190938	15.847256	1.706288	-1.501722	2.663401	0.000000	-0.279856	0.000000	0.000017	-0.000001	0.000000	0.000000
23.391289	15.915453	17.021120	1.197202	-1.150214	2.556319	0.000000	-0.206285	0.000000	0.000016	-0.000001	0.000000	0.000000
23.832249	15.063217	17.860634	0.742813	-0.746372	2.481130	0.000000	-0.135064	0.000000	0.000016	-0.000001	0.000000	0.000000
24.273209	14.595294	18.327598	0.322360	-0.308571	2.436978	0.000000	-0.065380	0.000000	0.000016	-0.000000	0.000000	0.000000
24.715418	14.490424	18.400523	-0.047922	0.098084	2.423357	0.000000	-0.002384	0.000000	0.000016	0.000000	0.000000	0.000000
25.012741	14.525035	18.347048	-0.068487	0.081770	2.422649	0.000000	-0.002384	0.000000	0.000016	0.000000	0.000000	0.000000
25.346075	14.578379	18.298632	-0.091544	0.063480	2.421854	0.000000	-0.002384	0.000000	0.000016	0.000000	0.000000	0.000000
25.679408	14.647094	18.262408	-0.114601	0.045190	2.421059	0.000000	-0.002384	0.000000	0.000016	0.000000	0.000000	0.000000
26.013991	14.731225	18.238681	-0.018234	-0.121129	2.420237	0.000000	-0.022018	0.000000	0.000016	0.000000	0.000000	0.000000
26.311314	14.748071	18.315628	-0.002263	-0.182579	2.413691	0.000000	-0.027937	0.000000	0.000016	0.000000	0.000000	0.000000
26.752274	14.931766	18.278016	-0.415897	0.267550	2.416483	0.000000	0.040613	0.000000	0.000016	0.000000	0.000000	0.000000
27.193234	15.487221	17.847299	-0.848532	0.705505	2.449576	0.000000	0.109625	0.000000	0.000016	0.000001	0.000000	0.000000
27.634194	16.439814	17.043074	-1.319934	1.111360	2.513346	0.000000	0.179886	0.000000	0.000017	0.000001	0.000000	0.000000
28.075154	17.833067	15.901932	-1.851640	1.466649	2.608520	0.000000	0.252196	0.000000	0.000017	0.000002	0.000000	0.000000
28.521114	19.754836	14.458606	-2.472910	1.756119	2.737786	0.000000	0.327821	0.000000	0.000018	0.000002	0.000000	0.000000
29.070174	22.197414	12.850472	-1.949408	1.190054	2.895113	0.000000	0.244415	0.000000	0.000019	0.000002	0.000000	0.000000
29.619234	23.985647	11.814030	-1.288209	0.708754	3.005385	0.000000	0.156674	0.000000	0.000020	0.000001	0.000000	0.000000
30.168294	24.993222	11.275457	-0.536017	0.277937	3.066648	0.000000	0.066154	0.000000	0.000020	0.000000	0.000000	0.000000
30.717354	25.148968	11.196390	0.254036	-0.133083	3.077815	0.000000	-0.025540	0.000000	0.000020	-0.000000	0.000000	0.000000
31.015927	25.040174	11.266441	0.176044	-0.130788	3.072590	0.000000	-0.017499	0.000000	0.000020	-0.000000	0.000000	0.000000
31.349260	24.927386	11.363664	0.162320	-0.160880	3.066757	0.000000	-0.017499	0.000000	0.000020	-0.000000	0.000000	0.000000
31.682593	24.823748	11.480948	0.148595	-0.190973	3.060924	0.000000	-0.017499	0.000000	0.000020	-0.000000	0.000000	0.000000
32.017177	24.728922	11.618847	0.134819	-0.221178	3.055069	0.000000	-0.017499	0.000000	0.000020	-0.000000	0.000000	0.000000
32.314499	24.652393	11.758350	0.058176	-0.217302	3.049866	0.000000	-0.009532	0.000000	0.000020	-0.000000	0.000000	0.000000
32.863559	24.166130	12.236187	0.822209	-0.658115	3.019749	0.000000	-0.100013	0.000000	0.000019	-0.000001	0.000000	0.000000
33.412619	22.867947	13.220834	1.528166	-1.145803	2.940367	0.000000	-0.188720	0.000000	0.000019	-0.000002	0.000000	0.000000
33.961679	20.849542	14.782426	2.126181	-1.715104	2.813128	0.000000	-0.274080	0.000000	0.000018	-0.000002	0.000000	0.000000
34.510739	18.253485	17.032193	2.574013	-2.406569	2.640290	0.000000	-0.354578	0.000000	0.000016	-0.000003	0.000000	0.000000
34.956699	16.234938	19.044532	1.968499	-2.086965	2.498506	0.000000	-0.281644	0.000000	0.000015	-0.000002	0.000000	0.000000
35.397659	14.729726	20.708927	1.457936	-1.673151	2.389695	0.000000	-0.212347	0.000000	0.000014	-0.000002	0.000000	0.000000
35.838619	13.643829	21.973279	1.013981	-1.183209	2.310880	0.000000	-0.145467	0.000000	0.000013	-0.000002	0.000000	0.000000
36.279579	12.927633	22.780061	0.616353	-0.639433	2.261163	0.000000	-0.080245	0.000000	0.000013	-0.000001	0.000000	0.000000
36.721789	12.547725	23.092874	0.277545	-0.123240	2.239950	0.000000	-0.021429	0.000000	0.000012	-0.000001	0.000000	0.000000
37.019112	12.390271	23.170045	0.252025	-0.136311	2.233579	0.000000	-0.021429	0.000000	0.000012	-0.000001	0.000000	0.000000
37.352445	12.231792	23.265804	0.223413	-0.150965	2.226437	0.000000	-0.021429	0.000000	0.000012	-0.000001	0.000000	0.000000
37.685779	12.092387	23.371331	0.194801	-0.165619	2.219294	0.000000	-0.021429	0.000000	0.000012	-0.000001	0.000000	0.000000
38.020362	11.971642	23.487079	0.166083	-0.180327	2.212125	0.000000	-0.021429	0.000000	0.000011	-0.000001	0.000000	0.000000
38.317684	11.880469	23.598196	0.169693	-0.251262	2.205754	0.000000	-0.026837	0.000000	0.000011	-0.000001	0.000000	0.000000
38.758644	11.882274	23.558407	-0.173802	0.341151	2.207848	0.000000	0.036343	0.000000	0.000011	-0.000001	0.000000	0.000000
39.199604	12.189358	23.001032	-0.525238	0.918042	2.237866	0.000000	0.099937	0.000000	0.000010	-0.000000	0.000000	0.000000
39.640564	12.815751	21.951431	-0.900671	1.453163	2.296151	0.000000	0.164669	0.000000	0.000010	-0.000000	0.000000	0.000000
40.081524	13.790070	20.457360	-1.317253	1.922166	2.383367	0.000000	0.231277	0.000000	0.000010	0.000000	0.000000	0.000000
40.527484	15.174406	18.564225	-1.797843	2.304996	2.501977	0.000000	0.300924	0.000000	0.000011	0.000000	0.000000	0.000000
41.076544	16.940962	16.436801	-1.400529	1.592538	2.646672	0.000000	0.225363	0.000000	0.000011	0.000000	0.000000	0.000000
41.625604	18.213981	15.025236	-0.904288	0.993513	2.748719	0.000000	0.145805	0.000000	0.000011	-0.000000	0.000000	0.000000
42.174664	18.903542	14.228985	-0.344173	0.465254	2.806309	0.000000	0.063661	0.000000	0.000010	-0.000001	0.000000	0.000000
42.723724	18.960940	13.991334	0.240253	-0.029866	2.818419	0.000000	-0.019613	0.000000	0.000010	-0.000001	0.000000	0.000000
43.022297	18.851928	13.993712	0.174396	-0.014653	2.814762	0.000000	-0.012249	0.000000	0.000010	-0.000001	0.000000	0.000000
43.502297	18.697101	14.024247	0.148160	-0.048961	2.808883	0.000000	-0.012249	0.000000	0.000009	-0.000001	0.000000	0.000000
43.982297	18.567460	14.087718	0.121924	-0.083270	2.803004	0.000000	-0.012249	0.000000	0.000009	-0.000001	0.000000	0.000000
44.462297	18.463006	14.184125	0.095688	-0.117578	2.797124	0.000000	-0.012249	0.000000	0.000009	-0.000001	0.000000	0.000000
44.942297	18.383739	14.313468	0.069452	-0.151887	2.791245	0.000000	-0.012249	0.000000	0.000008	-0.000001	0.000000	0.000000
45.423547	18.329777	14.476034	-0.047668	-0.114562	2.785368	0.000000	0.001551	0.000000	0.000008	-0.000001	0.000000	0.000000
45.720870	18.362956	14.550345	-0.111901	-0.097355	2.785829	0.000000	0.008829	0.000000	0.000007	-0.000001	0.000000	0.000000
46.269930	18.176643	14.938653	0.449223	-0.614044	2.768105	0.000000	-0.073297	0.000000	0.000007	-0.000001	0.000000	0.000000
46.818990	17.388005	15.914892	0.978616	-1.174470	2.705580	0.000000	-0.154124	0.000000	0.000006	-0.000001	0.000000	0.000000
47.368050	16.052747	17.548597	1.438885	-1.818550	2.599362	0.000000	-0.232217	0.000000	0.000006	-0.000001	0.000000	0.000000
47.917110	14.265186	19.956131	1.797518	-2.592162	2.451336	0.000000	-0.306191	0.000000	0.000005	-0.000002	0.000000	0.000000
48.363070	12.874137	22.096617	1.332758	-2.187386	2.330080	0.000000	-0.237892	0.000000	0.000004	-0.000002	0.000000	0.000000
48.804030	11.878954	23.810424	0.932657	-1.684360	2.239640	0.000000	-0.172699	0.000000	0.000003	-0.000001	0.000000	0.000000
49.244990	11.216577	25.044985	0.575167	-1.104697	2.177486	0.000000	-0.109473	0.000000	0.000003	-0.000001	0.000000	0.000000
49.685950	10.856742	25.744128	0.243954	-0.474771	2.142911	0.000000	-0.047495	0.000000	0.000002	-0.000001	0.000000	0.000000
50.128160	10.783135	25.875759	-0.049786	0.113253	2.135532	0.000000	0.008706	0.000000	0.000002	-0.000001	0.000000	0.000000
50.425482	10.820958	25.811874	-0.077427	0.101615	2.138121	0.000000	0.008706	0.000000	0.000001	-0.000001	0.000000	0.000000
50.758816	10.882906	25.748479	-0.108416	0.088568	2.141024	0.000000	0.008706	0.000000	0.000001	-0.000001	0.000000	0.000000
51.092149	10.965513	25.693783	-0.139406	0.075521	2.143926	0.000000	0.008706	0.000000	0.000000	-0.000001	0.000000	0.000000
51.426732	11.068982	25.648149	-0.080712	-0.145646	2.146818	0.000000	-0.008710	0.000000	-0.000000	-0.000001	0.000000	0.000000
51.724055	11.125015	25.738276	-0.080466	-0.220602	2.144228	0.000000	-0.013968	0.000000	-0.000000	-0.000001	0.000000	0.000000
52.165015	11.341244	25.646476	-0.411755	0.427993	2.151658	0.000000	0.047695	0.000000	-0.000001	-0.000001	0.000000	0.000000
52.605975	11.856804	24.989101	-0.761856	1.057115	2.186372	0.000000	0.109901	0.000000	-0.000001	-0.000001	0.000000	0.000000
53.046935	12.695248	23.796062	-1.146764	1.638139	2.248766	0.000000	0.173358	0.000000	-0.000002	-0.000001	0.000000	0.000000
53.487895	13.894883	22.121642	-1.584065	2.144629	2.339551	0.000000	0.238791	0.000000	-0.000003	-0.000001	0.000000	0.000000
53.933855	15.531082	20.016989	-2.097964	2.554877	2.461265	0.000000	0.307341	0.000000	-0.000003	-0.000001	0.000000	0.000000
54.482915	17.637657	17.648701	-1.716018	1.783932	2.609834	0.000000	0.233037	0.000000	-0.000004	-0.000001	0.000000	0.000000
55.031975	19.255363	16.052680	-1.212861	1.140052	2.716409	0.000000	0.154599	0.000000	-0.000005	-0.000001	0.000000	0.000000
55.581035	20.269934	15.115243	-0.624034	0.577376	2.779100	0.000000	0.073419	0.000000	-0.000005	-0.000001	0.000000	0.000000
56.130095	20.609706	14.769618	0.008872	0.055824	2.796794	0.000000	-0.009064	0.000000	-0.000006	-0.000001	0.000000	0.000000
56.428668	20.640900	14.719327	-0.059496	0.074021	2.796270	0.000000	-0.001756	0.000000	-0.000006	-0.000001	0.000000	0.000000
56.762001	20.685966	14.677570	-0.075703	0.051251	2.795685	0.000000	-0.001756	0.000000	-0.000006	-0.000001	0.000000	0.000000
57.095334	20.741836	14.650992	-0.091909	0.028481	2.795100	0.000000	-0.001756	0.000000	-0.000007	-0.000001	0.000000	0.000000
57.429918	20.808782	14.639581	-0.108176	0.005626	2.794513	0.000000	-0.001756	0.000000	-0.000007	-0.000001	0.000000	0.000000
57.727240	20.877406	14.642274	-0.177184	0.023575	2.793991	0.000000	0.005545	0.000000	-0.000007	-0.000001	0.000000	0.000000
58.276300	20.715813	14.897536	0.469749	-0.491225	2.774396	0.000000	-0.076816	0.000000	-0.000008	-0.000001	0.000000	0.000000
58.825360	19.857907	15.733890	1.083501	-1.041014	2.709889	0.000000	-0.157814	0.000000	-0.000008	-0.000000	0.000000	0.000000
59.374420	18.364285	17.210910	1.620720	-1.664953	2.601612	0.000000	-0.236013	0.000000	-0.000008	-0.000000	0.000000	0.000000
59.923480	16.340451	19.433799	2.043460	-2.407482	2.451487	0.000000	-0.310026	0.000000	-0.000008	0.000000	0.000000	0.000000
60.369440	14.756425	21.409511	1.521066	-2.004062	2.328518	0.000000	-0.241745	0.000000	-0.000008	-0.000000	0.000000	0.000000
60.810400	13.617147	22.965360	1.072367	-1.510834	2.236365	0.000000	-0.176615	0.000000	-0.000008	-0.000000	0.000000	0.000000
61.251360	12.850566	24.054131	0.672662	-0.948865	2.172462	0.000000	-0.113497	0.000000	-0.000008	-0.000001	0.000000	0.000000
61.692320	12.421661	24.626288	0.303690	-0.343722	2.136081	0.000000	-0.051671	0.000000	-0.000009	-0.000001	0.000000	0.000000
62.134530	12.310889	24.655255	-0.021318	0.216538	2.126813	0.000000	0.004351	0.000000	-0.000009	-0.000001	0.000000	0.000000
62.431853	12.330750	24.530245	-0.045480	0.203913	2.128107	0.000000	0.004351	0.000000	-0.000009	-0.000001	0.000000	0.000000
62.765186	12.370099	24.399021	-0.072569	0.189759	2.129557	0.000000	0.004351	0.000000	-0.000010	-0.000001	0.000000	0.000000
63.098520	12.427508	24.277233	-0.099657	0.175606	2.131008	0.000000	0.004351	0.000000	-0.000010	-0.000001	0.000000	0.000000
63.433103	12.503292	24.164477	-0.126847	0.161399	2.132464	0.000000	0.004351	0.000000	-0.000010	-0.000001	0.000000	0.000000
63.730426	12.585906	24.072255	-0.120142	0.089736	2.133758	0.000000	-0.000882	0.000000	-0.000011	-0.000001	0.000000	0.000000
64.171386	12.852152	23.728012	-0.485936	0.687963	2.146909	0.000000	0.060584	0.000000	-0.000011	-0.000001	0.000000	0.000000
64.612346	13.449532	22.868020	-0.873932	1.254888	2.187290	0.000000	0.122741	0.000000	-0.000012	-0.000001	0.000000	0.000000
65.053306	14.405341	21.531409	-1.301854	1.764717	2.255363	0.000000	0.186296	0.000000	-0.000012	-0.000002	0.000000	0.000000
65.494266	15.763244	19.778993	-1.789255	2.194253	2.351901	0.000000	0.251972	0.000000	-0.000013	-0.000002	0.000000	0.000000
65.940226	17.608443	17.665711	-2.363093	2.524704	2.479577	0.000000	0.320920	0.000000	-0.000014	-0.000002	0.000000	0.000000
66.489286	19.973873	15.301628	-1.919550	1.806404	2.635417	0.000000	0.245905	0.000000	-0.000015	-0.000002	0.000000	0.000000
67.038346	21.774450	13.651465	-1.340420	1.216770	2.748810	0.000000	0.166527	0.000000	-0.000016	-0.000001	0.000000	0.000000
67.587406	22.882991	12.597686	-0.666609	0.713803	2.817743	0.000000	0.084196	0.000000	-0.000017	-0.000001	0.000000	0.000000
68.136466	23.221194	12.065231	0.054287	0.261679	2.840994	0.000000	0.000372	0.000000	-0.000017	-0.000000	0.000000	0.000000
68.435038	23.228851	11.898167	-0.019253	0.266334	2.843322	0.000000	0.007796	0.000000	-0.000017	-0.000000	0.000000	0.000000
68.768372	23.246472	11.730612	-0.033608	0.236331	2.845921	0.000000	0.007796	0.000000	-0.000018	-0.000000	0.000000	0.000000
69.101705	23.273662	11.583059	-0.047963	0.206328	2.848520	0.000000	0.007796	0.000000	-0.000018	-0.000000	0.000000	0.000000
69.436288	23.310578	11.455067	-0.062372	0.176213	2.851128	0.000000	0.007796	0.000000	-0.000018	-0.000000	0.000000	0.000000
69.733611	23.351475	11.358240	-0.136199	0.179133	2.853446	0.000000	0.015252	0.000000	-0.000018	-0.000000	0.000000	0.000000
70.282671	23.099985	11.389013	0.591524	-0.235511	2.838638	0.000000	-0.069112	0.000000	-0.000018	0.000000	0.000000	0.000000
