#ParticleID	Turn	x[m]	xp	y[m]	yp	z[m]	dE[GeV]# s	beta_x	beta_y	alpha_x	alpha_y	D_x	D_y	D_px	D_py	orbit_x	orbit_px	orbit_y	orbit_py
0.300000	11.818524	24.998807	-0.011613	-0.027451	2.618102	0.000000	0.000016	0.000000	0.000000	0.000001	0.000000	0.000000
0.601250	11.833201	25.018979	-0.037106	-0.039511	2.618107	0.000000	0.000016	0.000000	0.000000	0.000001	0.000000	0.000000
0.898573	11.862746	25.046012	-0.033176	-0.112833	2.618112	0.000000	-0.006404	0.000000	0.000001	0.000001	0.000000	0.000000
1.339533	12.044192	24.867705	-0.379865	0.515657	2.631581	0.000000	0.067553	0.000000	0.000001	0.000001	0.000000	0.000000
1.780493	12.537858	24.143388	-0.743909	1.120684	2.677800	0.000000	0.142280	0.000000	0.000001	0.000001	0.000000	0.000000
2.221453	13.366299	22.906017	-1.141940	1.674721	2.757297	0.000000	0.218627	0.000000	0.000001	0.000001	0.000000	0.000000
2.662413	14.567364	21.211893	-1.592143	2.152559	2.870976	0.000000	0.297464	0.000000	0.000002	0.000001	0.000000	0.000000
3.108373	16.216687	19.113250	-2.119379	2.533590	3.021994	0.000000	0.380179	0.000000	0.000002	0.000001	0.000000	0.000000
3.657433	18.331656	16.756196	-1.709800	1.784640	3.205463	0.000000	0.287141	0.000000	0.000003	0.000001	0.000000	0.000000
4.206493	19.927475	15.147369	-1.179450	1.162805	3.336373	0.000000	0.189009	0.000000	0.000003	0.000001	0.000000	0.000000
4.755553	20.891423	14.172175	-0.565789	0.623794	3.412401	0.000000	0.087526	0.000000	0.000003	0.000001	0.000000	0.000000
5.304613	21.155411	13.761154	0.087836	0.129215	3.432200	0.000000	-0.015511	0.000000	0.000004	0.000000	0.000000	0.000000
5.603185	21.140185	13.669179	0.018434	0.142880	3.430247	0.000000	-0.006543	0.000000	0.000004	0.000000	0.000000	0.000000
5.936519	21.133153	13.582220	0.002661	0.117997	3.428065	0.000000	-0.006543	0.000000	0.000004	0.000000	0.000000	0.000000
6.269852	21.136637	13.511850	-0.013112	0.093113	3.425884	0.000000	-0.006543	0.000000	0.000004	0.000000	0.000000	0.000000
6.604435	21.150708	13.457899	-0.028944	0.068136	3.423695	0.000000	-0.006543	0.000000	0.000004	0.000000	0.000000	0.000000
6.901758	21.172103	13.423981	-0.098330	0.081014	3.421749	0.000000	0.002397	0.000000	0.000004	0.000000	0.000000	0.000000
7.450818	20.919225	13.595744	0.556170	-0.395690	3.394863	0.000000	-0.100186	0.000000	0.000005	0.000000	0.000000	0.000000
7.999878	19.965046	14.303296	1.171384	-0.900579	3.312059	0.000000	-0.200992	0.000000	0.000005	0.000000	0.000000	0.000000
8.548938	18.376964	15.597037	1.703858	-1.469613	3.174805	0.000000	-0.298232	0.000000	0.000005	0.000000	0.000000	0.000000
9.097998	16.267154	17.569117	2.115980	-2.143325	2.985536	0.000000	-0.390183	0.000000	0.000005	-0.000000	0.000000	0.000000
9.543958	14.621084	19.326357	1.588215	-1.780374	2.829837	0.000000	-0.308475	0.000000	0.000005	-0.000000	0.000000	0.000000
9.984918	13.423782	20.706533	1.137301	-1.337651	2.711058	0.000000	-0.230764	0.000000	0.000005	0.000000	0.000000	0.000000
10.425878	12.599822	21.667831	0.738347	-0.834065	2.625936	0.000000	-0.155682	0.000000	0.000005	0.000000	0.000000	0.000000
10.866838	12.111559	22.166512	0.373126	-0.292530	2.573499	0.000000	-0.082372	0.000000	0.000005	0.000000	0.000000	0.000000
11.309048	11.936550	22.179366	0.054119	0.207868	2.553132	0.000000	-0.016262	0.000000	0.000005	0.000000	0.000000	0.000000
11.606371	11.911796	22.059916	0.029137	0.193883	2.548297	0.000000	-0.016262	0.000000	0.000005	0.000000	0.000000	0.000000
12.086371	11.903183	21.884626	-0.011193	0.171306	2.540491	0.000000	-0.016262	0.000000	0.000006	0.000000	0.000000	0.000000
12.566371	11.933288	21.731009	-0.051524	0.148729	2.532685	0.000000	-0.016262	0.000000	0.000006	0.000000	0.000000	0.000000
13.046371	12.002109	21.599065	-0.091854	0.126152	2.524879	0.000000	-0.016262	0.000000	0.000006	0.000000	0.000000	0.000000
13.526371	12.109648	21.488796	-0.132185	0.103576	2.517073	0.000000	-0.016262	0.000000	0.000006	0.000000	0.000000	0.000000
14.007621	12.256335	21.399998	-0.172620	0.080940	2.509247	0.000000	-0.016262	0.000000	0.000007	0.000000	0.000000	0.000000
14.304943	12.366410	21.356025	-0.167277	0.014587	2.504412	0.000000	-0.022403	0.000000	0.000007	0.000000	0.000000	0.000000
14.745903	12.672528	21.109410	-0.529564	0.542554	2.510166	0.000000	0.048524	0.000000	0.000007	0.000001	0.000000	0.000000
15.186863	13.307575	20.406318	-0.916045	1.045835	2.547287	0.000000	0.120003	0.000000	0.000007	0.000001	0.000000	0.000000
15.627823	14.300563	19.278740	-1.344377	1.501531	2.616198	0.000000	0.192849	0.000000	0.000008	0.000001	0.000000	0.000000
16.068783	15.696861	17.777981	-1.834130	1.888909	2.717686	0.000000	0.267892	0.000000	0.000008	0.000001	0.000000	0.000000
16.514743	17.583917	15.950820	-2.412437	2.191089	2.854599	0.000000	0.346448	0.000000	0.000009	0.000001	0.000000	0.000000
17.063803	20.007499	13.910583	-1.975490	1.546716	3.021087	0.000000	0.259109	0.000000	0.000009	0.000001	0.000000	0.000000
17.612863	21.871332	12.513660	-1.399003	1.012511	3.138286	0.000000	0.167173	0.000000	0.000010	0.000001	0.000000	0.000000
18.161923	23.043763	11.660549	-0.723698	0.550426	3.204118	0.000000	0.072273	0.000000	0.000010	0.000001	0.000000	0.000000
18.710983	23.441977	11.290486	0.002726	0.127546	3.217414	0.000000	-0.023909	0.000000	0.000011	0.000000	0.000000	0.000000
19.009556	23.480737	11.204799	-0.071299	0.129947	3.212785	0.000000	-0.015503	0.000000	0.000011	0.000000	0.000000	0.000000
19.342889	23.533026	11.128252	-0.085567	0.099695	3.207618	0.000000	-0.015503	0.000000	0.000011	0.000000	0.000000	0.000000
19.676223	23.594826	11.071872	-0.099835	0.069443	3.202450	0.000000	-0.015503	0.000000	0.000011	0.000000	0.000000	0.000000
20.010806	23.666718	11.035426	-0.231415	0.093755	3.197282	0.000000	0.000338	0.000000	0.000011	0.000000	0.000000	0.000000
20.308129	23.808263	10.987756	-0.306852	0.095282	3.197383	0.000000	0.008691	0.000000	0.000011	0.000000	0.000000	0.000000
20.857189	23.734592	11.105395	0.440234	-0.310800	3.175932	0.000000	-0.086710	0.000000	0.000011	-0.000000	0.000000	0.000000
21.406249	22.852820	11.678427	1.156224	-0.739020	3.102447	0.000000	-0.180573	0.000000	0.000011	-0.000000	0.000000	0.000000
21.955309	21.225233	12.747669	1.790544	-1.219879	2.978230	0.000000	-0.271233	0.000000	0.000011	-0.000001	0.000000	0.000000
22.504369	18.966794	14.389280	2.298388	-1.787627	2.805485	0.000000	-0.357083	0.000000	0.000010	-0.000001	0.000000	0.000000
22.950329	17.186974	15.863100	1.706686	-1.503256	2.663536	0.000000	-0.279866	0.000000	0.000010	-0.000001	0.000000	0.000000
23.391289	15.911117	17.038144	1.197653	-1.151344	2.556450	0.000000	-0.206292	0.000000	0.000009	-0.000001	0.000000	0.000000
23.832249	15.058452	17.878456	0.743338	-0.747046	2.481259	0.000000	-0.135067	0.000000	0.000009	-0.000000	0.000000	0.000000
24.273209	14.590023	18.345802	0.322984	-0.308758	2.437107	0.000000	-0.065380	0.000000	0.000009	-0.000000	0.000000	0.000000
24.715418	14.484547	18.418672	-0.047183	0.098344	2.423487	0.000000	-0.002381	0.000000	0.000009	0.000000	0.000000	0.000000
25.012741	14.518721	18.365038	-0.067755	0.082046	2.422779	0.000000	-0.002381	0.000000	0.000009	0.000000	0.000000	0.000000
25.346075	14.571579	18.316432	-0.090820	0.063773	2.421985	0.000000	-0.002381	0.000000	0.000009	0.000000	0.000000	0.000000
25.679408	14.639814	18.280008	-0.113884	0.045500	2.421191	0.000000	-0.002381	0.000000	0.000009	0.000000	0.000000	0.000000
26.013991	14.723468	18.256067	-0.017588	-0.120943	2.420370	0.000000	-0.022017	0.000000	0.000009	-0.000000	0.000000	0.000000
26.311314	14.739933	18.332898	-0.001645	-0.182421	2.413824	0.000000	-0.027936	0.000000	0.000009	-0.000000	0.000000	0.000000
26.752274	14.922993	18.294941	-0.415069	0.268172	2.416618	0.000000	0.040618	0.000000	0.000009	0.000000	0.000000	0.000000
27.193234	15.477613	17.863480	-0.847457	0.706563	2.449713	0.000000	0.109633	0.000000	0.000009	0.000000	0.000000	0.000000
27.634194	16.429132	17.058146	-1.318563	1.112807	2.513488	0.000000	0.179898	0.000000	0.000009	0.000001	0.000000	0.000000
28.075154	17.821022	15.915581	-1.849911	1.468418	2.608669	0.000000	0.252211	0.000000	0.000010	0.000001	0.000000	0.000000
28.521114	19.741058	14.470561	-2.470739	1.758131	2.737942	0.000000	0.327841	0.000000	0.000010	0.000001	0.000000	0.000000
29.070174	22.181436	12.860482	-1.947596	1.191606	2.895279	0.000000	0.244429	0.000000	0.000011	0.000001	0.000000	0.000000
29.619234	23.967935	11.822537	-1.286884	0.709956	3.005558	0.000000	0.156683	0.000000	0.000011	0.000000	0.000000	0.000000
30.168294	24.974366	11.282795	-0.535272	0.278876	3.066824	0.000000	0.066157	0.000000	0.000011	0.000000	0.000000	0.000000
30.717354	25.129639	11.202811	0.254148	-0.132342	3.077991	0.000000	-0.025542	0.000000	0.000011	-0.000000	0.000000	0.000000
31.015927	25.020754	11.272403	0.176191	-0.130008	3.072765	0.000000	-0.017501	0.000000	0.000011	-0.000000	0.000000	0.000000
31.349260	24.907872	11.369099	0.162455	-0.160079	3.066932	0.000000	-0.017501	0.000000	0.000011	-0.000000	0.000000	0.000000
31.682593	24.804147	11.485841	0.148720	-0.190149	3.061098	0.000000	-0.017501	0.000000	0.000011	-0.000000	0.000000	0.000000
32.017177	24.709242	11.623182	0.134932	-0.220333	3.055243	0.000000	-0.017501	0.000000	0.000011	-0.000000	0.000000	0.000000
32.314499	24.632647	11.762176	0.058326	-0.216425	3.050039	0.000000	-0.009532	0.000000	0.000011	-0.000000	0.000000	0.000000
32.863559	24.146581	12.239087	0.821704	-0.657297	3.019920	0.000000	-0.100019	0.000000	0.000011	-0.000001	0.000000	0.000000
33.412619	22.849298	13.222841	1.527042	-1.144986	2.940533	0.000000	-0.188732	0.000000	0.000010	-0.000001	0.000000	0.000000
33.961679	20.832433	14.783511	2.124517	-1.714231	2.813286	0.000000	-0.274096	0.000000	0.000010	-0.000001	0.000000	0.000000
34.510739	18.238448	17.032258	2.571927	-2.405576	2.640436	0.000000	-0.354600	0.000000	0.000009	-0.000002	0.000000	0.000000
34.956699	16.221553	19.043661	1.966868	-2.085868	2.498643	0.000000	-0.281662	0.000000	0.000008	-0.000001	0.000000	0.000000
35.397659	14.717609	20.707062	1.456682	-1.672002	2.389825	0.000000	-0.212361	0.000000	0.000008	-0.000001	0.000000	0.000000
35.838619	13.632674	21.970397	1.013046	-1.182061	2.311003	0.000000	-0.145479	0.000000	0.000007	-0.000001	0.000000	0.000000
36.279579	12.917178	22.776185	0.615694	-0.638337	2.261282	0.000000	-0.080253	0.000000	0.000007	-0.000001	0.000000	0.000000
36.721789	12.537742	23.088071	0.277110	-0.122238	2.240066	0.000000	-0.021435	0.000000	0.000007	-0.000001	0.000000	0.000000
37.019112	12.380552	23.164645	0.251575	-0.135308	2.233693	0.000000	-0.021435	0.000000	0.000007	-0.000001	0.000000	0.000000
37.352445	12.222378	23.259735	0.222947	-0.149961	2.226549	0.000000	-0.021435	0.000000	0.000006	-0.000001	0.000000	0.000000
37.685779	12.083289	23.364593	0.194319	-0.164614	2.219404	0.000000	-0.021435	0.000000	0.000006	-0.000001	0.000000	0.000000
38.020362	11.962872	23.479669	0.165584	-0.179323	2.212232	0.000000	-0.021435	0.000000	0.000006	-0.000001	0.000000	0.000000
38.317684	11.872001	23.590188	0.169160	-0.250240	2.205859	0.000000	-0.026844	0.000000	0.000006	-0.000001	0.000000	0.000000
38.758644	11.874191	23.549595	-0.174148	0.341947	2.207951	0.000000	0.036339	0.000000	0.000006	-0.000000	0.000000	0.000000
39.199604	12.181504	22.991631	-0.525412	0.918576	2.237969	0.000000	0.099936	0.000000	0.000006	-0.000000	0.000000	0.000000
39.640564	12.807977	21.941685	-0.900681	1.453410	2.296254	0.000000	0.164671	0.000000	0.000006	-0.000000	0.000000	0.000000
40.081524	13.782234	20.447528	-1.317100	1.922115	2.383470	0.000000	0.231281	0.000000	0.000006	0.000000	0.000000	0.000000
40.527484	15.166357	18.554572	-1.797519	2.304647	2.502083	0.000000	0.300931	0.000000	0.000006	0.000000	0.000000	0.000000
41.076544	16.932725	16.427393	-1.400512	1.592442	2.646781	0.000000	0.225367	0.000000	0.000006	0.000000	0.000000	0.000000
41.625604	18.205896	15.015799	-0.904580	0.993662	2.748829	0.000000	0.145805	0.000000	0.000006	-0.000000	0.000000	0.000000
42.174664	18.895940	14.219245	-0.344753	0.465659	2.806417	0.000000	0.063657	0.000000	0.000005	-0.000000	0.000000	0.000000
42.723724	18.954115	13.980997	0.239426	-0.029176	2.818525	0.000000	-0.019620	0.000000	0.000005	-0.000001	0.000000	0.000000
43.022297	18.845587	13.982983	0.173584	-0.014005	2.814866	0.000000	-0.012256	0.000000	0.000005	-0.000001	0.000000	0.000000
43.502297	18.691541	14.012908	0.147346	-0.048339	2.808983	0.000000	-0.012256	0.000000	0.000005	-0.000001	0.000000	0.000000
43.982297	18.562682	14.075793	0.121109	-0.082673	2.803101	0.000000	-0.012256	0.000000	0.000005	-0.000001	0.000000	0.000000
44.462297	18.459012	14.171640	0.094871	-0.117007	2.797218	0.000000	-0.012256	0.000000	0.000004	-0.000001	0.000000	0.000000
44.942297	18.380530	14.300447	0.068633	-0.151341	2.791335	0.000000	-0.012256	0.000000	0.000004	-0.000001	0.000000	0.000000
45.423547	18.327357	14.462501	-0.048476	-0.114109	2.785455	0.000000	0.001545	0.000000	0.000004	-0.000000	0.000000	0.000000
45.720870	18.361018	14.536547	-0.112710	-0.096955	2.785914	0.000000	0.008824	0.000000	0.000004	-0.000000	0.000000	0.000000
46.269930	18.175622	14.924183	0.448372	-0.613212	2.768186	0.000000	-0.073306	0.000000	0.000003	-0.000001	0.000000	0.000000
46.818990	17.387913	15.899247	0.977784	-1.173148	2.705655	0.000000	-0.154135	0.000000	0.000003	-0.000001	0.000000	0.000000
47.368050	16.053533	17.531189	1.438129	-1.816644	2.599431	0.000000	-0.232230	0.000000	0.000003	-0.000001	0.000000	0.000000
47.917110	14.266734	19.936251	1.796893	-2.589536	2.451396	0.000000	-0.306206	0.000000	0.000002	-0.000001	0.000000	0.000000
48.363070	12.876227	22.074584	1.332163	-2.185204	2.330133	0.000000	-0.237905	0.000000	0.000002	-0.000001	0.000000	0.000000
48.804030	11.881566	23.786698	0.932065	-1.682719	2.239687	0.000000	-0.172712	0.000000	0.000001	-0.000001	0.000000	0.000000
49.244990	11.219720	25.020079	0.574550	-1.103672	2.177528	0.000000	-0.109485	0.000000	0.000001	-0.000001	0.000000	0.000000
49.685950	10.860451	25.718607	0.243284	-0.474408	2.142948	0.000000	-0.047505	0.000000	0.000001	-0.000001	0.000000	0.000000
50.128160	10.787471	25.850218	-0.050529	0.112999	2.135564	0.000000	0.008697	0.000000	0.000000	-0.000001	0.000000	0.000000
50.425482	10.825734	25.786488	-0.078161	0.101350	2.138150	0.000000	0.008697	0.000000	0.000000	-0.000001	0.000000	0.000000
50.758816	10.888167	25.723274	-0.109140	0.088291	2.141049	0.000000	0.008697	0.000000	-0.000000	-0.000001	0.000000	0.000000
51.092149	10.971254	25.668766	-0.140119	0.075231	2.143949	0.000000	0.008697	0.000000	-0.000000	-0.000001	0.000000	0.000000
51.426732	11.075196	25.623330	-0.081365	-0.145746	2.146837	0.000000	-0.008720	0.000000	-0.000001	-0.000001	0.000000	0.000000
51.724055	11.131614	25.713520	-0.081090	-0.220654	2.144244	0.000000	-0.013978	0.000000	-0.000001	-0.000001	0.000000	0.000000
52.165015	11.348465	25.622054	-0.412545	0.427289	2.151669	0.000000	0.047685	0.000000	-0.000001	-0.000001	0.000000	0.000000
52.605975	11.864807	24.965578	-0.762848	1.055790	2.186379	0.000000	0.109891	0.000000	-0.000001	-0.000001	0.000000	0.000000
53.046935	12.704232	23.773959	-1.148004	1.636254	2.248769	0.000000	0.173349	0.000000	-0.000002	-0.000001	0.000000	0.000000
53.487895	13.905090	22.101417	-1.585609	2.142270	2.339550	0.000000	0.238781	0.000000	-0.000002	-0.000001	0.000000	0.000000
53.933855	15.542829	19.999042	-2.099886	2.552150	2.461259	0.000000	0.307332	0.000000	-0.000002	-0.000001	0.000000	0.000000
54.482915	17.651359	17.633357	-1.717636	1.781892	2.609823	0.000000	0.233028	0.000000	-0.000003	-0.000001	0.000000	0.000000
55.031975	19.270621	16.039266	-1.214060	1.138555	2.716393	0.000000	0.154590	0.000000	-0.000003	-0.000001	0.000000	0.000000
55.581035	20.286238	15.103225	-0.624729	0.576314	2.779079	0.000000	0.073411	0.000000	-0.000004	-0.000001	0.000000	0.000000
56.130095	20.626473	14.758562	0.008729	0.055123	2.796769	0.000000	-0.009071	0.000000	-0.000004	-0.000000	0.000000	0.000000
56.428668	20.657774	14.708711	-0.059670	0.073278	2.796243	0.000000	-0.001763	0.000000	-0.000004	-0.000000	0.000000	0.000000
56.762001	20.702952	14.667454	-0.075864	0.050494	2.795655	0.000000	-0.001763	0.000000	-0.000004	-0.000000	0.000000	0.000000
57.095334	20.758926	14.641386	-0.092057	0.027710	2.795068	0.000000	-0.001763	0.000000	-0.000004	-0.000000	0.000000	0.000000
57.429918	20.825966	14.630495	-0.108311	0.004841	2.794478	0.000000	-0.001763	0.000000	-0.000005	-0.000000	0.000000	0.000000
57.727240	20.894667	14.633659	-0.177351	0.022754	2.793954	0.000000	0.005537	0.000000	-0.000005	-0.000000	0.000000	0.000000
58.276300	20.732940	14.889690	0.470160	-0.491815	2.774355	0.000000	-0.076822	0.000000	-0.000005	-0.000000	0.000000	0.000000
58.825360	19.874277	15.726586	1.084461	-1.041415	2.709844	0.000000	-0.157819	0.000000	-0.000005	-0.000000	0.000000	0.000000
59.374420	18.379329	17.203955	1.622162	-1.665193	2.601565	0.000000	-0.236017	0.000000	-0.000005	-0.000000	0.000000	0.000000
59.923480	16.353692	19.427029	2.045281	-2.407579	2.451439	0.000000	-0.310028	0.000000	-0.000005	0.000000	0.000000	0.000000
60.369440	14.768222	21.402934	1.522493	-2.004397	2.328468	0.000000	-0.241749	0.000000	-0.000005	0.000000	0.000000	0.000000
60.810400	13.627832	22.959177	1.073470	-1.511389	2.236314	0.000000	-0.176620	0.000000	-0.000005	-0.000000	0.000000	0.000000
61.251360	12.860404	24.048526	0.673490	-0.949615	2.172409	0.000000	-0.113502	0.000000	-0.000005	-0.000000	0.000000	0.000000
61.692320	12.430876	24.621418	0.304280	-0.344633	2.136025	0.000000	-0.051678	0.000000	-0.000005	-0.000000	0.000000	0.000000
62.134530	12.319676	24.651247	-0.020916	0.215519	2.126752	0.000000	0.004342	0.000000	-0.000006	-0.000001	0.000000	0.000000
62.431853	12.339292	24.526842	-0.045061	0.202897	2.128044	0.000000	0.004342	0.000000	-0.000006	-0.000001	0.000000	0.000000
62.765186	12.378356	24.396294	-0.072130	0.188747	2.129491	0.000000	0.004342	0.000000	-0.000006	-0.000001	0.000000	0.000000
63.098520	12.435465	24.275179	-0.099198	0.174597	2.130939	0.000000	0.004342	0.000000	-0.000006	-0.000001	0.000000	0.000000
63.433103	12.510936	24.163096	-0.126369	0.160394	2.132392	0.000000	0.004342	0.000000	-0.000006	-0.000001	0.000000	0.000000
63.730426	12.593259	24.071471	-0.119629	0.088739	2.133683	0.000000	-0.000890	0.000000	-0.000006	-0.000000	0.000000	0.000000
64.171386	12.859123	23.728107	-0.485578	0.686971	2.146830	0.000000	0.060574	0.000000	-0.000007	-0.000001	0.000000	0.000000
64.612346	13.456249	22.868971	-0.873711	1.253947	2.187207	0.000000	0.122729	0.000000	-0.000007	-0.000001	0.000000	0.000000
65.053306	14.411920	21.533152	-1.301761	1.763869	2.255273	0.000000	0.186281	0.000000	-0.000007	-0.000001	0.000000	0.000000
65.494266	15.769796	19.781429	-1.789286	2.193536	2.351804	0.000000	0.251955	0.000000	-0.000008	-0.000001	0.000000	0.000000
65.940226	17.615079	17.668714	-2.363249	2.524154	2.479471	0.000000	0.320901	0.000000	-0.000008	-0.000001	0.000000	0.000000
66.489286	19.980531	15.305226	-1.919435	1.805863	2.635302	0.000000	0.245889	0.000000	-0.000009	-0.000001	0.000000	0.000000
67.038346	21.780836	13.655670	-1.340041	1.216199	2.748687	0.000000	0.166515	0.000000	-0.000010	-0.000001	0.000000	0.000000
67.587406	22.888828	12.602552	-0.665994	0.713162	2.817614	0.000000	0.084188	0.000000	-0.000010	-0.000001	0.000000	0.000000
68.136466	23.226246	12.070859	0.055096	0.260923	2.840862	0.000000	0.000368	0.000000	-0.000010	-0.000000	0.000000	0.000000
68.435038	23.233425	11.904232	-0.018451	0.265614	2.843188	0.000000	0.007791	0.000000	-0.000010	-0.000000	0.000000	0.000000
68.768372	23.250510	11.737149	-0.032803	0.235637	2.845786	0.000000	0.007791	0.000000	-0.000010	-0.000000	0.000000	0.000000
69.101705	23.277162	11.590050	-0.047155	0.205660	2.848383	0.000000	0.007791	0.000000	-0.000010	-0.000000	0.000000	0.000000
69.436288	23.313537	11.462496	-0.061561	0.175571	2.850990	0.000000	0.007791	0.000000	-0.000010	-0.000000	0.000000	0.000000
69.733611	23.353950	11.366044	-0.135387	0.178533	2.853306	0.000000	0.015247	0.000000	-0.000011	-0.000000	0.000000	0.000000
70.282671	23.101532	11.397598	0.592394	-0.236342	2.838497	0.000000	-0.069113	0.000000	-0.000011	0.000000	0.000000	0.000000
