#ParticleID	Turn	x[m]	xp	y[m]	yp	z[m]	dE[GeV]# s	beta_x	beta_y	alpha_x	alpha_y	D_x	D_y	D_px	D_py	orbit_x	orbit_px	orbit_y	orbit_py
0.300000	11.828844	24.958731	-0.012945	-0.027723	2.618227	0.000000	-0.000031	0.000000	0.000000	0.000000	0.000000	0.000000
0.601250	11.844316	24.979073	-0.038416	-0.039802	2.618217	0.000000	-0.000031	0.000000	0.000000	0.000000	0.000000	0.000000
0.898573	11.874635	25.006285	-0.034436	-0.113046	2.618208	0.000000	-0.006452	0.000000	0.000000	0.000000	0.000000	0.000000
1.339533	12.057322	24.828629	-0.381428	0.514398	2.631657	0.000000	0.067507	0.000000	0.000000	0.000000	0.000000	0.000000
1.780493	12.552527	24.105864	-0.745847	1.118438	2.677857	0.000000	0.142236	0.000000	0.000000	0.000000	0.000000	0.000000
2.221453	13.382875	22.870874	-1.144342	1.671589	2.757335	0.000000	0.218584	0.000000	0.000001	0.000000	0.000000	0.000000
2.662413	14.586302	21.179851	-1.595118	2.148685	2.870995	0.000000	0.297422	0.000000	0.000001	0.000000	0.000000	0.000000
3.108373	16.238588	19.084933	-2.123070	2.529147	3.021995	0.000000	0.380137	0.000000	0.000001	0.000000	0.000000	0.000000
3.657433	18.357327	16.732129	-1.712936	1.781297	3.205441	0.000000	0.287099	0.000000	0.000001	0.000000	0.000000	0.000000
4.206493	19.956181	15.126480	-1.181809	1.160324	3.336328	0.000000	0.188969	0.000000	0.000001	0.000000	0.000000	0.000000
4.755553	20.922214	14.153620	-0.567206	0.621999	3.412336	0.000000	0.087487	0.000000	0.000001	0.000000	0.000000	0.000000
5.304613	21.187190	13.744254	0.087463	0.127978	3.432114	0.000000	-0.015547	0.000000	0.000001	0.000000	0.000000	0.000000
5.603185	21.172230	13.653049	0.017999	0.141582	3.430150	0.000000	-0.006579	0.000000	0.000001	0.000000	0.000000	0.000000
5.936519	21.165481	13.566963	0.002250	0.116678	3.427957	0.000000	-0.006579	0.000000	0.000001	0.000000	0.000000	0.000000
6.269852	21.169231	13.497479	-0.013499	0.091774	3.425764	0.000000	-0.006579	0.000000	0.000001	0.000000	0.000000	0.000000
6.604435	21.183553	13.444431	-0.029307	0.066776	3.423562	0.000000	-0.006579	0.000000	0.000002	0.000000	0.000000	0.000000
6.901758	21.205157	13.411327	-0.098759	0.079604	3.421606	0.000000	0.002361	0.000000	0.000002	0.000000	0.000000	0.000000
7.450818	20.952140	13.584448	0.556850	-0.396768	3.394702	0.000000	-0.100217	0.000000	0.000002	0.000000	0.000000	0.000000
7.999878	19.996622	14.293037	1.173127	-0.901400	3.311882	0.000000	-0.201017	0.000000	0.000002	0.000000	0.000000	0.000000
8.548938	18.406097	15.587567	1.706540	-1.470237	3.174615	0.000000	-0.298252	0.000000	0.000002	0.000000	0.000000	0.000000
9.097998	16.292911	17.560245	2.119412	-2.143796	2.985337	0.000000	-0.390197	0.000000	0.000002	-0.000000	0.000000	0.000000
9.543958	14.644126	19.318059	1.590890	-1.781186	2.829631	0.000000	-0.308494	0.000000	0.000002	-0.000000	0.000000	0.000000
9.984918	13.444750	20.699087	1.139349	-1.338763	2.710843	0.000000	-0.230788	0.000000	0.000002	0.000000	0.000000	0.000000
10.425878	12.619226	21.661481	0.739861	-0.835428	2.625708	0.000000	-0.155712	0.000000	0.000002	0.000000	0.000000	0.000000
10.866838	12.129837	22.161452	0.374175	-0.294081	2.573257	0.000000	-0.082408	0.000000	0.000002	0.000000	0.000000	0.000000
11.309048	11.954088	22.175736	0.054795	0.206206	2.552873	0.000000	-0.016304	0.000000	0.000002	0.000000	0.000000	0.000000
11.606371	11.928921	22.057272	0.029848	0.192228	2.548025	0.000000	-0.016304	0.000000	0.000002	0.000000	0.000000	0.000000
12.086371	11.919599	21.883564	-0.010426	0.169663	2.540199	0.000000	-0.016304	0.000000	0.000002	0.000000	0.000000	0.000000
12.566371	11.948940	21.731520	-0.050700	0.147097	2.532373	0.000000	-0.016304	0.000000	0.000002	0.000000	0.000000	0.000000
13.046371	12.016944	21.601138	-0.090975	0.124531	2.524548	0.000000	-0.016304	0.000000	0.000002	0.000000	0.000000	0.000000
13.526371	12.123611	21.492420	-0.131249	0.101966	2.516722	0.000000	-0.016304	0.000000	0.000002	0.000000	0.000000	0.000000
14.007621	12.269371	21.405166	-0.171628	0.079341	2.508875	0.000000	-0.016304	0.000000	0.000002	0.000000	0.000000	0.000000
14.304943	12.378845	21.362142	-0.166219	0.012979	2.504028	0.000000	-0.022444	0.000000	0.000002	0.000000	0.000000	0.000000
14.745903	12.684143	21.116862	-0.528755	0.541146	2.509761	0.000000	0.048472	0.000000	0.000002	0.000000	0.000000	0.000000
15.186863	13.318571	20.414900	-0.915448	1.044691	2.546857	0.000000	0.119941	0.000000	0.000003	0.000000	0.000000	0.000000
15.627823	14.311117	19.288195	-1.343965	1.500704	2.615739	0.000000	0.192776	0.000000	0.000003	0.000000	0.000000	0.000000
16.068783	15.707126	17.788011	-1.833885	1.888436	2.717192	0.000000	0.267806	0.000000	0.000003	0.000000	0.000000	0.000000
16.514743	17.594032	15.961103	-2.412347	2.190995	2.854064	0.000000	0.346348	0.000000	0.000003	0.000001	0.000000	0.000000
17.063803	20.017263	13.921076	-1.974944	1.546427	3.020503	0.000000	0.259027	0.000000	0.000003	0.000000	0.000000	0.000000
17.612863	21.880263	12.524585	-1.398042	1.012008	3.137663	0.000000	0.167112	0.000000	0.000003	0.000000	0.000000	0.000000
18.161923	23.051440	11.672161	-0.722389	0.549672	3.203467	0.000000	0.072232	0.000000	0.000004	0.000000	0.000000	0.000000
18.710983	23.448067	11.303087	0.004290	0.126488	3.216747	0.000000	-0.023929	0.000000	0.000004	0.000000	0.000000	0.000000
19.009556	23.485902	11.217999	-0.069748	0.128961	3.212112	0.000000	-0.015524	0.000000	0.000004	0.000000	0.000000	0.000000
19.342889	23.537155	11.142094	-0.084010	0.098753	3.206937	0.000000	-0.015524	0.000000	0.000004	0.000000	0.000000	0.000000
19.676223	23.597916	11.086328	-0.098272	0.068545	3.201762	0.000000	-0.015524	0.000000	0.000004	0.000000	0.000000	0.000000
20.010806	23.668759	11.050469	-0.229855	0.092974	3.196588	0.000000	0.000313	0.000000	0.000004	0.000000	0.000000	0.000000
20.308129	23.809373	11.003251	-0.305288	0.094584	3.196681	0.000000	0.008665	0.000000	0.000004	0.000000	0.000000	0.000000
20.857189	23.733974	11.121898	0.441800	-0.311950	3.175223	0.000000	-0.086713	0.000000	0.000004	-0.000000	0.000000	0.000000
21.406249	22.850532	11.696476	1.157683	-0.740703	3.101742	0.000000	-0.180553	0.000000	0.000004	-0.000000	0.000000	0.000000
21.955309	21.221450	12.767912	1.791792	-1.222216	2.977542	0.000000	-0.271191	0.000000	0.000004	-0.000000	0.000000	0.000000
22.504369	18.961798	14.412521	2.299338	-1.790783	2.804826	0.000000	-0.357018	0.000000	0.000003	-0.000000	0.000000	0.000000
22.950329	17.181130	15.888929	1.707646	-1.505878	2.662902	0.000000	-0.279818	0.000000	0.000003	-0.000000	0.000000	0.000000
23.391289	15.904405	17.066004	1.198668	-1.153313	2.555833	0.000000	-0.206260	0.000000	0.000003	-0.000000	0.000000	0.000000
23.832249	15.050804	17.907731	0.744454	-0.748273	2.480653	0.000000	-0.135051	0.000000	0.000003	-0.000000	0.000000	0.000000
24.273209	14.581329	18.375811	0.324252	-0.309188	2.436504	0.000000	-0.065380	0.000000	0.000003	-0.000000	0.000000	0.000000
24.715418	14.474643	18.448699	-0.045727	0.098656	2.422881	0.000000	-0.002395	0.000000	0.000003	0.000000	0.000000	0.000000
25.012741	14.507955	18.394872	-0.066311	0.082383	2.422168	0.000000	-0.002395	0.000000	0.000003	0.000000	0.000000	0.000000
25.346075	14.559854	18.346032	-0.089388	0.064139	2.421370	0.000000	-0.002395	0.000000	0.000003	0.000000	0.000000	0.000000
25.679408	14.627139	18.309354	-0.112465	0.045895	2.420572	0.000000	-0.002395	0.000000	0.000003	0.000000	0.000000	0.000000
26.013991	14.709848	18.285140	-0.016293	-0.120756	2.419746	0.000000	-0.022026	0.000000	0.000003	-0.000000	0.000000	0.000000
26.311314	14.725548	18.361852	-0.000400	-0.182280	2.413197	0.000000	-0.027943	0.000000	0.000003	-0.000000	0.000000	0.000000
26.752274	14.907350	18.323425	-0.413452	0.269094	2.415983	0.000000	0.040593	0.000000	0.000003	0.000000	0.000000	0.000000
27.193234	15.460352	17.890821	-0.845393	0.708224	2.449065	0.000000	0.109593	0.000000	0.000003	0.000000	0.000000	0.000000
27.634194	16.409819	17.083723	-1.315957	1.115131	2.512818	0.000000	0.179840	0.000000	0.000003	0.000000	0.000000	0.000000
28.075154	17.799129	15.938854	-1.846644	1.471300	2.607970	0.000000	0.252136	0.000000	0.000003	0.000000	0.000000	0.000000
28.521114	19.715899	14.491061	-2.466656	1.761440	2.737206	0.000000	0.327747	0.000000	0.000004	0.000000	0.000000	0.000000
29.070174	22.152120	12.877793	-1.944155	1.194140	2.894498	0.000000	0.244360	0.000000	0.000004	0.000000	0.000000	0.000000
29.619234	23.935307	11.837406	-1.284329	0.711896	3.004746	0.000000	0.156639	0.000000	0.000004	0.000000	0.000000	0.000000
30.168294	24.939506	11.295795	-0.533785	0.280359	3.065996	0.000000	0.066140	0.000000	0.000004	0.000000	0.000000	0.000000
30.717354	25.093783	11.214384	0.254464	-0.131210	3.077160	0.000000	-0.025533	0.000000	0.000004	-0.000000	0.000000	0.000000
31.015927	24.984661	11.283271	0.176578	-0.128810	3.071937	0.000000	-0.017493	0.000000	0.000004	-0.000000	0.000000	0.000000
31.349260	24.871528	11.379155	0.162820	-0.158842	3.066106	0.000000	-0.017493	0.000000	0.000004	-0.000000	0.000000	0.000000
31.682593	24.767568	11.495061	0.149063	-0.188875	3.060275	0.000000	-0.017493	0.000000	0.000004	-0.000000	0.000000	0.000000
32.017177	24.672440	11.631535	0.135254	-0.219020	3.054423	0.000000	-0.017493	0.000000	0.000004	-0.000000	0.000000	0.000000
32.314499	24.595661	11.769739	0.058720	-0.215057	3.049222	0.000000	-0.009526	0.000000	0.000004	-0.000000	0.000000	0.000000
32.863559	24.109838	12.245231	0.820868	-0.656067	3.019113	0.000000	-0.099986	0.000000	0.000004	-0.000000	0.000000	0.000000
33.412619	22.814126	13.227671	1.525034	-1.143807	2.939751	0.000000	-0.188673	0.000000	0.000004	-0.000000	0.000000	0.000000
33.961679	20.800049	14.787035	2.121479	-1.713018	2.812543	0.000000	-0.274013	0.000000	0.000003	-0.000000	0.000000	0.000000
34.510739	18.209870	17.034393	2.568074	-2.404243	2.639745	0.000000	-0.354493	0.000000	0.000003	-0.000001	0.000000	0.000000
34.956699	16.196020	19.044507	1.963868	-2.084323	2.497995	0.000000	-0.281573	0.000000	0.000003	-0.000000	0.000000	0.000000
35.397659	14.694402	20.706478	1.454390	-1.670317	2.389212	0.000000	-0.212288	0.000000	0.000003	-0.000000	0.000000	0.000000
35.838619	13.611215	21.968293	1.011358	-1.180312	2.310419	0.000000	-0.145421	0.000000	0.000003	-0.000000	0.000000	0.000000
36.279579	12.896971	22.772541	0.614533	-0.636604	2.260719	0.000000	-0.080210	0.000000	0.000002	-0.000000	0.000000	0.000000
36.721789	12.518348	23.082931	0.276377	-0.120590	2.239519	0.000000	-0.021405	0.000000	0.000002	-0.000000	0.000000	0.000000
37.019112	12.361603	23.158524	0.250811	-0.133658	2.233155	0.000000	-0.021405	0.000000	0.000002	-0.000000	0.000000	0.000000
37.352445	12.203949	23.252514	0.222150	-0.148309	2.226020	0.000000	-0.021405	0.000000	0.000002	-0.000000	0.000000	0.000000
37.685779	12.065403	23.356270	0.193488	-0.162960	2.218885	0.000000	-0.021405	0.000000	0.000002	-0.000000	0.000000	0.000000
38.020362	11.945553	23.470237	0.164719	-0.177665	2.211723	0.000000	-0.021405	0.000000	0.000002	-0.000000	0.000000	0.000000
38.317684	11.855204	23.579770	0.168226	-0.248557	2.205359	0.000000	-0.026813	0.000000	0.000002	-0.000000	0.000000	0.000000
38.758644	11.858052	23.537819	-0.174709	0.343331	2.207461	0.000000	0.036357	0.000000	0.000002	-0.000000	0.000000	0.000000
39.199604	12.165705	22.978791	-0.525627	0.919598	2.237484	0.000000	0.099941	0.000000	0.000002	-0.000000	0.000000	0.000000
39.640564	12.792219	21.928121	-0.900559	1.454023	2.295768	0.000000	0.164663	0.000000	0.000002	-0.000000	0.000000	0.000000
40.081524	13.766218	20.433614	-1.316634	1.922292	2.382979	0.000000	0.231261	0.000000	0.000002	0.000000	0.000000	0.000000
40.527484	15.149764	18.540702	-1.796687	2.304376	2.501581	0.000000	0.300898	0.000000	0.000002	0.000000	0.000000	0.000000
41.076544	16.915554	16.413633	-1.400299	1.592510	2.646265	0.000000	0.225351	0.000000	0.000002	-0.000000	0.000000	0.000000
41.625604	18.188840	15.001777	-0.905001	0.994074	2.748308	0.000000	0.145806	0.000000	0.000002	-0.000000	0.000000	0.000000
42.174664	18.879682	14.204571	-0.345778	0.466444	2.805902	0.000000	0.063675	0.000000	0.000002	-0.000000	0.000000	0.000000
42.723724	18.939282	13.965232	0.237870	-0.027963	2.818023	0.000000	-0.019586	0.000000	0.000002	-0.000000	0.000000	0.000000
43.022297	18.831663	13.966525	0.172061	-0.012856	2.814374	0.000000	-0.012223	0.000000	0.000002	-0.000000	0.000000	0.000000
43.502297	18.679081	13.995365	0.145818	-0.047229	2.808507	0.000000	-0.012223	0.000000	0.000002	-0.000000	0.000000	0.000000
43.982297	18.551693	14.057205	0.119574	-0.081603	2.802640	0.000000	-0.012223	0.000000	0.000002	-0.000000	0.000000	0.000000
44.462297	18.449499	14.152043	0.093330	-0.115976	2.796773	0.000000	-0.012223	0.000000	0.000001	-0.000000	0.000000	0.000000
44.942297	18.372498	14.279880	0.067087	-0.150350	2.790906	0.000000	-0.012223	0.000000	0.000001	-0.000000	0.000000	0.000000
45.423547	18.320817	14.440998	-0.049997	-0.113264	2.785041	0.000000	0.001576	0.000000	0.000001	-0.000000	0.000000	0.000000
45.720870	18.355384	14.514550	-0.114225	-0.096193	2.785509	0.000000	0.008853	0.000000	0.000001	-0.000000	0.000000	0.000000
46.269930	18.171742	14.900977	0.446712	-0.611759	2.767801	0.000000	-0.073263	0.000000	0.000001	-0.000000	0.000000	0.000000
46.818990	17.385884	15.874020	0.976094	-1.170899	2.705296	0.000000	-0.154080	0.000000	0.000001	-0.000000	0.000000	0.000000
47.368050	16.053319	17.502986	1.436531	-1.813440	2.599105	0.000000	-0.232164	0.000000	0.000001	-0.000000	0.000000	0.000000
47.917110	14.268174	19.903902	1.795498	-2.585148	2.451109	0.000000	-0.306130	0.000000	0.000001	-0.000000	0.000000	0.000000
48.363070	12.878862	22.038623	1.330869	-2.181527	2.329878	0.000000	-0.237837	0.000000	0.000001	-0.000000	0.000000	0.000000
48.804030	11.885320	23.747870	0.930811	-1.679918	2.239460	0.000000	-0.172649	0.000000	0.000000	-0.000000	0.000000	0.000000
49.244990	11.224583	24.979214	0.573279	-1.101873	2.177327	0.000000	-0.109428	0.000000	0.000000	-0.000000	0.000000	0.000000
49.685950	10.866463	25.676630	0.241939	-0.473695	2.142771	0.000000	-0.047453	0.000000	0.000000	-0.000000	0.000000	0.000000
50.128160	10.794729	25.808105	-0.051993	0.112698	2.135409	0.000000	0.008745	0.000000	0.000000	-0.000000	0.000000	0.000000
50.425482	10.833857	25.744559	-0.079610	0.101031	2.138010	0.000000	0.008745	0.000000	0.000000	-0.000000	0.000000	0.000000
50.758816	10.897252	25.681565	-0.110573	0.087951	2.140925	0.000000	0.008745	0.000000	-0.000000	-0.000000	0.000000	0.000000
51.092149	10.981288	25.627291	-0.141536	0.074871	2.143840	0.000000	0.008745	0.000000	-0.000000	-0.000000	0.000000	0.000000
51.426732	11.086173	25.582101	-0.082676	-0.145792	2.146744	0.000000	-0.008671	0.000000	-0.000000	-0.000000	0.000000	0.000000
51.724055	11.143364	25.672325	-0.082352	-0.220618	2.144166	0.000000	-0.013929	0.000000	-0.000000	-0.000000	0.000000	0.000000
52.165015	11.361456	25.581309	-0.414107	0.426237	2.151612	0.000000	0.047732	0.000000	-0.000000	-0.000000	0.000000	0.000000
52.605975	11.879334	24.926224	-0.764782	1.053698	2.186342	0.000000	0.109938	0.000000	-0.000000	-0.000000	0.000000	0.000000
53.046935	12.720660	23.736875	-1.150398	1.633218	2.248752	0.000000	0.173395	0.000000	-0.000001	-0.000000	0.000000	0.000000
53.487895	13.923871	22.067378	-1.588571	2.138426	2.339552	0.000000	0.238827	0.000000	-0.000001	-0.000000	0.000000	0.000000
53.933855	15.564559	19.968729	-2.103560	2.547673	2.461282	0.000000	0.307378	0.000000	-0.000001	-0.000000	0.000000	0.000000
54.482915	17.676844	17.607305	-1.720759	1.778563	2.609870	0.000000	0.233072	0.000000	-0.000001	-0.000000	0.000000	0.000000
55.031975	19.299131	16.016350	-1.216413	1.136137	2.716464	0.000000	0.154633	0.000000	-0.000001	-0.000000	0.000000	0.000000
55.581035	20.316831	15.082547	-0.626146	0.574634	2.779173	0.000000	0.073451	0.000000	-0.000001	-0.000000	0.000000	0.000000
56.130095	20.658058	14.739380	0.008350	0.054062	2.796883	0.000000	-0.009034	0.000000	-0.000001	-0.000000	0.000000	0.000000
56.428668	20.689628	14.690200	-0.060110	0.072143	2.796368	0.000000	-0.001726	0.000000	-0.000001	-0.000000	0.000000	0.000000
56.762001	20.735091	14.649707	-0.076279	0.049334	2.795792	0.000000	-0.001726	0.000000	-0.000002	-0.000000	0.000000	0.000000
57.095334	20.791333	14.624421	-0.092448	0.026526	2.795217	0.000000	-0.001726	0.000000	-0.000002	-0.000000	0.000000	0.000000
57.429918	20.858627	14.614331	-0.108678	0.003631	2.794639	0.000000	-0.001726	0.000000	-0.000002	-0.000000	0.000000	0.000000
57.727240	20.927540	14.618221	-0.177781	0.021481	2.794126	0.000000	0.005574	0.000000	-0.000002	-0.000000	0.000000	0.000000
58.276300	20.765678	14.875412	0.470834	-0.492668	2.774546	0.000000	-0.076791	0.000000	-0.000002	-0.000000	0.000000	0.000000
58.825360	19.905687	15.713042	1.086192	-1.041908	2.710050	0.000000	-0.157794	0.000000	-0.000002	-0.000000	0.000000	0.000000
59.374420	18.408310	17.190773	1.624827	-1.665362	2.601783	0.000000	-0.235999	0.000000	-0.000002	-0.000000	0.000000	0.000000
59.923480	16.379317	19.413861	2.048693	-2.407435	2.451664	0.000000	-0.310017	0.000000	-0.000002	0.000000	0.000000	0.000000
60.369440	14.791148	21.389830	1.525153	-2.004686	2.328699	0.000000	-0.241732	0.000000	-0.000002	0.000000	0.000000	0.000000
60.810400	13.648696	22.946514	1.075506	-1.512095	2.236554	0.000000	-0.176597	0.000000	-0.000002	-0.000000	0.000000	0.000000
61.251360	12.879712	24.036658	0.674995	-0.950705	2.172660	0.000000	-0.113474	0.000000	-0.000002	-0.000000	0.000000	0.000000
61.692320	12.449065	24.610663	0.305323	-0.346059	2.136290	0.000000	-0.051642	0.000000	-0.000002	-0.000000	0.000000	0.000000
62.134530	12.337130	24.641878	-0.020247	0.213848	2.127035	0.000000	0.004385	0.000000	-0.000002	-0.000000	0.000000	0.000000
62.431853	12.356338	24.518465	-0.044357	0.201231	2.128339	0.000000	0.004385	0.000000	-0.000002	-0.000000	0.000000	0.000000
62.765186	12.394919	24.389027	-0.071386	0.187085	2.129800	0.000000	0.004385	0.000000	-0.000002	-0.000000	0.000000	0.000000
63.098520	12.451520	24.269019	-0.098416	0.172939	2.131262	0.000000	0.004385	0.000000	-0.000002	-0.000000	0.000000	0.000000
63.433103	12.526454	24.158044	-0.125547	0.158741	2.132729	0.000000	0.004385	0.000000	-0.000002	-0.000000	0.000000	0.000000
63.730426	12.608279	24.067401	-0.118737	0.087101	2.134033	0.000000	-0.000849	0.000000	-0.000002	-0.000000	0.000000	0.000000
64.171386	12.873499	23.725516	-0.485006	0.685269	2.147200	0.000000	0.060625	0.000000	-0.000002	-0.000000	0.000000	0.000000
64.612346	13.470252	22.867881	-0.873433	1.252256	2.187600	0.000000	0.122790	0.000000	-0.000002	-0.000000	0.000000	0.000000
65.053306	14.425802	21.533519	-1.301765	1.762268	2.255695	0.000000	0.186352	0.000000	-0.000003	-0.000000	0.000000	0.000000
65.494266	15.783805	19.783142	-1.789570	2.192097	2.352260	0.000000	0.252038	0.000000	-0.000003	-0.000000	0.000000	0.000000
65.940226	17.629474	17.671612	-2.363830	2.522945	2.479966	0.000000	0.320996	0.000000	-0.000003	-0.000000	0.000000	0.000000
66.489286	19.995258	15.309394	-1.919454	1.804746	2.635844	0.000000	0.245967	0.000000	-0.000003	-0.000000	0.000000	0.000000
67.038346	21.795272	13.661050	-1.339497	1.215095	2.749267	0.000000	0.166575	0.000000	-0.000003	-0.000000	0.000000	0.000000
67.587406	22.902374	12.609172	-0.664925	0.711992	2.818222	0.000000	0.084229	0.000000	-0.000003	-0.000000	0.000000	0.000000
68.136466	23.238362	12.078839	0.056614	0.259603	2.841486	0.000000	0.000389	0.000000	-0.000004	-0.000000	0.000000	0.000000
68.435038	23.244649	11.912977	-0.016954	0.264350	2.843819	0.000000	0.007813	0.000000	-0.000004	-0.000000	0.000000	0.000000
68.768372	23.260733	11.746723	-0.031298	0.234414	2.846423	0.000000	0.007813	0.000000	-0.000004	-0.000000	0.000000	0.000000
69.101705	23.286380	11.600426	-0.045642	0.204478	2.849028	0.000000	0.007813	0.000000	-0.000004	-0.000000	0.000000	0.000000
69.436288	23.321739	11.473650	-0.060040	0.174429	2.851642	0.000000	0.007813	0.000000	-0.000004	-0.000000	0.000000	0.000000
69.733611	23.361246	11.377865	-0.133876	0.177457	2.853965	0.000000	0.015270	0.000000	-0.000004	-0.000000	0.000000	0.000000
70.282671	23.107049	11.410787	0.594102	-0.237771	2.839162	0.000000	-0.069111	0.000000	-0.000004	0.000000	0.000000	0.000000
