#ParticleID	Turn	x[m]	xp	y[m]	yp	z[m]	dE[GeV]# s	beta_x	beta_y	alpha_x	alpha_y	D_x	D_y	D_px	D_py	orbit_x	orbit_px	orbit_y	orbit_py
0.300000	11.825441	24.971471	-0.012485	-0.027656	2.618168	0.000000	-0.000009	0.000000	-0.000000	0.000000	0.000000	0.000000
0.601250	11.840639	24.991771	-0.037964	-0.039729	2.618165	0.000000	-0.000009	0.000000	-0.000000	0.000000	0.000000	0.000000
0.898573	11.870691	25.018938	-0.034000	-0.112998	2.618162	0.000000	-0.006429	0.000000	0.000000	0.000000	0.000000	0.000000
1.339533	12.052950	24.841091	-0.380891	0.514780	2.631620	0.000000	0.067529	0.000000	0.000000	0.000000	0.000000	0.000000
1.780493	12.547628	24.117848	-0.745185	1.119135	2.677830	0.000000	0.142257	0.000000	0.000000	0.000000	0.000000	0.000000
2.221453	13.377325	22.882115	-1.143523	1.672571	2.757317	0.000000	0.218604	0.000000	0.000001	0.000000	0.000000	0.000000
2.662413	14.579948	21.190118	-1.594106	2.149906	2.870986	0.000000	0.297442	0.000000	0.000001	0.000000	0.000000	0.000000
3.108373	16.231227	19.094024	-2.121816	2.530552	3.021994	0.000000	0.380157	0.000000	0.000001	0.000001	0.000000	0.000000
3.657433	18.348683	16.739877	-1.711867	1.782351	3.205451	0.000000	0.287119	0.000000	0.000001	0.000000	0.000000	0.000000
4.206493	19.946500	15.133227	-1.181001	1.161103	3.336349	0.000000	0.188988	0.000000	0.000002	0.000000	0.000000	0.000000
4.755553	20.911816	14.159637	-0.566715	0.622558	3.412367	0.000000	0.087505	0.000000	0.000002	0.000000	0.000000	0.000000
5.304613	21.176445	13.749760	0.087601	0.128356	3.432155	0.000000	-0.015530	0.000000	0.000002	0.000000	0.000000	0.000000
5.603185	21.161388	13.658320	0.018158	0.141980	3.430196	0.000000	-0.006562	0.000000	0.000002	0.000000	0.000000	0.000000
5.936519	21.154535	13.571965	0.002401	0.117083	3.428008	0.000000	-0.006562	0.000000	0.000002	0.000000	0.000000	0.000000
6.269852	21.158187	13.502209	-0.013357	0.092185	3.425821	0.000000	-0.006562	0.000000	0.000002	0.000000	0.000000	0.000000
6.604435	21.172417	13.448883	-0.029173	0.067195	3.423625	0.000000	-0.006562	0.000000	0.000002	0.000000	0.000000	0.000000
6.901758	21.193943	13.415529	-0.098602	0.080039	3.421674	0.000000	0.002378	0.000000	0.000002	0.000000	0.000000	0.000000
7.450818	20.940961	13.588235	0.556631	-0.396444	3.394779	0.000000	-0.100202	0.000000	0.000003	0.000000	0.000000	0.000000
7.999878	19.985886	14.296519	1.172546	-0.901164	3.311966	0.000000	-0.201005	0.000000	0.000003	0.000000	0.000000	0.000000
8.548938	18.396179	15.590830	1.705639	-1.470073	3.174706	0.000000	-0.298243	0.000000	0.000003	0.000000	0.000000	0.000000
9.097998	16.284130	17.563361	2.118253	-2.143692	2.985431	0.000000	-0.390190	0.000000	0.000003	-0.000000	0.000000	0.000000
9.543958	14.636262	19.321030	1.589988	-1.780967	2.829729	0.000000	-0.308485	0.000000	0.000003	0.000000	0.000000	0.000000
9.984918	13.437584	20.701819	1.138660	-1.338441	2.710945	0.000000	-0.230777	0.000000	0.000003	0.000000	0.000000	0.000000
10.425878	12.612584	21.663887	0.739355	-0.835016	2.625816	0.000000	-0.155697	0.000000	0.000003	0.000000	0.000000	0.000000
10.866838	12.123570	22.163463	0.373828	-0.293599	2.573372	0.000000	-0.082391	0.000000	0.000003	0.000000	0.000000	0.000000
11.309048	11.948065	22.177298	0.054575	0.206733	2.552996	0.000000	-0.016284	0.000000	0.000003	0.000000	0.000000	0.000000
11.606371	11.923033	22.058521	0.029616	0.192753	2.548154	0.000000	-0.016284	0.000000	0.000003	0.000000	0.000000	0.000000
12.086371	11.913942	21.884311	-0.010677	0.170184	2.540338	0.000000	-0.016284	0.000000	0.000003	0.000000	0.000000	0.000000
12.566371	11.943533	21.731767	-0.050971	0.147616	2.532522	0.000000	-0.016284	0.000000	0.000004	0.000000	0.000000	0.000000
13.046371	12.011806	21.600889	-0.091264	0.125047	2.524705	0.000000	-0.016284	0.000000	0.000004	0.000000	0.000000	0.000000
13.526371	12.118761	21.491677	-0.131558	0.102478	2.516889	0.000000	-0.016284	0.000000	0.000004	0.000000	0.000000	0.000000
14.007621	12.264827	21.403932	-0.171956	0.079851	2.509052	0.000000	-0.016284	0.000000	0.000004	0.000000	0.000000	0.000000
14.304943	12.374501	21.360605	-0.166570	0.013491	2.504211	0.000000	-0.022424	0.000000	0.000004	0.000000	0.000000	0.000000
14.745903	12.680069	21.114896	-0.529019	0.541605	2.509954	0.000000	0.048497	0.000000	0.000004	0.000000	0.000000	0.000000
15.186863	13.314697	20.412560	-0.915636	1.045077	2.547062	0.000000	0.119971	0.000000	0.000005	0.000001	0.000000	0.000000
15.627823	14.307378	19.285554	-1.344086	1.500998	2.615958	0.000000	0.192811	0.000000	0.000005	0.000001	0.000000	0.000000
16.068783	15.703466	17.785156	-1.833944	1.888626	2.717427	0.000000	0.267847	0.000000	0.000005	0.000001	0.000000	0.000000
16.514743	17.590399	15.958130	-2.412348	2.191070	2.854319	0.000000	0.346396	0.000000	0.000006	0.000001	0.000000	0.000000
17.063803	20.013720	13.917993	-1.975105	1.546553	3.020781	0.000000	0.259066	0.000000	0.000006	0.000001	0.000000	0.000000
17.612863	21.876979	12.521332	-1.398351	1.012193	3.137959	0.000000	0.167141	0.000000	0.000006	0.000001	0.000000	0.000000
18.161923	23.048567	11.668665	-0.722824	0.549930	3.203776	0.000000	0.072252	0.000000	0.000007	0.000000	0.000000	0.000000
18.710983	23.445728	11.299260	0.003760	0.126837	3.217064	0.000000	-0.023919	0.000000	0.000007	0.000000	0.000000	0.000000
19.009556	23.483876	11.213974	-0.070273	0.129288	3.212432	0.000000	-0.015514	0.000000	0.000007	0.000000	0.000000	0.000000
19.342889	23.535479	11.137856	-0.084537	0.099066	3.207261	0.000000	-0.015514	0.000000	0.000007	0.000000	0.000000	0.000000
19.676223	23.596592	11.081886	-0.098802	0.068845	3.202089	0.000000	-0.015514	0.000000	0.000007	0.000000	0.000000	0.000000
20.010806	23.667791	11.045830	-0.230383	0.093237	3.196918	0.000000	0.000325	0.000000	0.000007	0.000000	0.000000	0.000000
20.308129	23.808720	10.998459	-0.305816	0.094822	3.197015	0.000000	0.008678	0.000000	0.000007	0.000000	0.000000	0.000000
20.857189	23.733909	11.116770	0.441263	-0.311572	3.175561	0.000000	-0.086711	0.000000	0.000007	-0.000000	0.000000	0.000000
21.406249	22.851045	11.690845	1.157173	-0.740158	3.102078	0.000000	-0.180562	0.000000	0.000007	-0.000000	0.000000	0.000000
21.955309	21.222491	12.761573	1.791346	-1.221465	2.977870	0.000000	-0.271211	0.000000	0.000007	-0.000000	0.000000	0.000000
22.504369	18.963279	14.405221	2.298987	-1.789773	2.805140	0.000000	-0.357049	0.000000	0.000006	-0.000001	0.000000	0.000000
22.950329	17.182921	15.880798	1.707297	-1.505034	2.663204	0.000000	-0.279841	0.000000	0.000006	-0.000001	0.000000	0.000000
23.391289	15.906508	17.057217	1.198307	-1.152673	2.556127	0.000000	-0.206275	0.000000	0.000006	-0.000000	0.000000	0.000000
23.832249	15.053238	17.898481	0.744063	-0.747867	2.480941	0.000000	-0.135058	0.000000	0.000006	-0.000000	0.000000	0.000000
24.273209	14.584127	18.366312	0.323814	-0.309033	2.436791	0.000000	-0.065380	0.000000	0.000006	-0.000000	0.000000	0.000000
24.715418	14.477858	18.439178	-0.046227	0.098576	2.423169	0.000000	-0.002388	0.000000	0.000006	0.000000	0.000000	0.000000
25.012741	14.511465	18.385401	-0.066807	0.082295	2.422459	0.000000	-0.002388	0.000000	0.000006	0.000000	0.000000	0.000000
25.346075	14.563694	18.336622	-0.089880	0.064042	2.421663	0.000000	-0.002388	0.000000	0.000006	0.000000	0.000000	0.000000
25.679408	14.631305	18.300011	-0.112953	0.045789	2.420867	0.000000	-0.002388	0.000000	0.000006	0.000000	0.000000	0.000000
26.013991	14.714339	18.275872	-0.016740	-0.120796	2.420043	0.000000	-0.022021	0.000000	0.000006	0.000000	0.000000	0.000000
26.311314	14.730303	18.352610	-0.000831	-0.182305	2.413496	0.000000	-0.027940	0.000000	0.000006	0.000000	0.000000	0.000000
26.752274	14.912538	18.314315	-0.414006	0.268819	2.416285	0.000000	0.040605	0.000000	0.000006	0.000000	0.000000	0.000000
27.193234	15.466092	17.882058	-0.846096	0.707713	2.449374	0.000000	0.109612	0.000000	0.000006	0.000000	0.000000	0.000000
27.634194	16.416257	17.075507	-1.316842	1.114406	2.513137	0.000000	0.179868	0.000000	0.000006	0.000000	0.000000	0.000000
28.075154	17.806442	15.931360	-1.847750	1.470394	2.608302	0.000000	0.252172	0.000000	0.000006	0.000001	0.000000	0.000000
28.521114	19.724316	14.484441	-2.468037	1.760394	2.737556	0.000000	0.327791	0.000000	0.000007	0.000001	0.000000	0.000000
29.070174	22.161946	12.872179	-1.945322	1.193342	2.894869	0.000000	0.244393	0.000000	0.000007	0.000001	0.000000	0.000000
29.619234	23.946259	11.832559	-1.285200	0.711289	3.005133	0.000000	0.156660	0.000000	0.000007	0.000000	0.000000	0.000000
30.168294	24.951222	11.291530	-0.534298	0.279900	3.066390	0.000000	0.066148	0.000000	0.000007	0.000000	0.000000	0.000000
30.717354	25.105848	11.210556	0.254344	-0.131553	3.077555	0.000000	-0.025537	0.000000	0.000007	-0.000000	0.000000	0.000000
31.015927	24.996813	11.279657	0.176435	-0.129175	3.072331	0.000000	-0.017497	0.000000	0.000007	-0.000000	0.000000	0.000000
31.349260	24.883773	11.375789	0.162685	-0.159220	3.066499	0.000000	-0.017497	0.000000	0.000007	-0.000000	0.000000	0.000000
31.682593	24.779900	11.491950	0.148935	-0.189265	3.060667	0.000000	-0.017497	0.000000	0.000007	-0.000000	0.000000	0.000000
32.017177	24.684855	11.628690	0.135133	-0.219422	3.054813	0.000000	-0.017497	0.000000	0.000007	-0.000000	0.000000	0.000000
32.314499	24.608146	11.767136	0.058576	-0.215478	3.049611	0.000000	-0.009529	0.000000	0.000007	-0.000000	0.000000	0.000000
32.863559	24.122252	12.243061	0.821140	-0.656437	3.019497	0.000000	-0.100002	0.000000	0.000007	-0.000000	0.000000	0.000000
33.412619	22.826021	13.225892	1.525703	-1.144154	2.940123	0.000000	-0.188701	0.000000	0.000007	-0.000001	0.000000	0.000000
33.961679	20.811012	14.785635	2.122497	-1.713365	2.812896	0.000000	-0.274053	0.000000	0.000007	-0.000001	0.000000	0.000000
34.510739	18.219556	17.033386	2.569369	-2.404616	2.640074	0.000000	-0.354544	0.000000	0.000006	-0.000001	0.000000	0.000000
34.956699	16.204683	19.043868	1.964876	-2.084770	2.498303	0.000000	-0.281616	0.000000	0.000006	-0.000001	0.000000	0.000000
35.397659	14.702284	20.706258	1.455158	-1.670817	2.389503	0.000000	-0.212323	0.000000	0.000005	-0.000001	0.000000	0.000000
35.838619	13.618512	21.968529	1.011922	-1.180843	2.310697	0.000000	-0.145449	0.000000	0.000005	-0.000001	0.000000	0.000000
36.279579	12.903852	22.773250	0.614918	-0.637141	2.260987	0.000000	-0.080231	0.000000	0.000005	-0.000000	0.000000	0.000000
36.721789	12.524961	23.084108	0.276616	-0.121111	2.239780	0.000000	-0.021419	0.000000	0.000005	-0.000000	0.000000	0.000000
37.019112	12.368070	23.160012	0.251061	-0.134180	2.233411	0.000000	-0.021419	0.000000	0.000005	-0.000000	0.000000	0.000000
37.352445	12.210246	23.254349	0.222411	-0.148832	2.226272	0.000000	-0.021419	0.000000	0.000004	-0.000000	0.000000	0.000000
37.685779	12.071522	23.358454	0.193761	-0.163483	2.219132	0.000000	-0.021419	0.000000	0.000004	-0.000000	0.000000	0.000000
38.020362	11.951485	23.472772	0.165004	-0.178190	2.211966	0.000000	-0.021419	0.000000	0.000004	-0.000000	0.000000	0.000000
38.317684	11.860965	23.582617	0.168535	-0.249088	2.205597	0.000000	-0.026828	0.000000	0.000004	-0.000000	0.000000	0.000000
38.758644	11.863598	23.541100	-0.174529	0.342882	2.207695	0.000000	0.036348	0.000000	0.000004	-0.000000	0.000000	0.000000
39.199604	12.171145	22.982423	-0.525566	0.919252	2.237715	0.000000	0.099939	0.000000	0.000004	-0.000000	0.000000	0.000000
39.640564	12.797657	21.932007	-0.900615	1.453796	2.295999	0.000000	0.164667	0.000000	0.000004	-0.000000	0.000000	0.000000
40.081524	13.771757	20.437644	-1.316810	1.922194	2.383213	0.000000	0.231271	0.000000	0.000004	0.000000	0.000000	0.000000
40.527484	15.155516	18.544758	-1.796991	2.304413	2.501820	0.000000	0.300914	0.000000	0.000004	0.000000	0.000000	0.000000
41.076544	16.921524	16.417701	-1.400390	1.592452	2.646510	0.000000	0.225358	0.000000	0.000004	0.000000	0.000000	0.000000
41.625604	18.194789	15.005962	-0.904872	0.993917	2.748556	0.000000	0.145805	0.000000	0.000004	-0.000000	0.000000	0.000000
42.174664	18.885372	14.208987	-0.345438	0.466177	2.806147	0.000000	0.063666	0.000000	0.000004	-0.000000	0.000000	0.000000
42.723724	18.944495	13.970009	0.238395	-0.028358	2.818262	0.000000	-0.019602	0.000000	0.000004	-0.000000	0.000000	0.000000
43.022297	18.836569	13.971528	0.172575	-0.013232	2.814608	0.000000	-0.012239	0.000000	0.000004	-0.000000	0.000000	0.000000
43.502297	18.683492	14.000725	0.146334	-0.047594	2.808734	0.000000	-0.012239	0.000000	0.000003	-0.000000	0.000000	0.000000
43.982297	18.555607	14.062908	0.120093	-0.081955	2.802859	0.000000	-0.012239	0.000000	0.000003	-0.000000	0.000000	0.000000
44.462297	18.452914	14.158079	0.093852	-0.116317	2.796985	0.000000	-0.012239	0.000000	0.000003	-0.000000	0.000000	0.000000
44.942297	18.375412	14.286237	0.067610	-0.150678	2.791110	0.000000	-0.012239	0.000000	0.000003	-0.000000	0.000000	0.000000
45.423547	18.323226	14.447665	-0.049483	-0.113547	2.785238	0.000000	0.001561	0.000000	0.000003	-0.000000	0.000000	0.000000
45.720870	18.357487	14.521383	-0.113713	-0.096451	2.785702	0.000000	0.008839	0.000000	0.000003	-0.000000	0.000000	0.000000
46.269930	18.173248	14.908210	0.447280	-0.612233	2.767984	0.000000	-0.073283	0.000000	0.000003	-0.000000	0.000000	0.000000
46.818990	17.386753	15.881905	0.976678	-1.171622	2.705467	0.000000	-0.154106	0.000000	0.000002	-0.000000	0.000000	0.000000
47.368050	16.053558	17.511825	1.437089	-1.814464	2.599260	0.000000	-0.232195	0.000000	0.000002	-0.000001	0.000000	0.000000
47.917110	14.267832	19.914064	1.795992	-2.586546	2.451246	0.000000	-0.306166	0.000000	0.000002	-0.000001	0.000000	0.000000
48.363070	12.878097	22.049938	1.331324	-2.182703	2.330000	0.000000	-0.237869	0.000000	0.000001	-0.000001	0.000000	0.000000
48.804030	11.884164	23.760105	0.931249	-1.680820	2.239568	0.000000	-0.172679	0.000000	0.000001	-0.000001	0.000000	0.000000
49.244990	11.223041	24.992108	0.573720	-1.102460	2.177423	0.000000	-0.109455	0.000000	0.000001	-0.000000	0.000000	0.000000
49.685950	10.864523	25.689893	0.242403	-0.473940	2.142855	0.000000	-0.047478	0.000000	0.000001	-0.000000	0.000000	0.000000
50.128160	10.792361	25.821428	-0.051491	0.112774	2.135483	0.000000	0.008722	0.000000	0.000001	-0.000000	0.000000	0.000000
50.425482	10.831192	25.757835	-0.079113	0.101113	2.138077	0.000000	0.008722	0.000000	0.000000	-0.000000	0.000000	0.000000
50.758816	10.894257	25.694784	-0.110081	0.088039	2.140984	0.000000	0.008722	0.000000	0.000000	-0.000000	0.000000	0.000000
51.092149	10.977967	25.640449	-0.141049	0.074966	2.143892	0.000000	0.008722	0.000000	0.000000	-0.000000	0.000000	0.000000
51.426732	11.082528	25.595194	-0.082224	-0.145797	2.146788	0.000000	-0.008694	0.000000	0.000000	-0.000000	0.000000	0.000000
51.724055	11.139453	25.685419	-0.081917	-0.220649	2.144203	0.000000	-0.013952	0.000000	-0.000000	-0.000000	0.000000	0.000000
52.165015	11.357117	25.594277	-0.413571	0.426552	2.151639	0.000000	0.047710	0.000000	-0.000000	-0.000000	0.000000	0.000000
52.605975	11.874470	24.938766	-0.764121	1.054345	2.186360	0.000000	0.109916	0.000000	-0.000001	-0.000000	0.000000	0.000000
53.046935	12.715147	23.748711	-1.149582	1.634167	2.248760	0.000000	0.173373	0.000000	-0.000001	-0.000000	0.000000	0.000000
53.487895	13.917557	22.078259	-1.587563	2.139635	2.339551	0.000000	0.238805	0.000000	-0.000001	-0.000001	0.000000	0.000000
53.933855	15.557242	19.978436	-2.102311	2.549086	2.461271	0.000000	0.307356	0.000000	-0.000001	-0.000001	0.000000	0.000000
54.482915	17.668248	17.615668	-1.719694	1.779611	2.609848	0.000000	0.233051	0.000000	-0.000002	-0.000000	0.000000	0.000000
55.031975	19.289502	16.023729	-1.215607	1.136894	2.716431	0.000000	0.154613	0.000000	-0.000002	-0.000000	0.000000	0.000000
55.581035	20.306486	15.089228	-0.625656	0.575155	2.779128	0.000000	0.073432	0.000000	-0.000002	-0.000000	0.000000	0.000000
56.130095	20.647365	14.745602	0.008489	0.054383	2.796829	0.000000	-0.009052	0.000000	-0.000002	-0.000000	0.000000	0.000000
56.428668	20.678838	14.696219	-0.059950	0.072488	2.796308	0.000000	-0.001744	0.000000	-0.000002	-0.000000	0.000000	0.000000
56.762001	20.724197	14.655494	-0.076128	0.049687	2.795727	0.000000	-0.001744	0.000000	-0.000002	-0.000000	0.000000	0.000000
57.095334	20.780341	14.629970	-0.092305	0.026886	2.795146	0.000000	-0.001744	0.000000	-0.000002	-0.000000	0.000000	0.000000
57.429918	20.847542	14.619635	-0.108543	0.004000	2.794563	0.000000	-0.001744	0.000000	-0.000003	-0.000000	0.000000	0.000000
57.727240	20.916377	14.623304	-0.177625	0.021871	2.794044	0.000000	0.005557	0.000000	-0.000003	-0.000000	0.000000	0.000000
58.276300	20.754549	14.880145	0.470615	-0.492417	2.774455	0.000000	-0.076806	0.000000	-0.000003	-0.000000	0.000000	0.000000
58.825360	19.894998	15.717568	1.085614	-1.041779	2.709952	0.000000	-0.157806	0.000000	-0.000003	-0.000000	0.000000	0.000000
59.374420	18.398437	17.195220	1.623930	-1.665345	2.601679	0.000000	-0.236007	0.000000	-0.000003	-0.000000	0.000000	0.000000
59.923480	16.370576	19.418350	2.047540	-2.407530	2.451557	0.000000	-0.310022	0.000000	-0.000003	0.000000	0.000000	0.000000
60.369440	14.783319	21.394340	1.524256	-2.004636	2.328589	0.000000	-0.241740	0.000000	-0.000003	-0.000000	0.000000	0.000000
60.810400	13.641561	22.950917	1.074821	-1.511905	2.236440	0.000000	-0.176608	0.000000	-0.000003	-0.000000	0.000000	0.000000
61.251360	12.873100	24.040835	0.674491	-0.950384	2.172540	0.000000	-0.113487	0.000000	-0.000003	-0.000000	0.000000	0.000000
61.692320	12.442827	24.614504	0.304977	-0.345620	2.136164	0.000000	-0.051659	0.000000	-0.000003	-0.000000	0.000000	0.000000
62.134530	12.331133	24.645286	-0.020465	0.214375	2.126901	0.000000	0.004364	0.000000	-0.000003	-0.000000	0.000000	0.000000
62.431853	12.350475	24.521560	-0.044587	0.201757	2.128198	0.000000	0.004364	0.000000	-0.000003	-0.000000	0.000000	0.000000
62.765186	12.389213	24.391772	-0.071630	0.187610	2.129653	0.000000	0.004364	0.000000	-0.000004	-0.000000	0.000000	0.000000
63.098520	12.445981	24.271414	-0.098673	0.173463	2.131108	0.000000	0.004364	0.000000	-0.000004	-0.000000	0.000000	0.000000
63.433103	12.521092	24.160090	-0.125817	0.159263	2.132569	0.000000	0.004364	0.000000	-0.000004	-0.000000	0.000000	0.000000
63.730426	12.603080	24.069136	-0.119031	0.087618	2.133866	0.000000	-0.000869	0.000000	-0.000004	-0.000000	0.000000	0.000000
64.171386	12.868510	23.726780	-0.485189	0.685817	2.147024	0.000000	0.060601	0.000000	-0.000004	-0.000000	0.000000	0.000000
64.612346	13.465379	22.868656	-0.873513	1.252813	2.187413	0.000000	0.122761	0.000000	-0.000004	-0.000001	0.000000	0.000000
65.053306	14.420956	21.533809	-1.301746	1.762806	2.255494	0.000000	0.186319	0.000000	-0.000005	-0.000001	0.000000	0.000000
65.494266	15.778898	19.782974	-1.789451	2.192593	2.352043	0.000000	0.251999	0.000000	-0.000005	-0.000001	0.000000	0.000000
65.940226	17.624413	17.671029	-2.363605	2.523376	2.479731	0.000000	0.320950	0.000000	-0.000005	-0.000001	0.000000	0.000000
66.489286	19.990056	15.308363	-1.919424	1.805135	2.635586	0.000000	0.245930	0.000000	-0.000006	-0.000001	0.000000	0.000000
67.038346	21.790146	13.659602	-1.339664	1.215470	2.748991	0.000000	0.166547	0.000000	-0.000006	-0.000001	0.000000	0.000000
67.587406	22.897535	12.607309	-0.665278	0.712380	2.817933	0.000000	0.084210	0.000000	-0.000006	-0.000000	0.000000	0.000000
68.136466	23.234001	12.076529	0.056101	0.260032	2.841189	0.000000	0.000379	0.000000	-0.000006	-0.000000	0.000000	0.000000
68.435038	23.240590	11.910419	-0.017460	0.264762	2.843519	0.000000	0.007803	0.000000	-0.000006	-0.000000	0.000000	0.000000
68.768372	23.257012	11.743894	-0.031807	0.234813	2.846120	0.000000	0.007803	0.000000	-0.000007	-0.000000	0.000000	0.000000
69.101705	23.282999	11.597334	-0.046154	0.204865	2.848721	0.000000	0.007803	0.000000	-0.000007	-0.000000	0.000000	0.000000
69.436288	23.318701	11.470304	-0.060555	0.174804	2.851332	0.000000	0.007803	0.000000	-0.000007	-0.000000	0.000000	0.000000
69.733611	23.358515	11.374300	-0.134387	0.177811	2.853652	0.000000	0.015259	0.000000	-0.000007	-0.000000	0.000000	0.000000
70.282671	23.104924	11.406776	0.593516	-0.237309	2.838846	0.000000	-0.069112	0.000000	-0.000007	0.000000	0.000000	0.000000
