#ParticleID	Turn	x[m]	xp	y[m]	yp	z[m]	dE[GeV]# s	beta_x	beta_y	alpha_x	alpha_y	D_x	D_y	D_px	D_py	orbit_x	orbit_px	orbit_y	orbit_py
0.300000	11.810715	25.030490	-0.010750	-0.027129	2.618150	0.000000	-0.000003	0.000000	-0.000001	0.000001	0.000000	0.000000
0.601250	11.824877	25.050463	-0.036260	-0.039173	2.618149	0.000000	-0.000003	0.000000	-0.000000	0.000001	0.000000	0.000000
0.898573	11.853924	25.077291	-0.032367	-0.112557	2.618147	0.000000	-0.006423	0.000000	-0.000000	0.000001	0.000000	0.000000
1.339533	12.034563	24.898376	-0.378835	0.516753	2.631608	0.000000	0.067535	0.000000	0.000001	0.000001	0.000000	0.000000
1.780493	12.527206	24.172747	-0.742610	1.122551	2.677819	0.000000	0.142262	0.000000	0.000001	0.000001	0.000000	0.000000
2.221453	13.354362	22.933420	-1.140312	1.677274	2.757308	0.000000	0.218610	0.000000	0.000002	0.000001	0.000000	0.000000
2.662413	14.553820	21.236783	-1.590113	2.155682	2.870980	0.000000	0.297447	0.000000	0.000002	0.000001	0.000000	0.000000
3.108373	16.201118	19.135151	-2.116849	2.537142	3.021990	0.000000	0.380162	0.000000	0.000003	0.000001	0.000000	0.000000
3.657433	18.313516	16.774692	-1.707676	1.787327	3.205449	0.000000	0.287124	0.000000	0.000004	0.000001	0.000000	0.000000
4.206493	19.907295	15.163298	-1.177880	1.164820	3.336349	0.000000	0.188993	0.000000	0.000004	0.000001	0.000000	0.000000
4.755553	20.869876	14.186193	-0.564885	0.625280	3.412369	0.000000	0.087510	0.000000	0.000005	0.000001	0.000000	0.000000
5.304613	21.133269	13.773781	0.088010	0.130277	3.432160	0.000000	-0.015525	0.000000	0.000006	0.000001	0.000000	0.000000
5.603185	21.117908	13.681149	0.018652	0.143988	3.430202	0.000000	-0.006558	0.000000	0.000006	0.000001	0.000000	0.000000
5.936519	21.110736	13.593447	0.002862	0.119118	3.428016	0.000000	-0.006558	0.000000	0.000006	0.000001	0.000000	0.000000
6.269852	21.114091	13.522325	-0.012928	0.094248	3.425829	0.000000	-0.006558	0.000000	0.000007	0.000001	0.000000	0.000000
6.604435	21.128045	13.467609	-0.028777	0.069286	3.423635	0.000000	-0.006558	0.000000	0.000007	0.000001	0.000000	0.000000
6.901758	21.149344	13.433004	-0.098117	0.082199	3.421685	0.000000	0.002382	0.000000	0.000007	0.000001	0.000000	0.000000
7.450818	20.896651	13.603600	0.555621	-0.394738	3.394792	0.000000	-0.100198	0.000000	0.000008	0.000001	0.000000	0.000000
7.999878	19.943477	14.310203	1.170113	-0.899790	3.311981	0.000000	-0.201002	0.000000	0.000008	0.000000	0.000000	0.000000
8.548938	18.357150	15.603142	1.701954	-1.468933	3.174722	0.000000	-0.298240	0.000000	0.000008	0.000000	0.000000	0.000000
9.097998	16.249719	17.574512	2.113577	-2.142705	2.985449	0.000000	-0.390188	0.000000	0.000008	-0.000000	0.000000	0.000000
9.543958	14.605554	19.331091	1.586330	-1.779519	2.829748	0.000000	-0.308482	0.000000	0.000008	0.000000	0.000000	0.000000
9.984918	13.409720	20.710424	1.135845	-1.336601	2.710966	0.000000	-0.230773	0.000000	0.000008	0.000000	0.000000	0.000000
10.425878	12.586880	21.670728	0.737254	-0.832868	2.625838	0.000000	-0.155693	0.000000	0.000009	0.000001	0.000000	0.000000
10.866838	12.099440	22.168308	0.372345	-0.291241	2.573396	0.000000	-0.082386	0.000000	0.000009	0.000001	0.000000	0.000000
11.309048	11.924997	22.180004	0.053585	0.209190	2.553021	0.000000	-0.016278	0.000000	0.000009	0.000001	0.000000	0.000000
11.606371	11.900568	22.059770	0.028581	0.195198	2.548181	0.000000	-0.016278	0.000000	0.000010	0.000001	0.000000	0.000000
12.086371	11.892507	21.883222	-0.011787	0.172610	2.540367	0.000000	-0.016278	0.000000	0.000010	0.000001	0.000000	0.000000
12.566371	11.923198	21.728358	-0.052154	0.150022	2.532553	0.000000	-0.016278	0.000000	0.000010	0.000001	0.000000	0.000000
13.046371	11.992642	21.595179	-0.092521	0.127434	2.524739	0.000000	-0.016278	0.000000	0.000011	0.000001	0.000000	0.000000
13.526371	12.100838	21.483685	-0.132888	0.104846	2.516925	0.000000	-0.016278	0.000000	0.000011	0.000001	0.000000	0.000000
14.007621	12.248220	21.393670	-0.173360	0.082199	2.509091	0.000000	-0.016278	0.000000	0.000012	0.000001	0.000000	0.000000
14.304943	12.358743	21.348951	-0.168061	0.015860	2.504250	0.000000	-0.022419	0.000000	0.000012	0.000001	0.000000	0.000000
14.745903	12.665484	21.101305	-0.530198	0.543608	2.509996	0.000000	0.048504	0.000000	0.000013	0.000001	0.000000	0.000000
15.186863	13.301035	20.397398	-0.916559	1.046623	2.547107	0.000000	0.119979	0.000000	0.000013	0.000002	0.000000	0.000000
15.627823	14.294434	19.269257	-1.344795	1.502017	2.616006	0.000000	0.192820	0.000000	0.000014	0.000002	0.000000	0.000000
16.068783	15.691065	17.768211	-1.834471	1.889070	2.717479	0.000000	0.267857	0.000000	0.000015	0.000002	0.000000	0.000000
16.514743	17.578396	15.941055	-2.412716	2.190917	2.854375	0.000000	0.346408	0.000000	0.000016	0.000003	0.000000	0.000000
17.063803	20.002439	13.900890	-1.976043	1.546758	3.020842	0.000000	0.259076	0.000000	0.000018	0.000002	0.000000	0.000000
17.612863	21.867013	12.503801	-1.399791	1.012772	3.138025	0.000000	0.167149	0.000000	0.000019	0.000002	0.000000	0.000000
18.161923	23.040414	11.650276	-0.724665	0.550923	3.203846	0.000000	0.072257	0.000000	0.000019	0.000001	0.000000	0.000000
18.710983	23.439759	11.279522	0.001647	0.128315	3.217136	0.000000	-0.023916	0.000000	0.000020	0.000000	0.000000	0.000000
19.009556	23.479157	11.193404	-0.072369	0.130652	3.212505	0.000000	-0.015512	0.000000	0.000020	0.000000	0.000000	0.000000
19.342889	23.532161	11.116399	-0.086641	0.100364	3.207334	0.000000	-0.015512	0.000000	0.000020	0.000000	0.000000	0.000000
19.676223	23.594679	11.059585	-0.100912	0.070076	3.202163	0.000000	-0.015512	0.000000	0.000020	0.000000	0.000000	0.000000
20.010806	23.667292	11.022728	-0.232498	0.094288	3.196993	0.000000	0.000328	0.000000	0.000020	0.000001	0.000000	0.000000
20.308129	23.809482	10.974751	-0.307939	0.095745	3.197090	0.000000	0.008680	0.000000	0.000021	0.000001	0.000000	0.000000
20.857189	23.736977	11.091678	0.439211	-0.309961	3.175637	0.000000	-0.086712	0.000000	0.000021	-0.000000	0.000000	0.000000
21.406249	22.856261	11.663557	1.155336	-0.737746	3.102153	0.000000	-0.180565	0.000000	0.000020	-0.000001	0.000000	0.000000
21.955309	21.229544	12.731120	1.789855	-1.218078	2.977943	0.000000	-0.271216	0.000000	0.000020	-0.000001	0.000000	0.000000
22.504369	18.971729	14.370408	2.297947	-1.785171	2.805210	0.000000	-0.357056	0.000000	0.000019	-0.000002	0.000000	0.000000
22.950329	17.192325	15.842227	1.706191	-1.501244	2.663272	0.000000	-0.279847	0.000000	0.000018	-0.000002	0.000000	0.000000
23.391289	15.916935	17.015727	1.197083	-1.149866	2.556193	0.000000	-0.206279	0.000000	0.000018	-0.000001	0.000000	0.000000
23.832249	15.064815	17.854996	0.742667	-0.746169	2.481007	0.000000	-0.135061	0.000000	0.000017	-0.000001	0.000000	0.000000
24.273209	14.597034	18.321849	0.322181	-0.308522	2.436856	0.000000	-0.065381	0.000000	0.000017	-0.000000	0.000000	0.000000
24.715418	14.492341	18.394799	-0.048139	0.097991	2.423234	0.000000	-0.002387	0.000000	0.000017	0.000000	0.000000	0.000000
25.012741	14.527081	18.341381	-0.068702	0.081672	2.422525	0.000000	-0.002387	0.000000	0.000017	0.000000	0.000000	0.000000
25.346075	14.580567	18.293031	-0.091756	0.063377	2.421729	0.000000	-0.002387	0.000000	0.000017	0.000000	0.000000	0.000000
25.679408	14.649422	18.256878	-0.114810	0.045082	2.420933	0.000000	-0.002387	0.000000	0.000017	0.000000	0.000000	0.000000
26.013991	14.733693	18.233225	-0.018421	-0.121198	2.420110	0.000000	-0.022020	0.000000	0.000017	0.000000	0.000000	0.000000
26.311314	14.750649	18.310214	-0.002441	-0.182639	2.413563	0.000000	-0.027938	0.000000	0.000017	0.000000	0.000000	0.000000
26.752274	14.934529	18.272720	-0.416141	0.267344	2.416354	0.000000	0.040608	0.000000	0.000017	0.000000	0.000000	0.000000
27.193234	15.490233	17.842246	-0.848853	0.705162	2.449444	0.000000	0.109617	0.000000	0.000018	0.000001	0.000000	0.000000
27.634194	16.443148	17.038377	-1.320346	1.110897	2.513210	0.000000	0.179875	0.000000	0.000018	0.000001	0.000000	0.000000
28.075154	17.836811	15.897689	-1.852163	1.466086	2.608378	0.000000	0.252181	0.000000	0.000019	0.000002	0.000000	0.000000
28.521114	19.759106	14.454899	-2.473569	1.755482	2.737636	0.000000	0.327802	0.000000	0.000020	0.000002	0.000000	0.000000
29.070174	22.202350	12.847382	-1.949954	1.189561	2.894954	0.000000	0.244401	0.000000	0.000021	0.000002	0.000000	0.000000
29.619234	23.991102	11.811419	-1.288604	0.708370	3.005220	0.000000	0.156665	0.000000	0.000022	0.000001	0.000000	0.000000
30.168294	24.999014	11.273219	-0.536233	0.277635	3.066480	0.000000	0.066151	0.000000	0.000022	0.000000	0.000000	0.000000
30.717354	25.154892	11.194450	0.254014	-0.133325	3.077646	0.000000	-0.025537	0.000000	0.000022	-0.000000	0.000000	0.000000
31.015927	25.046118	11.264651	0.176011	-0.131042	3.072422	0.000000	-0.017498	0.000000	0.000022	-0.000000	0.000000	0.000000
31.349260	24.933351	11.362045	0.162290	-0.161141	3.066589	0.000000	-0.017498	0.000000	0.000022	-0.000000	0.000000	0.000000
31.682593	24.829731	11.479506	0.148569	-0.191240	3.060757	0.000000	-0.017498	0.000000	0.000022	-0.000000	0.000000	0.000000
32.017177	24.734922	11.617586	0.134796	-0.221452	3.054903	0.000000	-0.017498	0.000000	0.000022	-0.000000	0.000000	0.000000
32.314499	24.658405	11.757254	0.058141	-0.217586	3.049700	0.000000	-0.009531	0.000000	0.000021	-0.000000	0.000000	0.000000
32.863559	24.172070	12.235391	0.822374	-0.658383	3.019585	0.000000	-0.100006	0.000000	0.000021	-0.000001	0.000000	0.000000
33.412619	22.873602	13.220334	1.528518	-1.146075	2.940208	0.000000	-0.188708	0.000000	0.000020	-0.000002	0.000000	0.000000
33.961679	20.854718	14.782236	2.126695	-1.715400	2.812977	0.000000	-0.274063	0.000000	0.000019	-0.000002	0.000000	0.000000
34.510739	18.258023	17.032350	2.574653	-2.406909	2.640149	0.000000	-0.354557	0.000000	0.000018	-0.000003	0.000000	0.000000
34.956699	16.238968	19.045006	1.969002	-2.087334	2.498374	0.000000	-0.281626	0.000000	0.000017	-0.000002	0.000000	0.000000
35.397659	14.733365	20.709732	1.458324	-1.673531	2.389570	0.000000	-0.212332	0.000000	0.000016	-0.000002	0.000000	0.000000
35.838619	13.647169	21.974419	1.014273	-1.183584	2.310761	0.000000	-0.145456	0.000000	0.000015	-0.000002	0.000000	0.000000
36.279579	12.930755	22.781524	0.616561	-0.639785	2.261048	0.000000	-0.080237	0.000000	0.000014	-0.000001	0.000000	0.000000
36.721789	12.550696	23.094632	0.277686	-0.123558	2.239839	0.000000	-0.021423	0.000000	0.000014	-0.000001	0.000000	0.000000
37.019112	12.393157	23.171991	0.252170	-0.136628	2.233470	0.000000	-0.021423	0.000000	0.000013	-0.000001	0.000000	0.000000
37.352445	12.234580	23.267962	0.223563	-0.151282	2.226329	0.000000	-0.021423	0.000000	0.000013	-0.000001	0.000000	0.000000
37.685779	12.095073	23.373701	0.194956	-0.165936	2.219189	0.000000	-0.021423	0.000000	0.000013	-0.000001	0.000000	0.000000
38.020362	11.974222	23.489661	0.166242	-0.180644	2.212021	0.000000	-0.021423	0.000000	0.000012	-0.000001	0.000000	0.000000
38.317684	11.882954	23.600966	0.169863	-0.251585	2.205652	0.000000	-0.026831	0.000000	0.000012	-0.000001	0.000000	0.000000
38.758644	11.884634	23.561429	-0.173688	0.340906	2.207748	0.000000	0.036346	0.000000	0.000012	-0.000001	0.000000	0.000000
39.199604	12.191640	23.004232	-0.525173	0.917886	2.237768	0.000000	0.099938	0.000000	0.000012	-0.000000	0.000000	0.000000
39.640564	12.817996	21.954727	-0.900653	1.453103	2.296052	0.000000	0.164668	0.000000	0.000012	-0.000000	0.000000	0.000000
40.081524	13.792319	20.460666	-1.317280	1.922205	2.383266	0.000000	0.231273	0.000000	0.000012	0.000000	0.000000	0.000000
40.527484	15.176701	18.567452	-1.797918	2.305133	2.501875	0.000000	0.300917	0.000000	0.000012	0.000001	0.000000	0.000000
41.076544	16.943290	16.439928	-1.400515	1.592588	2.646566	0.000000	0.225360	0.000000	0.000012	0.000000	0.000000	0.000000
41.625604	18.216245	15.028353	-0.904186	0.993480	2.748613	0.000000	0.145805	0.000000	0.000012	-0.000000	0.000000	0.000000
42.174664	18.905649	14.232184	-0.343989	0.465136	2.806203	0.000000	0.063664	0.000000	0.000012	-0.000001	0.000000	0.000000
42.723724	18.962806	13.994713	0.240505	-0.030078	2.818317	0.000000	-0.019606	0.000000	0.000011	-0.000001	0.000000	0.000000
43.022297	18.853646	13.997211	0.174644	-0.014851	2.814662	0.000000	-0.012243	0.000000	0.000011	-0.000001	0.000000	0.000000
43.502297	18.698581	14.027932	0.148408	-0.049151	2.808786	0.000000	-0.012243	0.000000	0.000010	-0.000001	0.000000	0.000000
43.982297	18.568703	14.091582	0.122172	-0.083451	2.802910	0.000000	-0.012243	0.000000	0.000010	-0.000001	0.000000	0.000000
44.462297	18.464011	14.188159	0.095936	-0.117751	2.797033	0.000000	-0.012243	0.000000	0.000010	-0.000001	0.000000	0.000000
44.942297	18.384506	14.317664	0.069700	-0.152052	2.791157	0.000000	-0.012243	0.000000	0.000009	-0.000001	0.000000	0.000000
45.423547	18.330305	14.480384	-0.047422	-0.114696	2.785283	0.000000	0.001557	0.000000	0.000009	-0.000001	0.000000	0.000000
45.720870	18.363338	14.554773	-0.111656	-0.097473	2.785746	0.000000	0.008835	0.000000	0.000008	-0.000001	0.000000	0.000000
46.269930	18.176750	14.943286	0.449474	-0.614300	2.768026	0.000000	-0.073289	0.000000	0.000008	-0.000001	0.000000	0.000000
46.818990	17.387841	15.919889	0.978856	-1.174881	2.705506	0.000000	-0.154113	0.000000	0.000007	-0.000001	0.000000	0.000000
47.368050	16.052334	17.554143	1.439096	-1.819147	2.599295	0.000000	-0.232204	0.000000	0.000006	-0.000002	0.000000	0.000000
47.917110	14.264564	19.962454	1.797685	-2.592987	2.451277	0.000000	-0.306175	0.000000	0.000005	-0.000002	0.000000	0.000000
48.363070	12.873368	22.103615	1.332920	-2.188069	2.330028	0.000000	-0.237878	0.000000	0.000004	-0.000002	0.000000	0.000000
48.804030	11.878042	23.817950	0.932822	-1.684870	2.239593	0.000000	-0.172687	0.000000	0.000004	-0.000002	0.000000	0.000000
49.244990	11.215515	25.052876	0.575343	-1.105012	2.177445	0.000000	-0.109462	0.000000	0.000003	-0.000001	0.000000	0.000000
49.685950	10.855517	25.752205	0.244149	-0.474876	2.142875	0.000000	-0.047484	0.000000	0.000002	-0.000001	0.000000	0.000000
50.128160	10.781726	25.883833	-0.049568	0.113344	2.135500	0.000000	0.008716	0.000000	0.000002	-0.000001	0.000000	0.000000
50.425482	10.819421	25.819893	-0.077212	0.101710	2.138092	0.000000	0.008716	0.000000	0.000001	-0.000001	0.000000	0.000000
50.758816	10.881226	25.756435	-0.108204	0.088666	2.140998	0.000000	0.008716	0.000000	0.000001	-0.000001	0.000000	0.000000
51.092149	10.963693	25.701672	-0.139197	0.075623	2.143903	0.000000	0.008716	0.000000	0.000001	-0.000001	0.000000	0.000000
51.426732	11.067023	25.655968	-0.080523	-0.145604	2.146798	0.000000	-0.008700	0.000000	0.000000	-0.000001	0.000000	0.000000
51.724055	11.122945	25.746070	-0.080286	-0.220576	2.144212	0.000000	-0.013959	0.000000	-0.000000	-0.000001	0.000000	0.000000
52.165015	11.338993	25.654155	-0.411523	0.428225	2.151646	0.000000	0.047704	0.000000	-0.000001	-0.000001	0.000000	0.000000
52.605975	11.854321	24.996489	-0.761562	1.057541	2.186364	0.000000	0.109910	0.000000	-0.000001	-0.000001	0.000000	0.000000
53.046935	12.692474	23.802995	-1.146394	1.638741	2.248762	0.000000	0.173367	0.000000	-0.000002	-0.000001	0.000000	0.000000
53.487895	13.891743	22.127975	-1.583602	2.145379	2.339551	0.000000	0.238799	0.000000	-0.000003	-0.000002	0.000000	0.000000
53.933855	15.527480	20.022600	-2.097387	2.555741	2.461269	0.000000	0.307350	0.000000	-0.000003	-0.000002	0.000000	0.000000
54.482915	17.633470	17.653487	-1.715536	1.784580	2.609843	0.000000	0.233046	0.000000	-0.000004	-0.000001	0.000000	0.000000
55.031975	19.250714	16.056852	-1.212508	1.140530	2.716423	0.000000	0.154607	0.000000	-0.000005	-0.000001	0.000000	0.000000
55.581035	20.264979	15.118967	-0.623834	0.577717	2.779118	0.000000	0.073427	0.000000	-0.000006	-0.000001	0.000000	0.000000
56.130095	20.604623	14.773031	0.008904	0.056054	2.796816	0.000000	-0.009056	0.000000	-0.000006	-0.000001	0.000000	0.000000
56.428668	20.635791	14.722596	-0.059455	0.074264	2.796294	0.000000	-0.001748	0.000000	-0.000007	-0.000001	0.000000	0.000000
56.762001	20.680831	14.680676	-0.075665	0.051498	2.795712	0.000000	-0.001748	0.000000	-0.000007	-0.000001	0.000000	0.000000
57.095334	20.736677	14.653932	-0.091875	0.028732	2.795129	0.000000	-0.001748	0.000000	-0.000007	-0.000001	0.000000	0.000000
57.429918	20.803601	14.642351	-0.108146	0.005881	2.794545	0.000000	-0.001748	0.000000	-0.000008	-0.000001	0.000000	0.000000
57.727240	20.872209	14.644892	-0.177144	0.023841	2.794025	0.000000	0.005552	0.000000	-0.000008	-0.000001	0.000000	0.000000
58.276300	20.710668	14.899900	0.469615	-0.491029	2.774434	0.000000	-0.076810	0.000000	-0.000008	-0.000001	0.000000	0.000000
58.825360	19.853001	15.736071	1.083203	-1.040873	2.709930	0.000000	-0.157809	0.000000	-0.000009	-0.000000	0.000000	0.000000
59.374420	18.359789	17.212961	1.620278	-1.664857	2.601656	0.000000	-0.236010	0.000000	-0.000009	-0.000000	0.000000	0.000000
59.923480	16.336504	19.435768	2.042906	-2.407425	2.451532	0.000000	-0.310024	0.000000	-0.000009	0.000000	0.000000	0.000000
60.369440	14.752918	21.411397	1.520630	-2.003934	2.328564	0.000000	-0.241742	0.000000	-0.000009	-0.000000	0.000000	0.000000
60.810400	13.613980	22.967103	1.072029	-1.510641	2.236413	0.000000	-0.176611	0.000000	-0.000009	-0.000000	0.000000	0.000000
61.251360	12.847661	24.055679	0.672406	-0.948615	2.172513	0.000000	-0.113491	0.000000	-0.000009	-0.000001	0.000000	0.000000
61.692320	12.418951	24.627595	0.303503	-0.343428	2.136134	0.000000	-0.051663	0.000000	-0.000009	-0.000001	0.000000	0.000000
62.134530	12.308315	24.656286	-0.021448	0.216860	2.126870	0.000000	0.004359	0.000000	-0.000010	-0.000001	0.000000	0.000000
62.431853	12.328255	24.531085	-0.045616	0.204235	2.128166	0.000000	0.004359	0.000000	-0.000010	-0.000001	0.000000	0.000000
62.765186	12.367697	24.399647	-0.072710	0.190080	2.129619	0.000000	0.004359	0.000000	-0.000010	-0.000001	0.000000	0.000000
63.098520	12.425201	24.277646	-0.099804	0.175925	2.131073	0.000000	0.004359	0.000000	-0.000011	-0.000001	0.000000	0.000000
63.433103	12.501087	24.164676	-0.127001	0.161717	2.132532	0.000000	0.004359	0.000000	-0.000011	-0.000001	0.000000	0.000000
63.730426	12.583792	24.072266	-0.120305	0.090052	2.133828	0.000000	-0.000874	0.000000	-0.000011	-0.000001	0.000000	0.000000
64.171386	12.850163	23.727746	-0.486056	0.688271	2.146983	0.000000	0.060594	0.000000	-0.000012	-0.000001	0.000000	0.000000
64.612346	13.447631	22.867491	-0.874013	1.255174	2.187370	0.000000	0.122753	0.000000	-0.000013	-0.000002	0.000000	0.000000
65.053306	14.403496	21.530642	-1.301901	1.764968	2.255448	0.000000	0.186310	0.000000	-0.000013	-0.000002	0.000000	0.000000
65.494266	15.761425	19.778025	-1.789269	2.194458	2.351993	0.000000	0.251988	0.000000	-0.000014	-0.000002	0.000000	0.000000
65.940226	17.606623	17.664585	-2.363075	2.524853	2.479677	0.000000	0.320939	0.000000	-0.000015	-0.000003	0.000000	0.000000
66.489286	19.972074	15.300337	-1.919609	1.806556	2.635527	0.000000	0.245920	0.000000	-0.000017	-0.000002	0.000000	0.000000
67.038346	21.772757	13.650001	-1.340552	1.216936	2.748928	0.000000	0.166539	0.000000	-0.000018	-0.000002	0.000000	0.000000
67.587406	22.881478	12.596025	-0.666805	0.713996	2.817866	0.000000	0.084204	0.000000	-0.000019	-0.000001	0.000000	0.000000
68.136466	23.219926	12.063337	0.054042	0.261912	2.841121	0.000000	0.000376	0.000000	-0.000019	-0.000000	0.000000	0.000000
68.435038	23.227728	11.896139	-0.019496	0.266555	2.843450	0.000000	0.007800	0.000000	-0.000019	-0.000000	0.000000	0.000000
68.768372	23.245511	11.728439	-0.033853	0.236544	2.846050	0.000000	0.007800	0.000000	-0.000019	-0.000000	0.000000	0.000000
69.101705	23.272865	11.580747	-0.048209	0.206532	2.848650	0.000000	0.007800	0.000000	-0.000019	-0.000000	0.000000	0.000000
69.436288	23.309946	11.452622	-0.062619	0.176409	2.851260	0.000000	0.007800	0.000000	-0.000020	-0.000000	0.000000	0.000000
69.733611	23.350989	11.355680	-0.136446	0.179315	2.853579	0.000000	0.015257	0.000000	-0.000020	-0.000001	0.000000	0.000000
70.282671	23.099778	11.386213	0.591268	-0.235253	2.838773	0.000000	-0.069112	0.000000	-0.000020	0.000000	0.000000	0.000000
