#ParticleID	Turn	x[m]	xp	y[m]	yp	z[m]	dE[GeV]# s	beta_x	beta_y	alpha_x	alpha_y	D_x	D_y	D_px	D_py	orbit_x	orbit_px	orbit_y	orbit_py
0.300000	11.810123	25.032861	-0.010691	-0.027101	2.618155	0.000000	-0.000007	0.000000	-0.000000	0.000002	0.000000	0.000000
0.601250	11.824249	25.052817	-0.036201	-0.039144	2.618153	0.000000	-0.000007	0.000000	0.000000	0.000002	0.000000	0.000000
0.898573	11.853262	25.079628	-0.032312	-0.112532	2.618151	0.000000	-0.006427	0.000000	0.000001	0.000002	0.000000	0.000000
1.339533	12.033845	24.900664	-0.378763	0.516839	2.631609	0.000000	0.067531	0.000000	0.000001	0.000002	0.000000	0.000000
1.780493	12.526416	24.174933	-0.742518	1.122695	2.677819	0.000000	0.142258	0.000000	0.000002	0.000002	0.000000	0.000000
2.221453	13.353481	22.935457	-1.140197	1.677468	2.757306	0.000000	0.218606	0.000000	0.000003	0.000002	0.000000	0.000000
2.662413	14.552824	21.238629	-1.589968	2.155918	2.870975	0.000000	0.297443	0.000000	0.000003	0.000002	0.000000	0.000000
3.108373	16.199977	19.136772	-2.116668	2.537409	3.021983	0.000000	0.380157	0.000000	0.000004	0.000002	0.000000	0.000000
3.657433	18.312192	16.776056	-1.707525	1.787530	3.205440	0.000000	0.287120	0.000000	0.000005	0.000002	0.000000	0.000000
4.206493	19.905826	15.164468	-1.177770	1.164972	3.336338	0.000000	0.188990	0.000000	0.000006	0.000001	0.000000	0.000000
4.755553	20.868313	14.187218	-0.564824	0.625393	3.412356	0.000000	0.087507	0.000000	0.000007	0.000001	0.000000	0.000000
5.304613	21.131666	13.774699	0.088019	0.130360	3.432145	0.000000	-0.015527	0.000000	0.000007	0.000001	0.000000	0.000000
5.603185	21.116298	13.682015	0.018665	0.144073	3.430186	0.000000	-0.006560	0.000000	0.000008	0.000001	0.000000	0.000000
5.936519	21.109118	13.594256	0.002874	0.119204	3.427999	0.000000	-0.006560	0.000000	0.000008	0.000001	0.000000	0.000000
6.269852	21.112466	13.523076	-0.012917	0.094336	3.425812	0.000000	-0.006560	0.000000	0.000008	0.000001	0.000000	0.000000
6.604435	21.126413	13.468302	-0.028767	0.069374	3.423616	0.000000	-0.006560	0.000000	0.000009	0.000001	0.000000	0.000000
6.901758	21.147707	13.433644	-0.098104	0.082289	3.421666	0.000000	0.002379	0.000000	0.000009	0.000001	0.000000	0.000000
7.450818	20.895029	13.604150	0.555580	-0.394663	3.394770	0.000000	-0.100201	0.000000	0.000010	0.000001	0.000000	0.000000
7.999878	19.941930	14.310678	1.170020	-0.899727	3.311959	0.000000	-0.201004	0.000000	0.000010	0.000000	0.000000	0.000000
8.548938	18.355731	15.603552	1.701815	-1.468876	3.174699	0.000000	-0.298241	0.000000	0.000010	0.000000	0.000000	0.000000
9.097998	16.248473	17.574861	2.113403	-2.142651	2.985426	0.000000	-0.390188	0.000000	0.000010	-0.000000	0.000000	0.000000
9.543958	14.604446	19.331385	1.586193	-1.779448	2.829724	0.000000	-0.308483	0.000000	0.000010	0.000000	0.000000	0.000000
9.984918	13.408718	20.710649	1.135739	-1.336517	2.710941	0.000000	-0.230775	0.000000	0.000010	0.000000	0.000000	0.000000
10.425878	12.585960	21.670875	0.737174	-0.832775	2.625813	0.000000	-0.155696	0.000000	0.000010	0.000001	0.000000	0.000000
10.866838	12.098581	22.168371	0.372288	-0.291143	2.573370	0.000000	-0.082389	0.000000	0.000011	0.000001	0.000000	0.000000
11.309048	11.924180	22.179979	0.053544	0.209289	2.552993	0.000000	-0.016282	0.000000	0.000011	0.000001	0.000000	0.000000
11.606371	11.899775	22.059686	0.028538	0.195297	2.548152	0.000000	-0.016282	0.000000	0.000011	0.000001	0.000000	0.000000
12.086371	11.891756	21.883044	-0.011831	0.172708	2.540337	0.000000	-0.016282	0.000000	0.000012	0.000001	0.000000	0.000000
12.566371	11.922491	21.728087	-0.052201	0.150119	2.532521	0.000000	-0.016282	0.000000	0.000013	0.000001	0.000000	0.000000
13.046371	11.991982	21.594815	-0.092571	0.127530	2.524705	0.000000	-0.016282	0.000000	0.000013	0.000001	0.000000	0.000000
13.526371	12.100228	21.483229	-0.132941	0.104941	2.516889	0.000000	-0.016282	0.000000	0.000014	0.000001	0.000000	0.000000
14.007621	12.247661	21.393122	-0.173416	0.082293	2.509053	0.000000	-0.016282	0.000000	0.000014	0.000001	0.000000	0.000000
14.304943	12.358217	21.348347	-0.168120	0.015956	2.504212	0.000000	-0.022422	0.000000	0.000014	0.000001	0.000000	0.000000
14.745903	12.665005	21.100625	-0.530247	0.543686	2.509956	0.000000	0.048500	0.000000	0.000015	0.000001	0.000000	0.000000
15.186863	13.300596	20.396658	-0.916600	1.046679	2.547065	0.000000	0.119973	0.000000	0.000016	0.000002	0.000000	0.000000
15.627823	14.294029	19.268478	-1.344830	1.502049	2.615962	0.000000	0.192814	0.000000	0.000017	0.000002	0.000000	0.000000
16.068783	15.690689	17.767415	-1.834502	1.889076	2.717431	0.000000	0.267850	0.000000	0.000018	0.000003	0.000000	0.000000
16.514743	17.578046	15.940266	-2.412744	2.190896	2.854323	0.000000	0.346399	0.000000	0.000019	0.000003	0.000000	0.000000
17.063803	20.002130	13.900113	-1.976089	1.546756	3.020786	0.000000	0.259069	0.000000	0.000021	0.000003	0.000000	0.000000
17.612863	21.866764	12.503016	-1.399853	1.012787	3.137966	0.000000	0.167144	0.000000	0.000022	0.000002	0.000000	0.000000
18.161923	23.040240	11.649465	-0.724738	0.550957	3.203784	0.000000	0.072254	0.000000	0.000023	0.000001	0.000000	0.000000
18.710983	23.439668	11.278661	0.001569	0.128371	3.217073	0.000000	-0.023917	0.000000	0.000023	0.000000	0.000000	0.000000
19.009556	23.479112	11.192512	-0.072446	0.130703	3.212441	0.000000	-0.015513	0.000000	0.000023	0.000000	0.000000	0.000000
19.342889	23.532166	11.115474	-0.086717	0.100412	3.207270	0.000000	-0.015513	0.000000	0.000024	0.000000	0.000000	0.000000
19.676223	23.594735	11.058629	-0.100989	0.070121	3.202098	0.000000	-0.015513	0.000000	0.000024	0.000000	0.000000	0.000000
20.010806	23.667399	11.021743	-0.232575	0.094326	3.196928	0.000000	0.000326	0.000000	0.000024	0.000001	0.000000	0.000000
20.308129	23.809636	10.973744	-0.308015	0.095776	3.197024	0.000000	0.008678	0.000000	0.000024	0.000001	0.000000	0.000000
20.857189	23.737212	11.090622	0.439141	-0.309901	3.175570	0.000000	-0.086712	0.000000	0.000024	-0.000000	0.000000	0.000000
21.406249	22.856566	11.662416	1.155278	-0.737652	3.102087	0.000000	-0.180563	0.000000	0.000024	-0.000001	0.000000	0.000000
21.955309	21.229905	12.729856	1.789812	-1.217945	2.977879	0.000000	-0.271212	0.000000	0.000023	-0.000002	0.000000	0.000000
22.504369	18.972126	14.368972	2.297923	-1.784989	2.805149	0.000000	-0.357050	0.000000	0.000022	-0.000002	0.000000	0.000000
22.950329	17.192744	15.840643	1.706162	-1.501096	2.663213	0.000000	-0.279842	0.000000	0.000021	-0.000002	0.000000	0.000000
23.391289	15.917382	17.014029	1.197048	-1.149758	2.556136	0.000000	-0.206276	0.000000	0.000020	-0.000001	0.000000	0.000000
23.832249	15.065297	17.853223	0.742623	-0.746107	2.480951	0.000000	-0.135059	0.000000	0.000020	-0.000001	0.000000	0.000000
24.273209	14.597559	18.320042	0.322127	-0.308508	2.436800	0.000000	-0.065380	0.000000	0.000020	-0.000000	0.000000	0.000000
24.715418	14.492919	18.393002	-0.048205	0.097961	2.423179	0.000000	-0.002388	0.000000	0.000020	0.000000	0.000000	0.000000
25.012741	14.527698	18.339603	-0.068767	0.081641	2.422469	0.000000	-0.002388	0.000000	0.000020	0.000000	0.000000	0.000000
25.346075	14.581227	18.291274	-0.091821	0.063344	2.421673	0.000000	-0.002388	0.000000	0.000020	0.000000	0.000000	0.000000
25.679408	14.650125	18.255144	-0.114874	0.045048	2.420877	0.000000	-0.002388	0.000000	0.000020	0.000000	0.000000	0.000000
26.013991	14.734439	18.231514	-0.018478	-0.121221	2.420053	0.000000	-0.022021	0.000000	0.000020	0.000000	0.000000	0.000000
26.311314	14.751428	18.308517	-0.002496	-0.182658	2.413506	0.000000	-0.027938	0.000000	0.000020	-0.000000	0.000000	0.000000
26.752274	14.935365	18.271060	-0.416215	0.267279	2.416296	0.000000	0.040607	0.000000	0.000020	0.000000	0.000000	0.000000
27.193234	15.491145	17.840662	-0.848951	0.705055	2.449385	0.000000	0.109614	0.000000	0.000020	0.000001	0.000000	0.000000
27.634194	16.444159	17.036905	-1.320472	1.110752	2.513149	0.000000	0.179870	0.000000	0.000021	0.000002	0.000000	0.000000
28.075154	17.837948	15.896359	-1.852323	1.465910	2.608315	0.000000	0.252174	0.000000	0.000022	0.000002	0.000000	0.000000
28.521114	19.760403	14.453737	-2.473770	1.755283	2.737570	0.000000	0.327794	0.000000	0.000023	0.000003	0.000000	0.000000
29.070174	22.203850	12.846413	-1.950121	1.189407	2.894884	0.000000	0.244396	0.000000	0.000024	0.000002	0.000000	0.000000
29.619234	23.992762	11.810600	-1.288725	0.708250	3.005148	0.000000	0.156662	0.000000	0.000025	0.000001	0.000000	0.000000
30.168294	25.000778	11.272518	-0.536300	0.277540	3.066406	0.000000	0.066150	0.000000	0.000025	0.000000	0.000000	0.000000
30.717354	25.156696	11.193841	0.254007	-0.133401	3.077572	0.000000	-0.025536	0.000000	0.000025	-0.000001	0.000000	0.000000
31.015927	25.047929	11.264090	0.176002	-0.131122	3.072348	0.000000	-0.017497	0.000000	0.000025	-0.000000	0.000000	0.000000
31.349260	24.935167	11.361538	0.162282	-0.161223	3.066516	0.000000	-0.017497	0.000000	0.000025	-0.000000	0.000000	0.000000
31.682593	24.831553	11.479054	0.148562	-0.191325	3.060684	0.000000	-0.017497	0.000000	0.000025	-0.000000	0.000000	0.000000
32.017177	24.736748	11.617192	0.134790	-0.221539	3.054830	0.000000	-0.017497	0.000000	0.000025	-0.000000	0.000000	0.000000
32.314499	24.660234	11.756912	0.058133	-0.217676	3.049628	0.000000	-0.009530	0.000000	0.000025	-0.000000	0.000000	0.000000
32.863559	24.173875	12.235145	0.822426	-0.658469	3.019514	0.000000	-0.100004	0.000000	0.000024	-0.000001	0.000000	0.000000
33.412619	22.875318	13.220181	1.528627	-1.146162	2.940139	0.000000	-0.188703	0.000000	0.000023	-0.000002	0.000000	0.000000
33.961679	20.856287	14.782183	2.126853	-1.715495	2.812912	0.000000	-0.274056	0.000000	0.000022	-0.000003	0.000000	0.000000
34.510739	18.259396	17.032408	2.574849	-2.407018	2.640088	0.000000	-0.354547	0.000000	0.000020	-0.000003	0.000000	0.000000
34.956699	16.240185	19.045166	1.969155	-2.087452	2.498317	0.000000	-0.281619	0.000000	0.000019	-0.000003	0.000000	0.000000
35.397659	14.734463	20.709998	1.458443	-1.673653	2.389517	0.000000	-0.212326	0.000000	0.000018	-0.000002	0.000000	0.000000
35.838619	13.648175	21.974791	1.014362	-1.183704	2.310710	0.000000	-0.145451	0.000000	0.000017	-0.000002	0.000000	0.000000
36.279579	12.931693	22.781998	0.616625	-0.639897	2.260999	0.000000	-0.080233	0.000000	0.000016	-0.000002	0.000000	0.000000
36.721789	12.551586	23.095201	0.277730	-0.123657	2.239792	0.000000	-0.021420	0.000000	0.000015	-0.000001	0.000000	0.000000
37.019112	12.394022	23.172619	0.252215	-0.136728	2.233423	0.000000	-0.021420	0.000000	0.000015	-0.000001	0.000000	0.000000
37.352445	12.235413	23.268656	0.223610	-0.151382	2.226284	0.000000	-0.021420	0.000000	0.000015	-0.000001	0.000000	0.000000
37.685779	12.095875	23.374461	0.195004	-0.166035	2.219144	0.000000	-0.021420	0.000000	0.000014	-0.000001	0.000000	0.000000
38.020362	11.974992	23.490488	0.166291	-0.180744	2.211978	0.000000	-0.021420	0.000000	0.000014	-0.000001	0.000000	0.000000
38.317684	11.883694	23.601853	0.169915	-0.251686	2.205609	0.000000	-0.026828	0.000000	0.000014	-0.000001	0.000000	0.000000
38.758644	11.885336	23.562394	-0.173652	0.340830	2.207706	0.000000	0.036348	0.000000	0.000013	-0.000001	0.000000	0.000000
39.199604	12.192316	23.005252	-0.525152	0.917838	2.237727	0.000000	0.099939	0.000000	0.000013	-0.000000	0.000000	0.000000
39.640564	12.818660	21.955776	-0.900646	1.453086	2.296012	0.000000	0.164667	0.000000	0.000013	-0.000000	0.000000	0.000000
40.081524	13.792983	20.461716	-1.317287	1.922219	2.383225	0.000000	0.231272	0.000000	0.000013	0.000000	0.000000	0.000000
40.527484	15.177376	18.568476	-1.797938	2.305178	2.501833	0.000000	0.300915	0.000000	0.000013	0.000001	0.000000	0.000000
41.076544	16.943973	16.440917	-1.400508	1.592606	2.646524	0.000000	0.225359	0.000000	0.000013	0.000000	0.000000	0.000000
41.625604	18.216906	15.029338	-0.904153	0.993471	2.748570	0.000000	0.145806	0.000000	0.000013	-0.000000	0.000000	0.000000
42.174664	18.906260	14.233194	-0.343933	0.465100	2.806161	0.000000	0.063666	0.000000	0.000013	-0.000001	0.000000	0.000000
42.723724	18.963345	13.995778	0.240581	-0.030143	2.818276	0.000000	-0.019603	0.000000	0.000012	-0.000001	0.000000	0.000000
43.022297	18.854140	13.998313	0.174719	-0.014913	2.814622	0.000000	-0.012240	0.000000	0.000012	-0.000001	0.000000	0.000000
43.502297	18.699003	14.029092	0.148483	-0.049210	2.808747	0.000000	-0.012240	0.000000	0.000011	-0.000001	0.000000	0.000000
43.982297	18.569053	14.092797	0.122247	-0.083507	2.802872	0.000000	-0.012240	0.000000	0.000011	-0.000001	0.000000	0.000000
44.462297	18.464289	14.189427	0.096011	-0.117805	2.796998	0.000000	-0.012240	0.000000	0.000010	-0.000001	0.000000	0.000000
44.942297	18.384711	14.318982	0.069776	-0.152102	2.791123	0.000000	-0.012240	0.000000	0.000010	-0.000001	0.000000	0.000000
45.423547	18.330438	14.481750	-0.047348	-0.114738	2.785250	0.000000	0.001560	0.000000	0.000009	-0.000001	0.000000	0.000000
45.720870	18.363426	14.556163	-0.111581	-0.097509	2.785714	0.000000	0.008838	0.000000	0.000009	-0.000001	0.000000	0.000000
46.269930	18.176756	14.944739	0.449550	-0.614379	2.767996	0.000000	-0.073285	0.000000	0.000008	-0.000001	0.000000	0.000000
46.818990	17.387765	15.921455	0.978927	-1.175010	2.705478	0.000000	-0.154108	0.000000	0.000007	-0.000002	0.000000	0.000000
47.368050	16.052185	17.555882	1.439157	-1.819334	2.599270	0.000000	-0.232198	0.000000	0.000007	-0.000002	0.000000	0.000000
47.917110	14.264355	19.964435	1.797733	-2.593245	2.451255	0.000000	-0.306169	0.000000	0.000005	-0.000002	0.000000	0.000000
48.363070	12.873117	22.105807	1.332967	-2.188282	2.330009	0.000000	-0.237872	0.000000	0.000005	-0.000002	0.000000	0.000000
48.804030	11.877749	23.820307	0.932871	-1.685030	2.239577	0.000000	-0.172681	0.000000	0.000004	-0.000002	0.000000	0.000000
49.244990	11.215178	25.055347	0.575395	-1.105110	2.177431	0.000000	-0.109457	0.000000	0.000003	-0.000002	0.000000	0.000000
49.685950	10.855132	25.754732	0.244207	-0.474908	2.142863	0.000000	-0.047480	0.000000	0.000002	-0.000002	0.000000	0.000000
50.128160	10.781286	25.886360	-0.049502	0.113373	2.135490	0.000000	0.008720	0.000000	0.000002	-0.000002	0.000000	0.000000
50.425482	10.818942	25.822402	-0.077147	0.101739	2.138083	0.000000	0.008720	0.000000	0.000001	-0.000002	0.000000	0.000000
50.758816	10.880704	25.758923	-0.108141	0.088697	2.140990	0.000000	0.008720	0.000000	0.000001	-0.000002	0.000000	0.000000
51.092149	10.963129	25.704139	-0.139134	0.075655	2.143898	0.000000	0.008720	0.000000	0.000000	-0.000002	0.000000	0.000000
51.426732	11.066418	25.658414	-0.080466	-0.145590	2.146794	0.000000	-0.008696	0.000000	-0.000000	-0.000002	0.000000	0.000000
51.724055	11.122306	25.748507	-0.080232	-0.220567	2.144209	0.000000	-0.013954	0.000000	-0.000001	-0.000002	0.000000	0.000000
52.165015	11.338300	25.656556	-0.411453	0.428297	2.151644	0.000000	0.047708	0.000000	-0.000002	-0.000002	0.000000	0.000000
52.605975	11.853559	24.998799	-0.761473	1.057675	2.186365	0.000000	0.109914	0.000000	-0.000002	-0.000002	0.000000	0.000000
53.046935	12.691623	23.805162	-1.146282	1.638929	2.248765	0.000000	0.173371	0.000000	-0.000003	-0.000002	0.000000	0.000000
53.487895	13.890781	22.129956	-1.583462	2.145613	2.339555	0.000000	0.238804	0.000000	-0.000004	-0.000002	0.000000	0.000000
53.933855	15.526378	20.024354	-2.097212	2.556012	2.461275	0.000000	0.307355	0.000000	-0.000005	-0.000002	0.000000	0.000000
54.482915	17.632190	17.654984	-1.715390	1.784782	2.609852	0.000000	0.233050	0.000000	-0.000006	-0.000002	0.000000	0.000000
55.031975	19.249295	16.058156	-1.212401	1.140679	2.716435	0.000000	0.154611	0.000000	-0.000007	-0.000002	0.000000	0.000000
55.581035	20.263468	15.120132	-0.623774	0.577824	2.779132	0.000000	0.073430	0.000000	-0.000007	-0.000001	0.000000	0.000000
56.130095	20.603074	14.774098	0.008912	0.056126	2.796832	0.000000	-0.009053	0.000000	-0.000008	-0.000001	0.000000	0.000000
56.428668	20.634236	14.723618	-0.059444	0.074340	2.796311	0.000000	-0.001745	0.000000	-0.000008	-0.000001	0.000000	0.000000
56.762001	20.679269	14.681646	-0.075656	0.051576	2.795730	0.000000	-0.001745	0.000000	-0.000009	-0.000001	0.000000	0.000000
57.095334	20.735110	14.654851	-0.091867	0.028811	2.795148	0.000000	-0.001745	0.000000	-0.000009	-0.000001	0.000000	0.000000
57.429918	20.802029	14.643216	-0.108139	0.005961	2.794564	0.000000	-0.001745	0.000000	-0.000009	-0.000001	0.000000	0.000000
57.727240	20.870632	14.645709	-0.177135	0.023926	2.794046	0.000000	0.005556	0.000000	-0.000010	-0.000001	0.000000	0.000000
58.276300	20.709111	14.900637	0.469571	-0.490966	2.774457	0.000000	-0.076807	0.000000	-0.000010	-0.000001	0.000000	0.000000
58.825360	19.851519	15.736749	1.083109	-1.040828	2.709954	0.000000	-0.157807	0.000000	-0.000011	-0.000000	0.000000	0.000000
59.374420	18.358434	17.213597	1.620142	-1.664826	2.601680	0.000000	-0.236009	0.000000	-0.000011	-0.000000	0.000000	0.000000
59.923480	16.335319	19.436376	2.042736	-2.407405	2.451557	0.000000	-0.310024	0.000000	-0.000011	0.000000	0.000000	0.000000
60.369440	14.751867	21.411977	1.520496	-2.003892	2.328589	0.000000	-0.241741	0.000000	-0.000011	-0.000000	0.000000	0.000000
60.810400	13.613034	22.967638	1.071925	-1.510579	2.236439	0.000000	-0.176609	0.000000	-0.000011	-0.000000	0.000000	0.000000
61.251360	12.846796	24.056151	0.672326	-0.948536	2.172539	0.000000	-0.113489	0.000000	-0.000011	-0.000001	0.000000	0.000000
61.692320	12.418146	24.627990	0.303445	-0.343335	2.136162	0.000000	-0.051661	0.000000	-0.000011	-0.000001	0.000000	0.000000
62.134530	12.307554	24.656595	-0.021490	0.216961	2.126898	0.000000	0.004363	0.000000	-0.000012	-0.000001	0.000000	0.000000
62.431853	12.327519	24.531334	-0.045659	0.204335	2.128196	0.000000	0.004363	0.000000	-0.000012	-0.000001	0.000000	0.000000
62.765186	12.366990	24.399829	-0.072755	0.190180	2.129651	0.000000	0.004363	0.000000	-0.000012	-0.000001	0.000000	0.000000
63.098520	12.424525	24.277761	-0.099851	0.176024	2.131105	0.000000	0.004363	0.000000	-0.000013	-0.000001	0.000000	0.000000
63.433103	12.500442	24.164725	-0.127049	0.161816	2.132565	0.000000	0.004363	0.000000	-0.000013	-0.000001	0.000000	0.000000
63.730426	12.583177	24.072256	-0.120356	0.090149	2.133863	0.000000	-0.000871	0.000000	-0.000014	-0.000001	0.000000	0.000000
64.171386	12.849586	23.727651	-0.486094	0.688366	2.147019	0.000000	0.060599	0.000000	-0.000014	-0.000001	0.000000	0.000000
64.612346	13.447084	22.867316	-0.874040	1.255262	2.187408	0.000000	0.122758	0.000000	-0.000015	-0.000002	0.000000	0.000000
65.053306	14.402967	21.530394	-1.301918	1.765045	2.255489	0.000000	0.186316	0.000000	-0.000016	-0.000002	0.000000	0.000000
65.494266	15.760908	19.777715	-1.789277	2.194519	2.352037	0.000000	0.251996	0.000000	-0.000017	-0.000003	0.000000	0.000000
65.940226	17.606109	17.664228	-2.363075	2.524897	2.479724	0.000000	0.320947	0.000000	-0.000018	-0.000003	0.000000	0.000000
66.489286	19.971573	15.299932	-1.919631	1.806602	2.635579	0.000000	0.245927	0.000000	-0.000020	-0.000003	0.000000	0.000000
67.038346	21.772291	13.649542	-1.340595	1.216987	2.748983	0.000000	0.166544	0.000000	-0.000021	-0.000002	0.000000	0.000000
67.587406	22.881070	12.595506	-0.666866	0.714055	2.817924	0.000000	0.084207	0.000000	-0.000022	-0.000001	0.000000	0.000000
68.136466	23.219592	12.062748	0.053967	0.261984	2.841180	0.000000	0.000377	0.000000	-0.000022	-0.000000	0.000000	0.000000
68.435038	23.227440	11.895508	-0.019572	0.266623	2.843510	0.000000	0.007802	0.000000	-0.000022	-0.000001	0.000000	0.000000
68.768372	23.245273	11.727764	-0.033928	0.236610	2.846110	0.000000	0.007802	0.000000	-0.000023	-0.000001	0.000000	0.000000
69.101705	23.272677	11.580029	-0.048285	0.206596	2.848711	0.000000	0.007802	0.000000	-0.000023	-0.000001	0.000000	0.000000
69.436288	23.309809	11.451861	-0.062695	0.176469	2.851322	0.000000	0.007802	0.000000	-0.000023	-0.000001	0.000000	0.000000
69.733611	23.350897	11.354884	-0.136523	0.179372	2.853642	0.000000	0.015259	0.000000	-0.000023	-0.000001	0.000000	0.000000
70.282671	23.099772	11.385343	0.591190	-0.235173	2.838836	0.000000	-0.069112	0.000000	-0.000023	0.000000	0.000000	0.000000
