#ParticleID	Turn	x[m]	xp	y[m]	yp	z[m]	dE[GeV]# s	beta_x	beta_y	alpha_x	alpha_y	D_x	D_y	D_px	D_py	orbit_x	orbit_px	orbit_y	orbit_py
0.300000	11.828450	24.960177	-0.012891	-0.027716	2.618220	0.000000	-0.000029	0.000000	-0.000000	0.000000	0.000000	0.000000
0.601250	11.843891	24.980514	-0.038363	-0.039795	2.618211	0.000000	-0.000029	0.000000	0.000000	0.000000	0.000000	0.000000
0.898573	11.874178	25.007723	-0.034385	-0.113042	2.618202	0.000000	-0.006449	0.000000	0.000000	0.000000	0.000000	0.000000
1.339533	12.056814	24.830046	-0.381365	0.514440	2.631652	0.000000	0.067510	0.000000	0.000000	0.000000	0.000000	0.000000
1.780493	12.551957	24.107227	-0.745770	1.118516	2.677853	0.000000	0.142238	0.000000	0.000000	0.000000	0.000000	0.000000
2.221453	13.382229	22.872154	-1.144246	1.671700	2.757332	0.000000	0.218587	0.000000	0.000000	0.000000	0.000000	0.000000
2.662413	14.585562	21.181021	-1.595000	2.148823	2.870994	0.000000	0.297424	0.000000	0.000001	0.000000	0.000000	0.000000
3.108373	16.237730	19.085970	-2.122923	2.529306	3.021995	0.000000	0.380139	0.000000	0.000001	0.000000	0.000000	0.000000
3.657433	18.356319	16.733014	-1.712811	1.781416	3.205442	0.000000	0.287102	0.000000	0.000001	0.000000	0.000000	0.000000
4.206493	19.955051	15.127252	-1.181715	1.160412	3.336331	0.000000	0.188971	0.000000	0.000001	0.000000	0.000000	0.000000
4.755553	20.921000	14.154310	-0.567148	0.622062	3.412340	0.000000	0.087489	0.000000	0.000001	0.000000	0.000000	0.000000
5.304613	21.185935	13.744887	0.087480	0.128020	3.432120	0.000000	-0.015545	0.000000	0.000001	0.000000	0.000000	0.000000
5.603185	21.170964	13.653655	0.018018	0.141626	3.430156	0.000000	-0.006577	0.000000	0.000001	0.000000	0.000000	0.000000
5.936519	21.164202	13.567539	0.002268	0.116723	3.427963	0.000000	-0.006577	0.000000	0.000001	0.000000	0.000000	0.000000
6.269852	21.167940	13.498025	-0.013482	0.091820	3.425771	0.000000	-0.006577	0.000000	0.000002	0.000000	0.000000	0.000000
6.604435	21.182251	13.444946	-0.029291	0.066823	3.423570	0.000000	-0.006577	0.000000	0.000002	0.000000	0.000000	0.000000
6.901758	21.203846	13.411814	-0.098741	0.079652	3.421615	0.000000	0.002363	0.000000	0.000002	0.000000	0.000000	0.000000
7.450818	20.950832	13.584888	0.556825	-0.396732	3.394712	0.000000	-0.100215	0.000000	0.000002	0.000000	0.000000	0.000000
7.999878	19.995366	14.293445	1.173060	-0.901375	3.311893	0.000000	-0.201016	0.000000	0.000002	0.000000	0.000000	0.000000
8.548938	18.404936	15.587952	1.706435	-1.470221	3.174627	0.000000	-0.298251	0.000000	0.000002	0.000000	0.000000	0.000000
9.097998	16.291882	17.560615	2.119276	-2.143787	2.985349	0.000000	-0.390196	0.000000	0.000002	-0.000000	0.000000	0.000000
9.543958	14.643205	19.318415	1.590785	-1.781164	2.829643	0.000000	-0.308493	0.000000	0.000002	0.000000	0.000000	0.000000
9.984918	13.443910	20.699417	1.139269	-1.338729	2.710856	0.000000	-0.230787	0.000000	0.000002	0.000000	0.000000	0.000000
10.425878	12.618447	21.661776	0.739802	-0.835382	2.625722	0.000000	-0.155710	0.000000	0.000002	0.000000	0.000000	0.000000
10.866838	12.129101	22.161702	0.374135	-0.294027	2.573272	0.000000	-0.082406	0.000000	0.000002	0.000000	0.000000	0.000000
11.309048	11.953380	22.175935	0.054769	0.206266	2.552888	0.000000	-0.016301	0.000000	0.000002	0.000000	0.000000	0.000000
11.606371	11.928230	22.057436	0.029821	0.192288	2.548041	0.000000	-0.016301	0.000000	0.000002	0.000000	0.000000	0.000000
12.086371	11.918934	21.883672	-0.010455	0.169722	2.540217	0.000000	-0.016301	0.000000	0.000002	0.000000	0.000000	0.000000
12.566371	11.948304	21.731570	-0.050732	0.147156	2.532392	0.000000	-0.016301	0.000000	0.000002	0.000000	0.000000	0.000000
13.046371	12.016339	21.601133	-0.091008	0.124590	2.524567	0.000000	-0.016301	0.000000	0.000002	0.000000	0.000000	0.000000
13.526371	12.123039	21.492358	-0.131285	0.102024	2.516743	0.000000	-0.016301	0.000000	0.000002	0.000000	0.000000	0.000000
14.007621	12.268834	21.405048	-0.171666	0.079399	2.508898	0.000000	-0.016301	0.000000	0.000003	0.000000	0.000000	0.000000
14.304943	12.378332	21.361990	-0.166260	0.013037	2.504051	0.000000	-0.022442	0.000000	0.000003	0.000000	0.000000	0.000000
14.745903	12.683661	21.116661	-0.528785	0.541198	2.509785	0.000000	0.048475	0.000000	0.000003	0.000000	0.000000	0.000000
15.186863	13.318112	20.414656	-0.915469	1.044736	2.546883	0.000000	0.119945	0.000000	0.000003	0.000000	0.000000	0.000000
15.627823	14.310673	19.287915	-1.343979	1.500739	2.615767	0.000000	0.192780	0.000000	0.000003	0.000000	0.000000	0.000000
16.068783	15.706690	17.787705	-1.833891	1.888460	2.717221	0.000000	0.267811	0.000000	0.000003	0.000000	0.000000	0.000000
16.514743	17.593599	15.960782	-2.412346	2.191006	2.854096	0.000000	0.346354	0.000000	0.000003	0.000001	0.000000	0.000000
17.063803	20.016839	13.920740	-1.974962	1.546443	3.020537	0.000000	0.259032	0.000000	0.000004	0.000000	0.000000	0.000000
17.612863	21.879869	12.524228	-1.398077	1.012030	3.137700	0.000000	0.167115	0.000000	0.000004	0.000000	0.000000	0.000000
18.161923	23.051093	11.671775	-0.722439	0.549702	3.203505	0.000000	0.072234	0.000000	0.000004	0.000000	0.000000	0.000000
18.710983	23.447782	11.302662	0.004228	0.126528	3.216787	0.000000	-0.023928	0.000000	0.000004	0.000000	0.000000	0.000000
19.009556	23.485654	11.217552	-0.069809	0.128999	3.212152	0.000000	-0.015523	0.000000	0.000004	0.000000	0.000000	0.000000
19.342889	23.536948	11.141622	-0.084071	0.098789	3.206977	0.000000	-0.015523	0.000000	0.000004	0.000000	0.000000	0.000000
19.676223	23.597750	11.085832	-0.098334	0.068580	3.201803	0.000000	-0.015523	0.000000	0.000004	0.000000	0.000000	0.000000
20.010806	23.668634	11.049950	-0.229917	0.093005	3.196629	0.000000	0.000315	0.000000	0.000004	0.000000	0.000000	0.000000
20.308129	23.809286	11.002714	-0.305350	0.094612	3.196723	0.000000	0.008667	0.000000	0.000004	0.000000	0.000000	0.000000
20.857189	23.733955	11.121322	0.441737	-0.311906	3.175265	0.000000	-0.086713	0.000000	0.000004	-0.000000	0.000000	0.000000
21.406249	22.850581	11.695842	1.157622	-0.740641	3.101784	0.000000	-0.180554	0.000000	0.000004	-0.000000	0.000000	0.000000
21.955309	21.221562	12.767197	1.791739	-1.222130	2.977583	0.000000	-0.271193	0.000000	0.000004	-0.000000	0.000000	0.000000
22.504369	18.961962	14.411698	2.299296	-1.790668	2.804866	0.000000	-0.357022	0.000000	0.000004	-0.000000	0.000000	0.000000
22.950329	17.181331	15.888010	1.707604	-1.505781	2.662940	0.000000	-0.279821	0.000000	0.000004	-0.000000	0.000000	0.000000
23.391289	15.904643	17.065011	1.198625	-1.153240	2.555870	0.000000	-0.206262	0.000000	0.000004	-0.000000	0.000000	0.000000
23.832249	15.051082	17.906684	0.744408	-0.748226	2.480689	0.000000	-0.135052	0.000000	0.000004	-0.000000	0.000000	0.000000
24.273209	14.581649	18.374735	0.324201	-0.309170	2.436540	0.000000	-0.065380	0.000000	0.000004	-0.000000	0.000000	0.000000
24.715418	14.475012	18.447620	-0.045786	0.098648	2.422917	0.000000	-0.002394	0.000000	0.000004	0.000000	0.000000	0.000000
25.012741	14.508359	18.393798	-0.066369	0.082374	2.422205	0.000000	-0.002394	0.000000	0.000004	0.000000	0.000000	0.000000
25.346075	14.560297	18.344964	-0.089446	0.064129	2.421407	0.000000	-0.002394	0.000000	0.000004	0.000000	0.000000	0.000000
25.679408	14.627620	18.308293	-0.112522	0.045884	2.420609	0.000000	-0.002394	0.000000	0.000004	0.000000	0.000000	0.000000
26.013991	14.710367	18.284087	-0.016345	-0.120759	2.419783	0.000000	-0.022025	0.000000	0.000004	0.000000	0.000000	0.000000
26.311314	14.726098	18.360801	-0.000451	-0.182282	2.413234	0.000000	-0.027943	0.000000	0.000004	-0.000000	0.000000	0.000000
26.752274	14.907951	18.322388	-0.413517	0.269064	2.416021	0.000000	0.040595	0.000000	0.000004	0.000000	0.000000	0.000000
27.193234	15.461018	17.889822	-0.845475	0.708167	2.449104	0.000000	0.109595	0.000000	0.000004	0.000000	0.000000	0.000000
27.634194	16.410566	17.082786	-1.316060	1.115049	2.512858	0.000000	0.179844	0.000000	0.000004	0.000000	0.000000	0.000000
28.075154	17.799978	15.937998	-1.846773	1.471198	2.608011	0.000000	0.252140	0.000000	0.000004	0.000000	0.000000	0.000000
28.521114	19.716877	14.490304	-2.466817	1.761322	2.737250	0.000000	0.327752	0.000000	0.000004	0.000000	0.000000	0.000000
29.070174	22.153263	12.877149	-1.944291	1.194050	2.894544	0.000000	0.244364	0.000000	0.000004	0.000000	0.000000	0.000000
29.619234	23.936582	11.836849	-1.284431	0.711828	3.004794	0.000000	0.156642	0.000000	0.000004	0.000000	0.000000	0.000000
30.168294	24.940870	11.295304	-0.533845	0.280307	3.066045	0.000000	0.066141	0.000000	0.000005	0.000000	0.000000	0.000000
30.717354	25.095188	11.213941	0.254449	-0.131247	3.077210	0.000000	-0.025533	0.000000	0.000005	-0.000000	0.000000	0.000000
31.015927	24.986077	11.282851	0.176561	-0.128850	3.071987	0.000000	-0.017493	0.000000	0.000004	-0.000000	0.000000	0.000000
31.349260	24.872955	11.378763	0.162804	-0.158884	3.066156	0.000000	-0.017493	0.000000	0.000004	-0.000000	0.000000	0.000000
31.682593	24.769005	11.494697	0.149047	-0.188918	3.060325	0.000000	-0.017493	0.000000	0.000004	-0.000000	0.000000	0.000000
32.017177	24.673888	11.631202	0.135239	-0.219065	3.054472	0.000000	-0.017493	0.000000	0.000004	-0.000000	0.000000	0.000000
32.314499	24.597117	11.769432	0.058703	-0.215104	3.049270	0.000000	-0.009526	0.000000	0.000004	-0.000000	0.000000	0.000000
32.863559	24.111286	12.244973	0.820900	-0.656108	3.019161	0.000000	-0.099988	0.000000	0.000004	-0.000000	0.000000	0.000000
33.412619	22.815514	13.227455	1.525112	-1.143845	2.939797	0.000000	-0.188676	0.000000	0.000004	-0.000000	0.000000	0.000000
33.961679	20.801328	14.786860	2.121598	-1.713055	2.812587	0.000000	-0.274018	0.000000	0.000004	-0.000000	0.000000	0.000000
34.510739	18.211000	17.034260	2.568225	-2.404283	2.639786	0.000000	-0.354499	0.000000	0.000004	-0.000001	0.000000	0.000000
34.956699	16.197032	19.044414	1.963985	-2.084372	2.498033	0.000000	-0.281579	0.000000	0.000003	-0.000001	0.000000	0.000000
35.397659	14.695322	20.706430	1.454479	-1.670372	2.389248	0.000000	-0.212293	0.000000	0.000003	-0.000000	0.000000	0.000000
35.838619	13.612067	21.968296	1.011424	-1.180371	2.310454	0.000000	-0.145425	0.000000	0.000003	-0.000000	0.000000	0.000000
36.279579	12.897775	22.772596	0.614578	-0.636664	2.260753	0.000000	-0.080213	0.000000	0.000003	-0.000000	0.000000	0.000000
36.721789	12.519121	23.083039	0.276404	-0.120649	2.239552	0.000000	-0.021407	0.000000	0.000003	-0.000000	0.000000	0.000000
37.019112	12.362359	23.158668	0.250840	-0.133717	2.233187	0.000000	-0.021407	0.000000	0.000003	-0.000000	0.000000	0.000000
37.352445	12.204686	23.252696	0.222180	-0.148368	2.226052	0.000000	-0.021407	0.000000	0.000003	-0.000000	0.000000	0.000000
37.685779	12.066119	23.356492	0.193520	-0.163019	2.218916	0.000000	-0.021407	0.000000	0.000003	-0.000000	0.000000	0.000000
38.020362	11.946247	23.470499	0.164752	-0.177725	2.211754	0.000000	-0.021407	0.000000	0.000003	-0.000000	0.000000	0.000000
38.317684	11.855879	23.580068	0.168262	-0.248617	2.205389	0.000000	-0.026815	0.000000	0.000002	-0.000000	0.000000	0.000000
38.758644	11.858702	23.538166	-0.174689	0.343280	2.207491	0.000000	0.036356	0.000000	0.000002	-0.000000	0.000000	0.000000
39.199604	12.166343	22.979178	-0.525620	0.919557	2.237513	0.000000	0.099941	0.000000	0.000002	-0.000000	0.000000	0.000000
39.640564	12.792857	21.928538	-0.900566	1.453996	2.295797	0.000000	0.164664	0.000000	0.000002	-0.000000	0.000000	0.000000
40.081524	13.766868	20.434049	-1.316655	1.922278	2.383008	0.000000	0.231263	0.000000	0.000002	0.000000	0.000000	0.000000
40.527484	15.150440	18.541142	-1.796724	2.304378	2.501610	0.000000	0.300900	0.000000	0.000002	0.000000	0.000000	0.000000
41.076544	16.916256	16.414077	-1.400310	1.592501	2.646295	0.000000	0.225351	0.000000	0.000002	0.000000	0.000000	0.000000
41.625604	18.189540	15.002237	-0.904986	0.994055	2.748339	0.000000	0.145806	0.000000	0.000002	-0.000000	0.000000	0.000000
42.174664	18.880352	14.205058	-0.345738	0.466413	2.805932	0.000000	0.063673	0.000000	0.000002	-0.000000	0.000000	0.000000
42.723724	18.939897	13.965760	0.237931	-0.028008	2.818053	0.000000	-0.019588	0.000000	0.000002	-0.000000	0.000000	0.000000
43.022297	18.832242	13.967079	0.172121	-0.012899	2.814403	0.000000	-0.012225	0.000000	0.000002	-0.000000	0.000000	0.000000
43.502297	18.679602	13.995961	0.145878	-0.047271	2.808535	0.000000	-0.012225	0.000000	0.000002	-0.000000	0.000000	0.000000
43.982297	18.552156	14.057840	0.119635	-0.081644	2.802667	0.000000	-0.012225	0.000000	0.000002	-0.000000	0.000000	0.000000
44.462297	18.449903	14.152717	0.093391	-0.116016	2.796799	0.000000	-0.012225	0.000000	0.000002	-0.000000	0.000000	0.000000
44.942297	18.372845	14.280590	0.067148	-0.150388	2.790931	0.000000	-0.012225	0.000000	0.000002	-0.000000	0.000000	0.000000
45.423547	18.321104	14.441745	-0.049937	-0.113296	2.785065	0.000000	0.001574	0.000000	0.000002	-0.000000	0.000000	0.000000
45.720870	18.355636	14.515316	-0.114165	-0.096223	2.785533	0.000000	0.008852	0.000000	0.000002	-0.000000	0.000000	0.000000
46.269930	18.171923	14.901789	0.446778	-0.611813	2.767824	0.000000	-0.073266	0.000000	0.000001	-0.000000	0.000000	0.000000
46.818990	17.385991	15.874907	0.976163	-1.170982	2.705318	0.000000	-0.154083	0.000000	0.000001	-0.000000	0.000000	0.000000
47.368050	16.053352	17.503981	1.436597	-1.813556	2.599124	0.000000	-0.232168	0.000000	0.000001	-0.000000	0.000000	0.000000
47.917110	14.268139	19.905048	1.795556	-2.585307	2.451126	0.000000	-0.306135	0.000000	0.000001	-0.000000	0.000000	0.000000
48.363070	12.878776	22.039900	1.330923	-2.181661	2.329893	0.000000	-0.237841	0.000000	0.000001	-0.000000	0.000000	0.000000
48.804030	11.885189	23.749251	0.930863	-1.680021	2.239474	0.000000	-0.172653	0.000000	0.000001	-0.000000	0.000000	0.000000
49.244990	11.224406	24.980671	0.573331	-1.101941	2.177339	0.000000	-0.109431	0.000000	0.000001	-0.000000	0.000000	0.000000
49.685950	10.866239	25.678130	0.241993	-0.473724	2.142782	0.000000	-0.047456	0.000000	0.000000	-0.000000	0.000000	0.000000
50.128160	10.794455	25.809613	-0.051934	0.112705	2.135419	0.000000	0.008742	0.000000	0.000000	-0.000000	0.000000	0.000000
50.425482	10.833548	25.746062	-0.079552	0.101039	2.138018	0.000000	0.008742	0.000000	0.000000	-0.000000	0.000000	0.000000
50.758816	10.896904	25.683062	-0.110515	0.087960	2.140932	0.000000	0.008742	0.000000	0.000000	-0.000000	0.000000	0.000000
51.092149	10.980902	25.628782	-0.141479	0.074881	2.143846	0.000000	0.008742	0.000000	0.000000	-0.000000	0.000000	0.000000
51.426732	11.085749	25.583586	-0.082623	-0.145794	2.146749	0.000000	-0.008674	0.000000	-0.000000	-0.000000	0.000000	0.000000
51.724055	11.142909	25.673810	-0.082301	-0.220623	2.144170	0.000000	-0.013932	0.000000	-0.000000	-0.000000	0.000000	0.000000
52.165015	11.360951	25.582780	-0.414045	0.426272	2.151615	0.000000	0.047730	0.000000	-0.000000	-0.000000	0.000000	0.000000
52.605975	11.878767	24.927648	-0.764705	1.053771	2.186344	0.000000	0.109935	0.000000	-0.000000	-0.000000	0.000000	0.000000
53.046935	12.720017	23.738220	-1.150302	1.633324	2.248753	0.000000	0.173392	0.000000	-0.000001	-0.000000	0.000000	0.000000
53.487895	13.923135	22.068615	-1.588454	2.138563	2.339552	0.000000	0.238824	0.000000	-0.000001	-0.000000	0.000000	0.000000
53.933855	15.563706	19.969834	-2.103414	2.547833	2.461280	0.000000	0.307375	0.000000	-0.000001	-0.000000	0.000000	0.000000
54.482915	17.675841	17.608258	-1.720635	1.778682	2.609868	0.000000	0.233070	0.000000	-0.000001	-0.000000	0.000000	0.000000
55.031975	19.298007	16.017192	-1.216319	1.136222	2.716460	0.000000	0.154630	0.000000	-0.000001	-0.000000	0.000000	0.000000
55.581035	20.315622	15.083310	-0.626088	0.574693	2.779167	0.000000	0.073448	0.000000	-0.000001	-0.000000	0.000000	0.000000
56.130095	20.656808	14.740093	0.008366	0.054098	2.796876	0.000000	-0.009036	0.000000	-0.000001	-0.000000	0.000000	0.000000
56.428668	20.688367	14.690890	-0.060091	0.072182	2.796360	0.000000	-0.001729	0.000000	-0.000002	-0.000000	0.000000	0.000000
56.762001	20.733817	14.650372	-0.076261	0.049374	2.795784	0.000000	-0.001729	0.000000	-0.000002	-0.000000	0.000000	0.000000
57.095334	20.790048	14.625059	-0.092431	0.026566	2.795208	0.000000	-0.001729	0.000000	-0.000002	-0.000000	0.000000	0.000000
57.429918	20.857331	14.614941	-0.108662	0.003672	2.794629	0.000000	-0.001729	0.000000	-0.000002	-0.000000	0.000000	0.000000
57.727240	20.926235	14.618807	-0.177763	0.021525	2.794116	0.000000	0.005572	0.000000	-0.000002	-0.000000	0.000000	0.000000
58.276300	20.764377	14.875959	0.470809	-0.492640	2.774535	0.000000	-0.076793	0.000000	-0.000002	-0.000000	0.000000	0.000000
58.825360	19.904436	15.713567	1.086125	-1.041895	2.710038	0.000000	-0.157796	0.000000	-0.000002	-0.000000	0.000000	0.000000
59.374420	18.407155	17.191291	1.624723	-1.665362	2.601770	0.000000	-0.236000	0.000000	-0.000002	-0.000000	0.000000	0.000000
59.923480	16.378293	19.414386	2.048558	-2.407449	2.451651	0.000000	-0.310018	0.000000	-0.000002	0.000000	0.000000	0.000000
60.369440	14.790231	21.390360	1.525049	-2.004682	2.328686	0.000000	-0.241733	0.000000	-0.000002	-0.000000	0.000000	0.000000
60.810400	13.647860	22.947034	1.075426	-1.512075	2.236540	0.000000	-0.176598	0.000000	-0.000002	-0.000000	0.000000	0.000000
61.251360	12.878938	24.037154	0.674936	-0.950670	2.172645	0.000000	-0.113475	0.000000	-0.000002	-0.000000	0.000000	0.000000
61.692320	12.448334	24.611122	0.305282	-0.346010	2.136274	0.000000	-0.051644	0.000000	-0.000002	-0.000000	0.000000	0.000000
62.134530	12.336427	24.642288	-0.020272	0.213908	2.127018	0.000000	0.004382	0.000000	-0.000002	-0.000000	0.000000	0.000000
62.431853	12.355650	24.518840	-0.044383	0.201290	2.128321	0.000000	0.004382	0.000000	-0.000002	-0.000000	0.000000	0.000000
62.765186	12.394249	24.389362	-0.071415	0.187144	2.129782	0.000000	0.004382	0.000000	-0.000002	-0.000000	0.000000	0.000000
63.098520	12.450870	24.269314	-0.098446	0.172999	2.131242	0.000000	0.004382	0.000000	-0.000002	-0.000000	0.000000	0.000000
63.433103	12.525824	24.158300	-0.125579	0.158800	2.132709	0.000000	0.004382	0.000000	-0.000002	-0.000000	0.000000	0.000000
63.730426	12.607668	24.067622	-0.118771	0.087160	2.134012	0.000000	-0.000851	0.000000	-0.000002	-0.000000	0.000000	0.000000
64.171386	12.872912	23.725683	-0.485027	0.685331	2.147177	0.000000	0.060622	0.000000	-0.000003	-0.000000	0.000000	0.000000
64.612346	13.469679	22.867993	-0.873442	1.252321	2.187577	0.000000	0.122786	0.000000	-0.000003	-0.000000	0.000000	0.000000
65.053306	14.425231	21.533574	-1.301762	1.762330	2.255670	0.000000	0.186348	0.000000	-0.000003	-0.000000	0.000000	0.000000
65.494266	15.783227	19.783143	-1.789556	2.192156	2.352233	0.000000	0.252033	0.000000	-0.000003	-0.000000	0.000000	0.000000
65.940226	17.628876	17.671565	-2.363803	2.522996	2.479937	0.000000	0.320990	0.000000	-0.000003	-0.000001	0.000000	0.000000
66.489286	19.994643	15.309293	-1.919450	1.804792	2.635812	0.000000	0.245962	0.000000	-0.000004	-0.000000	0.000000	0.000000
67.038346	21.794666	13.660900	-1.339516	1.215139	2.749232	0.000000	0.166572	0.000000	-0.000004	-0.000000	0.000000	0.000000
67.587406	22.901800	12.608974	-0.664966	0.712037	2.818185	0.000000	0.084227	0.000000	-0.000004	-0.000000	0.000000	0.000000
68.136466	23.237844	12.078589	0.056554	0.259652	2.841449	0.000000	0.000388	0.000000	-0.000004	-0.000000	0.000000	0.000000
68.435038	23.244166	11.912699	-0.017013	0.264397	2.843781	0.000000	0.007812	0.000000	-0.000004	-0.000000	0.000000	0.000000
68.768372	23.260290	11.746414	-0.031357	0.234460	2.846385	0.000000	0.007812	0.000000	-0.000004	-0.000000	0.000000	0.000000
69.101705	23.285976	11.600087	-0.045702	0.204522	2.848989	0.000000	0.007812	0.000000	-0.000004	-0.000000	0.000000	0.000000
69.436288	23.321376	11.473281	-0.060100	0.174473	2.851603	0.000000	0.007812	0.000000	-0.000004	-0.000000	0.000000	0.000000
69.733611	23.360919	11.377471	-0.133935	0.177498	2.853926	0.000000	0.015269	0.000000	-0.000004	-0.000000	0.000000	0.000000
70.282671	23.106793	11.410342	0.594034	-0.237718	2.839123	0.000000	-0.069111	0.000000	-0.000004	0.000000	0.000000	0.000000
