#ParticleID	Turn	x[m]	xp	y[m]	yp	z[m]	dE[GeV]# s	beta_x	beta_y	alpha_x	alpha_y	D_x	D_y	D_px	D_py	orbit_x	orbit_px	orbit_y	orbit_py
0.300000	11.806192	25.048236	-0.010326	-0.026910	2.618246	0.000000	-0.000040	0.000000	-0.000001	0.000002	0.000000	0.000000
0.601250	11.820101	25.068075	-0.035845	-0.038945	2.618233	0.000000	-0.000040	0.000000	-0.000000	0.000002	0.000000	0.000000
0.898573	11.848905	25.094765	-0.031975	-0.112363	2.618221	0.000000	-0.006461	0.000000	0.000000	0.000002	0.000000	0.000000
1.339533	12.029144	24.915475	-0.378317	0.517405	2.631665	0.000000	0.067499	0.000000	0.000001	0.000002	0.000000	0.000000
1.780493	12.521267	24.189080	-0.741944	1.123631	2.677861	0.000000	0.142228	0.000000	0.000001	0.000002	0.000000	0.000000
2.221453	13.347760	22.948630	-1.139468	1.678733	2.757334	0.000000	0.218576	0.000000	0.000002	0.000002	0.000000	0.000000
2.662413	14.546381	21.250564	-1.589051	2.157453	2.870991	0.000000	0.297414	0.000000	0.000003	0.000002	0.000000	0.000000
3.108373	16.192616	19.147242	-2.115520	2.539145	3.021986	0.000000	0.380128	0.000000	0.000004	0.000002	0.000000	0.000000
3.657433	18.303672	16.784858	-1.706573	1.788849	3.205426	0.000000	0.287091	0.000000	0.000005	0.000002	0.000000	0.000000
4.206493	19.896401	15.172006	-1.177082	1.165968	3.336309	0.000000	0.188961	0.000000	0.000006	0.000002	0.000000	0.000000
4.755553	20.858300	14.193808	-0.564448	0.626136	3.412312	0.000000	0.087480	0.000000	0.000007	0.000001	0.000000	0.000000
5.304613	21.121426	13.780587	0.088056	0.130903	3.432086	0.000000	-0.015553	0.000000	0.000007	0.000001	0.000000	0.000000
5.603185	21.106021	13.687568	0.018721	0.144637	3.430120	0.000000	-0.006586	0.000000	0.000008	0.000001	0.000000	0.000000
5.936519	21.098807	13.599431	0.002923	0.119775	3.427924	0.000000	-0.006586	0.000000	0.000008	0.000001	0.000000	0.000000
6.269852	21.102124	13.527869	-0.012876	0.094912	3.425728	0.000000	-0.006586	0.000000	0.000008	0.000001	0.000000	0.000000
6.604435	21.116047	13.472707	-0.028734	0.069956	3.423524	0.000000	-0.006586	0.000000	0.000009	0.000001	0.000000	0.000000
6.901758	21.137323	13.437701	-0.098050	0.082888	3.421566	0.000000	0.002353	0.000000	0.000009	0.000001	0.000000	0.000000
7.450818	20.884778	13.607610	0.555287	-0.394168	3.394657	0.000000	-0.100223	0.000000	0.000010	0.000001	0.000000	0.000000
7.999878	19.932182	14.313633	1.169401	-0.899298	3.311834	0.000000	-0.201022	0.000000	0.000010	0.000001	0.000000	0.000000
8.548938	18.346821	15.606059	1.700915	-1.468484	3.174566	0.000000	-0.298255	0.000000	0.000010	0.000000	0.000000	0.000000
9.097998	16.240678	17.576945	2.112284	-2.142267	2.985286	0.000000	-0.390198	0.000000	0.000010	-0.000000	0.000000	0.000000
9.543958	14.597541	19.333080	1.585311	-1.778962	2.829579	0.000000	-0.308496	0.000000	0.000010	0.000000	0.000000	0.000000
9.984918	13.402504	20.711879	1.135051	-1.335951	2.710789	0.000000	-0.230792	0.000000	0.000011	0.000000	0.000000	0.000000
10.425878	12.580279	21.671579	0.736648	-0.832155	2.625652	0.000000	-0.155717	0.000000	0.000011	0.000001	0.000000	0.000000
10.866838	12.093301	22.168514	0.371900	-0.290497	2.573199	0.000000	-0.082415	0.000000	0.000011	0.000001	0.000000	0.000000
11.309048	11.919188	22.179550	0.053265	0.209934	2.552810	0.000000	-0.016311	0.000000	0.000012	0.000001	0.000000	0.000000
11.606371	11.894952	22.058875	0.028249	0.195937	2.547960	0.000000	-0.016311	0.000000	0.000012	0.000001	0.000000	0.000000
12.086371	11.887218	21.881621	-0.012136	0.173342	2.540130	0.000000	-0.016311	0.000000	0.000013	0.000001	0.000000	0.000000
12.566371	11.918254	21.726059	-0.052522	0.150747	2.532300	0.000000	-0.016311	0.000000	0.000013	0.000001	0.000000	0.000000
13.046371	11.988060	21.592187	-0.092907	0.128151	2.524470	0.000000	-0.016311	0.000000	0.000014	0.000001	0.000000	0.000000
13.526371	12.096636	21.480008	-0.133293	0.105556	2.516640	0.000000	-0.016311	0.000000	0.000014	0.000001	0.000000	0.000000
14.007621	12.244416	21.389312	-0.173783	0.082902	2.508790	0.000000	-0.016311	0.000000	0.000015	0.000001	0.000000	0.000000
14.304943	12.355193	21.344176	-0.168505	0.016572	2.503940	0.000000	-0.022451	0.000000	0.000015	0.000001	0.000000	0.000000
14.745903	12.662295	21.095964	-0.530576	0.544176	2.509669	0.000000	0.048463	0.000000	0.000016	0.000002	0.000000	0.000000
15.186863	13.298157	20.391630	-0.916888	1.047021	2.546760	0.000000	0.119930	0.000000	0.000017	0.000002	0.000000	0.000000
15.627823	14.291830	19.263219	-1.345090	1.502227	2.615636	0.000000	0.192762	0.000000	0.000018	0.000003	0.000000	0.000000
16.068783	15.688712	17.762074	-1.834746	1.889083	2.717080	0.000000	0.267789	0.000000	0.000019	0.000003	0.000000	0.000000
16.514743	17.576284	15.934996	-2.412984	2.190730	2.853943	0.000000	0.346329	0.000000	0.000021	0.000004	0.000000	0.000000
17.063803	20.000690	13.894956	-1.976433	1.546714	3.020371	0.000000	0.259012	0.000000	0.000022	0.000003	0.000000	0.000000
17.612863	21.865748	12.497838	-1.400277	1.012867	3.137523	0.000000	0.167101	0.000000	0.000024	0.000002	0.000000	0.000000
18.161923	23.039720	11.644130	-0.725213	0.551165	3.203321	0.000000	0.072225	0.000000	0.000025	0.000001	0.000000	0.000000
18.710983	23.439682	11.273022	0.001078	0.128721	3.216598	0.000000	-0.023931	0.000000	0.000025	0.000000	0.000000	0.000000
19.009556	23.479419	11.186679	-0.072937	0.131020	3.211962	0.000000	-0.015528	0.000000	0.000025	0.000001	0.000000	0.000000
19.342889	23.532801	11.109435	-0.087209	0.100712	3.206786	0.000000	-0.015528	0.000000	0.000025	0.000001	0.000000	0.000000
19.676223	23.595698	11.052396	-0.101482	0.070403	3.201610	0.000000	-0.015528	0.000000	0.000026	0.000001	0.000000	0.000000
20.010806	23.668693	11.015328	-0.233076	0.094557	3.196434	0.000000	0.000309	0.000000	0.000026	0.000001	0.000000	0.000000
20.308129	23.811228	10.967197	-0.308521	0.095973	3.196525	0.000000	0.008659	0.000000	0.000026	0.000001	0.000000	0.000000
20.857189	23.739326	11.083757	0.438699	-0.309516	3.175065	0.000000	-0.086714	0.000000	0.000026	-0.000000	0.000000	0.000000
21.406249	22.859117	11.655014	1.154931	-0.737052	3.101585	0.000000	-0.180549	0.000000	0.000026	-0.000001	0.000000	0.000000
21.955309	21.232774	12.721658	1.789584	-1.217086	2.977389	0.000000	-0.271182	0.000000	0.000025	-0.000002	0.000000	0.000000
22.504369	18.975173	14.359662	2.297830	-1.783811	2.804680	0.000000	-0.357005	0.000000	0.000024	-0.000003	0.000000	0.000000
22.950329	17.195895	15.830377	1.706021	-1.500140	2.662762	0.000000	-0.279809	0.000000	0.000023	-0.000002	0.000000	0.000000
23.391289	15.920681	17.003034	1.196852	-1.149066	2.555697	0.000000	-0.206254	0.000000	0.000022	-0.000001	0.000000	0.000000
23.832249	15.068795	17.841747	0.742365	-0.745711	2.480519	0.000000	-0.135048	0.000000	0.000022	-0.000001	0.000000	0.000000
24.273209	14.601317	18.308355	0.321793	-0.308427	2.436371	0.000000	-0.065381	0.000000	0.000021	-0.000000	0.000000	0.000000
24.715418	14.497011	18.381384	-0.048619	0.097754	2.422746	0.000000	-0.002398	0.000000	0.000021	0.000000	0.000000	0.000000
25.012741	14.532034	18.328110	-0.069177	0.081425	2.422033	0.000000	-0.002398	0.000000	0.000022	0.000000	0.000000	0.000000
25.346075	14.585834	18.279929	-0.092224	0.063117	2.421234	0.000000	-0.002398	0.000000	0.000022	0.000000	0.000000	0.000000
25.679408	14.654999	18.243954	-0.115272	0.044809	2.420435	0.000000	-0.002398	0.000000	0.000022	0.000000	0.000000	0.000000
26.013991	14.739577	18.220487	-0.018829	-0.121380	2.419608	0.000000	-0.022027	0.000000	0.000022	0.000000	0.000000	0.000000
26.311314	14.756773	18.297588	-0.002827	-0.182801	2.413058	0.000000	-0.027944	0.000000	0.000022	0.000000	0.000000	0.000000
26.752274	14.941061	18.260387	-0.416683	0.266843	2.415844	0.000000	0.040590	0.000000	0.000022	0.000001	0.000000	0.000000
27.193234	15.497320	17.830496	-0.849575	0.704345	2.448922	0.000000	0.109585	0.000000	0.000022	0.000001	0.000000	0.000000
27.634194	16.450964	17.027474	-1.321282	1.109800	2.512671	0.000000	0.179829	0.000000	0.000023	0.000002	0.000000	0.000000
28.075154	17.845562	15.887859	-1.853355	1.464761	2.607816	0.000000	0.252121	0.000000	0.000024	0.000002	0.000000	0.000000
28.521114	19.769055	14.446332	-2.475074	1.753987	2.737044	0.000000	0.327728	0.000000	0.000025	0.000003	0.000000	0.000000
29.070174	22.213816	12.840264	-1.951194	1.188401	2.894326	0.000000	0.244346	0.000000	0.000026	0.000002	0.000000	0.000000
29.619234	24.003744	11.805429	-1.289491	0.707462	3.004567	0.000000	0.156631	0.000000	0.000027	0.000001	0.000000	0.000000
30.168294	25.012406	11.268119	-0.536705	0.276915	3.065814	0.000000	0.066138	0.000000	0.000028	0.000000	0.000000	0.000000
30.717354	25.168557	11.190061	0.253992	-0.133909	3.076979	0.000000	-0.025529	0.000000	0.000028	-0.000001	0.000000	0.000000
31.015927	25.059815	11.260623	0.175963	-0.131652	3.071756	0.000000	-0.017491	0.000000	0.000028	-0.000000	0.000000	0.000000
31.349260	24.947077	11.358429	0.162249	-0.161767	3.065926	0.000000	-0.017491	0.000000	0.000027	-0.000000	0.000000	0.000000
31.682593	24.843482	11.476312	0.148536	-0.191882	3.060096	0.000000	-0.017491	0.000000	0.000027	-0.000000	0.000000	0.000000
32.017177	24.748692	11.614827	0.134771	-0.222110	3.054244	0.000000	-0.017491	0.000000	0.000027	-0.000000	0.000000	0.000000
32.314499	24.672188	11.754890	0.058090	-0.218265	3.049044	0.000000	-0.009526	0.000000	0.000027	-0.000000	0.000000	0.000000
32.863559	24.185658	12.233752	0.822778	-0.659033	3.018937	0.000000	-0.099981	0.000000	0.000027	-0.000001	0.000000	0.000000
33.412619	22.886508	13.219413	1.529348	-1.146742	2.939580	0.000000	-0.188662	0.000000	0.000026	-0.000002	0.000000	0.000000
33.961679	20.866503	14.782079	2.127893	-1.716132	2.812380	0.000000	-0.273997	0.000000	0.000024	-0.000003	0.000000	0.000000
34.510739	18.268328	17.033056	2.576134	-2.407758	2.639594	0.000000	-0.354472	0.000000	0.000022	-0.000004	0.000000	0.000000
34.956699	16.248097	19.046499	1.970166	-2.088243	2.497853	0.000000	-0.281556	0.000000	0.000021	-0.000003	0.000000	0.000000
35.397659	14.741586	20.712039	1.459227	-1.674459	2.389078	0.000000	-0.212274	0.000000	0.000020	-0.000003	0.000000	0.000000
35.838619	13.654694	21.977536	1.014956	-1.184489	2.310292	0.000000	-0.145411	0.000000	0.000019	-0.000002	0.000000	0.000000
36.279579	12.937762	22.785413	0.617055	-0.640625	2.260597	0.000000	-0.080203	0.000000	0.000018	-0.000002	0.000000	0.000000
36.721789	12.557341	23.099221	0.278030	-0.124303	2.239400	0.000000	-0.021400	0.000000	0.000017	-0.000001	0.000000	0.000000
37.019112	12.399595	23.177023	0.252522	-0.137374	2.233038	0.000000	-0.021400	0.000000	0.000017	-0.000001	0.000000	0.000000
37.352445	12.240780	23.273490	0.223925	-0.152027	2.225905	0.000000	-0.021400	0.000000	0.000016	-0.000001	0.000000	0.000000
37.685779	12.101028	23.379726	0.195328	-0.166681	2.218772	0.000000	-0.021400	0.000000	0.000016	-0.000001	0.000000	0.000000
38.020362	11.979925	23.496185	0.166624	-0.181389	2.211612	0.000000	-0.021400	0.000000	0.000016	-0.000001	0.000000	0.000000
38.317684	11.888426	23.607933	0.170267	-0.252345	2.205250	0.000000	-0.026807	0.000000	0.000015	-0.000001	0.000000	0.000000
38.758644	11.889805	23.568982	-0.173404	0.340341	2.207355	0.000000	0.036360	0.000000	0.000015	-0.000001	0.000000	0.000000
39.199604	12.196608	23.012187	-0.524997	0.917542	2.237379	0.000000	0.099942	0.000000	0.000015	-0.000000	0.000000	0.000000
39.640564	12.822853	21.962882	-0.900576	1.452995	2.295663	0.000000	0.164662	0.000000	0.000014	-0.000000	0.000000	0.000000
40.081524	13.797152	20.468809	-1.317300	1.922338	2.382872	0.000000	0.231257	0.000000	0.000014	0.000000	0.000000	0.000000
40.527484	15.181594	18.575370	-1.798035	2.305503	2.501471	0.000000	0.300891	0.000000	0.000015	0.000001	0.000000	0.000000
41.076544	16.948206	16.447559	-1.400437	1.592743	2.646152	0.000000	0.225347	0.000000	0.000015	0.000000	0.000000	0.000000
41.625604	18.220970	15.035927	-0.903919	0.993430	2.748195	0.000000	0.145806	0.000000	0.000015	-0.000000	0.000000	0.000000
42.174664	18.909986	14.239926	-0.343553	0.464878	2.805789	0.000000	0.063678	0.000000	0.000015	-0.000001	0.000000	0.000000
42.723724	18.966584	14.002860	0.241080	-0.030563	2.817914	0.000000	-0.019579	0.000000	0.000014	-0.000001	0.000000	0.000000
43.022297	18.857086	14.005632	0.175210	-0.015303	2.814267	0.000000	-0.012217	0.000000	0.000014	-0.000001	0.000000	0.000000
43.502297	18.701477	14.036777	0.148974	-0.049583	2.808403	0.000000	-0.012217	0.000000	0.000013	-0.000001	0.000000	0.000000
43.982297	18.571055	14.100831	0.122738	-0.083863	2.802540	0.000000	-0.012217	0.000000	0.000012	-0.000001	0.000000	0.000000
44.462297	18.465820	14.197794	0.096502	-0.118143	2.796676	0.000000	-0.012217	0.000000	0.000012	-0.000001	0.000000	0.000000
44.942297	18.385771	14.327665	0.070266	-0.152423	2.790813	0.000000	-0.012217	0.000000	0.000011	-0.000001	0.000000	0.000000
45.423547	18.331026	14.490732	-0.046860	-0.114996	2.784951	0.000000	0.001581	0.000000	0.000011	-0.000001	0.000000	0.000000
45.720870	18.363724	14.565295	-0.111092	-0.097732	2.785421	0.000000	0.008858	0.000000	0.000010	-0.000001	0.000000	0.000000
46.269930	18.176516	14.954269	0.450034	-0.614886	2.767717	0.000000	-0.073255	0.000000	0.000010	-0.000001	0.000000	0.000000
46.818990	17.387011	15.931713	0.979373	-1.175836	2.705218	0.000000	-0.154070	0.000000	0.000009	-0.000002	0.000000	0.000000
47.368050	16.050977	17.567248	1.439534	-1.820538	2.599034	0.000000	-0.232152	0.000000	0.000008	-0.000002	0.000000	0.000000
47.917110	14.262784	19.977369	1.798013	-2.594913	2.451047	0.000000	-0.306115	0.000000	0.000007	-0.000002	0.000000	0.000000
48.363070	12.871297	22.120105	1.333248	-2.189658	2.329823	0.000000	-0.237823	0.000000	0.000006	-0.000002	0.000000	0.000000
48.804030	11.875675	23.835666	0.933166	-1.686052	2.239411	0.000000	-0.172637	0.000000	0.000005	-0.000002	0.000000	0.000000
49.244990	11.212832	25.071434	0.575718	-1.105732	2.177284	0.000000	-0.109417	0.000000	0.000004	-0.000002	0.000000	0.000000
49.685950	10.852483	25.771181	0.244573	-0.475102	2.142733	0.000000	-0.047443	0.000000	0.000003	-0.000002	0.000000	0.000000
50.128160	10.778288	25.902786	-0.049084	0.113576	2.135376	0.000000	0.008754	0.000000	0.000002	-0.000002	0.000000	0.000000
50.425482	10.815698	25.838706	-0.076736	0.101950	2.137979	0.000000	0.008754	0.000000	0.000002	-0.000002	0.000000	0.000000
50.758816	10.877189	25.775084	-0.107737	0.088915	2.140898	0.000000	0.008754	0.000000	0.000001	-0.000002	0.000000	0.000000
51.092149	10.959347	25.720152	-0.138738	0.075881	2.143816	0.000000	0.008754	0.000000	0.000001	-0.000002	0.000000	0.000000
51.426732	11.062372	25.674274	-0.080110	-0.145485	2.146724	0.000000	-0.008662	0.000000	0.000000	-0.000002	0.000000	0.000000
51.724055	11.118052	25.764302	-0.079894	-0.220493	2.144149	0.000000	-0.013920	0.000000	-0.000000	-0.000002	0.000000	0.000000
52.165015	11.333703	25.672102	-0.411011	0.428787	2.151600	0.000000	0.047741	0.000000	-0.000001	-0.000002	0.000000	0.000000
52.605975	11.848518	25.013737	-0.760905	1.058558	2.186334	0.000000	0.109946	0.000000	-0.000002	-0.000002	0.000000	0.000000
53.046935	12.686016	23.819162	-1.145563	1.640165	2.248748	0.000000	0.173403	0.000000	-0.000003	-0.000002	0.000000	0.000000
53.487895	13.884462	22.142730	-1.582559	2.147146	2.339553	0.000000	0.238835	0.000000	-0.000004	-0.000002	0.000000	0.000000
53.933855	15.519155	20.035653	-2.096082	2.557773	2.461287	0.000000	0.307386	0.000000	-0.000004	-0.000002	0.000000	0.000000
54.482915	17.623825	17.664599	-1.714452	1.786106	2.609881	0.000000	0.233081	0.000000	-0.000005	-0.000002	0.000000	0.000000
55.031975	19.240038	16.066514	-1.211723	1.141659	2.716480	0.000000	0.154641	0.000000	-0.000006	-0.000002	0.000000	0.000000
55.581035	20.253631	15.127569	-0.623403	0.578530	2.779193	0.000000	0.073458	0.000000	-0.000007	-0.000001	0.000000	0.000000
56.130095	20.593011	14.780887	0.008950	0.056609	2.796908	0.000000	-0.009028	0.000000	-0.000008	-0.000001	0.000000	0.000000
56.428668	20.624136	14.730105	-0.059387	0.074848	2.796395	0.000000	-0.001719	0.000000	-0.000008	-0.000001	0.000000	0.000000
56.762001	20.669134	14.687792	-0.075606	0.052092	2.795822	0.000000	-0.001719	0.000000	-0.000009	-0.000001	0.000000	0.000000
57.095334	20.724944	14.660649	-0.091825	0.029336	2.795250	0.000000	-0.001719	0.000000	-0.000009	-0.000001	0.000000	0.000000
57.429918	20.791838	14.648661	-0.108105	0.006494	2.794675	0.000000	-0.001719	0.000000	-0.000010	-0.000001	0.000000	0.000000
57.727240	20.860424	14.650835	-0.177082	0.024479	2.794164	0.000000	0.005582	0.000000	-0.000010	-0.000001	0.000000	0.000000
58.276300	20.699031	14.905232	0.469284	-0.490547	2.774588	0.000000	-0.076785	0.000000	-0.000011	-0.000001	0.000000	0.000000
58.825360	19.841934	15.740944	1.082501	-1.040515	2.710096	0.000000	-0.157790	0.000000	-0.000011	-0.000001	0.000000	0.000000
59.374420	18.349674	17.217496	1.619256	-1.664596	2.601831	0.000000	-0.235996	0.000000	-0.000011	-0.000000	0.000000	0.000000
59.923480	16.327656	19.440059	2.041635	-2.407242	2.451713	0.000000	-0.310016	0.000000	-0.000011	0.000000	0.000000	0.000000
60.369440	14.745080	21.415452	1.519627	-2.003590	2.328750	0.000000	-0.241729	0.000000	-0.000011	-0.000000	0.000000	0.000000
60.810400	13.606926	22.970791	1.071246	-1.510153	2.236606	0.000000	-0.176593	0.000000	-0.000011	-0.000000	0.000000	0.000000
61.251360	12.841215	24.058881	0.671807	-0.948005	2.172715	0.000000	-0.113468	0.000000	-0.000012	-0.000001	0.000000	0.000000
61.692320	12.412961	24.630215	0.303061	-0.342724	2.136348	0.000000	-0.051635	0.000000	-0.000012	-0.000001	0.000000	0.000000
62.134530	12.302655	24.658254	-0.021767	0.217620	2.127097	0.000000	0.004393	0.000000	-0.000012	-0.000001	0.000000	0.000000
62.431853	12.322788	24.532602	-0.045946	0.204991	2.128403	0.000000	0.004393	0.000000	-0.000013	-0.000001	0.000000	0.000000
62.765186	12.362455	24.400661	-0.073054	0.190833	2.129868	0.000000	0.004393	0.000000	-0.000013	-0.000001	0.000000	0.000000
63.098520	12.420193	24.278158	-0.100161	0.176675	2.131332	0.000000	0.004393	0.000000	-0.000014	-0.000001	0.000000	0.000000
63.433103	12.496321	24.164689	-0.127370	0.162463	2.132803	0.000000	0.004393	0.000000	-0.000014	-0.000001	0.000000	0.000000
63.730426	12.579250	24.071836	-0.120696	0.090795	2.134109	0.000000	-0.000842	0.000000	-0.000014	-0.000001	0.000000	0.000000
64.171386	12.845922	23.726671	-0.486354	0.688983	2.147280	0.000000	0.060634	0.000000	-0.000015	-0.000002	0.000000	0.000000
64.612346	13.443618	22.865814	-0.874231	1.255823	2.187686	0.000000	0.122801	0.000000	-0.000016	-0.000002	0.000000	0.000000
65.053306	14.399644	21.528432	-1.302050	1.765524	2.255787	0.000000	0.186366	0.000000	-0.000017	-0.000002	0.000000	0.000000
65.494266	15.757677	19.775374	-1.789356	2.194896	2.352359	0.000000	0.252054	0.000000	-0.000018	-0.000003	0.000000	0.000000
65.940226	17.602925	17.661604	-2.363103	2.525152	2.480075	0.000000	0.321014	0.000000	-0.000019	-0.000003	0.000000	0.000000
66.489286	19.968497	15.297019	-1.919801	1.806876	2.635963	0.000000	0.245982	0.000000	-0.000021	-0.000003	0.000000	0.000000
67.038346	21.769474	13.646309	-1.340894	1.217301	2.749394	0.000000	0.166586	0.000000	-0.000022	-0.000002	0.000000	0.000000
67.587406	22.878644	12.591897	-0.667274	0.714430	2.818355	0.000000	0.084236	0.000000	-0.000023	-0.000001	0.000000	0.000000
68.136466	23.217660	12.058680	0.053480	0.262447	2.841622	0.000000	0.000391	0.000000	-0.000024	-0.000001	0.000000	0.000000
68.435038	23.225797	11.891174	-0.020056	0.267061	2.843956	0.000000	0.007818	0.000000	-0.000024	-0.000001	0.000000	0.000000
68.768372	23.243954	11.723144	-0.034414	0.237030	2.846562	0.000000	0.007818	0.000000	-0.000024	-0.000001	0.000000	0.000000
69.101705	23.271682	11.575134	-0.048772	0.206999	2.849168	0.000000	0.007818	0.000000	-0.000024	-0.000001	0.000000	0.000000
69.436288	23.309140	11.446703	-0.063183	0.176855	2.851784	0.000000	0.007818	0.000000	-0.000025	-0.000001	0.000000	0.000000
69.733611	23.350519	11.349502	-0.137013	0.179728	2.854109	0.000000	0.015276	0.000000	-0.000025	-0.000001	0.000000	0.000000
70.282671	23.099934	11.379485	0.590702	-0.234658	2.839308	0.000000	-0.069110	0.000000	-0.000025	0.000000	0.000000	0.000000
