#ParticleID	Turn	x[m]	xp	y[m]	yp	z[m]	dE[GeV]# s	beta_x	beta_y	alpha_x	alpha_y	D_x	D_y	D_px	D_py	orbit_x	orbit_px	orbit_y	orbit_py
0.300000	11.827977	24.961927	-0.012826	-0.027708	2.618211	0.000000	-0.000025	0.000000	-0.000000	0.000000	0.000000	0.000000
0.601250	11.843379	24.982259	-0.038299	-0.039786	2.618204	0.000000	-0.000025	0.000000	-0.000000	0.000000	0.000000	0.000000
0.898573	11.873628	25.009462	-0.034323	-0.113036	2.618196	0.000000	-0.006446	0.000000	-0.000000	0.000000	0.000000	0.000000
1.339533	12.056204	24.831760	-0.381290	0.514492	2.631647	0.000000	0.067513	0.000000	0.000000	0.000000	0.000000	0.000000
1.780493	12.551273	24.108876	-0.745677	1.118611	2.677850	0.000000	0.142242	0.000000	0.000000	0.000000	0.000000	0.000000
2.221453	13.381454	22.873702	-1.144131	1.671834	2.757330	0.000000	0.218590	0.000000	0.000000	0.000000	0.000000	0.000000
2.662413	14.584674	21.182436	-1.594858	2.148990	2.870993	0.000000	0.297427	0.000000	0.000000	0.000000	0.000000	0.000000
3.108373	16.236700	19.087224	-2.122747	2.529499	3.021995	0.000000	0.380142	0.000000	0.000001	0.000000	0.000000	0.000000
3.657433	18.355109	16.734083	-1.712661	1.781560	3.205444	0.000000	0.287105	0.000000	0.000001	0.000000	0.000000	0.000000
4.206493	19.953696	15.128185	-1.181601	1.160519	3.336335	0.000000	0.188974	0.000000	0.000001	0.000000	0.000000	0.000000
4.755553	20.919543	14.155143	-0.567079	0.622138	3.412345	0.000000	0.087492	0.000000	0.000001	0.000000	0.000000	0.000000
5.304613	21.184429	13.745650	0.087499	0.128071	3.432126	0.000000	-0.015542	0.000000	0.000001	0.000000	0.000000	0.000000
5.603185	21.169444	13.654387	0.018040	0.141680	3.430163	0.000000	-0.006575	0.000000	0.000001	0.000000	0.000000	0.000000
5.936519	21.162667	13.568235	0.002289	0.116778	3.427972	0.000000	-0.006575	0.000000	0.000001	0.000000	0.000000	0.000000
6.269852	21.166391	13.498684	-0.013462	0.091875	3.425780	0.000000	-0.006575	0.000000	0.000001	0.000000	0.000000	0.000000
6.604435	21.180689	13.445567	-0.029272	0.066880	3.423580	0.000000	-0.006575	0.000000	0.000002	0.000000	0.000000	0.000000
6.901758	21.202273	13.412401	-0.098718	0.079712	3.421625	0.000000	0.002365	0.000000	0.000002	0.000000	0.000000	0.000000
7.450818	20.949264	13.585419	0.556795	-0.396688	3.394724	0.000000	-0.100213	0.000000	0.000002	0.000000	0.000000	0.000000
7.999878	19.993859	14.293935	1.172978	-0.901344	3.311906	0.000000	-0.201014	0.000000	0.000002	0.000000	0.000000	0.000000
8.548938	18.403543	15.588413	1.706309	-1.470200	3.174641	0.000000	-0.298250	0.000000	0.000002	0.000000	0.000000	0.000000
9.097998	16.290649	17.561058	2.119114	-2.143775	2.985363	0.000000	-0.390195	0.000000	0.000002	-0.000000	0.000000	0.000000
9.543958	14.642100	19.318840	1.590659	-1.781136	2.829658	0.000000	-0.308491	0.000000	0.000002	0.000000	0.000000	0.000000
9.984918	13.442903	20.699812	1.139172	-1.338686	2.710871	0.000000	-0.230785	0.000000	0.000002	0.000000	0.000000	0.000000
10.425878	12.617513	21.662126	0.739731	-0.835327	2.625738	0.000000	-0.155708	0.000000	0.000002	0.000000	0.000000	0.000000
10.866838	12.128220	22.161999	0.374087	-0.293961	2.573289	0.000000	-0.082403	0.000000	0.000002	0.000000	0.000000	0.000000
11.309048	11.952533	22.176171	0.054739	0.206338	2.552907	0.000000	-0.016298	0.000000	0.000002	0.000000	0.000000	0.000000
11.606371	11.927401	22.057629	0.029789	0.192360	2.548061	0.000000	-0.016298	0.000000	0.000002	0.000000	0.000000	0.000000
12.086371	11.918138	21.883796	-0.010490	0.169793	2.540238	0.000000	-0.016298	0.000000	0.000002	0.000000	0.000000	0.000000
12.566371	11.947542	21.731626	-0.050769	0.147227	2.532414	0.000000	-0.016298	0.000000	0.000002	0.000000	0.000000	0.000000
13.046371	12.015615	21.601120	-0.091049	0.124661	2.524591	0.000000	-0.016298	0.000000	0.000003	0.000000	0.000000	0.000000
13.526371	12.122355	21.492277	-0.131328	0.102094	2.516768	0.000000	-0.016298	0.000000	0.000003	0.000000	0.000000	0.000000
14.007621	12.268193	21.404900	-0.171712	0.079469	2.508924	0.000000	-0.016298	0.000000	0.000003	0.000000	0.000000	0.000000
14.304943	12.377719	21.361800	-0.166309	0.013107	2.504078	0.000000	-0.022439	0.000000	0.000003	0.000000	0.000000	0.000000
14.745903	12.683085	21.116411	-0.528822	0.541262	2.509814	0.000000	0.048479	0.000000	0.000003	0.000000	0.000000	0.000000
15.186863	13.317564	20.414354	-0.915495	1.044790	2.546914	0.000000	0.119949	0.000000	0.000003	0.000000	0.000000	0.000000
15.627823	14.310144	19.287571	-1.343995	1.500781	2.615800	0.000000	0.192785	0.000000	0.000003	0.000000	0.000000	0.000000
16.068783	15.706171	17.787330	-1.833898	1.888488	2.717256	0.000000	0.267817	0.000000	0.000003	0.000001	0.000000	0.000000
16.514743	17.593083	15.960389	-2.412345	2.191018	2.854134	0.000000	0.346361	0.000000	0.000004	0.000001	0.000000	0.000000
17.063803	20.016334	13.920330	-1.974984	1.546462	3.020579	0.000000	0.259038	0.000000	0.000004	0.000001	0.000000	0.000000
17.612863	21.879400	12.523792	-1.398120	1.012057	3.137744	0.000000	0.167120	0.000000	0.000004	0.000000	0.000000	0.000000
18.161923	23.050681	11.671305	-0.722500	0.549739	3.203552	0.000000	0.072237	0.000000	0.000004	0.000000	0.000000	0.000000
18.710983	23.447445	11.302146	0.004154	0.126577	3.216834	0.000000	-0.023926	0.000000	0.000005	0.000000	0.000000	0.000000
19.009556	23.485361	11.217008	-0.069883	0.129045	3.212200	0.000000	-0.015522	0.000000	0.000005	0.000000	0.000000	0.000000
19.342889	23.536704	11.141048	-0.084145	0.098833	3.207026	0.000000	-0.015522	0.000000	0.000005	0.000000	0.000000	0.000000
19.676223	23.597555	11.085230	-0.098408	0.068622	3.201852	0.000000	-0.015522	0.000000	0.000005	0.000000	0.000000	0.000000
20.010806	23.668489	11.049320	-0.229991	0.093042	3.196678	0.000000	0.000317	0.000000	0.000005	0.000000	0.000000	0.000000
20.308129	23.809185	11.002063	-0.305424	0.094645	3.196773	0.000000	0.008669	0.000000	0.000005	0.000000	0.000000	0.000000
20.857189	23.733936	11.120624	0.441662	-0.311854	3.175316	0.000000	-0.086712	0.000000	0.000005	-0.000000	0.000000	0.000000
21.406249	22.850644	11.695075	1.157550	-0.740566	3.101834	0.000000	-0.180556	0.000000	0.000005	-0.000000	0.000000	0.000000
21.955309	21.221699	12.766332	1.791675	-1.222026	2.977632	0.000000	-0.271196	0.000000	0.000005	-0.000000	0.000000	0.000000
22.504369	18.962163	14.410700	2.299246	-1.790529	2.804912	0.000000	-0.357026	0.000000	0.000004	-0.000000	0.000000	0.000000
22.950329	17.181576	15.886898	1.707554	-1.505665	2.662985	0.000000	-0.279825	0.000000	0.000004	-0.000000	0.000000	0.000000
23.391289	15.904933	17.063808	1.198574	-1.153151	2.555914	0.000000	-0.206264	0.000000	0.000004	-0.000000	0.000000	0.000000
23.832249	15.051418	17.905417	0.744353	-0.748170	2.480732	0.000000	-0.135053	0.000000	0.000004	-0.000000	0.000000	0.000000
24.273209	14.582036	18.373432	0.324139	-0.309147	2.436583	0.000000	-0.065380	0.000000	0.000004	-0.000000	0.000000	0.000000
24.715418	14.475458	18.446313	-0.045856	0.098638	2.422960	0.000000	-0.002393	0.000000	0.000004	0.000000	0.000000	0.000000
25.012741	14.508846	18.392498	-0.066439	0.082363	2.422248	0.000000	-0.002393	0.000000	0.000004	0.000000	0.000000	0.000000
25.346075	14.560831	18.343671	-0.089515	0.064117	2.421450	0.000000	-0.002393	0.000000	0.000004	0.000000	0.000000	0.000000
25.679408	14.628199	18.307009	-0.112591	0.045870	2.420653	0.000000	-0.002393	0.000000	0.000004	0.000000	0.000000	0.000000
26.013991	14.710993	18.282813	-0.016408	-0.120764	2.419827	0.000000	-0.022025	0.000000	0.000004	0.000000	0.000000	0.000000
26.311314	14.726760	18.359530	-0.000511	-0.182284	2.413279	0.000000	-0.027942	0.000000	0.000004	0.000000	0.000000	0.000000
26.752274	14.908675	18.321134	-0.413595	0.269027	2.416066	0.000000	0.040597	0.000000	0.000004	0.000000	0.000000	0.000000
27.193234	15.461819	17.888615	-0.845574	0.708098	2.449149	0.000000	0.109598	0.000000	0.000004	0.000000	0.000000	0.000000
27.634194	16.411465	17.081653	-1.316185	1.114951	2.512906	0.000000	0.179848	0.000000	0.000004	0.000000	0.000000	0.000000
28.075154	17.801000	15.936964	-1.846928	1.471074	2.608061	0.000000	0.252146	0.000000	0.000004	0.000000	0.000000	0.000000
28.521114	19.718054	14.489389	-2.467010	1.761179	2.737302	0.000000	0.327759	0.000000	0.000005	0.000001	0.000000	0.000000
29.070174	22.154637	12.876373	-1.944455	1.193941	2.894599	0.000000	0.244369	0.000000	0.000005	0.000000	0.000000	0.000000
29.619234	23.938114	11.836177	-1.284553	0.711745	3.004852	0.000000	0.156645	0.000000	0.000005	0.000000	0.000000	0.000000
30.168294	24.942510	11.294711	-0.533917	0.280245	3.066104	0.000000	0.066142	0.000000	0.000005	0.000000	0.000000	0.000000
30.717354	25.096877	11.213408	0.254432	-0.131294	3.077268	0.000000	-0.025534	0.000000	0.000005	-0.000000	0.000000	0.000000
31.015927	24.987779	11.282347	0.176540	-0.128900	3.072045	0.000000	-0.017494	0.000000	0.000005	-0.000000	0.000000	0.000000
31.349260	24.874670	11.378292	0.162785	-0.158935	3.066214	0.000000	-0.017494	0.000000	0.000005	-0.000000	0.000000	0.000000
31.682593	24.770732	11.494261	0.149029	-0.188971	3.060383	0.000000	-0.017494	0.000000	0.000005	-0.000000	0.000000	0.000000
32.017177	24.675627	11.630801	0.135222	-0.219119	3.054530	0.000000	-0.017494	0.000000	0.000005	-0.000000	0.000000	0.000000
32.314499	24.598866	11.769064	0.058683	-0.215161	3.049328	0.000000	-0.009527	0.000000	0.000005	-0.000000	0.000000	0.000000
32.863559	24.113025	12.244663	0.820938	-0.656158	3.019218	0.000000	-0.099990	0.000000	0.000005	-0.000000	0.000000	0.000000
33.412619	22.817181	13.227198	1.525205	-1.143891	2.939853	0.000000	-0.188681	0.000000	0.000005	-0.000000	0.000000	0.000000
33.961679	20.802865	14.786653	2.121740	-1.713101	2.812639	0.000000	-0.274024	0.000000	0.000005	-0.000001	0.000000	0.000000
34.510739	18.212358	17.034105	2.568406	-2.404332	2.639835	0.000000	-0.354507	0.000000	0.000004	-0.000001	0.000000	0.000000
34.956699	16.198246	19.044307	1.964126	-2.084431	2.498079	0.000000	-0.281585	0.000000	0.000004	-0.000001	0.000000	0.000000
35.397659	14.696428	20.706379	1.454587	-1.670439	2.389291	0.000000	-0.212298	0.000000	0.000004	-0.000000	0.000000	0.000000
35.838619	13.613091	21.968306	1.011503	-1.180443	2.310495	0.000000	-0.145429	0.000000	0.000003	-0.000000	0.000000	0.000000
36.279579	12.898740	22.772671	0.614632	-0.636738	2.260792	0.000000	-0.080216	0.000000	0.000003	-0.000000	0.000000	0.000000
36.721789	12.520049	23.083177	0.276437	-0.120721	2.239590	0.000000	-0.021409	0.000000	0.000003	-0.000000	0.000000	0.000000
37.019112	12.363267	23.158848	0.250875	-0.133789	2.233225	0.000000	-0.021409	0.000000	0.000003	-0.000000	0.000000	0.000000
37.352445	12.205570	23.252925	0.222216	-0.148440	2.226089	0.000000	-0.021409	0.000000	0.000003	-0.000000	0.000000	0.000000
37.685779	12.066978	23.356768	0.193558	-0.163091	2.218953	0.000000	-0.021409	0.000000	0.000003	-0.000000	0.000000	0.000000
38.020362	11.947080	23.470823	0.164792	-0.177797	2.211789	0.000000	-0.021409	0.000000	0.000003	-0.000000	0.000000	0.000000
38.317684	11.856688	23.580435	0.168305	-0.248690	2.205424	0.000000	-0.026817	0.000000	0.000003	-0.000000	0.000000	0.000000
38.758644	11.859481	23.538592	-0.174664	0.343218	2.207525	0.000000	0.036355	0.000000	0.000003	-0.000000	0.000000	0.000000
39.199604	12.167107	22.979654	-0.525612	0.919509	2.237547	0.000000	0.099940	0.000000	0.000003	-0.000000	0.000000	0.000000
39.640564	12.793622	21.929050	-0.900574	1.453963	2.295831	0.000000	0.164664	0.000000	0.000003	-0.000000	0.000000	0.000000
40.081524	13.767647	20.434582	-1.316681	1.922263	2.383043	0.000000	0.231264	0.000000	0.000003	0.000000	0.000000	0.000000
40.527484	15.151249	18.541681	-1.796767	2.304380	2.501646	0.000000	0.300903	0.000000	0.000003	0.000000	0.000000	0.000000
41.076544	16.917097	16.414620	-1.400324	1.592491	2.646331	0.000000	0.225353	0.000000	0.000003	0.000000	0.000000	0.000000
41.625604	18.190378	15.002797	-0.904969	0.994032	2.748376	0.000000	0.145806	0.000000	0.000003	-0.000000	0.000000	0.000000
42.174664	18.881154	14.205651	-0.345691	0.466375	2.805968	0.000000	0.063672	0.000000	0.000003	-0.000000	0.000000	0.000000
42.723724	18.940633	13.966404	0.238004	-0.028063	2.818088	0.000000	-0.019590	0.000000	0.000003	-0.000000	0.000000	0.000000
43.022297	18.832934	13.967754	0.172193	-0.012951	2.814437	0.000000	-0.012227	0.000000	0.000003	-0.000000	0.000000	0.000000
43.502297	18.680225	13.996685	0.145950	-0.047322	2.808568	0.000000	-0.012227	0.000000	0.000003	-0.000000	0.000000	0.000000
43.982297	18.552710	14.058612	0.119707	-0.081693	2.802699	0.000000	-0.012227	0.000000	0.000002	-0.000000	0.000000	0.000000
44.462297	18.450387	14.153535	0.093464	-0.116063	2.796830	0.000000	-0.012227	0.000000	0.000002	-0.000000	0.000000	0.000000
44.942297	18.373258	14.281453	0.067221	-0.150434	2.790961	0.000000	-0.012227	0.000000	0.000002	-0.000000	0.000000	0.000000
45.423547	18.321447	14.442651	-0.049865	-0.113336	2.785094	0.000000	0.001572	0.000000	0.000002	-0.000000	0.000000	0.000000
45.720870	18.355935	14.516245	-0.114093	-0.096259	2.785561	0.000000	0.008850	0.000000	0.000002	-0.000000	0.000000	0.000000
46.269930	18.172139	14.902774	0.446858	-0.611879	2.767850	0.000000	-0.073269	0.000000	0.000002	-0.000000	0.000000	0.000000
46.818990	17.386117	15.875982	0.976245	-1.171081	2.705343	0.000000	-0.154087	0.000000	0.000002	-0.000000	0.000000	0.000000
47.368050	16.053389	17.505188	1.436675	-1.813697	2.599146	0.000000	-0.232173	0.000000	0.000002	-0.000000	0.000000	0.000000
47.917110	14.268094	19.906437	1.795626	-2.585499	2.451146	0.000000	-0.306140	0.000000	0.000001	-0.000000	0.000000	0.000000
48.363070	12.878672	22.041447	1.330987	-2.181823	2.329911	0.000000	-0.237846	0.000000	0.000001	-0.000000	0.000000	0.000000
48.804030	11.885029	23.750925	0.930924	-1.680145	2.239489	0.000000	-0.172657	0.000000	0.000001	-0.000000	0.000000	0.000000
49.244990	11.224192	24.982436	0.573393	-1.102022	2.177353	0.000000	-0.109435	0.000000	0.000001	-0.000000	0.000000	0.000000
49.685950	10.865969	25.679947	0.242059	-0.473758	2.142794	0.000000	-0.047460	0.000000	0.000001	-0.000000	0.000000	0.000000
50.128160	10.794124	25.811439	-0.051863	0.112715	2.135429	0.000000	0.008739	0.000000	0.000001	-0.000000	0.000000	0.000000
50.425482	10.833176	25.747882	-0.079482	0.101049	2.138027	0.000000	0.008739	0.000000	0.000000	-0.000000	0.000000	0.000000
50.758816	10.896485	25.684875	-0.110446	0.087971	2.140940	0.000000	0.008739	0.000000	0.000000	-0.000000	0.000000	0.000000
51.092149	10.980438	25.630587	-0.141410	0.074893	2.143853	0.000000	0.008739	0.000000	0.000000	-0.000000	0.000000	0.000000
51.426732	11.085239	25.585382	-0.082560	-0.145796	2.146755	0.000000	-0.008677	0.000000	0.000000	-0.000000	0.000000	0.000000
51.724055	11.142361	25.675608	-0.082240	-0.220628	2.144176	0.000000	-0.013935	0.000000	0.000000	-0.000000	0.000000	0.000000
52.165015	11.360343	25.584562	-0.413969	0.426314	2.151619	0.000000	0.047726	0.000000	-0.000000	-0.000000	0.000000	0.000000
52.605975	11.878086	24.929371	-0.764612	1.053859	2.186346	0.000000	0.109931	0.000000	-0.000000	-0.000000	0.000000	0.000000
53.046935	12.719245	23.739847	-1.150188	1.633454	2.248754	0.000000	0.173389	0.000000	-0.000000	-0.000000	0.000000	0.000000
53.487895	13.922249	22.070112	-1.588312	2.138728	2.339551	0.000000	0.238821	0.000000	-0.000001	-0.000000	0.000000	0.000000
53.933855	15.562680	19.971170	-2.103239	2.548026	2.461278	0.000000	0.307372	0.000000	-0.000001	-0.000000	0.000000	0.000000
54.482915	17.674635	17.609410	-1.720485	1.778825	2.609864	0.000000	0.233067	0.000000	-0.000001	-0.000000	0.000000	0.000000
55.031975	19.296656	16.018210	-1.216206	1.136325	2.716454	0.000000	0.154627	0.000000	-0.000001	-0.000000	0.000000	0.000000
55.581035	20.314171	15.084232	-0.626019	0.574763	2.779160	0.000000	0.073446	0.000000	-0.000001	-0.000000	0.000000	0.000000
56.130095	20.655308	14.740953	0.008386	0.054141	2.796867	0.000000	-0.009039	0.000000	-0.000001	-0.000000	0.000000	0.000000
56.428668	20.686853	14.691723	-0.060068	0.072228	2.796351	0.000000	-0.001731	0.000000	-0.000001	-0.000000	0.000000	0.000000
56.762001	20.732288	14.651173	-0.076240	0.049421	2.795774	0.000000	-0.001731	0.000000	-0.000002	-0.000000	0.000000	0.000000
57.095334	20.788505	14.625828	-0.092411	0.026614	2.795197	0.000000	-0.001731	0.000000	-0.000002	-0.000000	0.000000	0.000000
57.429918	20.855775	14.615678	-0.108643	0.003722	2.794617	0.000000	-0.001731	0.000000	-0.000002	-0.000000	0.000000	0.000000
57.727240	20.924667	14.619513	-0.177741	0.021578	2.794103	0.000000	0.005569	0.000000	-0.000002	-0.000000	0.000000	0.000000
58.276300	20.762814	14.876619	0.470778	-0.492607	2.774521	0.000000	-0.076795	0.000000	-0.000002	-0.000000	0.000000	0.000000
58.825360	19.902935	15.714199	1.086044	-1.041879	2.710023	0.000000	-0.157798	0.000000	-0.000002	-0.000000	0.000000	0.000000
59.374420	18.405767	17.191914	1.624597	-1.665362	2.601754	0.000000	-0.236001	0.000000	-0.000002	-0.000000	0.000000	0.000000
59.923480	16.377065	19.415017	2.048396	-2.407464	2.451634	0.000000	-0.310019	0.000000	-0.000002	0.000000	0.000000	0.000000
60.369440	14.789131	21.390996	1.524923	-2.004678	2.328669	0.000000	-0.241734	0.000000	-0.000002	-0.000000	0.000000	0.000000
60.810400	13.646857	22.947657	1.075330	-1.512051	2.236522	0.000000	-0.176600	0.000000	-0.000002	-0.000000	0.000000	0.000000
61.251360	12.878007	24.037747	0.674866	-0.950627	2.172627	0.000000	-0.113477	0.000000	-0.000002	-0.000000	0.000000	0.000000
61.692320	12.447456	24.611670	0.305234	-0.345950	2.136255	0.000000	-0.051647	0.000000	-0.000002	-0.000000	0.000000	0.000000
62.134530	12.335582	24.642777	-0.020302	0.213980	2.126998	0.000000	0.004379	0.000000	-0.000002	-0.000000	0.000000	0.000000
62.431853	12.354824	24.519286	-0.044415	0.201362	2.128300	0.000000	0.004379	0.000000	-0.000002	-0.000000	0.000000	0.000000
62.765186	12.393446	24.389760	-0.071448	0.187216	2.129759	0.000000	0.004379	0.000000	-0.000002	-0.000000	0.000000	0.000000
63.098520	12.450089	24.269665	-0.098482	0.173070	2.131219	0.000000	0.004379	0.000000	-0.000002	-0.000000	0.000000	0.000000
63.433103	12.525068	24.158603	-0.125616	0.158871	2.132684	0.000000	0.004379	0.000000	-0.000003	-0.000000	0.000000	0.000000
63.730426	12.606935	24.067882	-0.118812	0.087230	2.133987	0.000000	-0.000854	0.000000	-0.000003	-0.000000	0.000000	0.000000
64.171386	12.872208	23.725879	-0.485052	0.685407	2.147151	0.000000	0.060618	0.000000	-0.000003	-0.000000	0.000000	0.000000
64.612346	13.468991	22.868120	-0.873453	1.252398	2.187549	0.000000	0.122782	0.000000	-0.000003	-0.000000	0.000000	0.000000
65.053306	14.424546	21.533634	-1.301759	1.762406	2.255640	0.000000	0.186343	0.000000	-0.000003	-0.000000	0.000000	0.000000
65.494266	15.782533	19.783139	-1.789538	2.192226	2.352200	0.000000	0.252027	0.000000	-0.000003	-0.000001	0.000000	0.000000
65.940226	17.628160	17.671501	-2.363770	2.523058	2.479901	0.000000	0.320983	0.000000	-0.000004	-0.000001	0.000000	0.000000
66.489286	19.993906	15.309166	-1.919445	1.804847	2.635773	0.000000	0.245957	0.000000	-0.000004	-0.000001	0.000000	0.000000
67.038346	21.793939	13.660714	-1.339539	1.215191	2.749191	0.000000	0.166567	0.000000	-0.000004	-0.000000	0.000000	0.000000
67.587406	22.901113	12.608730	-0.665015	0.712091	2.818142	0.000000	0.084224	0.000000	-0.000004	-0.000000	0.000000	0.000000
68.136466	23.237224	12.078283	0.056482	0.259712	2.841404	0.000000	0.000386	0.000000	-0.000004	-0.000000	0.000000	0.000000
68.435038	23.243589	11.912359	-0.017084	0.264454	2.843736	0.000000	0.007810	0.000000	-0.000004	-0.000000	0.000000	0.000000
68.768372	23.259759	11.746036	-0.031429	0.234515	2.846340	0.000000	0.007810	0.000000	-0.000004	-0.000000	0.000000	0.000000
69.101705	23.285494	11.599672	-0.045774	0.204576	2.848943	0.000000	0.007810	0.000000	-0.000004	-0.000000	0.000000	0.000000
69.436288	23.320941	11.472831	-0.060173	0.174525	2.851557	0.000000	0.007810	0.000000	-0.000005	-0.000000	0.000000	0.000000
69.733611	23.360527	11.376991	-0.134007	0.177547	2.853879	0.000000	0.015267	0.000000	-0.000005	-0.000000	0.000000	0.000000
70.282671	23.106486	11.409800	0.593951	-0.237654	2.839075	0.000000	-0.069111	0.000000	-0.000005	0.000000	0.000000	0.000000
