#ParticleID	Turn	x[m]	xp	y[m]	yp	z[m]	dE[GeV]# s	beta_x	beta_y	alpha_x	alpha_y	D_x	D_y	D_px	D_py	orbit_x	orbit_px	orbit_y	orbit_py
0.300000	11.817199	25.004270	-0.011453	-0.027402	2.618100	0.000000	0.000016	0.000000	-0.000001	0.000001	0.000000	0.000000
0.601250	11.831780	25.024412	-0.036949	-0.039459	2.618104	0.000000	0.000016	0.000000	-0.000000	0.000001	0.000000	0.000000
0.898573	11.861233	25.051415	-0.033025	-0.112792	2.618109	0.000000	-0.006404	0.000000	0.000000	0.000001	0.000000	0.000000
1.339533	12.042531	24.873008	-0.379676	0.515839	2.631577	0.000000	0.067553	0.000000	0.000000	0.000001	0.000000	0.000000
1.780493	12.536011	24.148471	-0.743673	1.121000	2.677797	0.000000	0.142279	0.000000	0.000001	0.000001	0.000000	0.000000
2.221453	13.364219	22.910768	-1.141646	1.675156	2.757293	0.000000	0.218626	0.000000	0.000001	0.000001	0.000000	0.000000
2.662413	14.564995	21.216214	-1.591778	2.153094	2.870972	0.000000	0.297463	0.000000	0.000002	0.000001	0.000000	0.000000
3.108373	16.213956	19.117059	-2.118926	2.534200	3.021989	0.000000	0.380178	0.000000	0.000002	0.000001	0.000000	0.000000
3.657433	18.328463	16.759421	-1.709417	1.785100	3.205457	0.000000	0.287140	0.000000	0.000003	0.000001	0.000000	0.000000
4.206493	19.923913	15.150154	-1.179164	1.163149	3.336367	0.000000	0.189009	0.000000	0.000004	0.000001	0.000000	0.000000
4.755553	20.887609	14.174636	-0.565621	0.624046	3.412395	0.000000	0.087525	0.000000	0.000004	0.000001	0.000000	0.000000
5.304613	21.151483	13.763381	0.087875	0.129392	3.432194	0.000000	-0.015511	0.000000	0.000005	0.000001	0.000000	0.000000
5.603185	21.136228	13.671296	0.018481	0.143066	3.430240	0.000000	-0.006543	0.000000	0.000005	0.000001	0.000000	0.000000
5.936519	21.129165	13.584212	0.002705	0.118184	3.428059	0.000000	-0.006543	0.000000	0.000005	0.000001	0.000000	0.000000
6.269852	21.132620	13.513716	-0.013071	0.093303	3.425877	0.000000	-0.006543	0.000000	0.000005	0.000001	0.000000	0.000000
6.604435	21.146665	13.459637	-0.028906	0.068329	3.423688	0.000000	-0.006543	0.000000	0.000006	0.000001	0.000000	0.000000
6.901758	21.168038	13.425604	-0.098283	0.081213	3.421742	0.000000	0.002397	0.000000	0.000006	0.000001	0.000000	0.000000
7.450818	20.915183	13.597171	0.556080	-0.395533	3.394856	0.000000	-0.100186	0.000000	0.000006	0.000001	0.000000	0.000000
7.999878	19.961175	14.304570	1.171165	-0.900452	3.312052	0.000000	-0.200991	0.000000	0.000006	0.000000	0.000000	0.000000
8.548938	18.373398	15.598185	1.703525	-1.469509	3.174798	0.000000	-0.298232	0.000000	0.000007	0.000000	0.000000	0.000000
9.097998	16.264007	17.570159	2.115556	-2.143235	2.985529	0.000000	-0.390182	0.000000	0.000007	-0.000000	0.000000	0.000000
9.543958	14.618273	19.327300	1.587883	-1.780242	2.829830	0.000000	-0.308474	0.000000	0.000007	0.000000	0.000000	0.000000
9.984918	13.421230	20.707343	1.137046	-1.337482	2.711052	0.000000	-0.230764	0.000000	0.000007	0.000000	0.000000	0.000000
10.425878	12.597465	21.668478	0.738157	-0.833867	2.625929	0.000000	-0.155681	0.000000	0.000007	0.000000	0.000000	0.000000
10.866838	12.109344	22.166975	0.372993	-0.292312	2.573493	0.000000	-0.082372	0.000000	0.000007	0.000001	0.000000	0.000000
11.309048	11.934430	22.179632	0.054030	0.208096	2.553125	0.000000	-0.016262	0.000000	0.000007	0.000001	0.000000	0.000000
11.606371	11.909730	22.060047	0.029044	0.194110	2.548290	0.000000	-0.016262	0.000000	0.000008	0.000001	0.000000	0.000000
12.086371	11.901209	21.884539	-0.011293	0.171531	2.540484	0.000000	-0.016262	0.000000	0.000008	0.000001	0.000000	0.000000
12.566371	11.931412	21.730707	-0.051630	0.148953	2.532678	0.000000	-0.016262	0.000000	0.000008	0.000001	0.000000	0.000000
13.046371	12.000339	21.598551	-0.091967	0.126374	2.524872	0.000000	-0.016262	0.000000	0.000009	0.000001	0.000000	0.000000
13.526371	12.107989	21.488069	-0.132304	0.103795	2.517066	0.000000	-0.016262	0.000000	0.000009	0.000001	0.000000	0.000000
14.007621	12.254795	21.399061	-0.172747	0.081158	2.509239	0.000000	-0.016262	0.000000	0.000010	0.000001	0.000000	0.000000
14.304943	12.364947	21.354959	-0.167413	0.014809	2.504404	0.000000	-0.022403	0.000000	0.000010	0.000001	0.000000	0.000000
14.745903	12.671171	21.108162	-0.529670	0.542742	2.510158	0.000000	0.048524	0.000000	0.000010	0.000001	0.000000	0.000000
15.186863	13.306300	20.404923	-0.916127	1.045980	2.547279	0.000000	0.120003	0.000000	0.000011	0.000001	0.000000	0.000000
15.627823	14.299353	19.277238	-1.344439	1.501628	2.616190	0.000000	0.192849	0.000000	0.000011	0.000002	0.000000	0.000000
16.068783	15.695698	17.776417	-1.834175	1.888953	2.717677	0.000000	0.267891	0.000000	0.000012	0.000002	0.000000	0.000000
16.514743	17.582786	15.949241	-2.412467	2.191077	2.854589	0.000000	0.346447	0.000000	0.000013	0.000002	0.000000	0.000000
17.063803	20.006431	13.909000	-1.975572	1.546736	3.021076	0.000000	0.259108	0.000000	0.000014	0.000002	0.000000	0.000000
17.612863	21.870380	12.512035	-1.399132	1.012567	3.138275	0.000000	0.167173	0.000000	0.000015	0.000001	0.000000	0.000000
18.161923	23.042975	11.658843	-0.723865	0.550519	3.204107	0.000000	0.072273	0.000000	0.000016	0.000001	0.000000	0.000000
18.710983	23.441389	11.288653	0.002532	0.127685	3.217403	0.000000	-0.023909	0.000000	0.000016	0.000000	0.000000	0.000000
19.009556	23.480262	11.202888	-0.071488	0.130073	3.212774	0.000000	-0.015503	0.000000	0.000016	0.000000	0.000000	0.000000
19.342889	23.532677	11.126258	-0.085757	0.099816	3.207606	0.000000	-0.015503	0.000000	0.000016	0.000000	0.000000	0.000000
19.676223	23.594605	11.069800	-0.100026	0.069558	3.202439	0.000000	-0.015503	0.000000	0.000016	0.000000	0.000000	0.000000
20.010806	23.666624	11.033279	-0.231606	0.093853	3.197271	0.000000	0.000338	0.000000	0.000016	0.000000	0.000000	0.000000
20.308129	23.808283	10.985553	-0.307041	0.095367	3.197371	0.000000	0.008691	0.000000	0.000017	0.000000	0.000000	0.000000
20.857189	23.734818	11.103064	0.440050	-0.310652	3.175921	0.000000	-0.086710	0.000000	0.000017	-0.000000	0.000000	0.000000
21.406249	22.853241	11.675893	1.156057	-0.738797	3.102436	0.000000	-0.180573	0.000000	0.000016	-0.000001	0.000000	0.000000
21.955309	21.225821	12.744842	1.790407	-1.219565	2.978219	0.000000	-0.271233	0.000000	0.000016	-0.000001	0.000000	0.000000
22.504369	18.967512	14.386050	2.298291	-1.787201	2.805475	0.000000	-0.357082	0.000000	0.000015	-0.000002	0.000000	0.000000
22.950329	17.187781	15.859522	1.706583	-1.502905	2.663526	0.000000	-0.279865	0.000000	0.000015	-0.000001	0.000000	0.000000
23.391289	15.912018	17.034295	1.197541	-1.151084	2.556441	0.000000	-0.206291	0.000000	0.000014	-0.000001	0.000000	0.000000
23.832249	15.059458	17.874423	0.743211	-0.746889	2.481250	0.000000	-0.135067	0.000000	0.000014	-0.000001	0.000000	0.000000
24.273209	14.591149	18.341679	0.322837	-0.308712	2.437098	0.000000	-0.065380	0.000000	0.000014	-0.000000	0.000000	0.000000
24.715418	14.485816	18.414558	-0.047356	0.098291	2.423478	0.000000	-0.002381	0.000000	0.000014	0.000000	0.000000	0.000000
25.012741	14.520092	18.360956	-0.067927	0.081989	2.422770	0.000000	-0.002381	0.000000	0.000014	0.000000	0.000000	0.000000
25.346075	14.573065	18.312389	-0.090990	0.063712	2.421976	0.000000	-0.002381	0.000000	0.000014	0.000000	0.000000	0.000000
25.679408	14.641412	18.276007	-0.114052	0.045436	2.421182	0.000000	-0.002381	0.000000	0.000014	0.000000	0.000000	0.000000
26.013991	14.725179	18.252111	-0.017741	-0.120979	2.420361	0.000000	-0.022016	0.000000	0.000014	0.000000	0.000000	0.000000
26.311314	14.741734	18.328965	-0.001793	-0.182450	2.413815	0.000000	-0.027935	0.000000	0.000014	0.000000	0.000000	0.000000
26.752274	14.924944	18.291080	-0.415264	0.268038	2.416609	0.000000	0.040618	0.000000	0.000014	0.000000	0.000000	0.000000
27.193234	15.479759	17.859781	-0.847707	0.706329	2.449705	0.000000	0.109633	0.000000	0.000014	0.000001	0.000000	0.000000
27.634194	16.431527	17.054694	-1.318880	1.112483	2.513479	0.000000	0.179898	0.000000	0.000015	0.000001	0.000000	0.000000
28.075154	17.823732	15.912448	-1.850309	1.468020	2.608659	0.000000	0.252211	0.000000	0.000015	0.000001	0.000000	0.000000
28.521114	19.744167	14.467809	-2.471238	1.757676	2.737933	0.000000	0.327840	0.000000	0.000016	0.000002	0.000000	0.000000
29.070174	22.185052	12.858169	-1.948015	1.191256	2.895268	0.000000	0.244429	0.000000	0.000017	0.000001	0.000000	0.000000
29.619234	23.971954	11.820562	-1.287193	0.709687	3.005547	0.000000	0.156683	0.000000	0.000017	0.000001	0.000000	0.000000
30.168294	24.978654	11.281080	-0.535450	0.278667	3.066814	0.000000	0.066157	0.000000	0.000018	0.000000	0.000000	0.000000
30.717354	25.134044	11.201298	0.254114	-0.132504	3.077980	0.000000	-0.025542	0.000000	0.000018	-0.000000	0.000000	0.000000
31.015927	25.025182	11.270991	0.176152	-0.130180	3.072755	0.000000	-0.017501	0.000000	0.000018	-0.000000	0.000000	0.000000
31.349260	24.912325	11.367803	0.162419	-0.160256	3.066922	0.000000	-0.017501	0.000000	0.000018	-0.000000	0.000000	0.000000
31.682593	24.808624	11.484666	0.148686	-0.190331	3.061088	0.000000	-0.017501	0.000000	0.000017	-0.000000	0.000000	0.000000
32.017177	24.713740	11.622130	0.134901	-0.220520	3.055233	0.000000	-0.017501	0.000000	0.000017	-0.000000	0.000000	0.000000
32.314499	24.637164	11.761237	0.058288	-0.216621	3.050029	0.000000	-0.009533	0.000000	0.000017	-0.000000	0.000000	0.000000
32.863559	24.151055	12.238353	0.821817	-0.657477	3.019910	0.000000	-0.100019	0.000000	0.000017	-0.000001	0.000000	0.000000
33.412619	22.853569	13.222303	1.527297	-1.145164	2.940523	0.000000	-0.188731	0.000000	0.000016	-0.000001	0.000000	0.000000
33.961679	20.836354	14.783172	2.124896	-1.714418	2.813277	0.000000	-0.274096	0.000000	0.000015	-0.000002	0.000000	0.000000
34.510739	18.241896	17.032137	2.572403	-2.405786	2.640428	0.000000	-0.354599	0.000000	0.000014	-0.000002	0.000000	0.000000
34.956699	16.224624	19.043740	1.967240	-2.086105	2.498635	0.000000	-0.281662	0.000000	0.000013	-0.000002	0.000000	0.000000
35.397659	14.720391	20.707357	1.456967	-1.672253	2.389817	0.000000	-0.212361	0.000000	0.000013	-0.000002	0.000000	0.000000
35.838619	13.635237	21.970915	1.013259	-1.182315	2.310997	0.000000	-0.145478	0.000000	0.000012	-0.000001	0.000000	0.000000
36.279579	12.919583	22.776926	0.615843	-0.638583	2.261275	0.000000	-0.080253	0.000000	0.000011	-0.000001	0.000000	0.000000
36.721789	12.540040	23.089021	0.277207	-0.122464	2.240060	0.000000	-0.021434	0.000000	0.000011	-0.000001	0.000000	0.000000
37.019112	12.382791	23.165730	0.251675	-0.135535	2.233687	0.000000	-0.021434	0.000000	0.000011	-0.000001	0.000000	0.000000
37.352445	12.224549	23.260971	0.223051	-0.150188	2.226543	0.000000	-0.021434	0.000000	0.000011	-0.000001	0.000000	0.000000
37.685779	12.085390	23.365981	0.194427	-0.164842	2.219398	0.000000	-0.021434	0.000000	0.000010	-0.000001	0.000000	0.000000
38.020362	11.964900	23.481208	0.165695	-0.179550	2.212227	0.000000	-0.021434	0.000000	0.000010	-0.000001	0.000000	0.000000
38.317684	11.873961	23.591863	0.169279	-0.250469	2.205854	0.000000	-0.026843	0.000000	0.000010	-0.000001	0.000000	0.000000
38.758644	11.876066	23.551451	-0.174072	0.341765	2.207946	0.000000	0.036339	0.000000	0.000009	-0.000001	0.000000	0.000000
39.199604	12.183330	22.993624	-0.525377	0.918450	2.237964	0.000000	0.099936	0.000000	0.000009	-0.000000	0.000000	0.000000
39.640564	12.809789	21.943763	-0.900684	1.453345	2.296249	0.000000	0.164671	0.000000	0.000009	-0.000000	0.000000	0.000000
40.081524	13.784066	20.449634	-1.317142	1.922115	2.383465	0.000000	0.231281	0.000000	0.000009	0.000000	0.000000	0.000000
40.527484	15.168245	18.556649	-1.797602	2.304712	2.502079	0.000000	0.300931	0.000000	0.000009	0.000000	0.000000	0.000000
41.076544	16.934664	16.429428	-1.400523	1.592453	2.646776	0.000000	0.225367	0.000000	0.000009	0.000000	0.000000	0.000000
41.625604	18.207807	15.017850	-0.904519	0.993621	2.748824	0.000000	0.145805	0.000000	0.000009	-0.000000	0.000000	0.000000
42.174664	18.897745	14.221371	-0.344624	0.465563	2.806413	0.000000	0.063657	0.000000	0.000009	-0.000001	0.000000	0.000000
42.723724	18.955744	13.983261	0.239614	-0.029335	2.818521	0.000000	-0.019619	0.000000	0.000009	-0.000001	0.000000	0.000000
43.022297	18.847106	13.985338	0.173770	-0.014155	2.814862	0.000000	-0.012256	0.000000	0.000009	-0.000001	0.000000	0.000000
43.502297	18.692881	14.015404	0.147533	-0.048483	2.808980	0.000000	-0.012256	0.000000	0.000008	-0.000001	0.000000	0.000000
43.982297	18.563843	14.078426	0.121295	-0.082812	2.803097	0.000000	-0.012256	0.000000	0.000008	-0.000001	0.000000	0.000000
44.462297	18.459993	14.174403	0.095058	-0.117140	2.797215	0.000000	-0.012256	0.000000	0.000008	-0.000001	0.000000	0.000000
44.942297	18.381331	14.303335	0.068821	-0.151469	2.791332	0.000000	-0.012256	0.000000	0.000007	-0.000001	0.000000	0.000000
45.423547	18.327977	14.465509	-0.048291	-0.114216	2.785452	0.000000	0.001545	0.000000	0.000007	-0.000001	0.000000	0.000000
45.720870	18.361528	14.539617	-0.112524	-0.097051	2.785912	0.000000	0.008824	0.000000	0.000007	-0.000001	0.000000	0.000000
46.269930	18.175919	14.927411	0.448570	-0.613405	2.768184	0.000000	-0.073306	0.000000	0.000006	-0.000001	0.000000	0.000000
46.818990	17.387994	15.902745	0.977979	-1.173450	2.705653	0.000000	-0.154135	0.000000	0.000006	-0.000001	0.000000	0.000000
47.368050	16.053406	17.535089	1.438309	-1.817078	2.599429	0.000000	-0.232230	0.000000	0.000005	-0.000001	0.000000	0.000000
47.917110	14.266424	19.940712	1.797044	-2.590132	2.451395	0.000000	-0.306206	0.000000	0.000004	-0.000001	0.000000	0.000000
48.363070	12.875786	22.079534	1.332305	-2.185701	2.330133	0.000000	-0.237905	0.000000	0.000004	-0.000001	0.000000	0.000000
48.804030	11.881001	23.792035	0.932205	-1.683095	2.239686	0.000000	-0.172711	0.000000	0.000003	-0.000001	0.000000	0.000000
49.244990	11.219029	25.025687	0.574695	-1.103909	2.177528	0.000000	-0.109485	0.000000	0.000002	-0.000001	0.000000	0.000000
49.685950	10.859627	25.724360	0.243441	-0.474497	2.142948	0.000000	-0.047505	0.000000	0.000002	-0.000001	0.000000	0.000000
50.128160	10.786501	25.855981	-0.050356	0.113050	2.135565	0.000000	0.008697	0.000000	0.000001	-0.000001	0.000000	0.000000
50.425482	10.824661	25.792219	-0.077990	0.101404	2.138151	0.000000	0.008697	0.000000	0.000001	-0.000001	0.000000	0.000000
50.758816	10.886981	25.728969	-0.108971	0.088347	2.141050	0.000000	0.008697	0.000000	0.000001	-0.000001	0.000000	0.000000
51.092149	10.969956	25.674423	-0.139952	0.075291	2.143950	0.000000	0.008697	0.000000	0.000000	-0.000001	0.000000	0.000000
51.426732	11.073787	25.628945	-0.081212	-0.145729	2.146838	0.000000	-0.008719	0.000000	0.000000	-0.000001	0.000000	0.000000
51.724055	11.130115	25.719125	-0.080944	-0.220648	2.144246	0.000000	-0.013978	0.000000	-0.000000	-0.000001	0.000000	0.000000
52.165015	11.346821	25.627589	-0.412361	0.427442	2.151671	0.000000	0.047685	0.000000	-0.000001	-0.000001	0.000000	0.000000
52.605975	11.862982	24.970914	-0.762618	1.056085	2.186381	0.000000	0.109892	0.000000	-0.000001	-0.000001	0.000000	0.000000
53.046935	12.702179	23.778979	-1.147717	1.636676	2.248771	0.000000	0.173350	0.000000	-0.000002	-0.000001	0.000000	0.000000
53.487895	13.902754	22.106015	-1.585252	2.142800	2.339552	0.000000	0.238782	0.000000	-0.000002	-0.000001	0.000000	0.000000
53.933855	15.540137	20.003128	-2.099442	2.552764	2.461262	0.000000	0.307333	0.000000	-0.000003	-0.000001	0.000000	0.000000
54.482915	17.648215	17.636857	-1.717261	1.782351	2.609827	0.000000	0.233028	0.000000	-0.000004	-0.000001	0.000000	0.000000
55.031975	19.267116	16.042332	-1.213781	1.138890	2.716397	0.000000	0.154591	0.000000	-0.000004	-0.000001	0.000000	0.000000
55.581035	20.282489	15.105980	-0.624566	0.576550	2.779084	0.000000	0.073411	0.000000	-0.000005	-0.000001	0.000000	0.000000
56.130095	20.622613	14.761105	0.008765	0.055277	2.796774	0.000000	-0.009071	0.000000	-0.000005	-0.000001	0.000000	0.000000
56.428668	20.653888	14.711157	-0.059627	0.073441	2.796247	0.000000	-0.001763	0.000000	-0.000005	-0.000001	0.000000	0.000000
56.762001	20.699038	14.669790	-0.075824	0.050661	2.795660	0.000000	-0.001763	0.000000	-0.000006	-0.000001	0.000000	0.000000
57.095334	20.754986	14.643609	-0.092020	0.027880	2.795073	0.000000	-0.001763	0.000000	-0.000006	-0.000001	0.000000	0.000000
57.429918	20.822003	14.632604	-0.108277	0.005014	2.794483	0.000000	-0.001763	0.000000	-0.000006	-0.000001	0.000000	0.000000
57.727240	20.890684	14.635664	-0.177310	0.022936	2.793959	0.000000	0.005538	0.000000	-0.000006	-0.000001	0.000000	0.000000
58.276300	20.728986	14.891526	0.470067	-0.491687	2.774361	0.000000	-0.076822	0.000000	-0.000007	-0.000001	0.000000	0.000000
58.825360	19.870495	15.728306	1.084242	-1.041332	2.709850	0.000000	-0.157819	0.000000	-0.000007	-0.000000	0.000000	0.000000
59.374420	18.375851	17.205607	1.621831	-1.665149	2.601571	0.000000	-0.236017	0.000000	-0.000007	-0.000000	0.000000	0.000000
59.923480	16.350628	19.428652	2.044862	-2.407571	2.451444	0.000000	-0.310028	0.000000	-0.000007	0.000000	0.000000	0.000000
60.369440	14.765490	21.404525	1.522165	-2.004333	2.328473	0.000000	-0.241749	0.000000	-0.000007	-0.000000	0.000000	0.000000
60.810400	13.625356	22.960689	1.073217	-1.511273	2.236319	0.000000	-0.176620	0.000000	-0.000007	-0.000000	0.000000	0.000000
61.251360	12.858122	24.049915	0.673301	-0.949452	2.172414	0.000000	-0.113502	0.000000	-0.000007	-0.000000	0.000000	0.000000
61.692320	12.428736	24.622645	0.304146	-0.344431	2.136030	0.000000	-0.051678	0.000000	-0.000008	-0.000001	0.000000	0.000000
62.134530	12.317633	24.652280	-0.021006	0.215748	2.126758	0.000000	0.004343	0.000000	-0.000008	-0.000001	0.000000	0.000000
62.431853	12.337304	24.527740	-0.045155	0.203126	2.128050	0.000000	0.004343	0.000000	-0.000008	-0.000001	0.000000	0.000000
62.765186	12.376432	24.397040	-0.072228	0.188975	2.129497	0.000000	0.004343	0.000000	-0.000008	-0.000001	0.000000	0.000000
63.098520	12.433609	24.275773	-0.099302	0.174824	2.130945	0.000000	0.004343	0.000000	-0.000009	-0.000001	0.000000	0.000000
63.433103	12.509150	24.163539	-0.126477	0.160620	2.132398	0.000000	0.004343	0.000000	-0.000009	-0.000001	0.000000	0.000000
63.730426	12.591539	24.071780	-0.119745	0.088962	2.133690	0.000000	-0.000890	0.000000	-0.000009	-0.000001	0.000000	0.000000
64.171386	12.857488	23.728218	-0.485657	0.687196	2.146837	0.000000	0.060574	0.000000	-0.000010	-0.000001	0.000000	0.000000
64.612346	13.454669	22.868886	-0.873757	1.254164	2.187214	0.000000	0.122729	0.000000	-0.000010	-0.000001	0.000000	0.000000
65.053306	14.410367	21.532882	-1.301777	1.764068	2.255280	0.000000	0.186282	0.000000	-0.000011	-0.000002	0.000000	0.000000
65.494266	15.768244	19.780994	-1.789272	2.193709	2.351812	0.000000	0.251956	0.000000	-0.000012	-0.000002	0.000000	0.000000
65.940226	17.613501	17.668141	-2.363205	2.524292	2.479480	0.000000	0.320902	0.000000	-0.000012	-0.000002	0.000000	0.000000
66.489286	19.978939	15.304506	-1.919454	1.805995	2.635311	0.000000	0.245889	0.000000	-0.000014	-0.000002	0.000000	0.000000
67.038346	21.779299	13.654804	-1.340123	1.216334	2.748696	0.000000	0.166516	0.000000	-0.000014	-0.000001	0.000000	0.000000
67.587406	22.887413	12.601531	-0.666133	0.713311	2.817624	0.000000	0.084188	0.000000	-0.000015	-0.000001	0.000000	0.000000
68.136466	23.225009	12.069663	0.054910	0.261095	2.840872	0.000000	0.000368	0.000000	-0.000015	-0.000000	0.000000	0.000000
68.435038	23.232299	11.902935	-0.018636	0.265779	2.843198	0.000000	0.007791	0.000000	-0.000015	-0.000000	0.000000	0.000000
68.768372	23.249508	11.735743	-0.032989	0.235797	2.845796	0.000000	0.007791	0.000000	-0.000015	-0.000000	0.000000	0.000000
69.101705	23.276285	11.588539	-0.047342	0.205814	2.848393	0.000000	0.007791	0.000000	-0.000016	-0.000000	0.000000	0.000000
69.436288	23.312785	11.460885	-0.061749	0.175719	2.851000	0.000000	0.007791	0.000000	-0.000016	-0.000000	0.000000	0.000000
69.733611	23.353309	11.364345	-0.135577	0.178673	2.853317	0.000000	0.015248	0.000000	-0.000016	-0.000000	0.000000	0.000000
70.282671	23.101109	11.395719	0.592189	-0.236151	2.838507	0.000000	-0.069113	0.000000	-0.000016	0.000000	0.000000	0.000000
