#ParticleID	Turn	x[m]	xp	y[m]	yp	z[m]	dE[GeV]# s	beta_x	beta_y	alpha_x	alpha_y	D_x	D_y	D_px	D_py	orbit_x	orbit_px	orbit_y	orbit_py
0.300000	11.820912	24.989230	-0.011902	-0.027531	2.618114	0.000000	0.000011	0.000000	-0.000000	0.000001	0.000000	0.000000
0.601250	11.835761	25.009452	-0.037390	-0.039596	2.618117	0.000000	0.000011	0.000000	0.000000	0.000001	0.000000	0.000000
0.898573	11.865475	25.036537	-0.033449	-0.112899	2.618120	0.000000	-0.006409	0.000000	0.000000	0.000001	0.000000	0.000000
1.339533	12.047191	24.858399	-0.380207	0.515341	2.631587	0.000000	0.067548	0.000000	0.000001	0.000001	0.000000	0.000000
1.780493	12.541196	24.134465	-0.744336	1.120134	2.677804	0.000000	0.142275	0.000000	0.000001	0.000001	0.000000	0.000000
2.221453	13.370058	22.897675	-1.142471	1.673961	2.757299	0.000000	0.218622	0.000000	0.000001	0.000001	0.000000	0.000000
2.662413	14.571646	21.204300	-1.592803	2.151625	2.870976	0.000000	0.297459	0.000000	0.000002	0.000001	0.000000	0.000000
3.108373	16.221628	19.106554	-2.120199	2.532523	3.021992	0.000000	0.380174	0.000000	0.000002	0.000001	0.000000	0.000000
3.657433	18.337434	16.750522	-1.710494	1.783834	3.205458	0.000000	0.287136	0.000000	0.000003	0.000001	0.000000	0.000000
4.206493	19.933922	15.142462	-1.179969	1.162204	3.336365	0.000000	0.189005	0.000000	0.000003	0.000001	0.000000	0.000000
4.755553	20.898325	14.167836	-0.566096	0.623355	3.412391	0.000000	0.087521	0.000000	0.000003	0.000001	0.000000	0.000000
5.304613	21.162523	13.757223	0.087763	0.128907	3.432188	0.000000	-0.015514	0.000000	0.000004	0.000000	0.000000	0.000000
5.603185	21.147350	13.665439	0.018348	0.142558	3.430233	0.000000	-0.006547	0.000000	0.000004	0.000001	0.000000	0.000000
5.936519	21.140374	13.578696	0.002580	0.117670	3.428051	0.000000	-0.006547	0.000000	0.000004	0.000001	0.000000	0.000000
6.269852	21.143910	13.508546	-0.013188	0.092782	3.425868	0.000000	-0.006547	0.000000	0.000004	0.000001	0.000000	0.000000
6.604435	21.158030	13.454818	-0.029015	0.067800	3.423678	0.000000	-0.006547	0.000000	0.000004	0.000001	0.000000	0.000000
6.901758	21.179465	13.421101	-0.098415	0.080666	3.421731	0.000000	0.002393	0.000000	0.000004	0.000001	0.000000	0.000000
7.450818	20.926544	13.593202	0.556332	-0.395963	3.394843	0.000000	-0.100189	0.000000	0.000005	0.000000	0.000000	0.000000
7.999878	19.972056	14.301022	1.171782	-0.900796	3.312037	0.000000	-0.200994	0.000000	0.000005	0.000000	0.000000	0.000000
8.548938	18.383420	15.594979	1.704464	-1.469790	3.174782	0.000000	-0.298234	0.000000	0.000005	0.000000	0.000000	0.000000
9.097998	16.272850	17.567236	2.116750	-2.143475	2.985512	0.000000	-0.390184	0.000000	0.000005	-0.000000	0.000000	0.000000
9.543958	14.626171	19.324644	1.588816	-1.780600	2.829812	0.000000	-0.308477	0.000000	0.000005	0.000000	0.000000	0.000000
9.984918	13.428402	20.705050	1.137763	-1.337942	2.711033	0.000000	-0.230767	0.000000	0.000005	0.000000	0.000000	0.000000
10.425878	12.604088	21.666629	0.738691	-0.834408	2.625909	0.000000	-0.155685	0.000000	0.000005	0.000000	0.000000	0.000000
10.866838	12.115567	22.165630	0.373368	-0.292910	2.573471	0.000000	-0.082376	0.000000	0.000005	0.000000	0.000000	0.000000
11.309048	11.940386	22.178830	0.054278	0.207470	2.553102	0.000000	-0.016266	0.000000	0.000005	0.000001	0.000000	0.000000
11.606371	11.915535	22.059617	0.029304	0.193487	2.548265	0.000000	-0.016266	0.000000	0.000006	0.000001	0.000000	0.000000
12.086371	11.906756	21.884705	-0.011014	0.170913	2.540457	0.000000	-0.016266	0.000000	0.000006	0.000001	0.000000	0.000000
12.566371	11.936682	21.731464	-0.051332	0.148339	2.532649	0.000000	-0.016266	0.000000	0.000006	0.000001	0.000000	0.000000
13.046371	12.005314	21.599894	-0.091650	0.125765	2.524842	0.000000	-0.016266	0.000000	0.000006	0.000001	0.000000	0.000000
13.526371	12.112651	21.489995	-0.131968	0.103191	2.517034	0.000000	-0.016266	0.000000	0.000007	0.000001	0.000000	0.000000
14.007621	12.259124	21.401565	-0.172392	0.080559	2.509205	0.000000	-0.016266	0.000000	0.000007	0.000001	0.000000	0.000000
14.304943	12.369061	21.357818	-0.167035	0.014204	2.504369	0.000000	-0.022407	0.000000	0.000007	0.000001	0.000000	0.000000
14.745903	12.674989	21.111517	-0.529374	0.542228	2.510120	0.000000	0.048518	0.000000	0.000007	0.000001	0.000000	0.000000
15.186863	13.309889	20.408683	-0.915899	1.045580	2.547239	0.000000	0.119997	0.000000	0.000008	0.000001	0.000000	0.000000
15.627823	14.302766	19.281294	-1.344269	1.501359	2.616147	0.000000	0.192841	0.000000	0.000008	0.000001	0.000000	0.000000
16.068783	15.698982	17.780646	-1.834054	1.888828	2.717631	0.000000	0.267883	0.000000	0.000009	0.000001	0.000000	0.000000
16.514743	17.585983	15.953515	-2.412390	2.191104	2.854540	0.000000	0.346437	0.000000	0.000009	0.000002	0.000000	0.000000
17.063803	20.009460	13.913293	-1.975346	1.546675	3.021022	0.000000	0.259100	0.000000	0.000010	0.000001	0.000000	0.000000
17.612863	21.873086	12.516446	-1.398773	1.012412	3.138217	0.000000	0.167167	0.000000	0.000010	0.000001	0.000000	0.000000
18.161923	23.045225	11.663479	-0.723398	0.550261	3.204046	0.000000	0.072269	0.000000	0.000011	0.000001	0.000000	0.000000
18.710983	23.443081	11.293638	0.003074	0.127304	3.217341	0.000000	-0.023911	0.000000	0.000011	0.000000	0.000000	0.000000
19.009556	23.481635	11.208088	-0.070952	0.129722	3.212711	0.000000	-0.015506	0.000000	0.000011	0.000000	0.000000	0.000000
19.342889	23.533692	11.131687	-0.085219	0.099481	3.207543	0.000000	-0.015506	0.000000	0.000011	0.000000	0.000000	0.000000
19.676223	23.595260	11.075446	-0.099486	0.069240	3.202374	0.000000	-0.015506	0.000000	0.000011	0.000000	0.000000	0.000000
20.010806	23.666917	11.039132	-0.231065	0.093581	3.197206	0.000000	0.000335	0.000000	0.000011	0.000000	0.000000	0.000000
20.308129	23.808254	10.991563	-0.306500	0.095128	3.197305	0.000000	0.008688	0.000000	0.000011	0.000000	0.000000	0.000000
20.857189	23.734198	11.109430	0.440578	-0.311065	3.175854	0.000000	-0.086710	0.000000	0.000012	-0.000000	0.000000	0.000000
21.406249	22.852065	11.682822	1.156536	-0.739415	3.102370	0.000000	-0.180571	0.000000	0.000011	-0.000000	0.000000	0.000000
21.955309	21.224163	12.752580	1.790802	-1.220431	2.978155	0.000000	-0.271228	0.000000	0.000011	-0.000001	0.000000	0.000000
22.504369	18.965479	14.394902	2.298574	-1.788375	2.805413	0.000000	-0.357075	0.000000	0.000011	-0.000001	0.000000	0.000000
22.950329	17.185490	15.869333	1.706879	-1.503874	2.663466	0.000000	-0.279861	0.000000	0.000010	-0.000001	0.000000	0.000000
23.391289	15.909455	17.044854	1.197864	-1.151803	2.556383	0.000000	-0.206288	0.000000	0.000010	-0.000001	0.000000	0.000000
23.832249	15.056593	17.885493	0.743576	-0.747326	2.481193	0.000000	-0.135065	0.000000	0.000009	-0.000000	0.000000	0.000000
24.273209	14.587939	18.353002	0.323260	-0.308847	2.437041	0.000000	-0.065380	0.000000	0.000009	-0.000000	0.000000	0.000000
24.715418	14.482199	18.425864	-0.046863	0.098435	2.423421	0.000000	-0.002382	0.000000	0.000009	0.000000	0.000000	0.000000
25.012741	14.516183	18.372174	-0.067438	0.082142	2.422712	0.000000	-0.002382	0.000000	0.000009	0.000000	0.000000	0.000000
25.346075	14.568831	18.323502	-0.090506	0.063876	2.421918	0.000000	-0.002382	0.000000	0.000009	0.000000	0.000000	0.000000
25.679408	14.636857	18.287006	-0.113573	0.045610	2.421124	0.000000	-0.002382	0.000000	0.000009	0.000000	0.000000	0.000000
26.013991	14.720305	18.262990	-0.017306	-0.120882	2.420302	0.000000	-0.022017	0.000000	0.000009	0.000000	0.000000	0.000000
26.311314	14.736603	18.339783	-0.001375	-0.182371	2.413756	0.000000	-0.027936	0.000000	0.000009	-0.000000	0.000000	0.000000
26.752274	14.919388	18.301699	-0.414714	0.268408	2.416549	0.000000	0.040615	0.000000	0.000010	0.000000	0.000000	0.000000
27.193234	15.473651	17.869952	-0.847000	0.706974	2.449643	0.000000	0.109629	0.000000	0.000010	0.000000	0.000000	0.000000
27.634194	16.424714	17.064185	-1.317982	1.113374	2.513416	0.000000	0.179892	0.000000	0.000010	0.000001	0.000000	0.000000
28.075154	17.816028	15.921060	-1.849180	1.469115	2.608593	0.000000	0.252203	0.000000	0.000010	0.000001	0.000000	0.000000
28.521114	19.735333	14.475372	-2.469824	1.758927	2.737863	0.000000	0.327831	0.000000	0.000011	0.000001	0.000000	0.000000
29.070174	22.174781	12.864524	-1.946828	1.192218	2.895194	0.000000	0.244422	0.000000	0.000011	0.000001	0.000000	0.000000
29.619234	23.960544	11.825988	-1.286318	0.710428	3.005470	0.000000	0.156678	0.000000	0.000012	0.000001	0.000000	0.000000
30.168294	24.966484	11.285789	-0.534949	0.279241	3.066735	0.000000	0.066155	0.000000	0.000012	0.000000	0.000000	0.000000
30.717354	25.121546	11.205450	0.254207	-0.132057	3.077901	0.000000	-0.025541	0.000000	0.000012	-0.000000	0.000000	0.000000
31.015927	25.012614	11.274865	0.176267	-0.129709	3.072676	0.000000	-0.017500	0.000000	0.000012	-0.000000	0.000000	0.000000
31.349260	24.899683	11.371359	0.162527	-0.159771	3.066843	0.000000	-0.017500	0.000000	0.000012	-0.000000	0.000000	0.000000
31.682593	24.795912	11.487893	0.148786	-0.189832	3.061010	0.000000	-0.017500	0.000000	0.000012	-0.000000	0.000000	0.000000
32.017177	24.700964	11.625018	0.134994	-0.220007	3.055154	0.000000	-0.017500	0.000000	0.000012	-0.000000	0.000000	0.000000
32.314499	24.624335	11.763816	0.058405	-0.216087	3.049951	0.000000	-0.009532	0.000000	0.000012	-0.000000	0.000000	0.000000
32.863559	24.138333	12.240373	0.821508	-0.656986	3.019833	0.000000	-0.100016	0.000000	0.000011	-0.000001	0.000000	0.000000
33.412619	22.841412	13.223792	1.526583	-1.144682	2.940449	0.000000	-0.188725	0.000000	0.000011	-0.000001	0.000000	0.000000
33.961679	20.825182	14.784121	2.123828	-1.713910	2.813206	0.000000	-0.274088	0.000000	0.000010	-0.000001	0.000000	0.000000
34.510739	18.232057	17.032497	2.571057	-2.405216	2.640362	0.000000	-0.354588	0.000000	0.000010	-0.000002	0.000000	0.000000
34.956699	16.215851	19.043557	1.966190	-2.085464	2.498573	0.000000	-0.281653	0.000000	0.000009	-0.000001	0.000000	0.000000
35.397659	14.712433	20.706588	1.456162	-1.671571	2.389759	0.000000	-0.212353	0.000000	0.000008	-0.000001	0.000000	0.000000
35.838619	13.627895	21.969538	1.012662	-1.181623	2.310941	0.000000	-0.145473	0.000000	0.000008	-0.000001	0.000000	0.000000
36.279579	12.912686	22.774945	0.615427	-0.637912	2.261221	0.000000	-0.080249	0.000000	0.000008	-0.000001	0.000000	0.000000
36.721789	12.533438	23.086468	0.276938	-0.121842	2.240008	0.000000	-0.021431	0.000000	0.000007	-0.000001	0.000000	0.000000
37.019112	12.376352	23.162807	0.251396	-0.134912	2.233636	0.000000	-0.021431	0.000000	0.000007	-0.000001	0.000000	0.000000
37.352445	12.218300	23.257632	0.222761	-0.149564	2.226492	0.000000	-0.021431	0.000000	0.000007	-0.000001	0.000000	0.000000
37.685779	12.079338	23.362226	0.194126	-0.164217	2.219349	0.000000	-0.021431	0.000000	0.000007	-0.000001	0.000000	0.000000
38.020362	11.959052	23.477035	0.165383	-0.178925	2.212178	0.000000	-0.021431	0.000000	0.000007	-0.000001	0.000000	0.000000
38.317684	11.868302	23.587318	0.168944	-0.249835	2.205806	0.000000	-0.026840	0.000000	0.000006	-0.000001	0.000000	0.000000
38.758644	11.870647	23.546402	-0.174282	0.342271	2.207899	0.000000	0.036341	0.000000	0.000006	-0.000000	0.000000	0.000000
39.199604	12.178043	22.988194	-0.525471	0.918803	2.237917	0.000000	0.099937	0.000000	0.000006	-0.000000	0.000000	0.000000
39.640564	12.804536	21.938094	-0.900667	1.453531	2.296202	0.000000	0.164670	0.000000	0.000006	-0.000000	0.000000	0.000000
40.081524	13.778748	20.443880	-1.317011	1.922123	2.383418	0.000000	0.231279	0.000000	0.000006	0.000000	0.000000	0.000000
40.527484	15.162757	18.550967	-1.797352	2.304542	2.502030	0.000000	0.300928	0.000000	0.000006	0.000000	0.000000	0.000000
41.076544	16.929015	16.423852	-1.400481	1.592428	2.646726	0.000000	0.225365	0.000000	0.000006	0.000000	0.000000	0.000000
41.625604	18.202227	15.012223	-0.904686	0.993740	2.748774	0.000000	0.145805	0.000000	0.000006	-0.000000	0.000000	0.000000
42.174664	18.892460	14.215533	-0.344989	0.465833	2.806363	0.000000	0.063659	0.000000	0.000006	-0.000000	0.000000	0.000000
42.723724	18.950959	13.977035	0.239076	-0.028894	2.818472	0.000000	-0.019616	0.000000	0.000006	-0.000001	0.000000	0.000000
43.022297	18.842636	13.978861	0.173242	-0.013739	2.814814	0.000000	-0.012252	0.000000	0.000006	-0.000001	0.000000	0.000000
43.502297	18.688918	14.008536	0.147003	-0.048083	2.808934	0.000000	-0.012252	0.000000	0.000005	-0.000001	0.000000	0.000000
43.982297	18.560390	14.071181	0.120764	-0.082427	2.803053	0.000000	-0.012252	0.000000	0.000005	-0.000001	0.000000	0.000000
44.462297	18.457051	14.166796	0.094526	-0.116771	2.797172	0.000000	-0.012252	0.000000	0.000005	-0.000001	0.000000	0.000000
44.942297	18.378900	14.295382	0.068287	-0.151115	2.791291	0.000000	-0.012252	0.000000	0.000005	-0.000001	0.000000	0.000000
45.423547	18.326061	14.457222	-0.048817	-0.113919	2.785412	0.000000	0.001548	0.000000	0.000004	-0.000001	0.000000	0.000000
45.720870	18.359926	14.531158	-0.113050	-0.096786	2.785872	0.000000	0.008827	0.000000	0.000004	-0.000001	0.000000	0.000000
46.269930	18.174920	14.918517	0.448006	-0.612875	2.768146	0.000000	-0.073301	0.000000	0.000004	-0.000001	0.000000	0.000000
46.818990	17.387617	15.893107	0.977416	-1.172617	2.705618	0.000000	-0.154129	0.000000	0.000003	-0.000001	0.000000	0.000000
47.368050	16.053629	17.524344	1.437787	-1.815883	2.599397	0.000000	-0.232223	0.000000	0.000003	-0.000001	0.000000	0.000000
47.917110	14.267181	19.928419	1.796599	-2.588490	2.451367	0.000000	-0.306198	0.000000	0.000002	-0.000001	0.000000	0.000000
48.363070	12.876927	22.065892	1.331888	-2.184332	2.330108	0.000000	-0.237898	0.000000	0.000002	-0.000001	0.000000	0.000000
48.804030	11.882505	23.777329	0.931796	-1.682059	2.239664	0.000000	-0.172705	0.000000	0.000002	-0.000001	0.000000	0.000000
49.244990	11.220898	25.010232	0.574274	-1.103255	2.177508	0.000000	-0.109479	0.000000	0.000001	-0.000001	0.000000	0.000000
49.685950	10.861879	25.708507	0.242990	-0.474253	2.142931	0.000000	-0.047500	0.000000	0.000001	-0.000001	0.000000	0.000000
50.128160	10.789172	25.840100	-0.050851	0.112911	2.135549	0.000000	0.008702	0.000000	0.000001	-0.000001	0.000000	0.000000
50.425482	10.827625	25.776423	-0.078480	0.101258	2.138137	0.000000	0.008702	0.000000	0.000000	-0.000001	0.000000	0.000000
50.758816	10.890270	25.713273	-0.109455	0.088193	2.141038	0.000000	0.008702	0.000000	0.000000	-0.000001	0.000000	0.000000
51.092149	10.973565	25.658832	-0.140430	0.075129	2.143939	0.000000	0.008702	0.000000	-0.000000	-0.000001	0.000000	0.000000
51.426732	11.077714	25.613465	-0.081652	-0.145773	2.146829	0.000000	-0.008715	0.000000	-0.000000	-0.000001	0.000000	0.000000
51.724055	11.134301	25.703673	-0.081365	-0.220661	2.144238	0.000000	-0.013973	0.000000	-0.000001	-0.000001	0.000000	0.000000
52.165015	11.351424	25.612329	-0.412889	0.427021	2.151665	0.000000	0.047690	0.000000	-0.000001	-0.000001	0.000000	0.000000
52.605975	11.868105	24.956198	-0.763276	1.055275	2.186377	0.000000	0.109896	0.000000	-0.000001	-0.000001	0.000000	0.000000
53.046935	12.707951	23.765135	-1.148535	1.635515	2.248769	0.000000	0.173354	0.000000	-0.000002	-0.000001	0.000000	0.000000
53.487895	13.909331	22.093331	-1.586267	2.141340	2.339552	0.000000	0.238787	0.000000	-0.000002	-0.000001	0.000000	0.000000
53.933855	15.547726	19.991856	-2.100704	2.551072	2.461264	0.000000	0.307337	0.000000	-0.000002	-0.000001	0.000000	0.000000
54.482915	17.657091	17.627198	-1.718328	1.781088	2.609831	0.000000	0.233033	0.000000	-0.000003	-0.000001	0.000000	0.000000
55.031975	19.277022	16.033867	-1.214579	1.137967	2.716403	0.000000	0.154595	0.000000	-0.000003	-0.000001	0.000000	0.000000
55.581035	20.293096	15.098373	-0.625037	0.575901	2.779092	0.000000	0.073415	0.000000	-0.000004	-0.000001	0.000000	0.000000
56.130095	20.633542	14.754082	0.008654	0.054856	2.796784	0.000000	-0.009067	0.000000	-0.000004	-0.000001	0.000000	0.000000
56.428668	20.664898	14.704399	-0.059760	0.072993	2.796259	0.000000	-0.001759	0.000000	-0.000004	-0.000001	0.000000	0.000000
56.762001	20.710134	14.663333	-0.075948	0.050204	2.795672	0.000000	-0.001759	0.000000	-0.000004	-0.000001	0.000000	0.000000
57.095334	20.766162	14.637461	-0.092136	0.027414	2.795086	0.000000	-0.001759	0.000000	-0.000004	-0.000001	0.000000	0.000000
57.429918	20.833252	14.626770	-0.108384	0.004539	2.794498	0.000000	-0.001759	0.000000	-0.000005	-0.000001	0.000000	0.000000
57.727240	20.901996	14.630115	-0.177439	0.022438	2.793975	0.000000	0.005541	0.000000	-0.000005	-0.000001	0.000000	0.000000
58.276300	20.740229	14.886439	0.470318	-0.492035	2.774378	0.000000	-0.076819	0.000000	-0.000005	-0.000000	0.000000	0.000000
58.825360	19.881261	15.723531	1.084855	-1.041556	2.709869	0.000000	-0.157817	0.000000	-0.000005	-0.000000	0.000000	0.000000
59.374420	18.385764	17.201016	1.622762	-1.665264	2.601591	0.000000	-0.236015	0.000000	-0.000005	-0.000000	0.000000	0.000000
59.923480	16.359373	19.424131	2.046046	-2.407584	2.451465	0.000000	-0.310027	0.000000	-0.000005	0.000000	0.000000	0.000000
60.369440	14.773298	21.400085	1.523091	-2.004500	2.328495	0.000000	-0.241747	0.000000	-0.000005	-0.000000	0.000000	0.000000
60.810400	13.632444	22.956461	1.073929	-1.511586	2.236342	0.000000	-0.176618	0.000000	-0.000005	-0.000000	0.000000	0.000000
61.251360	12.864664	24.046022	0.673831	-0.949896	2.172438	0.000000	-0.113500	0.000000	-0.000005	-0.000000	0.000000	0.000000
61.692320	12.434882	24.619194	0.304519	-0.344986	2.136055	0.000000	-0.051674	0.000000	-0.000005	-0.000000	0.000000	0.000000
62.134530	12.323511	24.649360	-0.020759	0.215116	2.126785	0.000000	0.004347	0.000000	-0.000006	-0.000001	0.000000	0.000000
62.431853	12.343032	24.525194	-0.044896	0.202496	2.128077	0.000000	0.004347	0.000000	-0.000006	-0.000001	0.000000	0.000000
62.765186	12.381983	24.394914	-0.071956	0.188347	2.129526	0.000000	0.004347	0.000000	-0.000006	-0.000001	0.000000	0.000000
63.098520	12.438974	24.274065	-0.099017	0.174198	2.130975	0.000000	0.004347	0.000000	-0.000006	-0.000001	0.000000	0.000000
63.433103	12.514321	24.162249	-0.126178	0.159996	2.132430	0.000000	0.004347	0.000000	-0.000006	-0.000001	0.000000	0.000000
63.730426	12.596528	24.070861	-0.119423	0.088343	2.133722	0.000000	-0.000886	0.000000	-0.000007	-0.000001	0.000000	0.000000
64.171386	12.862241	23.727850	-0.485441	0.686570	2.146871	0.000000	0.060580	0.000000	-0.000007	-0.000001	0.000000	0.000000
64.612346	13.459275	22.869063	-0.873637	1.253558	2.187251	0.000000	0.122735	0.000000	-0.000007	-0.000001	0.000000	0.000000
65.053306	14.414906	21.533575	-1.301747	1.763510	2.255320	0.000000	0.186289	0.000000	-0.000008	-0.000001	0.000000	0.000000
65.494266	15.772796	19.782150	-1.789330	2.193224	2.351855	0.000000	0.251964	0.000000	-0.000008	-0.000001	0.000000	0.000000
65.940226	17.618146	17.669687	-2.363355	2.523903	2.479526	0.000000	0.320911	0.000000	-0.000009	-0.000001	0.000000	0.000000
66.489286	19.983648	15.306467	-1.919419	1.805623	2.635362	0.000000	0.245897	0.000000	-0.000009	-0.000001	0.000000	0.000000
67.038346	21.783869	13.657175	-1.339905	1.215955	2.748751	0.000000	0.166522	0.000000	-0.000010	-0.000001	0.000000	0.000000
67.587406	22.891649	12.604336	-0.665747	0.712895	2.817681	0.000000	0.084193	0.000000	-0.000010	-0.000001	0.000000	0.000000
68.136466	23.228742	12.072957	0.055436	0.260614	2.840931	0.000000	0.000370	0.000000	-0.000011	-0.000000	0.000000	0.000000
68.435038	23.235721	11.906509	-0.018115	0.265320	2.843258	0.000000	0.007794	0.000000	-0.000011	-0.000000	0.000000	0.000000
68.768372	23.252582	11.739618	-0.032466	0.235353	2.845856	0.000000	0.007794	0.000000	-0.000011	-0.000000	0.000000	0.000000
69.101705	23.279009	11.592705	-0.046816	0.205386	2.848454	0.000000	0.007794	0.000000	-0.000011	-0.000000	0.000000	0.000000
69.436288	23.315156	11.465331	-0.061221	0.175307	2.851062	0.000000	0.007794	0.000000	-0.000011	-0.000000	0.000000	0.000000
69.733611	23.355367	11.369032	-0.135050	0.178286	2.853379	0.000000	0.015250	0.000000	-0.000011	-0.000000	0.000000	0.000000
70.282671	23.102555	11.400904	0.592768	-0.236677	2.838570	0.000000	-0.069113	0.000000	-0.000011	0.000000	0.000000	0.000000
