#ParticleID	Turn	x[m]	xp	y[m]	yp	z[m]	dE[GeV]# s	beta_x	beta_y	alpha_x	alpha_y	D_x	D_y	D_px	D_py	orbit_x	orbit_px	orbit_y	orbit_py
0.300000	11.824077	24.976667	-0.012308	-0.027622	2.618145	0.000000	-0.000001	0.000000	0.000001	0.000000	0.000000	0.000000
0.601250	11.839169	24.996945	-0.037789	-0.039693	2.618144	0.000000	-0.000001	0.000000	0.000001	0.000000	0.000000	0.000000
0.898573	11.869117	25.024090	-0.033832	-0.112971	2.618144	0.000000	-0.006422	0.000000	0.000001	0.000000	0.000000	0.000000
1.339533	12.051212	24.846160	-0.380684	0.514942	2.631605	0.000000	0.067536	0.000000	0.000001	0.000000	0.000000	0.000000
1.780493	12.545685	24.122717	-0.744927	1.119425	2.677818	0.000000	0.142264	0.000000	0.000002	0.000001	0.000000	0.000000
2.221453	13.375129	22.886676	-1.143204	1.672976	2.757308	0.000000	0.218611	0.000000	0.000002	0.000001	0.000000	0.000000
2.662413	14.577438	21.194277	-1.593711	2.150407	2.870980	0.000000	0.297448	0.000000	0.000002	0.000001	0.000000	0.000000
3.108373	16.228324	19.097700	-2.121326	2.531128	3.021991	0.000000	0.380163	0.000000	0.000002	0.000001	0.000000	0.000000
3.657433	18.345281	16.743003	-1.711451	1.782784	3.205451	0.000000	0.287125	0.000000	0.000003	0.000001	0.000000	0.000000
4.206493	19.942695	15.135941	-1.180688	1.161424	3.336353	0.000000	0.188994	0.000000	0.000003	0.000001	0.000000	0.000000
4.755553	20.907733	14.162050	-0.566527	0.622790	3.412374	0.000000	0.087511	0.000000	0.000003	0.000000	0.000000	0.000000
5.304613	21.172231	13.751959	0.087651	0.128515	3.432165	0.000000	-0.015524	0.000000	0.000003	0.000000	0.000000	0.000000
5.603185	21.157138	13.660419	0.018217	0.142147	3.430208	0.000000	-0.006556	0.000000	0.000004	0.000000	0.000000	0.000000
5.936519	21.150247	13.573952	0.002456	0.117252	3.428022	0.000000	-0.006556	0.000000	0.000004	0.000000	0.000000	0.000000
6.269852	21.153863	13.504082	-0.013304	0.092358	3.425837	0.000000	-0.006556	0.000000	0.000004	0.000000	0.000000	0.000000
6.604435	21.168058	13.450640	-0.029123	0.067370	3.423643	0.000000	-0.006556	0.000000	0.000004	0.000000	0.000000	0.000000
6.901758	21.189556	13.417180	-0.098544	0.080221	3.421693	0.000000	0.002384	0.000000	0.000004	0.000000	0.000000	0.000000
7.450818	20.936590	13.589712	0.556542	-0.396306	3.394801	0.000000	-0.100197	0.000000	0.000004	0.000000	0.000000	0.000000
7.999878	19.981691	14.297863	1.172316	-0.901060	3.311991	0.000000	-0.201001	0.000000	0.000004	0.000000	0.000000	0.000000
8.548938	18.392307	15.592075	1.705284	-1.469995	3.174733	0.000000	-0.298239	0.000000	0.000004	-0.000000	0.000000	0.000000
9.097998	16.280705	17.564532	2.117799	-2.143634	2.985460	0.000000	-0.390188	0.000000	0.000004	-0.000000	0.000000	0.000000
9.543958	14.633196	19.322130	1.589634	-1.780865	2.829759	0.000000	-0.308482	0.000000	0.000004	-0.000000	0.000000	0.000000
9.984918	13.434793	20.702811	1.138390	-1.338299	2.710977	0.000000	-0.230773	0.000000	0.000004	-0.000000	0.000000	0.000000
10.425878	12.610000	21.664739	0.739155	-0.834842	2.625850	0.000000	-0.155692	0.000000	0.000004	0.000000	0.000000	0.000000
10.866838	12.121135	22.164149	0.373690	-0.293399	2.573409	0.000000	-0.082385	0.000000	0.000004	0.000000	0.000000	0.000000
11.309048	11.945726	22.177799	0.054486	0.206948	2.553035	0.000000	-0.016277	0.000000	0.000004	0.000000	0.000000	0.000000
11.606371	11.920748	22.058895	0.029523	0.192968	2.548195	0.000000	-0.016277	0.000000	0.000004	0.000000	0.000000	0.000000
12.086371	11.911750	21.884480	-0.010778	0.170397	2.540382	0.000000	-0.016277	0.000000	0.000004	0.000000	0.000000	0.000000
12.566371	11.941442	21.731732	-0.051079	0.147827	2.532569	0.000000	-0.016277	0.000000	0.000005	0.000000	0.000000	0.000000
13.046371	12.009822	21.600652	-0.091380	0.125257	2.524756	0.000000	-0.016277	0.000000	0.000005	0.000000	0.000000	0.000000
13.526371	12.116892	21.491239	-0.131681	0.102687	2.516943	0.000000	-0.016277	0.000000	0.000005	0.000000	0.000000	0.000000
14.007621	12.263080	21.403293	-0.172087	0.080058	2.509110	0.000000	-0.016277	0.000000	0.000005	0.000000	0.000000	0.000000
14.304943	12.372833	21.359844	-0.166710	0.013699	2.504270	0.000000	-0.022418	0.000000	0.000005	0.000000	0.000000	0.000000
14.745903	12.678509	21.113960	-0.529125	0.541788	2.510016	0.000000	0.048505	0.000000	0.000005	0.000000	0.000000	0.000000
15.186863	13.313217	20.411477	-0.915714	1.045227	2.547129	0.000000	0.119980	0.000000	0.000005	0.000001	0.000000	0.000000
15.627823	14.305956	19.284356	-1.344139	1.501108	2.616030	0.000000	0.192822	0.000000	0.000006	0.000001	0.000000	0.000000
16.068783	15.702080	17.783880	-1.833974	1.888690	2.717504	0.000000	0.267860	0.000000	0.000006	0.000001	0.000000	0.000000
16.514743	17.589030	15.956819	-2.412356	2.191086	2.854402	0.000000	0.346411	0.000000	0.000006	0.000001	0.000000	0.000000
17.063803	20.012393	13.916651	-1.975174	1.546593	3.020872	0.000000	0.259079	0.000000	0.000007	0.000001	0.000000	0.000000
17.612863	21.875760	12.519931	-1.398476	1.012261	3.138057	0.000000	0.167151	0.000000	0.000007	0.000001	0.000000	0.000000
18.161923	23.047512	11.667174	-0.722997	0.550029	3.203879	0.000000	0.072258	0.000000	0.000008	0.000000	0.000000	0.000000
18.710983	23.444883	11.297639	0.003552	0.126975	3.217170	0.000000	-0.023916	0.000000	0.000008	0.000000	0.000000	0.000000
19.009556	23.483155	11.212275	-0.070479	0.129417	3.212538	0.000000	-0.015511	0.000000	0.000008	0.000000	0.000000	0.000000
19.342889	23.534896	11.136073	-0.084744	0.099190	3.207368	0.000000	-0.015511	0.000000	0.000008	0.000000	0.000000	0.000000
19.676223	23.596147	11.080022	-0.099009	0.068962	3.202198	0.000000	-0.015511	0.000000	0.000008	0.000000	0.000000	0.000000
20.010806	23.667484	11.043890	-0.230590	0.093340	3.197028	0.000000	0.000329	0.000000	0.000008	0.000000	0.000000	0.000000
20.308129	23.808537	10.996460	-0.306023	0.094913	3.197126	0.000000	0.008682	0.000000	0.000008	0.000000	0.000000	0.000000
20.857189	23.733956	11.114638	0.441054	-0.311422	3.175673	0.000000	-0.086711	0.000000	0.000008	-0.000000	0.000000	0.000000
21.406249	22.851316	11.688511	1.156977	-0.739939	3.102189	0.000000	-0.180565	0.000000	0.000008	-0.000000	0.000000	0.000000
21.955309	21.222963	12.758955	1.791177	-1.221161	2.977979	0.000000	-0.271217	0.000000	0.000007	-0.000001	0.000000	0.000000
22.504369	18.963916	14.402213	2.298857	-1.789363	2.805244	0.000000	-0.357059	0.000000	0.000007	-0.000001	0.000000	0.000000
22.950329	17.183674	15.877454	1.707167	-1.504693	2.663304	0.000000	-0.279848	0.000000	0.000007	-0.000001	0.000000	0.000000
23.391289	15.907378	17.053608	1.198170	-1.152416	2.556225	0.000000	-0.206280	0.000000	0.000007	-0.000000	0.000000	0.000000
23.832249	15.054234	17.894687	0.743913	-0.747706	2.481038	0.000000	-0.135061	0.000000	0.000006	-0.000000	0.000000	0.000000
24.273209	14.585263	18.362422	0.323644	-0.308976	2.436887	0.000000	-0.065380	0.000000	0.000006	-0.000000	0.000000	0.000000
24.715418	14.479156	18.435284	-0.046421	0.098537	2.423266	0.000000	-0.002386	0.000000	0.000006	-0.000000	0.000000	0.000000
25.012741	14.512878	18.381531	-0.066999	0.082253	2.422556	0.000000	-0.002386	0.000000	0.000006	-0.000000	0.000000	0.000000
25.346075	14.565235	18.332782	-0.090071	0.063996	2.421761	0.000000	-0.002386	0.000000	0.000006	-0.000000	0.000000	0.000000
25.679408	14.632972	18.296203	-0.113142	0.045739	2.420966	0.000000	-0.002386	0.000000	0.000006	-0.000000	0.000000	0.000000
26.013991	14.716133	18.272098	-0.016913	-0.120818	2.420143	0.000000	-0.022020	0.000000	0.000006	-0.000000	0.000000	0.000000
26.311314	14.732198	18.348851	-0.000997	-0.182322	2.413596	0.000000	-0.027938	0.000000	0.000006	-0.000000	0.000000	0.000000
26.752274	14.914601	18.310616	-0.414221	0.268701	2.416387	0.000000	0.040609	0.000000	0.000006	0.000000	0.000000	0.000000
27.193234	15.468371	17.878507	-0.846370	0.707498	2.449477	0.000000	0.109619	0.000000	0.000006	0.000000	0.000000	0.000000
27.634194	16.418808	17.072184	-1.317188	1.114105	2.513245	0.000000	0.179877	0.000000	0.000006	0.000000	0.000000	0.000000
28.075154	17.809335	15.928335	-1.848184	1.470021	2.608415	0.000000	0.252184	0.000000	0.000007	0.000001	0.000000	0.000000
28.521114	19.727643	14.481775	-2.468578	1.759965	2.737675	0.000000	0.327806	0.000000	0.000007	0.000001	0.000000	0.000000
29.070174	22.165823	12.869927	-1.945779	1.193014	2.894995	0.000000	0.244404	0.000000	0.000007	0.000001	0.000000	0.000000
29.619234	23.950577	11.830623	-1.285540	0.711038	3.005263	0.000000	0.156667	0.000000	0.000007	0.000000	0.000000	0.000000
30.168294	24.955837	11.289835	-0.534496	0.279708	3.066523	0.000000	0.066151	0.000000	0.000008	0.000000	0.000000	0.000000
30.717354	25.110597	11.209046	0.254301	-0.131698	3.077689	0.000000	-0.025539	0.000000	0.000007	-0.000000	0.000000	0.000000
31.015927	25.001594	11.278238	0.176382	-0.129329	3.072465	0.000000	-0.017498	0.000000	0.000007	-0.000000	0.000000	0.000000
31.349260	24.888589	11.374474	0.162635	-0.159379	3.066632	0.000000	-0.017498	0.000000	0.000007	-0.000000	0.000000	0.000000
31.682593	24.784748	11.490743	0.148888	-0.189429	3.060800	0.000000	-0.017498	0.000000	0.000007	-0.000000	0.000000	0.000000
32.017177	24.689734	11.627594	0.135089	-0.219591	3.054945	0.000000	-0.017498	0.000000	0.000007	-0.000000	0.000000	0.000000
32.314499	24.613050	11.766143	0.058521	-0.215654	3.049743	0.000000	-0.009530	0.000000	0.000007	-0.000000	0.000000	0.000000
32.863559	24.127127	12.242249	0.821248	-0.656595	3.019628	0.000000	-0.100007	0.000000	0.000007	-0.000000	0.000000	0.000000
33.412619	22.830691	13.225249	1.525967	-1.144304	2.940250	0.000000	-0.188710	0.000000	0.000007	-0.000001	0.000000	0.000000
33.961679	20.815314	14.785158	2.122898	-1.713519	2.813017	0.000000	-0.274066	0.000000	0.000006	-0.000001	0.000000	0.000000
34.510739	18.223354	17.033085	2.569879	-2.404785	2.640186	0.000000	-0.354561	0.000000	0.000006	-0.000001	0.000000	0.000000
34.956699	16.208079	19.043731	1.965272	-2.084967	2.498408	0.000000	-0.281630	0.000000	0.000005	-0.000001	0.000000	0.000000
35.397659	14.705373	20.706303	1.455460	-1.671033	2.389603	0.000000	-0.212335	0.000000	0.000005	-0.000001	0.000000	0.000000
35.838619	13.621370	21.968770	1.012144	-1.181068	2.310792	0.000000	-0.145458	0.000000	0.000005	-0.000001	0.000000	0.000000
36.279579	12.906545	22.773689	0.615070	-0.637365	2.261078	0.000000	-0.080237	0.000000	0.000004	-0.000001	0.000000	0.000000
36.721789	12.527548	23.084740	0.276712	-0.121325	2.239869	0.000000	-0.021424	0.000000	0.000004	-0.000000	0.000000	0.000000
37.019112	12.370599	23.160771	0.251161	-0.134394	2.233499	0.000000	-0.021424	0.000000	0.000004	-0.000000	0.000000	0.000000
37.352445	12.212707	23.255251	0.222515	-0.149046	2.226358	0.000000	-0.021424	0.000000	0.000004	-0.000000	0.000000	0.000000
37.685779	12.073912	23.359499	0.193870	-0.163698	2.219217	0.000000	-0.021424	0.000000	0.000004	-0.000000	0.000000	0.000000
38.020362	11.953801	23.473961	0.165117	-0.178405	2.212049	0.000000	-0.021424	0.000000	0.000004	-0.000000	0.000000	0.000000
38.317684	11.863212	23.583934	0.168658	-0.249307	2.205679	0.000000	-0.026833	0.000000	0.000004	-0.000000	0.000000	0.000000
38.758644	11.865759	23.542594	-0.174456	0.342701	2.207775	0.000000	0.036346	0.000000	0.000003	-0.000000	0.000000	0.000000
39.199604	12.173262	22.984057	-0.525539	0.919117	2.237794	0.000000	0.099938	0.000000	0.000003	-0.000000	0.000000	0.000000
39.640564	12.799771	21.933736	-0.900633	1.453714	2.296079	0.000000	0.164668	0.000000	0.000003	-0.000000	0.000000	0.000000
40.081524	13.773907	20.439421	-1.316875	1.922167	2.383294	0.000000	0.231274	0.000000	0.000003	-0.000000	0.000000	0.000000
40.527484	15.157747	18.546534	-1.797106	2.304444	2.501903	0.000000	0.300920	0.000000	0.000003	0.000000	0.000000	0.000000
41.076544	16.923835	16.419466	-1.400421	1.592440	2.646596	0.000000	0.225361	0.000000	0.000003	-0.000000	0.000000	0.000000
41.625604	18.197087	15.007764	-0.904818	0.993861	2.748642	0.000000	0.145805	0.000000	0.000003	-0.000000	0.000000	0.000000
42.174664	18.887567	14.210876	-0.345303	0.466073	2.806233	0.000000	0.063664	0.000000	0.000003	-0.000000	0.000000	0.000000
42.723724	18.946501	13.972041	0.238602	-0.028517	2.818346	0.000000	-0.019608	0.000000	0.000003	-0.000000	0.000000	0.000000
43.022297	18.838454	13.973652	0.172777	-0.013382	2.814690	0.000000	-0.012244	0.000000	0.000003	-0.000000	0.000000	0.000000
43.502297	18.685184	14.002990	0.146537	-0.047739	2.808813	0.000000	-0.012244	0.000000	0.000002	-0.000000	0.000000	0.000000
43.982297	18.557104	14.065310	0.120296	-0.082095	2.802936	0.000000	-0.012244	0.000000	0.000002	-0.000000	0.000000	0.000000
44.462297	18.454215	14.160613	0.094056	-0.116452	2.797059	0.000000	-0.012244	0.000000	0.000002	-0.000000	0.000000	0.000000
44.942297	18.376517	14.288897	0.067815	-0.150808	2.791182	0.000000	-0.012244	0.000000	0.000002	-0.000000	0.000000	0.000000
45.423547	18.324133	14.450449	-0.049281	-0.113658	2.785307	0.000000	0.001556	0.000000	0.000002	-0.000000	0.000000	0.000000
45.720870	18.358273	14.524231	-0.113513	-0.096550	2.785770	0.000000	0.008835	0.000000	0.000002	-0.000000	0.000000	0.000000
46.269930	18.173802	14.911215	0.447500	-0.612422	2.768049	0.000000	-0.073290	0.000000	0.000001	-0.000000	0.000000	0.000000
46.818990	17.387061	15.885174	0.976904	-1.171915	2.705528	0.000000	-0.154115	0.000000	0.000001	-0.000000	0.000000	0.000000
47.368050	16.053622	17.515480	1.437304	-1.814880	2.599315	0.000000	-0.232206	0.000000	0.000001	-0.000000	0.000000	0.000000
47.917110	14.267673	19.918257	1.796180	-2.587116	2.451295	0.000000	-0.306179	0.000000	0.000001	-0.000001	0.000000	0.000000
48.363070	12.877777	22.054600	1.331499	-2.183181	2.330044	0.000000	-0.237881	0.000000	0.000000	-0.000001	0.000000	0.000000
48.804030	11.883692	23.765140	0.931418	-1.681184	2.239608	0.000000	-0.172689	0.000000	0.000000	-0.000000	0.000000	0.000000
49.244990	11.222421	24.997408	0.573890	-1.102695	2.177458	0.000000	-0.109464	0.000000	0.000000	-0.000000	0.000000	0.000000
49.685950	10.863750	25.695338	0.242582	-0.474033	2.142887	0.000000	-0.047486	0.000000	-0.000000	-0.000000	0.000000	0.000000
50.128160	10.791421	25.826892	-0.051296	0.112811	2.135511	0.000000	0.008714	0.000000	-0.000000	-0.000000	0.000000	0.000000
50.425482	10.830137	25.763275	-0.078920	0.101153	2.138102	0.000000	0.008714	0.000000	-0.000001	-0.000000	0.000000	0.000000
50.758816	10.893074	25.700197	-0.109890	0.088082	2.141007	0.000000	0.008714	0.000000	-0.000001	-0.000000	0.000000	0.000000
51.092149	10.976657	25.645833	-0.140860	0.075011	2.143912	0.000000	0.008714	0.000000	-0.000001	-0.000000	0.000000	0.000000
51.426732	11.081092	25.600547	-0.082049	-0.145793	2.146806	0.000000	-0.008702	0.000000	-0.000001	-0.000000	0.000000	0.000000
51.724055	11.137913	25.690768	-0.081747	-0.220656	2.144219	0.000000	-0.013960	0.000000	-0.000001	-0.000000	0.000000	0.000000
52.165015	11.355412	25.599570	-0.413363	0.426687	2.151652	0.000000	0.047702	0.000000	-0.000001	-0.000001	0.000000	0.000000
52.605975	11.872560	24.943880	-0.763864	1.054615	2.186369	0.000000	0.109908	0.000000	-0.000002	-0.000001	0.000000	0.000000
53.046935	12.712984	23.753532	-1.149263	1.634559	2.248766	0.000000	0.173366	0.000000	-0.000002	-0.000001	0.000000	0.000000
53.487895	13.915081	22.082686	-1.587170	2.140132	2.339554	0.000000	0.238798	0.000000	-0.000002	-0.000001	0.000000	0.000000
53.933855	15.554374	19.982380	-2.101823	2.549666	2.461271	0.000000	0.307349	0.000000	-0.000003	-0.000001	0.000000	0.000000
54.482915	17.664882	17.619061	-1.719279	1.780042	2.609844	0.000000	0.233044	0.000000	-0.000003	-0.000001	0.000000	0.000000
55.031975	19.285733	16.026715	-1.215293	1.137206	2.716423	0.000000	0.154606	0.000000	-0.000003	-0.000001	0.000000	0.000000
55.581035	20.302438	15.091926	-0.625466	0.575371	2.779117	0.000000	0.073426	0.000000	-0.000003	-0.000000	0.000000	0.000000
56.130095	20.643183	14.748108	0.008542	0.054518	2.796814	0.000000	-0.009058	0.000000	-0.000004	-0.000000	0.000000	0.000000
56.428668	20.674619	14.698638	-0.059890	0.072634	2.796292	0.000000	-0.001750	0.000000	-0.000004	-0.000000	0.000000	0.000000
56.762001	20.719939	14.657815	-0.076070	0.049836	2.795709	0.000000	-0.001750	0.000000	-0.000004	-0.000000	0.000000	0.000000
57.095334	20.776046	14.632190	-0.092251	0.027039	2.795126	0.000000	-0.001750	0.000000	-0.000004	-0.000000	0.000000	0.000000
57.429918	20.843212	14.621753	-0.108492	0.004156	2.794541	0.000000	-0.001750	0.000000	-0.000004	-0.000000	0.000000	0.000000
57.727240	20.912017	14.625328	-0.177566	0.022036	2.794020	0.000000	0.005551	0.000000	-0.000004	-0.000000	0.000000	0.000000
58.276300	20.750206	14.882020	0.470528	-0.492308	2.774429	0.000000	-0.076811	0.000000	-0.000004	-0.000000	0.000000	0.000000
58.825360	19.890829	15.719350	1.085386	-1.041718	2.709923	0.000000	-0.157810	0.000000	-0.000004	-0.000000	0.000000	0.000000
59.374420	18.394589	17.196957	1.623578	-1.665326	2.601648	0.000000	-0.236011	0.000000	-0.000004	0.000000	0.000000	0.000000
59.923480	16.367172	19.420089	2.047088	-2.407553	2.451524	0.000000	-0.310025	0.000000	-0.000004	0.000000	0.000000	0.000000
60.369440	14.780272	21.396075	1.523904	-2.004603	2.328555	0.000000	-0.241743	0.000000	-0.000004	0.000000	0.000000	0.000000
60.810400	13.638788	22.952598	1.074551	-1.511816	2.236404	0.000000	-0.176612	0.000000	-0.000004	0.000000	0.000000	0.000000
61.251360	12.870532	24.042415	0.674292	-0.950244	2.172503	0.000000	-0.113492	0.000000	-0.000004	-0.000000	0.000000	0.000000
61.692320	12.440406	24.615940	0.304840	-0.345436	2.136124	0.000000	-0.051665	0.000000	-0.000004	-0.000000	0.000000	0.000000
62.134530	12.328809	24.646542	-0.020552	0.214592	2.126858	0.000000	0.004358	0.000000	-0.000004	-0.000000	0.000000	0.000000
62.431853	12.348204	24.522688	-0.044678	0.201973	2.128154	0.000000	0.004358	0.000000	-0.000004	-0.000000	0.000000	0.000000
62.765186	12.387005	24.392756	-0.071727	0.187825	2.129606	0.000000	0.004358	0.000000	-0.000005	-0.000000	0.000000	0.000000
63.098520	12.443839	24.272255	-0.098775	0.173678	2.131059	0.000000	0.004358	0.000000	-0.000005	-0.000000	0.000000	0.000000
63.433103	12.519020	24.160786	-0.125925	0.159478	2.132517	0.000000	0.004358	0.000000	-0.000005	-0.000000	0.000000	0.000000
63.730426	12.601074	24.069706	-0.119148	0.087830	2.133813	0.000000	-0.000875	0.000000	-0.000005	-0.000000	0.000000	0.000000
64.171386	12.866588	23.727157	-0.485263	0.686039	2.146967	0.000000	0.060593	0.000000	-0.000005	-0.000000	0.000000	0.000000
64.612346	13.463504	22.868837	-0.873548	1.253034	2.187352	0.000000	0.122751	0.000000	-0.000005	-0.000001	0.000000	0.000000
65.053306	14.419095	21.533799	-1.301742	1.763017	2.255429	0.000000	0.186307	0.000000	-0.000006	-0.000001	0.000000	0.000000
65.494266	15.777017	19.782787	-1.789410	2.192784	2.351972	0.000000	0.251985	0.000000	-0.000006	-0.000001	0.000000	0.000000
65.940226	17.622477	17.670685	-2.363523	2.523537	2.479654	0.000000	0.320935	0.000000	-0.000006	-0.000001	0.000000	0.000000
66.489286	19.988072	15.307850	-1.919417	1.805283	2.635502	0.000000	0.245917	0.000000	-0.000007	-0.000001	0.000000	0.000000
67.038346	21.788197	13.658929	-1.339734	1.215616	2.748900	0.000000	0.166537	0.000000	-0.000007	-0.000001	0.000000	0.000000
67.587406	22.895701	12.606472	-0.665418	0.712534	2.817838	0.000000	0.084203	0.000000	-0.000007	-0.000000	0.000000	0.000000
68.136466	23.232355	12.075515	0.055900	0.260204	2.841091	0.000000	0.000376	0.000000	-0.000007	-0.000000	0.000000	0.000000
68.435038	23.239062	11.909304	-0.017658	0.264927	2.843420	0.000000	0.007799	0.000000	-0.000008	-0.000000	0.000000	0.000000
68.768372	23.255616	11.742671	-0.032006	0.234973	2.846020	0.000000	0.007799	0.000000	-0.000008	-0.000000	0.000000	0.000000
69.101705	23.281736	11.596007	-0.046354	0.205019	2.848620	0.000000	0.007799	0.000000	-0.000008	-0.000000	0.000000	0.000000
69.436288	23.317573	11.468875	-0.060756	0.174953	2.851229	0.000000	0.007799	0.000000	-0.000008	-0.000000	0.000000	0.000000
69.733611	23.357507	11.372784	-0.134587	0.177952	2.853548	0.000000	0.015256	0.000000	-0.000008	-0.000000	0.000000	0.000000
70.282671	23.104152	11.405081	0.593289	-0.237123	2.838741	0.000000	-0.069112	0.000000	-0.000008	0.000000	0.000000	0.000000
