#ParticleID	Turn	x[m]	xp	y[m]	yp	z[m]	dE[GeV]# s	beta_x	beta_y	alpha_x	alpha_y	D_x	D_y	D_px	D_py	orbit_x	orbit_px	orbit_y	orbit_py
0.300000	11.811606	25.026890	-0.010841	-0.027169	2.618135	0.000000	0.000002	0.000000	-0.000000	0.000001	0.000000	0.000000
0.601250	11.825823	25.046888	-0.036349	-0.039215	2.618135	0.000000	0.000002	0.000000	0.000000	0.000001	0.000000	0.000000
0.898573	11.854922	25.073742	-0.032452	-0.112592	2.618136	0.000000	-0.006418	0.000000	0.000001	0.000001	0.000000	0.000000
1.339533	12.035646	24.894899	-0.378944	0.516625	2.631599	0.000000	0.067540	0.000000	0.000001	0.000001	0.000000	0.000000
1.780493	12.528399	24.169422	-0.742749	1.122336	2.677812	0.000000	0.142267	0.000000	0.000002	0.000001	0.000000	0.000000
2.221453	13.355694	22.930319	-1.140489	1.676981	2.757303	0.000000	0.218614	0.000000	0.000002	0.000001	0.000000	0.000000
2.662413	14.555326	21.233970	-1.590333	2.155326	2.870976	0.000000	0.297451	0.000000	0.000003	0.000001	0.000000	0.000000
3.108373	16.202844	19.132679	-2.117125	2.536737	3.021988	0.000000	0.380166	0.000000	0.000003	0.000001	0.000000	0.000000
3.657433	18.315522	16.772608	-1.707906	1.787020	3.205450	0.000000	0.287128	0.000000	0.000004	0.000001	0.000000	0.000000
4.206493	19.909521	15.161507	-1.178049	1.164589	3.336353	0.000000	0.188997	0.000000	0.000005	0.000001	0.000000	0.000000
4.755553	20.872247	14.184622	-0.564980	0.625109	3.412375	0.000000	0.087514	0.000000	0.000006	0.000001	0.000000	0.000000
5.304613	21.135700	13.772371	0.087996	0.130154	3.432168	0.000000	-0.015521	0.000000	0.000006	0.000001	0.000000	0.000000
5.603185	21.120351	13.679815	0.018633	0.143859	3.430211	0.000000	-0.006554	0.000000	0.000006	0.000001	0.000000	0.000000
5.936519	21.113192	13.592200	0.002845	0.118988	3.428026	0.000000	-0.006554	0.000000	0.000007	0.000001	0.000000	0.000000
6.269852	21.116558	13.521165	-0.012943	0.094117	3.425841	0.000000	-0.006554	0.000000	0.000007	0.000001	0.000000	0.000000
6.604435	21.130521	13.466538	-0.028790	0.069152	3.423648	0.000000	-0.006554	0.000000	0.000007	0.000001	0.000000	0.000000
6.901758	21.151828	13.432013	-0.098135	0.082061	3.421699	0.000000	0.002386	0.000000	0.000007	0.000001	0.000000	0.000000
7.450818	20.899109	13.602744	0.555686	-0.394850	3.394808	0.000000	-0.100195	0.000000	0.000008	0.000001	0.000000	0.000000
7.999878	19.945820	14.309460	1.170256	-0.899885	3.311999	0.000000	-0.200999	0.000000	0.000008	0.000000	0.000000	0.000000
8.548938	18.359297	15.602497	1.702165	-1.469017	3.174741	0.000000	-0.298238	0.000000	0.000008	0.000000	0.000000	0.000000
9.097998	16.251603	17.573956	2.113842	-2.142784	2.985470	0.000000	-0.390186	0.000000	0.000008	-0.000000	0.000000	0.000000
9.543958	14.607228	19.330618	1.586538	-1.779624	2.829769	0.000000	-0.308480	0.000000	0.000008	0.000000	0.000000	0.000000
9.984918	13.411231	20.710053	1.136007	-1.336726	2.710988	0.000000	-0.230771	0.000000	0.000008	0.000000	0.000000	0.000000
10.425878	12.588266	21.670474	0.737376	-0.833009	2.625862	0.000000	-0.155690	0.000000	0.000009	0.000000	0.000000	0.000000
10.866838	12.100734	22.168183	0.372434	-0.291390	2.573421	0.000000	-0.082383	0.000000	0.000009	0.000001	0.000000	0.000000
11.309048	11.926225	22.180011	0.053647	0.209039	2.553048	0.000000	-0.016274	0.000000	0.000009	0.000001	0.000000	0.000000
11.606371	11.901758	22.059867	0.028645	0.195049	2.548210	0.000000	-0.016274	0.000000	0.000009	0.000001	0.000000	0.000000
12.086371	11.893633	21.883461	-0.011718	0.172462	2.540398	0.000000	-0.016274	0.000000	0.000010	0.000001	0.000000	0.000000
12.566371	11.924257	21.728740	-0.052081	0.149875	2.532586	0.000000	-0.016274	0.000000	0.000010	0.000001	0.000000	0.000000
13.046371	11.993629	21.595701	-0.092445	0.127288	2.524774	0.000000	-0.016274	0.000000	0.000011	0.000001	0.000000	0.000000
13.526371	12.101750	21.484346	-0.132808	0.104702	2.516962	0.000000	-0.016274	0.000000	0.000011	0.000001	0.000000	0.000000
14.007621	12.249053	21.394469	-0.173276	0.082056	2.509130	0.000000	-0.016274	0.000000	0.000012	0.000001	0.000000	0.000000
14.304943	12.359524	21.349834	-0.167972	0.015715	2.504291	0.000000	-0.022414	0.000000	0.000012	0.000001	0.000000	0.000000
14.745903	12.666194	21.102305	-0.530125	0.543491	2.510039	0.000000	0.048509	0.000000	0.000012	0.000001	0.000000	0.000000
15.186863	13.301686	20.398488	-0.916497	1.046538	2.547153	0.000000	0.119985	0.000000	0.000013	0.000002	0.000000	0.000000
15.627823	14.295034	19.270406	-1.344742	1.501968	2.616055	0.000000	0.192828	0.000000	0.000014	0.000002	0.000000	0.000000
16.068783	15.691621	17.769386	-1.834424	1.889060	2.717532	0.000000	0.267866	0.000000	0.000015	0.000002	0.000000	0.000000
16.514743	17.578911	15.942222	-2.412673	2.190945	2.854432	0.000000	0.346418	0.000000	0.000016	0.000003	0.000000	0.000000
17.063803	20.002891	13.902040	-1.975972	1.546760	3.020905	0.000000	0.259085	0.000000	0.000017	0.000002	0.000000	0.000000
17.612863	21.867374	12.504963	-1.399698	1.012747	3.138092	0.000000	0.167156	0.000000	0.000018	0.000002	0.000000	0.000000
18.161923	23.040663	11.651481	-0.724556	0.550870	3.203916	0.000000	0.072262	0.000000	0.000019	0.000001	0.000000	0.000000
18.710983	23.439883	11.280803	0.001765	0.128230	3.217208	0.000000	-0.023914	0.000000	0.000019	0.000000	0.000000	0.000000
19.009556	23.479211	11.194732	-0.072252	0.130575	3.212577	0.000000	-0.015509	0.000000	0.000019	0.000000	0.000000	0.000000
19.342889	23.532137	11.117777	-0.086523	0.100291	3.207407	0.000000	-0.015509	0.000000	0.000019	0.000000	0.000000	0.000000
19.676223	23.594576	11.061010	-0.100795	0.070007	3.202237	0.000000	-0.015509	0.000000	0.000019	0.000000	0.000000	0.000000
20.010806	23.667110	11.024198	-0.232379	0.094231	3.197068	0.000000	0.000331	0.000000	0.000020	0.000000	0.000000	0.000000
20.308129	23.809230	10.976254	-0.307819	0.095696	3.197166	0.000000	0.008683	0.000000	0.000020	0.000001	0.000000	0.000000
20.857189	23.736599	11.093259	0.439319	-0.310054	3.175713	0.000000	-0.086711	0.000000	0.000020	-0.000000	0.000000	0.000000
21.406249	22.855773	11.665266	1.155426	-0.737888	3.102229	0.000000	-0.180567	0.000000	0.000020	-0.000001	0.000000	0.000000
21.955309	21.228970	12.733018	1.789920	-1.218281	2.978018	0.000000	-0.271220	0.000000	0.000019	-0.000001	0.000000	0.000000
22.504369	18.971100	14.372568	2.297982	-1.785449	2.805282	0.000000	-0.357063	0.000000	0.000018	-0.000002	0.000000	0.000000
22.950329	17.191660	15.844613	1.706235	-1.501471	2.663340	0.000000	-0.279852	0.000000	0.000017	-0.000002	0.000000	0.000000
23.391289	15.916227	17.018286	1.197138	-1.150031	2.556260	0.000000	-0.206282	0.000000	0.000017	-0.000001	0.000000	0.000000
23.832249	15.064053	17.857671	0.742734	-0.746265	2.481072	0.000000	-0.135062	0.000000	0.000016	-0.000001	0.000000	0.000000
24.273209	14.596206	18.324576	0.322264	-0.308545	2.436921	0.000000	-0.065380	0.000000	0.000016	-0.000000	0.000000	0.000000
24.715418	14.491430	18.397514	-0.048037	0.098035	2.423300	0.000000	-0.002385	0.000000	0.000016	0.000000	0.000000	0.000000
25.012741	14.526110	18.344070	-0.068602	0.081719	2.422591	0.000000	-0.002385	0.000000	0.000016	0.000000	0.000000	0.000000
25.346075	14.579529	18.295688	-0.091657	0.063426	2.421796	0.000000	-0.002385	0.000000	0.000016	0.000000	0.000000	0.000000
25.679408	14.648319	18.259502	-0.114712	0.045134	2.421001	0.000000	-0.002385	0.000000	0.000016	0.000000	0.000000	0.000000
26.013991	14.732524	18.235813	-0.018334	-0.121165	2.420178	0.000000	-0.022019	0.000000	0.000016	0.000000	0.000000	0.000000
26.311314	14.749429	18.312782	-0.002358	-0.182611	2.413631	0.000000	-0.027937	0.000000	0.000016	-0.000000	0.000000	0.000000
26.752274	14.933222	18.275232	-0.416026	0.267441	2.416423	0.000000	0.040611	0.000000	0.000016	0.000000	0.000000	0.000000
27.193234	15.488809	17.844643	-0.848702	0.705325	2.449514	0.000000	0.109622	0.000000	0.000017	0.000001	0.000000	0.000000
27.634194	16.441573	17.040605	-1.320152	1.111116	2.513283	0.000000	0.179881	0.000000	0.000017	0.000001	0.000000	0.000000
28.075154	17.835042	15.899702	-1.851917	1.466353	2.608455	0.000000	0.252189	0.000000	0.000018	0.000002	0.000000	0.000000
28.521114	19.757090	14.456658	-2.473259	1.755784	2.737717	0.000000	0.327813	0.000000	0.000019	0.000002	0.000000	0.000000
29.070174	22.200020	12.848848	-1.949697	1.189795	2.895039	0.000000	0.244409	0.000000	0.000020	0.000002	0.000000	0.000000
29.619234	23.988528	11.812658	-1.288418	0.708552	3.005309	0.000000	0.156670	0.000000	0.000020	0.000001	0.000000	0.000000
30.168294	24.996281	11.274281	-0.536132	0.277778	3.066571	0.000000	0.066152	0.000000	0.000021	0.000000	0.000000	0.000000
30.717354	25.152098	11.195370	0.254024	-0.133210	3.077737	0.000000	-0.025539	0.000000	0.000021	-0.000000	0.000000	0.000000
31.015927	25.043315	11.265501	0.176026	-0.130921	3.072512	0.000000	-0.017498	0.000000	0.000020	-0.000000	0.000000	0.000000
31.349260	24.930539	11.362814	0.162303	-0.161017	3.066680	0.000000	-0.017498	0.000000	0.000020	-0.000000	0.000000	0.000000
31.682593	24.826912	11.480191	0.148580	-0.191113	3.060847	0.000000	-0.017498	0.000000	0.000020	-0.000000	0.000000	0.000000
32.017177	24.732095	11.618185	0.134806	-0.221322	3.054992	0.000000	-0.017498	0.000000	0.000020	-0.000000	0.000000	0.000000
32.314499	24.655573	11.757774	0.058156	-0.217451	3.049790	0.000000	-0.009531	0.000000	0.000020	-0.000000	0.000000	0.000000
32.863559	24.169273	12.235769	0.822295	-0.658256	3.019673	0.000000	-0.100010	0.000000	0.000020	-0.000001	0.000000	0.000000
33.412619	22.870941	13.220571	1.528351	-1.145946	2.940294	0.000000	-0.188714	0.000000	0.000019	-0.000002	0.000000	0.000000
33.961679	20.852284	14.782326	2.126452	-1.715260	2.813059	0.000000	-0.274072	0.000000	0.000018	-0.000002	0.000000	0.000000
34.510739	18.255890	17.032275	2.574351	-2.406747	2.640225	0.000000	-0.354568	0.000000	0.000017	-0.000003	0.000000	0.000000
34.956699	16.237075	19.044780	1.968764	-2.087159	2.498445	0.000000	-0.281636	0.000000	0.000015	-0.000002	0.000000	0.000000
35.397659	14.731657	20.709349	1.458140	-1.673350	2.389638	0.000000	-0.212340	0.000000	0.000014	-0.000002	0.000000	0.000000
35.838619	13.645603	21.973877	1.014135	-1.183406	2.310825	0.000000	-0.145462	0.000000	0.000014	-0.000002	0.000000	0.000000
36.279579	12.929292	22.780828	0.616462	-0.639618	2.261110	0.000000	-0.080241	0.000000	0.000013	-0.000001	0.000000	0.000000
36.721789	12.549305	23.093796	0.277619	-0.123407	2.239900	0.000000	-0.021426	0.000000	0.000013	-0.000001	0.000000	0.000000
37.019112	12.391807	23.171066	0.252101	-0.136478	2.233529	0.000000	-0.021426	0.000000	0.000012	-0.000001	0.000000	0.000000
37.352445	12.233276	23.266936	0.223492	-0.151132	2.226388	0.000000	-0.021426	0.000000	0.000012	-0.000001	0.000000	0.000000
37.685779	12.093818	23.372575	0.194882	-0.165785	2.219246	0.000000	-0.021426	0.000000	0.000012	-0.000001	0.000000	0.000000
38.020362	11.973017	23.488434	0.166166	-0.180494	2.212077	0.000000	-0.021426	0.000000	0.000011	-0.000001	0.000000	0.000000
38.317684	11.881795	23.599650	0.169782	-0.251432	2.205707	0.000000	-0.026835	0.000000	0.000011	-0.000001	0.000000	0.000000
38.758644	11.883534	23.559994	-0.173742	0.341022	2.207802	0.000000	0.036344	0.000000	0.000011	-0.000001	0.000000	0.000000
39.199604	12.190577	23.002713	-0.525205	0.917960	2.237821	0.000000	0.099937	0.000000	0.000011	-0.000000	0.000000	0.000000
39.640564	12.816951	21.953163	-0.900663	1.453131	2.296106	0.000000	0.164669	0.000000	0.000010	-0.000000	0.000000	0.000000
40.081524	13.791275	20.459097	-1.317269	1.922186	2.383321	0.000000	0.231275	0.000000	0.000010	0.000000	0.000000	0.000000
40.527484	15.175636	18.565921	-1.797885	2.305068	2.501931	0.000000	0.300921	0.000000	0.000011	0.000000	0.000000	0.000000
41.076544	16.942212	16.438445	-1.400523	1.592564	2.646624	0.000000	0.225362	0.000000	0.000011	0.000000	0.000000	0.000000
41.625604	18.215198	15.026875	-0.904235	0.993496	2.748671	0.000000	0.145805	0.000000	0.000011	-0.000000	0.000000	0.000000
42.174664	18.904677	14.230668	-0.344076	0.465192	2.806261	0.000000	0.063662	0.000000	0.000010	-0.000001	0.000000	0.000000
42.723724	18.961948	13.993112	0.240386	-0.029978	2.818373	0.000000	-0.019610	0.000000	0.000010	-0.000001	0.000000	0.000000
43.022297	18.852858	13.995553	0.174527	-0.014757	2.814717	0.000000	-0.012246	0.000000	0.000010	-0.000001	0.000000	0.000000
43.502297	18.697905	14.026186	0.148291	-0.049061	2.808839	0.000000	-0.012246	0.000000	0.000009	-0.000001	0.000000	0.000000
43.982297	18.568139	14.089751	0.122055	-0.083365	2.802961	0.000000	-0.012246	0.000000	0.000009	-0.000001	0.000000	0.000000
44.462297	18.463559	14.186248	0.095819	-0.117670	2.797084	0.000000	-0.012246	0.000000	0.000008	-0.000001	0.000000	0.000000
44.942297	18.384166	14.315676	0.069584	-0.151974	2.791206	0.000000	-0.012246	0.000000	0.000008	-0.000001	0.000000	0.000000
45.423547	18.330078	14.478323	-0.047538	-0.114632	2.785330	0.000000	0.001554	0.000000	0.000007	-0.000001	0.000000	0.000000
45.720870	18.363179	14.552675	-0.111772	-0.097417	2.785792	0.000000	0.008832	0.000000	0.000007	-0.000001	0.000000	0.000000
46.269930	18.176721	14.941091	0.449356	-0.614178	2.768070	0.000000	-0.073293	0.000000	0.000007	-0.000001	0.000000	0.000000
46.818990	17.387939	15.917521	0.978744	-1.174686	2.705547	0.000000	-0.154119	0.000000	0.000006	-0.000001	0.000000	0.000000
47.368050	16.052548	17.551515	1.438998	-1.818864	2.599333	0.000000	-0.232211	0.000000	0.000005	-0.000001	0.000000	0.000000
47.917110	14.264874	19.959457	1.797608	-2.592596	2.451310	0.000000	-0.306184	0.000000	0.000004	-0.000002	0.000000	0.000000
48.363070	12.873746	22.100298	1.332845	-2.187745	2.330057	0.000000	-0.237885	0.000000	0.000004	-0.000002	0.000000	0.000000
48.804030	11.878486	23.814383	0.932746	-1.684628	2.239619	0.000000	-0.172693	0.000000	0.000003	-0.000001	0.000000	0.000000
49.244990	11.216029	25.049135	0.575261	-1.104862	2.177468	0.000000	-0.109468	0.000000	0.000002	-0.000001	0.000000	0.000000
49.685950	10.856107	25.748376	0.244058	-0.474826	2.142895	0.000000	-0.047490	0.000000	0.000002	-0.000001	0.000000	0.000000
50.128160	10.782402	25.880005	-0.049670	0.113301	2.135519	0.000000	0.008711	0.000000	0.000001	-0.000001	0.000000	0.000000
50.425482	10.820157	25.816091	-0.077313	0.101665	2.138109	0.000000	0.008711	0.000000	0.000001	-0.000001	0.000000	0.000000
50.758816	10.882029	25.752663	-0.108304	0.088619	2.141013	0.000000	0.008711	0.000000	0.000000	-0.000001	0.000000	0.000000
51.092149	10.964562	25.697932	-0.139294	0.075574	2.143917	0.000000	0.008711	0.000000	-0.000000	-0.000001	0.000000	0.000000
51.426732	11.067956	25.652262	-0.080611	-0.145624	2.146810	0.000000	-0.008705	0.000000	-0.000000	-0.000001	0.000000	0.000000
51.724055	11.123930	25.742375	-0.080370	-0.220589	2.144222	0.000000	-0.013964	0.000000	-0.000001	-0.000001	0.000000	0.000000
52.165015	11.340063	25.650515	-0.411632	0.428114	2.151653	0.000000	0.047699	0.000000	-0.000001	-0.000001	0.000000	0.000000
52.605975	11.855500	24.992988	-0.761700	1.057339	2.186369	0.000000	0.109905	0.000000	-0.000002	-0.000001	0.000000	0.000000
53.046935	12.693789	23.799710	-1.146568	1.638455	2.248765	0.000000	0.173363	0.000000	-0.000003	-0.000001	0.000000	0.000000
53.487895	13.893230	22.124974	-1.583820	2.145023	2.339552	0.000000	0.238795	0.000000	-0.000003	-0.000001	0.000000	0.000000
53.933855	15.529184	20.019942	-2.097659	2.555332	2.461268	0.000000	0.307346	0.000000	-0.000004	-0.000002	0.000000	0.000000
54.482915	17.635449	17.651221	-1.715762	1.784272	2.609840	0.000000	0.233041	0.000000	-0.000005	-0.000001	0.000000	0.000000
55.031975	19.252910	16.054876	-1.212673	1.140303	2.716417	0.000000	0.154603	0.000000	-0.000005	-0.000001	0.000000	0.000000
55.581035	20.267319	15.117204	-0.623927	0.577555	2.779110	0.000000	0.073422	0.000000	-0.000006	-0.000001	0.000000	0.000000
56.130095	20.607021	14.771416	0.008890	0.055945	2.796806	0.000000	-0.009060	0.000000	-0.000007	-0.000001	0.000000	0.000000
56.428668	20.638200	14.721050	-0.059473	0.074148	2.796283	0.000000	-0.001752	0.000000	-0.000007	-0.000001	0.000000	0.000000
56.762001	20.683252	14.679207	-0.075682	0.051381	2.795699	0.000000	-0.001752	0.000000	-0.000007	-0.000001	0.000000	0.000000
57.095334	20.739109	14.652542	-0.091890	0.028613	2.795115	0.000000	-0.001752	0.000000	-0.000008	-0.000001	0.000000	0.000000
57.429918	20.806042	14.641042	-0.108159	0.005760	2.794529	0.000000	-0.001752	0.000000	-0.000008	-0.000001	0.000000	0.000000
57.727240	20.874657	14.643655	-0.177162	0.023715	2.794009	0.000000	0.005548	0.000000	-0.000008	-0.000001	0.000000	0.000000
58.276300	20.713091	14.898783	0.469679	-0.491122	2.774416	0.000000	-0.076813	0.000000	-0.000009	-0.000001	0.000000	0.000000
58.825360	19.855310	15.735041	1.083344	-1.040940	2.709910	0.000000	-0.157812	0.000000	-0.000009	-0.000000	0.000000	0.000000
59.374420	18.361905	17.211993	1.620487	-1.664903	2.601634	0.000000	-0.236012	0.000000	-0.000009	-0.000000	0.000000	0.000000
59.923480	16.338360	19.434839	2.043167	-2.407452	2.451509	0.000000	-0.310025	0.000000	-0.000009	0.000000	0.000000	0.000000
60.369440	14.754566	21.410508	1.520836	-2.003995	2.328540	0.000000	-0.241744	0.000000	-0.000009	-0.000000	0.000000	0.000000
60.810400	13.615468	22.966282	1.072189	-1.510733	2.236389	0.000000	-0.176613	0.000000	-0.000009	-0.000000	0.000000	0.000000
61.251360	12.849025	24.054951	0.672527	-0.948734	2.172487	0.000000	-0.113494	0.000000	-0.000009	-0.000000	0.000000	0.000000
61.692320	12.420223	24.626981	0.303592	-0.343568	2.136107	0.000000	-0.051667	0.000000	-0.000009	-0.000001	0.000000	0.000000
62.134530	12.309522	24.655803	-0.021386	0.216707	2.126840	0.000000	0.004355	0.000000	-0.000010	-0.000001	0.000000	0.000000
62.431853	12.329424	24.530693	-0.045551	0.204082	2.128135	0.000000	0.004355	0.000000	-0.000010	-0.000001	0.000000	0.000000
62.765186	12.368822	24.399356	-0.072643	0.189928	2.129587	0.000000	0.004355	0.000000	-0.000010	-0.000001	0.000000	0.000000
63.098520	12.426281	24.277456	-0.099734	0.175773	2.131039	0.000000	0.004355	0.000000	-0.000011	-0.000001	0.000000	0.000000
63.433103	12.502118	24.164588	-0.126928	0.161566	2.132496	0.000000	0.004355	0.000000	-0.000011	-0.000001	0.000000	0.000000
63.730426	12.584780	24.072267	-0.120228	0.089902	2.133791	0.000000	-0.000879	0.000000	-0.000011	-0.000001	0.000000	0.000000
64.171386	12.851091	23.727878	-0.485999	0.688125	2.146944	0.000000	0.060589	0.000000	-0.000012	-0.000001	0.000000	0.000000
64.612346	13.448517	22.867747	-0.873973	1.255039	2.187328	0.000000	0.122747	0.000000	-0.000012	-0.000002	0.000000	0.000000
65.053306	14.404353	21.531011	-1.301877	1.764849	2.255403	0.000000	0.186302	0.000000	-0.000013	-0.000002	0.000000	0.000000
65.494266	15.762269	19.778489	-1.789260	2.194361	2.351945	0.000000	0.251980	0.000000	-0.000014	-0.000002	0.000000	0.000000
65.940226	17.607466	17.665123	-2.363081	2.524783	2.479624	0.000000	0.320929	0.000000	-0.000015	-0.000003	0.000000	0.000000
66.489286	19.972904	15.300953	-1.919579	1.806484	2.635469	0.000000	0.245912	0.000000	-0.000016	-0.000002	0.000000	0.000000
67.038346	21.773535	13.650699	-1.340488	1.216858	2.748866	0.000000	0.166533	0.000000	-0.000017	-0.000002	0.000000	0.000000
67.587406	22.882170	12.596815	-0.666712	0.713905	2.817801	0.000000	0.084200	0.000000	-0.000018	-0.000001	0.000000	0.000000
68.136466	23.220501	12.064238	0.054158	0.261802	2.841054	0.000000	0.000374	0.000000	-0.000018	-0.000000	0.000000	0.000000
68.435038	23.228236	11.897103	-0.019381	0.266450	2.843382	0.000000	0.007798	0.000000	-0.000018	-0.000000	0.000000	0.000000
68.768372	23.245942	11.729473	-0.033737	0.236443	2.845982	0.000000	0.007798	0.000000	-0.000018	-0.000000	0.000000	0.000000
69.101705	23.273218	11.581846	-0.048093	0.206436	2.848581	0.000000	0.007798	0.000000	-0.000019	-0.000000	0.000000	0.000000
69.436288	23.310222	11.453784	-0.062502	0.176316	2.851190	0.000000	0.007798	0.000000	-0.000019	-0.000000	0.000000	0.000000
69.733611	23.351196	11.356897	-0.136329	0.179229	2.853509	0.000000	0.015255	0.000000	-0.000019	-0.000000	0.000000	0.000000
70.282671	23.099853	11.387543	0.591388	-0.235375	2.838702	0.000000	-0.069112	0.000000	-0.000019	0.000000	0.000000	0.000000
