#ParticleID	Turn	x[m]	xp	y[m]	yp	z[m]	dE[GeV]# s	beta_x	beta_y	alpha_x	alpha_y	D_x	D_y	D_px	D_py	orbit_x	orbit_px	orbit_y	orbit_py
0.300000	11.825286	24.972083	-0.012464	-0.027652	2.618165	0.000000	-0.000008	0.000000	-0.000000	0.000001	0.000000	0.000000
0.601250	11.840471	24.992380	-0.037943	-0.039725	2.618163	0.000000	-0.000008	0.000000	-0.000000	0.000001	0.000000	0.000000
0.898573	11.870511	25.019545	-0.033980	-0.112995	2.618160	0.000000	-0.006429	0.000000	-0.000000	0.000001	0.000000	0.000000
1.339533	12.052750	24.841689	-0.380867	0.514798	2.631619	0.000000	0.067530	0.000000	0.000000	0.000001	0.000000	0.000000
1.780493	12.547404	24.118423	-0.745154	1.119169	2.677828	0.000000	0.142257	0.000000	0.000000	0.000001	0.000000	0.000000
2.221453	13.377071	22.882654	-1.143486	1.672618	2.757315	0.000000	0.218605	0.000000	0.000001	0.000001	0.000000	0.000000
2.662413	14.579657	21.190610	-1.594060	2.149964	2.870985	0.000000	0.297442	0.000000	0.000001	0.000001	0.000000	0.000000
3.108373	16.230889	19.094459	-2.121758	2.530620	3.021993	0.000000	0.380157	0.000000	0.000001	0.000001	0.000000	0.000000
3.657433	18.348287	16.740247	-1.711818	1.782402	3.205451	0.000000	0.287119	0.000000	0.000001	0.000001	0.000000	0.000000
4.206493	19.946057	15.133550	-1.180964	1.161141	3.336349	0.000000	0.188989	0.000000	0.000002	0.000000	0.000000	0.000000
4.755553	20.911339	14.159925	-0.566692	0.622585	3.412367	0.000000	0.087506	0.000000	0.000002	0.000000	0.000000	0.000000
5.304613	21.175952	13.750023	0.087607	0.128374	3.432155	0.000000	-0.015529	0.000000	0.000002	0.000000	0.000000	0.000000
5.603185	21.160891	13.658571	0.018165	0.141999	3.430196	0.000000	-0.006562	0.000000	0.000002	0.000000	0.000000	0.000000
5.936519	21.154033	13.572204	0.002408	0.117102	3.428009	0.000000	-0.006562	0.000000	0.000002	0.000000	0.000000	0.000000
6.269852	21.157680	13.502435	-0.013350	0.092205	3.425822	0.000000	-0.006562	0.000000	0.000002	0.000000	0.000000	0.000000
6.604435	21.171906	13.449095	-0.029166	0.067215	3.423626	0.000000	-0.006562	0.000000	0.000003	0.000000	0.000000	0.000000
6.901758	21.193428	13.415729	-0.098595	0.080060	3.421675	0.000000	0.002378	0.000000	0.000003	0.000000	0.000000	0.000000
7.450818	20.940447	13.588414	0.556621	-0.396428	3.394780	0.000000	-0.100202	0.000000	0.000003	0.000000	0.000000	0.000000
7.999878	19.985392	14.296683	1.172520	-0.901153	3.311968	0.000000	-0.201005	0.000000	0.000003	0.000000	0.000000	0.000000
8.548938	18.395722	15.590984	1.705597	-1.470065	3.174707	0.000000	-0.298242	0.000000	0.000003	0.000000	0.000000	0.000000
9.097998	16.283726	17.563507	2.118200	-2.143686	2.985433	0.000000	-0.390190	0.000000	0.000003	-0.000000	0.000000	0.000000
9.543958	14.635899	19.321170	1.589947	-1.780957	2.829731	0.000000	-0.308484	0.000000	0.000003	0.000000	0.000000	0.000000
9.984918	13.437253	20.701947	1.138629	-1.338425	2.710947	0.000000	-0.230776	0.000000	0.000003	0.000000	0.000000	0.000000
10.425878	12.612277	21.663999	0.739332	-0.834996	2.625819	0.000000	-0.155697	0.000000	0.000003	0.000000	0.000000	0.000000
10.866838	12.123281	22.163556	0.373812	-0.293576	2.573375	0.000000	-0.082390	0.000000	0.000003	0.000000	0.000000	0.000000
11.309048	11.947786	22.177369	0.054565	0.206758	2.552999	0.000000	-0.016283	0.000000	0.000004	0.000000	0.000000	0.000000
11.606371	11.922760	22.058578	0.029606	0.192778	2.548157	0.000000	-0.016283	0.000000	0.000004	0.000000	0.000000	0.000000
12.086371	11.913680	21.884343	-0.010689	0.170210	2.540341	0.000000	-0.016283	0.000000	0.000004	0.000000	0.000000	0.000000
12.566371	11.943282	21.731775	-0.050983	0.147641	2.532525	0.000000	-0.016283	0.000000	0.000004	0.000000	0.000000	0.000000
13.046371	12.011568	21.600873	-0.091278	0.125072	2.524709	0.000000	-0.016283	0.000000	0.000004	0.000000	0.000000	0.000000
13.526371	12.118535	21.491638	-0.131572	0.102503	2.516893	0.000000	-0.016283	0.000000	0.000004	0.000000	0.000000	0.000000
14.007621	12.264616	21.403868	-0.171971	0.079875	2.509057	0.000000	-0.016283	0.000000	0.000005	0.000000	0.000000	0.000000
14.304943	12.374299	21.360527	-0.166587	0.013516	2.504216	0.000000	-0.022424	0.000000	0.000005	0.000000	0.000000	0.000000
14.745903	12.679879	21.114797	-0.529031	0.541627	2.509959	0.000000	0.048498	0.000000	0.000005	0.000001	0.000000	0.000000
15.186863	13.314515	20.412443	-0.915645	1.045095	2.547067	0.000000	0.119972	0.000000	0.000005	0.000001	0.000000	0.000000
15.627823	14.307203	19.285422	-1.344092	1.501012	2.615964	0.000000	0.192812	0.000000	0.000006	0.000001	0.000000	0.000000
16.068783	15.703295	17.785014	-1.833947	1.888634	2.717433	0.000000	0.267848	0.000000	0.000006	0.000001	0.000000	0.000000
16.514743	17.590229	15.957983	-2.412347	2.191073	2.854326	0.000000	0.346397	0.000000	0.000006	0.000001	0.000000	0.000000
17.063803	20.013553	13.917840	-1.975112	1.546559	3.020788	0.000000	0.259067	0.000000	0.000007	0.000001	0.000000	0.000000
17.612863	21.876825	12.521171	-1.398365	1.012202	3.137968	0.000000	0.167142	0.000000	0.000007	0.000001	0.000000	0.000000
18.161923	23.048431	11.668493	-0.722844	0.549942	3.203785	0.000000	0.072252	0.000000	0.000008	0.000000	0.000000	0.000000
18.710983	23.445617	11.299072	0.003735	0.126854	3.217073	0.000000	-0.023919	0.000000	0.000008	0.000000	0.000000	0.000000
19.009556	23.483779	11.213776	-0.070297	0.129304	3.212441	0.000000	-0.015514	0.000000	0.000008	0.000000	0.000000	0.000000
19.342889	23.535399	11.137648	-0.084561	0.099081	3.207270	0.000000	-0.015514	0.000000	0.000008	0.000000	0.000000	0.000000
19.676223	23.596527	11.081668	-0.098826	0.068859	3.202098	0.000000	-0.015514	0.000000	0.000008	0.000000	0.000000	0.000000
20.010806	23.667742	11.045603	-0.230407	0.093250	3.196928	0.000000	0.000325	0.000000	0.000008	0.000000	0.000000	0.000000
20.308129	23.808685	10.998225	-0.305839	0.094833	3.197024	0.000000	0.008678	0.000000	0.000008	0.000000	0.000000	0.000000
20.857189	23.733900	11.116520	0.441239	-0.311554	3.175570	0.000000	-0.086711	0.000000	0.000008	-0.000000	0.000000	0.000000
21.406249	22.851063	11.690571	1.157150	-0.740132	3.102087	0.000000	-0.180563	0.000000	0.000008	-0.000000	0.000000	0.000000
21.955309	21.222533	12.761266	1.791325	-1.221429	2.977879	0.000000	-0.271211	0.000000	0.000008	-0.000001	0.000000	0.000000
22.504369	18.963341	14.404868	2.298971	-1.789725	2.805149	0.000000	-0.357050	0.000000	0.000007	-0.000001	0.000000	0.000000
22.950329	17.182997	15.880405	1.707282	-1.504993	2.663212	0.000000	-0.279842	0.000000	0.000007	-0.000001	0.000000	0.000000
23.391289	15.906598	17.056793	1.198290	-1.152643	2.556135	0.000000	-0.206275	0.000000	0.000007	-0.000000	0.000000	0.000000
23.832249	15.053342	17.898034	0.744045	-0.747848	2.480950	0.000000	-0.135059	0.000000	0.000007	-0.000000	0.000000	0.000000
24.273209	14.584248	18.365854	0.323794	-0.309026	2.436799	0.000000	-0.065380	0.000000	0.000007	-0.000000	0.000000	0.000000
24.715418	14.477997	18.438719	-0.046249	0.098572	2.423177	0.000000	-0.002388	0.000000	0.000007	0.000000	0.000000	0.000000
25.012741	14.511618	18.384944	-0.066829	0.082291	2.422467	0.000000	-0.002388	0.000000	0.000007	0.000000	0.000000	0.000000
25.346075	14.563862	18.336168	-0.089902	0.064037	2.421671	0.000000	-0.002388	0.000000	0.000007	0.000000	0.000000	0.000000
25.679408	14.631487	18.299561	-0.112975	0.045784	2.420875	0.000000	-0.002388	0.000000	0.000007	0.000000	0.000000	0.000000
26.013991	14.714537	18.275425	-0.016760	-0.120798	2.420052	0.000000	-0.022021	0.000000	0.000007	0.000000	0.000000	0.000000
26.311314	14.730512	18.352165	-0.000850	-0.182306	2.413504	0.000000	-0.027939	0.000000	0.000007	0.000000	0.000000	0.000000
26.752274	14.912767	18.313876	-0.414031	0.268806	2.416294	0.000000	0.040605	0.000000	0.000007	0.000000	0.000000	0.000000
27.193234	15.466347	17.881636	-0.846128	0.707688	2.449383	0.000000	0.109613	0.000000	0.000007	0.000000	0.000000	0.000000
27.634194	16.416543	17.075111	-1.316882	1.114371	2.513147	0.000000	0.179869	0.000000	0.000007	0.000001	0.000000	0.000000
28.075154	17.806767	15.930998	-1.847800	1.470351	2.608312	0.000000	0.252173	0.000000	0.000007	0.000001	0.000000	0.000000
28.521114	19.724692	14.484122	-2.468099	1.760344	2.737567	0.000000	0.327793	0.000000	0.000008	0.000001	0.000000	0.000000
29.070174	22.162385	12.871908	-1.945375	1.193304	2.894880	0.000000	0.244394	0.000000	0.000008	0.000001	0.000000	0.000000
29.619234	23.946750	11.832324	-1.285240	0.711260	3.005144	0.000000	0.156661	0.000000	0.000009	0.000000	0.000000	0.000000
30.168294	24.951748	11.291323	-0.534322	0.279878	3.066402	0.000000	0.066148	0.000000	0.000009	0.000000	0.000000	0.000000
30.717354	25.106391	11.210370	0.254339	-0.131569	3.077567	0.000000	-0.025537	0.000000	0.000009	-0.000000	0.000000	0.000000
31.015927	24.997360	11.279482	0.176429	-0.129193	3.072343	0.000000	-0.017497	0.000000	0.000009	-0.000000	0.000000	0.000000
31.349260	24.884323	11.375625	0.162679	-0.159238	3.066511	0.000000	-0.017497	0.000000	0.000009	-0.000000	0.000000	0.000000
31.682593	24.780454	11.491799	0.148929	-0.189283	3.060679	0.000000	-0.017497	0.000000	0.000009	-0.000000	0.000000	0.000000
32.017177	24.685413	11.628552	0.135128	-0.219442	3.054825	0.000000	-0.017497	0.000000	0.000009	-0.000000	0.000000	0.000000
32.314499	24.608706	11.767010	0.058570	-0.215498	3.049623	0.000000	-0.009529	0.000000	0.000008	-0.000000	0.000000	0.000000
32.863559	24.122809	12.242955	0.821153	-0.656456	3.019509	0.000000	-0.100002	0.000000	0.000008	-0.000000	0.000000	0.000000
33.412619	22.826554	13.225806	1.525733	-1.144171	2.940134	0.000000	-0.188702	0.000000	0.000008	-0.000001	0.000000	0.000000
33.961679	20.811503	14.785567	2.122543	-1.713382	2.812907	0.000000	-0.274054	0.000000	0.000008	-0.000001	0.000000	0.000000
34.510739	18.219988	17.033337	2.569428	-2.404635	2.640084	0.000000	-0.354545	0.000000	0.000007	-0.000001	0.000000	0.000000
34.956699	16.205069	19.043837	1.964921	-2.084792	2.498313	0.000000	-0.281617	0.000000	0.000007	-0.000001	0.000000	0.000000
35.397659	14.702635	20.706248	1.455193	-1.670842	2.389512	0.000000	-0.212324	0.000000	0.000006	-0.000001	0.000000	0.000000
35.838619	13.618836	21.968542	1.011948	-1.180869	2.310706	0.000000	-0.145450	0.000000	0.000006	-0.000001	0.000000	0.000000
36.279579	12.904157	22.773286	0.614936	-0.637168	2.260995	0.000000	-0.080231	0.000000	0.000006	-0.000001	0.000000	0.000000
36.721789	12.525253	23.084167	0.276627	-0.121136	2.239788	0.000000	-0.021420	0.000000	0.000005	-0.000000	0.000000	0.000000
37.019112	12.368356	23.160086	0.251073	-0.134205	2.233419	0.000000	-0.021420	0.000000	0.000005	-0.000000	0.000000	0.000000
37.352445	12.210524	23.254439	0.222423	-0.148857	2.226279	0.000000	-0.021420	0.000000	0.000005	-0.000000	0.000000	0.000000
37.685779	12.071792	23.358561	0.193774	-0.163508	2.219140	0.000000	-0.021420	0.000000	0.000005	-0.000000	0.000000	0.000000
38.020362	11.951747	23.472896	0.165017	-0.178215	2.211973	0.000000	-0.021420	0.000000	0.000005	-0.000000	0.000000	0.000000
38.317684	11.861218	23.582757	0.168548	-0.249114	2.205605	0.000000	-0.026828	0.000000	0.000005	-0.000000	0.000000	0.000000
38.758644	11.863842	23.541260	-0.174521	0.342861	2.207702	0.000000	0.036348	0.000000	0.000005	-0.000000	0.000000	0.000000
39.199604	12.171384	22.982600	-0.525563	0.919236	2.237722	0.000000	0.099939	0.000000	0.000005	-0.000000	0.000000	0.000000
39.640564	12.797895	21.932195	-0.900617	1.453786	2.296007	0.000000	0.164667	0.000000	0.000005	-0.000000	0.000000	0.000000
40.081524	13.771999	20.437838	-1.316817	1.922190	2.383220	0.000000	0.231271	0.000000	0.000005	0.000000	0.000000	0.000000
40.527484	15.155768	18.544953	-1.797004	2.304416	2.501827	0.000000	0.300914	0.000000	0.000005	0.000000	0.000000	0.000000
41.076544	16.921785	16.417896	-1.400393	1.592449	2.646518	0.000000	0.225359	0.000000	0.000005	0.000000	0.000000	0.000000
41.625604	18.195048	15.006163	-0.904866	0.993910	2.748564	0.000000	0.145805	0.000000	0.000005	-0.000000	0.000000	0.000000
42.174664	18.885620	14.209198	-0.345423	0.466165	2.806155	0.000000	0.063666	0.000000	0.000005	-0.000000	0.000000	0.000000
42.723724	18.944722	13.970237	0.238418	-0.028377	2.818270	0.000000	-0.019603	0.000000	0.000004	-0.000000	0.000000	0.000000
43.022297	18.836782	13.971768	0.172599	-0.013250	2.814616	0.000000	-0.012239	0.000000	0.000004	-0.000000	0.000000	0.000000
43.502297	18.683683	14.000981	0.146357	-0.047611	2.808741	0.000000	-0.012239	0.000000	0.000004	-0.000000	0.000000	0.000000
43.982297	18.555776	14.063181	0.120116	-0.081972	2.802866	0.000000	-0.012239	0.000000	0.000004	-0.000000	0.000000	0.000000
44.462297	18.453060	14.158367	0.093875	-0.116333	2.796992	0.000000	-0.012239	0.000000	0.000004	-0.000000	0.000000	0.000000
44.942297	18.375536	14.286540	0.067634	-0.150694	2.791117	0.000000	-0.012239	0.000000	0.000004	-0.000000	0.000000	0.000000
45.423547	18.323326	14.447984	-0.049460	-0.113560	2.785244	0.000000	0.001560	0.000000	0.000003	-0.000000	0.000000	0.000000
45.720870	18.357574	14.521709	-0.113689	-0.096463	2.785708	0.000000	0.008839	0.000000	0.000003	-0.000000	0.000000	0.000000
46.269930	18.173308	14.908555	0.447305	-0.612255	2.767990	0.000000	-0.073284	0.000000	0.000003	-0.000000	0.000000	0.000000
46.818990	17.386785	15.882282	0.976704	-1.171657	2.705473	0.000000	-0.154107	0.000000	0.000003	-0.000001	0.000000	0.000000
47.368050	16.053561	17.512248	1.437114	-1.814513	2.599265	0.000000	-0.232197	0.000000	0.000003	-0.000001	0.000000	0.000000
47.917110	14.267810	19.914550	1.796013	-2.586613	2.451250	0.000000	-0.306167	0.000000	0.000002	-0.000001	0.000000	0.000000
48.363070	12.878057	22.050479	1.331344	-2.182760	2.330004	0.000000	-0.237870	0.000000	0.000002	-0.000001	0.000000	0.000000
48.804030	11.884106	23.760690	0.931268	-1.680863	2.239572	0.000000	-0.172680	0.000000	0.000002	-0.000001	0.000000	0.000000
49.244990	11.222966	24.992725	0.573739	-1.102489	2.177426	0.000000	-0.109456	0.000000	0.000001	-0.000001	0.000000	0.000000
49.685950	10.864431	25.690528	0.242423	-0.473952	2.142858	0.000000	-0.047479	0.000000	0.000001	-0.000001	0.000000	0.000000
50.128160	10.792249	25.822066	-0.051468	0.112777	2.135486	0.000000	0.008721	0.000000	0.000001	-0.000001	0.000000	0.000000
50.425482	10.831067	25.758470	-0.079091	0.101117	2.138079	0.000000	0.008721	0.000000	0.000001	-0.000001	0.000000	0.000000
50.758816	10.894118	25.695417	-0.110059	0.088044	2.140986	0.000000	0.008721	0.000000	0.000000	-0.000001	0.000000	0.000000
51.092149	10.977813	25.641079	-0.141027	0.074971	2.143894	0.000000	0.008721	0.000000	0.000000	-0.000001	0.000000	0.000000
51.426732	11.082359	25.595820	-0.082204	-0.145797	2.146790	0.000000	-0.008695	0.000000	0.000000	-0.000001	0.000000	0.000000
51.724055	11.139272	25.686045	-0.081897	-0.220650	2.144205	0.000000	-0.013953	0.000000	-0.000000	-0.000001	0.000000	0.000000
52.165015	11.356918	25.594897	-0.413548	0.426567	2.151641	0.000000	0.047709	0.000000	-0.000000	-0.000001	0.000000	0.000000
52.605975	11.874247	24.939366	-0.764092	1.054376	2.186361	0.000000	0.109915	0.000000	-0.000001	-0.000001	0.000000	0.000000
53.046935	12.714895	23.749277	-1.149545	1.634212	2.248761	0.000000	0.173372	0.000000	-0.000001	-0.000001	0.000000	0.000000
53.487895	13.917269	22.078779	-1.587518	2.139693	2.339551	0.000000	0.238805	0.000000	-0.000001	-0.000001	0.000000	0.000000
53.933855	15.556909	19.978900	-2.102255	2.549154	2.461271	0.000000	0.307355	0.000000	-0.000001	-0.000001	0.000000	0.000000
54.482915	17.667858	17.616068	-1.719647	1.779661	2.609848	0.000000	0.233051	0.000000	-0.000002	-0.000001	0.000000	0.000000
55.031975	19.289065	16.024081	-1.215571	1.136930	2.716430	0.000000	0.154612	0.000000	-0.000002	-0.000001	0.000000	0.000000
55.581035	20.306017	15.089547	-0.625634	0.575180	2.779128	0.000000	0.073431	0.000000	-0.000002	-0.000000	0.000000	0.000000
56.130095	20.646881	14.745900	0.008495	0.054398	2.796828	0.000000	-0.009052	0.000000	-0.000002	-0.000000	0.000000	0.000000
56.428668	20.678350	14.696506	-0.059944	0.072504	2.796307	0.000000	-0.001744	0.000000	-0.000002	-0.000000	0.000000	0.000000
56.762001	20.723705	14.655770	-0.076121	0.049704	2.795726	0.000000	-0.001744	0.000000	-0.000003	-0.000000	0.000000	0.000000
57.095334	20.779845	14.630234	-0.092299	0.026904	2.795144	0.000000	-0.001744	0.000000	-0.000003	-0.000000	0.000000	0.000000
57.429918	20.847041	14.619888	-0.108538	0.004018	2.794561	0.000000	-0.001744	0.000000	-0.000003	-0.000000	0.000000	0.000000
57.727240	20.915873	14.623546	-0.177618	0.021890	2.794042	0.000000	0.005556	0.000000	-0.000003	-0.000000	0.000000	0.000000
58.276300	20.754048	14.880371	0.470605	-0.492405	2.774453	0.000000	-0.076806	0.000000	-0.000003	-0.000000	0.000000	0.000000
58.825360	19.894517	15.717783	1.085587	-1.041773	2.709950	0.000000	-0.157807	0.000000	-0.000003	-0.000000	0.000000	0.000000
59.374420	18.397994	17.195431	1.623889	-1.665344	2.601677	0.000000	-0.236008	0.000000	-0.000003	-0.000000	0.000000	0.000000
59.923480	16.370184	19.418562	2.047487	-2.407534	2.451554	0.000000	-0.310023	0.000000	-0.000003	0.000000	0.000000	0.000000
60.369440	14.782969	21.394553	1.524215	-2.004634	2.328587	0.000000	-0.241740	0.000000	-0.000003	-0.000000	0.000000	0.000000
60.810400	13.641243	22.951125	1.074789	-1.511896	2.236437	0.000000	-0.176608	0.000000	-0.000003	-0.000000	0.000000	0.000000
61.251360	12.872806	24.041032	0.674468	-0.950368	2.172537	0.000000	-0.113488	0.000000	-0.000004	-0.000000	0.000000	0.000000
61.692320	12.442549	24.614685	0.304961	-0.345599	2.136160	0.000000	-0.051660	0.000000	-0.000004	-0.000000	0.000000	0.000000
62.134530	12.330868	24.645446	-0.020475	0.214400	2.126897	0.000000	0.004364	0.000000	-0.000004	-0.000000	0.000000	0.000000
62.431853	12.350215	24.521705	-0.044597	0.201782	2.128195	0.000000	0.004364	0.000000	-0.000004	-0.000000	0.000000	0.000000
62.765186	12.388961	24.391900	-0.071641	0.187635	2.129649	0.000000	0.004364	0.000000	-0.000004	-0.000000	0.000000	0.000000
63.098520	12.445737	24.271526	-0.098685	0.173488	2.131104	0.000000	0.004364	0.000000	-0.000004	-0.000000	0.000000	0.000000
63.433103	12.520856	24.160184	-0.125830	0.159288	2.132564	0.000000	0.004364	0.000000	-0.000004	-0.000000	0.000000	0.000000
63.730426	12.602852	24.069216	-0.119045	0.087642	2.133862	0.000000	-0.000869	0.000000	-0.000004	-0.000000	0.000000	0.000000
64.171386	12.868292	23.726837	-0.485198	0.685843	2.147019	0.000000	0.060600	0.000000	-0.000005	-0.000001	0.000000	0.000000
64.612346	13.465166	22.868691	-0.873517	1.252839	2.187408	0.000000	0.122760	0.000000	-0.000005	-0.000001	0.000000	0.000000
65.053306	14.420745	21.533821	-1.301746	1.762831	2.255489	0.000000	0.186317	0.000000	-0.000005	-0.000001	0.000000	0.000000
65.494266	15.778685	19.782964	-1.789447	2.192617	2.352037	0.000000	0.251997	0.000000	-0.000006	-0.000001	0.000000	0.000000
65.940226	17.624194	17.671001	-2.363596	2.523396	2.479724	0.000000	0.320949	0.000000	-0.000006	-0.000001	0.000000	0.000000
66.489286	19.989832	15.308314	-1.919423	1.805153	2.635579	0.000000	0.245929	0.000000	-0.000007	-0.000001	0.000000	0.000000
67.038346	21.789926	13.659534	-1.339673	1.215488	2.748983	0.000000	0.166546	0.000000	-0.000007	-0.000001	0.000000	0.000000
67.587406	22.897328	12.607220	-0.665294	0.712398	2.817924	0.000000	0.084209	0.000000	-0.000007	-0.000000	0.000000	0.000000
68.136466	23.233816	12.076420	0.056078	0.260052	2.841181	0.000000	0.000379	0.000000	-0.000007	-0.000000	0.000000	0.000000
68.435038	23.240419	11.910297	-0.017483	0.264781	2.843510	0.000000	0.007803	0.000000	-0.000007	-0.000000	0.000000	0.000000
68.768372	23.256857	11.743760	-0.031830	0.234832	2.846111	0.000000	0.007803	0.000000	-0.000008	-0.000000	0.000000	0.000000
69.101705	23.282859	11.597188	-0.046177	0.204883	2.848712	0.000000	0.007803	0.000000	-0.000008	-0.000000	0.000000	0.000000
69.436288	23.318578	11.470145	-0.060578	0.174822	2.851323	0.000000	0.007803	0.000000	-0.000008	-0.000000	0.000000	0.000000
69.733611	23.358405	11.374131	-0.134411	0.177828	2.853643	0.000000	0.015259	0.000000	-0.000008	-0.000000	0.000000	0.000000
70.282671	23.104842	11.406586	0.593489	-0.237287	2.838837	0.000000	-0.069112	0.000000	-0.000008	0.000000	0.000000	0.000000
