#ParticleID	Turn	x[m]	xp	y[m]	yp	z[m]	dE[GeV]# s	beta_x	beta_y	alpha_x	alpha_y	D_x	D_y	D_px	D_py	orbit_x	orbit_px	orbit_y	orbit_py
0.300000	11.830272	24.953618	-0.013140	-0.027745	2.618255	0.000000	-0.000043	0.000000	-0.000000	0.000000	0.000000	0.000000
0.601250	11.845861	24.973973	-0.038609	-0.039826	2.618242	0.000000	-0.000043	0.000000	-0.000000	0.000000	0.000000	0.000000
0.898573	11.876293	25.001201	-0.034621	-0.113061	2.618229	0.000000	-0.006463	0.000000	0.000000	0.000000	0.000000	0.000000
1.339533	12.059161	24.823617	-0.381657	0.514250	2.631673	0.000000	0.067497	0.000000	0.000000	0.000000	0.000000	0.000000
1.780493	12.554590	24.101039	-0.746129	1.118162	2.677868	0.000000	0.142225	0.000000	0.000000	0.000000	0.000000	0.000000
2.221453	13.385214	22.866344	-1.144689	1.671199	2.757341	0.000000	0.218574	0.000000	0.000000	0.000000	0.000000	0.000000
2.662413	14.588982	21.175710	-1.595547	2.148197	2.870998	0.000000	0.297412	0.000000	0.000001	0.000000	0.000000	0.000000
3.108373	16.241694	19.081262	-2.123601	2.528585	3.021992	0.000000	0.380127	0.000000	0.000001	0.000000	0.000000	0.000000
3.657433	18.360977	16.728994	-1.713389	1.780876	3.205433	0.000000	0.287089	0.000000	0.000001	0.000000	0.000000	0.000000
4.206493	19.960270	15.123745	-1.182152	1.160014	3.336315	0.000000	0.188959	0.000000	0.000001	0.000000	0.000000	0.000000
4.755553	20.926608	14.151174	-0.567414	0.621778	3.412317	0.000000	0.087478	0.000000	0.000001	0.000000	0.000000	0.000000
5.304613	21.191732	13.742010	0.087403	0.127830	3.432091	0.000000	-0.015555	0.000000	0.000001	0.000000	0.000000	0.000000
5.603185	21.176814	13.650897	0.017930	0.141426	3.430124	0.000000	-0.006588	0.000000	0.000001	0.000000	0.000000	0.000000
5.936519	21.170110	13.564916	0.002184	0.116519	3.427928	0.000000	-0.006588	0.000000	0.000001	0.000000	0.000000	0.000000
6.269852	21.173902	13.495539	-0.013561	0.091612	3.425732	0.000000	-0.006588	0.000000	0.000002	0.000000	0.000000	0.000000
6.604435	21.188264	13.442600	-0.029366	0.066612	3.423528	0.000000	-0.006588	0.000000	0.000002	0.000000	0.000000	0.000000
6.901758	21.209902	13.409595	-0.098827	0.079432	3.421569	0.000000	0.002352	0.000000	0.000002	0.000000	0.000000	0.000000
7.450818	20.956871	13.582877	0.556942	-0.396893	3.394660	0.000000	-0.100225	0.000000	0.000002	0.000000	0.000000	0.000000
7.999878	20.001167	14.291584	1.173372	-0.901489	3.311837	0.000000	-0.201023	0.000000	0.000002	0.000000	0.000000	0.000000
8.548938	18.410296	15.586193	1.706921	-1.470295	3.174567	0.000000	-0.298257	0.000000	0.000002	0.000000	0.000000	0.000000
9.097998	16.296629	17.558919	2.119901	-2.143827	2.985287	0.000000	-0.390200	0.000000	0.000002	-0.000000	0.000000	0.000000
9.543958	14.647458	19.316782	1.591271	-1.781265	2.829579	0.000000	-0.308498	0.000000	0.000002	0.000000	0.000000	0.000000
9.984918	13.447787	20.697899	1.139639	-1.338885	2.710789	0.000000	-0.230794	0.000000	0.000002	0.000000	0.000000	0.000000
10.425878	12.622041	21.660417	0.740075	-0.835588	2.625652	0.000000	-0.155719	0.000000	0.000002	0.000000	0.000000	0.000000
10.866838	12.132494	22.160543	0.374322	-0.294271	2.573198	0.000000	-0.082417	0.000000	0.000002	0.000000	0.000000	0.000000
11.309048	11.956643	22.175006	0.054887	0.205995	2.552809	0.000000	-0.016314	0.000000	0.000002	0.000000	0.000000	0.000000
11.606371	11.931420	22.056667	0.029945	0.192018	2.547958	0.000000	-0.016314	0.000000	0.000002	0.000000	0.000000	0.000000
12.086371	11.922001	21.883161	-0.010321	0.169454	2.540128	0.000000	-0.016314	0.000000	0.000002	0.000000	0.000000	0.000000
12.566371	11.951237	21.731316	-0.050587	0.146889	2.532297	0.000000	-0.016314	0.000000	0.000002	0.000000	0.000000	0.000000
13.046371	12.019128	21.601133	-0.090853	0.124325	2.524466	0.000000	-0.016314	0.000000	0.000002	0.000000	0.000000	0.000000
13.526371	12.125674	21.492613	-0.131119	0.101760	2.516636	0.000000	-0.016314	0.000000	0.000003	0.000000	0.000000	0.000000
14.007621	12.271305	21.405556	-0.171490	0.079137	2.508785	0.000000	-0.016314	0.000000	0.000003	0.000000	0.000000	0.000000
14.304943	12.380696	21.362653	-0.166071	0.012774	2.503934	0.000000	-0.022454	0.000000	0.000003	0.000000	0.000000	0.000000
14.745903	12.685880	21.117546	-0.528645	0.540959	2.509663	0.000000	0.048460	0.000000	0.000003	0.000000	0.000000	0.000000
15.186863	13.320227	20.415738	-0.915370	1.044532	2.546753	0.000000	0.119926	0.000000	0.000003	0.000000	0.000000	0.000000
15.627823	14.312717	19.289159	-1.343917	1.500579	2.615628	0.000000	0.192758	0.000000	0.000003	0.000000	0.000000	0.000000
16.068783	15.708695	17.789068	-1.833863	1.888351	2.717072	0.000000	0.267785	0.000000	0.000003	0.000001	0.000000	0.000000
16.514743	17.595593	15.962217	-2.412351	2.190953	2.853934	0.000000	0.346325	0.000000	0.000004	0.000001	0.000000	0.000000
17.063803	20.018790	13.922244	-1.974880	1.546368	3.020361	0.000000	0.259008	0.000000	0.000004	0.000000	0.000000	0.000000
17.612863	21.881685	12.525829	-1.397914	1.011928	3.137512	0.000000	0.167097	0.000000	0.000004	0.000000	0.000000	0.000000
18.161923	23.052690	11.673508	-0.722206	0.549564	3.203309	0.000000	0.072222	0.000000	0.000004	0.000000	0.000000	0.000000
18.710983	23.449092	11.304571	0.004514	0.126345	3.216585	0.000000	-0.023933	0.000000	0.000004	0.000000	0.000000	0.000000
19.009556	23.486795	11.219565	-0.069525	0.128827	3.211949	0.000000	-0.015529	0.000000	0.000004	0.000000	0.000000	0.000000
19.342889	23.537899	11.143747	-0.083786	0.098624	3.206772	0.000000	-0.015529	0.000000	0.000005	0.000000	0.000000	0.000000
19.676223	23.598510	11.088066	-0.098047	0.068421	3.201596	0.000000	-0.015529	0.000000	0.000005	0.000000	0.000000	0.000000
20.010806	23.669202	11.052287	-0.229632	0.092865	3.196420	0.000000	0.000308	0.000000	0.000005	0.000000	0.000000	0.000000
20.308129	23.809684	11.005133	-0.305064	0.094484	3.196511	0.000000	0.008659	0.000000	0.000005	0.000000	0.000000	0.000000
20.857189	23.734033	11.123919	0.442030	-0.312105	3.175051	0.000000	-0.086713	0.000000	0.000005	-0.000000	0.000000	0.000000
21.406249	22.850343	11.698702	1.157902	-0.740925	3.101572	0.000000	-0.180548	0.000000	0.000005	-0.000000	0.000000	0.000000
21.955309	21.221033	12.770425	1.791985	-1.222519	2.977376	0.000000	-0.271180	0.000000	0.000004	-0.000000	0.000000	0.000000
22.504369	18.961190	14.415423	2.299491	-1.791191	2.804667	0.000000	-0.357002	0.000000	0.000004	-0.000000	0.000000	0.000000
22.950329	17.180387	15.892165	1.707797	-1.506219	2.662749	0.000000	-0.279807	0.000000	0.000004	-0.000000	0.000000	0.000000
23.391289	15.903527	17.069508	1.198824	-1.153574	2.555685	0.000000	-0.206252	0.000000	0.000004	-0.000000	0.000000	0.000000
23.832249	15.049784	17.911424	0.744622	-0.748441	2.480506	0.000000	-0.135047	0.000000	0.000004	-0.000000	0.000000	0.000000
24.273209	14.580151	18.379608	0.324440	-0.309256	2.436358	0.000000	-0.065380	0.000000	0.000004	-0.000000	0.000000	0.000000
24.715418	14.473287	18.452510	-0.045514	0.098683	2.422734	0.000000	-0.002398	0.000000	0.000004	0.000000	0.000000	0.000000
25.012741	14.506473	18.398666	-0.066100	0.082413	2.422021	0.000000	-0.002398	0.000000	0.000004	0.000000	0.000000	0.000000
25.346075	14.558232	18.349804	-0.089178	0.064173	2.421222	0.000000	-0.002398	0.000000	0.000004	0.000000	0.000000	0.000000
25.679408	14.625377	18.313102	-0.112257	0.045932	2.420422	0.000000	-0.002398	0.000000	0.000004	0.000000	0.000000	0.000000
26.013991	14.707948	18.288863	-0.016102	-0.120744	2.419595	0.000000	-0.022028	0.000000	0.000004	0.000000	0.000000	0.000000
26.311314	14.723535	18.365567	-0.000217	-0.182275	2.413046	0.000000	-0.027945	0.000000	0.000004	-0.000000	0.000000	0.000000
26.752274	14.905153	18.327090	-0.413216	0.269200	2.415831	0.000000	0.040588	0.000000	0.000004	0.000000	0.000000	0.000000
27.193234	15.457920	17.894350	-0.845094	0.708426	2.448909	0.000000	0.109583	0.000000	0.000004	0.000000	0.000000	0.000000
27.634194	16.407091	17.087035	-1.315581	1.115419	2.512657	0.000000	0.179827	0.000000	0.000004	0.000000	0.000000	0.000000
28.075154	17.796030	15.941878	-1.846174	1.471661	2.607802	0.000000	0.252118	0.000000	0.000004	0.000000	0.000000	0.000000
28.521114	19.712330	14.493737	-2.466070	1.761858	2.737029	0.000000	0.327724	0.000000	0.000004	0.000001	0.000000	0.000000
29.070174	22.147954	12.880066	-1.943660	1.194458	2.894310	0.000000	0.244344	0.000000	0.000005	0.000000	0.000000	0.000000
29.619234	23.930664	11.839374	-1.283959	0.712137	3.004551	0.000000	0.156629	0.000000	0.000005	0.000000	0.000000	0.000000
30.168294	24.934537	11.297533	-0.533566	0.280540	3.065797	0.000000	0.066136	0.000000	0.000005	0.000000	0.000000	0.000000
30.717354	25.088665	11.215949	0.254515	-0.131075	3.076961	0.000000	-0.025530	0.000000	0.000005	-0.000000	0.000000	0.000000
31.015927	24.979505	11.284752	0.176640	-0.128667	3.071738	0.000000	-0.017491	0.000000	0.000005	-0.000000	0.000000	0.000000
31.349260	24.866332	11.380539	0.162879	-0.158695	3.065908	0.000000	-0.017491	0.000000	0.000005	-0.000000	0.000000	0.000000
31.682593	24.762333	11.496345	0.149119	-0.188722	3.060078	0.000000	-0.017491	0.000000	0.000005	-0.000000	0.000000	0.000000
32.017177	24.667169	11.632716	0.135307	-0.218862	3.054226	0.000000	-0.017491	0.000000	0.000005	-0.000000	0.000000	0.000000
32.314499	24.590359	11.770825	0.058785	-0.214892	3.049026	0.000000	-0.009524	0.000000	0.000005	-0.000000	0.000000	0.000000
32.863559	24.104562	12.246149	0.820756	-0.655924	3.018920	0.000000	-0.099978	0.000000	0.000005	-0.000000	0.000000	0.000000
33.412619	22.809067	13.228439	1.524753	-1.143675	2.939563	0.000000	-0.188659	0.000000	0.000005	-0.000000	0.000000	0.000000
33.961679	20.795382	14.787660	2.121049	-1.712888	2.812364	0.000000	-0.273993	0.000000	0.000004	-0.000001	0.000000	0.000000
34.510739	18.205744	17.034873	2.567525	-2.404107	2.639579	0.000000	-0.354468	0.000000	0.000004	-0.000001	0.000000	0.000000
34.956699	16.192327	19.044851	1.963442	-2.084155	2.497839	0.000000	-0.281552	0.000000	0.000004	-0.000001	0.000000	0.000000
35.397659	14.691039	20.706663	1.454065	-1.670126	2.389065	0.000000	-0.212271	0.000000	0.000003	-0.000000	0.000000	0.000000
35.838619	13.608098	21.968302	1.011121	-1.180106	2.310279	0.000000	-0.145408	0.000000	0.000003	-0.000000	0.000000	0.000000
36.279579	12.894030	22.772365	0.614372	-0.636393	2.260585	0.000000	-0.080200	0.000000	0.000003	-0.000000	0.000000	0.000000
36.721789	12.515518	23.082569	0.276277	-0.120382	2.239388	0.000000	-0.021398	0.000000	0.000003	-0.000000	0.000000	0.000000
37.019112	12.358834	23.158039	0.250707	-0.133450	2.233026	0.000000	-0.021398	0.000000	0.000003	-0.000000	0.000000	0.000000
37.352445	12.201251	23.251889	0.222041	-0.148100	2.225894	0.000000	-0.021398	0.000000	0.000003	-0.000000	0.000000	0.000000
37.685779	12.062780	23.355506	0.193374	-0.162750	2.218761	0.000000	-0.021398	0.000000	0.000003	-0.000000	0.000000	0.000000
38.020362	11.943007	23.469333	0.164600	-0.177455	2.211602	0.000000	-0.021398	0.000000	0.000003	-0.000000	0.000000	0.000000
38.317684	11.852731	23.578742	0.168096	-0.248344	2.205240	0.000000	-0.026806	0.000000	0.000003	-0.000000	0.000000	0.000000
38.758644	11.855669	23.536615	-0.174784	0.343514	2.207345	0.000000	0.036361	0.000000	0.000003	-0.000000	0.000000	0.000000
39.199604	12.163365	22.977441	-0.525650	0.919742	2.237368	0.000000	0.099942	0.000000	0.000003	-0.000000	0.000000	0.000000
39.640564	12.789878	21.926664	-0.900532	1.454122	2.295653	0.000000	0.164662	0.000000	0.000003	-0.000000	0.000000	0.000000
40.081524	13.763830	20.432091	-1.316556	1.922341	2.382862	0.000000	0.231257	0.000000	0.000003	0.000000	0.000000	0.000000
40.527484	15.147281	18.539157	-1.796553	2.304374	2.501461	0.000000	0.300891	0.000000	0.000003	0.000000	0.000000	0.000000
41.076544	16.912974	16.412072	-1.400257	1.592542	2.646142	0.000000	0.225347	0.000000	0.000003	0.000000	0.000000	0.000000
41.625604	18.186264	15.000161	-0.905053	0.994143	2.748184	0.000000	0.145806	0.000000	0.000003	-0.000000	0.000000	0.000000
42.174664	18.877214	14.202855	-0.345921	0.466556	2.805779	0.000000	0.063679	0.000000	0.000003	-0.000000	0.000000	0.000000
42.723724	18.937017	13.963366	0.237646	-0.027801	2.817904	0.000000	-0.019578	0.000000	0.000002	-0.000000	0.000000	0.000000
43.022297	18.829528	13.964566	0.171843	-0.012702	2.814257	0.000000	-0.012215	0.000000	0.000002	-0.000000	0.000000	0.000000
43.502297	18.677156	13.993262	0.145598	-0.047080	2.808394	0.000000	-0.012215	0.000000	0.000002	-0.000000	0.000000	0.000000
43.982297	18.549979	14.054960	0.119354	-0.081458	2.802530	0.000000	-0.012215	0.000000	0.000002	-0.000000	0.000000	0.000000
44.462297	18.447998	14.149662	0.093109	-0.115837	2.796667	0.000000	-0.012215	0.000000	0.000002	-0.000000	0.000000	0.000000
44.942297	18.371210	14.277366	0.066864	-0.150215	2.790804	0.000000	-0.012215	0.000000	0.000002	-0.000000	0.000000	0.000000
45.423547	18.319744	14.438357	-0.050215	-0.113146	2.784942	0.000000	0.001583	0.000000	0.000002	-0.000000	0.000000	0.000000
45.720870	18.354441	14.511840	-0.114442	-0.096086	2.785413	0.000000	0.008861	0.000000	0.000002	-0.000000	0.000000	0.000000
46.269930	18.171053	14.898103	0.446469	-0.611566	2.767710	0.000000	-0.073253	0.000000	0.000002	-0.000000	0.000000	0.000000
46.818990	17.385467	15.870881	0.975844	-1.170607	2.705211	0.000000	-0.154067	0.000000	0.000001	-0.000000	0.000000	0.000000
47.368050	16.053175	17.499462	1.436289	-1.813027	2.599028	0.000000	-0.232149	0.000000	0.000001	-0.000000	0.000000	0.000000
47.917110	14.268282	19.899847	1.795283	-2.584586	2.451041	0.000000	-0.306112	0.000000	0.000001	-0.000000	0.000000	0.000000
48.363070	12.879152	22.034103	1.330671	-2.181052	2.329818	0.000000	-0.237820	0.000000	0.000001	-0.000000	0.000000	0.000000
48.804030	11.885781	23.742979	0.930622	-1.679553	2.239407	0.000000	-0.172634	0.000000	0.000001	-0.000000	0.000000	0.000000
49.244990	11.225210	24.974056	0.573089	-1.101634	2.177280	0.000000	-0.109414	0.000000	0.000001	-0.000000	0.000000	0.000000
49.685950	10.867261	25.671321	0.241740	-0.473593	2.142730	0.000000	-0.047441	0.000000	0.000000	-0.000000	0.000000	0.000000
50.128160	10.795710	25.802768	-0.052207	0.112672	2.135373	0.000000	0.008756	0.000000	0.000000	-0.000000	0.000000	0.000000
50.425482	10.834965	25.739238	-0.079823	0.101003	2.137977	0.000000	0.008756	0.000000	0.000000	-0.000000	0.000000	0.000000
50.758816	10.898501	25.676263	-0.110784	0.087920	2.140896	0.000000	0.008756	0.000000	0.000000	-0.000000	0.000000	0.000000
51.092149	10.982677	25.622011	-0.141744	0.074838	2.143815	0.000000	0.008756	0.000000	0.000000	-0.000000	0.000000	0.000000
51.426732	11.087701	25.576844	-0.082870	-0.145786	2.146723	0.000000	-0.008659	0.000000	-0.000000	-0.000000	0.000000	0.000000
51.724055	11.145007	25.667065	-0.082539	-0.220601	2.144148	0.000000	-0.013917	0.000000	-0.000000	-0.000000	0.000000	0.000000
52.165015	11.363281	25.576095	-0.414337	0.426115	2.151599	0.000000	0.047744	0.000000	-0.000000	-0.000000	0.000000	0.000000
52.605975	11.881384	24.921177	-0.765064	1.053443	2.186334	0.000000	0.109949	0.000000	-0.000000	-0.000000	0.000000	0.000000
53.046935	12.722987	23.732109	-1.150746	1.632840	2.248749	0.000000	0.173406	0.000000	-0.000001	-0.000000	0.000000	0.000000
53.487895	13.926540	22.062992	-1.589001	2.137944	2.339554	0.000000	0.238838	0.000000	-0.000001	-0.000000	0.000000	0.000000
53.933855	15.567655	19.964812	-2.104091	2.547108	2.461289	0.000000	0.307389	0.000000	-0.000001	-0.000000	0.000000	0.000000
54.482915	17.680484	17.603925	-1.721214	1.778145	2.609883	0.000000	0.233083	0.000000	-0.000001	-0.000000	0.000000	0.000000
55.031975	19.303212	16.013364	-1.216758	1.135835	2.716483	0.000000	0.154643	0.000000	-0.000001	-0.000000	0.000000	0.000000
55.581035	20.321219	15.079837	-0.626356	0.574429	2.779197	0.000000	0.073460	0.000000	-0.000001	-0.000000	0.000000	0.000000
56.130095	20.662596	14.736850	0.008288	0.053937	2.796912	0.000000	-0.009026	0.000000	-0.000001	-0.000000	0.000000	0.000000
56.428668	20.694209	14.687750	-0.060181	0.072009	2.796399	0.000000	-0.001718	0.000000	-0.000002	-0.000000	0.000000	0.000000
56.762001	20.739718	14.647348	-0.076347	0.049197	2.795827	0.000000	-0.001718	0.000000	-0.000002	-0.000000	0.000000	0.000000
57.095334	20.796005	14.622154	-0.092512	0.026385	2.795254	0.000000	-0.001718	0.000000	-0.000002	-0.000000	0.000000	0.000000
57.429918	20.863340	14.612159	-0.108739	0.003487	2.794680	0.000000	-0.001718	0.000000	-0.000002	-0.000000	0.000000	0.000000
57.727240	20.932289	14.616136	-0.177852	0.021329	2.794169	0.000000	0.005583	0.000000	-0.000002	-0.000000	0.000000	0.000000
58.276300	20.770416	14.873463	0.470924	-0.492763	2.774593	0.000000	-0.076784	0.000000	-0.000002	-0.000000	0.000000	0.000000
58.825360	19.910241	15.711169	1.086435	-1.041953	2.710101	0.000000	-0.157789	0.000000	-0.000002	-0.000000	0.000000	0.000000
59.374420	18.412521	17.188923	1.625207	-1.665359	2.601837	0.000000	-0.235995	0.000000	-0.000002	-0.000000	0.000000	0.000000
59.923480	16.383047	19.411982	2.049181	-2.407385	2.451720	0.000000	-0.310015	0.000000	-0.000002	0.000000	0.000000	0.000000
60.369440	14.794493	21.387933	1.525533	-2.004695	2.328756	0.000000	-0.241728	0.000000	-0.000002	-0.000000	0.000000	0.000000
60.810400	13.651747	22.944650	1.075795	-1.512162	2.236613	0.000000	-0.176592	0.000000	-0.000002	-0.000000	0.000000	0.000000
61.251360	12.882543	24.034879	0.675207	-0.950828	2.172722	0.000000	-0.113467	0.000000	-0.000002	-0.000000	0.000000	0.000000
61.692320	12.451739	24.609015	0.305467	-0.346231	2.136355	0.000000	-0.051634	0.000000	-0.000002	-0.000000	0.000000	0.000000
62.134530	12.339703	24.640401	-0.020157	0.213637	2.127104	0.000000	0.004395	0.000000	-0.000002	-0.000000	0.000000	0.000000
62.431853	12.358856	24.517114	-0.044261	0.201020	2.128411	0.000000	0.004395	0.000000	-0.000002	-0.000000	0.000000	0.000000
62.765186	12.397372	24.387815	-0.071286	0.186875	2.129876	0.000000	0.004395	0.000000	-0.000002	-0.000000	0.000000	0.000000
63.098520	12.453904	24.267947	-0.098310	0.172730	2.131340	0.000000	0.004395	0.000000	-0.000002	-0.000000	0.000000	0.000000
63.433103	12.528765	24.157113	-0.125435	0.158531	2.132811	0.000000	0.004395	0.000000	-0.000003	-0.000000	0.000000	0.000000
63.730426	12.610521	24.066595	-0.118614	0.086894	2.134117	0.000000	-0.000839	0.000000	-0.000003	-0.000000	0.000000	0.000000
64.171386	12.875654	23.724900	-0.484931	0.685045	2.147289	0.000000	0.060637	0.000000	-0.000003	-0.000000	0.000000	0.000000
64.612346	13.472361	22.867466	-0.873403	1.252027	2.187696	0.000000	0.122804	0.000000	-0.000003	-0.000000	0.000000	0.000000
65.053306	14.427903	21.533304	-1.301778	1.762043	2.255798	0.000000	0.186369	0.000000	-0.000003	-0.000000	0.000000	0.000000
65.494266	15.785937	19.783119	-1.789627	2.191887	2.352371	0.000000	0.252057	0.000000	-0.000003	-0.000001	0.000000	0.000000
65.940226	17.631676	17.671766	-2.363934	2.522760	2.480087	0.000000	0.321018	0.000000	-0.000003	-0.000001	0.000000	0.000000
66.489286	19.997528	15.309739	-1.919473	1.804581	2.635976	0.000000	0.245985	0.000000	-0.000004	-0.000000	0.000000	0.000000
67.038346	21.797517	13.661571	-1.339431	1.214938	2.749407	0.000000	0.166589	0.000000	-0.000004	-0.000000	0.000000	0.000000
67.587406	22.904500	12.609867	-0.664777	0.711832	2.818369	0.000000	0.084239	0.000000	-0.000004	-0.000000	0.000000	0.000000
68.136466	23.240286	12.079717	0.056832	0.259428	2.841637	0.000000	0.000393	0.000000	-0.000004	-0.000000	0.000000	0.000000
68.435038	23.246446	11.913957	-0.016740	0.264182	2.843971	0.000000	0.007818	0.000000	-0.000004	-0.000000	0.000000	0.000000
68.768372	23.262387	11.747813	-0.031083	0.234250	2.846578	0.000000	0.007818	0.000000	-0.000004	-0.000000	0.000000	0.000000
69.101705	23.287890	11.601623	-0.045426	0.204319	2.849184	0.000000	0.007818	0.000000	-0.000004	-0.000000	0.000000	0.000000
69.436288	23.323104	11.474952	-0.059823	0.174276	2.851800	0.000000	0.007818	0.000000	-0.000004	-0.000000	0.000000	0.000000
69.733611	23.362481	11.379257	-0.133661	0.177312	2.854124	0.000000	0.015276	0.000000	-0.000004	-0.000000	0.000000	0.000000
70.282671	23.108028	11.412360	0.594352	-0.237958	2.839323	0.000000	-0.069111	0.000000	-0.000004	0.000000	0.000000	0.000000
