#ParticleID	Turn	x[m]	xp	y[m]	yp	z[m]	dE[GeV]# s	beta_x	beta_y	alpha_x	alpha_y	D_x	D_y	D_px	D_py	orbit_x	orbit_px	orbit_y	orbit_py
0.300000	11.816254	25.008115	-0.011345	-0.027366	2.618105	0.000000	0.000016	0.000000	-0.000001	0.000001	0.000000	0.000000
0.601250	11.830771	25.028234	-0.036843	-0.039421	2.618109	0.000000	0.000016	0.000000	-0.000001	0.000001	0.000000	0.000000
0.898573	11.860161	25.055213	-0.032923	-0.112762	2.618114	0.000000	-0.006405	0.000000	-0.000001	0.000001	0.000000	0.000000
1.339533	12.041357	24.876736	-0.379547	0.515969	2.631583	0.000000	0.067553	0.000000	-0.000000	0.000001	0.000000	0.000000
1.780493	12.534709	24.152042	-0.743511	1.121224	2.677802	0.000000	0.142279	0.000000	0.000000	0.000001	0.000000	0.000000
2.221453	13.362757	22.914104	-1.141444	1.675464	2.757299	0.000000	0.218627	0.000000	0.000001	0.000001	0.000000	0.000000
2.662413	14.563333	21.219247	-1.591526	2.153471	2.870978	0.000000	0.297464	0.000000	0.000001	0.000001	0.000000	0.000000
3.108373	16.212042	19.119730	-2.118612	2.534630	3.021995	0.000000	0.380178	0.000000	0.000002	0.000001	0.000000	0.000000
3.657433	18.326230	16.761680	-1.709153	1.785425	3.205464	0.000000	0.287140	0.000000	0.000002	0.000001	0.000000	0.000000
4.206493	19.921425	15.152104	-1.178968	1.163392	3.336373	0.000000	0.189009	0.000000	0.000003	0.000001	0.000000	0.000000
4.755553	20.884951	14.176355	-0.565507	0.624224	3.412402	0.000000	0.087525	0.000000	0.000003	0.000001	0.000000	0.000000
5.304613	21.148747	13.764934	0.087899	0.129519	3.432201	0.000000	-0.015511	0.000000	0.000003	0.000001	0.000000	0.000000
5.603185	21.133474	13.672770	0.018510	0.143198	3.430247	0.000000	-0.006543	0.000000	0.000004	0.000001	0.000000	0.000000
5.936519	21.126394	13.585598	0.002732	0.118319	3.428066	0.000000	-0.006543	0.000000	0.000004	0.000001	0.000000	0.000000
6.269852	21.129832	13.515012	-0.013046	0.093440	3.425884	0.000000	-0.006543	0.000000	0.000004	0.000001	0.000000	0.000000
6.604435	21.143860	13.460840	-0.028883	0.068467	3.423695	0.000000	-0.006543	0.000000	0.000004	0.000001	0.000000	0.000000
6.901758	21.165220	13.426725	-0.098256	0.081356	3.421749	0.000000	0.002397	0.000000	0.000004	0.000001	0.000000	0.000000
7.450818	20.912387	13.598153	0.556013	-0.395419	3.394863	0.000000	-0.100186	0.000000	0.000005	0.000001	0.000000	0.000000
7.999878	19.958502	14.305438	1.171009	-0.900360	3.312058	0.000000	-0.200992	0.000000	0.000005	0.000000	0.000000	0.000000
8.548938	18.370942	15.598960	1.703289	-1.469430	3.174804	0.000000	-0.298232	0.000000	0.000005	0.000000	0.000000	0.000000
9.097998	16.261845	17.570852	2.115259	-2.143165	2.985535	0.000000	-0.390183	0.000000	0.000005	0.000000	0.000000	0.000000
9.543958	14.616347	19.327917	1.587650	-1.780143	2.829835	0.000000	-0.308475	0.000000	0.000005	0.000000	0.000000	0.000000
9.984918	13.419484	20.707862	1.136866	-1.337358	2.711057	0.000000	-0.230764	0.000000	0.000005	0.000000	0.000000	0.000000
10.425878	12.595858	21.668879	0.738023	-0.833724	2.625934	0.000000	-0.155682	0.000000	0.000006	0.000000	0.000000	0.000000
10.866838	12.107838	22.167244	0.372897	-0.292156	2.573498	0.000000	-0.082372	0.000000	0.000006	0.000001	0.000000	0.000000
11.309048	11.932993	22.179760	0.053965	0.208255	2.553130	0.000000	-0.016262	0.000000	0.000006	0.000001	0.000000	0.000000
11.606371	11.908333	22.060080	0.028977	0.194269	2.548295	0.000000	-0.016262	0.000000	0.000006	0.000001	0.000000	0.000000
12.086371	11.899879	21.884420	-0.011365	0.171689	2.540488	0.000000	-0.016262	0.000000	0.000007	0.000001	0.000000	0.000000
12.566371	11.930153	21.730437	-0.051707	0.149109	2.532682	0.000000	-0.016262	0.000000	0.000007	0.000001	0.000000	0.000000
13.046371	11.999156	21.598131	-0.092048	0.126529	2.524876	0.000000	-0.016262	0.000000	0.000007	0.000001	0.000000	0.000000
13.526371	12.106886	21.487502	-0.132390	0.103949	2.517070	0.000000	-0.016262	0.000000	0.000008	0.000001	0.000000	0.000000
14.007621	12.253777	21.398346	-0.172837	0.081310	2.509244	0.000000	-0.016262	0.000000	0.000008	0.000001	0.000000	0.000000
14.304943	12.363983	21.354153	-0.167508	0.014961	2.504409	0.000000	-0.022403	0.000000	0.000008	0.000001	0.000000	0.000000
14.745903	12.670283	21.107232	-0.529747	0.542870	2.510162	0.000000	0.048524	0.000000	0.000009	0.000001	0.000000	0.000000
15.186863	13.305472	20.403894	-0.916188	1.046077	2.547283	0.000000	0.120003	0.000000	0.000009	0.000001	0.000000	0.000000
15.627823	14.298573	19.276139	-1.344487	1.501690	2.616194	0.000000	0.192849	0.000000	0.000010	0.000001	0.000000	0.000000
16.068783	15.694955	17.775279	-1.834213	1.888976	2.717681	0.000000	0.267891	0.000000	0.000010	0.000002	0.000000	0.000000
16.514743	17.582073	15.948101	-2.412496	2.191061	2.854594	0.000000	0.346447	0.000000	0.000011	0.000002	0.000000	0.000000
17.063803	20.005769	13.907863	-1.975636	1.546745	3.021081	0.000000	0.259108	0.000000	0.000012	0.000002	0.000000	0.000000
17.612863	21.869806	12.510875	-1.399226	1.012601	3.138280	0.000000	0.167173	0.000000	0.000013	0.000001	0.000000	0.000000
18.161923	23.042517	11.657630	-0.723983	0.550581	3.204111	0.000000	0.072273	0.000000	0.000013	0.000001	0.000000	0.000000
18.710983	23.441069	11.287356	0.002400	0.127778	3.217408	0.000000	-0.023909	0.000000	0.000014	0.000000	0.000000	0.000000
19.009556	23.480022	11.201538	-0.071622	0.130161	3.212779	0.000000	-0.015504	0.000000	0.000014	0.000000	0.000000	0.000000
19.342889	23.532526	11.124852	-0.085891	0.099899	3.207611	0.000000	-0.015504	0.000000	0.000014	0.000000	0.000000	0.000000
19.676223	23.594543	11.068340	-0.100160	0.069637	3.202443	0.000000	-0.015504	0.000000	0.000014	0.000000	0.000000	0.000000
20.010806	23.666652	11.031768	-0.231741	0.093919	3.197276	0.000000	0.000338	0.000000	0.000014	0.000000	0.000000	0.000000
20.308129	23.808392	10.984003	-0.307178	0.095426	3.197376	0.000000	0.008691	0.000000	0.000014	0.000000	0.000000	0.000000
20.857189	23.735075	11.101425	0.439919	-0.310548	3.175925	0.000000	-0.086710	0.000000	0.000014	-0.000000	0.000000	0.000000
21.406249	22.853634	11.674112	1.155942	-0.738641	3.102440	0.000000	-0.180573	0.000000	0.000014	-0.000000	0.000000	0.000000
21.955309	21.226328	12.742856	1.790315	-1.219346	2.978223	0.000000	-0.271233	0.000000	0.000014	-0.000001	0.000000	0.000000
22.504369	18.968103	14.383781	2.298230	-1.786902	2.805478	0.000000	-0.357082	0.000000	0.000013	-0.000001	0.000000	0.000000
22.950329	17.188428	15.857009	1.706516	-1.502660	2.663529	0.000000	-0.279866	0.000000	0.000013	-0.000001	0.000000	0.000000
23.391289	15.912727	17.031593	1.197466	-1.150902	2.556444	0.000000	-0.206292	0.000000	0.000012	-0.000001	0.000000	0.000000
23.832249	15.060238	17.871592	0.743124	-0.746780	2.481253	0.000000	-0.135067	0.000000	0.000012	-0.000000	0.000000	0.000000
24.273209	14.592014	18.338786	0.322734	-0.308680	2.437100	0.000000	-0.065380	0.000000	0.000012	-0.000000	0.000000	0.000000
24.715418	14.486780	18.411671	-0.047477	0.098250	2.423480	0.000000	-0.002381	0.000000	0.000012	0.000000	0.000000	0.000000
25.012741	14.521128	18.358095	-0.068047	0.081946	2.422772	0.000000	-0.002381	0.000000	0.000012	0.000000	0.000000	0.000000
25.346075	14.574180	18.309557	-0.091108	0.063667	2.421978	0.000000	-0.002381	0.000000	0.000012	0.000000	0.000000	0.000000
25.679408	14.642606	18.273206	-0.114170	0.045387	2.421185	0.000000	-0.002381	0.000000	0.000012	0.000000	0.000000	0.000000
26.013991	14.726451	18.249343	-0.017847	-0.121008	2.420363	0.000000	-0.022017	0.000000	0.000012	0.000000	0.000000	0.000000
26.311314	14.743068	18.326214	-0.001893	-0.182475	2.413817	0.000000	-0.027936	0.000000	0.000012	0.000000	0.000000	0.000000
26.752274	14.926382	18.288384	-0.415398	0.267938	2.416611	0.000000	0.040618	0.000000	0.000012	0.000000	0.000000	0.000000
27.193234	15.481333	17.857205	-0.847882	0.706160	2.449706	0.000000	0.109633	0.000000	0.000012	0.000001	0.000000	0.000000
27.634194	16.433276	17.052294	-1.319104	1.112253	2.513481	0.000000	0.179897	0.000000	0.000013	0.000001	0.000000	0.000000
28.075154	17.825702	15.910275	-1.850591	1.467739	2.608661	0.000000	0.252211	0.000000	0.000013	0.000001	0.000000	0.000000
28.521114	19.746420	14.465906	-2.471592	1.757356	2.737934	0.000000	0.327840	0.000000	0.000014	0.000002	0.000000	0.000000
29.070174	22.187663	12.856576	-1.948310	1.191009	2.895270	0.000000	0.244429	0.000000	0.000015	0.000001	0.000000	0.000000
29.619234	23.974846	11.819208	-1.287408	0.709496	3.005549	0.000000	0.156682	0.000000	0.000015	0.000001	0.000000	0.000000
30.168294	24.981732	11.279913	-0.535571	0.278518	3.066815	0.000000	0.066157	0.000000	0.000016	0.000000	0.000000	0.000000
30.717354	25.137199	11.200277	0.254097	-0.132622	3.077981	0.000000	-0.025542	0.000000	0.000016	-0.000000	0.000000	0.000000
31.015927	25.028353	11.270043	0.176127	-0.130304	3.072756	0.000000	-0.017501	0.000000	0.000016	-0.000000	0.000000	0.000000
31.349260	24.915512	11.366939	0.162396	-0.160383	3.066922	0.000000	-0.017501	0.000000	0.000016	-0.000000	0.000000	0.000000
31.682593	24.811825	11.483887	0.148664	-0.190462	3.061089	0.000000	-0.017501	0.000000	0.000015	-0.000000	0.000000	0.000000
32.017177	24.716956	11.621439	0.134881	-0.220654	3.055233	0.000000	-0.017501	0.000000	0.000015	-0.000000	0.000000	0.000000
32.314499	24.640391	11.760627	0.058261	-0.216759	3.050030	0.000000	-0.009533	0.000000	0.000015	-0.000000	0.000000	0.000000
32.863559	24.154253	12.237889	0.821897	-0.657606	3.019910	0.000000	-0.100019	0.000000	0.000015	-0.000001	0.000000	0.000000
33.412619	22.856623	13.221979	1.527478	-1.145292	2.940523	0.000000	-0.188731	0.000000	0.000015	-0.000001	0.000000	0.000000
33.961679	20.839159	14.782992	2.125166	-1.714555	2.813277	0.000000	-0.274096	0.000000	0.000014	-0.000002	0.000000	0.000000
34.510739	18.244365	17.032117	2.572742	-2.405942	2.640428	0.000000	-0.354599	0.000000	0.000013	-0.000002	0.000000	0.000000
34.956699	16.226824	19.043866	1.967505	-2.086277	2.498635	0.000000	-0.281662	0.000000	0.000012	-0.000002	0.000000	0.000000
35.397659	14.722386	20.707638	1.457171	-1.672433	2.389817	0.000000	-0.212361	0.000000	0.000011	-0.000001	0.000000	0.000000
35.838619	13.637076	21.971357	1.013410	-1.182496	2.310996	0.000000	-0.145479	0.000000	0.000011	-0.000001	0.000000	0.000000
36.279579	12.921309	22.777524	0.615949	-0.638755	2.261275	0.000000	-0.080253	0.000000	0.000010	-0.000001	0.000000	0.000000
36.721789	12.541691	23.089765	0.277276	-0.122624	2.240059	0.000000	-0.021435	0.000000	0.000010	-0.000001	0.000000	0.000000
37.019112	12.384400	23.166569	0.251747	-0.135694	2.233686	0.000000	-0.021435	0.000000	0.000010	-0.000001	0.000000	0.000000
37.352445	12.226109	23.261916	0.223125	-0.150348	2.226542	0.000000	-0.021435	0.000000	0.000010	-0.000001	0.000000	0.000000
37.685779	12.086900	23.367033	0.194504	-0.165001	2.219397	0.000000	-0.021435	0.000000	0.000009	-0.000001	0.000000	0.000000
38.020362	11.966356	23.482367	0.165775	-0.179710	2.212226	0.000000	-0.021435	0.000000	0.000009	-0.000001	0.000000	0.000000
38.317684	11.875369	23.593117	0.169365	-0.250633	2.205853	0.000000	-0.026844	0.000000	0.000009	-0.000001	0.000000	0.000000
38.758644	11.877413	23.552834	-0.174017	0.341637	2.207945	0.000000	0.036339	0.000000	0.000009	-0.000000	0.000000	0.000000
39.199604	12.184640	22.995102	-0.525350	0.918363	2.237962	0.000000	0.099936	0.000000	0.000009	-0.000000	0.000000	0.000000
39.640564	12.811089	21.945297	-0.900685	1.453304	2.296247	0.000000	0.164670	0.000000	0.000008	0.000000	0.000000	0.000000
40.081524	13.785378	20.451184	-1.317170	1.922121	2.383463	0.000000	0.231281	0.000000	0.000009	0.000000	0.000000	0.000000
40.527484	15.169595	18.558173	-1.797659	2.304765	2.502076	0.000000	0.300930	0.000000	0.000009	0.000000	0.000000	0.000000
41.076544	16.936049	16.430916	-1.400529	1.592467	2.646773	0.000000	0.225366	0.000000	0.000009	0.000000	0.000000	0.000000
41.625604	18.209170	15.019344	-0.904473	0.993596	2.748821	0.000000	0.145805	0.000000	0.000009	-0.000000	0.000000	0.000000
42.174664	18.899031	14.222916	-0.344529	0.465497	2.806410	0.000000	0.063657	0.000000	0.000009	-0.000000	0.000000	0.000000
42.723724	18.956903	13.984902	0.239750	-0.029446	2.818518	0.000000	-0.019620	0.000000	0.000008	-0.000001	0.000000	0.000000
43.022297	18.848186	13.987042	0.173903	-0.014259	2.814858	0.000000	-0.012256	0.000000	0.000008	-0.000001	0.000000	0.000000
43.502297	18.693833	14.017206	0.147666	-0.048583	2.808976	0.000000	-0.012256	0.000000	0.000008	-0.000001	0.000000	0.000000
43.982297	18.564667	14.080322	0.121429	-0.082908	2.803094	0.000000	-0.012256	0.000000	0.000008	-0.000001	0.000000	0.000000
44.462297	18.460689	14.176389	0.095192	-0.117232	2.797211	0.000000	-0.012256	0.000000	0.000007	-0.000001	0.000000	0.000000
44.942297	18.381898	14.305408	0.068955	-0.151557	2.791329	0.000000	-0.012256	0.000000	0.000007	-0.000001	0.000000	0.000000
45.423547	18.328415	14.467663	-0.048159	-0.114289	2.785448	0.000000	0.001545	0.000000	0.000007	-0.000001	0.000000	0.000000
45.720870	18.361886	14.541815	-0.112392	-0.097115	2.785908	0.000000	0.008824	0.000000	0.000006	-0.000001	0.000000	0.000000
46.269930	18.176128	14.929716	0.448710	-0.613538	2.768180	0.000000	-0.073306	0.000000	0.000006	-0.000001	0.000000	0.000000
46.818990	17.388048	15.905238	0.978118	-1.173661	2.705649	0.000000	-0.154134	0.000000	0.000006	-0.000001	0.000000	0.000000
47.368050	16.053313	17.537863	1.438436	-1.817382	2.599425	0.000000	-0.232229	0.000000	0.000005	-0.000001	0.000000	0.000000
47.917110	14.266202	19.943881	1.797151	-2.590551	2.451391	0.000000	-0.306205	0.000000	0.000004	-0.000001	0.000000	0.000000
48.363070	12.875472	22.083047	1.332406	-2.186049	2.330129	0.000000	-0.237905	0.000000	0.000004	-0.000001	0.000000	0.000000
48.804030	11.880599	23.795818	0.932305	-1.683357	2.239683	0.000000	-0.172711	0.000000	0.000003	-0.000001	0.000000	0.000000
49.244990	11.218538	25.029659	0.574798	-1.104073	2.177524	0.000000	-0.109484	0.000000	0.000003	-0.000001	0.000000	0.000000
49.685950	10.859042	25.728430	0.243552	-0.474555	2.142944	0.000000	-0.047505	0.000000	0.000002	-0.000001	0.000000	0.000000
50.128160	10.785812	25.860055	-0.050233	0.113090	2.135561	0.000000	0.008697	0.000000	0.000002	-0.000001	0.000000	0.000000
50.425482	10.823899	25.796269	-0.077869	0.101446	2.138147	0.000000	0.008697	0.000000	0.000002	-0.000001	0.000000	0.000000
50.758816	10.886139	25.732990	-0.108852	0.088391	2.141046	0.000000	0.008697	0.000000	0.000001	-0.000001	0.000000	0.000000
51.092149	10.969035	25.678414	-0.139834	0.075336	2.143945	0.000000	0.008697	0.000000	0.000001	-0.000001	0.000000	0.000000
51.426732	11.072788	25.632906	-0.081104	-0.145714	2.146834	0.000000	-0.008720	0.000000	0.000001	-0.000001	0.000000	0.000000
51.724055	11.129052	25.723076	-0.080840	-0.220640	2.144242	0.000000	-0.013978	0.000000	0.000000	-0.000001	0.000000	0.000000
52.165015	11.345655	25.631486	-0.412231	0.427554	2.151667	0.000000	0.047685	0.000000	-0.000000	-0.000001	0.000000	0.000000
52.605975	11.861686	24.974668	-0.762455	1.056296	2.186377	0.000000	0.109892	0.000000	-0.000001	-0.000001	0.000000	0.000000
53.046935	12.700723	23.782507	-1.147513	1.636976	2.248767	0.000000	0.173349	0.000000	-0.000001	-0.000001	0.000000	0.000000
53.487895	13.901097	22.109243	-1.584999	2.143176	2.339547	0.000000	0.238782	0.000000	-0.000001	-0.000001	0.000000	0.000000
53.933855	15.538228	20.005992	-2.099128	2.553200	2.461257	0.000000	0.307332	0.000000	-0.000002	-0.000001	0.000000	0.000000
54.482915	17.645986	17.639306	-1.716996	1.782676	2.609821	0.000000	0.233028	0.000000	-0.000002	-0.000001	0.000000	0.000000
55.031975	19.264631	16.044474	-1.213584	1.139129	2.716392	0.000000	0.154591	0.000000	-0.000003	-0.000001	0.000000	0.000000
55.581035	20.279831	15.107898	-0.624450	0.576720	2.779078	0.000000	0.073411	0.000000	-0.000003	-0.000001	0.000000	0.000000
56.130095	20.619878	14.762870	0.008791	0.055388	2.796767	0.000000	-0.009071	0.000000	-0.000004	-0.000001	0.000000	0.000000
56.428668	20.651133	14.712852	-0.059596	0.073559	2.796241	0.000000	-0.001763	0.000000	-0.000004	-0.000001	0.000000	0.000000
56.762001	20.696263	14.671405	-0.075794	0.050781	2.795654	0.000000	-0.001763	0.000000	-0.000004	-0.000001	0.000000	0.000000
57.095334	20.752192	14.645144	-0.091993	0.028002	2.795067	0.000000	-0.001763	0.000000	-0.000004	-0.000001	0.000000	0.000000
57.429918	20.819191	14.634056	-0.108252	0.005138	2.794477	0.000000	-0.001763	0.000000	-0.000005	-0.000001	0.000000	0.000000
57.727240	20.887858	14.637042	-0.177279	0.023066	2.793953	0.000000	0.005538	0.000000	-0.000005	-0.000001	0.000000	0.000000
58.276300	20.726177	14.892782	0.470004	-0.491594	2.774355	0.000000	-0.076822	0.000000	-0.000005	-0.000001	0.000000	0.000000
58.825360	19.867806	15.729478	1.084088	-1.041270	2.709844	0.000000	-0.157819	0.000000	-0.000005	-0.000000	0.000000	0.000000
59.374420	18.373376	17.206724	1.621598	-1.665113	2.601565	0.000000	-0.236016	0.000000	-0.000006	-0.000000	0.000000	0.000000
59.923480	16.348445	19.429743	2.044566	-2.407558	2.451439	0.000000	-0.310028	0.000000	-0.000006	0.000000	0.000000	0.000000
60.369440	14.763542	21.405587	1.521934	-2.004282	2.328468	0.000000	-0.241748	0.000000	-0.000006	-0.000000	0.000000	0.000000
60.810400	13.623588	22.961690	1.073039	-1.511187	2.236315	0.000000	-0.176619	0.000000	-0.000006	-0.000000	0.000000	0.000000
61.251360	12.856491	24.050825	0.673168	-0.949334	2.172410	0.000000	-0.113502	0.000000	-0.000006	-0.000000	0.000000	0.000000
61.692320	12.427204	24.623439	0.304052	-0.344287	2.136026	0.000000	-0.051678	0.000000	-0.000006	-0.000001	0.000000	0.000000
62.134530	12.316168	24.652938	-0.021069	0.215911	2.126754	0.000000	0.004343	0.000000	-0.000007	-0.000001	0.000000	0.000000
62.431853	12.335878	24.528301	-0.045221	0.203288	2.128045	0.000000	0.004343	0.000000	-0.000007	-0.000001	0.000000	0.000000
62.765186	12.375051	24.397492	-0.072298	0.189137	2.129493	0.000000	0.004343	0.000000	-0.000007	-0.000001	0.000000	0.000000
63.098520	12.432275	24.276118	-0.099374	0.174985	2.130941	0.000000	0.004343	0.000000	-0.000007	-0.000001	0.000000	0.000000
63.433103	12.507866	24.163777	-0.126553	0.160781	2.132394	0.000000	0.004343	0.000000	-0.000007	-0.000001	0.000000	0.000000
63.730426	12.590301	24.071922	-0.119827	0.089122	2.133685	0.000000	-0.000890	0.000000	-0.000008	-0.000001	0.000000	0.000000
64.171386	12.856310	23.728218	-0.485713	0.687357	2.146832	0.000000	0.060575	0.000000	-0.000008	-0.000001	0.000000	0.000000
64.612346	13.453531	22.868747	-0.873790	1.254317	2.187209	0.000000	0.122729	0.000000	-0.000009	-0.000001	0.000000	0.000000
65.053306	14.409248	21.532615	-1.301788	1.764206	2.255276	0.000000	0.186282	0.000000	-0.000009	-0.000001	0.000000	0.000000
65.494266	15.767125	19.780614	-1.789261	2.193826	2.351807	0.000000	0.251956	0.000000	-0.000010	-0.000002	0.000000	0.000000
65.940226	17.612362	17.667668	-2.363172	2.524382	2.479475	0.000000	0.320901	0.000000	-0.000011	-0.000002	0.000000	0.000000
66.489286	19.977789	15.303935	-1.919467	1.806083	2.635306	0.000000	0.245889	0.000000	-0.000011	-0.000002	0.000000	0.000000
67.038346	21.778188	13.654134	-1.340181	1.216427	2.748691	0.000000	0.166516	0.000000	-0.000012	-0.000001	0.000000	0.000000
67.587406	22.886388	12.600753	-0.666231	0.713415	2.817619	0.000000	0.084189	0.000000	-0.000013	-0.000001	0.000000	0.000000
68.136466	23.224112	12.068761	0.054778	0.261218	2.840867	0.000000	0.000368	0.000000	-0.000013	-0.000000	0.000000	0.000000
68.435038	23.231479	11.901964	-0.018766	0.265895	2.843194	0.000000	0.007792	0.000000	-0.000013	-0.000000	0.000000	0.000000
68.768372	23.248774	11.734696	-0.033119	0.235908	2.845791	0.000000	0.007792	0.000000	-0.000013	-0.000000	0.000000	0.000000
69.101705	23.275638	11.587419	-0.047473	0.205922	2.848388	0.000000	0.007792	0.000000	-0.000013	-0.000000	0.000000	0.000000
69.436288	23.312226	11.459694	-0.061880	0.175823	2.850995	0.000000	0.007792	0.000000	-0.000013	-0.000000	0.000000	0.000000
69.733611	23.352829	11.363095	-0.135706	0.178768	2.853312	0.000000	0.015248	0.000000	-0.000014	-0.000000	0.000000	0.000000
70.282671	23.100778	11.394344	0.592047	-0.236018	2.838503	0.000000	-0.069113	0.000000	-0.000014	0.000000	0.000000	0.000000
