#ParticleID	Turn	x[m]	xp	y[m]	yp	z[m]	dE[GeV]# s	beta_x	beta_y	alpha_x	alpha_y	D_x	D_y	D_px	D_py	orbit_x	orbit_px	orbit_y	orbit_py
0.300000	11.806590	25.046716	-0.010361	-0.026930	2.618235	0.000000	-0.000036	0.000000	-0.000001	0.000002	0.000000	0.000000
0.601250	11.820520	25.066567	-0.035879	-0.038966	2.618224	0.000000	-0.000036	0.000000	-0.000001	0.000002	0.000000	0.000000
0.898573	11.849343	25.093270	-0.032006	-0.112381	2.618212	0.000000	-0.006456	0.000000	-0.000000	0.000002	0.000000	0.000000
1.339533	12.029614	24.914014	-0.378360	0.517348	2.631659	0.000000	0.067503	0.000000	0.000001	0.000002	0.000000	0.000000
1.780493	12.521781	24.187686	-0.741999	1.123537	2.677856	0.000000	0.142231	0.000000	0.000001	0.000002	0.000000	0.000000
2.221453	13.348329	22.947332	-1.139539	1.678607	2.757331	0.000000	0.218580	0.000000	0.000002	0.000002	0.000000	0.000000
2.662413	14.547020	21.249389	-1.589141	2.157301	2.870990	0.000000	0.297417	0.000000	0.000003	0.000002	0.000000	0.000000
3.108373	16.193345	19.146212	-2.115632	2.538973	3.021986	0.000000	0.380132	0.000000	0.000004	0.000002	0.000000	0.000000
3.657433	18.304513	16.783994	-1.706665	1.788718	3.205429	0.000000	0.287095	0.000000	0.000005	0.000002	0.000000	0.000000
4.206493	19.897330	15.171268	-1.177148	1.165869	3.336314	0.000000	0.188965	0.000000	0.000006	0.000002	0.000000	0.000000
4.755553	20.859285	14.193164	-0.564483	0.626062	3.412318	0.000000	0.087484	0.000000	0.000006	0.000001	0.000000	0.000000
5.304613	21.122432	13.780013	0.088054	0.130848	3.432095	0.000000	-0.015550	0.000000	0.000007	0.000001	0.000000	0.000000
5.603185	21.107030	13.687029	0.018717	0.144580	3.430129	0.000000	-0.006583	0.000000	0.000007	0.000001	0.000000	0.000000
5.936519	21.099817	13.598929	0.002919	0.119717	3.427935	0.000000	-0.006583	0.000000	0.000008	0.000001	0.000000	0.000000
6.269852	21.103137	13.527405	-0.012879	0.094854	3.425740	0.000000	-0.006583	0.000000	0.000008	0.000001	0.000000	0.000000
6.604435	21.117061	13.472282	-0.028736	0.069898	3.423537	0.000000	-0.006583	0.000000	0.000009	0.000001	0.000000	0.000000
6.901758	21.138338	13.437311	-0.098054	0.082828	3.421580	0.000000	0.002357	0.000000	0.000009	0.000001	0.000000	0.000000
7.450818	20.885778	13.607280	0.555317	-0.394218	3.394673	0.000000	-0.100220	0.000000	0.000009	0.000001	0.000000	0.000000
7.999878	19.933132	14.313354	1.169463	-0.899342	3.311851	0.000000	-0.201020	0.000000	0.000010	0.000001	0.000000	0.000000
8.548938	18.347688	15.605826	1.701004	-1.468525	3.174584	0.000000	-0.298253	0.000000	0.000010	0.000000	0.000000	0.000000
9.097998	16.241435	17.576756	2.112394	-2.142308	2.985305	0.000000	-0.390197	0.000000	0.000010	-0.000000	0.000000	0.000000
9.543958	14.598210	19.332932	1.585398	-1.779012	2.829598	0.000000	-0.308495	0.000000	0.000010	0.000000	0.000000	0.000000
9.984918	13.403105	20.711778	1.135119	-1.336009	2.710809	0.000000	-0.230790	0.000000	0.000010	0.000000	0.000000	0.000000
10.425878	12.580827	21.671532	0.736700	-0.832217	2.625674	0.000000	-0.155714	0.000000	0.000010	0.000001	0.000000	0.000000
10.866838	12.093810	22.168523	0.371939	-0.290561	2.573221	0.000000	-0.082412	0.000000	0.000011	0.000001	0.000000	0.000000
11.309048	11.919668	22.179616	0.053293	0.209870	2.552834	0.000000	-0.016308	0.000000	0.000011	0.000001	0.000000	0.000000
11.606371	11.895415	22.058979	0.028279	0.195874	2.547985	0.000000	-0.016308	0.000000	0.000012	0.000001	0.000000	0.000000
12.086371	11.887652	21.881786	-0.012105	0.173279	2.540157	0.000000	-0.016308	0.000000	0.000012	0.000001	0.000000	0.000000
12.566371	11.918657	21.726283	-0.052489	0.150685	2.532329	0.000000	-0.016308	0.000000	0.000013	0.000001	0.000000	0.000000
13.046371	11.988431	21.592471	-0.092873	0.128090	2.524501	0.000000	-0.016308	0.000000	0.000014	0.000001	0.000000	0.000000
13.526371	12.096974	21.480350	-0.133257	0.105495	2.516673	0.000000	-0.016308	0.000000	0.000014	0.000001	0.000000	0.000000
14.007621	12.244719	21.389713	-0.173746	0.082842	2.508824	0.000000	-0.016308	0.000000	0.000015	0.000001	0.000000	0.000000
14.304943	12.355474	21.344613	-0.168466	0.016511	2.503975	0.000000	-0.022447	0.000000	0.000015	0.000001	0.000000	0.000000
14.745903	12.662544	21.096449	-0.530543	0.544128	2.509706	0.000000	0.048468	0.000000	0.000016	0.000002	0.000000	0.000000
15.186863	13.298378	20.392150	-0.916858	1.046988	2.546800	0.000000	0.119935	0.000000	0.000017	0.000002	0.000000	0.000000
15.627823	14.292026	19.263761	-1.345062	1.502211	2.615678	0.000000	0.192768	0.000000	0.000017	0.000002	0.000000	0.000000
16.068783	15.688884	17.762622	-1.834719	1.889085	2.717126	0.000000	0.267797	0.000000	0.000019	0.000003	0.000000	0.000000
16.514743	17.576431	15.935535	-2.412956	2.190749	2.853993	0.000000	0.346338	0.000000	0.000020	0.000003	0.000000	0.000000
17.063803	20.000802	13.895481	-1.976396	1.546720	3.020425	0.000000	0.259019	0.000000	0.000022	0.000003	0.000000	0.000000
17.612863	21.865816	12.498364	-1.400233	1.012861	3.137580	0.000000	0.167106	0.000000	0.000023	0.000002	0.000000	0.000000
18.161923	23.039738	11.644670	-0.725165	0.551145	3.203381	0.000000	0.072229	0.000000	0.000024	0.000001	0.000000	0.000000
18.710983	23.439646	11.273591	0.001126	0.128687	3.216660	0.000000	-0.023929	0.000000	0.000024	0.000000	0.000000	0.000000
19.009556	23.479355	11.187266	-0.072889	0.130990	3.212024	0.000000	-0.015526	0.000000	0.000025	0.000001	0.000000	0.000000
19.342889	23.532705	11.110042	-0.087161	0.100683	3.206848	0.000000	-0.015526	0.000000	0.000025	0.000001	0.000000	0.000000
19.676223	23.595570	11.053023	-0.101434	0.070376	3.201672	0.000000	-0.015526	0.000000	0.000025	0.000001	0.000000	0.000000
20.010806	23.668532	11.015972	-0.233027	0.094535	3.196497	0.000000	0.000311	0.000000	0.000025	0.000001	0.000000	0.000000
20.308129	23.811038	10.967853	-0.308471	0.095955	3.196590	0.000000	0.008661	0.000000	0.000025	0.000001	0.000000	0.000000
20.857189	23.739087	11.084444	0.438741	-0.309554	3.175130	0.000000	-0.086714	0.000000	0.000026	-0.000000	0.000000	0.000000
21.406249	22.858837	11.655753	1.154962	-0.737111	3.101650	0.000000	-0.180551	0.000000	0.000025	-0.000001	0.000000	0.000000
21.955309	21.232465	12.722475	1.789603	-1.217170	2.977452	0.000000	-0.271186	0.000000	0.000025	-0.000002	0.000000	0.000000
22.504369	18.974850	14.360588	2.297835	-1.783927	2.804740	0.000000	-0.357011	0.000000	0.000023	-0.000003	0.000000	0.000000
22.950329	17.195565	15.831398	1.706032	-1.500234	2.662820	0.000000	-0.279813	0.000000	0.000022	-0.000002	0.000000	0.000000
23.391289	15.920339	17.004126	1.196869	-1.149134	2.555754	0.000000	-0.206257	0.000000	0.000022	-0.000001	0.000000	0.000000
23.832249	15.068436	17.842885	0.742388	-0.745749	2.480574	0.000000	-0.135050	0.000000	0.000021	-0.000001	0.000000	0.000000
24.273209	14.600934	18.309513	0.321825	-0.308433	2.436426	0.000000	-0.065381	0.000000	0.000021	-0.000000	0.000000	0.000000
24.715418	14.496596	18.382534	-0.048579	0.097776	2.422802	0.000000	-0.002397	0.000000	0.000021	0.000000	0.000000	0.000000
25.012741	14.531596	18.329247	-0.069138	0.081447	2.422089	0.000000	-0.002397	0.000000	0.000021	0.000000	0.000000	0.000000
25.346075	14.585370	18.281051	-0.092186	0.063141	2.421290	0.000000	-0.002397	0.000000	0.000021	0.000000	0.000000	0.000000
25.679408	14.654510	18.245060	-0.115234	0.044834	2.420491	0.000000	-0.002397	0.000000	0.000021	0.000000	0.000000	0.000000
26.013991	14.739062	18.221576	-0.018796	-0.121363	2.419665	0.000000	-0.022027	0.000000	0.000021	0.000000	0.000000	0.000000
26.311314	14.756239	18.298667	-0.002796	-0.182785	2.413116	0.000000	-0.027943	0.000000	0.000021	0.000000	0.000000	0.000000
26.752274	14.940493	18.261440	-0.416638	0.266887	2.415902	0.000000	0.040592	0.000000	0.000021	0.000001	0.000000	0.000000
27.193234	15.496706	17.831498	-0.849515	0.704416	2.448982	0.000000	0.109589	0.000000	0.000022	0.000001	0.000000	0.000000
27.634194	16.450289	17.028403	-1.321203	1.109895	2.512732	0.000000	0.179834	0.000000	0.000022	0.000002	0.000000	0.000000
28.075154	17.844809	15.888695	-1.853254	1.464875	2.607880	0.000000	0.252128	0.000000	0.000023	0.000002	0.000000	0.000000
28.521114	19.768201	14.447059	-2.474947	1.754115	2.737111	0.000000	0.327736	0.000000	0.000024	0.000003	0.000000	0.000000
29.070174	22.212833	12.840867	-1.951090	1.188501	2.894397	0.000000	0.244353	0.000000	0.000026	0.000002	0.000000	0.000000
29.619234	24.002662	11.805935	-1.289417	0.707541	3.004641	0.000000	0.156635	0.000000	0.000027	0.000001	0.000000	0.000000
30.168294	25.011263	11.268547	-0.536666	0.276977	3.065889	0.000000	0.066139	0.000000	0.000027	0.000000	0.000000	0.000000
30.717354	25.167393	11.190427	0.253992	-0.133858	3.077054	0.000000	-0.025530	0.000000	0.000027	-0.000001	0.000000	0.000000
31.015927	25.058648	11.260957	0.175965	-0.131599	3.071832	0.000000	-0.017492	0.000000	0.000027	-0.000000	0.000000	0.000000
31.349260	24.945910	11.358728	0.162251	-0.161712	3.066001	0.000000	-0.017492	0.000000	0.000027	-0.000000	0.000000	0.000000
31.682593	24.842314	11.476574	0.148537	-0.191826	3.060171	0.000000	-0.017492	0.000000	0.000027	-0.000000	0.000000	0.000000
32.017177	24.747523	11.615051	0.134772	-0.222052	3.054319	0.000000	-0.017492	0.000000	0.000027	-0.000000	0.000000	0.000000
32.314499	24.671019	11.755079	0.058093	-0.218206	3.049118	0.000000	-0.009527	0.000000	0.000026	-0.000000	0.000000	0.000000
32.863559	24.184507	12.233878	0.822742	-0.658976	3.019010	0.000000	-0.099984	0.000000	0.000026	-0.000001	0.000000	0.000000
33.412619	22.885417	13.219476	1.529276	-1.146683	2.939651	0.000000	-0.188667	0.000000	0.000025	-0.000002	0.000000	0.000000
33.961679	20.865509	14.782074	2.127791	-1.716067	2.812447	0.000000	-0.274004	0.000000	0.000024	-0.000003	0.000000	0.000000
34.510739	18.267461	17.032974	2.576008	-2.407681	2.639656	0.000000	-0.354481	0.000000	0.000022	-0.000004	0.000000	0.000000
34.956699	16.247330	19.046347	1.970066	-2.088162	2.497912	0.000000	-0.281564	0.000000	0.000021	-0.000003	0.000000	0.000000
35.397659	14.740898	20.711814	1.459149	-1.674377	2.389134	0.000000	-0.212281	0.000000	0.000019	-0.000003	0.000000	0.000000
35.838619	13.654065	21.977241	1.014897	-1.184409	2.310345	0.000000	-0.145416	0.000000	0.000018	-0.000002	0.000000	0.000000
36.279579	12.937178	22.785050	0.617012	-0.640552	2.260648	0.000000	-0.080207	0.000000	0.000018	-0.000002	0.000000	0.000000
36.721789	12.556788	23.098797	0.277999	-0.124239	2.239450	0.000000	-0.021402	0.000000	0.000017	-0.000001	0.000000	0.000000
37.019112	12.399062	23.176562	0.252491	-0.137310	2.233087	0.000000	-0.021402	0.000000	0.000017	-0.000001	0.000000	0.000000
37.352445	12.240267	23.272986	0.223893	-0.151963	2.225953	0.000000	-0.021402	0.000000	0.000016	-0.000001	0.000000	0.000000
37.685779	12.100537	23.379180	0.195296	-0.166617	2.218819	0.000000	-0.021402	0.000000	0.000016	-0.000001	0.000000	0.000000
38.020362	11.979456	23.495595	0.166591	-0.181325	2.211659	0.000000	-0.021402	0.000000	0.000015	-0.000001	0.000000	0.000000
38.317684	11.887978	23.607306	0.170231	-0.252280	2.205296	0.000000	-0.026810	0.000000	0.000015	-0.000001	0.000000	0.000000
38.758644	11.889382	23.568305	-0.173430	0.340389	2.207399	0.000000	0.036359	0.000000	0.000015	-0.000001	0.000000	0.000000
39.199604	12.196204	23.011476	-0.525014	0.917570	2.237423	0.000000	0.099941	0.000000	0.000014	-0.000000	0.000000	0.000000
39.640564	12.822461	21.962156	-0.900585	1.453002	2.295707	0.000000	0.164662	0.000000	0.000014	-0.000000	0.000000	0.000000
40.081524	13.796764	20.468086	-1.317301	1.922324	2.382917	0.000000	0.231259	0.000000	0.000014	0.000000	0.000000	0.000000
40.527484	15.181204	18.574669	-1.798029	2.305468	2.501517	0.000000	0.300894	0.000000	0.000014	0.000001	0.000000	0.000000
41.076544	16.947818	16.446885	-1.400447	1.592727	2.646199	0.000000	0.225348	0.000000	0.000015	0.000000	0.000000	0.000000
41.625604	18.220601	15.035260	-0.903944	0.993433	2.748242	0.000000	0.145806	0.000000	0.000015	-0.000000	0.000000	0.000000
42.174664	18.909652	14.239247	-0.343591	0.464899	2.805836	0.000000	0.063677	0.000000	0.000014	-0.000001	0.000000	0.000000
42.723724	18.966298	14.002147	0.241031	-0.030522	2.817960	0.000000	-0.019582	0.000000	0.000014	-0.000001	0.000000	0.000000
43.022297	18.856828	14.004896	0.175162	-0.015265	2.814312	0.000000	-0.012220	0.000000	0.000013	-0.000001	0.000000	0.000000
43.502297	18.701266	14.036005	0.148926	-0.049547	2.808446	0.000000	-0.012220	0.000000	0.000013	-0.000001	0.000000	0.000000
43.982297	18.570890	14.100025	0.122690	-0.083828	2.802581	0.000000	-0.012220	0.000000	0.000012	-0.000001	0.000000	0.000000
44.462297	18.465700	14.196956	0.096454	-0.118110	2.796716	0.000000	-0.012220	0.000000	0.000012	-0.000001	0.000000	0.000000
44.942297	18.385697	14.326797	0.070218	-0.152392	2.790851	0.000000	-0.012220	0.000000	0.000011	-0.000001	0.000000	0.000000
45.423547	18.330998	14.489835	-0.046908	-0.114971	2.784988	0.000000	0.001578	0.000000	0.000011	-0.000001	0.000000	0.000000
45.720870	18.363725	14.564384	-0.111140	-0.097711	2.785458	0.000000	0.008856	0.000000	0.000010	-0.000001	0.000000	0.000000
46.269930	18.176568	14.953319	0.449988	-0.614836	2.767752	0.000000	-0.073259	0.000000	0.000010	-0.000001	0.000000	0.000000
46.818990	17.387112	15.930692	0.979331	-1.175754	2.705251	0.000000	-0.154075	0.000000	0.000009	-0.000002	0.000000	0.000000
47.368050	16.051120	17.566118	1.439500	-1.820419	2.599063	0.000000	-0.232157	0.000000	0.000008	-0.000002	0.000000	0.000000
47.917110	14.262959	19.976084	1.797989	-2.594748	2.451072	0.000000	-0.306122	0.000000	0.000006	-0.000002	0.000000	0.000000
48.363070	12.871494	22.118685	1.333223	-2.189523	2.329846	0.000000	-0.237830	0.000000	0.000006	-0.000002	0.000000	0.000000
48.804030	11.875895	23.834142	0.933140	-1.685952	2.239432	0.000000	-0.172643	0.000000	0.000005	-0.000002	0.000000	0.000000
49.244990	11.213076	25.069839	0.575688	-1.105671	2.177302	0.000000	-0.109422	0.000000	0.000004	-0.000002	0.000000	0.000000
49.685950	10.852756	25.769551	0.244538	-0.475084	2.142749	0.000000	-0.047448	0.000000	0.000003	-0.000002	0.000000	0.000000
50.128160	10.778594	25.901159	-0.049124	0.113555	2.135390	0.000000	0.008750	0.000000	0.000002	-0.000002	0.000000	0.000000
50.425482	10.816027	25.837091	-0.076775	0.101928	2.137992	0.000000	0.008750	0.000000	0.000002	-0.000002	0.000000	0.000000
50.758816	10.877544	25.773484	-0.107775	0.088893	2.140909	0.000000	0.008750	0.000000	0.000001	-0.000002	0.000000	0.000000
51.092149	10.959727	25.718568	-0.138775	0.075857	2.143826	0.000000	0.008750	0.000000	0.000001	-0.000002	0.000000	0.000000
51.426732	11.062778	25.672705	-0.080143	-0.145497	2.146732	0.000000	-0.008666	0.000000	0.000000	-0.000002	0.000000	0.000000
51.724055	11.118477	25.762740	-0.079926	-0.220502	2.144156	0.000000	-0.013924	0.000000	-0.000000	-0.000002	0.000000	0.000000
52.165015	11.334160	25.670566	-0.411053	0.428738	2.151605	0.000000	0.047737	0.000000	-0.000001	-0.000002	0.000000	0.000000
52.605975	11.849017	25.012262	-0.760960	1.058470	2.186337	0.000000	0.109942	0.000000	-0.000002	-0.000002	0.000000	0.000000
53.046935	12.686571	23.817781	-1.145633	1.640042	2.248750	0.000000	0.173399	0.000000	-0.000003	-0.000002	0.000000	0.000000
53.487895	13.885085	22.141470	-1.582646	2.146994	2.339553	0.000000	0.238831	0.000000	-0.000003	-0.000002	0.000000	0.000000
53.933855	15.519866	20.034540	-2.096191	2.557598	2.461285	0.000000	0.307382	0.000000	-0.000004	-0.000002	0.000000	0.000000
54.482915	17.624646	17.663653	-1.714543	1.785974	2.609877	0.000000	0.233077	0.000000	-0.000005	-0.000002	0.000000	0.000000
55.031975	19.240944	16.065693	-1.211788	1.141562	2.716474	0.000000	0.154637	0.000000	-0.000006	-0.000002	0.000000	0.000000
55.581035	20.254593	15.126840	-0.623438	0.578460	2.779185	0.000000	0.073454	0.000000	-0.000007	-0.000001	0.000000	0.000000
56.130095	20.593993	14.780222	0.008948	0.056560	2.796897	0.000000	-0.009031	0.000000	-0.000008	-0.000001	0.000000	0.000000
56.428668	20.625120	14.729471	-0.059391	0.074797	2.796383	0.000000	-0.001723	0.000000	-0.000008	-0.000001	0.000000	0.000000
56.762001	20.670120	14.687192	-0.075609	0.052040	2.795810	0.000000	-0.001723	0.000000	-0.000009	-0.000001	0.000000	0.000000
57.095334	20.725933	14.660084	-0.091828	0.029283	2.795236	0.000000	-0.001723	0.000000	-0.000009	-0.000001	0.000000	0.000000
57.429918	20.792828	14.648132	-0.108107	0.006441	2.794660	0.000000	-0.001723	0.000000	-0.000009	-0.000001	0.000000	0.000000
57.727240	20.861414	14.650337	-0.177085	0.024424	2.794148	0.000000	0.005578	0.000000	-0.000010	-0.000001	0.000000	0.000000
58.276300	20.700007	14.904788	0.469313	-0.490590	2.774570	0.000000	-0.076788	0.000000	-0.000010	-0.000001	0.000000	0.000000
58.825360	19.842861	15.740541	1.082562	-1.040547	2.710077	0.000000	-0.157792	0.000000	-0.000011	-0.000001	0.000000	0.000000
59.374420	18.350519	17.217124	1.619343	-1.664620	2.601811	0.000000	-0.235997	0.000000	-0.000011	-0.000000	0.000000	0.000000
59.923480	16.328393	19.439712	2.041743	-2.407261	2.451693	0.000000	-0.310017	0.000000	-0.000011	0.000000	0.000000	0.000000
60.369440	14.745731	21.415128	1.519712	-2.003622	2.328729	0.000000	-0.241730	0.000000	-0.000011	-0.000000	0.000000	0.000000
60.810400	13.607510	22.970500	1.071313	-1.510197	2.236584	0.000000	-0.176595	0.000000	-0.000011	-0.000000	0.000000	0.000000
61.251360	12.841747	24.058633	0.671859	-0.948059	2.172692	0.000000	-0.113470	0.000000	-0.000011	-0.000001	0.000000	0.000000
61.692320	12.413454	24.630018	0.303100	-0.342786	2.136323	0.000000	-0.051638	0.000000	-0.000012	-0.000001	0.000000	0.000000
62.134530	12.303119	24.658114	-0.021739	0.217555	2.127071	0.000000	0.004389	0.000000	-0.000012	-0.000001	0.000000	0.000000
62.431853	12.323234	24.532501	-0.045917	0.204926	2.128376	0.000000	0.004389	0.000000	-0.000012	-0.000001	0.000000	0.000000
62.765186	12.362881	24.400603	-0.073023	0.190768	2.129839	0.000000	0.004389	0.000000	-0.000013	-0.000001	0.000000	0.000000
63.098520	12.420598	24.278143	-0.100129	0.176610	2.131303	0.000000	0.004389	0.000000	-0.000013	-0.000001	0.000000	0.000000
63.433103	12.496705	24.164716	-0.127337	0.162399	2.132772	0.000000	0.004389	0.000000	-0.000014	-0.000001	0.000000	0.000000
63.730426	12.579614	24.071901	-0.120662	0.090731	2.134077	0.000000	-0.000845	0.000000	-0.000014	-0.000001	0.000000	0.000000
64.171386	12.846260	23.726792	-0.486327	0.688923	2.147246	0.000000	0.060630	0.000000	-0.000015	-0.000002	0.000000	0.000000
64.612346	13.443935	22.865985	-0.874211	1.255769	2.187650	0.000000	0.122795	0.000000	-0.000016	-0.000002	0.000000	0.000000
65.053306	14.399944	21.528647	-1.302034	1.765479	2.255749	0.000000	0.186360	0.000000	-0.000016	-0.000002	0.000000	0.000000
65.494266	15.757966	19.775625	-1.789344	2.194861	2.352318	0.000000	0.252046	0.000000	-0.000018	-0.000003	0.000000	0.000000
65.940226	17.603206	17.661881	-2.363095	2.525129	2.480030	0.000000	0.321006	0.000000	-0.000019	-0.000003	0.000000	0.000000
66.489286	19.968763	15.297322	-1.919781	1.806851	2.635914	0.000000	0.245975	0.000000	-0.000021	-0.000003	0.000000	0.000000
67.038346	21.769712	13.646641	-1.340863	1.217271	2.749341	0.000000	0.166581	0.000000	-0.000022	-0.000002	0.000000	0.000000
67.587406	22.878841	12.592265	-0.667233	0.714394	2.818299	0.000000	0.084232	0.000000	-0.000023	-0.000001	0.000000	0.000000
68.136466	23.217808	12.059093	0.053527	0.262402	2.841565	0.000000	0.000390	0.000000	-0.000023	-0.000001	0.000000	0.000000
68.435038	23.225917	11.891613	-0.020009	0.267019	2.843899	0.000000	0.007816	0.000000	-0.000023	-0.000001	0.000000	0.000000
68.768372	23.244042	11.723610	-0.034366	0.236989	2.846504	0.000000	0.007816	0.000000	-0.000024	-0.000001	0.000000	0.000000
69.101705	23.271738	11.575628	-0.048724	0.206960	2.849109	0.000000	0.007816	0.000000	-0.000024	-0.000001	0.000000	0.000000
69.436288	23.309165	11.447222	-0.063135	0.176817	2.851725	0.000000	0.007816	0.000000	-0.000024	-0.000001	0.000000	0.000000
69.733611	23.350515	11.350043	-0.136965	0.179693	2.854049	0.000000	0.015274	0.000000	-0.000024	-0.000001	0.000000	0.000000
70.282671	23.099877	11.380072	0.590749	-0.234709	2.839247	0.000000	-0.069110	0.000000	-0.000024	0.000000	0.000000	0.000000
