#ParticleID	Turn	x[m]	xp	y[m]	yp	z[m]	dE[GeV]# s	beta_x	beta_y	alpha_x	alpha_y	D_x	D_y	D_px	D_py	orbit_x	orbit_px	orbit_y	orbit_py
0.300000	11.827425	24.963988	-0.012751	-0.027698	2.618203	0.000000	-0.000021	0.000000	-0.000001	0.000000	0.000000	0.000000
0.601250	11.842782	24.984314	-0.038225	-0.039775	2.618196	0.000000	-0.000021	0.000000	-0.000001	0.000000	0.000000	0.000000
0.898573	11.872988	25.011509	-0.034252	-0.113029	2.618190	0.000000	-0.006442	0.000000	-0.000000	0.000000	0.000000	0.000000
1.339533	12.055494	24.833777	-0.381202	0.514552	2.631643	0.000000	0.067517	0.000000	-0.000000	0.000000	0.000000	0.000000
1.780493	12.550476	24.110817	-0.745568	1.118723	2.677847	0.000000	0.142245	0.000000	-0.000000	0.000000	0.000000	0.000000
2.221453	13.380550	22.875523	-1.143997	1.671992	2.757329	0.000000	0.218593	0.000000	-0.000000	0.000000	0.000000	0.000000
2.662413	14.583639	21.184100	-1.594692	2.149187	2.870993	0.000000	0.297431	0.000000	0.000000	0.000000	0.000000	0.000000
3.108373	16.235501	19.088698	-2.122542	2.529726	3.021997	0.000000	0.380146	0.000000	0.000000	0.000000	0.000000	0.000000
3.657433	18.353700	16.735341	-1.712486	1.781731	3.205448	0.000000	0.287108	0.000000	0.000000	0.000000	0.000000	0.000000
4.206493	19.952117	15.129281	-1.181469	1.160644	3.336340	0.000000	0.188978	0.000000	0.000001	0.000000	0.000000	0.000000
4.755553	20.917847	14.156122	-0.566998	0.622228	3.412352	0.000000	0.087495	0.000000	0.000001	0.000000	0.000000	0.000000
5.304613	21.182676	13.746548	0.087522	0.128131	3.432135	0.000000	-0.015539	0.000000	0.000001	0.000000	0.000000	0.000000
5.603185	21.167674	13.655247	0.018067	0.141744	3.430173	0.000000	-0.006572	0.000000	0.000001	0.000000	0.000000	0.000000
5.936519	21.160881	13.569051	0.002314	0.116843	3.427982	0.000000	-0.006572	0.000000	0.000001	0.000000	0.000000	0.000000
6.269852	21.164589	13.499457	-0.013438	0.091941	3.425792	0.000000	-0.006572	0.000000	0.000001	0.000000	0.000000	0.000000
6.604435	21.178871	13.446295	-0.029250	0.066947	3.423593	0.000000	-0.006572	0.000000	0.000001	0.000000	0.000000	0.000000
6.901758	21.200442	13.413089	-0.098693	0.079782	3.421639	0.000000	0.002368	0.000000	0.000001	0.000000	0.000000	0.000000
7.450818	20.947439	13.586041	0.556759	-0.396637	3.394738	0.000000	-0.100211	0.000000	0.000001	0.000000	0.000000	0.000000
7.999878	19.992106	14.294507	1.172883	-0.901307	3.311922	0.000000	-0.201012	0.000000	0.000001	0.000000	0.000000	0.000000
8.548938	18.401925	15.588952	1.706162	-1.470174	3.174658	0.000000	-0.298248	0.000000	0.000002	0.000000	0.000000	0.000000
9.097998	16.289216	17.561575	2.118925	-2.143760	2.985381	0.000000	-0.390194	0.000000	0.000002	0.000000	0.000000	0.000000
9.543958	14.640817	19.319335	1.590511	-1.781102	2.829676	0.000000	-0.308490	0.000000	0.000002	0.000000	0.000000	0.000000
9.984918	13.441734	20.700269	1.139060	-1.338635	2.710890	0.000000	-0.230783	0.000000	0.000002	0.000000	0.000000	0.000000
10.425878	12.616430	21.662532	0.739649	-0.835261	2.625758	0.000000	-0.155705	0.000000	0.000002	0.000000	0.000000	0.000000
10.866838	12.127198	22.162341	0.374030	-0.293884	2.573310	0.000000	-0.082401	0.000000	0.000002	0.000000	0.000000	0.000000
11.309048	11.951550	22.176440	0.054703	0.206423	2.552929	0.000000	-0.016295	0.000000	0.000002	0.000000	0.000000	0.000000
11.606371	11.926440	22.057848	0.029751	0.192445	2.548084	0.000000	-0.016295	0.000000	0.000002	0.000000	0.000000	0.000000
12.086371	11.917215	21.883933	-0.010531	0.169878	2.540262	0.000000	-0.016295	0.000000	0.000002	0.000000	0.000000	0.000000
12.566371	11.946660	21.731683	-0.050813	0.147311	2.532441	0.000000	-0.016295	0.000000	0.000002	0.000000	0.000000	0.000000
13.046371	12.014776	21.601096	-0.091096	0.124744	2.524619	0.000000	-0.016295	0.000000	0.000002	0.000000	0.000000	0.000000
13.526371	12.121564	21.492174	-0.131378	0.102177	2.516797	0.000000	-0.016295	0.000000	0.000003	0.000000	0.000000	0.000000
14.007621	12.267452	21.404717	-0.171765	0.079552	2.508955	0.000000	-0.016295	0.000000	0.000003	0.000000	0.000000	0.000000
14.304943	12.377010	21.361568	-0.166366	0.013190	2.504111	0.000000	-0.022436	0.000000	0.000003	0.000000	0.000000	0.000000
14.745903	12.682420	21.116110	-0.528865	0.541337	2.509848	0.000000	0.048483	0.000000	0.000003	0.000000	0.000000	0.000000
15.186863	13.316931	20.413992	-0.915526	1.044853	2.546949	0.000000	0.119954	0.000000	0.000003	0.000000	0.000000	0.000000
15.627823	14.309533	19.287160	-1.344015	1.500830	2.615838	0.000000	0.192791	0.000000	0.000003	0.000001	0.000000	0.000000
16.068783	15.705574	17.786883	-1.833908	1.888520	2.717297	0.000000	0.267824	0.000000	0.000004	0.000001	0.000000	0.000000
16.514743	17.592489	15.959921	-2.412345	2.191032	2.854178	0.000000	0.346369	0.000000	0.000004	0.000001	0.000000	0.000000
17.063803	20.015755	13.919842	-1.975010	1.546484	3.020627	0.000000	0.259044	0.000000	0.000004	0.000001	0.000000	0.000000
17.612863	21.878862	12.523276	-1.398170	1.012088	3.137796	0.000000	0.167125	0.000000	0.000004	0.000000	0.000000	0.000000
18.161923	23.050210	11.670749	-0.722571	0.549781	3.203606	0.000000	0.072241	0.000000	0.000005	0.000000	0.000000	0.000000
18.710983	23.447061	11.301536	0.004067	0.126634	3.216889	0.000000	-0.023925	0.000000	0.000005	0.000000	0.000000	0.000000
19.009556	23.485028	11.216365	-0.069969	0.129098	3.212255	0.000000	-0.015520	0.000000	0.000005	0.000000	0.000000	0.000000
19.342889	23.536428	11.140371	-0.084232	0.098884	3.207082	0.000000	-0.015520	0.000000	0.000005	0.000000	0.000000	0.000000
19.676223	23.597337	11.084519	-0.098494	0.068671	3.201909	0.000000	-0.015520	0.000000	0.000005	0.000000	0.000000	0.000000
20.010806	23.668329	11.048577	-0.230077	0.093085	3.196736	0.000000	0.000319	0.000000	0.000005	0.000000	0.000000	0.000000
20.308129	23.809076	11.001295	-0.305510	0.094684	3.196830	0.000000	0.008671	0.000000	0.000005	0.000000	0.000000	0.000000
20.857189	23.733924	11.119801	0.441574	-0.311792	3.175374	0.000000	-0.086712	0.000000	0.000005	0.000000	0.000000	0.000000
21.406249	22.850727	11.694170	1.157467	-0.740477	3.101892	0.000000	-0.180557	0.000000	0.000005	-0.000000	0.000000	0.000000
21.955309	21.221869	12.765312	1.791602	-1.221905	2.977689	0.000000	-0.271200	0.000000	0.000005	-0.000000	0.000000	0.000000
22.504369	18.962404	14.409524	2.299188	-1.790366	2.804966	0.000000	-0.357032	0.000000	0.000005	-0.000000	0.000000	0.000000
22.950329	17.181868	15.885588	1.707497	-1.505528	2.663037	0.000000	-0.279828	0.000000	0.000004	-0.000000	0.000000	0.000000
23.391289	15.905276	17.062391	1.198515	-1.153047	2.555964	0.000000	-0.206267	0.000000	0.000004	-0.000000	0.000000	0.000000
23.832249	15.051815	17.903925	0.744289	-0.748103	2.480782	0.000000	-0.135054	0.000000	0.000004	-0.000000	0.000000	0.000000
24.273209	14.582494	18.371899	0.324067	-0.309121	2.436632	0.000000	-0.065380	0.000000	0.000004	-0.000000	0.000000	0.000000
24.715418	14.475984	18.444776	-0.045938	0.098626	2.423009	0.000000	-0.002392	0.000000	0.000004	0.000000	0.000000	0.000000
25.012741	14.509420	18.390968	-0.066520	0.082349	2.422298	0.000000	-0.002392	0.000000	0.000004	0.000000	0.000000	0.000000
25.346075	14.561459	18.342151	-0.089595	0.064102	2.421501	0.000000	-0.002392	0.000000	0.000004	0.000000	0.000000	0.000000
25.679408	14.628881	18.305499	-0.112671	0.045854	2.420703	0.000000	-0.002392	0.000000	0.000004	0.000000	0.000000	0.000000
26.013991	14.711727	18.281314	-0.016481	-0.120769	2.419878	0.000000	-0.022024	0.000000	0.000004	0.000000	0.000000	0.000000
26.311314	14.727538	18.358035	-0.000582	-0.182288	2.413330	0.000000	-0.027942	0.000000	0.000004	0.000000	0.000000	0.000000
26.752274	14.909523	18.319660	-0.413685	0.268983	2.416118	0.000000	0.040598	0.000000	0.000004	0.000000	0.000000	0.000000
27.193234	15.462758	17.887196	-0.845689	0.708016	2.449202	0.000000	0.109601	0.000000	0.000004	0.000000	0.000000	0.000000
27.634194	16.412518	17.080322	-1.316329	1.114834	2.512960	0.000000	0.179852	0.000000	0.000005	0.000000	0.000000	0.000000
28.075154	17.802196	15.935749	-1.847109	1.470928	2.608118	0.000000	0.252152	0.000000	0.000005	0.000001	0.000000	0.000000
28.521114	19.719431	14.488316	-2.467236	1.761010	2.737362	0.000000	0.327766	0.000000	0.000005	0.000001	0.000000	0.000000
29.070174	22.156244	12.875461	-1.944646	1.193812	2.894663	0.000000	0.244375	0.000000	0.000005	0.000000	0.000000	0.000000
29.619234	23.939905	11.835389	-1.284696	0.711647	3.004918	0.000000	0.156648	0.000000	0.000006	0.000000	0.000000	0.000000
30.168294	24.944426	11.294017	-0.534001	0.280171	3.066171	0.000000	0.066143	0.000000	0.000006	0.000000	0.000000	0.000000
30.717354	25.098851	11.212783	0.254413	-0.131349	3.077335	0.000000	-0.025535	0.000000	0.000006	-0.000000	0.000000	0.000000
31.015927	24.989766	11.281757	0.176517	-0.128958	3.072112	0.000000	-0.017495	0.000000	0.000006	-0.000000	0.000000	0.000000
31.349260	24.876673	11.377742	0.162763	-0.158996	3.066281	0.000000	-0.017495	0.000000	0.000006	-0.000000	0.000000	0.000000
31.682593	24.772749	11.493751	0.149008	-0.189033	3.060449	0.000000	-0.017495	0.000000	0.000006	-0.000000	0.000000	0.000000
32.017177	24.677657	11.630334	0.135202	-0.219184	3.054596	0.000000	-0.017495	0.000000	0.000006	-0.000000	0.000000	0.000000
32.314499	24.600908	11.768636	0.058659	-0.215228	3.049394	0.000000	-0.009527	0.000000	0.000006	-0.000000	0.000000	0.000000
32.863559	24.115056	12.244304	0.820982	-0.656217	3.019283	0.000000	-0.099993	0.000000	0.000005	-0.000000	0.000000	0.000000
33.412619	22.819127	13.226901	1.525315	-1.143946	2.939916	0.000000	-0.188685	0.000000	0.000005	-0.000000	0.000000	0.000000
33.961679	20.804658	14.786416	2.121907	-1.713156	2.812699	0.000000	-0.274031	0.000000	0.000005	-0.000001	0.000000	0.000000
34.510739	18.213942	17.033929	2.568618	-2.404390	2.639890	0.000000	-0.354516	0.000000	0.000005	-0.000001	0.000000	0.000000
34.956699	16.199663	19.044189	1.964291	-2.084501	2.498131	0.000000	-0.281592	0.000000	0.000004	-0.000001	0.000000	0.000000
35.397659	14.697717	20.706328	1.454712	-1.670518	2.389341	0.000000	-0.212304	0.000000	0.000004	-0.000001	0.000000	0.000000
35.838619	13.614284	21.968327	1.011595	-1.180527	2.310542	0.000000	-0.145434	0.000000	0.000004	-0.000000	0.000000	0.000000
36.279579	12.899866	22.772768	0.614695	-0.636824	2.260837	0.000000	-0.080220	0.000000	0.000004	-0.000000	0.000000	0.000000
36.721789	12.521131	23.083350	0.276477	-0.120804	2.239634	0.000000	-0.021411	0.000000	0.000004	-0.000000	0.000000	0.000000
37.019112	12.364325	23.159071	0.250916	-0.133873	2.233268	0.000000	-0.021411	0.000000	0.000004	-0.000000	0.000000	0.000000
37.352445	12.206600	23.253203	0.222259	-0.148524	2.226131	0.000000	-0.021411	0.000000	0.000004	-0.000000	0.000000	0.000000
37.685779	12.067979	23.357103	0.193603	-0.163175	2.218994	0.000000	-0.021411	0.000000	0.000003	-0.000000	0.000000	0.000000
38.020362	11.948051	23.471215	0.164838	-0.177881	2.211830	0.000000	-0.021411	0.000000	0.000003	-0.000000	0.000000	0.000000
38.317684	11.857630	23.580877	0.168355	-0.248775	2.205464	0.000000	-0.026820	0.000000	0.000003	-0.000000	0.000000	0.000000
38.758644	11.860389	23.539104	-0.174634	0.343145	2.207564	0.000000	0.036353	0.000000	0.000003	-0.000000	0.000000	0.000000
39.199604	12.167998	22.980223	-0.525602	0.919452	2.237585	0.000000	0.099940	0.000000	0.000003	-0.000000	0.000000	0.000000
39.640564	12.794512	21.929661	-0.900583	1.453925	2.295870	0.000000	0.164665	0.000000	0.000003	0.000000	0.000000	0.000000
40.081524	13.768554	20.435217	-1.316709	1.922246	2.383082	0.000000	0.231265	0.000000	0.000003	0.000000	0.000000	0.000000
40.527484	15.152191	18.542322	-1.796817	2.304384	2.501685	0.000000	0.300905	0.000000	0.000003	0.000000	0.000000	0.000000
41.076544	16.918075	16.415264	-1.400339	1.592481	2.646372	0.000000	0.225354	0.000000	0.000003	0.000000	0.000000	0.000000
41.625604	18.191353	15.003462	-0.904948	0.994006	2.748417	0.000000	0.145805	0.000000	0.000003	-0.000000	0.000000	0.000000
42.174664	18.882087	14.206354	-0.345636	0.466331	2.806009	0.000000	0.063671	0.000000	0.000003	-0.000000	0.000000	0.000000
42.723724	18.941487	13.967166	0.238090	-0.028127	2.818128	0.000000	-0.019593	0.000000	0.000003	-0.000000	0.000000	0.000000
43.022297	18.833739	13.968553	0.172278	-0.013013	2.814476	0.000000	-0.012230	0.000000	0.000003	-0.000000	0.000000	0.000000
43.502297	18.680949	13.997542	0.146035	-0.047381	2.808606	0.000000	-0.012230	0.000000	0.000003	-0.000000	0.000000	0.000000
43.982297	18.553351	14.059525	0.119792	-0.081750	2.802735	0.000000	-0.012230	0.000000	0.000003	-0.000000	0.000000	0.000000
44.462297	18.450947	14.154502	0.093550	-0.116119	2.796865	0.000000	-0.012230	0.000000	0.000003	-0.000000	0.000000	0.000000
44.942297	18.373736	14.282473	0.067307	-0.150487	2.790995	0.000000	-0.012230	0.000000	0.000003	-0.000000	0.000000	0.000000
45.423547	18.321842	14.443721	-0.049780	-0.113383	2.785126	0.000000	0.001569	0.000000	0.000003	-0.000000	0.000000	0.000000
45.720870	18.356280	14.517343	-0.114009	-0.096302	2.785593	0.000000	0.008847	0.000000	0.000003	-0.000000	0.000000	0.000000
46.269930	18.172386	14.903937	0.446951	-0.611956	2.767880	0.000000	-0.073272	0.000000	0.000002	-0.000000	0.000000	0.000000
46.818990	17.386260	15.877250	0.976341	-1.171199	2.705370	0.000000	-0.154092	0.000000	0.000002	-0.000000	0.000000	0.000000
47.368050	16.053429	17.506611	1.436767	-1.813863	2.599172	0.000000	-0.232178	0.000000	0.000002	-0.000000	0.000000	0.000000
47.917110	14.268038	19.908074	1.795707	-2.585725	2.451168	0.000000	-0.306146	0.000000	0.000002	-0.000000	0.000000	0.000000
48.363070	12.878546	22.043271	1.331062	-2.182013	2.329930	0.000000	-0.237851	0.000000	0.000002	-0.000000	0.000000	0.000000
48.804030	11.884839	23.752898	0.930996	-1.680291	2.239507	0.000000	-0.172662	0.000000	0.000001	-0.000000	0.000000	0.000000
49.244990	11.223939	24.984516	0.573465	-1.102118	2.177368	0.000000	-0.109440	0.000000	0.000001	-0.000000	0.000000	0.000000
49.685950	10.865651	25.682087	0.242135	-0.473799	2.142807	0.000000	-0.047464	0.000000	0.000001	-0.000000	0.000000	0.000000
50.128160	10.793736	25.813589	-0.051781	0.112726	2.135440	0.000000	0.008735	0.000000	0.000001	-0.000000	0.000000	0.000000
50.425482	10.832739	25.750025	-0.079401	0.101062	2.138038	0.000000	0.008735	0.000000	0.000001	-0.000000	0.000000	0.000000
50.758816	10.895994	25.687010	-0.110366	0.087985	2.140949	0.000000	0.008735	0.000000	0.000001	-0.000000	0.000000	0.000000
51.092149	10.979893	25.632712	-0.141331	0.074908	2.143861	0.000000	0.008735	0.000000	0.000001	-0.000000	0.000000	0.000000
51.426732	11.084641	25.587498	-0.082486	-0.145797	2.146762	0.000000	-0.008681	0.000000	0.000000	-0.000000	0.000000	0.000000
51.724055	11.141720	25.677723	-0.082168	-0.220633	2.144181	0.000000	-0.013939	0.000000	0.000000	-0.000000	0.000000	0.000000
52.165015	11.359632	25.586657	-0.413882	0.426365	2.151622	0.000000	0.047722	0.000000	0.000000	-0.000000	0.000000	0.000000
52.605975	11.877289	24.931399	-0.764504	1.053963	2.186348	0.000000	0.109928	0.000000	0.000000	-0.000000	0.000000	0.000000
53.046935	12.718341	23.741761	-1.150054	1.633607	2.248754	0.000000	0.173385	0.000000	-0.000000	-0.000000	0.000000	0.000000
53.487895	13.921215	22.071872	-1.588147	2.138923	2.339550	0.000000	0.238817	0.000000	-0.000000	-0.000000	0.000000	0.000000
53.933855	15.561481	19.972740	-2.103034	2.548254	2.461275	0.000000	0.307368	0.000000	-0.000000	-0.000000	0.000000	0.000000
54.482915	17.673227	17.610763	-1.720311	1.778994	2.609858	0.000000	0.233063	0.000000	-0.000001	-0.000000	0.000000	0.000000
55.031975	19.295079	16.019404	-1.216074	1.136447	2.716447	0.000000	0.154624	0.000000	-0.000001	-0.000000	0.000000	0.000000
55.581035	20.312477	15.085315	-0.625939	0.574847	2.779150	0.000000	0.073442	0.000000	-0.000001	-0.000000	0.000000	0.000000
56.130095	20.653557	14.741961	0.008409	0.054192	2.796856	0.000000	-0.009042	0.000000	-0.000001	-0.000000	0.000000	0.000000
56.428668	20.685085	14.692698	-0.060042	0.072283	2.796339	0.000000	-0.001734	0.000000	-0.000001	-0.000000	0.000000	0.000000
56.762001	20.730504	14.652111	-0.076215	0.049478	2.795761	0.000000	-0.001734	0.000000	-0.000001	-0.000000	0.000000	0.000000
57.095334	20.786704	14.626728	-0.092387	0.026672	2.795183	0.000000	-0.001734	0.000000	-0.000001	-0.000000	0.000000	0.000000
57.429918	20.853958	14.616539	-0.108621	0.003781	2.794603	0.000000	-0.001734	0.000000	-0.000001	-0.000000	0.000000	0.000000
57.727240	20.922838	14.620339	-0.177714	0.021640	2.794087	0.000000	0.005566	0.000000	-0.000001	-0.000000	0.000000	0.000000
58.276300	20.760990	14.877389	0.470743	-0.492567	2.774503	0.000000	-0.076798	0.000000	-0.000002	-0.000000	0.000000	0.000000
58.825360	19.901182	15.714937	1.085950	-1.041859	2.710005	0.000000	-0.157800	0.000000	-0.000002	-0.000000	0.000000	0.000000
59.374420	18.404148	17.192641	1.624450	-1.665360	2.601735	0.000000	-0.236003	0.000000	-0.000002	-0.000000	0.000000	0.000000
59.923480	16.375631	19.415752	2.048208	-2.407481	2.451614	0.000000	-0.310019	0.000000	-0.000002	-0.000000	0.000000	0.000000
60.369440	14.787846	21.391736	1.524776	-2.004671	2.328649	0.000000	-0.241735	0.000000	-0.000002	-0.000000	0.000000	0.000000
60.810400	13.645686	22.948381	1.075218	-1.512022	2.236501	0.000000	-0.176602	0.000000	-0.000002	-0.000000	0.000000	0.000000
61.251360	12.876922	24.038436	0.674783	-0.950576	2.172605	0.000000	-0.113480	0.000000	-0.000002	-0.000000	0.000000	0.000000
61.692320	12.446431	24.612305	0.305178	-0.345880	2.136232	0.000000	-0.051650	0.000000	-0.000002	-0.000000	0.000000	0.000000
62.134530	12.334597	24.643342	-0.020338	0.214065	2.126974	0.000000	0.004376	0.000000	-0.000002	-0.000000	0.000000	0.000000
62.431853	12.353861	24.519801	-0.044453	0.201447	2.128275	0.000000	0.004376	0.000000	-0.000002	-0.000000	0.000000	0.000000
62.765186	12.392508	24.390218	-0.071488	0.187301	2.129733	0.000000	0.004376	0.000000	-0.000002	-0.000000	0.000000	0.000000
63.098520	12.449178	24.270067	-0.098524	0.173155	2.131192	0.000000	0.004376	0.000000	-0.000002	-0.000000	0.000000	0.000000
63.433103	12.524186	24.158948	-0.125660	0.158956	2.132656	0.000000	0.004376	0.000000	-0.000002	-0.000000	0.000000	0.000000
63.730426	12.606079	24.068177	-0.118860	0.087314	2.133957	0.000000	-0.000858	0.000000	-0.000003	-0.000000	0.000000	0.000000
64.171386	12.871387	23.726097	-0.485082	0.685496	2.147120	0.000000	0.060614	0.000000	-0.000003	-0.000000	0.000000	0.000000
64.612346	13.468188	22.868259	-0.873465	1.252489	2.187516	0.000000	0.122777	0.000000	-0.000003	-0.000000	0.000000	0.000000
65.053306	14.423748	21.533694	-1.301755	1.762494	2.255605	0.000000	0.186337	0.000000	-0.000003	-0.000000	0.000000	0.000000
65.494266	15.781724	19.783124	-1.789518	2.192307	2.352162	0.000000	0.252020	0.000000	-0.000003	-0.000001	0.000000	0.000000
65.940226	17.627326	17.671417	-2.363733	2.523129	2.479860	0.000000	0.320975	0.000000	-0.000004	-0.000001	0.000000	0.000000
66.489286	19.993048	15.309008	-1.919439	1.804911	2.635728	0.000000	0.245950	0.000000	-0.000004	-0.000001	0.000000	0.000000
67.038346	21.793093	13.660488	-1.339566	1.215253	2.749142	0.000000	0.166563	0.000000	-0.000004	-0.000000	0.000000	0.000000
67.587406	22.900314	12.608436	-0.665073	0.712155	2.818092	0.000000	0.084220	0.000000	-0.000004	-0.000000	0.000000	0.000000
68.136466	23.236503	12.077916	0.056398	0.259781	2.841353	0.000000	0.000385	0.000000	-0.000004	-0.000000	0.000000	0.000000
68.435038	23.242917	11.911951	-0.017166	0.264521	2.843684	0.000000	0.007809	0.000000	-0.000004	-0.000000	0.000000	0.000000
68.768372	23.259143	11.745584	-0.031512	0.234580	2.846287	0.000000	0.007809	0.000000	-0.000005	-0.000000	0.000000	0.000000
69.101705	23.284933	11.599178	-0.045857	0.204639	2.848890	0.000000	0.007809	0.000000	-0.000005	-0.000000	0.000000	0.000000
69.436288	23.320437	11.472296	-0.060257	0.174585	2.851503	0.000000	0.007809	0.000000	-0.000005	-0.000000	0.000000	0.000000
69.733611	23.360073	11.376420	-0.134090	0.177605	2.853824	0.000000	0.015266	0.000000	-0.000005	-0.000000	0.000000	0.000000
70.282671	23.106131	11.409156	0.593855	-0.237579	2.839020	0.000000	-0.069112	0.000000	-0.000005	-0.000000	0.000000	0.000000
