#ParticleID	Turn	x[m]	xp	y[m]	yp	z[m]	dE[GeV]# s	beta_x	beta_y	alpha_x	alpha_y	D_x	D_y	D_px	D_py	orbit_x	orbit_px	orbit_y	orbit_py
0.300000	11.826944	24.965758	-0.012687	-0.027688	2.618193	0.000000	-0.000018	0.000000	-0.000000	0.000000	0.000000	0.000000
0.601250	11.842262	24.986078	-0.038162	-0.039764	2.618188	0.000000	-0.000018	0.000000	-0.000000	0.000000	0.000000	0.000000
0.898573	11.872431	25.013267	-0.034191	-0.113022	2.618183	0.000000	-0.006439	0.000000	-0.000000	0.000000	0.000000	0.000000
1.339533	12.054878	24.835508	-0.381127	0.514606	2.631637	0.000000	0.067520	0.000000	0.000000	0.000000	0.000000	0.000000
1.780493	12.549787	24.112481	-0.745476	1.118820	2.677843	0.000000	0.142248	0.000000	0.000000	0.000000	0.000000	0.000000
2.221453	13.379770	22.877084	-1.143883	1.672129	2.757326	0.000000	0.218596	0.000000	0.000000	0.000000	0.000000	0.000000
2.662413	14.582746	21.185525	-1.594551	2.149357	2.870992	0.000000	0.297434	0.000000	0.000000	0.000000	0.000000	0.000000
3.108373	16.234467	19.089959	-2.122367	2.529921	3.021997	0.000000	0.380149	0.000000	0.000001	0.000000	0.000000	0.000000
3.657433	18.352487	16.736415	-1.712337	1.781877	3.205449	0.000000	0.287111	0.000000	0.000001	0.000000	0.000000	0.000000
4.206493	19.950760	15.130216	-1.181356	1.160753	3.336343	0.000000	0.188980	0.000000	0.000001	0.000000	0.000000	0.000000
4.755553	20.916390	14.156955	-0.566930	0.622306	3.412357	0.000000	0.087498	0.000000	0.000001	0.000000	0.000000	0.000000
5.304613	21.181170	13.747309	0.087541	0.128184	3.432141	0.000000	-0.015537	0.000000	0.000001	0.000000	0.000000	0.000000
5.603185	21.166156	13.655975	0.018088	0.141799	3.430180	0.000000	-0.006569	0.000000	0.000001	0.000000	0.000000	0.000000
5.936519	21.159348	13.569742	0.002335	0.116899	3.427990	0.000000	-0.006569	0.000000	0.000001	0.000000	0.000000	0.000000
6.269852	21.163043	13.500110	-0.013419	0.091999	3.425800	0.000000	-0.006569	0.000000	0.000001	0.000000	0.000000	0.000000
6.604435	21.177313	13.446909	-0.029231	0.067006	3.423602	0.000000	-0.006569	0.000000	0.000001	0.000000	0.000000	0.000000
6.901758	21.198873	13.413668	-0.098671	0.079842	3.421649	0.000000	0.002371	0.000000	0.000001	0.000000	0.000000	0.000000
7.450818	20.945875	13.586562	0.556728	-0.396591	3.394750	0.000000	-0.100208	0.000000	0.000002	0.000000	0.000000	0.000000
7.999878	19.990605	14.294986	1.172802	-0.901273	3.311934	0.000000	-0.201010	0.000000	0.000002	0.000000	0.000000	0.000000
8.548938	18.400538	15.589399	1.706035	-1.470151	3.174671	0.000000	-0.298247	0.000000	0.000002	0.000000	0.000000	0.000000
9.097998	16.287989	17.562001	2.118763	-2.143744	2.985395	0.000000	-0.390193	0.000000	0.000002	0.000000	0.000000	0.000000
9.543958	14.639718	19.319740	1.590385	-1.781070	2.829691	0.000000	-0.308489	0.000000	0.000002	0.000000	0.000000	0.000000
9.984918	13.440733	20.700640	1.138963	-1.338589	2.710905	0.000000	-0.230782	0.000000	0.000002	0.000000	0.000000	0.000000
10.425878	12.615502	21.662857	0.739577	-0.835203	2.625774	0.000000	-0.155703	0.000000	0.000002	0.000000	0.000000	0.000000
10.866838	12.126323	22.162611	0.373981	-0.293816	2.573327	0.000000	-0.082398	0.000000	0.000002	0.000000	0.000000	0.000000
11.309048	11.950710	22.176648	0.054672	0.206496	2.552948	0.000000	-0.016292	0.000000	0.000002	0.000000	0.000000	0.000000
11.606371	11.925619	22.058012	0.029718	0.192518	2.548104	0.000000	-0.016292	0.000000	0.000002	0.000000	0.000000	0.000000
12.086371	11.916426	21.884027	-0.010567	0.169950	2.540283	0.000000	-0.016292	0.000000	0.000002	0.000000	0.000000	0.000000
12.566371	11.945907	21.731707	-0.050852	0.147383	2.532463	0.000000	-0.016292	0.000000	0.000002	0.000000	0.000000	0.000000
13.046371	12.014061	21.601052	-0.091137	0.124816	2.524643	0.000000	-0.016292	0.000000	0.000002	0.000000	0.000000	0.000000
13.526371	12.120889	21.492062	-0.131422	0.102248	2.516823	0.000000	-0.016292	0.000000	0.000003	0.000000	0.000000	0.000000
14.007621	12.266820	21.404536	-0.171812	0.079622	2.508982	0.000000	-0.016292	0.000000	0.000003	0.000000	0.000000	0.000000
14.304943	12.376406	21.361346	-0.166415	0.013261	2.504138	0.000000	-0.022433	0.000000	0.000003	0.000000	0.000000	0.000000
14.745903	12.681855	21.115828	-0.528902	0.541400	2.509877	0.000000	0.048487	0.000000	0.000003	0.000000	0.000000	0.000000
15.186863	13.316394	20.413659	-0.915552	1.044906	2.546980	0.000000	0.119958	0.000000	0.000003	0.000000	0.000000	0.000000
15.627823	14.309015	19.286785	-1.344032	1.500870	2.615871	0.000000	0.192796	0.000000	0.000003	0.000000	0.000000	0.000000
16.068783	15.705067	17.786480	-1.833917	1.888545	2.717333	0.000000	0.267830	0.000000	0.000003	0.000001	0.000000	0.000000
16.514743	17.591987	15.959502	-2.412346	2.191042	2.854217	0.000000	0.346376	0.000000	0.000004	0.000001	0.000000	0.000000
17.063803	20.015266	13.919409	-1.975033	1.546500	3.020669	0.000000	0.259050	0.000000	0.000004	0.000001	0.000000	0.000000
17.612863	21.878410	12.522821	-1.398214	1.012113	3.137841	0.000000	0.167129	0.000000	0.000004	0.000000	0.000000	0.000000
18.161923	23.049816	11.670260	-0.722632	0.549816	3.203652	0.000000	0.072244	0.000000	0.000004	0.000000	0.000000	0.000000
18.710983	23.446742	11.301002	0.003993	0.126682	3.216937	0.000000	-0.023923	0.000000	0.000004	0.000000	0.000000	0.000000
19.009556	23.484753	11.215804	-0.070042	0.129143	3.212304	0.000000	-0.015518	0.000000	0.000004	0.000000	0.000000	0.000000
19.342889	23.536202	11.139780	-0.084306	0.098928	3.207131	0.000000	-0.015518	0.000000	0.000005	0.000000	0.000000	0.000000
19.676223	23.597160	11.083900	-0.098569	0.068712	3.201958	0.000000	-0.015518	0.000000	0.000005	0.000000	0.000000	0.000000
20.010806	23.668203	11.047931	-0.230151	0.093121	3.196786	0.000000	0.000320	0.000000	0.000005	0.000000	0.000000	0.000000
20.308129	23.808994	11.000628	-0.305585	0.094717	3.196881	0.000000	0.008673	0.000000	0.000005	0.000000	0.000000	0.000000
20.857189	23.733925	11.119087	0.441498	-0.311740	3.175425	0.000000	-0.086712	0.000000	0.000005	-0.000000	0.000000	0.000000
21.406249	22.850809	11.693386	1.157395	-0.740401	3.101943	0.000000	-0.180559	0.000000	0.000005	-0.000000	0.000000	0.000000
21.955309	21.222024	12.764431	1.791540	-1.221800	2.977738	0.000000	-0.271203	0.000000	0.000004	-0.000000	0.000000	0.000000
22.504369	18.962621	14.408509	2.299139	-1.790225	2.805014	0.000000	-0.357036	0.000000	0.000004	-0.000000	0.000000	0.000000
22.950329	17.182128	15.884457	1.707449	-1.505411	2.663082	0.000000	-0.279832	0.000000	0.000004	-0.000000	0.000000	0.000000
23.391289	15.905579	17.061170	1.198464	-1.152958	2.556009	0.000000	-0.206269	0.000000	0.000004	-0.000000	0.000000	0.000000
23.832249	15.052165	17.902639	0.744234	-0.748047	2.480825	0.000000	-0.135056	0.000000	0.000004	-0.000000	0.000000	0.000000
24.273209	14.582894	18.370579	0.324005	-0.309100	2.436675	0.000000	-0.065380	0.000000	0.000004	-0.000000	0.000000	0.000000
24.715418	14.476443	18.443453	-0.046008	0.098614	2.423053	0.000000	-0.002391	0.000000	0.000004	0.000000	0.000000	0.000000
25.012741	14.509921	18.389652	-0.066590	0.082337	2.422342	0.000000	-0.002391	0.000000	0.000004	0.000000	0.000000	0.000000
25.346075	14.562005	18.340844	-0.089664	0.064088	2.421545	0.000000	-0.002391	0.000000	0.000004	0.000000	0.000000	0.000000
25.679408	14.629473	18.304202	-0.112739	0.045839	2.420748	0.000000	-0.002391	0.000000	0.000004	0.000000	0.000000	0.000000
26.013991	14.712365	18.280027	-0.016544	-0.120775	2.419923	0.000000	-0.022023	0.000000	0.000004	0.000000	0.000000	0.000000
26.311314	14.728213	18.356752	-0.000642	-0.182292	2.413375	0.000000	-0.027941	0.000000	0.000004	0.000000	0.000000	0.000000
26.752274	14.910259	18.318396	-0.413763	0.268944	2.416163	0.000000	0.040600	0.000000	0.000004	0.000000	0.000000	0.000000
27.193234	15.463571	17.885982	-0.845787	0.707944	2.449249	0.000000	0.109604	0.000000	0.000004	0.000000	0.000000	0.000000
27.634194	16.413429	17.079184	-1.316453	1.114733	2.513008	0.000000	0.179856	0.000000	0.000004	0.000000	0.000000	0.000000
28.075154	17.803230	15.934712	-1.847265	1.470802	2.608168	0.000000	0.252157	0.000000	0.000004	0.000000	0.000000	0.000000
28.521114	19.720619	14.487400	-2.467430	1.760864	2.737415	0.000000	0.327773	0.000000	0.000005	0.000001	0.000000	0.000000
29.070174	22.157630	12.874686	-1.944810	1.193701	2.894719	0.000000	0.244380	0.000000	0.000005	0.000000	0.000000	0.000000
29.619234	23.941450	11.834721	-1.284818	0.711563	3.004976	0.000000	0.156651	0.000000	0.000005	0.000000	0.000000	0.000000
30.168294	24.946077	11.293430	-0.534073	0.280107	3.066230	0.000000	0.066145	0.000000	0.000005	0.000000	0.000000	0.000000
30.717354	25.100550	11.212258	0.254397	-0.131397	3.077395	0.000000	-0.025535	0.000000	0.000005	-0.000000	0.000000	0.000000
31.015927	24.991478	11.281262	0.176497	-0.129009	3.072172	0.000000	-0.017495	0.000000	0.000005	-0.000000	0.000000	0.000000
31.349260	24.878398	11.377281	0.162744	-0.159049	3.066340	0.000000	-0.017495	0.000000	0.000005	-0.000000	0.000000	0.000000
31.682593	24.774486	11.493326	0.148990	-0.189088	3.060508	0.000000	-0.017495	0.000000	0.000005	-0.000000	0.000000	0.000000
32.017177	24.679406	11.629946	0.135185	-0.219240	3.054655	0.000000	-0.017495	0.000000	0.000005	-0.000000	0.000000	0.000000
32.314499	24.602666	11.768283	0.058638	-0.215287	3.049453	0.000000	-0.009528	0.000000	0.000005	-0.000000	0.000000	0.000000
32.863559	24.116805	12.244011	0.821020	-0.656268	3.019342	0.000000	-0.099995	0.000000	0.000005	-0.000000	0.000000	0.000000
33.412619	22.820803	13.226663	1.525408	-1.143994	2.939972	0.000000	-0.188690	0.000000	0.000005	-0.000000	0.000000	0.000000
33.961679	20.806204	14.786231	2.122050	-1.713205	2.812753	0.000000	-0.274037	0.000000	0.000004	-0.000001	0.000000	0.000000
34.510739	18.215309	17.033799	2.568800	-2.404443	2.639940	0.000000	-0.354523	0.000000	0.000004	-0.000001	0.000000	0.000000
34.956699	16.200886	19.044111	1.964433	-2.084564	2.498178	0.000000	-0.281598	0.000000	0.000004	-0.000001	0.000000	0.000000
35.397659	14.698830	20.706309	1.454820	-1.670588	2.389385	0.000000	-0.212309	0.000000	0.000004	-0.000000	0.000000	0.000000
35.838619	13.615315	21.968372	1.011674	-1.180601	2.310584	0.000000	-0.145438	0.000000	0.000003	-0.000000	0.000000	0.000000
36.279579	12.900838	22.772878	0.614748	-0.636898	2.260878	0.000000	-0.080223	0.000000	0.000003	-0.000000	0.000000	0.000000
36.721789	12.522066	23.083525	0.276510	-0.120877	2.239674	0.000000	-0.021414	0.000000	0.000003	-0.000000	0.000000	0.000000
37.019112	12.365240	23.159290	0.250951	-0.133945	2.233307	0.000000	-0.021414	0.000000	0.000003	-0.000000	0.000000	0.000000
37.352445	12.207491	23.253470	0.222296	-0.148597	2.226169	0.000000	-0.021414	0.000000	0.000003	-0.000000	0.000000	0.000000
37.685779	12.068845	23.357419	0.193641	-0.163248	2.219032	0.000000	-0.021414	0.000000	0.000003	-0.000000	0.000000	0.000000
38.020362	11.948891	23.471579	0.164878	-0.177954	2.211867	0.000000	-0.021414	0.000000	0.000003	-0.000000	0.000000	0.000000
38.317684	11.858446	23.581284	0.168399	-0.248850	2.205500	0.000000	-0.026822	0.000000	0.000003	-0.000000	0.000000	0.000000
38.758644	11.861174	23.539573	-0.174609	0.343082	2.207600	0.000000	0.036352	0.000000	0.000003	-0.000000	0.000000	0.000000
39.199604	12.168768	22.980740	-0.525594	0.919404	2.237620	0.000000	0.099939	0.000000	0.000003	-0.000000	0.000000	0.000000
39.640564	12.795282	21.930213	-0.900591	1.453894	2.295905	0.000000	0.164665	0.000000	0.000003	-0.000000	0.000000	0.000000
40.081524	13.769338	20.435789	-1.316734	1.922233	2.383117	0.000000	0.231267	0.000000	0.000003	0.000000	0.000000	0.000000
40.527484	15.153006	18.542897	-1.796860	2.304391	2.501722	0.000000	0.300907	0.000000	0.000003	0.000000	0.000000	0.000000
41.076544	16.918920	16.415840	-1.400352	1.592473	2.646410	0.000000	0.225355	0.000000	0.000003	0.000000	0.000000	0.000000
41.625604	18.192195	15.004053	-0.904929	0.993984	2.748455	0.000000	0.145805	0.000000	0.000003	-0.000000	0.000000	0.000000
42.174664	18.882893	14.206977	-0.345588	0.466294	2.806047	0.000000	0.063670	0.000000	0.000003	-0.000000	0.000000	0.000000
42.723724	18.942226	13.967839	0.238165	-0.028182	2.818164	0.000000	-0.019596	0.000000	0.000003	-0.000000	0.000000	0.000000
43.022297	18.834434	13.969258	0.172350	-0.013065	2.814512	0.000000	-0.012232	0.000000	0.000003	-0.000000	0.000000	0.000000
43.502297	18.681575	13.998296	0.146108	-0.047432	2.808641	0.000000	-0.012232	0.000000	0.000002	-0.000000	0.000000	0.000000
43.982297	18.553908	14.060327	0.119865	-0.081799	2.802769	0.000000	-0.012232	0.000000	0.000002	-0.000000	0.000000	0.000000
44.462297	18.451433	14.155350	0.093623	-0.116166	2.796898	0.000000	-0.012232	0.000000	0.000002	-0.000000	0.000000	0.000000
44.942297	18.374151	14.283365	0.067381	-0.150533	2.791026	0.000000	-0.012232	0.000000	0.000002	-0.000000	0.000000	0.000000
45.423547	18.322186	14.444656	-0.049708	-0.113422	2.785157	0.000000	0.001567	0.000000	0.000002	-0.000000	0.000000	0.000000
45.720870	18.356582	14.518300	-0.113937	-0.096337	2.785622	0.000000	0.008845	0.000000	0.000002	-0.000000	0.000000	0.000000
46.269930	18.172604	14.904949	0.447031	-0.612022	2.767909	0.000000	-0.073275	0.000000	0.000002	-0.000000	0.000000	0.000000
46.818990	17.386388	15.878354	0.976423	-1.171299	2.705397	0.000000	-0.154096	0.000000	0.000002	-0.000000	0.000000	0.000000
47.368050	16.053468	17.507846	1.436846	-1.814005	2.599196	0.000000	-0.232183	0.000000	0.000002	-0.000000	0.000000	0.000000
47.917110	14.267995	19.909493	1.795777	-2.585919	2.451189	0.000000	-0.306152	0.000000	0.000001	-0.000000	0.000000	0.000000
48.363070	12.878444	22.044850	1.331126	-2.182177	2.329949	0.000000	-0.237856	0.000000	0.000001	-0.000000	0.000000	0.000000
48.804030	11.884681	23.754605	0.931058	-1.680417	2.239523	0.000000	-0.172667	0.000000	0.000001	-0.000000	0.000000	0.000000
49.244990	11.223726	24.986315	0.573528	-1.102199	2.177383	0.000000	-0.109444	0.000000	0.000001	-0.000000	0.000000	0.000000
49.685950	10.865383	25.683936	0.242200	-0.473832	2.142820	0.000000	-0.047468	0.000000	0.000001	-0.000000	0.000000	0.000000
50.128160	10.793407	25.815446	-0.051710	0.112737	2.135452	0.000000	0.008731	0.000000	0.000001	-0.000000	0.000000	0.000000
50.425482	10.832369	25.751875	-0.079331	0.101074	2.138048	0.000000	0.008731	0.000000	0.000000	-0.000000	0.000000	0.000000
50.758816	10.895578	25.688852	-0.110296	0.087998	2.140959	0.000000	0.008731	0.000000	0.000000	-0.000000	0.000000	0.000000
51.092149	10.979430	25.634545	-0.141262	0.074921	2.143869	0.000000	0.008731	0.000000	0.000000	-0.000000	0.000000	0.000000
51.426732	11.084133	25.589321	-0.082422	-0.145797	2.146769	0.000000	-0.008685	0.000000	0.000000	-0.000000	0.000000	0.000000
51.724055	11.141174	25.679547	-0.082107	-0.220637	2.144187	0.000000	-0.013943	0.000000	0.000000	-0.000000	0.000000	0.000000
52.165015	11.359026	25.588463	-0.413806	0.426409	2.151627	0.000000	0.047719	0.000000	-0.000000	-0.000000	0.000000	0.000000
52.605975	11.876609	24.933145	-0.764411	1.054053	2.186351	0.000000	0.109924	0.000000	-0.000000	-0.000000	0.000000	0.000000
53.046935	12.717570	23.743408	-1.149939	1.633739	2.248755	0.000000	0.173382	0.000000	-0.000000	-0.000000	0.000000	0.000000
53.487895	13.920331	22.073386	-1.588005	2.139091	2.339550	0.000000	0.238814	0.000000	-0.000001	-0.000000	0.000000	0.000000
53.933855	15.560456	19.974090	-2.102859	2.548451	2.461274	0.000000	0.307365	0.000000	-0.000001	-0.000000	0.000000	0.000000
54.482915	17.672022	17.611926	-1.720161	1.779140	2.609855	0.000000	0.233060	0.000000	-0.000001	-0.000000	0.000000	0.000000
55.031975	19.293729	16.020430	-1.215960	1.136553	2.716442	0.000000	0.154621	0.000000	-0.000001	-0.000000	0.000000	0.000000
55.581035	20.311026	15.086243	-0.625870	0.574920	2.779144	0.000000	0.073440	0.000000	-0.000001	-0.000000	0.000000	0.000000
56.130095	20.652057	14.742825	0.008429	0.054237	2.796849	0.000000	-0.009044	0.000000	-0.000001	-0.000000	0.000000	0.000000
56.428668	20.683571	14.693534	-0.060019	0.072331	2.796330	0.000000	-0.001737	0.000000	-0.000001	-0.000000	0.000000	0.000000
56.762001	20.728975	14.652915	-0.076193	0.049527	2.795752	0.000000	-0.001737	0.000000	-0.000001	-0.000000	0.000000	0.000000
57.095334	20.785162	14.627498	-0.092367	0.026723	2.795173	0.000000	-0.001737	0.000000	-0.000002	-0.000000	0.000000	0.000000
57.429918	20.852402	14.617275	-0.108601	0.003833	2.794592	0.000000	-0.001737	0.000000	-0.000002	-0.000000	0.000000	0.000000
57.727240	20.921271	14.621043	-0.177692	0.021695	2.794075	0.000000	0.005564	0.000000	-0.000002	-0.000000	0.000000	0.000000
58.276300	20.759427	14.878045	0.470713	-0.492532	2.774490	0.000000	-0.076800	0.000000	-0.000002	-0.000000	0.000000	0.000000
58.825360	19.899681	15.715563	1.085869	-1.041841	2.709990	0.000000	-0.157801	0.000000	-0.000002	-0.000000	0.000000	0.000000
59.374420	18.402761	17.193255	1.624324	-1.665357	2.601720	0.000000	-0.236004	0.000000	-0.000002	-0.000000	0.000000	0.000000
59.923480	16.374402	19.416372	2.048046	-2.407493	2.451599	0.000000	-0.310020	0.000000	-0.000002	0.000000	0.000000	0.000000
60.369440	14.786745	21.392357	1.524650	-2.004664	2.328632	0.000000	-0.241737	0.000000	-0.000002	-0.000000	0.000000	0.000000
60.810400	13.644682	22.948987	1.075122	-1.511995	2.236485	0.000000	-0.176603	0.000000	-0.000002	-0.000000	0.000000	0.000000
61.251360	12.875992	24.039010	0.674713	-0.950531	2.172587	0.000000	-0.113482	0.000000	-0.000002	-0.000000	0.000000	0.000000
61.692320	12.445553	24.612832	0.305129	-0.345819	2.136213	0.000000	-0.051652	0.000000	-0.000002	-0.000000	0.000000	0.000000
62.134530	12.333753	24.643808	-0.020368	0.214138	2.126954	0.000000	0.004373	0.000000	-0.000002	-0.000000	0.000000	0.000000
62.431853	12.353035	24.520224	-0.044485	0.201520	2.128254	0.000000	0.004373	0.000000	-0.000002	-0.000000	0.000000	0.000000
62.765186	12.391704	24.390592	-0.071522	0.187374	2.129711	0.000000	0.004373	0.000000	-0.000002	-0.000000	0.000000	0.000000
63.098520	12.448398	24.270391	-0.098559	0.173228	2.131169	0.000000	0.004373	0.000000	-0.000002	-0.000000	0.000000	0.000000
63.433103	12.523431	24.159224	-0.125698	0.159029	2.132632	0.000000	0.004373	0.000000	-0.000002	-0.000000	0.000000	0.000000
63.730426	12.605347	24.068410	-0.118902	0.087386	2.133932	0.000000	-0.000860	0.000000	-0.000003	-0.000000	0.000000	0.000000
64.171386	12.870684	23.726264	-0.485107	0.685573	2.147094	0.000000	0.060611	0.000000	-0.000003	-0.000000	0.000000	0.000000
64.612346	13.467501	22.868358	-0.873476	1.252566	2.187488	0.000000	0.122772	0.000000	-0.000003	-0.000000	0.000000	0.000000
65.053306	14.423064	21.533726	-1.301752	1.762569	2.255575	0.000000	0.186332	0.000000	-0.000003	-0.000000	0.000000	0.000000
65.494266	15.781031	19.783092	-1.789501	2.192376	2.352130	0.000000	0.252014	0.000000	-0.000003	-0.000001	0.000000	0.000000
65.940226	17.626611	17.671328	-2.363701	2.523188	2.479825	0.000000	0.320969	0.000000	-0.000003	-0.000001	0.000000	0.000000
66.489286	19.992313	15.308858	-1.919434	1.804965	2.635689	0.000000	0.245945	0.000000	-0.000004	-0.000000	0.000000	0.000000
67.038346	21.792368	13.660280	-1.339589	1.215305	2.749101	0.000000	0.166558	0.000000	-0.000004	-0.000000	0.000000	0.000000
67.587406	22.899629	12.608170	-0.665122	0.712208	2.818048	0.000000	0.084218	0.000000	-0.000004	-0.000000	0.000000	0.000000
68.136466	23.235885	12.077588	0.056326	0.259841	2.841308	0.000000	0.000383	0.000000	-0.000004	-0.000000	0.000000	0.000000
68.435038	23.242341	11.911589	-0.017237	0.264578	2.843639	0.000000	0.007807	0.000000	-0.000004	-0.000000	0.000000	0.000000
68.768372	23.258615	11.745184	-0.031583	0.234635	2.846241	0.000000	0.007807	0.000000	-0.000004	-0.000000	0.000000	0.000000
69.101705	23.284452	11.598741	-0.045929	0.204693	2.848844	0.000000	0.007807	0.000000	-0.000004	-0.000000	0.000000	0.000000
69.436288	23.320004	11.471824	-0.060329	0.174637	2.851456	0.000000	0.007807	0.000000	-0.000004	-0.000000	0.000000	0.000000
69.733611	23.359683	11.375917	-0.134161	0.177654	2.853777	0.000000	0.015264	0.000000	-0.000004	-0.000000	0.000000	0.000000
70.282671	23.105826	11.408592	0.593773	-0.237515	2.838973	0.000000	-0.069112	0.000000	-0.000004	0.000000	0.000000	0.000000
