#ParticleID	Turn	x[m]	xp	y[m]	yp	z[m]	dE[GeV]# s	beta_x	beta_y	alpha_x	alpha_y	D_x	D_y	D_px	D_py	orbit_x	orbit_px	orbit_y	orbit_py
0.300000	11.810641	25.030785	-0.010743	-0.027125	2.618150	0.000000	-0.000003	0.000000	-0.000001	0.000001	0.000000	0.000000
0.601250	11.824799	25.050756	-0.036253	-0.039169	2.618149	0.000000	-0.000003	0.000000	-0.000000	0.000001	0.000000	0.000000
0.898573	11.853842	25.077582	-0.032361	-0.112554	2.618148	0.000000	-0.006424	0.000000	0.000000	0.000001	0.000000	0.000000
1.339533	12.034474	24.898661	-0.378826	0.516764	2.631608	0.000000	0.067534	0.000000	0.000001	0.000001	0.000000	0.000000
1.780493	12.527108	24.173019	-0.742598	1.122569	2.677819	0.000000	0.142262	0.000000	0.000001	0.000001	0.000000	0.000000
2.221453	13.354252	22.933673	-1.140298	1.677298	2.757308	0.000000	0.218609	0.000000	0.000002	0.000001	0.000000	0.000000
2.662413	14.553696	21.237013	-1.590095	2.155712	2.870979	0.000000	0.297446	0.000000	0.000002	0.000001	0.000000	0.000000
3.108373	16.200975	19.135353	-2.116827	2.537175	3.021989	0.000000	0.380161	0.000000	0.000003	0.000002	0.000000	0.000000
3.657433	18.313351	16.774861	-1.707657	1.787352	3.205448	0.000000	0.287123	0.000000	0.000004	0.000001	0.000000	0.000000
4.206493	19.907111	15.163443	-1.177867	1.164839	3.336348	0.000000	0.188993	0.000000	0.000005	0.000001	0.000000	0.000000
4.755553	20.869681	14.186321	-0.564878	0.625294	3.412367	0.000000	0.087510	0.000000	0.000005	0.000001	0.000000	0.000000
5.304613	21.133069	13.773896	0.088011	0.130287	3.432158	0.000000	-0.015525	0.000000	0.000006	0.000001	0.000000	0.000000
5.603185	21.117707	13.681257	0.018654	0.143998	3.430200	0.000000	-0.006558	0.000000	0.000006	0.000001	0.000000	0.000000
5.936519	21.110534	13.593548	0.002864	0.119129	3.428014	0.000000	-0.006558	0.000000	0.000006	0.000001	0.000000	0.000000
6.269852	21.113888	13.522419	-0.012926	0.094259	3.425827	0.000000	-0.006558	0.000000	0.000007	0.000001	0.000000	0.000000
6.604435	21.127841	13.467696	-0.028775	0.069297	3.423633	0.000000	-0.006558	0.000000	0.000007	0.000001	0.000000	0.000000
6.901758	21.149140	13.433084	-0.098115	0.082210	3.421683	0.000000	0.002382	0.000000	0.000007	0.000001	0.000000	0.000000
7.450818	20.896449	13.603669	0.555616	-0.394728	3.394789	0.000000	-0.100199	0.000000	0.000008	0.000001	0.000000	0.000000
7.999878	19.943284	14.310262	1.170101	-0.899782	3.311978	0.000000	-0.201002	0.000000	0.000008	0.000000	0.000000	0.000000
8.548938	18.356973	15.603193	1.701936	-1.468926	3.174719	0.000000	-0.298240	0.000000	0.000008	0.000000	0.000000	0.000000
9.097998	16.249564	17.574555	2.113555	-2.142698	2.985446	0.000000	-0.390188	0.000000	0.000008	-0.000000	0.000000	0.000000
9.543958	14.605416	19.331128	1.586313	-1.779510	2.829745	0.000000	-0.308482	0.000000	0.000008	0.000000	0.000000	0.000000
9.984918	13.409595	20.710452	1.135832	-1.336590	2.710962	0.000000	-0.230774	0.000000	0.000009	0.000000	0.000000	0.000000
10.425878	12.586765	21.670746	0.737244	-0.832857	2.625835	0.000000	-0.155694	0.000000	0.000009	0.000001	0.000000	0.000000
10.866838	12.099333	22.168316	0.372338	-0.291229	2.573393	0.000000	-0.082387	0.000000	0.000009	0.000001	0.000000	0.000000
11.309048	11.924895	22.180001	0.053580	0.209202	2.553018	0.000000	-0.016279	0.000000	0.000009	0.000001	0.000000	0.000000
11.606371	11.900469	22.059760	0.028575	0.195211	2.548177	0.000000	-0.016279	0.000000	0.000010	0.000001	0.000000	0.000000
12.086371	11.892413	21.883200	-0.011792	0.172622	2.540363	0.000000	-0.016279	0.000000	0.000010	0.000001	0.000000	0.000000
12.566371	11.923110	21.728325	-0.052160	0.150034	2.532549	0.000000	-0.016279	0.000000	0.000011	0.000001	0.000000	0.000000
13.046371	11.992559	21.595134	-0.092527	0.127446	2.524735	0.000000	-0.016279	0.000000	0.000011	0.000001	0.000000	0.000000
13.526371	12.100762	21.483629	-0.132895	0.104858	2.516921	0.000000	-0.016279	0.000000	0.000012	0.000001	0.000000	0.000000
14.007621	12.248150	21.393602	-0.173367	0.082211	2.509086	0.000000	-0.016279	0.000000	0.000012	0.000001	0.000000	0.000000
14.304943	12.358677	21.348876	-0.168068	0.015872	2.504246	0.000000	-0.022419	0.000000	0.000013	0.000001	0.000000	0.000000
14.745903	12.665424	21.101221	-0.530205	0.543618	2.509991	0.000000	0.048503	0.000000	0.000013	0.000001	0.000000	0.000000
15.186863	13.300980	20.397307	-0.916564	1.046630	2.547102	0.000000	0.119978	0.000000	0.000014	0.000002	0.000000	0.000000
15.627823	14.294383	19.269160	-1.344800	1.502021	2.616001	0.000000	0.192819	0.000000	0.000015	0.000002	0.000000	0.000000
16.068783	15.691018	17.768112	-1.834475	1.889071	2.717473	0.000000	0.267856	0.000000	0.000015	0.000002	0.000000	0.000000
16.514743	17.578352	15.940957	-2.412720	2.190914	2.854369	0.000000	0.346407	0.000000	0.000017	0.000003	0.000000	0.000000
17.063803	20.002400	13.900793	-1.976049	1.546758	3.020835	0.000000	0.259075	0.000000	0.000018	0.000002	0.000000	0.000000
17.612863	21.866982	12.503703	-1.399799	1.012774	3.138018	0.000000	0.167148	0.000000	0.000019	0.000002	0.000000	0.000000
18.161923	23.040392	11.650175	-0.724674	0.550927	3.203838	0.000000	0.072257	0.000000	0.000020	0.000001	0.000000	0.000000
18.710983	23.439747	11.279415	0.001637	0.128322	3.217128	0.000000	-0.023916	0.000000	0.000020	0.000000	0.000000	0.000000
19.009556	23.479151	11.193293	-0.072379	0.130658	3.212497	0.000000	-0.015512	0.000000	0.000020	0.000000	0.000000	0.000000
19.342889	23.532161	11.116284	-0.086650	0.100370	3.207326	0.000000	-0.015512	0.000000	0.000021	0.000000	0.000000	0.000000
19.676223	23.594685	11.059466	-0.100922	0.070082	3.202155	0.000000	-0.015512	0.000000	0.000021	0.000000	0.000000	0.000000
20.010806	23.667305	11.022605	-0.232508	0.094293	3.196985	0.000000	0.000328	0.000000	0.000021	0.000001	0.000000	0.000000
20.308129	23.809501	10.974625	-0.307948	0.095749	3.197082	0.000000	0.008680	0.000000	0.000021	0.000001	0.000000	0.000000
20.857189	23.737006	11.091547	0.439202	-0.309954	3.175628	0.000000	-0.086712	0.000000	0.000021	-0.000000	0.000000	0.000000
21.406249	22.856299	11.663415	1.155329	-0.737734	3.102145	0.000000	-0.180565	0.000000	0.000021	-0.000001	0.000000	0.000000
21.955309	21.229589	12.730962	1.789849	-1.218061	2.977935	0.000000	-0.271215	0.000000	0.000020	-0.000001	0.000000	0.000000
22.504369	18.971779	14.370229	2.297944	-1.785149	2.805203	0.000000	-0.357055	0.000000	0.000019	-0.000002	0.000000	0.000000
22.950329	17.192377	15.842030	1.706187	-1.501226	2.663265	0.000000	-0.279846	0.000000	0.000019	-0.000002	0.000000	0.000000
23.391289	15.916990	17.015515	1.197079	-1.149852	2.556186	0.000000	-0.206279	0.000000	0.000018	-0.000001	0.000000	0.000000
23.832249	15.064875	17.854775	0.742661	-0.746161	2.481000	0.000000	-0.135060	0.000000	0.000018	-0.000001	0.000000	0.000000
24.273209	14.597099	18.321624	0.322174	-0.308520	2.436849	0.000000	-0.065381	0.000000	0.000017	-0.000000	0.000000	0.000000
24.715418	14.492413	18.394576	-0.048147	0.097987	2.423227	0.000000	-0.002387	0.000000	0.000017	0.000000	0.000000	0.000000
25.012741	14.527157	18.341160	-0.068710	0.081669	2.422518	0.000000	-0.002387	0.000000	0.000017	0.000000	0.000000	0.000000
25.346075	14.580649	18.292813	-0.091764	0.063373	2.421722	0.000000	-0.002387	0.000000	0.000017	0.000000	0.000000	0.000000
25.679408	14.649510	18.256662	-0.114818	0.045078	2.420926	0.000000	-0.002387	0.000000	0.000018	0.000000	0.000000	0.000000
26.013991	14.733786	18.233012	-0.018428	-0.121201	2.420103	0.000000	-0.022020	0.000000	0.000018	0.000000	0.000000	0.000000
26.311314	14.750746	18.310003	-0.002448	-0.182641	2.413556	0.000000	-0.027938	0.000000	0.000018	0.000000	0.000000	0.000000
26.752274	14.934633	18.272513	-0.416150	0.267336	2.416347	0.000000	0.040608	0.000000	0.000018	0.000000	0.000000	0.000000
27.193234	15.490346	17.842048	-0.848865	0.705149	2.449437	0.000000	0.109617	0.000000	0.000018	0.000001	0.000000	0.000000
27.634194	16.443274	17.038193	-1.320362	1.110879	2.513202	0.000000	0.179874	0.000000	0.000019	0.000001	0.000000	0.000000
28.075154	17.836953	15.897524	-1.852183	1.466064	2.608370	0.000000	0.252180	0.000000	0.000019	0.000002	0.000000	0.000000
28.521114	19.759267	14.454755	-2.473594	1.755457	2.737628	0.000000	0.327801	0.000000	0.000020	0.000002	0.000000	0.000000
29.070174	22.202537	12.847261	-1.949975	1.189542	2.894945	0.000000	0.244401	0.000000	0.000021	0.000002	0.000000	0.000000
29.619234	23.991309	11.811317	-1.288619	0.708355	3.005211	0.000000	0.156665	0.000000	0.000022	0.000001	0.000000	0.000000
30.168294	24.999234	11.273132	-0.536242	0.277623	3.066471	0.000000	0.066151	0.000000	0.000022	0.000000	0.000000	0.000000
30.717354	25.155117	11.194374	0.254013	-0.133335	3.077637	0.000000	-0.025537	0.000000	0.000022	-0.000000	0.000000	0.000000
31.015927	25.046344	11.264581	0.176010	-0.131052	3.072413	0.000000	-0.017498	0.000000	0.000022	-0.000000	0.000000	0.000000
31.349260	24.933577	11.361982	0.162289	-0.161151	3.066580	0.000000	-0.017498	0.000000	0.000022	-0.000000	0.000000	0.000000
31.682593	24.829958	11.479449	0.148568	-0.191251	3.060748	0.000000	-0.017498	0.000000	0.000022	-0.000000	0.000000	0.000000
32.017177	24.735150	11.617537	0.134796	-0.221463	3.054894	0.000000	-0.017498	0.000000	0.000022	-0.000000	0.000000	0.000000
32.314499	24.658633	11.757211	0.058140	-0.217597	3.049691	0.000000	-0.009531	0.000000	0.000022	-0.000000	0.000000	0.000000
32.863559	24.172295	12.235360	0.822380	-0.658394	3.019576	0.000000	-0.100006	0.000000	0.000021	-0.000001	0.000000	0.000000
33.412619	22.873816	13.220314	1.528532	-1.146086	2.940199	0.000000	-0.188708	0.000000	0.000021	-0.000002	0.000000	0.000000
33.961679	20.854913	14.782229	2.126715	-1.715412	2.812969	0.000000	-0.274062	0.000000	0.000020	-0.000002	0.000000	0.000000
34.510739	18.258194	17.032357	2.574678	-2.406922	2.640142	0.000000	-0.354555	0.000000	0.000018	-0.000003	0.000000	0.000000
34.956699	16.239119	19.045026	1.969021	-2.087349	2.498367	0.000000	-0.281626	0.000000	0.000017	-0.000003	0.000000	0.000000
35.397659	14.733502	20.709765	1.458339	-1.673546	2.389564	0.000000	-0.212331	0.000000	0.000016	-0.000002	0.000000	0.000000
35.838619	13.647295	21.974465	1.014284	-1.183599	2.310755	0.000000	-0.145455	0.000000	0.000015	-0.000002	0.000000	0.000000
36.279579	12.930872	22.781582	0.616569	-0.639799	2.261042	0.000000	-0.080236	0.000000	0.000014	-0.000001	0.000000	0.000000
36.721789	12.550807	23.094703	0.277692	-0.123570	2.239833	0.000000	-0.021423	0.000000	0.000014	-0.000001	0.000000	0.000000
37.019112	12.393265	23.172069	0.252176	-0.136641	2.233464	0.000000	-0.021423	0.000000	0.000014	-0.000001	0.000000	0.000000
37.352445	12.234684	23.268048	0.223569	-0.151294	2.226324	0.000000	-0.021423	0.000000	0.000013	-0.000001	0.000000	0.000000
37.685779	12.095173	23.373795	0.194962	-0.165948	2.219183	0.000000	-0.021423	0.000000	0.000013	-0.000001	0.000000	0.000000
38.020362	11.974318	23.489763	0.166248	-0.180657	2.212016	0.000000	-0.021423	0.000000	0.000013	-0.000001	0.000000	0.000000
38.317684	11.883046	23.601076	0.169869	-0.251598	2.205647	0.000000	-0.026831	0.000000	0.000012	-0.000001	0.000000	0.000000
38.758644	11.884722	23.561549	-0.173683	0.340896	2.207743	0.000000	0.036347	0.000000	0.000012	-0.000001	0.000000	0.000000
39.199604	12.191724	23.004359	-0.525171	0.917880	2.237763	0.000000	0.099938	0.000000	0.000012	-0.000000	0.000000	0.000000
39.640564	12.818079	21.954857	-0.900652	1.453101	2.296047	0.000000	0.164668	0.000000	0.000012	-0.000000	0.000000	0.000000
40.081524	13.792402	20.460796	-1.317281	1.922206	2.383261	0.000000	0.231273	0.000000	0.000012	0.000000	0.000000	0.000000
40.527484	15.176785	18.567580	-1.797921	2.305138	2.501869	0.000000	0.300917	0.000000	0.000012	0.000001	0.000000	0.000000
41.076544	16.943376	16.440051	-1.400514	1.592590	2.646561	0.000000	0.225360	0.000000	0.000012	0.000000	0.000000	0.000000
41.625604	18.216327	15.028475	-0.904182	0.993479	2.748607	0.000000	0.145805	0.000000	0.000012	-0.000000	0.000000	0.000000
42.174664	18.905725	14.232310	-0.343982	0.465131	2.806198	0.000000	0.063664	0.000000	0.000012	-0.000001	0.000000	0.000000
42.723724	18.962873	13.994846	0.240514	-0.030086	2.818312	0.000000	-0.019606	0.000000	0.000011	-0.000001	0.000000	0.000000
43.022297	18.853708	13.997348	0.174653	-0.014859	2.814657	0.000000	-0.012243	0.000000	0.000011	-0.000001	0.000000	0.000000
43.502297	18.698634	14.028077	0.148417	-0.049159	2.808781	0.000000	-0.012243	0.000000	0.000011	-0.000001	0.000000	0.000000
43.982297	18.568747	14.091733	0.122181	-0.083458	2.802905	0.000000	-0.012243	0.000000	0.000010	-0.000001	0.000000	0.000000
44.462297	18.464046	14.188317	0.095946	-0.117758	2.797029	0.000000	-0.012243	0.000000	0.000010	-0.000001	0.000000	0.000000
44.942297	18.384531	14.317828	0.069710	-0.152058	2.791153	0.000000	-0.012243	0.000000	0.000009	-0.000001	0.000000	0.000000
45.423547	18.330322	14.480554	-0.047413	-0.114701	2.785279	0.000000	0.001557	0.000000	0.000009	-0.000001	0.000000	0.000000
45.720870	18.363349	14.554946	-0.111646	-0.097478	2.785742	0.000000	0.008835	0.000000	0.000008	-0.000001	0.000000	0.000000
46.269930	18.176751	14.943466	0.449484	-0.614309	2.768023	0.000000	-0.073288	0.000000	0.000008	-0.000001	0.000000	0.000000
46.818990	17.387832	15.920084	0.978865	-1.174897	2.705503	0.000000	-0.154112	0.000000	0.000007	-0.000001	0.000000	0.000000
47.368050	16.052316	17.554360	1.439103	-1.819170	2.599292	0.000000	-0.232203	0.000000	0.000006	-0.000002	0.000000	0.000000
47.917110	14.264538	19.962701	1.797691	-2.593019	2.451274	0.000000	-0.306175	0.000000	0.000005	-0.000002	0.000000	0.000000
48.363070	12.873337	22.103888	1.332926	-2.188096	2.330025	0.000000	-0.237877	0.000000	0.000005	-0.000002	0.000000	0.000000
48.804030	11.878006	23.818244	0.932828	-1.684890	2.239591	0.000000	-0.172686	0.000000	0.000004	-0.000002	0.000000	0.000000
49.244990	11.215473	25.053184	0.575349	-1.105024	2.177443	0.000000	-0.109462	0.000000	0.000003	-0.000002	0.000000	0.000000
49.685950	10.855470	25.752519	0.244156	-0.474880	2.142873	0.000000	-0.047484	0.000000	0.000002	-0.000001	0.000000	0.000000
50.128160	10.781672	25.884148	-0.049559	0.113347	2.135499	0.000000	0.008716	0.000000	0.000002	-0.000001	0.000000	0.000000
50.425482	10.819361	25.820205	-0.077204	0.101713	2.138091	0.000000	0.008716	0.000000	0.000001	-0.000001	0.000000	0.000000
50.758816	10.881161	25.756744	-0.108196	0.088670	2.140997	0.000000	0.008716	0.000000	0.000001	-0.000001	0.000000	0.000000
51.092149	10.963623	25.701979	-0.139189	0.075627	2.143903	0.000000	0.008716	0.000000	0.000001	-0.000001	0.000000	0.000000
51.426732	11.066948	25.656273	-0.080516	-0.145602	2.146798	0.000000	-0.008700	0.000000	0.000000	-0.000001	0.000000	0.000000
51.724055	11.122865	25.746373	-0.080279	-0.220575	2.144212	0.000000	-0.013958	0.000000	-0.000000	-0.000001	0.000000	0.000000
52.165015	11.338907	25.654454	-0.411514	0.428234	2.151645	0.000000	0.047704	0.000000	-0.000001	-0.000001	0.000000	0.000000
52.605975	11.854226	24.996776	-0.761551	1.057558	2.186364	0.000000	0.109910	0.000000	-0.000002	-0.000001	0.000000	0.000000
53.046935	12.692368	23.803264	-1.146380	1.638764	2.248762	0.000000	0.173368	0.000000	-0.000002	-0.000001	0.000000	0.000000
53.487895	13.891623	22.128222	-1.583585	2.145408	2.339551	0.000000	0.238800	0.000000	-0.000003	-0.000002	0.000000	0.000000
53.933855	15.527343	20.022818	-2.097365	2.555775	2.461269	0.000000	0.307351	0.000000	-0.000004	-0.000002	0.000000	0.000000
54.482915	17.633310	17.653674	-1.715518	1.784605	2.609844	0.000000	0.233046	0.000000	-0.000004	-0.000001	0.000000	0.000000
55.031975	19.250537	16.057014	-1.212494	1.140548	2.716424	0.000000	0.154608	0.000000	-0.000005	-0.000001	0.000000	0.000000
55.581035	20.264791	15.119112	-0.623827	0.577730	2.779120	0.000000	0.073427	0.000000	-0.000006	-0.000001	0.000000	0.000000
56.130095	20.604430	14.773164	0.008905	0.056063	2.796818	0.000000	-0.009056	0.000000	-0.000007	-0.000001	0.000000	0.000000
56.428668	20.635597	14.722723	-0.059453	0.074273	2.796296	0.000000	-0.001748	0.000000	-0.000007	-0.000001	0.000000	0.000000
56.762001	20.680636	14.680797	-0.075664	0.051508	2.795714	0.000000	-0.001748	0.000000	-0.000007	-0.000001	0.000000	0.000000
57.095334	20.736482	14.654047	-0.091874	0.028742	2.795132	0.000000	-0.001748	0.000000	-0.000007	-0.000001	0.000000	0.000000
57.429918	20.803405	14.642459	-0.108145	0.005891	2.794547	0.000000	-0.001748	0.000000	-0.000008	-0.000001	0.000000	0.000000
57.727240	20.872012	14.644994	-0.177143	0.023852	2.794028	0.000000	0.005553	0.000000	-0.000008	-0.000001	0.000000	0.000000
58.276300	20.710474	14.899992	0.469609	-0.491021	2.774437	0.000000	-0.076809	0.000000	-0.000009	-0.000001	0.000000	0.000000
58.825360	19.852816	15.736155	1.083191	-1.040868	2.709933	0.000000	-0.157809	0.000000	-0.000009	-0.000000	0.000000	0.000000
59.374420	18.359620	17.213041	1.620261	-1.664853	2.601659	0.000000	-0.236009	0.000000	-0.000009	-0.000000	0.000000	0.000000
59.923480	16.336357	19.435843	2.042884	-2.407423	2.451535	0.000000	-0.310024	0.000000	-0.000009	0.000000	0.000000	0.000000
60.369440	14.752787	21.411469	1.520613	-2.003929	2.328567	0.000000	-0.241742	0.000000	-0.000009	-0.000000	0.000000	0.000000
60.810400	13.613862	22.967170	1.072016	-1.510633	2.236416	0.000000	-0.176610	0.000000	-0.000009	-0.000000	0.000000	0.000000
61.251360	12.847553	24.055738	0.672396	-0.948605	2.172516	0.000000	-0.113491	0.000000	-0.000009	-0.000001	0.000000	0.000000
61.692320	12.418850	24.627644	0.303496	-0.343417	2.136138	0.000000	-0.051663	0.000000	-0.000010	-0.000001	0.000000	0.000000
62.134530	12.308220	24.656325	-0.021453	0.216873	2.126873	0.000000	0.004360	0.000000	-0.000010	-0.000001	0.000000	0.000000
62.431853	12.328163	24.531116	-0.045621	0.204247	2.128170	0.000000	0.004360	0.000000	-0.000010	-0.000001	0.000000	0.000000
62.765186	12.367608	24.399670	-0.072716	0.190092	2.129623	0.000000	0.004360	0.000000	-0.000011	-0.000001	0.000000	0.000000
63.098520	12.425117	24.277660	-0.099810	0.175937	2.131077	0.000000	0.004360	0.000000	-0.000011	-0.000001	0.000000	0.000000
63.433103	12.501006	24.164683	-0.127007	0.161729	2.132536	0.000000	0.004360	0.000000	-0.000011	-0.000001	0.000000	0.000000
63.730426	12.583716	24.072265	-0.120312	0.090064	2.133832	0.000000	-0.000874	0.000000	-0.000012	-0.000001	0.000000	0.000000
64.171386	12.850091	23.727735	-0.486061	0.688283	2.146988	0.000000	0.060595	0.000000	-0.000012	-0.000001	0.000000	0.000000
64.612346	13.447563	22.867470	-0.874016	1.255185	2.187375	0.000000	0.122754	0.000000	-0.000013	-0.000002	0.000000	0.000000
65.053306	14.403430	21.530612	-1.301903	1.764978	2.255453	0.000000	0.186311	0.000000	-0.000014	-0.000002	0.000000	0.000000
65.494266	15.761361	19.777987	-1.789270	2.194465	2.351998	0.000000	0.251989	0.000000	-0.000015	-0.000002	0.000000	0.000000
65.940226	17.606559	17.664541	-2.363075	2.524859	2.479683	0.000000	0.320940	0.000000	-0.000016	-0.000003	0.000000	0.000000
66.489286	19.972012	15.300287	-1.919612	1.806562	2.635534	0.000000	0.245921	0.000000	-0.000017	-0.000002	0.000000	0.000000
67.038346	21.772698	13.649944	-1.340557	1.216943	2.748934	0.000000	0.166540	0.000000	-0.000018	-0.000002	0.000000	0.000000
67.587406	22.881427	12.595960	-0.666813	0.714003	2.817873	0.000000	0.084205	0.000000	-0.000019	-0.000001	0.000000	0.000000
68.136466	23.219884	12.063264	0.054032	0.261921	2.841128	0.000000	0.000376	0.000000	-0.000019	-0.000000	0.000000	0.000000
68.435038	23.227692	11.896061	-0.019506	0.266563	2.843457	0.000000	0.007800	0.000000	-0.000019	-0.000000	0.000000	0.000000
68.768372	23.245481	11.728356	-0.033862	0.236552	2.846057	0.000000	0.007800	0.000000	-0.000020	-0.000000	0.000000	0.000000
69.101705	23.272842	11.580658	-0.048218	0.206540	2.848658	0.000000	0.007800	0.000000	-0.000020	-0.000000	0.000000	0.000000
69.436288	23.309929	11.452527	-0.062628	0.176416	2.851268	0.000000	0.007800	0.000000	-0.000020	-0.000000	0.000000	0.000000
69.733611	23.350978	11.355581	-0.136455	0.179322	2.853587	0.000000	0.015258	0.000000	-0.000020	-0.000001	0.000000	0.000000
70.282671	23.099777	11.386105	0.591258	-0.235243	2.838781	0.000000	-0.069112	0.000000	-0.000020	0.000000	0.000000	0.000000
