#ParticleID	Turn	x[m]	xp	y[m]	yp	z[m]	dE[GeV]# s	beta_x	beta_y	alpha_x	alpha_y	D_x	D_y	D_px	D_py	orbit_x	orbit_px	orbit_y	orbit_py
0.300000	11.805800	25.049743	-0.010292	-0.026890	2.618257	0.000000	-0.000044	0.000000	-0.000001	0.000002	0.000000	0.000000
0.601250	11.819689	25.069569	-0.035812	-0.038925	2.618243	0.000000	-0.000044	0.000000	-0.000001	0.000002	0.000000	0.000000
0.898573	11.848474	25.096247	-0.031943	-0.112345	2.618229	0.000000	-0.006465	0.000000	-0.000000	0.000002	0.000000	0.000000
1.339533	12.028680	24.916925	-0.378275	0.517461	2.631672	0.000000	0.067495	0.000000	0.000001	0.000002	0.000000	0.000000
1.780493	12.520761	24.190464	-0.741889	1.123723	2.677866	0.000000	0.142223	0.000000	0.000001	0.000002	0.000000	0.000000
2.221453	13.347199	22.949917	-1.139399	1.678857	2.757337	0.000000	0.218572	0.000000	0.000002	0.000002	0.000000	0.000000
2.662413	14.545751	21.251729	-1.588964	2.157604	2.870992	0.000000	0.297410	0.000000	0.000003	0.000002	0.000000	0.000000
3.108373	16.191898	19.148263	-2.115410	2.539316	3.021985	0.000000	0.380125	0.000000	0.000004	0.000002	0.000000	0.000000
3.657433	18.302843	16.785715	-1.706482	1.788978	3.205424	0.000000	0.287087	0.000000	0.000005	0.000002	0.000000	0.000000
4.206493	19.895485	15.172740	-1.177017	1.166066	3.336304	0.000000	0.188958	0.000000	0.000006	0.000002	0.000000	0.000000
4.755553	20.857329	14.194447	-0.564413	0.626210	3.412305	0.000000	0.087477	0.000000	0.000007	0.000001	0.000000	0.000000
5.304613	21.120435	13.781157	0.088058	0.130957	3.432078	0.000000	-0.015556	0.000000	0.000007	0.000001	0.000000	0.000000
5.603185	21.105028	13.688105	0.018725	0.144693	3.430110	0.000000	-0.006589	0.000000	0.000008	0.000001	0.000000	0.000000
5.936519	21.097811	13.599930	0.002926	0.119831	3.427913	0.000000	-0.006589	0.000000	0.000008	0.000001	0.000000	0.000000
6.269852	21.101126	13.528330	-0.012874	0.094969	3.425716	0.000000	-0.006589	0.000000	0.000008	0.000001	0.000000	0.000000
6.604435	21.115047	13.473129	-0.028733	0.070014	3.423511	0.000000	-0.006589	0.000000	0.000009	0.000001	0.000000	0.000000
6.901758	21.136323	13.438089	-0.098046	0.082947	3.421552	0.000000	0.002350	0.000000	0.000009	0.000001	0.000000	0.000000
7.450818	20.883792	13.607938	0.555257	-0.394118	3.394642	0.000000	-0.100226	0.000000	0.000010	0.000001	0.000000	0.000000
7.999878	19.931246	14.313911	1.169340	-0.899255	3.311817	0.000000	-0.201024	0.000000	0.000010	0.000001	0.000000	0.000000
8.548938	18.345968	15.606291	1.700827	-1.468444	3.174547	0.000000	-0.298257	0.000000	0.000010	0.000000	0.000000	0.000000
9.097998	16.239933	17.577133	2.112176	-2.142227	2.985267	0.000000	-0.390199	0.000000	0.000011	-0.000000	0.000000	0.000000
9.543958	14.596882	19.333228	1.585225	-1.778912	2.829559	0.000000	-0.308498	0.000000	0.000011	0.000000	0.000000	0.000000
9.984918	13.401912	20.711980	1.134984	-1.335894	2.710769	0.000000	-0.230795	0.000000	0.000011	0.000000	0.000000	0.000000
10.425878	12.579739	21.671627	0.736596	-0.832093	2.625631	0.000000	-0.155720	0.000000	0.000011	0.000001	0.000000	0.000000
10.866838	12.092801	22.168507	0.371862	-0.290433	2.573175	0.000000	-0.082418	0.000000	0.000011	0.000001	0.000000	0.000000
11.309048	11.918717	22.179486	0.053237	0.209997	2.552785	0.000000	-0.016315	0.000000	0.000012	0.000001	0.000000	0.000000
11.606371	11.894498	22.058774	0.028220	0.196000	2.547934	0.000000	-0.016315	0.000000	0.000012	0.000001	0.000000	0.000000
12.086371	11.886793	21.881460	-0.012167	0.173404	2.540102	0.000000	-0.016315	0.000000	0.000013	0.000001	0.000000	0.000000
12.566371	11.917858	21.725838	-0.052554	0.150808	2.532270	0.000000	-0.016315	0.000000	0.000014	0.000001	0.000000	0.000000
13.046371	11.987696	21.591908	-0.092941	0.128212	2.524438	0.000000	-0.016315	0.000000	0.000014	0.000001	0.000000	0.000000
13.526371	12.096304	21.479670	-0.133328	0.105616	2.516606	0.000000	-0.016315	0.000000	0.000015	0.000001	0.000000	0.000000
14.007621	12.244119	21.388917	-0.173820	0.082962	2.508754	0.000000	-0.016315	0.000000	0.000015	0.000001	0.000000	0.000000
14.304943	12.354918	21.343746	-0.168543	0.016632	2.503903	0.000000	-0.022455	0.000000	0.000016	0.000001	0.000000	0.000000
14.745903	12.662051	21.095486	-0.530609	0.544224	2.509630	0.000000	0.048459	0.000000	0.000017	0.000002	0.000000	0.000000
15.186863	13.297941	20.391115	-0.916918	1.047054	2.546719	0.000000	0.119924	0.000000	0.000017	0.000002	0.000000	0.000000
15.627823	14.291639	19.262683	-1.345118	1.502243	2.615592	0.000000	0.192755	0.000000	0.000018	0.000003	0.000000	0.000000
16.068783	15.688545	17.761531	-1.834772	1.889082	2.717033	0.000000	0.267781	0.000000	0.000020	0.000003	0.000000	0.000000
16.514743	17.576141	15.934462	-2.413011	2.190712	2.853892	0.000000	0.346319	0.000000	0.000021	0.000004	0.000000	0.000000
17.063803	20.000582	13.894436	-1.976470	1.546708	3.020315	0.000000	0.259004	0.000000	0.000023	0.000003	0.000000	0.000000
17.612863	21.865685	12.497318	-1.400320	1.012874	3.137463	0.000000	0.167095	0.000000	0.000024	0.000002	0.000000	0.000000
18.161923	23.039707	11.643595	-0.725260	0.551184	3.203259	0.000000	0.072222	0.000000	0.000025	0.000001	0.000000	0.000000
18.710983	23.439720	11.272458	0.001030	0.128754	3.216535	0.000000	-0.023932	0.000000	0.000026	0.000001	0.000000	0.000000
19.009556	23.479486	11.186096	-0.072984	0.131051	3.211898	0.000000	-0.015530	0.000000	0.000026	0.000001	0.000000	0.000000
19.342889	23.532899	11.108832	-0.087257	0.100740	3.206721	0.000000	-0.015530	0.000000	0.000026	0.000001	0.000000	0.000000
19.676223	23.595828	11.051776	-0.101529	0.070429	3.201544	0.000000	-0.015530	0.000000	0.000026	0.000001	0.000000	0.000000
20.010806	23.668854	11.014690	-0.233124	0.094579	3.196367	0.000000	0.000307	0.000000	0.000027	0.000001	0.000000	0.000000
20.308129	23.811418	10.966546	-0.308569	0.095991	3.196458	0.000000	0.008657	0.000000	0.000027	0.000001	0.000000	0.000000
20.857189	23.739566	11.083076	0.438658	-0.309479	3.174997	0.000000	-0.086715	0.000000	0.000027	-0.000000	0.000000	0.000000
21.406249	22.859397	11.654281	1.154900	-0.736994	3.101518	0.000000	-0.180547	0.000000	0.000027	-0.000001	0.000000	0.000000
21.955309	21.233080	12.720847	1.789566	-1.217002	2.977324	0.000000	-0.271178	0.000000	0.000026	-0.000002	0.000000	0.000000
22.504369	18.975492	14.358743	2.297825	-1.783696	2.804617	0.000000	-0.356999	0.000000	0.000025	-0.000003	0.000000	0.000000
22.950329	17.196221	15.829365	1.706011	-1.500047	2.662701	0.000000	-0.279804	0.000000	0.000024	-0.000002	0.000000	0.000000
23.391289	15.921018	17.001951	1.196836	-1.148999	2.555638	0.000000	-0.206251	0.000000	0.000023	-0.000001	0.000000	0.000000
23.832249	15.069150	17.840618	0.742342	-0.745673	2.480461	0.000000	-0.135047	0.000000	0.000022	-0.000001	0.000000	0.000000
24.273209	14.601695	18.307206	0.321763	-0.308420	2.436313	0.000000	-0.065381	0.000000	0.000022	-0.000000	0.000000	0.000000
24.715418	14.497420	18.380243	-0.048658	0.097733	2.422688	0.000000	-0.002399	0.000000	0.000022	0.000000	0.000000	0.000000
25.012741	14.532466	18.326982	-0.069215	0.081402	2.421975	0.000000	-0.002399	0.000000	0.000022	0.000000	0.000000	0.000000
25.346075	14.586291	18.278816	-0.092262	0.063094	2.421175	0.000000	-0.002399	0.000000	0.000022	0.000000	0.000000	0.000000
25.679408	14.655481	18.242857	-0.115309	0.044785	2.420375	0.000000	-0.002399	0.000000	0.000022	0.000000	0.000000	0.000000
26.013991	14.740083	18.219406	-0.018861	-0.121397	2.419548	0.000000	-0.022028	0.000000	0.000022	0.000000	0.000000	0.000000
26.311314	14.757299	18.296518	-0.002858	-0.182815	2.412998	0.000000	-0.027944	0.000000	0.000022	0.000000	0.000000	0.000000
26.752274	14.941619	18.259343	-0.416727	0.266799	2.415783	0.000000	0.040587	0.000000	0.000023	0.000001	0.000000	0.000000
27.193234	15.497924	17.829502	-0.849634	0.704275	2.448861	0.000000	0.109582	0.000000	0.000023	0.000001	0.000000	0.000000
27.634194	16.451628	17.026553	-1.321360	1.109707	2.512607	0.000000	0.179824	0.000000	0.000024	0.000002	0.000000	0.000000
28.075154	17.846304	15.887029	-1.853454	1.464647	2.607750	0.000000	0.252114	0.000000	0.000025	0.000002	0.000000	0.000000
28.521114	19.769897	14.445610	-2.475200	1.753860	2.736974	0.000000	0.327719	0.000000	0.000026	0.000003	0.000000	0.000000
29.070174	22.214784	12.839666	-1.951297	1.188302	2.894251	0.000000	0.244340	0.000000	0.000027	0.000002	0.000000	0.000000
29.619234	24.004808	11.804927	-1.289564	0.707385	3.004490	0.000000	0.156627	0.000000	0.000028	0.000001	0.000000	0.000000
30.168294	25.013532	11.267693	-0.536743	0.276853	3.065735	0.000000	0.066136	0.000000	0.000029	0.000000	0.000000	0.000000
30.717354	25.169704	11.189696	0.253992	-0.133959	3.076899	0.000000	-0.025528	0.000000	0.000029	-0.000001	0.000000	0.000000
31.015927	25.060962	11.260289	0.175961	-0.131705	3.071677	0.000000	-0.017490	0.000000	0.000029	-0.000000	0.000000	0.000000
31.349260	24.948226	11.358131	0.162248	-0.161821	3.065847	0.000000	-0.017490	0.000000	0.000028	-0.000000	0.000000	0.000000
31.682593	24.844631	11.476050	0.148535	-0.191937	3.060018	0.000000	-0.017490	0.000000	0.000028	-0.000000	0.000000	0.000000
32.017177	24.749842	11.614603	0.134771	-0.222166	3.054166	0.000000	-0.017490	0.000000	0.000028	-0.000000	0.000000	0.000000
32.314499	24.673337	11.754700	0.058088	-0.218323	3.048966	0.000000	-0.009526	0.000000	0.000028	-0.000000	0.000000	0.000000
32.863559	24.186789	12.233625	0.822814	-0.659089	3.018860	0.000000	-0.099978	0.000000	0.000027	-0.000001	0.000000	0.000000
33.412619	22.887579	13.219349	1.529420	-1.146801	2.939505	0.000000	-0.188657	0.000000	0.000027	-0.000002	0.000000	0.000000
33.961679	20.867479	14.782082	2.127995	-1.716196	2.812309	0.000000	-0.273989	0.000000	0.000025	-0.000003	0.000000	0.000000
34.510739	18.269179	17.033135	2.576259	-2.407833	2.639528	0.000000	-0.354462	0.000000	0.000023	-0.000004	0.000000	0.000000
34.956699	16.248849	19.046648	1.970264	-2.088323	2.497791	0.000000	-0.281547	0.000000	0.000022	-0.000003	0.000000	0.000000
35.397659	14.742261	20.712259	1.459303	-1.674540	2.389020	0.000000	-0.212268	0.000000	0.000020	-0.000003	0.000000	0.000000
35.838619	13.655309	21.977827	1.015014	-1.184567	2.310236	0.000000	-0.145405	0.000000	0.000019	-0.000002	0.000000	0.000000
36.279579	12.938333	22.785770	0.617098	-0.640697	2.260543	0.000000	-0.080199	0.000000	0.000019	-0.000002	0.000000	0.000000
36.721789	12.557880	23.099638	0.278060	-0.124367	2.239348	0.000000	-0.021397	0.000000	0.000018	-0.000001	0.000000	0.000000
37.019112	12.400117	23.177479	0.252553	-0.137437	2.232986	0.000000	-0.021397	0.000000	0.000018	-0.000001	0.000000	0.000000
37.352445	12.241280	23.273988	0.223957	-0.152091	2.225854	0.000000	-0.021397	0.000000	0.000017	-0.000001	0.000000	0.000000
37.685779	12.101507	23.380266	0.195361	-0.166744	2.218722	0.000000	-0.021397	0.000000	0.000017	-0.000001	0.000000	0.000000
38.020362	11.980382	23.496767	0.166658	-0.181452	2.211564	0.000000	-0.021397	0.000000	0.000016	-0.000001	0.000000	0.000000
38.317684	11.888864	23.608553	0.170302	-0.252410	2.205202	0.000000	-0.026804	0.000000	0.000016	-0.000001	0.000000	0.000000
38.758644	11.890215	23.569652	-0.173379	0.340294	2.207308	0.000000	0.036362	0.000000	0.000015	-0.000001	0.000000	0.000000
39.199604	12.197000	23.012890	-0.524981	0.917514	2.237332	0.000000	0.099942	0.000000	0.000015	-0.000000	0.000000	0.000000
39.640564	12.823234	21.963600	-0.900567	1.452988	2.295617	0.000000	0.164661	0.000000	0.000015	-0.000000	0.000000	0.000000
40.081524	13.797528	20.469524	-1.317298	1.922352	2.382825	0.000000	0.231255	0.000000	0.000015	0.000000	0.000000	0.000000
40.527484	15.181971	18.576063	-1.798041	2.305538	2.501423	0.000000	0.300888	0.000000	0.000015	0.000001	0.000000	0.000000
41.076544	16.948580	16.448224	-1.400427	1.592758	2.646103	0.000000	0.225345	0.000000	0.000016	0.000000	0.000000	0.000000
41.625604	18.221326	15.036585	-0.903895	0.993428	2.748145	0.000000	0.145806	0.000000	0.000016	-0.000000	0.000000	0.000000
42.174664	18.910307	14.240597	-0.343515	0.464857	2.805740	0.000000	0.063680	0.000000	0.000015	-0.000001	0.000000	0.000000
42.723724	18.966858	14.003565	0.241128	-0.030603	2.817866	0.000000	-0.019576	0.000000	0.000015	-0.000001	0.000000	0.000000
43.022297	18.857331	14.006359	0.175258	-0.015340	2.814220	0.000000	-0.012214	0.000000	0.000014	-0.000001	0.000000	0.000000
43.502297	18.701677	14.037540	0.149022	-0.049619	2.808358	0.000000	-0.012214	0.000000	0.000014	-0.000001	0.000000	0.000000
43.982297	18.571210	14.101627	0.122785	-0.083897	2.802496	0.000000	-0.012214	0.000000	0.000013	-0.000001	0.000000	0.000000
44.462297	18.465929	14.198622	0.096549	-0.118175	2.796634	0.000000	-0.012214	0.000000	0.000012	-0.000001	0.000000	0.000000
44.942297	18.385835	14.328523	0.070313	-0.152453	2.790771	0.000000	-0.012214	0.000000	0.000012	-0.000001	0.000000	0.000000
45.423547	18.331045	14.491619	-0.046813	-0.115020	2.784911	0.000000	0.001584	0.000000	0.000011	-0.000001	0.000000	0.000000
45.720870	18.363716	14.566197	-0.111045	-0.097754	2.785383	0.000000	0.008861	0.000000	0.000011	-0.000001	0.000000	0.000000
46.269930	18.176456	14.955209	0.450080	-0.614935	2.767680	0.000000	-0.073251	0.000000	0.000010	-0.000002	0.000000	0.000000
46.818990	17.386904	15.932724	0.979414	-1.175916	2.705184	0.000000	-0.154065	0.000000	0.000009	-0.000002	0.000000	0.000000
47.368050	16.050829	17.568367	1.439567	-1.820655	2.599002	0.000000	-0.232145	0.000000	0.000008	-0.000002	0.000000	0.000000
47.917110	14.262605	19.978641	1.798036	-2.595076	2.451019	0.000000	-0.306108	0.000000	0.000007	-0.000002	0.000000	0.000000
48.363070	12.871097	22.121510	1.333272	-2.189793	2.329798	0.000000	-0.237817	0.000000	0.000006	-0.000002	0.000000	0.000000
48.804030	11.875454	23.837175	0.933192	-1.686152	2.239390	0.000000	-0.172631	0.000000	0.000005	-0.000002	0.000000	0.000000
49.244990	11.212586	25.073014	0.575747	-1.105792	2.177265	0.000000	-0.109412	0.000000	0.000004	-0.000002	0.000000	0.000000
49.685950	10.852210	25.772796	0.244606	-0.475120	2.142716	0.000000	-0.047438	0.000000	0.000003	-0.000002	0.000000	0.000000
50.128160	10.777983	25.904398	-0.049045	0.113597	2.135361	0.000000	0.008758	0.000000	0.000003	-0.000002	0.000000	0.000000
50.425482	10.815369	25.840304	-0.076698	0.101971	2.137966	0.000000	0.008758	0.000000	0.000002	-0.000002	0.000000	0.000000
50.758816	10.876835	25.776668	-0.107699	0.088937	2.140886	0.000000	0.008758	0.000000	0.000001	-0.000002	0.000000	0.000000
51.092149	10.958968	25.721721	-0.138701	0.075904	2.143806	0.000000	0.008758	0.000000	0.000001	-0.000002	0.000000	0.000000
51.426732	11.061970	25.675827	-0.080077	-0.145474	2.146715	0.000000	-0.008657	0.000000	0.000000	-0.000002	0.000000	0.000000
51.724055	11.117630	25.765848	-0.079863	-0.220485	2.144141	0.000000	-0.013915	0.000000	-0.000000	-0.000002	0.000000	0.000000
52.165015	11.333249	25.673623	-0.410970	0.428836	2.151594	0.000000	0.047746	0.000000	-0.000001	-0.000002	0.000000	0.000000
52.605975	11.848022	25.015198	-0.760852	1.058645	2.186331	0.000000	0.109950	0.000000	-0.000002	-0.000002	0.000000	0.000000
53.046935	12.685468	23.820530	-1.145495	1.640287	2.248747	0.000000	0.173407	0.000000	-0.000003	-0.000002	0.000000	0.000000
53.487895	13.883846	22.143977	-1.582473	2.147297	2.339553	0.000000	0.238839	0.000000	-0.000004	-0.000002	0.000000	0.000000
53.933855	15.518453	20.036756	-2.095974	2.557946	2.461289	0.000000	0.307390	0.000000	-0.000004	-0.000002	0.000000	0.000000
54.482915	17.623015	17.665536	-1.714364	1.786236	2.609886	0.000000	0.233085	0.000000	-0.000005	-0.000002	0.000000	0.000000
55.031975	19.239143	16.067327	-1.211659	1.141756	2.716487	0.000000	0.154645	0.000000	-0.000006	-0.000002	0.000000	0.000000
55.581035	20.252683	15.128292	-0.623369	0.578600	2.779202	0.000000	0.073462	0.000000	-0.000007	-0.000001	0.000000	0.000000
56.130095	20.592043	14.781545	0.008952	0.056657	2.796919	0.000000	-0.009024	0.000000	-0.000008	-0.000001	0.000000	0.000000
56.428668	20.623166	14.730734	-0.059383	0.074899	2.796407	0.000000	-0.001716	0.000000	-0.000008	-0.000001	0.000000	0.000000
56.762001	20.668162	14.688386	-0.075603	0.052143	2.795835	0.000000	-0.001716	0.000000	-0.000009	-0.000001	0.000000	0.000000
57.095334	20.723971	14.661209	-0.091824	0.029388	2.795264	0.000000	-0.001716	0.000000	-0.000009	-0.000001	0.000000	0.000000
57.429918	20.790863	14.649186	-0.108104	0.006547	2.794690	0.000000	-0.001716	0.000000	-0.000010	-0.000001	0.000000	0.000000
57.727240	20.859448	14.651327	-0.177079	0.024534	2.794180	0.000000	0.005585	0.000000	-0.000010	-0.000001	0.000000	0.000000
58.276300	20.698071	14.905672	0.469254	-0.490505	2.774606	0.000000	-0.076782	0.000000	-0.000011	-0.000001	0.000000	0.000000
58.825360	19.841024	15.741343	1.082441	-1.040483	2.710115	0.000000	-0.157787	0.000000	-0.000011	-0.000001	0.000000	0.000000
59.374420	18.348844	17.217864	1.619170	-1.664571	2.601851	0.000000	-0.235994	0.000000	-0.000011	-0.000000	0.000000	0.000000
59.923480	16.326932	19.440404	2.041529	-2.407223	2.451735	0.000000	-0.310015	0.000000	-0.000011	0.000000	0.000000	0.000000
60.369440	14.744441	21.415774	1.519543	-2.003558	2.328772	0.000000	-0.241727	0.000000	-0.000011	-0.000000	0.000000	0.000000
60.810400	13.606353	22.971079	1.071180	-1.510109	2.236629	0.000000	-0.176591	0.000000	-0.000011	-0.000000	0.000000	0.000000
61.251360	12.840693	24.059126	0.671756	-0.947952	2.172738	0.000000	-0.113465	0.000000	-0.000012	-0.000001	0.000000	0.000000
61.692320	12.412479	24.630410	0.303023	-0.342664	2.136373	0.000000	-0.051632	0.000000	-0.000012	-0.000001	0.000000	0.000000
62.134530	12.302202	24.658393	-0.021796	0.217685	2.127124	0.000000	0.004397	0.000000	-0.000013	-0.000001	0.000000	0.000000
62.431853	12.322352	24.532703	-0.045976	0.205056	2.128431	0.000000	0.004397	0.000000	-0.000013	-0.000001	0.000000	0.000000
62.765186	12.362038	24.400719	-0.073084	0.190897	2.129897	0.000000	0.004397	0.000000	-0.000014	-0.000001	0.000000	0.000000
63.098520	12.419797	24.278174	-0.100192	0.176738	2.131363	0.000000	0.004397	0.000000	-0.000014	-0.000001	0.000000	0.000000
63.433103	12.495946	24.164662	-0.127402	0.162527	2.132834	0.000000	0.004397	0.000000	-0.000014	-0.000001	0.000000	0.000000
63.730426	12.578894	24.071771	-0.120730	0.090858	2.134142	0.000000	-0.000838	0.000000	-0.000015	-0.000001	0.000000	0.000000
64.171386	12.845594	23.726552	-0.486381	0.689043	2.147315	0.000000	0.060639	0.000000	-0.000015	-0.000002	0.000000	0.000000
64.612346	13.443310	22.865645	-0.874252	1.255877	2.187724	0.000000	0.122807	0.000000	-0.000016	-0.000002	0.000000	0.000000
65.053306	14.399352	21.528218	-1.302066	1.765570	2.255828	0.000000	0.186373	0.000000	-0.000017	-0.000003	0.000000	0.000000
65.494266	15.757398	19.775126	-1.789367	2.194930	2.352403	0.000000	0.252062	0.000000	-0.000019	-0.000003	0.000000	0.000000
65.940226	17.602654	17.661330	-2.363111	2.525174	2.480122	0.000000	0.321023	0.000000	-0.000020	-0.000003	0.000000	0.000000
66.489286	19.968242	15.296719	-1.919822	1.806901	2.636015	0.000000	0.245989	0.000000	-0.000022	-0.000003	0.000000	0.000000
67.038346	21.769248	13.645979	-1.340926	1.217330	2.749449	0.000000	0.166592	0.000000	-0.000023	-0.000002	0.000000	0.000000
67.587406	22.878458	12.591532	-0.667315	0.714466	2.818412	0.000000	0.084240	0.000000	-0.000024	-0.000001	0.000000	0.000000
68.136466	23.217523	12.058271	0.053433	0.262492	2.841681	0.000000	0.000393	0.000000	-0.000025	-0.000001	0.000000	0.000000
68.435038	23.225687	11.890740	-0.020103	0.267104	2.844016	0.000000	0.007820	0.000000	-0.000025	-0.000001	0.000000	0.000000
68.768372	23.243875	11.722682	-0.034461	0.237071	2.846623	0.000000	0.007820	0.000000	-0.000025	-0.000001	0.000000	0.000000
69.101705	23.271635	11.574646	-0.048819	0.207038	2.849230	0.000000	0.007820	0.000000	-0.000025	-0.000001	0.000000	0.000000
69.436288	23.309125	11.446189	-0.063230	0.176892	2.851846	0.000000	0.007820	0.000000	-0.000025	-0.000001	0.000000	0.000000
69.733611	23.350532	11.348966	-0.137061	0.179762	2.854171	0.000000	0.015279	0.000000	-0.000025	-0.000001	0.000000	0.000000
70.282671	23.099998	11.378903	0.590656	-0.234608	2.839371	0.000000	-0.069110	0.000000	-0.000026	0.000000	0.000000	0.000000
