#ParticleID	Turn	x[m]	xp	y[m]	yp	z[m]	dE[GeV]# s	beta_x	beta_y	alpha_x	alpha_y	D_x	D_y	D_px	D_py	orbit_x	orbit_px	orbit_y	orbit_py
0.300000	11.802305	25.062531	-0.010020	-0.026707	2.618385	0.000000	-0.000092	0.000000	-0.000001	0.000002	0.000000	0.000000
0.601250	11.816032	25.082246	-0.035548	-0.038735	2.618356	0.000000	-0.000092	0.000000	-0.000001	0.000002	0.000000	0.000000
0.898573	11.844661	25.108809	-0.031695	-0.112181	2.618328	0.000000	-0.006513	0.000000	-0.000000	0.000002	0.000000	0.000000
1.339533	12.024609	24.929196	-0.377934	0.517954	2.631750	0.000000	0.067449	0.000000	0.000000	0.000002	0.000000	0.000000
1.780493	12.516343	24.202163	-0.741439	1.124523	2.677924	0.000000	0.142179	0.000000	0.000001	0.000002	0.000000	0.000000
2.221453	13.342328	22.960789	-1.138819	1.679926	2.757377	0.000000	0.218529	0.000000	0.000002	0.000002	0.000000	0.000000
2.662413	14.540302	21.261557	-1.588228	2.158894	2.871013	0.000000	0.297368	0.000000	0.000003	0.000002	0.000000	0.000000
3.108373	16.185711	19.156863	-2.114483	2.540768	3.021987	0.000000	0.380083	0.000000	0.000004	0.000002	0.000000	0.000000
3.657433	18.295726	16.792918	-1.705725	1.790085	3.205403	0.000000	0.287046	0.000000	0.000005	0.000002	0.000000	0.000000
4.206493	19.887655	15.178879	-1.176483	1.166906	3.336261	0.000000	0.188917	0.000000	0.000006	0.000002	0.000000	0.000000
4.755553	20.849053	14.199783	-0.564139	0.626843	3.412239	0.000000	0.087438	0.000000	0.000007	0.000001	0.000000	0.000000
5.304613	21.112010	13.785890	0.088052	0.131428	3.431992	0.000000	-0.015592	0.000000	0.000007	0.000001	0.000000	0.000000
5.603185	21.096595	13.692549	0.018736	0.145180	3.430013	0.000000	-0.006626	0.000000	0.000008	0.000001	0.000000	0.000000
5.936519	21.089373	13.604048	0.002930	0.120323	3.427804	0.000000	-0.006626	0.000000	0.000008	0.000001	0.000000	0.000000
6.269852	21.092689	13.532118	-0.012876	0.095466	3.425595	0.000000	-0.006626	0.000000	0.000009	0.000001	0.000000	0.000000
6.604435	21.106613	13.476584	-0.028741	0.070515	3.423378	0.000000	-0.006626	0.000000	0.000009	0.000001	0.000000	0.000000
6.901758	21.127896	13.441244	-0.098038	0.083460	3.421407	0.000000	0.002313	0.000000	0.000009	0.000001	0.000000	0.000000
7.450818	20.875511	13.610576	0.554985	-0.393683	3.394478	0.000000	-0.100258	0.000000	0.000010	0.000001	0.000000	0.000000
7.999878	19.923409	14.316099	1.168807	-0.898868	3.311638	0.000000	-0.201051	0.000000	0.000010	0.000001	0.000000	0.000000
8.548938	18.338843	15.608067	1.700071	-1.468076	3.174355	0.000000	-0.298277	0.000000	0.000011	0.000000	0.000000	0.000000
9.097998	16.233738	17.578505	2.111250	-2.141853	2.985065	0.000000	-0.390213	0.000000	0.000011	-0.000000	0.000000	0.000000
9.543958	14.591424	19.334229	1.584490	-1.778460	2.829350	0.000000	-0.308517	0.000000	0.000011	0.000000	0.000000	0.000000
9.984918	13.397031	20.712555	1.134405	-1.335385	2.710550	0.000000	-0.230819	0.000000	0.000011	0.000001	0.000000	0.000000
10.425878	12.575310	21.671737	0.736147	-0.831550	2.625400	0.000000	-0.155750	0.000000	0.000011	0.000001	0.000000	0.000000
10.866838	12.088718	22.168133	0.371522	-0.289881	2.572930	0.000000	-0.082455	0.000000	0.000012	0.000001	0.000000	0.000000
11.309048	11.914893	22.178630	0.052981	0.210534	2.552522	0.000000	-0.016358	0.000000	0.000012	0.000001	0.000000	0.000000
11.606371	11.890828	22.057599	0.027957	0.196534	2.547658	0.000000	-0.016358	0.000000	0.000013	0.000001	0.000000	0.000000
12.086371	11.883381	21.879775	-0.012442	0.173933	2.539806	0.000000	-0.016358	0.000000	0.000013	0.000001	0.000000	0.000000
12.566371	11.914717	21.723649	-0.052841	0.151331	2.531953	0.000000	-0.016358	0.000000	0.000014	0.000001	0.000000	0.000000
13.046371	11.984835	21.589220	-0.093240	0.128729	2.524101	0.000000	-0.016358	0.000000	0.000015	0.000001	0.000000	0.000000
13.526371	12.093736	21.476489	-0.133638	0.106127	2.516248	0.000000	-0.016358	0.000000	0.000015	0.000001	0.000000	0.000000
14.007621	12.241856	21.385247	-0.174142	0.083467	2.508376	0.000000	-0.016358	0.000000	0.000016	0.000001	0.000000	0.000000
14.304943	12.352849	21.339776	-0.168878	0.017144	2.503512	0.000000	-0.022496	0.000000	0.000016	0.000001	0.000000	0.000000
14.745903	12.660261	21.091115	-0.530909	0.544618	2.509218	0.000000	0.048407	0.000000	0.000017	0.000002	0.000000	0.000000
15.186863	13.296404	20.386457	-0.917195	1.047312	2.546282	0.000000	0.119861	0.000000	0.000018	0.000002	0.000000	0.000000
15.627823	14.290341	19.257861	-1.345385	1.502354	2.615124	0.000000	0.192680	0.000000	0.000019	0.000003	0.000000	0.000000
16.068783	15.687484	17.756679	-1.835043	1.889040	2.716530	0.000000	0.267694	0.000000	0.000020	0.000003	0.000000	0.000000
16.514743	17.575327	15.929715	-2.413297	2.190518	2.853347	0.000000	0.346219	0.000000	0.000022	0.000004	0.000000	0.000000
17.063803	20.000122	13.889836	-1.976824	1.546632	3.019720	0.000000	0.258922	0.000000	0.000024	0.000003	0.000000	0.000000
17.612863	21.865639	12.492740	-1.400718	1.012910	3.136828	0.000000	0.167033	0.000000	0.000025	0.000002	0.000000	0.000000
18.161923	23.040108	11.638916	-0.725672	0.551334	3.202595	0.000000	0.072181	0.000000	0.000026	0.000001	0.000000	0.000000
18.710983	23.440570	11.267548	0.000632	0.129029	3.215855	0.000000	-0.023952	0.000000	0.000027	0.000001	0.000000	0.000000
19.009556	23.480574	11.181033	-0.073385	0.131299	3.211211	0.000000	-0.015551	0.000000	0.000027	0.000001	0.000000	0.000000
19.342889	23.534255	11.103609	-0.087657	0.100972	3.206027	0.000000	-0.015551	0.000000	0.000027	0.000001	0.000000	0.000000
19.676223	23.597450	11.046403	-0.101930	0.070646	3.200843	0.000000	-0.015551	0.000000	0.000027	0.000001	0.000000	0.000000
20.010806	23.670745	11.009177	-0.233534	0.094752	3.195660	0.000000	0.000282	0.000000	0.000028	0.000001	0.000000	0.000000
20.308129	23.813553	10.960935	-0.308986	0.096135	3.195743	0.000000	0.008630	0.000000	0.000028	0.000001	0.000000	0.000000
20.857189	23.742118	11.077220	0.438321	-0.309175	3.174274	0.000000	-0.086718	0.000000	0.000028	-0.000000	0.000000	0.000000
21.406249	22.862263	11.647993	1.154666	-0.736507	3.100799	0.000000	-0.180528	0.000000	0.000028	-0.000001	0.000000	0.000000
21.955309	21.236139	12.713909	1.789451	-1.216298	2.976622	0.000000	-0.271135	0.000000	0.000027	-0.000002	0.000000	0.000000
22.504369	18.978607	14.350890	2.297839	-1.782724	2.803945	0.000000	-0.356933	0.000000	0.000026	-0.000003	0.000000	0.000000
22.950329	17.199349	15.820727	1.705966	-1.499265	2.662055	0.000000	-0.279756	0.000000	0.000025	-0.000002	0.000000	0.000000
23.391289	15.924212	16.992720	1.196731	-1.148441	2.555009	0.000000	-0.206219	0.000000	0.000024	-0.000001	0.000000	0.000000
23.832249	15.072464	17.831002	0.742172	-0.745365	2.479843	0.000000	-0.135031	0.000000	0.000023	-0.000001	0.000000	0.000000
24.273209	14.605191	18.297434	0.321521	-0.308374	2.435698	0.000000	-0.065381	0.000000	0.000023	-0.000000	0.000000	0.000000
24.715418	14.501166	18.370549	-0.048975	0.097537	2.422070	0.000000	-0.002414	0.000000	0.000023	0.000000	0.000000	0.000000
25.012741	14.536399	18.317407	-0.069527	0.081198	2.421352	0.000000	-0.002414	0.000000	0.000023	0.000000	0.000000	0.000000
25.346075	14.590431	18.269380	-0.092569	0.062881	2.420547	0.000000	-0.002414	0.000000	0.000023	0.000000	0.000000	0.000000
25.679408	14.659824	18.233566	-0.115611	0.044563	2.419742	0.000000	-0.002414	0.000000	0.000023	0.000000	0.000000	0.000000
26.013991	14.744626	18.210267	-0.019121	-0.121554	2.418910	0.000000	-0.022038	0.000000	0.000024	0.000000	0.000000	0.000000
26.311314	14.761994	18.287474	-0.003100	-0.182958	2.412358	0.000000	-0.027952	0.000000	0.000024	0.000000	0.000000	0.000000
26.752274	14.946580	18.250533	-0.417087	0.266414	2.415135	0.000000	0.040563	0.000000	0.000024	0.000001	0.000000	0.000000
27.193234	15.503260	17.821133	-0.850130	0.703664	2.448198	0.000000	0.109540	0.000000	0.000024	0.000001	0.000000	0.000000
27.634194	16.457469	17.018812	-1.322012	1.108899	2.511923	0.000000	0.179765	0.000000	0.000025	0.000002	0.000000	0.000000
28.075154	17.852800	15.880075	-1.854294	1.463679	2.607035	0.000000	0.252037	0.000000	0.000026	0.000003	0.000000	0.000000
28.521114	19.777241	14.439575	-2.476266	1.752774	2.736221	0.000000	0.327623	0.000000	0.000027	0.000003	0.000000	0.000000
29.070174	22.223195	12.834685	-1.952163	1.187456	2.893452	0.000000	0.244269	0.000000	0.000029	0.000002	0.000000	0.000000
29.619234	24.014033	11.800772	-1.290169	0.706717	3.003660	0.000000	0.156583	0.000000	0.000030	0.000001	0.000000	0.000000
30.168294	25.023257	11.264195	-0.537044	0.276317	3.064888	0.000000	0.066119	0.000000	0.000030	0.000000	0.000000	0.000000
30.717354	25.179582	11.186732	0.254016	-0.134402	3.076051	0.000000	-0.025517	0.000000	0.000030	-0.000001	0.000000	0.000000
31.015927	25.070839	11.257597	0.175965	-0.132166	3.070831	0.000000	-0.017482	0.000000	0.000030	-0.000000	0.000000	0.000000
31.349260	24.958098	11.355750	0.162258	-0.162293	3.065004	0.000000	-0.017482	0.000000	0.000030	-0.000000	0.000000	0.000000
31.682593	24.854496	11.473987	0.148550	-0.192419	3.059177	0.000000	-0.017482	0.000000	0.000030	-0.000000	0.000000	0.000000
32.017177	24.759694	11.612866	0.134792	-0.222659	3.053327	0.000000	-0.017482	0.000000	0.000029	-0.000000	0.000000	0.000000
32.314499	24.683176	11.753259	0.058088	-0.218830	3.048130	0.000000	-0.009520	0.000000	0.000029	-0.000000	0.000000	0.000000
32.863559	24.196448	12.232730	0.823137	-0.659584	3.018034	0.000000	-0.099945	0.000000	0.000029	-0.000001	0.000000	0.000000
33.412619	22.896716	13.219006	1.530044	-1.147318	2.938705	0.000000	-0.188598	0.000000	0.000028	-0.000002	0.000000	0.000000
33.961679	20.875784	14.782337	2.128876	-1.716773	2.811548	0.000000	-0.273905	0.000000	0.000026	-0.000003	0.000000	0.000000
34.510739	18.276404	17.034074	2.577334	-2.408510	2.638820	0.000000	-0.354354	0.000000	0.000024	-0.000004	0.000000	0.000000
34.956699	16.255219	19.048210	1.971113	-2.089036	2.497128	0.000000	-0.281457	0.000000	0.000023	-0.000003	0.000000	0.000000
35.397659	14.747968	20.714452	1.459966	-1.675255	2.388393	0.000000	-0.212194	0.000000	0.000021	-0.000003	0.000000	0.000000
35.838619	13.660501	21.980640	1.015522	-1.185251	2.309638	0.000000	-0.145347	0.000000	0.000020	-0.000002	0.000000	0.000000
36.279579	12.943136	22.789161	0.617474	-0.641319	2.259967	0.000000	-0.080156	0.000000	0.000019	-0.000002	0.000000	0.000000
36.721789	12.562402	23.103541	0.278333	-0.124908	2.238788	0.000000	-0.021367	0.000000	0.000019	-0.000001	0.000000	0.000000
37.019112	12.404475	23.181703	0.252831	-0.137978	2.232435	0.000000	-0.021367	0.000000	0.000018	-0.000001	0.000000	0.000000
37.352445	12.245450	23.278573	0.224242	-0.152631	2.225313	0.000000	-0.021367	0.000000	0.000018	-0.000001	0.000000	0.000000
37.685779	12.105486	23.385211	0.195652	-0.167284	2.218191	0.000000	-0.021367	0.000000	0.000018	-0.000001	0.000000	0.000000
38.020362	11.984164	23.502073	0.166955	-0.181992	2.211042	0.000000	-0.021367	0.000000	0.000017	-0.000001	0.000000	0.000000
38.317684	11.892467	23.614179	0.170613	-0.252962	2.204690	0.000000	-0.026773	0.000000	0.000017	-0.000001	0.000000	0.000000
38.758644	11.893580	23.575697	-0.173147	0.339898	2.206806	0.000000	0.036380	0.000000	0.000016	-0.000001	0.000000	0.000000
39.199604	12.200191	23.019208	-0.524817	0.917293	2.236835	0.000000	0.099947	0.000000	0.000016	-0.000000	0.000000	0.000000
39.640564	12.826307	21.970032	-0.900464	1.452952	2.295119	0.000000	0.164653	0.000000	0.000016	-0.000000	0.000000	0.000000
40.081524	13.800535	20.475905	-1.317251	1.922503	2.382321	0.000000	0.231234	0.000000	0.000016	0.000000	0.000000	0.000000
40.527484	15.184961	18.582228	-1.798048	2.305869	2.500907	0.000000	0.300854	0.000000	0.000016	0.000001	0.000000	0.000000
41.076544	16.951509	16.454122	-1.400310	1.592917	2.645572	0.000000	0.225328	0.000000	0.000016	0.000000	0.000000	0.000000
41.625604	18.224060	15.042398	-0.903661	0.993426	2.747610	0.000000	0.145806	0.000000	0.000016	-0.000000	0.000000	0.000000
42.174664	18.912727	14.246501	-0.343181	0.464694	2.805210	0.000000	0.063697	0.000000	0.000016	-0.000001	0.000000	0.000000
42.723724	18.968868	14.009741	0.241538	-0.030939	2.817350	0.000000	-0.019541	0.000000	0.000016	-0.000001	0.000000	0.000000
43.022297	18.859099	14.012724	0.175662	-0.015651	2.813714	0.000000	-0.012181	0.000000	0.000015	-0.000001	0.000000	0.000000
43.502297	18.703057	14.044195	0.149425	-0.049914	2.807868	0.000000	-0.012181	0.000000	0.000015	-0.000001	0.000000	0.000000
43.982297	18.572203	14.108559	0.123188	-0.084177	2.802021	0.000000	-0.012181	0.000000	0.000014	-0.000001	0.000000	0.000000
44.462297	18.466536	14.205816	0.096951	-0.118440	2.796175	0.000000	-0.012181	0.000000	0.000013	-0.000001	0.000000	0.000000
44.942297	18.386058	14.335965	0.070713	-0.152703	2.790329	0.000000	-0.012181	0.000000	0.000013	-0.000001	0.000000	0.000000
45.423547	18.330883	14.499294	-0.046414	-0.115217	2.784485	0.000000	0.001615	0.000000	0.000012	-0.000001	0.000000	0.000000
45.720870	18.363315	14.573985	-0.110644	-0.097920	2.784965	0.000000	0.008891	0.000000	0.000012	-0.000001	0.000000	0.000000
46.269930	18.175626	14.963311	0.450457	-0.615342	2.767283	0.000000	-0.073209	0.000000	0.000011	-0.000002	0.000000	0.000000
46.818990	17.385687	15.941417	0.979739	-1.176593	2.704814	0.000000	-0.154009	0.000000	0.000010	-0.000002	0.000000	0.000000
47.368050	16.049294	17.577973	1.439817	-1.821650	2.598666	0.000000	-0.232079	0.000000	0.000009	-0.000002	0.000000	0.000000
47.917110	14.260844	19.989546	1.798194	-2.596460	2.450722	0.000000	-0.306031	0.000000	0.000008	-0.000002	0.000000	0.000000
48.363070	12.869189	22.133543	1.333446	-2.190928	2.329534	0.000000	-0.237747	0.000000	0.000006	-0.000002	0.000000	0.000000
48.804030	11.873383	23.850081	0.933389	-1.686988	2.239155	0.000000	-0.172568	0.000000	0.000005	-0.000002	0.000000	0.000000
49.244990	11.210328	25.086510	0.575976	-1.106291	2.177056	0.000000	-0.109354	0.000000	0.000005	-0.000002	0.000000	0.000000
49.685950	10.849731	25.786575	0.244879	-0.475259	2.142532	0.000000	-0.047386	0.000000	0.000004	-0.000002	0.000000	0.000000
50.128160	10.775240	25.918138	-0.048725	0.113791	2.135199	0.000000	0.008807	0.000000	0.000003	-0.000002	0.000000	0.000000
50.425482	10.812438	25.853928	-0.076383	0.102170	2.137818	0.000000	0.008807	0.000000	0.000002	-0.000002	0.000000	0.000000
50.758816	10.873696	25.790157	-0.107392	0.089143	2.140755	0.000000	0.008807	0.000000	0.000002	-0.000002	0.000000	0.000000
51.092149	10.955627	25.735071	-0.138400	0.076115	2.143691	0.000000	0.008807	0.000000	0.000001	-0.000002	0.000000	0.000000
51.426732	11.058429	25.689033	-0.079812	-0.145363	2.146616	0.000000	-0.008608	0.000000	0.000000	-0.000002	0.000000	0.000000
51.724055	11.113934	25.778986	-0.079615	-0.220400	2.144058	0.000000	-0.013866	0.000000	-0.000000	-0.000002	0.000000	0.000000
52.165015	11.329296	25.686533	-0.410631	0.429267	2.151532	0.000000	0.047793	0.000000	-0.000001	-0.000002	0.000000	0.000000
52.605975	11.843726	25.027582	-0.760408	1.059402	2.186289	0.000000	0.109997	0.000000	-0.000002	-0.000002	0.000000	0.000000
53.046935	12.680726	23.832116	-1.144926	1.641335	2.248725	0.000000	0.173453	0.000000	-0.000003	-0.000002	0.000000	0.000000
53.487895	13.878537	22.154527	-1.581752	2.148589	2.339552	0.000000	0.238885	0.000000	-0.000003	-0.000002	0.000000	0.000000
53.933855	15.512421	20.046066	-2.095067	2.559423	2.461308	0.000000	0.307436	0.000000	-0.000004	-0.000002	0.000000	0.000000
54.482915	17.616071	17.673432	-1.713622	1.787349	2.609929	0.000000	0.233129	0.000000	-0.000005	-0.000002	0.000000	0.000000
55.031975	19.231500	16.074163	-1.211135	1.142585	2.716555	0.000000	0.154687	0.000000	-0.000006	-0.000002	0.000000	0.000000
55.581035	20.244601	15.134345	-0.623100	0.579204	2.779293	0.000000	0.073502	0.000000	-0.000007	-0.000002	0.000000	0.000000
56.130095	20.583815	14.787038	0.008948	0.057079	2.797031	0.000000	-0.008988	0.000000	-0.000008	-0.000001	0.000000	0.000000
56.428668	20.614929	14.735964	-0.059372	0.075341	2.796530	0.000000	-0.001679	0.000000	-0.000009	-0.000001	0.000000	0.000000
56.762001	20.659919	14.693319	-0.075598	0.052592	2.795971	0.000000	-0.001679	0.000000	-0.000009	-0.000001	0.000000	0.000000
57.095334	20.715727	14.665841	-0.091825	0.029844	2.795411	0.000000	-0.001679	0.000000	-0.000009	-0.000001	0.000000	0.000000
57.429918	20.782623	14.653510	-0.108112	0.007010	2.794850	0.000000	-0.001679	0.000000	-0.000010	-0.000001	0.000000	0.000000
57.727240	20.851214	14.655375	-0.177071	0.025013	2.794351	0.000000	0.005623	0.000000	-0.000010	-0.000001	0.000000	0.000000
58.276300	20.689979	14.909254	0.468988	-0.490132	2.774796	0.000000	-0.076750	0.000000	-0.000011	-0.000001	0.000000	0.000000
58.825360	19.833367	15.744561	1.081920	-1.040188	2.710321	0.000000	-0.157762	0.000000	-0.000011	-0.000001	0.000000	0.000000
59.374420	18.341884	17.220792	1.618430	-1.664334	2.602069	0.000000	-0.235975	0.000000	-0.000012	-0.000000	0.000000	0.000000
59.923480	16.320881	19.443096	2.040623	-2.407028	2.451961	0.000000	-0.310003	0.000000	-0.000012	0.000000	0.000000	0.000000
60.369440	14.739112	21.418243	1.518823	-2.003254	2.329004	0.000000	-0.241710	0.000000	-0.000012	-0.000000	0.000000	0.000000
60.810400	13.601590	22.973238	1.070612	-1.509713	2.236870	0.000000	-0.176567	0.000000	-0.000012	-0.000000	0.000000	0.000000
61.251360	12.836373	24.060901	0.671314	-0.947480	2.172992	0.000000	-0.113435	0.000000	-0.000012	-0.000001	0.000000	0.000000
61.692320	12.408501	24.631743	0.302687	-0.342138	2.136641	0.000000	-0.051595	0.000000	-0.000013	-0.000001	0.000000	0.000000
62.134530	12.298480	24.659246	-0.022050	0.218238	2.127409	0.000000	0.004439	0.000000	-0.000013	-0.000001	0.000000	0.000000
62.431853	12.318783	24.533228	-0.046237	0.205606	2.128729	0.000000	0.004439	0.000000	-0.000013	-0.000001	0.000000	0.000000
62.765186	12.358647	24.400878	-0.073354	0.191445	2.130210	0.000000	0.004439	0.000000	-0.000014	-0.000001	0.000000	0.000000
63.098520	12.416589	24.277968	-0.100471	0.177283	2.131690	0.000000	0.004439	0.000000	-0.000014	-0.000001	0.000000	0.000000
63.433103	12.492928	24.164092	-0.127690	0.163069	2.133176	0.000000	0.004439	0.000000	-0.000015	-0.000001	0.000000	0.000000
63.730426	12.576049	24.070880	-0.121032	0.091399	2.134496	0.000000	-0.000796	0.000000	-0.000015	-0.000001	0.000000	0.000000
64.171386	12.842989	23.725198	-0.486626	0.689547	2.147690	0.000000	0.060690	0.000000	-0.000016	-0.000002	0.000000	0.000000
64.612346	13.440902	22.863871	-0.874453	1.256320	2.188123	0.000000	0.122868	0.000000	-0.000017	-0.000002	0.000000	0.000000
65.053306	14.397103	21.526088	-1.302230	1.765932	2.256256	0.000000	0.186445	0.000000	-0.000018	-0.000003	0.000000	0.000000
65.494266	15.755281	19.772718	-1.789503	2.195196	2.352866	0.000000	0.252145	0.000000	-0.000019	-0.000003	0.000000	0.000000
65.940226	17.600648	17.658735	-2.363224	2.525329	2.480625	0.000000	0.321119	0.000000	-0.000021	-0.000004	0.000000	0.000000
66.489286	19.966416	15.293937	-1.920035	1.807088	2.636566	0.000000	0.246068	0.000000	-0.000023	-0.000003	0.000000	0.000000
67.038346	21.767705	13.642969	-1.341224	1.217561	2.750039	0.000000	0.166652	0.000000	-0.000024	-0.000002	0.000000	0.000000
67.587406	22.877279	12.588236	-0.667676	0.714758	2.819030	0.000000	0.084281	0.000000	-0.000025	-0.000001	0.000000	0.000000
68.136466	23.216764	12.054612	0.053033	0.262866	2.842316	0.000000	0.000414	0.000000	-0.000026	-0.000001	0.000000	0.000000
68.435038	23.225167	11.886866	-0.020502	0.267455	2.844657	0.000000	0.007842	0.000000	-0.000026	-0.000001	0.000000	0.000000
68.768372	23.243621	11.718579	-0.034860	0.237407	2.847271	0.000000	0.007842	0.000000	-0.000026	-0.000001	0.000000	0.000000
69.101705	23.271648	11.570323	-0.049219	0.207359	2.849886	0.000000	0.007842	0.000000	-0.000026	-0.000001	0.000000	0.000000
69.436288	23.309405	11.441657	-0.063631	0.177198	2.852510	0.000000	0.007842	0.000000	-0.000026	-0.000001	0.000000	0.000000
69.733611	23.351051	11.344255	-0.137464	0.180043	2.854841	0.000000	0.015303	0.000000	-0.000027	-0.000001	0.000000	0.000000
70.282671	23.100946	11.373811	0.590282	-0.234190	2.840049	0.000000	-0.069107	0.000000	-0.000027	0.000000	0.000000	0.000000
