#ParticleID	Turn	x[m]	xp	y[m]	yp	z[m]	dE[GeV]# s	beta_x	beta_y	alpha_x	alpha_y	D_x	D_y	D_px	D_py	orbit_x	orbit_px	orbit_y	orbit_py
0.300000	11.829795	24.955309	-0.013075	-0.027738	2.618245	0.000000	-0.000039	0.000000	0.000000	0.000000	0.000000	0.000000
0.601250	11.845345	24.975660	-0.038544	-0.039819	2.618233	0.000000	-0.000039	0.000000	0.000000	0.000000	0.000000	0.000000
0.898573	11.875740	25.002883	-0.034559	-0.113056	2.618221	0.000000	-0.006459	0.000000	0.000000	0.000000	0.000000	0.000000
1.339533	12.058547	24.825275	-0.381580	0.514298	2.631667	0.000000	0.067500	0.000000	0.000000	0.000000	0.000000	0.000000
1.780493	12.553901	24.102635	-0.746035	1.118253	2.677864	0.000000	0.142229	0.000000	0.000000	0.000000	0.000000	0.000000
2.221453	13.384432	22.867843	-1.144573	1.671328	2.757338	0.000000	0.218577	0.000000	0.000001	0.000000	0.000000	0.000000
2.662413	14.588086	21.177080	-1.595404	2.148358	2.870996	0.000000	0.297415	0.000000	0.000001	0.000000	0.000000	0.000000
3.108373	16.240656	19.082477	-2.123423	2.528771	3.021992	0.000000	0.380130	0.000000	0.000001	0.000000	0.000000	0.000000
3.657433	18.359757	16.730032	-1.713238	1.781015	3.205435	0.000000	0.287093	0.000000	0.000001	0.000000	0.000000	0.000000
4.206493	19.958904	15.124651	-1.182038	1.160117	3.336319	0.000000	0.188963	0.000000	0.000001	0.000000	0.000000	0.000000
4.755553	20.925139	14.151985	-0.567344	0.621851	3.412323	0.000000	0.087481	0.000000	0.000001	0.000000	0.000000	0.000000
5.304613	21.190214	13.742753	0.087423	0.127879	3.432098	0.000000	-0.015552	0.000000	0.000002	0.000000	0.000000	0.000000
5.603185	21.175282	13.651610	0.017953	0.141477	3.430132	0.000000	-0.006585	0.000000	0.000002	0.000000	0.000000	0.000000
5.936519	21.168562	13.565594	0.002206	0.116571	3.427937	0.000000	-0.006585	0.000000	0.000002	0.000000	0.000000	0.000000
6.269852	21.172340	13.496182	-0.013540	0.091665	3.425742	0.000000	-0.006585	0.000000	0.000002	0.000000	0.000000	0.000000
6.604435	21.186689	13.443207	-0.029346	0.066666	3.423539	0.000000	-0.006585	0.000000	0.000002	0.000000	0.000000	0.000000
6.901758	21.208316	13.410170	-0.098804	0.079488	3.421581	0.000000	0.002355	0.000000	0.000002	0.000000	0.000000	0.000000
7.450818	20.955289	13.583399	0.556912	-0.396852	3.394674	0.000000	-0.100222	0.000000	0.000002	0.000000	0.000000	0.000000
7.999878	19.999647	14.292067	1.173291	-0.901460	3.311851	0.000000	-0.201021	0.000000	0.000002	0.000000	0.000000	0.000000
8.548938	18.408891	15.586651	1.706794	-1.470276	3.174583	0.000000	-0.298255	0.000000	0.000002	0.000000	0.000000	0.000000
9.097998	16.295385	17.559361	2.119738	-2.143817	2.985303	0.000000	-0.390198	0.000000	0.000002	-0.000000	0.000000	0.000000
9.543958	14.646343	19.317209	1.591144	-1.781239	2.829596	0.000000	-0.308497	0.000000	0.000002	-0.000000	0.000000	0.000000
9.984918	13.446770	20.698297	1.139542	-1.338845	2.710807	0.000000	-0.230792	0.000000	0.000002	0.000000	0.000000	0.000000
10.425878	12.621098	21.660774	0.740003	-0.835535	2.625670	0.000000	-0.155716	0.000000	0.000002	0.000000	0.000000	0.000000
10.866838	12.131604	22.160849	0.374273	-0.294209	2.573217	0.000000	-0.082414	0.000000	0.000002	0.000000	0.000000	0.000000
11.309048	11.955786	22.175253	0.054856	0.206065	2.552830	0.000000	-0.016310	0.000000	0.000002	0.000000	0.000000	0.000000
11.606371	11.930583	22.056873	0.029913	0.192088	2.547980	0.000000	-0.016310	0.000000	0.000002	0.000000	0.000000	0.000000
12.086371	11.921195	21.883300	-0.010356	0.169523	2.540151	0.000000	-0.016310	0.000000	0.000002	0.000000	0.000000	0.000000
12.566371	11.950466	21.731390	-0.050625	0.146958	2.532322	0.000000	-0.016310	0.000000	0.000002	0.000000	0.000000	0.000000
13.046371	12.018395	21.601141	-0.090894	0.124393	2.524493	0.000000	-0.016310	0.000000	0.000003	0.000000	0.000000	0.000000
13.526371	12.124982	21.492555	-0.131162	0.101828	2.516664	0.000000	-0.016310	0.000000	0.000003	0.000000	0.000000	0.000000
14.007621	12.270655	21.405433	-0.171536	0.079204	2.508815	0.000000	-0.016310	0.000000	0.000003	0.000000	0.000000	0.000000
14.304943	12.380074	21.362490	-0.166120	0.012842	2.503965	0.000000	-0.022451	0.000000	0.000003	0.000000	0.000000	0.000000
14.745903	12.685296	21.117326	-0.528681	0.541021	2.509695	0.000000	0.048464	0.000000	0.000003	0.000000	0.000000	0.000000
15.186863	13.319670	20.415466	-0.915396	1.044585	2.546788	0.000000	0.119931	0.000000	0.000003	0.000000	0.000000	0.000000
15.627823	14.312178	19.288845	-1.343932	1.500621	2.615665	0.000000	0.192764	0.000000	0.000003	0.000000	0.000000	0.000000
16.068783	15.708166	17.788723	-1.833870	1.888380	2.717112	0.000000	0.267792	0.000000	0.000003	0.000001	0.000000	0.000000
16.514743	17.595066	15.961853	-2.412349	2.190968	2.853978	0.000000	0.346333	0.000000	0.000004	0.000001	0.000000	0.000000
17.063803	20.018275	13.921861	-1.974901	1.546388	3.020408	0.000000	0.259014	0.000000	0.000004	0.000000	0.000000	0.000000
17.612863	21.881204	12.525420	-1.397957	1.011955	3.137562	0.000000	0.167102	0.000000	0.000004	0.000000	0.000000	0.000000
18.161923	23.052266	11.673064	-0.722267	0.549600	3.203362	0.000000	0.072226	0.000000	0.000004	0.000000	0.000000	0.000000
18.710983	23.448744	11.304082	0.004439	0.126392	3.216639	0.000000	-0.023932	0.000000	0.000004	0.000000	0.000000	0.000000
19.009556	23.486491	11.219049	-0.069600	0.128872	3.212003	0.000000	-0.015528	0.000000	0.000004	0.000000	0.000000	0.000000
19.342889	23.537645	11.143202	-0.083861	0.098667	3.206827	0.000000	-0.015528	0.000000	0.000004	0.000000	0.000000	0.000000
19.676223	23.598306	11.087493	-0.098122	0.068462	3.201651	0.000000	-0.015528	0.000000	0.000005	0.000000	0.000000	0.000000
20.010806	23.669048	11.051687	-0.229707	0.092901	3.196476	0.000000	0.000310	0.000000	0.000005	0.000000	0.000000	0.000000
20.308129	23.809574	11.004512	-0.305139	0.094518	3.196568	0.000000	0.008661	0.000000	0.000005	0.000000	0.000000	0.000000
20.857189	23.734007	11.123251	0.441954	-0.312054	3.175109	0.000000	-0.086713	0.000000	0.000005	-0.000000	0.000000	0.000000
21.406249	22.850400	11.697967	1.157828	-0.740851	3.101629	0.000000	-0.180550	0.000000	0.000005	-0.000000	0.000000	0.000000
21.955309	21.221167	12.769594	1.791920	-1.222419	2.977432	0.000000	-0.271184	0.000000	0.000004	-0.000000	0.000000	0.000000
22.504369	18.961388	14.414464	2.299439	-1.791056	2.804721	0.000000	-0.357008	0.000000	0.000004	-0.000000	0.000000	0.000000
22.950329	17.180630	15.891095	1.707746	-1.506106	2.662800	0.000000	-0.279811	0.000000	0.000004	-0.000000	0.000000	0.000000
23.391289	15.903816	17.068350	1.198772	-1.153487	2.555735	0.000000	-0.206255	0.000000	0.000004	-0.000000	0.000000	0.000000
23.832249	15.050121	17.910203	0.744566	-0.748386	2.480556	0.000000	-0.135048	0.000000	0.000004	-0.000000	0.000000	0.000000
24.273209	14.580541	18.378352	0.324377	-0.309233	2.436407	0.000000	-0.065380	0.000000	0.000004	-0.000000	0.000000	0.000000
24.715418	14.473737	18.451249	-0.045585	0.098674	2.422784	0.000000	-0.002397	0.000000	0.000004	0.000000	0.000000	0.000000
25.012741	14.506964	18.397411	-0.066170	0.082403	2.422071	0.000000	-0.002397	0.000000	0.000004	0.000000	0.000000	0.000000
25.346075	14.558770	18.348556	-0.089248	0.064162	2.421272	0.000000	-0.002397	0.000000	0.000004	0.000000	0.000000	0.000000
25.679408	14.625962	18.311862	-0.112326	0.045920	2.420473	0.000000	-0.002397	0.000000	0.000004	0.000000	0.000000	0.000000
26.013991	14.708579	18.287631	-0.016166	-0.120748	2.419646	0.000000	-0.022027	0.000000	0.000004	-0.000000	0.000000	0.000000
26.311314	14.724204	18.364337	-0.000278	-0.182276	2.413097	0.000000	-0.027945	0.000000	0.000004	-0.000000	0.000000	0.000000
26.752274	14.905884	18.325876	-0.413295	0.269165	2.415882	0.000000	0.040590	0.000000	0.000004	0.000000	0.000000	0.000000
27.193234	15.458729	17.893181	-0.845194	0.708359	2.448962	0.000000	0.109586	0.000000	0.000004	0.000000	0.000000	0.000000
27.634194	16.407999	17.085938	-1.315707	1.115324	2.512712	0.000000	0.179831	0.000000	0.000004	0.000000	0.000000	0.000000
28.075154	17.797062	15.940876	-1.846331	1.471542	2.607858	0.000000	0.252124	0.000000	0.000004	0.000000	0.000000	0.000000
28.521114	19.713519	14.492849	-2.466265	1.761720	2.737089	0.000000	0.327732	0.000000	0.000004	0.000000	0.000000	0.000000
29.070174	22.149342	12.879312	-1.943825	1.194353	2.894373	0.000000	0.244349	0.000000	0.000004	0.000000	0.000000	0.000000
29.619234	23.932212	11.838720	-1.284083	0.712058	3.004617	0.000000	0.156632	0.000000	0.000005	0.000000	0.000000	0.000000
30.168294	24.936193	11.296956	-0.533639	0.280480	3.065864	0.000000	0.066137	0.000000	0.000005	0.000000	0.000000	0.000000
30.717354	25.090372	11.215429	0.254498	-0.131119	3.077028	0.000000	-0.025531	0.000000	0.000005	-0.000000	0.000000	0.000000
31.015927	24.981225	11.284259	0.176619	-0.128714	3.071806	0.000000	-0.017491	0.000000	0.000005	-0.000000	0.000000	0.000000
31.349260	24.868065	11.380078	0.162859	-0.158743	3.065975	0.000000	-0.017491	0.000000	0.000005	-0.000000	0.000000	0.000000
31.682593	24.764079	11.495917	0.149100	-0.188772	3.060145	0.000000	-0.017491	0.000000	0.000005	-0.000000	0.000000	0.000000
32.017177	24.668927	11.632322	0.135289	-0.218914	3.054293	0.000000	-0.017491	0.000000	0.000005	-0.000000	0.000000	0.000000
32.314499	24.592127	11.770462	0.058763	-0.214946	3.049092	0.000000	-0.009525	0.000000	0.000005	-0.000000	0.000000	0.000000
32.863559	24.106322	12.245842	0.820793	-0.655971	3.018985	0.000000	-0.099981	0.000000	0.000004	-0.000000	0.000000	0.000000
33.412619	22.810755	13.228180	1.524847	-1.143718	2.939627	0.000000	-0.188664	0.000000	0.000004	-0.000000	0.000000	0.000000
33.961679	20.796940	14.787448	2.121193	-1.712931	2.812425	0.000000	-0.274000	0.000000	0.000004	-0.000001	0.000000	0.000000
34.510739	18.207121	17.034708	2.567708	-2.404151	2.639635	0.000000	-0.354476	0.000000	0.000004	-0.000001	0.000000	0.000000
34.956699	16.193560	19.044731	1.963584	-2.084210	2.497892	0.000000	-0.281559	0.000000	0.000003	-0.000001	0.000000	0.000000
35.397659	14.692161	20.706595	1.454174	-1.670188	2.389115	0.000000	-0.212277	0.000000	0.000003	-0.000000	0.000000	0.000000
35.838619	13.609139	21.968292	1.011200	-1.180174	2.310327	0.000000	-0.145412	0.000000	0.000003	-0.000000	0.000000	0.000000
36.279579	12.895012	22.772416	0.614426	-0.636463	2.260630	0.000000	-0.080204	0.000000	0.000003	-0.000000	0.000000	0.000000
36.721789	12.516463	23.082682	0.276310	-0.120451	2.239433	0.000000	-0.021400	0.000000	0.000003	-0.000000	0.000000	0.000000
37.019112	12.359759	23.158193	0.250742	-0.133519	2.233070	0.000000	-0.021400	0.000000	0.000003	-0.000000	0.000000	0.000000
37.352445	12.202153	23.252089	0.222077	-0.148169	2.225937	0.000000	-0.021400	0.000000	0.000003	-0.000000	0.000000	0.000000
37.685779	12.063656	23.355752	0.193412	-0.162820	2.218803	0.000000	-0.021400	0.000000	0.000003	-0.000000	0.000000	0.000000
38.020362	11.943858	23.469625	0.164640	-0.177525	2.211643	0.000000	-0.021400	0.000000	0.000003	-0.000000	0.000000	0.000000
38.317684	11.853558	23.579075	0.168140	-0.248414	2.205280	0.000000	-0.026808	0.000000	0.000002	-0.000000	0.000000	0.000000
38.758644	11.856466	23.537006	-0.174759	0.343453	2.207384	0.000000	0.036360	0.000000	0.000002	-0.000000	0.000000	0.000000
39.199604	12.164148	22.977881	-0.525643	0.919694	2.237408	0.000000	0.099942	0.000000	0.000002	-0.000000	0.000000	0.000000
39.640564	12.790661	21.927139	-0.900541	1.454089	2.295692	0.000000	0.164662	0.000000	0.000002	-0.000000	0.000000	0.000000
40.081524	13.764628	20.432589	-1.316582	1.922324	2.382902	0.000000	0.231258	0.000000	0.000002	0.000000	0.000000	0.000000
40.527484	15.148112	18.539663	-1.796598	2.304374	2.501502	0.000000	0.300893	0.000000	0.000002	0.000000	0.000000	0.000000
41.076544	16.913838	16.412584	-1.400271	1.592531	2.646184	0.000000	0.225348	0.000000	0.000002	0.000000	0.000000	0.000000
41.625604	18.187127	15.000691	-0.905036	0.994120	2.748227	0.000000	0.145806	0.000000	0.000002	-0.000000	0.000000	0.000000
42.174664	18.878040	14.203419	-0.345873	0.466518	2.805821	0.000000	0.063677	0.000000	0.000002	-0.000000	0.000000	0.000000
42.723724	18.937776	13.963980	0.237720	-0.027854	2.817945	0.000000	-0.019581	0.000000	0.000002	-0.000000	0.000000	0.000000
43.022297	18.830244	13.965211	0.171916	-0.012753	2.814297	0.000000	-0.012218	0.000000	0.000002	-0.000000	0.000000	0.000000
43.502297	18.677802	13.993954	0.145671	-0.047130	2.808432	0.000000	-0.012218	0.000000	0.000002	-0.000000	0.000000	0.000000
43.982297	18.550555	14.055700	0.119427	-0.081506	2.802568	0.000000	-0.012218	0.000000	0.000002	-0.000000	0.000000	0.000000
44.462297	18.448502	14.150447	0.093183	-0.115883	2.796703	0.000000	-0.012218	0.000000	0.000002	-0.000000	0.000000	0.000000
44.942297	18.371644	14.278195	0.066939	-0.150260	2.790839	0.000000	-0.012218	0.000000	0.000002	-0.000000	0.000000	0.000000
45.423547	18.320105	14.439228	-0.050142	-0.113185	2.784976	0.000000	0.001580	0.000000	0.000002	-0.000000	0.000000	0.000000
45.720870	18.354759	14.512734	-0.114369	-0.096122	2.785446	0.000000	0.008858	0.000000	0.000002	-0.000000	0.000000	0.000000
46.269930	18.171286	14.899052	0.446550	-0.611630	2.767741	0.000000	-0.073256	0.000000	0.000001	-0.000000	0.000000	0.000000
46.818990	17.385609	15.871918	0.975927	-1.170704	2.705241	0.000000	-0.154072	0.000000	0.000001	-0.000000	0.000000	0.000000
47.368050	16.053226	17.500626	1.436370	-1.813164	2.599054	0.000000	-0.232154	0.000000	0.000001	-0.000000	0.000000	0.000000
47.917110	14.268249	19.901187	1.795355	-2.584772	2.451065	0.000000	-0.306118	0.000000	0.000001	-0.000000	0.000000	0.000000
48.363070	12.879058	22.035597	1.330738	-2.181209	2.329839	0.000000	-0.237826	0.000000	0.000001	-0.000000	0.000000	0.000000
48.804030	11.885630	23.744595	0.930685	-1.679673	2.239426	0.000000	-0.172639	0.000000	0.000001	-0.000000	0.000000	0.000000
49.244990	11.225003	24.975761	0.573153	-1.101714	2.177297	0.000000	-0.109419	0.000000	0.000000	-0.000000	0.000000	0.000000
49.685950	10.866997	25.673076	0.241806	-0.473627	2.142744	0.000000	-0.047445	0.000000	0.000000	-0.000000	0.000000	0.000000
50.128160	10.795384	25.804533	-0.052136	0.112680	2.135386	0.000000	0.008752	0.000000	0.000000	-0.000000	0.000000	0.000000
50.425482	10.834598	25.740997	-0.079752	0.101012	2.137988	0.000000	0.008752	0.000000	0.000000	-0.000000	0.000000	0.000000
50.758816	10.898086	25.678017	-0.110713	0.087930	2.140906	0.000000	0.008752	0.000000	-0.000000	-0.000000	0.000000	0.000000
51.092149	10.982215	25.623757	-0.141675	0.074848	2.143824	0.000000	0.008752	0.000000	-0.000000	-0.000000	0.000000	0.000000
51.426732	11.087192	25.578583	-0.082806	-0.145788	2.146730	0.000000	-0.008663	0.000000	-0.000000	-0.000000	0.000000	0.000000
51.724055	11.144460	25.668805	-0.082477	-0.220607	2.144155	0.000000	-0.013921	0.000000	-0.000000	-0.000000	0.000000	0.000000
52.165015	11.362674	25.577820	-0.414260	0.426155	2.151604	0.000000	0.047740	0.000000	-0.000000	-0.000000	0.000000	0.000000
52.605975	11.880702	24.922847	-0.764970	1.053527	2.186338	0.000000	0.109945	0.000000	-0.000001	-0.000000	0.000000	0.000000
53.046935	12.722212	23.733687	-1.150629	1.632965	2.248751	0.000000	0.173402	0.000000	-0.000001	-0.000000	0.000000	0.000000
53.487895	13.925650	22.064445	-1.588858	2.138103	2.339554	0.000000	0.238834	0.000000	-0.000001	-0.000000	0.000000	0.000000
53.933855	15.566623	19.966110	-2.103914	2.547295	2.461287	0.000000	0.307385	0.000000	-0.000001	-0.000000	0.000000	0.000000
54.482915	17.679270	17.605045	-1.721062	1.778283	2.609880	0.000000	0.233079	0.000000	-0.000001	-0.000000	0.000000	0.000000
55.031975	19.301851	16.014354	-1.216643	1.135935	2.716477	0.000000	0.154640	0.000000	-0.000001	-0.000000	0.000000	0.000000
55.581035	20.319755	15.080736	-0.626286	0.574496	2.779189	0.000000	0.073457	0.000000	-0.000002	-0.000000	0.000000	0.000000
56.130095	20.661082	14.737690	0.008309	0.053978	2.796903	0.000000	-0.009029	0.000000	-0.000002	-0.000000	0.000000	0.000000
56.428668	20.692681	14.688563	-0.060157	0.072053	2.796389	0.000000	-0.001721	0.000000	-0.000002	-0.000000	0.000000	0.000000
56.762001	20.738174	14.648131	-0.076324	0.049242	2.795816	0.000000	-0.001721	0.000000	-0.000002	-0.000000	0.000000	0.000000
57.095334	20.794446	14.622907	-0.092491	0.026431	2.795242	0.000000	-0.001721	0.000000	-0.000002	-0.000000	0.000000	0.000000
57.429918	20.861767	14.612881	-0.108719	0.003534	2.794667	0.000000	-0.001721	0.000000	-0.000002	-0.000000	0.000000	0.000000
57.727240	20.930704	14.616829	-0.177828	0.021379	2.794155	0.000000	0.005580	0.000000	-0.000002	-0.000000	0.000000	0.000000
58.276300	20.768835	14.874112	0.470894	-0.492732	2.774578	0.000000	-0.076786	0.000000	-0.000002	-0.000000	0.000000	0.000000
58.825360	19.908721	15.711793	1.086354	-1.041939	2.710085	0.000000	-0.157791	0.000000	-0.000002	-0.000000	0.000000	0.000000
59.374420	18.411115	17.189540	1.625080	-1.665361	2.601819	0.000000	-0.235996	0.000000	-0.000002	-0.000000	0.000000	0.000000
59.923480	16.381802	19.412609	2.049018	-2.407403	2.451701	0.000000	-0.310016	0.000000	-0.000002	0.000000	0.000000	0.000000
60.369440	14.793377	21.388567	1.525407	-2.004692	2.328738	0.000000	-0.241730	0.000000	-0.000002	0.000000	0.000000	0.000000
60.810400	13.650728	22.945274	1.075699	-1.512141	2.236593	0.000000	-0.176594	0.000000	-0.000002	-0.000000	0.000000	0.000000
61.251360	12.881598	24.035475	0.675136	-0.950788	2.172701	0.000000	-0.113469	0.000000	-0.000002	-0.000000	0.000000	0.000000
61.692320	12.450847	24.609568	0.305419	-0.346174	2.136333	0.000000	-0.051637	0.000000	-0.000002	-0.000000	0.000000	0.000000
62.134530	12.338844	24.640897	-0.020187	0.213707	2.127081	0.000000	0.004391	0.000000	-0.000002	-0.000000	0.000000	0.000000
62.431853	12.358016	24.517569	-0.044293	0.201090	2.128387	0.000000	0.004391	0.000000	-0.000002	-0.000000	0.000000	0.000000
62.765186	12.396553	24.388224	-0.071319	0.186944	2.129851	0.000000	0.004391	0.000000	-0.000002	-0.000000	0.000000	0.000000
63.098520	12.453108	24.268310	-0.098345	0.172799	2.131314	0.000000	0.004391	0.000000	-0.000003	-0.000000	0.000000	0.000000
63.433103	12.527993	24.157429	-0.125472	0.158600	2.132784	0.000000	0.004391	0.000000	-0.000003	-0.000000	0.000000	0.000000
63.730426	12.609772	24.066869	-0.118655	0.086962	2.134089	0.000000	-0.000842	0.000000	-0.000003	-0.000000	0.000000	0.000000
64.171386	12.874934	23.725112	-0.484956	0.685119	2.147259	0.000000	0.060633	0.000000	-0.000003	-0.000000	0.000000	0.000000
64.612346	13.471657	22.867611	-0.873412	1.252103	2.187664	0.000000	0.122799	0.000000	-0.000003	-0.000000	0.000000	0.000000
65.053306	14.427201	21.533383	-1.301773	1.762118	2.255764	0.000000	0.186364	0.000000	-0.000003	-0.000000	0.000000	0.000000
65.494266	15.785225	19.783134	-1.789608	2.191957	2.352334	0.000000	0.252051	0.000000	-0.000003	-0.000001	0.000000	0.000000
65.940226	17.630940	17.671722	-2.363899	2.522822	2.480046	0.000000	0.321011	0.000000	-0.000004	-0.000001	0.000000	0.000000
66.489286	19.996769	15.309631	-1.919466	1.804636	2.635932	0.000000	0.245979	0.000000	-0.000004	-0.000000	0.000000	0.000000
67.038346	21.796766	13.661404	-1.339452	1.214990	2.749360	0.000000	0.166585	0.000000	-0.000004	-0.000000	0.000000	0.000000
67.587406	22.903788	12.609642	-0.664826	0.711885	2.818319	0.000000	0.084235	0.000000	-0.000004	-0.000000	0.000000	0.000000
68.136466	23.239641	12.079431	0.056760	0.259486	2.841586	0.000000	0.000392	0.000000	-0.000004	-0.000000	0.000000	0.000000
68.435038	23.245844	11.913638	-0.016811	0.264237	2.843920	0.000000	0.007817	0.000000	-0.000004	-0.000000	0.000000	0.000000
68.768372	23.261833	11.747457	-0.031155	0.234305	2.846526	0.000000	0.007817	0.000000	-0.000004	-0.000000	0.000000	0.000000
69.101705	23.287384	11.601232	-0.045498	0.204372	2.849131	0.000000	0.007817	0.000000	-0.000004	-0.000000	0.000000	0.000000
69.436288	23.322647	11.474525	-0.059896	0.174327	2.851747	0.000000	0.007817	0.000000	-0.000004	-0.000000	0.000000	0.000000
69.733611	23.362067	11.378801	-0.133733	0.177360	2.854071	0.000000	0.015274	0.000000	-0.000004	-0.000000	0.000000	0.000000
70.282671	23.107700	11.411843	0.594268	-0.237896	2.839269	0.000000	-0.069111	0.000000	-0.000004	0.000000	0.000000	0.000000
