#ParticleID	Turn	x[m]	xp	y[m]	yp	z[m]	dE[GeV]# s	beta_x	beta_y	alpha_x	alpha_y	D_x	D_y	D_px	D_py	orbit_x	orbit_px	orbit_y	orbit_py
0.300000	11.817511	25.002983	-0.011491	-0.027414	2.618101	0.000000	0.000016	0.000000	-0.000000	0.000001	0.000000	0.000000
0.601250	11.832115	25.023132	-0.036986	-0.039472	2.618105	0.000000	0.000016	0.000000	-0.000000	0.000001	0.000000	0.000000
0.898573	11.861590	25.050142	-0.033060	-0.112802	2.618110	0.000000	-0.006404	0.000000	0.000000	0.000001	0.000000	0.000000
1.339533	12.042921	24.871759	-0.379720	0.515796	2.631579	0.000000	0.067553	0.000000	0.000000	0.000001	0.000000	0.000000
1.780493	12.536445	24.147273	-0.743728	1.120925	2.677798	0.000000	0.142280	0.000000	0.000001	0.000001	0.000000	0.000000
2.221453	13.364708	22.909649	-1.141715	1.675053	2.757295	0.000000	0.218627	0.000000	0.000001	0.000001	0.000000	0.000000
2.662413	14.565552	21.215197	-1.591864	2.152968	2.870974	0.000000	0.297464	0.000000	0.000002	0.000001	0.000000	0.000000
3.108373	16.214597	19.116162	-2.119032	2.534056	3.021991	0.000000	0.380178	0.000000	0.000002	0.000001	0.000000	0.000000
3.657433	18.329213	16.758662	-1.709507	1.784991	3.205460	0.000000	0.287140	0.000000	0.000003	0.000001	0.000000	0.000000
4.206493	19.924749	15.149499	-1.179231	1.163067	3.336369	0.000000	0.189009	0.000000	0.000003	0.000001	0.000000	0.000000
4.755553	20.888504	14.174057	-0.565660	0.623986	3.412398	0.000000	0.087526	0.000000	0.000004	0.000001	0.000000	0.000000
5.304613	21.152405	13.762857	0.087866	0.129350	3.432197	0.000000	-0.015511	0.000000	0.000004	0.000001	0.000000	0.000000
5.603185	21.137156	13.670798	0.018470	0.143022	3.430243	0.000000	-0.006543	0.000000	0.000004	0.000001	0.000000	0.000000
5.936519	21.130101	13.583744	0.002695	0.118140	3.428062	0.000000	-0.006543	0.000000	0.000005	0.000001	0.000000	0.000000
6.269852	21.133563	13.513278	-0.013080	0.093258	3.425880	0.000000	-0.006543	0.000000	0.000005	0.000001	0.000000	0.000000
6.604435	21.147614	13.459229	-0.028915	0.068284	3.423691	0.000000	-0.006543	0.000000	0.000005	0.000001	0.000000	0.000000
6.901758	21.168992	13.425223	-0.098294	0.081166	3.421745	0.000000	0.002397	0.000000	0.000005	0.000001	0.000000	0.000000
7.450818	20.916132	13.596837	0.556101	-0.395570	3.394859	0.000000	-0.100186	0.000000	0.000006	0.000001	0.000000	0.000000
7.999878	19.962083	14.304272	1.171216	-0.900482	3.312055	0.000000	-0.200991	0.000000	0.000006	0.000000	0.000000	0.000000
8.548938	18.374235	15.597917	1.703603	-1.469534	3.174801	0.000000	-0.298232	0.000000	0.000006	0.000000	0.000000	0.000000
9.097998	16.264746	17.569916	2.115655	-2.143257	2.985532	0.000000	-0.390183	0.000000	0.000006	-0.000000	0.000000	0.000000
9.543958	14.618933	19.327080	1.587961	-1.780273	2.829833	0.000000	-0.308475	0.000000	0.000006	0.000000	0.000000	0.000000
9.984918	13.421829	20.707155	1.137106	-1.337522	2.711055	0.000000	-0.230764	0.000000	0.000006	0.000000	0.000000	0.000000
10.425878	12.598019	21.668329	0.738202	-0.833914	2.625932	0.000000	-0.155681	0.000000	0.000006	0.000000	0.000000	0.000000
10.866838	12.109864	22.166869	0.373024	-0.292363	2.573496	0.000000	-0.082372	0.000000	0.000006	0.000001	0.000000	0.000000
11.309048	11.934928	22.179572	0.054051	0.208042	2.553128	0.000000	-0.016262	0.000000	0.000007	0.000001	0.000000	0.000000
11.606371	11.910215	22.060019	0.029066	0.194056	2.548293	0.000000	-0.016262	0.000000	0.000007	0.000001	0.000000	0.000000
12.086371	11.901673	21.884563	-0.011269	0.171478	2.540487	0.000000	-0.016262	0.000000	0.000007	0.000001	0.000000	0.000000
12.566371	11.931853	21.730781	-0.051605	0.148900	2.532682	0.000000	-0.016262	0.000000	0.000008	0.000001	0.000000	0.000000
13.046371	12.000755	21.598675	-0.091941	0.126322	2.524876	0.000000	-0.016262	0.000000	0.000008	0.000001	0.000000	0.000000
13.526371	12.108379	21.488244	-0.132276	0.103743	2.517070	0.000000	-0.016262	0.000000	0.000008	0.000001	0.000000	0.000000
14.007621	12.255157	21.399285	-0.172717	0.081106	2.509244	0.000000	-0.016262	0.000000	0.000009	0.000001	0.000000	0.000000
14.304943	12.365290	21.355213	-0.167381	0.014756	2.504408	0.000000	-0.022403	0.000000	0.000009	0.000001	0.000000	0.000000
14.745903	12.671489	21.108460	-0.529645	0.542697	2.510162	0.000000	0.048524	0.000000	0.000009	0.000001	0.000000	0.000000
15.186863	13.306599	20.405255	-0.916108	1.045946	2.547283	0.000000	0.120003	0.000000	0.000010	0.000001	0.000000	0.000000
15.627823	14.299637	19.277596	-1.344424	1.501605	2.616195	0.000000	0.192849	0.000000	0.000010	0.000001	0.000000	0.000000
16.068783	15.695970	17.776789	-1.834164	1.888942	2.717682	0.000000	0.267892	0.000000	0.000011	0.000002	0.000000	0.000000
16.514743	17.583051	15.949616	-2.412459	2.191080	2.854595	0.000000	0.346448	0.000000	0.000012	0.000002	0.000000	0.000000
17.063803	20.006681	13.909376	-1.975552	1.546732	3.021082	0.000000	0.259108	0.000000	0.000013	0.000002	0.000000	0.000000
17.612863	21.870603	12.512421	-1.399102	1.012554	3.138281	0.000000	0.167173	0.000000	0.000013	0.000001	0.000000	0.000000
18.161923	23.043159	11.659248	-0.723826	0.550497	3.204113	0.000000	0.072273	0.000000	0.000014	0.000001	0.000000	0.000000
18.710983	23.441526	11.289088	0.002578	0.127652	3.217410	0.000000	-0.023909	0.000000	0.000014	0.000000	0.000000	0.000000
19.009556	23.480372	11.203341	-0.071444	0.130044	3.212781	0.000000	-0.015503	0.000000	0.000014	0.000000	0.000000	0.000000
19.342889	23.532758	11.126731	-0.085713	0.099787	3.207613	0.000000	-0.015503	0.000000	0.000014	0.000000	0.000000	0.000000
19.676223	23.594656	11.070292	-0.099981	0.069531	3.202445	0.000000	-0.015503	0.000000	0.000014	0.000000	0.000000	0.000000
20.010806	23.666645	11.033788	-0.231561	0.093830	3.197278	0.000000	0.000338	0.000000	0.000015	0.000000	0.000000	0.000000
20.308129	23.808277	10.986075	-0.306997	0.095347	3.197378	0.000000	0.008691	0.000000	0.000015	0.000000	0.000000	0.000000
20.857189	23.734765	11.103616	0.440092	-0.310686	3.175928	0.000000	-0.086710	0.000000	0.000015	-0.000000	0.000000	0.000000
21.406249	22.853143	11.676492	1.156096	-0.738850	3.102442	0.000000	-0.180573	0.000000	0.000015	-0.000001	0.000000	0.000000
21.955309	21.225684	12.745510	1.790438	-1.219639	2.978226	0.000000	-0.271233	0.000000	0.000014	-0.000001	0.000000	0.000000
22.504369	18.967345	14.386813	2.298313	-1.787301	2.805481	0.000000	-0.357082	0.000000	0.000014	-0.000001	0.000000	0.000000
22.950329	17.187593	15.860367	1.706607	-1.502988	2.663532	0.000000	-0.279866	0.000000	0.000013	-0.000001	0.000000	0.000000
23.391289	15.911808	17.035204	1.197567	-1.151145	2.556446	0.000000	-0.206291	0.000000	0.000013	-0.000001	0.000000	0.000000
23.832249	15.059224	17.875375	0.743241	-0.746926	2.481255	0.000000	-0.135067	0.000000	0.000012	-0.000000	0.000000	0.000000
24.273209	14.590887	18.342652	0.322871	-0.308722	2.437103	0.000000	-0.065380	0.000000	0.000012	-0.000000	0.000000	0.000000
24.715418	14.485521	18.415529	-0.047316	0.098304	2.423483	0.000000	-0.002381	0.000000	0.000012	0.000000	0.000000	0.000000
25.012741	14.519773	18.361920	-0.067887	0.082002	2.422775	0.000000	-0.002381	0.000000	0.000012	0.000000	0.000000	0.000000
25.346075	14.572719	18.313343	-0.090950	0.063727	2.421981	0.000000	-0.002381	0.000000	0.000012	0.000000	0.000000	0.000000
25.679408	14.641040	18.276951	-0.114013	0.045451	2.421188	0.000000	-0.002381	0.000000	0.000012	0.000000	0.000000	0.000000
26.013991	14.724781	18.253044	-0.017706	-0.120971	2.420367	0.000000	-0.022017	0.000000	0.000012	0.000000	0.000000	0.000000
26.311314	14.741315	18.329892	-0.001758	-0.182443	2.413821	0.000000	-0.027935	0.000000	0.000012	0.000000	0.000000	0.000000
26.752274	14.924490	18.291990	-0.415218	0.268069	2.416614	0.000000	0.040618	0.000000	0.000012	0.000000	0.000000	0.000000
27.193234	15.479259	17.860654	-0.847649	0.706384	2.449710	0.000000	0.109634	0.000000	0.000013	0.000001	0.000000	0.000000
27.634194	16.430969	17.055508	-1.318806	1.112560	2.513485	0.000000	0.179898	0.000000	0.000013	0.000001	0.000000	0.000000
28.075154	17.823101	15.913187	-1.850216	1.468114	2.608665	0.000000	0.252211	0.000000	0.000013	0.000001	0.000000	0.000000
28.521114	19.743443	14.468459	-2.471122	1.757783	2.737938	0.000000	0.327840	0.000000	0.000014	0.000002	0.000000	0.000000
29.070174	22.184209	12.858715	-1.947917	1.191339	2.895275	0.000000	0.244429	0.000000	0.000015	0.000001	0.000000	0.000000
29.619234	23.971016	11.821028	-1.287120	0.709751	3.005554	0.000000	0.156683	0.000000	0.000015	0.000001	0.000000	0.000000
30.168294	24.977653	11.281485	-0.535408	0.278716	3.066820	0.000000	0.066157	0.000000	0.000016	0.000000	0.000000	0.000000
30.717354	25.133016	11.201655	0.254122	-0.132465	3.077986	0.000000	-0.025542	0.000000	0.000016	-0.000000	0.000000	0.000000
31.015927	25.024149	11.271325	0.176161	-0.130140	3.072761	0.000000	-0.017501	0.000000	0.000016	-0.000000	0.000000	0.000000
31.349260	24.911287	11.368109	0.162427	-0.160214	3.066928	0.000000	-0.017501	0.000000	0.000015	-0.000000	0.000000	0.000000
31.682593	24.807580	11.484943	0.148694	-0.190288	3.061094	0.000000	-0.017501	0.000000	0.000015	-0.000000	0.000000	0.000000
32.017177	24.712691	11.622378	0.134908	-0.220476	3.055239	0.000000	-0.017501	0.000000	0.000015	-0.000000	0.000000	0.000000
32.314499	24.636111	11.761459	0.058297	-0.216575	3.050035	0.000000	-0.009533	0.000000	0.000015	-0.000000	0.000000	0.000000
32.863559	24.150012	12.238526	0.821791	-0.657434	3.019916	0.000000	-0.100019	0.000000	0.000015	-0.000001	0.000000	0.000000
33.412619	22.852574	13.222430	1.527237	-1.145122	2.940529	0.000000	-0.188732	0.000000	0.000014	-0.000001	0.000000	0.000000
33.961679	20.835441	14.783251	2.124807	-1.714373	2.813282	0.000000	-0.274096	0.000000	0.000014	-0.000002	0.000000	0.000000
34.510739	18.241094	17.032164	2.572292	-2.405736	2.640433	0.000000	-0.354599	0.000000	0.000013	-0.000002	0.000000	0.000000
34.956699	16.223910	19.043720	1.967153	-2.086049	2.498640	0.000000	-0.281662	0.000000	0.000012	-0.000002	0.000000	0.000000
35.397659	14.719745	20.707285	1.456900	-1.672193	2.389822	0.000000	-0.212361	0.000000	0.000011	-0.000001	0.000000	0.000000
35.838619	13.634642	21.970791	1.013209	-1.182255	2.311001	0.000000	-0.145479	0.000000	0.000011	-0.000001	0.000000	0.000000
36.279579	12.919025	22.776749	0.615808	-0.638524	2.261279	0.000000	-0.080253	0.000000	0.000010	-0.000001	0.000000	0.000000
36.721789	12.539507	23.088794	0.277184	-0.122411	2.240064	0.000000	-0.021435	0.000000	0.000010	-0.000001	0.000000	0.000000
37.019112	12.382272	23.165472	0.251651	-0.135481	2.233691	0.000000	-0.021435	0.000000	0.000009	-0.000001	0.000000	0.000000
37.352445	12.224046	23.260677	0.223026	-0.150135	2.226546	0.000000	-0.021435	0.000000	0.000009	-0.000001	0.000000	0.000000
37.685779	12.084904	23.365651	0.194401	-0.164788	2.219402	0.000000	-0.021435	0.000000	0.000009	-0.000001	0.000000	0.000000
38.020362	11.964430	23.480843	0.165669	-0.179496	2.212230	0.000000	-0.021435	0.000000	0.000009	-0.000001	0.000000	0.000000
38.317684	11.873507	23.591465	0.169251	-0.250415	2.205857	0.000000	-0.026844	0.000000	0.000009	-0.000001	0.000000	0.000000
38.758644	11.875633	23.551011	-0.174090	0.341808	2.207949	0.000000	0.036339	0.000000	0.000008	-0.000000	0.000000	0.000000
39.199604	12.182908	22.993152	-0.525385	0.918479	2.237967	0.000000	0.099936	0.000000	0.000008	-0.000000	0.000000	0.000000
39.640564	12.809371	21.943271	-0.900684	1.453360	2.296252	0.000000	0.164671	0.000000	0.000008	-0.000000	0.000000	0.000000
40.081524	13.783643	20.449135	-1.317132	1.922115	2.383468	0.000000	0.231281	0.000000	0.000008	0.000000	0.000000	0.000000
40.527484	15.167810	18.556158	-1.797583	2.304697	2.502082	0.000000	0.300931	0.000000	0.000008	0.000000	0.000000	0.000000
41.076544	16.934217	16.428947	-1.400521	1.592450	2.646779	0.000000	0.225367	0.000000	0.000008	0.000000	0.000000	0.000000
41.625604	18.207367	15.017365	-0.904533	0.993631	2.748827	0.000000	0.145805	0.000000	0.000008	-0.000000	0.000000	0.000000
42.174664	18.897330	14.220869	-0.344654	0.465585	2.806416	0.000000	0.063657	0.000000	0.000008	-0.000000	0.000000	0.000000
42.723724	18.955371	13.982727	0.239570	-0.029297	2.818524	0.000000	-0.019620	0.000000	0.000008	-0.000001	0.000000	0.000000
43.022297	18.846758	13.984782	0.173726	-0.014119	2.814865	0.000000	-0.012256	0.000000	0.000008	-0.000001	0.000000	0.000000
43.502297	18.692574	14.014815	0.147489	-0.048449	2.808982	0.000000	-0.012256	0.000000	0.000007	-0.000001	0.000000	0.000000
43.982297	18.563579	14.077805	0.121252	-0.082779	2.803100	0.000000	-0.012256	0.000000	0.000007	-0.000001	0.000000	0.000000
44.462297	18.459771	14.173751	0.095015	-0.117109	2.797217	0.000000	-0.012256	0.000000	0.000007	-0.000001	0.000000	0.000000
44.942297	18.381150	14.302654	0.068777	-0.151439	2.791335	0.000000	-0.012256	0.000000	0.000006	-0.000001	0.000000	0.000000
45.423547	18.327839	14.464799	-0.048334	-0.114191	2.785454	0.000000	0.001545	0.000000	0.000006	-0.000001	0.000000	0.000000
45.720870	18.361415	14.538894	-0.112567	-0.097028	2.785913	0.000000	0.008824	0.000000	0.000006	-0.000001	0.000000	0.000000
46.269930	18.175856	14.926650	0.448524	-0.613359	2.768185	0.000000	-0.073306	0.000000	0.000005	-0.000001	0.000000	0.000000
46.818990	17.387981	15.901920	0.977934	-1.173379	2.705655	0.000000	-0.154135	0.000000	0.000005	-0.000001	0.000000	0.000000
47.368050	16.053440	17.534170	1.438268	-1.816976	2.599430	0.000000	-0.232230	0.000000	0.000004	-0.000001	0.000000	0.000000
47.917110	14.266501	19.939660	1.797009	-2.589992	2.451396	0.000000	-0.306206	0.000000	0.000004	-0.000001	0.000000	0.000000
48.363070	12.875893	22.078367	1.332273	-2.185584	2.330133	0.000000	-0.237905	0.000000	0.000003	-0.000001	0.000000	0.000000
48.804030	11.881137	23.790777	0.932173	-1.683006	2.239687	0.000000	-0.172712	0.000000	0.000003	-0.000001	0.000000	0.000000
49.244990	11.219194	25.024365	0.574662	-1.103853	2.177528	0.000000	-0.109485	0.000000	0.000002	-0.000001	0.000000	0.000000
49.685950	10.859823	25.723004	0.243405	-0.474476	2.142948	0.000000	-0.047505	0.000000	0.000002	-0.000001	0.000000	0.000000
50.128160	10.786730	25.854623	-0.050396	0.113038	2.135565	0.000000	0.008697	0.000000	0.000001	-0.000001	0.000000	0.000000
50.425482	10.824914	25.790869	-0.078030	0.101391	2.138151	0.000000	0.008697	0.000000	0.000001	-0.000001	0.000000	0.000000
50.758816	10.887260	25.727627	-0.109010	0.088334	2.141050	0.000000	0.008697	0.000000	0.000001	-0.000001	0.000000	0.000000
51.092149	10.970261	25.673090	-0.139991	0.075277	2.143949	0.000000	0.008697	0.000000	0.000000	-0.000001	0.000000	0.000000
51.426732	11.074118	25.627622	-0.081247	-0.145733	2.146838	0.000000	-0.008720	0.000000	-0.000000	-0.000001	0.000000	0.000000
51.724055	11.130467	25.717804	-0.080978	-0.220650	2.144245	0.000000	-0.013978	0.000000	-0.000000	-0.000001	0.000000	0.000000
52.165015	11.347206	25.626285	-0.412404	0.427406	2.151670	0.000000	0.047685	0.000000	-0.000001	-0.000001	0.000000	0.000000
52.605975	11.863409	24.969657	-0.762672	1.056015	2.186380	0.000000	0.109891	0.000000	-0.000001	-0.000001	0.000000	0.000000
53.046935	12.702660	23.777796	-1.147784	1.636576	2.248770	0.000000	0.173349	0.000000	-0.000002	-0.000001	0.000000	0.000000
53.487895	13.903300	22.104932	-1.585335	2.142675	2.339551	0.000000	0.238782	0.000000	-0.000002	-0.000001	0.000000	0.000000
53.933855	15.540766	20.002165	-2.099546	2.552620	2.461261	0.000000	0.307332	0.000000	-0.000003	-0.000001	0.000000	0.000000
54.482915	17.648950	17.636032	-1.717348	1.782243	2.609825	0.000000	0.233028	0.000000	-0.000003	-0.000001	0.000000	0.000000
55.031975	19.267934	16.041610	-1.213846	1.138811	2.716395	0.000000	0.154590	0.000000	-0.000004	-0.000001	0.000000	0.000000
55.581035	20.283364	15.105331	-0.624604	0.576495	2.779081	0.000000	0.073411	0.000000	-0.000004	-0.000001	0.000000	0.000000
56.130095	20.623514	14.760505	0.008757	0.055241	2.796771	0.000000	-0.009071	0.000000	-0.000005	-0.000001	0.000000	0.000000
56.428668	20.654795	14.710581	-0.059637	0.073403	2.796245	0.000000	-0.001763	0.000000	-0.000005	-0.000001	0.000000	0.000000
56.762001	20.699951	14.669239	-0.075833	0.050621	2.795657	0.000000	-0.001763	0.000000	-0.000005	-0.000001	0.000000	0.000000
57.095334	20.755905	14.643086	-0.092028	0.027840	2.795070	0.000000	-0.001763	0.000000	-0.000005	-0.000001	0.000000	0.000000
57.429918	20.822926	14.632107	-0.108285	0.004973	2.794480	0.000000	-0.001763	0.000000	-0.000006	-0.000001	0.000000	0.000000
57.727240	20.891612	14.635192	-0.177319	0.022893	2.793956	0.000000	0.005537	0.000000	-0.000006	-0.000001	0.000000	0.000000
58.276300	20.729907	14.891094	0.470089	-0.491717	2.774358	0.000000	-0.076822	0.000000	-0.000006	-0.000001	0.000000	0.000000
58.825360	19.871375	15.727901	1.084293	-1.041352	2.709847	0.000000	-0.157819	0.000000	-0.000006	-0.000000	0.000000	0.000000
59.374420	18.376660	17.205218	1.621908	-1.665160	2.601568	0.000000	-0.236017	0.000000	-0.000006	-0.000000	0.000000	0.000000
59.923480	16.351340	19.428271	2.044960	-2.407573	2.451441	0.000000	-0.310028	0.000000	-0.000006	0.000000	0.000000	0.000000
60.369440	14.766124	21.404152	1.522242	-2.004348	2.328470	0.000000	-0.241749	0.000000	-0.000006	-0.000000	0.000000	0.000000
60.810400	13.625930	22.960334	1.073276	-1.511301	2.236316	0.000000	-0.176620	0.000000	-0.000006	-0.000000	0.000000	0.000000
61.251360	12.858651	24.049589	0.673345	-0.949490	2.172411	0.000000	-0.113503	0.000000	-0.000007	-0.000000	0.000000	0.000000
61.692320	12.429231	24.622358	0.304178	-0.344479	2.136027	0.000000	-0.051678	0.000000	-0.000007	-0.000001	0.000000	0.000000
62.134530	12.318105	24.652039	-0.020985	0.215694	2.126755	0.000000	0.004342	0.000000	-0.000007	-0.000001	0.000000	0.000000
62.431853	12.337763	24.527530	-0.045133	0.203072	2.128046	0.000000	0.004342	0.000000	-0.000007	-0.000001	0.000000	0.000000
62.765186	12.376876	24.396866	-0.072205	0.188921	2.129494	0.000000	0.004342	0.000000	-0.000008	-0.000001	0.000000	0.000000
63.098520	12.434037	24.275635	-0.099277	0.174771	2.130942	0.000000	0.004342	0.000000	-0.000008	-0.000001	0.000000	0.000000
63.433103	12.509562	24.163437	-0.126451	0.160567	2.132395	0.000000	0.004342	0.000000	-0.000008	-0.000001	0.000000	0.000000
63.730426	12.591935	24.071709	-0.119717	0.088909	2.133686	0.000000	-0.000890	0.000000	-0.000008	-0.000001	0.000000	0.000000
64.171386	12.857864	23.728193	-0.485638	0.687144	2.146833	0.000000	0.060574	0.000000	-0.000009	-0.000001	0.000000	0.000000
64.612346	13.455032	22.868907	-0.873746	1.254113	2.187210	0.000000	0.122729	0.000000	-0.000009	-0.000001	0.000000	0.000000
65.053306	14.410723	21.532947	-1.301773	1.764022	2.255276	0.000000	0.186281	0.000000	-0.000010	-0.000001	0.000000	0.000000
65.494266	15.768599	19.781097	-1.789274	2.193669	2.351807	0.000000	0.251955	0.000000	-0.000010	-0.000002	0.000000	0.000000
65.940226	17.613861	17.668276	-2.363214	2.524260	2.479475	0.000000	0.320901	0.000000	-0.000011	-0.000002	0.000000	0.000000
66.489286	19.979301	15.304676	-1.919449	1.805964	2.635306	0.000000	0.245889	0.000000	-0.000012	-0.000002	0.000000	0.000000
67.038346	21.779648	13.655008	-1.340104	1.216303	2.748691	0.000000	0.166515	0.000000	-0.000013	-0.000001	0.000000	0.000000
67.587406	22.887733	12.601771	-0.666100	0.713276	2.817618	0.000000	0.084188	0.000000	-0.000013	-0.000001	0.000000	0.000000
68.136466	23.225287	12.069944	0.054953	0.261055	2.840866	0.000000	0.000368	0.000000	-0.000014	-0.000000	0.000000	0.000000
68.435038	23.232551	11.903240	-0.018593	0.265740	2.843192	0.000000	0.007791	0.000000	-0.000014	-0.000000	0.000000	0.000000
68.768372	23.249731	11.736074	-0.032945	0.235759	2.845790	0.000000	0.007791	0.000000	-0.000014	-0.000000	0.000000	0.000000
69.101705	23.276479	11.588894	-0.047298	0.205778	2.848387	0.000000	0.007791	0.000000	-0.000014	-0.000000	0.000000	0.000000
69.436288	23.312949	11.461263	-0.061705	0.175685	2.850994	0.000000	0.007791	0.000000	-0.000014	-0.000000	0.000000	0.000000
69.733611	23.353448	11.364744	-0.135532	0.178640	2.853311	0.000000	0.015247	0.000000	-0.000014	-0.000000	0.000000	0.000000
70.282671	23.101196	11.396161	0.592237	-0.236196	2.838501	0.000000	-0.069113	0.000000	-0.000014	0.000000	0.000000	0.000000
