#ParticleID	Turn	x[m]	xp	y[m]	yp	z[m]	dE[GeV]# s	beta_x	beta_y	alpha_x	alpha_y	D_x	D_y	D_px	D_py	orbit_x	orbit_px	orbit_y	orbit_py
0.300000	11.809836	25.034024	-0.010662	-0.027088	2.618163	0.000000	-0.000009	0.000000	-0.000001	0.000001	0.000000	0.000000
0.601250	11.823946	25.053972	-0.036174	-0.039130	2.618160	0.000000	-0.000009	0.000000	-0.000001	0.000001	0.000000	0.000000
0.898573	11.852942	25.080775	-0.032286	-0.112521	2.618157	0.000000	-0.006429	0.000000	-0.000000	0.000001	0.000000	0.000000
1.339533	12.033498	24.901787	-0.378728	0.516881	2.631615	0.000000	0.067529	0.000000	0.000001	0.000001	0.000000	0.000000
1.780493	12.526035	24.176007	-0.742474	1.122764	2.677824	0.000000	0.142257	0.000000	0.000001	0.000002	0.000000	0.000000
2.221453	13.353056	22.936458	-1.140141	1.677563	2.757310	0.000000	0.218604	0.000000	0.000002	0.000002	0.000000	0.000000
2.662413	14.552344	21.239538	-1.589898	2.156034	2.870979	0.000000	0.297441	0.000000	0.000003	0.000002	0.000000	0.000000
3.108373	16.199428	19.137571	-2.116581	2.537540	3.021986	0.000000	0.380156	0.000000	0.000003	0.000002	0.000000	0.000000
3.657433	18.311554	16.776729	-1.707452	1.787629	3.205443	0.000000	0.287118	0.000000	0.000004	0.000002	0.000000	0.000000
4.206493	19.905119	15.165046	-1.177717	1.165047	3.336340	0.000000	0.188988	0.000000	0.000005	0.000001	0.000000	0.000000
4.755553	20.867560	14.187725	-0.564794	0.625449	3.412357	0.000000	0.087506	0.000000	0.000006	0.000001	0.000000	0.000000
5.304613	21.130895	13.775154	0.088023	0.130400	3.432145	0.000000	-0.015529	0.000000	0.000006	0.000001	0.000000	0.000000
5.603185	21.115523	13.682446	0.018670	0.144115	3.430186	0.000000	-0.006562	0.000000	0.000007	0.000001	0.000000	0.000000
5.936519	21.108340	13.594659	0.002879	0.119247	3.427998	0.000000	-0.006562	0.000000	0.000007	0.000001	0.000000	0.000000
6.269852	21.111685	13.523450	-0.012913	0.094379	3.425810	0.000000	-0.006562	0.000000	0.000007	0.000001	0.000000	0.000000
6.604435	21.125629	13.468647	-0.028764	0.069417	3.423614	0.000000	-0.006562	0.000000	0.000008	0.000001	0.000000	0.000000
6.901758	21.146921	13.433963	-0.098099	0.082334	3.421663	0.000000	0.002378	0.000000	0.000008	0.000001	0.000000	0.000000
7.450818	20.894254	13.604424	0.555558	-0.394627	3.394767	0.000000	-0.100202	0.000000	0.000009	0.000001	0.000000	0.000000
7.999878	19.941192	14.310915	1.169973	-0.899696	3.311955	0.000000	-0.201005	0.000000	0.000009	0.000001	0.000000	0.000000
8.548938	18.355055	15.603757	1.701747	-1.468848	3.174694	0.000000	-0.298242	0.000000	0.000009	0.000000	0.000000	0.000000
9.097998	16.247881	17.575036	2.113319	-2.142624	2.985420	0.000000	-0.390189	0.000000	0.000009	-0.000000	0.000000	0.000000
9.543958	14.603922	19.331532	1.586127	-1.779413	2.829718	0.000000	-0.308484	0.000000	0.000009	0.000000	0.000000	0.000000
9.984918	13.408246	20.710763	1.135687	-1.336476	2.710935	0.000000	-0.230776	0.000000	0.000009	0.000000	0.000000	0.000000
10.425878	12.585528	21.670950	0.737134	-0.832729	2.625806	0.000000	-0.155697	0.000000	0.000010	0.000001	0.000000	0.000000
10.866838	12.098179	22.168404	0.372259	-0.291094	2.573362	0.000000	-0.082391	0.000000	0.000010	0.000001	0.000000	0.000000
11.309048	11.923799	22.179969	0.053524	0.209338	2.552985	0.000000	-0.016283	0.000000	0.000010	0.000001	0.000000	0.000000
11.606371	11.899407	22.059647	0.028517	0.195346	2.548143	0.000000	-0.016283	0.000000	0.000011	0.000001	0.000000	0.000000
12.086371	11.891409	21.882959	-0.011854	0.172756	2.540327	0.000000	-0.016283	0.000000	0.000011	0.000001	0.000000	0.000000
12.566371	11.922166	21.727956	-0.052225	0.150167	2.532510	0.000000	-0.016283	0.000000	0.000012	0.000001	0.000000	0.000000
13.046371	11.991680	21.594639	-0.092596	0.127577	2.524694	0.000000	-0.016283	0.000000	0.000012	0.000001	0.000000	0.000000
13.526371	12.099950	21.483008	-0.132967	0.104988	2.516877	0.000000	-0.016283	0.000000	0.000013	0.000001	0.000000	0.000000
14.007621	12.247410	21.392857	-0.173443	0.082339	2.509040	0.000000	-0.016283	0.000000	0.000014	0.000001	0.000000	0.000000
14.304943	12.357982	21.348054	-0.168148	0.016002	2.504198	0.000000	-0.022424	0.000000	0.000014	0.000001	0.000000	0.000000
14.745903	12.664793	21.100295	-0.530271	0.543723	2.509941	0.000000	0.048497	0.000000	0.000014	0.000001	0.000000	0.000000
15.186863	13.300404	20.396300	-0.916621	1.046706	2.547049	0.000000	0.119971	0.000000	0.000015	0.000002	0.000000	0.000000
15.627823	14.293853	19.268102	-1.344848	1.502063	2.615945	0.000000	0.192811	0.000000	0.000016	0.000002	0.000000	0.000000
16.068783	15.690529	17.767031	-1.834518	1.889079	2.717413	0.000000	0.267846	0.000000	0.000017	0.000003	0.000000	0.000000
16.514743	17.577901	15.939885	-2.412760	2.190886	2.854304	0.000000	0.346395	0.000000	0.000019	0.000003	0.000000	0.000000
17.063803	20.002007	13.899738	-1.976113	1.546754	3.020764	0.000000	0.259066	0.000000	0.000020	0.000003	0.000000	0.000000
17.612863	21.866671	12.502639	-1.399884	1.012794	3.137942	0.000000	0.167141	0.000000	0.000021	0.000002	0.000000	0.000000
18.161923	23.040183	11.649074	-0.724773	0.550974	3.203759	0.000000	0.072252	0.000000	0.000022	0.000001	0.000000	0.000000
18.710983	23.439651	11.278247	0.001532	0.128398	3.217048	0.000000	-0.023918	0.000000	0.000023	0.000000	0.000000	0.000000
19.009556	23.479117	11.192083	-0.072483	0.130727	3.212415	0.000000	-0.015514	0.000000	0.000023	0.000000	0.000000	0.000000
19.342889	23.532196	11.115029	-0.086755	0.100435	3.207244	0.000000	-0.015514	0.000000	0.000023	0.000000	0.000000	0.000000
19.676223	23.594790	11.058169	-0.101026	0.070143	3.202072	0.000000	-0.015514	0.000000	0.000023	0.000000	0.000000	0.000000
20.010806	23.667479	11.021268	-0.232613	0.094344	3.196901	0.000000	0.000325	0.000000	0.000023	0.000001	0.000000	0.000000
20.308129	23.809739	10.973259	-0.308054	0.095792	3.196997	0.000000	0.008677	0.000000	0.000023	0.000001	0.000000	0.000000
20.857189	23.737355	11.090112	0.439107	-0.309871	3.175543	0.000000	-0.086712	0.000000	0.000024	-0.000000	0.000000	0.000000
21.406249	22.856744	11.661865	1.155250	-0.737606	3.102060	0.000000	-0.180563	0.000000	0.000023	-0.000001	0.000000	0.000000
21.955309	21.230108	12.729244	1.789793	-1.217879	2.977852	0.000000	-0.271210	0.000000	0.000023	-0.000002	0.000000	0.000000
22.504369	18.972345	14.368275	2.297914	-1.784899	2.805123	0.000000	-0.357048	0.000000	0.000022	-0.000002	0.000000	0.000000
22.950329	17.192973	15.839874	1.706150	-1.501023	2.663188	0.000000	-0.279840	0.000000	0.000021	-0.000002	0.000000	0.000000
23.391289	15.917624	17.013204	1.197031	-1.149705	2.556112	0.000000	-0.206275	0.000000	0.000020	-0.000001	0.000000	0.000000
23.832249	15.065555	17.852360	0.742602	-0.746076	2.480927	0.000000	-0.135059	0.000000	0.000020	-0.000001	0.000000	0.000000
24.273209	14.597838	18.319163	0.322101	-0.308501	2.436776	0.000000	-0.065381	0.000000	0.000019	-0.000000	0.000000	0.000000
24.715418	14.493224	18.392127	-0.048237	0.097947	2.423155	0.000000	-0.002388	0.000000	0.000019	0.000000	0.000000	0.000000
25.012741	14.528022	18.338736	-0.068799	0.081626	2.422444	0.000000	-0.002388	0.000000	0.000019	0.000000	0.000000	0.000000
25.346075	14.581572	18.290418	-0.091852	0.063328	2.421648	0.000000	-0.002388	0.000000	0.000019	0.000000	0.000000	0.000000
25.679408	14.650491	18.254299	-0.114905	0.045031	2.420852	0.000000	-0.002388	0.000000	0.000020	0.000000	0.000000	0.000000
26.013991	14.734824	18.230680	-0.018505	-0.121232	2.420028	0.000000	-0.022021	0.000000	0.000020	0.000000	0.000000	0.000000
26.311314	14.751830	18.307691	-0.002521	-0.182668	2.413481	0.000000	-0.027939	0.000000	0.000020	0.000000	0.000000	0.000000
26.752274	14.935794	18.270252	-0.416251	0.267247	2.416271	0.000000	0.040606	0.000000	0.000020	0.000001	0.000000	0.000000
27.193234	15.491611	17.839891	-0.848999	0.705002	2.449359	0.000000	0.109612	0.000000	0.000020	0.000001	0.000000	0.000000
27.634194	16.444673	17.036189	-1.320534	1.110681	2.513122	0.000000	0.179868	0.000000	0.000021	0.000002	0.000000	0.000000
28.075154	17.838524	15.895713	-1.852402	1.465824	2.608287	0.000000	0.252171	0.000000	0.000021	0.000002	0.000000	0.000000
28.521114	19.761058	14.453174	-2.473869	1.755185	2.737540	0.000000	0.327791	0.000000	0.000023	0.000003	0.000000	0.000000
29.070174	22.204606	12.845944	-1.950203	1.189331	2.894852	0.000000	0.244393	0.000000	0.000024	0.000002	0.000000	0.000000
29.619234	23.993595	11.810204	-1.288784	0.708191	3.005114	0.000000	0.156660	0.000000	0.000025	0.000001	0.000000	0.000000
30.168294	25.001661	11.272180	-0.536331	0.277494	3.066372	0.000000	0.066149	0.000000	0.000025	0.000000	0.000000	0.000000
30.717354	25.157598	11.193549	0.254005	-0.133439	3.077538	0.000000	-0.025536	0.000000	0.000025	-0.000000	0.000000	0.000000
31.015927	25.048832	11.263821	0.175998	-0.131161	3.072314	0.000000	-0.017497	0.000000	0.000025	-0.000000	0.000000	0.000000
31.349260	24.936073	11.361296	0.162278	-0.161264	3.066482	0.000000	-0.017497	0.000000	0.000025	-0.000000	0.000000	0.000000
31.682593	24.832461	11.478839	0.148559	-0.191366	3.060650	0.000000	-0.017497	0.000000	0.000025	-0.000000	0.000000	0.000000
32.017177	24.737658	11.617004	0.134788	-0.221581	3.054796	0.000000	-0.017497	0.000000	0.000025	-0.000000	0.000000	0.000000
32.314499	24.661145	11.756750	0.058129	-0.217720	3.049594	0.000000	-0.009530	0.000000	0.000024	-0.000000	0.000000	0.000000
32.863559	24.174774	12.235029	0.822452	-0.658510	3.019480	0.000000	-0.100002	0.000000	0.000024	-0.000001	0.000000	0.000000
33.412619	22.876173	13.220112	1.528681	-1.146205	2.940106	0.000000	-0.188701	0.000000	0.000023	-0.000002	0.000000	0.000000
33.961679	20.857068	14.782162	2.126932	-1.715541	2.812881	0.000000	-0.274052	0.000000	0.000022	-0.000003	0.000000	0.000000
34.510739	18.260080	17.032441	2.574947	-2.407071	2.640059	0.000000	-0.354543	0.000000	0.000020	-0.000003	0.000000	0.000000
34.956699	16.240792	19.045248	1.969232	-2.087509	2.498290	0.000000	-0.281615	0.000000	0.000019	-0.000003	0.000000	0.000000
35.397659	14.735010	20.710132	1.458502	-1.673712	2.389491	0.000000	-0.212323	0.000000	0.000018	-0.000002	0.000000	0.000000
35.838619	13.648677	21.974977	1.014407	-1.183762	2.310686	0.000000	-0.145449	0.000000	0.000017	-0.000002	0.000000	0.000000
36.279579	12.932160	22.782233	0.616657	-0.639951	2.260976	0.000000	-0.080231	0.000000	0.000016	-0.000001	0.000000	0.000000
36.721789	12.552031	23.095481	0.277752	-0.123706	2.239769	0.000000	-0.021419	0.000000	0.000016	-0.000001	0.000000	0.000000
37.019112	12.394453	23.172928	0.252238	-0.136777	2.233400	0.000000	-0.021419	0.000000	0.000015	-0.000001	0.000000	0.000000
37.352445	12.235829	23.268997	0.223633	-0.151430	2.226261	0.000000	-0.021419	0.000000	0.000015	-0.000001	0.000000	0.000000
37.685779	12.096275	23.374835	0.195028	-0.166084	2.219122	0.000000	-0.021419	0.000000	0.000015	-0.000001	0.000000	0.000000
38.020362	11.975376	23.490894	0.166316	-0.180793	2.211956	0.000000	-0.021419	0.000000	0.000014	-0.000001	0.000000	0.000000
38.317684	11.884063	23.602288	0.169941	-0.251736	2.205587	0.000000	-0.026827	0.000000	0.000014	-0.000001	0.000000	0.000000
38.758644	11.885685	23.562868	-0.173634	0.340792	2.207685	0.000000	0.036349	0.000000	0.000013	-0.000001	0.000000	0.000000
39.199604	12.192652	23.005752	-0.525142	0.917815	2.237705	0.000000	0.099939	0.000000	0.000013	-0.000000	0.000000	0.000000
39.640564	12.818990	21.956290	-0.900642	1.453077	2.295990	0.000000	0.164667	0.000000	0.000013	-0.000000	0.000000	0.000000
40.081524	13.793312	20.462231	-1.317289	1.922226	2.383204	0.000000	0.231270	0.000000	0.000013	0.000000	0.000000	0.000000
40.527484	15.177711	18.568978	-1.797948	2.305200	2.501810	0.000000	0.300913	0.000000	0.000013	0.000001	0.000000	0.000000
41.076544	16.944311	16.441402	-1.400504	1.592614	2.646500	0.000000	0.225358	0.000000	0.000014	0.000000	0.000000	0.000000
41.625604	18.217232	15.029821	-0.904136	0.993467	2.748546	0.000000	0.145805	0.000000	0.000013	-0.000000	0.000000	0.000000
42.174664	18.906562	14.233689	-0.343905	0.465082	2.806138	0.000000	0.063667	0.000000	0.000013	-0.000001	0.000000	0.000000
42.723724	18.963610	13.996300	0.240619	-0.030176	2.818253	0.000000	-0.019602	0.000000	0.000013	-0.000001	0.000000	0.000000
43.022297	18.854383	13.998853	0.174756	-0.014943	2.814599	0.000000	-0.012239	0.000000	0.000012	-0.000001	0.000000	0.000000
43.502297	18.699210	14.029660	0.148520	-0.049239	2.808725	0.000000	-0.012239	0.000000	0.000012	-0.000001	0.000000	0.000000
43.982297	18.569223	14.093392	0.122285	-0.083535	2.802851	0.000000	-0.012239	0.000000	0.000011	-0.000001	0.000000	0.000000
44.462297	18.464423	14.190047	0.096049	-0.117831	2.796977	0.000000	-0.012239	0.000000	0.000011	-0.000001	0.000000	0.000000
44.942297	18.384809	14.319628	0.069813	-0.152127	2.791103	0.000000	-0.012239	0.000000	0.000010	-0.000001	0.000000	0.000000
45.423547	18.330500	14.482419	-0.047310	-0.114758	2.785231	0.000000	0.001561	0.000000	0.000010	-0.000001	0.000000	0.000000
45.720870	18.363466	14.556843	-0.111543	-0.097527	2.785695	0.000000	0.008839	0.000000	0.000009	-0.000001	0.000000	0.000000
46.269930	18.176754	14.945450	0.449588	-0.614418	2.767978	0.000000	-0.073284	0.000000	0.000009	-0.000001	0.000000	0.000000
46.818990	17.387723	15.922222	0.978962	-1.175072	2.705461	0.000000	-0.154106	0.000000	0.000008	-0.000002	0.000000	0.000000
47.368050	16.052107	17.556733	1.439188	-1.819425	2.599254	0.000000	-0.232195	0.000000	0.000007	-0.000002	0.000000	0.000000
47.917110	14.264246	19.965405	1.797756	-2.593371	2.451241	0.000000	-0.306166	0.000000	0.000006	-0.000002	0.000000	0.000000
48.363070	12.872988	22.106880	1.332990	-2.188387	2.329996	0.000000	-0.237869	0.000000	0.000005	-0.000002	0.000000	0.000000
48.804030	11.877599	23.821461	0.932895	-1.685108	2.239565	0.000000	-0.172679	0.000000	0.000004	-0.000002	0.000000	0.000000
49.244990	11.215006	25.056556	0.575421	-1.105157	2.177420	0.000000	-0.109455	0.000000	0.000004	-0.000002	0.000000	0.000000
49.685950	10.854936	25.755970	0.244236	-0.474924	2.142853	0.000000	-0.047478	0.000000	0.000003	-0.000002	0.000000	0.000000
50.128160	10.781063	25.887597	-0.049469	0.113387	2.135481	0.000000	0.008722	0.000000	0.000002	-0.000002	0.000000	0.000000
50.425482	10.818699	25.823630	-0.077115	0.101754	2.138075	0.000000	0.008722	0.000000	0.000002	-0.000002	0.000000	0.000000
50.758816	10.880441	25.760141	-0.108109	0.088713	2.140983	0.000000	0.008722	0.000000	0.000001	-0.000002	0.000000	0.000000
51.092149	10.962845	25.705347	-0.139103	0.075671	2.143891	0.000000	0.008722	0.000000	0.000001	-0.000002	0.000000	0.000000
51.426732	11.066113	25.659610	-0.080438	-0.145583	2.146788	0.000000	-0.008694	0.000000	0.000000	-0.000002	0.000000	0.000000
51.724055	11.121985	25.749699	-0.080205	-0.220562	2.144203	0.000000	-0.013952	0.000000	-0.000000	-0.000002	0.000000	0.000000
52.165015	11.337952	25.657730	-0.411419	0.428334	2.151640	0.000000	0.047710	0.000000	-0.000001	-0.000002	0.000000	0.000000
52.605975	11.853176	24.999927	-0.761429	1.057741	2.186360	0.000000	0.109916	0.000000	-0.000002	-0.000002	0.000000	0.000000
53.046935	12.691197	23.806220	-1.146227	1.639022	2.248761	0.000000	0.173373	0.000000	-0.000002	-0.000002	0.000000	0.000000
53.487895	13.890300	22.130922	-1.583392	2.145729	2.339553	0.000000	0.238805	0.000000	-0.000003	-0.000002	0.000000	0.000000
53.933855	15.525827	20.025209	-2.097125	2.556144	2.461273	0.000000	0.307356	0.000000	-0.000004	-0.000002	0.000000	0.000000
54.482915	17.631551	17.655712	-1.715317	1.784882	2.609851	0.000000	0.233051	0.000000	-0.000005	-0.000002	0.000000	0.000000
55.031975	19.248587	16.058789	-1.212348	1.140753	2.716434	0.000000	0.154613	0.000000	-0.000006	-0.000001	0.000000	0.000000
55.581035	20.262716	15.120696	-0.623745	0.577877	2.779132	0.000000	0.073432	0.000000	-0.000007	-0.000001	0.000000	0.000000
56.130095	20.602304	14.774614	0.008916	0.056162	2.796833	0.000000	-0.009052	0.000000	-0.000007	-0.000001	0.000000	0.000000
56.428668	20.633461	14.724111	-0.059439	0.074378	2.796313	0.000000	-0.001744	0.000000	-0.000007	-0.000001	0.000000	0.000000
56.762001	20.678491	14.682114	-0.075651	0.051614	2.795732	0.000000	-0.001744	0.000000	-0.000008	-0.000001	0.000000	0.000000
57.095334	20.734329	14.655293	-0.091863	0.028850	2.795151	0.000000	-0.001744	0.000000	-0.000008	-0.000001	0.000000	0.000000
57.429918	20.801245	14.643632	-0.108136	0.006001	2.794568	0.000000	-0.001744	0.000000	-0.000009	-0.000001	0.000000	0.000000
57.727240	20.869847	14.646101	-0.177129	0.023966	2.794050	0.000000	0.005557	0.000000	-0.000009	-0.000001	0.000000	0.000000
58.276300	20.708333	14.900991	0.469551	-0.490936	2.774461	0.000000	-0.076806	0.000000	-0.000009	-0.000001	0.000000	0.000000
58.825360	19.850778	15.737073	1.083064	-1.040806	2.709959	0.000000	-0.157806	0.000000	-0.000010	-0.000001	0.000000	0.000000
59.374420	18.357755	17.213901	1.620075	-1.664810	2.601686	0.000000	-0.236008	0.000000	-0.000010	-0.000000	0.000000	0.000000
59.923480	16.334723	19.436665	2.042652	-2.407395	2.451563	0.000000	-0.310023	0.000000	-0.000010	0.000000	0.000000	0.000000
60.369440	14.751338	21.412253	1.520430	-2.003871	2.328596	0.000000	-0.241740	0.000000	-0.000010	-0.000000	0.000000	0.000000
60.810400	13.612556	22.967891	1.071873	-1.510549	2.236446	0.000000	-0.176608	0.000000	-0.000010	-0.000000	0.000000	0.000000
61.251360	12.846358	24.056374	0.672287	-0.948497	2.172547	0.000000	-0.113487	0.000000	-0.000010	-0.000001	0.000000	0.000000
61.692320	12.417737	24.628176	0.303416	-0.343290	2.136170	0.000000	-0.051659	0.000000	-0.000011	-0.000001	0.000000	0.000000
62.134530	12.307166	24.656739	-0.021510	0.217011	2.126908	0.000000	0.004364	0.000000	-0.000011	-0.000001	0.000000	0.000000
62.431853	12.327143	24.531448	-0.045680	0.204384	2.128206	0.000000	0.004364	0.000000	-0.000011	-0.000001	0.000000	0.000000
62.765186	12.366629	24.399910	-0.072777	0.190229	2.129661	0.000000	0.004364	0.000000	-0.000012	-0.000001	0.000000	0.000000
63.098520	12.424179	24.277810	-0.099874	0.176073	2.131116	0.000000	0.004364	0.000000	-0.000012	-0.000001	0.000000	0.000000
63.433103	12.500112	24.164741	-0.127072	0.161865	2.132577	0.000000	0.004364	0.000000	-0.000013	-0.000001	0.000000	0.000000
63.730426	12.582861	24.072243	-0.120381	0.090198	2.133875	0.000000	-0.000869	0.000000	-0.000013	-0.000001	0.000000	0.000000
64.171386	12.849289	23.727595	-0.486113	0.688413	2.147033	0.000000	0.060601	0.000000	-0.000014	-0.000001	0.000000	0.000000
64.612346	13.446801	22.867219	-0.874053	1.255305	2.187422	0.000000	0.122761	0.000000	-0.000014	-0.000002	0.000000	0.000000
65.053306	14.402694	21.530262	-1.301926	1.765083	2.255504	0.000000	0.186319	0.000000	-0.000015	-0.000002	0.000000	0.000000
65.494266	15.760640	19.777553	-1.789281	2.194550	2.352054	0.000000	0.251999	0.000000	-0.000016	-0.000003	0.000000	0.000000
65.940226	17.605842	17.664042	-2.363074	2.524919	2.479743	0.000000	0.320951	0.000000	-0.000018	-0.000003	0.000000	0.000000
66.489286	19.971311	15.299722	-1.919642	1.806624	2.635599	0.000000	0.245930	0.000000	-0.000019	-0.000002	0.000000	0.000000
67.038346	21.772046	13.649307	-1.340616	1.217012	2.749005	0.000000	0.166547	0.000000	-0.000020	-0.000002	0.000000	0.000000
67.587406	22.880854	12.595241	-0.666896	0.714084	2.817947	0.000000	0.084209	0.000000	-0.000021	-0.000001	0.000000	0.000000
68.136466	23.219413	12.062447	0.053930	0.262019	2.841203	0.000000	0.000378	0.000000	-0.000021	-0.000000	0.000000	0.000000
68.435038	23.227283	11.895187	-0.019609	0.266657	2.843533	0.000000	0.007803	0.000000	-0.000022	-0.000001	0.000000	0.000000
68.768372	23.245141	11.727421	-0.033965	0.236642	2.846134	0.000000	0.007803	0.000000	-0.000022	-0.000001	0.000000	0.000000
69.101705	23.272569	11.579665	-0.048322	0.206627	2.848735	0.000000	0.007803	0.000000	-0.000022	-0.000001	0.000000	0.000000
69.436288	23.309726	11.451477	-0.062732	0.176499	2.851346	0.000000	0.007803	0.000000	-0.000022	-0.000001	0.000000	0.000000
69.733611	23.350837	11.354483	-0.136560	0.179399	2.853666	0.000000	0.015260	0.000000	-0.000022	-0.000001	0.000000	0.000000
70.282671	23.099752	11.384905	0.591152	-0.235134	2.838861	0.000000	-0.069111	0.000000	-0.000022	0.000000	0.000000	0.000000
