#ParticleID	Turn	x[m]	xp	y[m]	yp	z[m]	dE[GeV]# s	beta_x	beta_y	alpha_x	alpha_y	D_x	D_y	D_px	D_py	orbit_x	orbit_px	orbit_y	orbit_py
0.300000	11.806059	25.048745	-0.010315	-0.026903	2.618249	0.000000	-0.000042	0.000000	-0.000001	0.000002	0.000000	0.000000
0.601250	11.819961	25.068579	-0.035834	-0.038938	2.618236	0.000000	-0.000042	0.000000	-0.000000	0.000002	0.000000	0.000000
0.898573	11.848758	25.095265	-0.031964	-0.112357	2.618223	0.000000	-0.006462	0.000000	0.000000	0.000002	0.000000	0.000000
1.339533	12.028986	24.915965	-0.378303	0.517424	2.631667	0.000000	0.067498	0.000000	0.000001	0.000002	0.000000	0.000000
1.780493	12.521095	24.189547	-0.741925	1.123662	2.677862	0.000000	0.142226	0.000000	0.000002	0.000002	0.000000	0.000000
2.221453	13.347569	22.949064	-1.139445	1.678775	2.757335	0.000000	0.218575	0.000000	0.000002	0.000002	0.000000	0.000000
2.662413	14.546167	21.250957	-1.589022	2.157504	2.870991	0.000000	0.297412	0.000000	0.000003	0.000002	0.000000	0.000000
3.108373	16.192373	19.147586	-2.115483	2.539203	3.021985	0.000000	0.380127	0.000000	0.000004	0.000002	0.000000	0.000000
3.657433	18.303391	16.785147	-1.706542	1.788892	3.205426	0.000000	0.287090	0.000000	0.000005	0.000002	0.000000	0.000000
4.206493	19.896090	15.172254	-1.177060	1.166001	3.336307	0.000000	0.188960	0.000000	0.000006	0.000002	0.000000	0.000000
4.755553	20.857970	14.194023	-0.564436	0.626161	3.412309	0.000000	0.087479	0.000000	0.000007	0.000001	0.000000	0.000000
5.304613	21.121090	13.780779	0.088056	0.130921	3.432083	0.000000	-0.015554	0.000000	0.000007	0.000001	0.000000	0.000000
5.603185	21.105684	13.687749	0.018723	0.144656	3.430116	0.000000	-0.006587	0.000000	0.000008	0.000001	0.000000	0.000000
5.936519	21.098469	13.599599	0.002924	0.119794	3.427920	0.000000	-0.006587	0.000000	0.000008	0.000001	0.000000	0.000000
6.269852	21.101786	13.528024	-0.012875	0.094931	3.425724	0.000000	-0.006587	0.000000	0.000008	0.000001	0.000000	0.000000
6.604435	21.115707	13.472849	-0.028734	0.069976	3.423520	0.000000	-0.006587	0.000000	0.000009	0.000001	0.000000	0.000000
6.901758	21.136984	13.437832	-0.098049	0.082908	3.421561	0.000000	0.002352	0.000000	0.000009	0.000001	0.000000	0.000000
7.450818	20.884443	13.607720	0.555277	-0.394151	3.394652	0.000000	-0.100224	0.000000	0.000010	0.000001	0.000000	0.000000
7.999878	19.931864	14.313726	1.169381	-0.899284	3.311829	0.000000	-0.201023	0.000000	0.000010	0.000001	0.000000	0.000000
8.548938	18.346531	15.606137	1.700885	-1.468471	3.174559	0.000000	-0.298256	0.000000	0.000010	0.000000	0.000000	0.000000
9.097998	16.240425	17.577008	2.112247	-2.142254	2.985280	0.000000	-0.390198	0.000000	0.000010	-0.000000	0.000000	0.000000
9.543958	14.597317	19.333129	1.585282	-1.778945	2.829572	0.000000	-0.308497	0.000000	0.000010	0.000000	0.000000	0.000000
9.984918	13.402303	20.711912	1.135028	-1.335931	2.710782	0.000000	-0.230793	0.000000	0.000011	0.000000	0.000000	0.000000
10.425878	12.580095	21.671594	0.736630	-0.832134	2.625645	0.000000	-0.155718	0.000000	0.000011	0.000001	0.000000	0.000000
10.866838	12.093131	22.168511	0.371887	-0.290475	2.573191	0.000000	-0.082416	0.000000	0.000011	0.000001	0.000000	0.000000
11.309048	11.919028	22.179528	0.053255	0.209955	2.552802	0.000000	-0.016313	0.000000	0.000012	0.000001	0.000000	0.000000
11.606371	11.894798	22.058840	0.028239	0.195959	2.547952	0.000000	-0.016313	0.000000	0.000012	0.000001	0.000000	0.000000
12.086371	11.887073	21.881566	-0.012147	0.173363	2.540121	0.000000	-0.016313	0.000000	0.000013	0.000001	0.000000	0.000000
12.566371	11.918119	21.725983	-0.052533	0.150768	2.532290	0.000000	-0.016313	0.000000	0.000013	0.000001	0.000000	0.000000
13.046371	11.987936	21.592092	-0.092918	0.128172	2.524460	0.000000	-0.016313	0.000000	0.000014	0.000001	0.000000	0.000000
13.526371	12.096523	21.479893	-0.133304	0.105576	2.516629	0.000000	-0.016313	0.000000	0.000015	0.000001	0.000000	0.000000
14.007621	12.244315	21.389178	-0.173796	0.082922	2.508778	0.000000	-0.016313	0.000000	0.000015	0.000001	0.000000	0.000000
14.304943	12.355099	21.344030	-0.168518	0.016592	2.503928	0.000000	-0.022452	0.000000	0.000016	0.000001	0.000000	0.000000
14.745903	12.662212	21.095802	-0.530587	0.544192	2.509656	0.000000	0.048462	0.000000	0.000016	0.000002	0.000000	0.000000
15.186863	13.298083	20.391455	-0.916898	1.047032	2.546747	0.000000	0.119928	0.000000	0.000017	0.000002	0.000000	0.000000
15.627823	14.291765	19.263037	-1.345099	1.502233	2.615622	0.000000	0.192759	0.000000	0.000018	0.000003	0.000000	0.000000
16.068783	15.688655	17.761890	-1.834755	1.889083	2.717065	0.000000	0.267786	0.000000	0.000019	0.000003	0.000000	0.000000
16.514743	17.576235	15.934815	-2.412993	2.190724	2.853927	0.000000	0.346326	0.000000	0.000021	0.000004	0.000000	0.000000
17.063803	20.000653	13.894780	-1.976445	1.546712	3.020353	0.000000	0.259009	0.000000	0.000022	0.000003	0.000000	0.000000
17.612863	21.865726	12.497662	-1.400292	1.012869	3.137504	0.000000	0.167099	0.000000	0.000024	0.000002	0.000000	0.000000
18.161923	23.039715	11.643949	-0.725228	0.551171	3.203301	0.000000	0.072224	0.000000	0.000025	0.000001	0.000000	0.000000
18.710983	23.439694	11.272832	0.001062	0.128732	3.216578	0.000000	-0.023931	0.000000	0.000025	0.000000	0.000000	0.000000
19.009556	23.479441	11.186482	-0.072953	0.131031	3.211941	0.000000	-0.015529	0.000000	0.000025	0.000001	0.000000	0.000000
19.342889	23.532833	11.109231	-0.087225	0.100721	3.206765	0.000000	-0.015529	0.000000	0.000026	0.000001	0.000000	0.000000
19.676223	23.595741	11.052187	-0.101498	0.070412	3.201588	0.000000	-0.015529	0.000000	0.000026	0.000001	0.000000	0.000000
20.010806	23.668747	11.015112	-0.233092	0.094564	3.196412	0.000000	0.000308	0.000000	0.000026	0.000001	0.000000	0.000000
20.308129	23.811291	10.966977	-0.308537	0.095979	3.196504	0.000000	0.008658	0.000000	0.000026	0.000001	0.000000	0.000000
20.857189	23.739407	11.083527	0.438685	-0.309504	3.175043	0.000000	-0.086714	0.000000	0.000026	-0.000000	0.000000	0.000000
21.406249	22.859211	11.654767	1.154920	-0.737032	3.101564	0.000000	-0.180549	0.000000	0.000026	-0.000001	0.000000	0.000000
21.955309	21.232877	12.721384	1.789578	-1.217058	2.977368	0.000000	-0.271181	0.000000	0.000025	-0.000002	0.000000	0.000000
22.504369	18.975281	14.359351	2.297828	-1.783772	2.804660	0.000000	-0.357003	0.000000	0.000024	-0.000003	0.000000	0.000000
22.950329	17.196005	15.830035	1.706017	-1.500108	2.662742	0.000000	-0.279807	0.000000	0.000023	-0.000002	0.000000	0.000000
23.391289	15.920795	17.002668	1.196847	-1.149044	2.555678	0.000000	-0.206253	0.000000	0.000022	-0.000001	0.000000	0.000000
23.832249	15.068915	17.841365	0.742357	-0.745698	2.480500	0.000000	-0.135048	0.000000	0.000022	-0.000001	0.000000	0.000000
24.273209	14.601445	18.307967	0.321783	-0.308424	2.436352	0.000000	-0.065381	0.000000	0.000022	-0.000000	0.000000	0.000000
24.715418	14.497149	18.380998	-0.048632	0.097747	2.422728	0.000000	-0.002398	0.000000	0.000022	0.000000	0.000000	0.000000
25.012741	14.532180	18.327729	-0.069190	0.081417	2.422015	0.000000	-0.002398	0.000000	0.000022	0.000000	0.000000	0.000000
25.346075	14.585989	18.279553	-0.092237	0.063109	2.421215	0.000000	-0.002398	0.000000	0.000022	0.000000	0.000000	0.000000
25.679408	14.655163	18.243583	-0.115284	0.044801	2.420415	0.000000	-0.002398	0.000000	0.000022	0.000000	0.000000	0.000000
26.013991	14.739749	18.220122	-0.018840	-0.121386	2.419588	0.000000	-0.022028	0.000000	0.000022	0.000000	0.000000	0.000000
26.311314	14.756952	18.297227	-0.002838	-0.182806	2.413039	0.000000	-0.027944	0.000000	0.000022	0.000000	0.000000	0.000000
26.752274	14.941251	18.260035	-0.416697	0.266828	2.415824	0.000000	0.040589	0.000000	0.000022	0.000001	0.000000	0.000000
27.193234	15.497525	17.830161	-0.849595	0.704321	2.448903	0.000000	0.109584	0.000000	0.000022	0.000001	0.000000	0.000000
27.634194	16.451189	17.027164	-1.321309	1.109769	2.512651	0.000000	0.179827	0.000000	0.000023	0.000002	0.000000	0.000000
28.075154	17.845814	15.887579	-1.853389	1.464722	2.607795	0.000000	0.252119	0.000000	0.000024	0.000002	0.000000	0.000000
28.521114	19.769342	14.446089	-2.475117	1.753944	2.737021	0.000000	0.327725	0.000000	0.000025	0.000003	0.000000	0.000000
29.070174	22.214145	12.840063	-1.951229	1.188368	2.894302	0.000000	0.244344	0.000000	0.000027	0.000002	0.000000	0.000000
29.619234	24.004106	11.805260	-1.289516	0.707436	3.004542	0.000000	0.156630	0.000000	0.000028	0.000001	0.000000	0.000000
30.168294	25.012789	11.267975	-0.536718	0.276894	3.065788	0.000000	0.066137	0.000000	0.000028	0.000000	0.000000	0.000000
30.717354	25.168947	11.189938	0.253992	-0.133926	3.076953	0.000000	-0.025529	0.000000	0.000028	-0.000001	0.000000	0.000000
31.015927	25.060205	11.260511	0.175962	-0.131670	3.071731	0.000000	-0.017491	0.000000	0.000028	-0.000000	0.000000	0.000000
31.349260	24.947468	11.358329	0.162249	-0.161785	3.065901	0.000000	-0.017491	0.000000	0.000028	-0.000000	0.000000	0.000000
31.682593	24.843873	11.476225	0.148536	-0.191901	3.060071	0.000000	-0.017491	0.000000	0.000027	-0.000000	0.000000	0.000000
32.017177	24.749083	11.614752	0.134771	-0.222129	3.054219	0.000000	-0.017491	0.000000	0.000027	-0.000000	0.000000	0.000000
32.314499	24.672579	11.754826	0.058089	-0.218284	3.049018	0.000000	-0.009526	0.000000	0.000027	-0.000000	0.000000	0.000000
32.863559	24.186043	12.233710	0.822790	-0.659052	3.018912	0.000000	-0.099980	0.000000	0.000027	-0.000001	0.000000	0.000000
33.412619	22.886873	13.219392	1.529373	-1.146762	2.939556	0.000000	-0.188660	0.000000	0.000026	-0.000002	0.000000	0.000000
33.961679	20.866836	14.782081	2.127928	-1.716154	2.812357	0.000000	-0.273994	0.000000	0.000024	-0.000003	0.000000	0.000000
34.510739	18.268618	17.033083	2.576177	-2.407783	2.639572	0.000000	-0.354469	0.000000	0.000023	-0.000004	0.000000	0.000000
34.956699	16.248353	19.046550	1.970199	-2.088270	2.497833	0.000000	-0.281553	0.000000	0.000021	-0.000003	0.000000	0.000000
35.397659	14.741817	20.712114	1.459253	-1.674487	2.389060	0.000000	-0.212272	0.000000	0.000020	-0.000003	0.000000	0.000000
35.838619	13.654904	21.977636	1.014975	-1.184515	2.310274	0.000000	-0.145409	0.000000	0.000019	-0.000002	0.000000	0.000000
36.279579	12.937957	22.785535	0.617069	-0.640649	2.260580	0.000000	-0.080202	0.000000	0.000018	-0.000002	0.000000	0.000000
36.721789	12.557525	23.099363	0.278040	-0.124325	2.239383	0.000000	-0.021399	0.000000	0.000017	-0.000001	0.000000	0.000000
37.019112	12.399774	23.177178	0.252533	-0.137395	2.233021	0.000000	-0.021399	0.000000	0.000017	-0.000001	0.000000	0.000000
37.352445	12.240951	23.273659	0.223936	-0.152049	2.225889	0.000000	-0.021399	0.000000	0.000017	-0.000001	0.000000	0.000000
37.685779	12.101193	23.379910	0.195339	-0.166702	2.218756	0.000000	-0.021399	0.000000	0.000016	-0.000001	0.000000	0.000000
38.020362	11.980082	23.496382	0.166636	-0.181411	2.211597	0.000000	-0.021399	0.000000	0.000016	-0.000001	0.000000	0.000000
38.317684	11.888576	23.608143	0.170279	-0.252367	2.205235	0.000000	-0.026806	0.000000	0.000015	-0.000001	0.000000	0.000000
38.758644	11.889946	23.569209	-0.173396	0.340325	2.207340	0.000000	0.036361	0.000000	0.000015	-0.000001	0.000000	0.000000
39.199604	12.196743	23.012426	-0.524992	0.917532	2.237364	0.000000	0.099942	0.000000	0.000015	-0.000000	0.000000	0.000000
39.640564	12.822984	21.963126	-0.900573	1.452993	2.295648	0.000000	0.164661	0.000000	0.000015	-0.000000	0.000000	0.000000
40.081524	13.797281	20.469052	-1.317299	1.922343	2.382857	0.000000	0.231256	0.000000	0.000015	0.000000	0.000000	0.000000
40.527484	15.181724	18.575605	-1.798037	2.305515	2.501456	0.000000	0.300890	0.000000	0.000015	0.000001	0.000000	0.000000
41.076544	16.948335	16.447784	-1.400434	1.592748	2.646136	0.000000	0.225346	0.000000	0.000015	0.000000	0.000000	0.000000
41.625604	18.221093	15.036150	-0.903911	0.993430	2.748179	0.000000	0.145806	0.000000	0.000015	-0.000000	0.000000	0.000000
42.174664	18.910097	14.240154	-0.343540	0.464871	2.805774	0.000000	0.063679	0.000000	0.000015	-0.000001	0.000000	0.000000
42.723724	18.966680	14.003099	0.241097	-0.030576	2.817899	0.000000	-0.019578	0.000000	0.000014	-0.000001	0.000000	0.000000
43.022297	18.857172	14.005879	0.175226	-0.015316	2.814252	0.000000	-0.012216	0.000000	0.000014	-0.000001	0.000000	0.000000
43.502297	18.701548	14.037036	0.148990	-0.049595	2.808389	0.000000	-0.012216	0.000000	0.000013	-0.000001	0.000000	0.000000
43.982297	18.571110	14.101101	0.122754	-0.083874	2.802526	0.000000	-0.012216	0.000000	0.000013	-0.000001	0.000000	0.000000
44.462297	18.465859	14.198074	0.096518	-0.118154	2.796663	0.000000	-0.012216	0.000000	0.000012	-0.000001	0.000000	0.000000
44.942297	18.385795	14.327956	0.070282	-0.152433	2.790799	0.000000	-0.012216	0.000000	0.000011	-0.000001	0.000000	0.000000
45.423547	18.331035	14.491033	-0.046844	-0.115004	2.784938	0.000000	0.001582	0.000000	0.000011	-0.000001	0.000000	0.000000
45.720870	18.363723	14.565601	-0.111076	-0.097739	2.785409	0.000000	0.008859	0.000000	0.000010	-0.000001	0.000000	0.000000
46.269930	18.176498	14.954588	0.450050	-0.614902	2.767705	0.000000	-0.073254	0.000000	0.000010	-0.000001	0.000000	0.000000
46.818990	17.386977	15.932055	0.979387	-1.175863	2.705207	0.000000	-0.154068	0.000000	0.000009	-0.000002	0.000000	0.000000
47.368050	16.050929	17.567627	1.439545	-1.820578	2.599024	0.000000	-0.232150	0.000000	0.000008	-0.000002	0.000000	0.000000
47.917110	14.262725	19.977800	1.798021	-2.594968	2.451038	0.000000	-0.306113	0.000000	0.000007	-0.000002	0.000000	0.000000
48.363070	12.871231	22.120580	1.333257	-2.189704	2.329815	0.000000	-0.237821	0.000000	0.000006	-0.000002	0.000000	0.000000
48.804030	11.875602	23.836177	0.933175	-1.686086	2.239404	0.000000	-0.172635	0.000000	0.000005	-0.000002	0.000000	0.000000
49.244990	11.212750	25.071968	0.575728	-1.105752	2.177278	0.000000	-0.109415	0.000000	0.000004	-0.000002	0.000000	0.000000
49.685950	10.852392	25.771727	0.244584	-0.475108	2.142728	0.000000	-0.047442	0.000000	0.000003	-0.000002	0.000000	0.000000
50.128160	10.778186	25.903331	-0.049071	0.113583	2.135371	0.000000	0.008755	0.000000	0.000002	-0.000002	0.000000	0.000000
50.425482	10.815587	25.839246	-0.076723	0.101957	2.137975	0.000000	0.008755	0.000000	0.000002	-0.000002	0.000000	0.000000
50.758816	10.877070	25.775619	-0.107724	0.088923	2.140894	0.000000	0.008755	0.000000	0.000001	-0.000002	0.000000	0.000000
51.092149	10.959220	25.720682	-0.138725	0.075888	2.143813	0.000000	0.008755	0.000000	0.000001	-0.000002	0.000000	0.000000
51.426732	11.062237	25.674799	-0.080099	-0.145481	2.146721	0.000000	-0.008660	0.000000	0.000000	-0.000002	0.000000	0.000000
51.724055	11.117910	25.764824	-0.079884	-0.220491	2.144147	0.000000	-0.013918	0.000000	-0.000000	-0.000002	0.000000	0.000000
52.165015	11.333550	25.672616	-0.410997	0.428803	2.151598	0.000000	0.047743	0.000000	-0.000001	-0.000002	0.000000	0.000000
52.605975	11.848350	25.014231	-0.760887	1.058587	2.186333	0.000000	0.109947	0.000000	-0.000002	-0.000002	0.000000	0.000000
53.046935	12.685831	23.819625	-1.145540	1.640206	2.248748	0.000000	0.173404	0.000000	-0.000003	-0.000002	0.000000	0.000000
53.487895	13.884254	22.143152	-1.582529	2.147197	2.339553	0.000000	0.238837	0.000000	-0.000004	-0.000002	0.000000	0.000000
53.933855	15.518918	20.036026	-2.096045	2.557831	2.461288	0.000000	0.307388	0.000000	-0.000004	-0.000002	0.000000	0.000000
54.482915	17.623551	17.664916	-1.714422	1.786150	2.609883	0.000000	0.233082	0.000000	-0.000006	-0.000002	0.000000	0.000000
55.031975	19.239734	16.066789	-1.211701	1.141692	2.716483	0.000000	0.154642	0.000000	-0.000007	-0.000002	0.000000	0.000000
55.581035	20.253310	15.127814	-0.623392	0.578554	2.779196	0.000000	0.073459	0.000000	-0.000007	-0.000001	0.000000	0.000000
56.130095	20.592683	14.781109	0.008951	0.056625	2.796912	0.000000	-0.009027	0.000000	-0.000008	-0.000001	0.000000	0.000000
56.428668	20.623807	14.730318	-0.059386	0.074865	2.796399	0.000000	-0.001718	0.000000	-0.000008	-0.000001	0.000000	0.000000
56.762001	20.668804	14.687993	-0.075605	0.052109	2.795827	0.000000	-0.001718	0.000000	-0.000009	-0.000001	0.000000	0.000000
57.095334	20.724614	14.660839	-0.091825	0.029353	2.795254	0.000000	-0.001718	0.000000	-0.000009	-0.000001	0.000000	0.000000
57.429918	20.791507	14.648839	-0.108105	0.006512	2.794680	0.000000	-0.001718	0.000000	-0.000010	-0.000001	0.000000	0.000000
57.727240	20.860092	14.651001	-0.177080	0.024498	2.794169	0.000000	0.005583	0.000000	-0.000010	-0.000001	0.000000	0.000000
58.276300	20.698705	14.905381	0.469274	-0.490533	2.774594	0.000000	-0.076784	0.000000	-0.000011	-0.000001	0.000000	0.000000
58.825360	19.841625	15.741079	1.082481	-1.040504	2.710102	0.000000	-0.157789	0.000000	-0.000011	-0.000001	0.000000	0.000000
59.374420	18.349392	17.217620	1.619227	-1.664587	2.601838	0.000000	-0.235995	0.000000	-0.000011	-0.000000	0.000000	0.000000
59.923480	16.327410	19.440176	2.041599	-2.407236	2.451721	0.000000	-0.310015	0.000000	-0.000011	0.000000	0.000000	0.000000
60.369440	14.744862	21.415561	1.519599	-2.003579	2.328757	0.000000	-0.241729	0.000000	-0.000011	-0.000000	0.000000	0.000000
60.810400	13.606731	22.970888	1.071224	-1.510138	2.236614	0.000000	-0.176592	0.000000	-0.000011	-0.000000	0.000000	0.000000
61.251360	12.841037	24.058963	0.671790	-0.947987	2.172723	0.000000	-0.113467	0.000000	-0.000012	-0.000001	0.000000	0.000000
61.692320	12.412797	24.630281	0.303048	-0.342704	2.136356	0.000000	-0.051634	0.000000	-0.000012	-0.000001	0.000000	0.000000
62.134530	12.302501	24.658301	-0.021777	0.217642	2.127106	0.000000	0.004394	0.000000	-0.000012	-0.000001	0.000000	0.000000
62.431853	12.322639	24.532636	-0.045956	0.205013	2.128412	0.000000	0.004394	0.000000	-0.000013	-0.000001	0.000000	0.000000
62.765186	12.362312	24.400680	-0.073064	0.190855	2.129877	0.000000	0.004394	0.000000	-0.000013	-0.000001	0.000000	0.000000
63.098520	12.420057	24.278163	-0.100171	0.176696	2.131342	0.000000	0.004394	0.000000	-0.000014	-0.000001	0.000000	0.000000
63.433103	12.496193	24.164679	-0.127381	0.162485	2.132813	0.000000	0.004394	0.000000	-0.000014	-0.000001	0.000000	0.000000
63.730426	12.579128	24.071813	-0.120708	0.090816	2.134120	0.000000	-0.000840	0.000000	-0.000015	-0.000001	0.000000	0.000000
64.171386	12.845810	23.726631	-0.486363	0.689003	2.147291	0.000000	0.060636	0.000000	-0.000015	-0.000002	0.000000	0.000000
64.612346	13.443512	22.865756	-0.874238	1.255841	2.187698	0.000000	0.122803	0.000000	-0.000016	-0.000002	0.000000	0.000000
65.053306	14.399543	21.528359	-1.302055	1.765540	2.255800	0.000000	0.186368	0.000000	-0.000017	-0.000002	0.000000	0.000000
65.494266	15.757581	19.775290	-1.789359	2.194907	2.352374	0.000000	0.252056	0.000000	-0.000018	-0.000003	0.000000	0.000000
65.940226	17.602831	17.661511	-2.363105	2.525159	2.480090	0.000000	0.321017	0.000000	-0.000020	-0.000003	0.000000	0.000000
66.489286	19.968409	15.296917	-1.919808	1.806885	2.635980	0.000000	0.245984	0.000000	-0.000021	-0.000003	0.000000	0.000000
67.038346	21.769395	13.646197	-1.340905	1.217310	2.749412	0.000000	0.166588	0.000000	-0.000023	-0.000002	0.000000	0.000000
67.587406	22.878578	12.591773	-0.667287	0.714442	2.818373	0.000000	0.084237	0.000000	-0.000024	-0.000001	0.000000	0.000000
68.136466	23.217611	12.058541	0.053464	0.262462	2.841641	0.000000	0.000392	0.000000	-0.000024	-0.000001	0.000000	0.000000
68.435038	23.225757	11.891027	-0.020072	0.267076	2.843976	0.000000	0.007818	0.000000	-0.000024	-0.000001	0.000000	0.000000
68.768372	23.243925	11.722987	-0.034430	0.237044	2.846582	0.000000	0.007818	0.000000	-0.000024	-0.000001	0.000000	0.000000
69.101705	23.271664	11.574969	-0.048788	0.207012	2.849188	0.000000	0.007818	0.000000	-0.000025	-0.000001	0.000000	0.000000
69.436288	23.309133	11.446529	-0.063199	0.176867	2.851804	0.000000	0.007818	0.000000	-0.000025	-0.000001	0.000000	0.000000
69.733611	23.350521	11.349320	-0.137029	0.179740	2.854129	0.000000	0.015277	0.000000	-0.000025	-0.000001	0.000000	0.000000
70.282671	23.099953	11.379288	0.590686	-0.234641	2.839329	0.000000	-0.069110	0.000000	-0.000025	0.000000	0.000000	0.000000
