#ParticleID	Turn	x[m]	xp	y[m]	yp	z[m]	dE[GeV]# s	beta_x	beta_y	alpha_x	alpha_y	D_x	D_y	D_px	D_py	orbit_x	orbit_px	orbit_y	orbit_py
0.300000	11.829240	24.957296	-0.012999	-0.027729	2.618234	0.000000	-0.000034	0.000000	0.000000	0.000000	0.000000	0.000000
0.601250	11.844745	24.977642	-0.038470	-0.039809	2.618224	0.000000	-0.000034	0.000000	0.000000	0.000000	0.000000	0.000000
0.898573	11.875095	25.004859	-0.034487	-0.113051	2.618213	0.000000	-0.006455	0.000000	0.000000	0.000000	0.000000	0.000000
1.339533	12.057832	24.827224	-0.381492	0.514356	2.631661	0.000000	0.067505	0.000000	0.000000	0.000000	0.000000	0.000000
1.780493	12.553099	24.104511	-0.745925	1.118360	2.677860	0.000000	0.142233	0.000000	0.000000	0.000000	0.000000	0.000000
2.221453	13.383524	22.869604	-1.144438	1.671479	2.757336	0.000000	0.218581	0.000000	0.000001	0.000000	0.000000	0.000000
2.662413	14.587045	21.178690	-1.595237	2.148548	2.870996	0.000000	0.297419	0.000000	0.000001	0.000000	0.000000	0.000000
3.108373	16.239449	19.083904	-2.123217	2.528989	3.021994	0.000000	0.380134	0.000000	0.000001	0.000000	0.000000	0.000000
3.657433	18.358339	16.731251	-1.713062	1.781179	3.205438	0.000000	0.287096	0.000000	0.000001	0.000000	0.000000	0.000000
4.206493	19.957315	15.125714	-1.181905	1.160237	3.336325	0.000000	0.188966	0.000000	0.000001	0.000000	0.000000	0.000000
4.755553	20.923432	14.152935	-0.567263	0.621937	3.412330	0.000000	0.087485	0.000000	0.000001	0.000000	0.000000	0.000000
5.304613	21.188449	13.743626	0.087446	0.127936	3.432108	0.000000	-0.015549	0.000000	0.000001	0.000000	0.000000	0.000000
5.603185	21.173501	13.652447	0.017980	0.141538	3.430143	0.000000	-0.006582	0.000000	0.000001	0.000000	0.000000	0.000000
5.936519	21.166764	13.566390	0.002232	0.116633	3.427949	0.000000	-0.006582	0.000000	0.000002	0.000000	0.000000	0.000000
6.269852	21.170526	13.496937	-0.013516	0.091728	3.425755	0.000000	-0.006582	0.000000	0.000002	0.000000	0.000000	0.000000
6.604435	21.184859	13.443919	-0.029323	0.066730	3.423553	0.000000	-0.006582	0.000000	0.000002	0.000000	0.000000	0.000000
6.901758	21.206473	13.410843	-0.098778	0.079555	3.421596	0.000000	0.002358	0.000000	0.000002	0.000000	0.000000	0.000000
7.450818	20.953452	13.584010	0.556876	-0.396803	3.394690	0.000000	-0.100219	0.000000	0.000002	0.000000	0.000000	0.000000
7.999878	19.997882	14.292632	1.173195	-0.901425	3.311869	0.000000	-0.201019	0.000000	0.000002	0.000000	0.000000	0.000000
8.548938	18.407261	15.587185	1.706646	-1.470254	3.174602	0.000000	-0.298253	0.000000	0.000002	0.000000	0.000000	0.000000
9.097998	16.293941	17.559876	2.119547	-2.143805	2.985323	0.000000	-0.390197	0.000000	0.000002	-0.000000	0.000000	0.000000
9.543958	14.645050	19.317705	1.590996	-1.781209	2.829616	0.000000	-0.308495	0.000000	0.000002	-0.000000	0.000000	0.000000
9.984918	13.445592	20.698758	1.139429	-1.338798	2.710828	0.000000	-0.230790	0.000000	0.000002	0.000000	0.000000	0.000000
10.425878	12.620006	21.661187	0.739920	-0.835473	2.625693	0.000000	-0.155713	0.000000	0.000002	0.000000	0.000000	0.000000
10.866838	12.130573	22.161202	0.374216	-0.294134	2.573241	0.000000	-0.082410	0.000000	0.000002	0.000000	0.000000	0.000000
11.309048	11.954795	22.175536	0.054820	0.206147	2.552855	0.000000	-0.016306	0.000000	0.000002	0.000000	0.000000	0.000000
11.606371	11.929613	22.057108	0.029875	0.192169	2.548007	0.000000	-0.016306	0.000000	0.000002	0.000000	0.000000	0.000000
12.086371	11.920264	21.883456	-0.010397	0.169604	2.540180	0.000000	-0.016306	0.000000	0.000002	0.000000	0.000000	0.000000
12.566371	11.949576	21.731468	-0.050669	0.147039	2.532352	0.000000	-0.016306	0.000000	0.000002	0.000000	0.000000	0.000000
13.046371	12.017548	21.601142	-0.090941	0.124473	2.524525	0.000000	-0.016306	0.000000	0.000002	0.000000	0.000000	0.000000
13.526371	12.124182	21.492479	-0.131213	0.101908	2.516698	0.000000	-0.016306	0.000000	0.000002	0.000000	0.000000	0.000000
14.007621	12.269905	21.405281	-0.171590	0.079284	2.508851	0.000000	-0.016306	0.000000	0.000002	0.000000	0.000000	0.000000
14.304943	12.379357	21.362291	-0.166178	0.012921	2.504002	0.000000	-0.022447	0.000000	0.000002	0.000000	0.000000	0.000000
14.745903	12.684623	21.117059	-0.528724	0.541094	2.509734	0.000000	0.048469	0.000000	0.000003	0.000000	0.000000	0.000000
15.186863	13.319029	20.415140	-0.915426	1.044647	2.546829	0.000000	0.119937	0.000000	0.000003	0.000000	0.000000	0.000000
15.627823	14.311559	19.288470	-1.343952	1.500669	2.615709	0.000000	0.192771	0.000000	0.000003	0.000000	0.000000	0.000000
16.068783	15.707559	17.788312	-1.833878	1.888413	2.717159	0.000000	0.267800	0.000000	0.000003	0.000000	0.000000	0.000000
16.514743	17.594462	15.961419	-2.412348	2.190984	2.854029	0.000000	0.346342	0.000000	0.000003	0.000001	0.000000	0.000000
17.063803	20.017684	13.921407	-1.974926	1.546411	3.020464	0.000000	0.259022	0.000000	0.000004	0.000000	0.000000	0.000000
17.612863	21.880655	12.524937	-1.398006	1.011986	3.137622	0.000000	0.167108	0.000000	0.000004	0.000000	0.000000	0.000000
18.161923	23.051784	11.672541	-0.722338	0.549642	3.203424	0.000000	0.072229	0.000000	0.000004	0.000000	0.000000	0.000000
18.710983	23.448348	11.303505	0.004352	0.126448	3.216703	0.000000	-0.023930	0.000000	0.000004	0.000000	0.000000	0.000000
19.009556	23.486147	11.218441	-0.069686	0.128924	3.212067	0.000000	-0.015526	0.000000	0.000004	0.000000	0.000000	0.000000
19.342889	23.537358	11.142560	-0.083948	0.098717	3.206892	0.000000	-0.015526	0.000000	0.000004	0.000000	0.000000	0.000000
19.676223	23.598078	11.086818	-0.098210	0.068510	3.201717	0.000000	-0.015526	0.000000	0.000004	0.000000	0.000000	0.000000
20.010806	23.668879	11.050981	-0.229793	0.092944	3.196542	0.000000	0.000312	0.000000	0.000004	0.000000	0.000000	0.000000
20.308129	23.809457	11.003781	-0.305226	0.094556	3.196635	0.000000	0.008664	0.000000	0.000004	0.000000	0.000000	0.000000
20.857189	23.733988	11.122466	0.441864	-0.311993	3.175176	0.000000	-0.086713	0.000000	0.000004	-0.000000	0.000000	0.000000
21.406249	22.850477	11.697102	1.157743	-0.740765	3.101696	0.000000	-0.180552	0.000000	0.000004	-0.000000	0.000000	0.000000
21.955309	21.221332	12.768618	1.791845	-1.222301	2.977497	0.000000	-0.271188	0.000000	0.000004	-0.000000	0.000000	0.000000
22.504369	18.961627	14.413336	2.299380	-1.790898	2.804783	0.000000	-0.357014	0.000000	0.000004	-0.000000	0.000000	0.000000
22.950329	17.180922	15.889838	1.707687	-1.505973	2.662860	0.000000	-0.279815	0.000000	0.000004	-0.000000	0.000000	0.000000
23.391289	15.904160	17.066988	1.198711	-1.153386	2.555793	0.000000	-0.206258	0.000000	0.000003	-0.000000	0.000000	0.000000
23.832249	15.050520	17.908768	0.744501	-0.748320	2.480613	0.000000	-0.135050	0.000000	0.000003	-0.000000	0.000000	0.000000
24.273209	14.581001	18.376876	0.324304	-0.309207	2.436464	0.000000	-0.065380	0.000000	0.000003	-0.000000	0.000000	0.000000
24.715418	14.474266	18.449768	-0.045668	0.098664	2.422841	0.000000	-0.002396	0.000000	0.000003	0.000000	0.000000	0.000000
25.012741	14.507542	18.395936	-0.066253	0.082391	2.422129	0.000000	-0.002396	0.000000	0.000003	0.000000	0.000000	0.000000
25.346075	14.559403	18.347090	-0.089330	0.064148	2.421330	0.000000	-0.002396	0.000000	0.000003	0.000000	0.000000	0.000000
25.679408	14.626649	18.310405	-0.112407	0.045906	2.420531	0.000000	-0.002396	0.000000	0.000003	0.000000	0.000000	0.000000
26.013991	14.709320	18.286184	-0.016240	-0.120752	2.419705	0.000000	-0.022026	0.000000	0.000003	-0.000000	0.000000	0.000000
26.311314	14.724988	18.362894	-0.000349	-0.182279	2.413156	0.000000	-0.027944	0.000000	0.000003	-0.000000	0.000000	0.000000
26.752274	14.906740	18.324452	-0.413386	0.269124	2.415942	0.000000	0.040592	0.000000	0.000003	0.000000	0.000000	0.000000
27.193234	15.459677	17.891810	-0.845310	0.708281	2.449023	0.000000	0.109590	0.000000	0.000003	0.000000	0.000000	0.000000
27.634194	16.409061	17.084651	-1.315853	1.115212	2.512775	0.000000	0.179836	0.000000	0.000003	0.000000	0.000000	0.000000
28.075154	17.798268	15.939701	-1.846514	1.471402	2.607924	0.000000	0.252131	0.000000	0.000004	0.000000	0.000000	0.000000
28.521114	19.714908	14.491810	-2.466493	1.761558	2.737158	0.000000	0.327740	0.000000	0.000004	0.000000	0.000000	0.000000
29.070174	22.150964	12.878429	-1.944018	1.194229	2.894447	0.000000	0.244356	0.000000	0.000004	0.000000	0.000000	0.000000
29.619234	23.934019	11.837956	-1.284227	0.711964	3.004693	0.000000	0.156636	0.000000	0.000004	0.000000	0.000000	0.000000
30.168294	24.938127	11.296281	-0.533724	0.280410	3.065942	0.000000	0.066139	0.000000	0.000004	0.000000	0.000000	0.000000
30.717354	25.092363	11.214821	0.254478	-0.131172	3.077106	0.000000	-0.025532	0.000000	0.000004	-0.000000	0.000000	0.000000
31.015927	24.983230	11.283684	0.176595	-0.128770	3.071883	0.000000	-0.017492	0.000000	0.000004	-0.000000	0.000000	0.000000
31.349260	24.870087	11.379541	0.162836	-0.158801	3.066053	0.000000	-0.017492	0.000000	0.000004	-0.000000	0.000000	0.000000
31.682593	24.766115	11.495419	0.149078	-0.188832	3.060222	0.000000	-0.017492	0.000000	0.000004	-0.000000	0.000000	0.000000
32.017177	24.670978	11.631864	0.135268	-0.218975	3.054369	0.000000	-0.017492	0.000000	0.000004	-0.000000	0.000000	0.000000
32.314499	24.594190	11.770041	0.058738	-0.215010	3.049169	0.000000	-0.009526	0.000000	0.000004	-0.000000	0.000000	0.000000
32.863559	24.108374	12.245486	0.820837	-0.656026	3.019061	0.000000	-0.099984	0.000000	0.000004	-0.000000	0.000000	0.000000
33.412619	22.812723	13.227883	1.524956	-1.143770	2.939700	0.000000	-0.188669	0.000000	0.000004	-0.000000	0.000000	0.000000
33.961679	20.798755	14.787206	2.121360	-1.712981	2.812494	0.000000	-0.274008	0.000000	0.000004	-0.000000	0.000000	0.000000
34.510739	18.208726	17.034523	2.567922	-2.404204	2.639700	0.000000	-0.354486	0.000000	0.000003	-0.000001	0.000000	0.000000
34.956699	16.194997	19.044599	1.963750	-2.084276	2.497953	0.000000	-0.281567	0.000000	0.000003	-0.000000	0.000000	0.000000
35.397659	14.693470	20.706525	1.454300	-1.670263	2.389172	0.000000	-0.212284	0.000000	0.000003	-0.000000	0.000000	0.000000
35.838619	13.610351	21.968290	1.011293	-1.180254	2.310381	0.000000	-0.145418	0.000000	0.000003	-0.000000	0.000000	0.000000
36.279579	12.896156	22.772486	0.614488	-0.636545	2.260683	0.000000	-0.080208	0.000000	0.000003	-0.000000	0.000000	0.000000
36.721789	12.517564	23.082823	0.276349	-0.120532	2.239484	0.000000	-0.021403	0.000000	0.000002	-0.000000	0.000000	0.000000
37.019112	12.360836	23.158382	0.250782	-0.133600	2.233120	0.000000	-0.021403	0.000000	0.000002	-0.000000	0.000000	0.000000
37.352445	12.203202	23.252333	0.222120	-0.148250	2.225986	0.000000	-0.021403	0.000000	0.000002	-0.000000	0.000000	0.000000
37.685779	12.064677	23.356050	0.193457	-0.162901	2.218852	0.000000	-0.021403	0.000000	0.000002	-0.000000	0.000000	0.000000
38.020362	11.944848	23.469978	0.164686	-0.177606	2.211691	0.000000	-0.021403	0.000000	0.000002	-0.000000	0.000000	0.000000
38.317684	11.854520	23.579476	0.168190	-0.248497	2.205327	0.000000	-0.026811	0.000000	0.000002	-0.000000	0.000000	0.000000
38.758644	11.857393	23.537475	-0.174730	0.343382	2.207430	0.000000	0.036358	0.000000	0.000002	-0.000000	0.000000	0.000000
39.199604	12.165058	22.978407	-0.525633	0.919638	2.237453	0.000000	0.099941	0.000000	0.000002	-0.000000	0.000000	0.000000
39.640564	12.791571	21.927707	-0.900551	1.454050	2.295737	0.000000	0.164663	0.000000	0.000002	-0.000000	0.000000	0.000000
40.081524	13.765557	20.433182	-1.316613	1.922305	2.382947	0.000000	0.231260	0.000000	0.000002	0.000000	0.000000	0.000000
40.527484	15.149078	18.540264	-1.796650	2.304375	2.501548	0.000000	0.300896	0.000000	0.000002	0.000000	0.000000	0.000000
41.076544	16.914841	16.413191	-1.400288	1.592518	2.646231	0.000000	0.225350	0.000000	0.000002	-0.000000	0.000000	0.000000
41.625604	18.188128	15.001321	-0.905015	0.994093	2.748275	0.000000	0.145806	0.000000	0.000002	-0.000000	0.000000	0.000000
42.174664	18.879000	14.204087	-0.345817	0.466475	2.805869	0.000000	0.063676	0.000000	0.000002	-0.000000	0.000000	0.000000
42.723724	18.938657	13.964706	0.237807	-0.027917	2.817991	0.000000	-0.019584	0.000000	0.000002	-0.000000	0.000000	0.000000
43.022297	18.831073	13.965973	0.172001	-0.012813	2.814342	0.000000	-0.012221	0.000000	0.000002	-0.000000	0.000000	0.000000
43.502297	18.678550	13.994773	0.145757	-0.047188	2.808476	0.000000	-0.012221	0.000000	0.000002	-0.000000	0.000000	0.000000
43.982297	18.551220	14.056573	0.119513	-0.081563	2.802610	0.000000	-0.012221	0.000000	0.000002	-0.000000	0.000000	0.000000
44.462297	18.449085	14.151373	0.093269	-0.115937	2.796744	0.000000	-0.012221	0.000000	0.000002	-0.000000	0.000000	0.000000
44.942297	18.372144	14.279173	0.067025	-0.150312	2.790878	0.000000	-0.012221	0.000000	0.000001	-0.000000	0.000000	0.000000
45.423547	18.320522	14.440256	-0.050057	-0.113231	2.785014	0.000000	0.001578	0.000000	0.000001	-0.000000	0.000000	0.000000
45.720870	18.355125	14.513788	-0.114285	-0.096163	2.785483	0.000000	0.008855	0.000000	0.000001	-0.000000	0.000000	0.000000
46.269930	18.171553	14.900170	0.446644	-0.611705	2.767776	0.000000	-0.073260	0.000000	0.000001	-0.000000	0.000000	0.000000
46.818990	17.385771	15.873138	0.976025	-1.170817	2.705274	0.000000	-0.154077	0.000000	0.000001	-0.000000	0.000000	0.000000
47.368050	16.053282	17.501996	1.436464	-1.813324	2.599084	0.000000	-0.232160	0.000000	0.000001	-0.000000	0.000000	0.000000
47.917110	14.268206	19.902764	1.795438	-2.584990	2.451091	0.000000	-0.306125	0.000000	0.000001	-0.000000	0.000000	0.000000
48.363070	12.878944	22.037354	1.330814	-2.181394	2.329862	0.000000	-0.237832	0.000000	0.000001	-0.000000	0.000000	0.000000
48.804030	11.885450	23.746497	0.930759	-1.679815	2.239446	0.000000	-0.172645	0.000000	0.000000	-0.000000	0.000000	0.000000
49.244990	11.224759	24.977766	0.573227	-1.101806	2.177315	0.000000	-0.109424	0.000000	0.000000	-0.000000	0.000000	0.000000
49.685950	10.866686	25.675140	0.241884	-0.473666	2.142760	0.000000	-0.047450	0.000000	0.000000	-0.000000	0.000000	0.000000
50.128160	10.795002	25.806608	-0.052052	0.112690	2.135400	0.000000	0.008748	0.000000	0.000000	-0.000000	0.000000	0.000000
50.425482	10.834166	25.743066	-0.079669	0.101023	2.138001	0.000000	0.008748	0.000000	0.000000	-0.000000	0.000000	0.000000
50.758816	10.897600	25.680078	-0.110631	0.087942	2.140917	0.000000	0.008748	0.000000	-0.000000	-0.000000	0.000000	0.000000
51.092149	10.981675	25.625810	-0.141594	0.074861	2.143833	0.000000	0.008748	0.000000	-0.000000	-0.000000	0.000000	0.000000
51.426732	11.086598	25.580627	-0.082730	-0.145791	2.146738	0.000000	-0.008668	0.000000	-0.000000	-0.000000	0.000000	0.000000
51.724055	11.143821	25.670850	-0.082404	-0.220613	2.144161	0.000000	-0.013926	0.000000	-0.000000	-0.000000	0.000000	0.000000
52.165015	11.361963	25.579847	-0.414171	0.426202	2.151609	0.000000	0.047736	0.000000	-0.000000	-0.000000	0.000000	0.000000
52.605975	11.879904	24.924809	-0.764860	1.053627	2.186340	0.000000	0.109941	0.000000	-0.000001	-0.000000	0.000000	0.000000
53.046935	12.721307	23.735539	-1.150494	1.633111	2.248751	0.000000	0.173398	0.000000	-0.000001	-0.000000	0.000000	0.000000
53.487895	13.924612	22.066149	-1.588691	2.138291	2.339553	0.000000	0.238830	0.000000	-0.000001	-0.000000	0.000000	0.000000
53.933855	15.565419	19.967632	-2.103707	2.547514	2.461284	0.000000	0.307381	0.000000	-0.000001	-0.000000	0.000000	0.000000
54.482915	17.677854	17.606358	-1.720885	1.778446	2.609874	0.000000	0.233075	0.000000	-0.000001	-0.000000	0.000000	0.000000
55.031975	19.300264	16.015514	-1.216509	1.136052	2.716470	0.000000	0.154636	0.000000	-0.000001	-0.000000	0.000000	0.000000
55.581035	20.318048	15.081788	-0.626204	0.574576	2.779179	0.000000	0.073453	0.000000	-0.000001	-0.000000	0.000000	0.000000
56.130095	20.659317	14.738673	0.008333	0.054027	2.796891	0.000000	-0.009032	0.000000	-0.000002	-0.000000	0.000000	0.000000
56.428668	20.690899	14.689515	-0.060129	0.072106	2.796376	0.000000	-0.001724	0.000000	-0.000002	-0.000000	0.000000	0.000000
56.762001	20.736374	14.649048	-0.076298	0.049296	2.795802	0.000000	-0.001724	0.000000	-0.000002	-0.000000	0.000000	0.000000
57.095334	20.792629	14.623787	-0.092466	0.026486	2.795227	0.000000	-0.001724	0.000000	-0.000002	-0.000000	0.000000	0.000000
57.429918	20.859934	14.613725	-0.108695	0.003590	2.794650	0.000000	-0.001724	0.000000	-0.000002	-0.000000	0.000000	0.000000
57.727240	20.928857	14.617639	-0.177801	0.021438	2.794138	0.000000	0.005577	0.000000	-0.000002	-0.000000	0.000000	0.000000
58.276300	20.766992	14.874868	0.470859	-0.492695	2.774559	0.000000	-0.076789	0.000000	-0.000002	-0.000000	0.000000	0.000000
58.825360	19.906949	15.712520	1.086260	-1.041921	2.710065	0.000000	-0.157793	0.000000	-0.000002	-0.000000	0.000000	0.000000
59.374420	18.409478	17.190258	1.624933	-1.665362	2.601798	0.000000	-0.235998	0.000000	-0.000002	0.000000	0.000000	0.000000
59.923480	16.380351	19.413338	2.048828	-2.407422	2.451679	0.000000	-0.310017	0.000000	-0.000002	0.000000	0.000000	0.000000
60.369440	14.792076	21.389303	1.525259	-2.004689	2.328715	0.000000	-0.241731	0.000000	-0.000002	0.000000	0.000000	0.000000
60.810400	13.649542	22.945997	1.075586	-1.512114	2.236570	0.000000	-0.176596	0.000000	-0.000002	-0.000000	0.000000	0.000000
61.251360	12.880497	24.036165	0.675054	-0.950740	2.172677	0.000000	-0.113472	0.000000	-0.000002	-0.000000	0.000000	0.000000
61.692320	12.449806	24.610207	0.305363	-0.346107	2.136308	0.000000	-0.051640	0.000000	-0.000002	-0.000000	0.000000	0.000000
62.134530	12.337843	24.641470	-0.020222	0.213789	2.127054	0.000000	0.004387	0.000000	-0.000002	-0.000000	0.000000	0.000000
62.431853	12.357036	24.518093	-0.044330	0.201172	2.128358	0.000000	0.004387	0.000000	-0.000002	-0.000000	0.000000	0.000000
62.765186	12.395599	24.388693	-0.071358	0.187026	2.129821	0.000000	0.004387	0.000000	-0.000002	-0.000000	0.000000	0.000000
63.098520	12.452180	24.268724	-0.098387	0.172880	2.131283	0.000000	0.004387	0.000000	-0.000002	-0.000000	0.000000	0.000000
63.433103	12.527094	24.157789	-0.125516	0.158682	2.132751	0.000000	0.004387	0.000000	-0.000002	-0.000000	0.000000	0.000000
63.730426	12.608900	24.067181	-0.118703	0.087043	2.134056	0.000000	-0.000846	0.000000	-0.000002	-0.000000	0.000000	0.000000
64.171386	12.874096	23.725350	-0.484985	0.685206	2.147224	0.000000	0.060628	0.000000	-0.000002	-0.000000	0.000000	0.000000
64.612346	13.470836	22.867771	-0.873424	1.252192	2.187627	0.000000	0.122793	0.000000	-0.000003	-0.000000	0.000000	0.000000
65.053306	14.426384	21.533465	-1.301768	1.762205	2.255723	0.000000	0.186357	0.000000	-0.000003	-0.000000	0.000000	0.000000
65.494266	15.784395	19.783141	-1.789586	2.192039	2.352290	0.000000	0.252043	0.000000	-0.000003	-0.000000	0.000000	0.000000
65.940226	17.630083	17.671660	-2.363859	2.522894	2.479999	0.000000	0.321002	0.000000	-0.000003	-0.000001	0.000000	0.000000
66.489286	19.995885	15.309495	-1.919459	1.804700	2.635880	0.000000	0.245972	0.000000	-0.000003	-0.000000	0.000000	0.000000
67.038346	21.795892	13.661200	-1.339478	1.215051	2.749305	0.000000	0.166579	0.000000	-0.000004	-0.000000	0.000000	0.000000
67.587406	22.902961	12.609371	-0.664884	0.711947	2.818262	0.000000	0.084232	0.000000	-0.000004	-0.000000	0.000000	0.000000
68.136466	23.238893	12.079088	0.056675	0.259554	2.841527	0.000000	0.000390	0.000000	-0.000004	-0.000000	0.000000	0.000000
68.435038	23.245145	11.913255	-0.016894	0.264303	2.843860	0.000000	0.007815	0.000000	-0.000004	-0.000000	0.000000	0.000000
68.768372	23.261189	11.747032	-0.031238	0.234368	2.846465	0.000000	0.007815	0.000000	-0.000004	-0.000000	0.000000	0.000000
69.101705	23.286796	11.600765	-0.045582	0.204433	2.849070	0.000000	0.007815	0.000000	-0.000004	-0.000000	0.000000	0.000000
69.436288	23.322115	11.474018	-0.059980	0.174387	2.851685	0.000000	0.007815	0.000000	-0.000004	-0.000000	0.000000	0.000000
69.733611	23.361586	11.378258	-0.133816	0.177416	2.854008	0.000000	0.015272	0.000000	-0.000004	-0.000000	0.000000	0.000000
70.282671	23.107318	11.411231	0.594172	-0.237823	2.839206	0.000000	-0.069111	0.000000	-0.000004	0.000000	0.000000	0.000000
