#ParticleID	Turn	x[m]	xp	y[m]	yp	z[m]	dE[GeV]# s	beta_x	beta_y	alpha_x	alpha_y	D_x	D_y	D_px	D_py	orbit_x	orbit_px	orbit_y	orbit_py
0.300000	11.804660	25.054062	-0.010197	-0.026831	2.618296	0.000000	-0.000058	0.000000	-0.000002	0.000002	0.000000	0.000000
0.601250	11.818493	25.073852	-0.035719	-0.038864	2.618278	0.000000	-0.000058	0.000000	-0.000001	0.000002	0.000000	0.000000
0.898573	11.847222	25.100494	-0.031856	-0.112293	2.618260	0.000000	-0.006479	0.000000	-0.000001	0.000002	0.000000	0.000000
1.339533	12.027338	24.921076	-0.378157	0.517624	2.631697	0.000000	0.067482	0.000000	-0.000000	0.000002	0.000000	0.000000
1.780493	12.519300	24.194425	-0.741735	1.123990	2.677885	0.000000	0.142211	0.000000	0.000001	0.000002	0.000000	0.000000
2.221453	13.345583	22.953601	-1.139201	1.679216	2.757352	0.000000	0.218560	0.000000	0.000001	0.000002	0.000000	0.000000
2.662413	14.543938	21.255062	-1.588714	2.158038	2.871001	0.000000	0.297398	0.000000	0.000002	0.000002	0.000000	0.000000
3.108373	16.189835	19.151183	-2.115096	2.539805	3.021989	0.000000	0.380113	0.000000	0.000003	0.000002	0.000000	0.000000
3.657433	18.300464	16.788165	-1.706224	1.789351	3.205422	0.000000	0.287076	0.000000	0.000004	0.000002	0.000000	0.000000
4.206493	19.892862	15.174833	-1.176833	1.166348	3.336296	0.000000	0.188946	0.000000	0.000005	0.000002	0.000000	0.000000
4.755553	20.854551	14.196271	-0.564316	0.626421	3.412290	0.000000	0.087466	0.000000	0.000006	0.000001	0.000000	0.000000
5.304613	21.117601	13.782780	0.088061	0.131113	3.432057	0.000000	-0.015566	0.000000	0.000006	0.000001	0.000000	0.000000
5.603185	21.102189	13.689632	0.018733	0.144855	3.430086	0.000000	-0.006600	0.000000	0.000007	0.000001	0.000000	0.000000
5.936519	21.094967	13.601348	0.002932	0.119995	3.427886	0.000000	-0.006600	0.000000	0.000007	0.000001	0.000000	0.000000
6.269852	21.098280	13.529639	-0.012870	0.095135	3.425686	0.000000	-0.006600	0.000000	0.000008	0.000001	0.000000	0.000000
6.604435	21.112199	13.474327	-0.028731	0.070181	3.423477	0.000000	-0.006600	0.000000	0.000008	0.000001	0.000000	0.000000
6.901758	21.133474	13.439187	-0.098040	0.083119	3.421515	0.000000	0.002340	0.000000	0.000008	0.000001	0.000000	0.000000
7.450818	20.880989	13.608863	0.555169	-0.393974	3.394599	0.000000	-0.100235	0.000000	0.000009	0.000001	0.000000	0.000000
7.999878	19.928589	14.314688	1.169164	-0.899128	3.311770	0.000000	-0.201032	0.000000	0.000009	0.000001	0.000000	0.000000
8.548938	18.343548	15.606934	1.700574	-1.468325	3.174496	0.000000	-0.298263	0.000000	0.000010	0.000000	0.000000	0.000000
9.097998	16.237825	17.577647	2.111865	-2.142108	2.985213	0.000000	-0.390203	0.000000	0.000010	0.000000	0.000000	0.000000
9.543958	14.595021	19.333622	1.584979	-1.778766	2.829503	0.000000	-0.308504	0.000000	0.000010	0.000000	0.000000	0.000000
9.984918	13.400244	20.712235	1.134790	-1.335727	2.710709	0.000000	-0.230802	0.000000	0.000010	0.000001	0.000000	0.000000
10.425878	12.578222	21.671729	0.736447	-0.831913	2.625568	0.000000	-0.155728	0.000000	0.000010	0.000001	0.000000	0.000000
10.866838	12.091399	22.168448	0.371750	-0.290248	2.573108	0.000000	-0.082429	0.000000	0.000011	0.000001	0.000000	0.000000
11.309048	11.917399	22.179265	0.053154	0.210178	2.552713	0.000000	-0.016327	0.000000	0.000011	0.000001	0.000000	0.000000
11.606371	11.893231	22.058445	0.028135	0.196180	2.547858	0.000000	-0.016327	0.000000	0.000012	0.000001	0.000000	0.000000
12.086371	11.885609	21.880959	-0.012257	0.173583	2.540020	0.000000	-0.016327	0.000000	0.000012	0.000001	0.000000	0.000000
12.566371	11.916763	21.725167	-0.052648	0.150985	2.532183	0.000000	-0.016327	0.000000	0.000013	0.000001	0.000000	0.000000
13.046371	11.986692	21.591068	-0.093039	0.128387	2.524345	0.000000	-0.016327	0.000000	0.000014	0.000001	0.000000	0.000000
13.526371	12.095397	21.478664	-0.133430	0.105789	2.516507	0.000000	-0.016327	0.000000	0.000014	0.000001	0.000000	0.000000
14.007621	12.243312	21.387746	-0.173926	0.083132	2.508649	0.000000	-0.016327	0.000000	0.000015	0.000001	0.000000	0.000000
14.304943	12.354175	21.342473	-0.168653	0.016805	2.503794	0.000000	-0.022466	0.000000	0.000015	0.000001	0.000000	0.000000
14.745903	12.661399	21.094077	-0.530706	0.544358	2.509516	0.000000	0.048444	0.000000	0.000016	0.000002	0.000000	0.000000
15.186863	13.297371	20.389608	-0.917006	1.047144	2.546597	0.000000	0.119906	0.000000	0.000017	0.000002	0.000000	0.000000
15.627823	14.291144	19.261117	-1.345201	1.502285	2.615461	0.000000	0.192734	0.000000	0.000018	0.000003	0.000000	0.000000
16.068783	15.688123	17.759950	-1.834855	1.889074	2.716893	0.000000	0.267756	0.000000	0.000019	0.000003	0.000000	0.000000
16.514743	17.575793	15.932910	-2.413096	2.190653	2.853740	0.000000	0.346291	0.000000	0.000021	0.000004	0.000000	0.000000
17.063803	20.000343	13.892926	-1.976580	1.546688	3.020149	0.000000	0.258981	0.000000	0.000022	0.000003	0.000000	0.000000
17.612863	21.865577	12.495811	-1.400448	1.012890	3.137285	0.000000	0.167077	0.000000	0.000024	0.000002	0.000000	0.000000
18.161923	23.039745	11.642050	-0.725395	0.551238	3.203073	0.000000	0.072210	0.000000	0.000025	0.000001	0.000000	0.000000
18.710983	23.439908	11.270833	0.000896	0.128849	3.216344	0.000000	-0.023938	0.000000	0.000025	0.000001	0.000000	0.000000
19.009556	23.479754	11.184418	-0.073120	0.131137	3.211705	0.000000	-0.015536	0.000000	0.000025	0.000001	0.000000	0.000000
19.342889	23.533258	11.107099	-0.087392	0.100821	3.206526	0.000000	-0.015536	0.000000	0.000026	0.000001	0.000000	0.000000
19.676223	23.596277	11.049990	-0.101665	0.070505	3.201347	0.000000	-0.015536	0.000000	0.000026	0.000001	0.000000	0.000000
20.010806	23.669394	11.012855	-0.233262	0.094640	3.196169	0.000000	0.000299	0.000000	0.000026	0.000001	0.000000	0.000000
20.308129	23.812040	10.964677	-0.308710	0.096043	3.196258	0.000000	0.008649	0.000000	0.000026	0.000001	0.000000	0.000000
20.857189	23.740330	11.081122	0.438541	-0.309374	3.174794	0.000000	-0.086716	0.000000	0.000027	-0.000000	0.000000	0.000000
21.406249	22.860273	11.652179	1.154815	-0.736828	3.101316	0.000000	-0.180542	0.000000	0.000026	-0.000001	0.000000	0.000000
21.955309	21.234030	12.718524	1.789518	-1.216763	2.977126	0.000000	-0.271166	0.000000	0.000026	-0.000002	0.000000	0.000000
22.504369	18.976471	14.356109	2.297819	-1.783367	2.804428	0.000000	-0.356980	0.000000	0.000024	-0.000003	0.000000	0.000000
22.950329	17.197213	15.826465	1.705987	-1.499781	2.662519	0.000000	-0.279791	0.000000	0.000023	-0.000002	0.000000	0.000000
23.391289	15.922040	16.998849	1.196794	-1.148808	2.555461	0.000000	-0.206242	0.000000	0.000023	-0.000001	0.000000	0.000000
23.832249	15.070217	17.837383	0.742279	-0.745566	2.480287	0.000000	-0.135043	0.000000	0.000022	-0.000001	0.000000	0.000000
24.273209	14.602828	18.303916	0.321677	-0.308401	2.436140	0.000000	-0.065381	0.000000	0.000022	-0.000000	0.000000	0.000000
24.715418	14.498640	18.376976	-0.048767	0.097670	2.422514	0.000000	-0.002404	0.000000	0.000022	0.000000	0.000000	0.000000
25.012741	14.533751	18.323753	-0.069323	0.081337	2.421799	0.000000	-0.002404	0.000000	0.000022	0.000000	0.000000	0.000000
25.346075	14.587648	18.275633	-0.092368	0.063025	2.420998	0.000000	-0.002404	0.000000	0.000022	0.000000	0.000000	0.000000
25.679408	14.656909	18.239720	-0.115414	0.044713	2.420197	0.000000	-0.002404	0.000000	0.000022	0.000000	0.000000	0.000000
26.013991	14.741581	18.216319	-0.018952	-0.121447	2.419368	0.000000	-0.022031	0.000000	0.000022	0.000000	0.000000	0.000000
26.311314	14.758849	18.293461	-0.002943	-0.182861	2.412817	0.000000	-0.027947	0.000000	0.000022	0.000000	0.000000	0.000000
26.752274	14.943262	18.256362	-0.416851	0.266672	2.415600	0.000000	0.040580	0.000000	0.000023	0.000001	0.000000	0.000000
27.193234	15.499696	17.826668	-0.849804	0.704071	2.448673	0.000000	0.109570	0.000000	0.000023	0.000001	0.000000	0.000000
27.634194	16.453571	17.023928	-1.321581	1.109436	2.512414	0.000000	0.179807	0.000000	0.000024	0.000002	0.000000	0.000000
28.075154	17.848470	15.884668	-1.853738	1.464322	2.607547	0.000000	0.252092	0.000000	0.000025	0.000002	0.000000	0.000000
28.521114	19.772349	14.443558	-2.475560	1.753494	2.736760	0.000000	0.327692	0.000000	0.000026	0.000003	0.000000	0.000000
29.070174	22.217598	12.837968	-1.951591	1.188018	2.894025	0.000000	0.244320	0.000000	0.000027	0.000002	0.000000	0.000000
29.619234	24.007899	11.803507	-1.289771	0.707161	3.004255	0.000000	0.156614	0.000000	0.000028	0.000001	0.000000	0.000000
30.168294	25.016796	11.266492	-0.536848	0.276674	3.065495	0.000000	0.066131	0.000000	0.000029	0.000000	0.000000	0.000000
30.717354	25.173023	11.188673	0.253996	-0.134106	3.076659	0.000000	-0.025525	0.000000	0.000029	-0.000001	0.000000	0.000000
31.015927	25.064284	11.259356	0.175958	-0.131858	3.071437	0.000000	-0.017488	0.000000	0.000029	-0.000000	0.000000	0.000000
31.349260	24.951549	11.357302	0.162247	-0.161978	3.065608	0.000000	-0.017488	0.000000	0.000029	-0.000000	0.000000	0.000000
31.682593	24.847955	11.475327	0.148536	-0.192098	3.059779	0.000000	-0.017488	0.000000	0.000028	-0.000000	0.000000	0.000000
32.017177	24.753164	11.613987	0.134774	-0.222330	3.053928	0.000000	-0.017488	0.000000	0.000028	-0.000000	0.000000	0.000000
32.314499	24.676657	11.754183	0.058084	-0.218492	3.048728	0.000000	-0.009524	0.000000	0.000028	-0.000000	0.000000	0.000000
32.863559	24.190053	12.233289	0.822919	-0.659253	3.018625	0.000000	-0.099969	0.000000	0.000028	-0.000001	0.000000	0.000000
33.412619	22.890672	13.219195	1.529627	-1.146971	2.939277	0.000000	-0.188640	0.000000	0.000027	-0.000002	0.000000	0.000000
33.961679	20.870295	14.782124	2.128289	-1.716385	2.812093	0.000000	-0.273965	0.000000	0.000025	-0.000003	0.000000	0.000000
34.510739	18.271633	17.033400	2.576620	-2.408053	2.639326	0.000000	-0.354431	0.000000	0.000024	-0.000004	0.000000	0.000000
34.956699	16.251016	19.047116	1.970548	-2.088557	2.497603	0.000000	-0.281522	0.000000	0.000022	-0.000003	0.000000	0.000000
35.397659	14.744207	20.712935	1.459525	-1.674776	2.388841	0.000000	-0.212247	0.000000	0.000021	-0.000003	0.000000	0.000000
35.838619	13.657083	21.978707	1.015183	-1.184794	2.310066	0.000000	-0.145389	0.000000	0.000020	-0.000002	0.000000	0.000000
36.279579	12.939978	22.786843	0.617222	-0.640904	2.260379	0.000000	-0.080187	0.000000	0.000019	-0.000002	0.000000	0.000000
36.721789	12.559433	23.100882	0.278149	-0.124549	2.239188	0.000000	-0.021389	0.000000	0.000018	-0.000001	0.000000	0.000000
37.019112	12.401616	23.178831	0.252644	-0.137619	2.232829	0.000000	-0.021389	0.000000	0.000018	-0.000001	0.000000	0.000000
37.352445	12.242718	23.275461	0.224050	-0.152272	2.225700	0.000000	-0.021389	0.000000	0.000017	-0.000001	0.000000	0.000000
37.685779	12.102883	23.381861	0.195456	-0.166926	2.218571	0.000000	-0.021389	0.000000	0.000017	-0.000001	0.000000	0.000000
38.020362	11.981693	23.498483	0.166755	-0.181634	2.211415	0.000000	-0.021389	0.000000	0.000017	-0.000001	0.000000	0.000000
38.317684	11.890116	23.610377	0.170404	-0.252595	2.205056	0.000000	-0.026795	0.000000	0.000016	-0.000001	0.000000	0.000000
38.758644	11.891390	23.571617	-0.173304	0.340159	2.207165	0.000000	0.036367	0.000000	0.000016	-0.000001	0.000000	0.000000
39.199604	12.198119	23.014950	-0.524930	0.917436	2.237190	0.000000	0.099944	0.000000	0.000016	-0.000000	0.000000	0.000000
39.640564	12.824318	21.965702	-0.900538	1.452971	2.295474	0.000000	0.164659	0.000000	0.000016	-0.000000	0.000000	0.000000
40.081524	13.798596	20.471614	-1.317289	1.922397	2.382681	0.000000	0.231249	0.000000	0.000016	0.000000	0.000000	0.000000
40.527484	15.183041	18.578086	-1.798052	2.305642	2.501275	0.000000	0.300878	0.000000	0.000016	0.000001	0.000000	0.000000
41.076544	16.949638	16.450165	-1.400395	1.592806	2.645950	0.000000	0.225340	0.000000	0.000016	0.000000	0.000000	0.000000
41.625604	18.222325	15.038502	-0.903821	0.993423	2.747991	0.000000	0.145806	0.000000	0.000016	-0.000000	0.000000	0.000000
42.174664	18.911205	14.242549	-0.343405	0.464799	2.805587	0.000000	0.063685	0.000000	0.000016	-0.000001	0.000000	0.000000
42.723724	18.967619	14.005611	0.241267	-0.030718	2.817718	0.000000	-0.019566	0.000000	0.000015	-0.000001	0.000000	0.000000
43.022297	18.858010	14.008470	0.175394	-0.015447	2.814074	0.000000	-0.012205	0.000000	0.000015	-0.000001	0.000000	0.000000
43.502297	18.702225	14.039750	0.149158	-0.049720	2.808216	0.000000	-0.012205	0.000000	0.000014	-0.000001	0.000000	0.000000
43.982297	18.571627	14.103933	0.122922	-0.083993	2.802359	0.000000	-0.012205	0.000000	0.000014	-0.000001	0.000000	0.000000
44.462297	18.466216	14.201018	0.096685	-0.118267	2.796501	0.000000	-0.012205	0.000000	0.000013	-0.000001	0.000000	0.000000
44.942297	18.385991	14.331005	0.070449	-0.152540	2.790643	0.000000	-0.012205	0.000000	0.000013	-0.000001	0.000000	0.000000
45.423547	18.331071	14.494182	-0.046678	-0.115089	2.784788	0.000000	0.001593	0.000000	0.000012	-0.000001	0.000000	0.000000
45.720870	18.363661	14.568799	-0.110909	-0.097812	2.785262	0.000000	0.008869	0.000000	0.000012	-0.000001	0.000000	0.000000
46.269930	18.176254	14.957919	0.450210	-0.615074	2.767565	0.000000	-0.073239	0.000000	0.000011	-0.000002	0.000000	0.000000
46.818990	17.386567	15.935635	0.979529	-1.176146	2.705076	0.000000	-0.154049	0.000000	0.000010	-0.000002	0.000000	0.000000
47.368050	16.050377	17.571588	1.439659	-1.820992	2.598904	0.000000	-0.232126	0.000000	0.000009	-0.000002	0.000000	0.000000
47.917110	14.262067	19.982301	1.798098	-2.595544	2.450932	0.000000	-0.306086	0.000000	0.000008	-0.000002	0.000000	0.000000
48.363070	12.870503	22.125552	1.333338	-2.190177	2.329721	0.000000	-0.237797	0.000000	0.000007	-0.000002	0.000000	0.000000
48.804030	11.874798	23.841513	0.933265	-1.686436	2.239320	0.000000	-0.172613	0.000000	0.000006	-0.000002	0.000000	0.000000
49.244990	11.211863	25.077553	0.575829	-1.105963	2.177203	0.000000	-0.109395	0.000000	0.000005	-0.000002	0.000000	0.000000
49.685950	10.851409	25.777433	0.244702	-0.475170	2.142661	0.000000	-0.047424	0.000000	0.000004	-0.000002	0.000000	0.000000
50.128160	10.777089	25.909025	-0.048934	0.113659	2.135313	0.000000	0.008772	0.000000	0.000003	-0.000002	0.000000	0.000000
50.425482	10.814410	25.844894	-0.076589	0.102036	2.137921	0.000000	0.008772	0.000000	0.000003	-0.000002	0.000000	0.000000
50.758816	10.875804	25.781214	-0.107592	0.089004	2.140846	0.000000	0.008772	0.000000	0.000002	-0.000002	0.000000	0.000000
51.092149	10.957867	25.726222	-0.138596	0.075972	2.143771	0.000000	0.008772	0.000000	0.000002	-0.000002	0.000000	0.000000
51.426732	11.060798	25.680281	-0.079984	-0.145440	2.146684	0.000000	-0.008643	0.000000	0.000001	-0.000002	0.000000	0.000000
51.724055	11.116404	25.770282	-0.079776	-0.220459	2.144115	0.000000	-0.013901	0.000000	0.000000	-0.000002	0.000000	0.000000
52.165015	11.331934	25.677981	-0.410852	0.428979	2.151574	0.000000	0.047759	0.000000	-0.000000	-0.000002	0.000000	0.000000
52.605975	11.846588	25.019381	-0.760699	1.058898	2.186316	0.000000	0.109963	0.000000	-0.000001	-0.000002	0.000000	0.000000
53.046935	12.683881	23.824446	-1.145300	1.640639	2.248738	0.000000	0.173420	0.000000	-0.000002	-0.000002	0.000000	0.000000
53.487895	13.882065	22.147546	-1.582227	2.147731	2.339550	0.000000	0.238852	0.000000	-0.000003	-0.000002	0.000000	0.000000
53.933855	15.516426	20.039907	-2.095665	2.558443	2.461292	0.000000	0.307403	0.000000	-0.000004	-0.000002	0.000000	0.000000
54.482915	17.620676	17.668212	-1.714109	1.786610	2.609895	0.000000	0.233097	0.000000	-0.000005	-0.000002	0.000000	0.000000
55.031975	19.236564	16.069646	-1.211478	1.142034	2.716503	0.000000	0.154657	0.000000	-0.000006	-0.000002	0.000000	0.000000
55.581035	20.249951	15.130349	-0.623274	0.578802	2.779224	0.000000	0.073473	0.000000	-0.000006	-0.000001	0.000000	0.000000
56.130095	20.589257	14.783415	0.008955	0.056797	2.796947	0.000000	-0.009014	0.000000	-0.000007	-0.000001	0.000000	0.000000
56.428668	20.620374	14.732517	-0.059375	0.075046	2.796438	0.000000	-0.001705	0.000000	-0.000008	-0.000001	0.000000	0.000000
56.762001	20.665365	14.690070	-0.075597	0.052293	2.795870	0.000000	-0.001705	0.000000	-0.000008	-0.000001	0.000000	0.000000
57.095334	20.721170	14.662793	-0.091819	0.029539	2.795302	0.000000	-0.001705	0.000000	-0.000008	-0.000001	0.000000	0.000000
57.429918	20.788061	14.650668	-0.108102	0.006701	2.794732	0.000000	-0.001705	0.000000	-0.000009	-0.000001	0.000000	0.000000
57.727240	20.856645	14.652717	-0.177071	0.024693	2.794225	0.000000	0.005596	0.000000	-0.000009	-0.000001	0.000000	0.000000
58.276300	20.695311	14.906908	0.469169	-0.490383	2.774657	0.000000	-0.076773	0.000000	-0.000010	-0.000001	0.000000	0.000000
58.825360	19.838406	15.742461	1.082268	-1.040388	2.710170	0.000000	-0.157780	0.000000	-0.000010	-0.000001	0.000000	0.000000
59.374420	18.346459	17.218889	1.618922	-1.664497	2.601910	0.000000	-0.235988	0.000000	-0.000011	-0.000000	0.000000	0.000000
59.923480	16.324853	19.441357	2.041223	-2.407165	2.451796	0.000000	-0.310011	0.000000	-0.000011	0.000000	0.000000	0.000000
60.369440	14.742605	21.416659	1.519301	-2.003462	2.328835	0.000000	-0.241722	0.000000	-0.000011	-0.000000	0.000000	0.000000
60.810400	13.604708	22.971864	1.070990	-1.509981	2.236695	0.000000	-0.176584	0.000000	-0.000011	-0.000001	0.000000	0.000000
61.251360	12.839195	24.059786	0.671609	-0.947797	2.172808	0.000000	-0.113456	0.000000	-0.000011	-0.000001	0.000000	0.000000
61.692320	12.411095	24.630924	0.302912	-0.342489	2.136446	0.000000	-0.051621	0.000000	-0.000012	-0.000001	0.000000	0.000000
62.134530	12.300901	24.658747	-0.021878	0.217871	2.127202	0.000000	0.004409	0.000000	-0.000012	-0.000001	0.000000	0.000000
62.431853	12.321101	24.532946	-0.046061	0.205241	2.128513	0.000000	0.004409	0.000000	-0.000012	-0.000001	0.000000	0.000000
62.765186	12.360845	24.400839	-0.073172	0.191081	2.129983	0.000000	0.004409	0.000000	-0.000013	-0.000001	0.000000	0.000000
63.098520	12.418663	24.278171	-0.100283	0.176922	2.131453	0.000000	0.004409	0.000000	-0.000013	-0.000001	0.000000	0.000000
63.433103	12.494874	24.164536	-0.127496	0.162709	2.132929	0.000000	0.004409	0.000000	-0.000014	-0.000001	0.000000	0.000000
63.730426	12.577879	24.071537	-0.120829	0.091040	2.134240	0.000000	-0.000826	0.000000	-0.000014	-0.000001	0.000000	0.000000
64.171386	12.844657	23.726161	-0.486459	0.689215	2.147419	0.000000	0.060654	0.000000	-0.000015	-0.000002	0.000000	0.000000
64.612346	13.442435	22.865110	-0.874314	1.256030	2.187835	0.000000	0.122824	0.000000	-0.000016	-0.000002	0.000000	0.000000
65.053306	14.398525	21.527560	-1.302114	1.765697	2.255947	0.000000	0.186393	0.000000	-0.000017	-0.000003	0.000000	0.000000
65.494266	15.756608	19.774368	-1.789404	2.195026	2.352532	0.000000	0.252085	0.000000	-0.000018	-0.000003	0.000000	0.000000
65.940226	17.601892	17.660504	-2.363137	2.525234	2.480262	0.000000	0.321050	0.000000	-0.000019	-0.000003	0.000000	0.000000
66.489286	19.967529	15.295823	-1.919884	1.806970	2.636169	0.000000	0.246011	0.000000	-0.000021	-0.000003	0.000000	0.000000
67.038346	21.768621	13.645001	-1.341020	1.217412	2.749614	0.000000	0.166609	0.000000	-0.000023	-0.000002	0.000000	0.000000
67.587406	22.877948	12.590453	-0.667433	0.714567	2.818585	0.000000	0.084251	0.000000	-0.000023	-0.000001	0.000000	0.000000
68.136466	23.217154	12.057067	0.053297	0.262620	2.841859	0.000000	0.000399	0.000000	-0.000024	-0.000001	0.000000	0.000000
68.435038	23.225399	11.889462	-0.020238	0.267224	2.844196	0.000000	0.007826	0.000000	-0.000024	-0.000001	0.000000	0.000000
68.768372	23.243676	11.721326	-0.034596	0.237186	2.846804	0.000000	0.007826	0.000000	-0.000024	-0.000001	0.000000	0.000000
69.101705	23.271526	11.573215	-0.048954	0.207148	2.849413	0.000000	0.007826	0.000000	-0.000025	-0.000001	0.000000	0.000000
69.436288	23.309106	11.444686	-0.063366	0.176997	2.852032	0.000000	0.007826	0.000000	-0.000025	-0.000001	0.000000	0.000000
69.733611	23.350594	11.347402	-0.137196	0.179859	2.854359	0.000000	0.015285	0.000000	-0.000025	-0.000001	0.000000	0.000000
70.282671	23.100206	11.377208	0.590527	-0.234466	2.839561	0.000000	-0.069109	0.000000	-0.000025	0.000000	0.000000	0.000000
