#ParticleID	Turn	x[m]	xp	y[m]	yp	z[m]	dE[GeV]# s	beta_x	beta_y	alpha_x	alpha_y	D_x	D_y	D_px	D_py	orbit_x	orbit_px	orbit_y	orbit_py
0.300000	11.820509	24.990810	-0.011854	-0.027519	2.618111	0.000000	0.000012	0.000000	0.000000	0.000001	0.000000	0.000000
0.601250	11.835329	25.011024	-0.037342	-0.039582	2.618115	0.000000	0.000012	0.000000	0.000000	0.000001	0.000000	0.000000
0.898573	11.865014	25.038102	-0.033403	-0.112889	2.618118	0.000000	-0.006408	0.000000	0.000001	0.000001	0.000000	0.000000
1.339533	12.046685	24.859935	-0.380149	0.515393	2.631585	0.000000	0.067549	0.000000	0.000001	0.000001	0.000000	0.000000
1.780493	12.540633	24.135939	-0.744264	1.120224	2.677803	0.000000	0.142276	0.000000	0.000001	0.000001	0.000000	0.000000
2.221453	13.369424	22.899053	-1.142382	1.674086	2.757299	0.000000	0.218623	0.000000	0.000002	0.000001	0.000000	0.000000
2.662413	14.570924	21.205555	-1.592692	2.151779	2.870976	0.000000	0.297461	0.000000	0.000002	0.000001	0.000000	0.000000
3.108373	16.220795	19.107660	-2.120061	2.532699	3.021993	0.000000	0.380175	0.000000	0.000002	0.000001	0.000000	0.000000
3.657433	18.336460	16.751460	-1.710377	1.783967	3.205460	0.000000	0.287137	0.000000	0.000003	0.000001	0.000000	0.000000
4.206493	19.932835	15.143273	-1.179881	1.162303	3.336367	0.000000	0.189006	0.000000	0.000003	0.000001	0.000000	0.000000
4.755553	20.897162	14.168553	-0.566044	0.623428	3.412394	0.000000	0.087523	0.000000	0.000003	0.000001	0.000000	0.000000
5.304613	21.161324	13.757873	0.087775	0.128957	3.432192	0.000000	-0.015513	0.000000	0.000004	0.000000	0.000000	0.000000
5.603185	21.146142	13.666058	0.018362	0.142611	3.430237	0.000000	-0.006546	0.000000	0.000004	0.000000	0.000000	0.000000
5.936519	21.139157	13.579280	0.002594	0.117724	3.428055	0.000000	-0.006546	0.000000	0.000004	0.000000	0.000000	0.000000
6.269852	21.142684	13.509093	-0.013175	0.092836	3.425873	0.000000	-0.006546	0.000000	0.000004	0.000000	0.000000	0.000000
6.604435	21.156796	13.455328	-0.029003	0.067855	3.423683	0.000000	-0.006546	0.000000	0.000004	0.000000	0.000000	0.000000
6.901758	21.178225	13.421579	-0.098401	0.080724	3.421736	0.000000	0.002394	0.000000	0.000004	0.000000	0.000000	0.000000
7.450818	20.925311	13.593624	0.556304	-0.395918	3.394849	0.000000	-0.100188	0.000000	0.000005	0.000000	0.000000	0.000000
7.999878	19.970875	14.301400	1.171715	-0.900760	3.312044	0.000000	-0.200994	0.000000	0.000005	0.000000	0.000000	0.000000
8.548938	18.382333	15.595321	1.704362	-1.469761	3.174789	0.000000	-0.298234	0.000000	0.000005	0.000000	0.000000	0.000000
9.097998	16.271891	17.567549	2.116620	-2.143450	2.985519	0.000000	-0.390184	0.000000	0.000005	-0.000000	0.000000	0.000000
9.543958	14.625314	19.324930	1.588715	-1.780563	2.829819	0.000000	-0.308476	0.000000	0.000005	-0.000000	0.000000	0.000000
9.984918	13.427624	20.705298	1.137685	-1.337894	2.711040	0.000000	-0.230766	0.000000	0.000005	0.000000	0.000000	0.000000
10.425878	12.603370	21.666830	0.738633	-0.834352	2.625917	0.000000	-0.155684	0.000000	0.000005	0.000000	0.000000	0.000000
10.866838	12.114893	22.165779	0.373327	-0.292847	2.573479	0.000000	-0.082375	0.000000	0.000005	0.000000	0.000000	0.000000
11.309048	11.939741	22.178922	0.054251	0.207535	2.553110	0.000000	-0.016265	0.000000	0.000005	0.000000	0.000000	0.000000
11.606371	11.914906	22.059670	0.029276	0.193552	2.548274	0.000000	-0.016265	0.000000	0.000005	0.000000	0.000000	0.000000
12.086371	11.906155	21.884695	-0.011044	0.170978	2.540467	0.000000	-0.016265	0.000000	0.000005	0.000000	0.000000	0.000000
12.566371	11.936111	21.731393	-0.051364	0.148403	2.532660	0.000000	-0.016265	0.000000	0.000006	0.000000	0.000000	0.000000
13.046371	12.004775	21.599761	-0.091685	0.125829	2.524852	0.000000	-0.016265	0.000000	0.000006	0.000000	0.000000	0.000000
13.526371	12.112146	21.489801	-0.132005	0.103255	2.517045	0.000000	-0.016265	0.000000	0.000006	0.000000	0.000000	0.000000
14.007621	12.258655	21.401310	-0.172430	0.080622	2.509217	0.000000	-0.016265	0.000000	0.000006	0.000000	0.000000	0.000000
14.304943	12.368615	21.357526	-0.167076	0.014267	2.504381	0.000000	-0.022406	0.000000	0.000006	0.000000	0.000000	0.000000
14.745903	12.674575	21.111173	-0.529406	0.542281	2.510133	0.000000	0.048520	0.000000	0.000007	0.000001	0.000000	0.000000
15.186863	13.309499	20.408297	-0.915923	1.045622	2.547252	0.000000	0.119998	0.000000	0.000007	0.000001	0.000000	0.000000
15.627823	14.302395	19.280877	-1.344287	1.501388	2.616162	0.000000	0.192843	0.000000	0.000007	0.000001	0.000000	0.000000
16.068783	15.698625	17.780211	-1.834067	1.888842	2.717646	0.000000	0.267885	0.000000	0.000008	0.000001	0.000000	0.000000
16.514743	17.585635	15.953074	-2.412398	2.191101	2.854556	0.000000	0.346440	0.000000	0.000008	0.000001	0.000000	0.000000
17.063803	20.009129	13.912850	-1.975370	1.546682	3.021040	0.000000	0.259102	0.000000	0.000009	0.000001	0.000000	0.000000
17.612863	21.872790	12.515990	-1.398812	1.012428	3.138236	0.000000	0.167169	0.000000	0.000010	0.000001	0.000000	0.000000
18.161923	23.044977	11.663000	-0.723449	0.550288	3.204066	0.000000	0.072270	0.000000	0.000010	0.000000	0.000000	0.000000
18.710983	23.442894	11.293122	0.003015	0.127344	3.217361	0.000000	-0.023911	0.000000	0.000010	0.000000	0.000000	0.000000
19.009556	23.481482	11.207549	-0.071011	0.129759	3.212732	0.000000	-0.015505	0.000000	0.000010	0.000000	0.000000	0.000000
19.342889	23.533579	11.131124	-0.085278	0.099517	3.207563	0.000000	-0.015505	0.000000	0.000010	0.000000	0.000000	0.000000
19.676223	23.595186	11.074861	-0.099545	0.069274	3.202395	0.000000	-0.015505	0.000000	0.000010	0.000000	0.000000	0.000000
20.010806	23.666883	11.038525	-0.231125	0.093610	3.197227	0.000000	0.000336	0.000000	0.000010	0.000000	0.000000	0.000000
20.308129	23.808255	10.990939	-0.306560	0.095153	3.197327	0.000000	0.008689	0.000000	0.000010	0.000000	0.000000	0.000000
20.857189	23.734265	11.108768	0.440519	-0.311021	3.175876	0.000000	-0.086710	0.000000	0.000010	-0.000000	0.000000	0.000000
21.406249	22.852194	11.682100	1.156483	-0.739349	3.102391	0.000000	-0.180571	0.000000	0.000010	-0.000000	0.000000	0.000000
21.955309	21.224346	12.751773	1.790757	-1.220339	2.978176	0.000000	-0.271230	0.000000	0.000010	-0.000001	0.000000	0.000000
22.504369	18.965704	14.393977	2.298542	-1.788252	2.805433	0.000000	-0.357077	0.000000	0.000009	-0.000001	0.000000	0.000000
22.950329	17.185744	15.868307	1.706846	-1.503772	2.663486	0.000000	-0.279862	0.000000	0.000009	-0.000001	0.000000	0.000000
23.391289	15.909739	17.043749	1.197828	-1.151727	2.556401	0.000000	-0.206289	0.000000	0.000009	-0.000001	0.000000	0.000000
23.832249	15.056911	17.884334	0.743535	-0.747280	2.481211	0.000000	-0.135065	0.000000	0.000009	-0.000000	0.000000	0.000000
24.273209	14.588295	18.351816	0.323213	-0.308832	2.437059	0.000000	-0.065380	0.000000	0.000008	-0.000000	0.000000	0.000000
24.715418	14.482600	18.424678	-0.046917	0.098420	2.423439	0.000000	-0.002382	0.000000	0.000008	0.000000	0.000000	0.000000
25.012741	14.516617	18.370998	-0.067492	0.082126	2.422731	0.000000	-0.002382	0.000000	0.000008	0.000000	0.000000	0.000000
25.346075	14.569301	18.322336	-0.090559	0.063859	2.421937	0.000000	-0.002382	0.000000	0.000008	0.000000	0.000000	0.000000
25.679408	14.637362	18.285852	-0.113626	0.045592	2.421143	0.000000	-0.002382	0.000000	0.000008	0.000000	0.000000	0.000000
26.013991	14.720845	18.261848	-0.017354	-0.120892	2.420321	0.000000	-0.022017	0.000000	0.000008	-0.000000	0.000000	0.000000
26.311314	14.737172	18.338648	-0.001421	-0.182379	2.413775	0.000000	-0.027936	0.000000	0.000008	-0.000000	0.000000	0.000000
26.752274	14.920003	18.300585	-0.414774	0.268369	2.416568	0.000000	0.040616	0.000000	0.000008	0.000000	0.000000	0.000000
27.193234	15.474326	17.868885	-0.847077	0.706906	2.449662	0.000000	0.109630	0.000000	0.000009	0.000000	0.000000	0.000000
27.634194	16.425466	17.063190	-1.318081	1.113280	2.513436	0.000000	0.179893	0.000000	0.000009	0.000001	0.000000	0.000000
28.075154	17.816878	15.920158	-1.849304	1.469000	2.608614	0.000000	0.252205	0.000000	0.000009	0.000001	0.000000	0.000000
28.521114	19.736307	14.474579	-2.469979	1.758795	2.737885	0.000000	0.327833	0.000000	0.000010	0.000001	0.000000	0.000000
29.070174	22.175913	12.863859	-1.946958	1.192117	2.895218	0.000000	0.244424	0.000000	0.000010	0.000001	0.000000	0.000000
29.619234	23.961800	11.825420	-1.286414	0.710350	3.005495	0.000000	0.156679	0.000000	0.000010	0.000000	0.000000	0.000000
30.168294	24.967823	11.285297	-0.535003	0.279180	3.066759	0.000000	0.066156	0.000000	0.000011	0.000000	0.000000	0.000000
30.717354	25.122921	11.205017	0.254197	-0.132104	3.077926	0.000000	-0.025542	0.000000	0.000011	-0.000000	0.000000	0.000000
31.015927	25.013997	11.274461	0.176254	-0.129758	3.072701	0.000000	-0.017500	0.000000	0.000011	-0.000000	0.000000	0.000000
31.349260	24.901075	11.370988	0.162514	-0.159821	3.066867	0.000000	-0.017500	0.000000	0.000010	-0.000000	0.000000	0.000000
31.682593	24.797312	11.487557	0.148774	-0.189884	3.061034	0.000000	-0.017500	0.000000	0.000010	-0.000000	0.000000	0.000000
32.017177	24.702371	11.624717	0.134983	-0.220060	3.055179	0.000000	-0.017500	0.000000	0.000010	-0.000000	0.000000	0.000000
32.314499	24.625748	11.763548	0.058391	-0.216142	3.049976	0.000000	-0.009532	0.000000	0.000010	-0.000000	0.000000	0.000000
32.863559	24.139736	12.240163	0.821540	-0.657037	3.019857	0.000000	-0.100016	0.000000	0.000010	-0.000001	0.000000	0.000000
33.412619	22.842755	13.223637	1.526660	-1.144731	2.940472	0.000000	-0.188727	0.000000	0.000010	-0.000001	0.000000	0.000000
33.961679	20.826418	14.784021	2.123944	-1.713962	2.813228	0.000000	-0.274090	0.000000	0.000009	-0.000001	0.000000	0.000000
34.510739	18.233148	17.032457	2.571204	-2.405275	2.640382	0.000000	-0.354591	0.000000	0.000008	-0.000001	0.000000	0.000000
34.956699	16.216824	19.043574	1.966305	-2.085530	2.498593	0.000000	-0.281655	0.000000	0.000008	-0.000001	0.000000	0.000000
35.397659	14.713318	20.706665	1.456250	-1.671641	2.389777	0.000000	-0.212356	0.000000	0.000007	-0.000001	0.000000	0.000000
35.838619	13.628713	21.969678	1.012727	-1.181695	2.310958	0.000000	-0.145474	0.000000	0.000007	-0.000001	0.000000	0.000000
36.279579	12.913456	22.775148	0.615472	-0.637982	2.261238	0.000000	-0.080250	0.000000	0.000007	-0.000001	0.000000	0.000000
36.721789	12.534176	23.086730	0.276967	-0.121907	2.240024	0.000000	-0.021432	0.000000	0.000006	-0.000001	0.000000	0.000000
37.019112	12.377073	23.163108	0.251426	-0.134977	2.233652	0.000000	-0.021432	0.000000	0.000006	-0.000001	0.000000	0.000000
37.352445	12.219000	23.257977	0.222792	-0.149630	2.226508	0.000000	-0.021432	0.000000	0.000006	-0.000001	0.000000	0.000000
37.685779	12.080017	23.362614	0.194158	-0.164283	2.219364	0.000000	-0.021432	0.000000	0.000006	-0.000001	0.000000	0.000000
38.020362	11.959709	23.477468	0.165417	-0.178991	2.212193	0.000000	-0.021432	0.000000	0.000006	-0.000001	0.000000	0.000000
38.317684	11.868939	23.587789	0.168981	-0.249902	2.205821	0.000000	-0.026841	0.000000	0.000006	-0.000001	0.000000	0.000000
38.758644	11.871258	23.546927	-0.174260	0.342217	2.207913	0.000000	0.036341	0.000000	0.000005	-0.000000	0.000000	0.000000
39.199604	12.178640	22.988760	-0.525461	0.918765	2.237931	0.000000	0.099936	0.000000	0.000005	-0.000000	0.000000	0.000000
39.640564	12.805130	21.938686	-0.900670	1.453510	2.296216	0.000000	0.164670	0.000000	0.000005	-0.000000	0.000000	0.000000
40.081524	13.779350	20.444481	-1.317027	1.922122	2.383432	0.000000	0.231280	0.000000	0.000005	0.000000	0.000000	0.000000
40.527484	15.163380	18.551562	-1.797382	2.304559	2.502045	0.000000	0.300929	0.000000	0.000005	0.000000	0.000000	0.000000
41.076544	16.929658	16.424437	-1.400487	1.592430	2.646741	0.000000	0.225366	0.000000	0.000005	-0.000000	0.000000	0.000000
41.625604	18.202864	15.012814	-0.904669	0.993726	2.748789	0.000000	0.145805	0.000000	0.000005	-0.000000	0.000000	0.000000
42.174664	18.893065	14.216147	-0.344949	0.465804	2.806378	0.000000	0.063659	0.000000	0.000005	-0.000000	0.000000	0.000000
42.723724	18.951509	13.977691	0.239136	-0.028941	2.818487	0.000000	-0.019617	0.000000	0.000005	-0.000001	0.000000	0.000000
43.022297	18.843151	13.979543	0.173300	-0.013783	2.814829	0.000000	-0.012253	0.000000	0.000005	-0.000000	0.000000	0.000000
43.502297	18.689377	14.009259	0.147061	-0.048126	2.808947	0.000000	-0.012253	0.000000	0.000004	-0.000000	0.000000	0.000000
43.982297	18.560793	14.071944	0.120823	-0.082468	2.803066	0.000000	-0.012253	0.000000	0.000004	-0.000000	0.000000	0.000000
44.462297	18.457397	14.167598	0.094584	-0.116810	2.797184	0.000000	-0.012253	0.000000	0.000004	-0.000000	0.000000	0.000000
44.942297	18.379191	14.296220	0.068346	-0.151153	2.791303	0.000000	-0.012253	0.000000	0.000004	-0.000000	0.000000	0.000000
45.423547	18.326295	14.458096	-0.048760	-0.113950	2.785424	0.000000	0.001547	0.000000	0.000003	-0.000000	0.000000	0.000000
45.720870	18.360125	14.532050	-0.112992	-0.096813	2.785884	0.000000	0.008826	0.000000	0.000003	-0.000000	0.000000	0.000000
46.269930	18.175052	14.919455	0.448068	-0.612930	2.768157	0.000000	-0.073302	0.000000	0.000003	-0.000001	0.000000	0.000000
46.818990	17.387680	15.894123	0.977479	-1.172705	2.705628	0.000000	-0.154131	0.000000	0.000003	-0.000001	0.000000	0.000000
47.368050	16.053625	17.525477	1.437846	-1.816009	2.599406	0.000000	-0.232225	0.000000	0.000002	-0.000001	0.000000	0.000000
47.917110	14.267116	19.929714	1.796650	-2.588663	2.451375	0.000000	-0.306200	0.000000	0.000002	-0.000001	0.000000	0.000000
48.363070	12.876818	22.067330	1.331936	-2.184476	2.330115	0.000000	-0.237900	0.000000	0.000002	-0.000001	0.000000	0.000000
48.804030	11.882355	23.778878	0.931842	-1.682168	2.239671	0.000000	-0.172707	0.000000	0.000001	-0.000001	0.000000	0.000000
49.244990	11.220707	25.011861	0.574322	-1.103324	2.177513	0.000000	-0.109480	0.000000	0.000001	-0.000001	0.000000	0.000000
49.685950	10.861645	25.710178	0.243040	-0.474278	2.142935	0.000000	-0.047501	0.000000	0.000001	-0.000001	0.000000	0.000000
50.128160	10.788891	25.841773	-0.050796	0.112925	2.135553	0.000000	0.008701	0.000000	0.000000	-0.000001	0.000000	0.000000
50.425482	10.827312	25.778087	-0.078425	0.101273	2.138141	0.000000	0.008701	0.000000	0.000000	-0.000001	0.000000	0.000000
50.758816	10.889920	25.714926	-0.109401	0.088209	2.141041	0.000000	0.008701	0.000000	-0.000000	-0.000001	0.000000	0.000000
51.092149	10.973180	25.660475	-0.140377	0.075146	2.143941	0.000000	0.008701	0.000000	-0.000000	-0.000001	0.000000	0.000000
51.426732	11.077293	25.615096	-0.081602	-0.145769	2.146831	0.000000	-0.008716	0.000000	-0.000001	-0.000001	0.000000	0.000000
51.724055	11.133851	25.705301	-0.081318	-0.220660	2.144240	0.000000	-0.013974	0.000000	-0.000001	-0.000001	0.000000	0.000000
52.165015	11.350927	25.613937	-0.412830	0.427066	2.151666	0.000000	0.047689	0.000000	-0.000001	-0.000001	0.000000	0.000000
52.605975	11.867551	24.957750	-0.763203	1.055360	2.186378	0.000000	0.109895	0.000000	-0.000001	-0.000001	0.000000	0.000000
53.046935	12.707325	23.766595	-1.148444	1.635637	2.248769	0.000000	0.173353	0.000000	-0.000002	-0.000001	0.000000	0.000000
53.487895	13.908616	22.094669	-1.586155	2.141494	2.339551	0.000000	0.238785	0.000000	-0.000002	-0.000001	0.000000	0.000000
53.933855	15.546900	19.993045	-2.100565	2.551250	2.461262	0.000000	0.307336	0.000000	-0.000002	-0.000001	0.000000	0.000000
54.482915	17.656122	17.628218	-1.718210	1.781221	2.609829	0.000000	0.233032	0.000000	-0.000003	-0.000001	0.000000	0.000000
55.031975	19.275939	16.034761	-1.214490	1.138064	2.716401	0.000000	0.154594	0.000000	-0.000003	-0.000001	0.000000	0.000000
55.581035	20.291935	15.099176	-0.624984	0.575969	2.779088	0.000000	0.073414	0.000000	-0.000004	-0.000001	0.000000	0.000000
56.130095	20.632345	14.754824	0.008667	0.054900	2.796780	0.000000	-0.009068	0.000000	-0.000004	-0.000000	0.000000	0.000000
56.428668	20.663691	14.705113	-0.059744	0.073040	2.796254	0.000000	-0.001760	0.000000	-0.000004	-0.000000	0.000000	0.000000
56.762001	20.708916	14.664016	-0.075932	0.050252	2.795668	0.000000	-0.001760	0.000000	-0.000004	-0.000000	0.000000	0.000000
57.095334	20.764934	14.638111	-0.092121	0.027463	2.795081	0.000000	-0.001760	0.000000	-0.000004	-0.000000	0.000000	0.000000
57.429918	20.832015	14.627387	-0.108371	0.004589	2.794492	0.000000	-0.001760	0.000000	-0.000004	-0.000000	0.000000	0.000000
57.727240	20.900751	14.630702	-0.177423	0.022490	2.793969	0.000000	0.005540	0.000000	-0.000005	-0.000000	0.000000	0.000000
58.276300	20.738991	14.886978	0.470292	-0.491999	2.774372	0.000000	-0.076820	0.000000	-0.000005	-0.000000	0.000000	0.000000
58.825360	19.880073	15.724038	1.084789	-1.041533	2.709862	0.000000	-0.157817	0.000000	-0.000005	-0.000000	0.000000	0.000000
59.374420	18.384669	17.201504	1.622661	-1.665252	2.601584	0.000000	-0.236015	0.000000	-0.000005	0.000000	0.000000	0.000000
59.923480	16.358405	19.424613	2.045917	-2.407584	2.451458	0.000000	-0.310027	0.000000	-0.000005	0.000000	0.000000	0.000000
60.369440	14.772432	21.400559	1.522990	-2.004484	2.328487	0.000000	-0.241747	0.000000	-0.000005	0.000000	0.000000	0.000000
60.810400	13.631656	22.956914	1.073851	-1.511554	2.236334	0.000000	-0.176618	0.000000	-0.000005	-0.000000	0.000000	0.000000
61.251360	12.863936	24.046440	0.673774	-0.949849	2.172430	0.000000	-0.113500	0.000000	-0.000005	-0.000000	0.000000	0.000000
61.692320	12.434196	24.619566	0.304479	-0.344928	2.136046	0.000000	-0.051675	0.000000	-0.000005	-0.000000	0.000000	0.000000
62.134530	12.322854	24.649676	-0.020785	0.215183	2.126776	0.000000	0.004346	0.000000	-0.000005	-0.000000	0.000000	0.000000
62.431853	12.342390	24.525471	-0.044923	0.202562	2.128068	0.000000	0.004346	0.000000	-0.000005	-0.000000	0.000000	0.000000
62.765186	12.381360	24.395146	-0.071985	0.188413	2.129517	0.000000	0.004346	0.000000	-0.000006	-0.000000	0.000000	0.000000
63.098520	12.438371	24.274253	-0.099047	0.174264	2.130965	0.000000	0.004346	0.000000	-0.000006	-0.000000	0.000000	0.000000
63.433103	12.513738	24.162393	-0.126210	0.160062	2.132419	0.000000	0.004346	0.000000	-0.000006	-0.000000	0.000000	0.000000
63.730426	12.595965	24.070965	-0.119457	0.088409	2.133712	0.000000	-0.000887	0.000000	-0.000006	-0.000000	0.000000	0.000000
64.171386	12.861702	23.727896	-0.485463	0.686637	2.146860	0.000000	0.060578	0.000000	-0.000006	-0.000001	0.000000	0.000000
64.612346	13.458751	22.869051	-0.873648	1.253623	2.187238	0.000000	0.122734	0.000000	-0.000007	-0.000001	0.000000	0.000000
65.053306	14.414388	21.533508	-1.301748	1.763570	2.255307	0.000000	0.186287	0.000000	-0.000007	-0.000001	0.000000	0.000000
65.494266	15.772275	19.782032	-1.789321	2.193276	2.351841	0.000000	0.251962	0.000000	-0.000007	-0.000001	0.000000	0.000000
65.940226	17.617612	17.669527	-2.363335	2.523945	2.479511	0.000000	0.320908	0.000000	-0.000008	-0.000001	0.000000	0.000000
66.489286	19.983103	15.306263	-1.919420	1.805663	2.635345	0.000000	0.245895	0.000000	-0.000009	-0.000001	0.000000	0.000000
67.038346	21.783337	13.656927	-1.339927	1.215995	2.748733	0.000000	0.166520	0.000000	-0.000009	-0.000001	0.000000	0.000000
67.587406	22.891152	12.604040	-0.665788	0.712940	2.817663	0.000000	0.084192	0.000000	-0.000010	-0.000000	0.000000	0.000000
68.136466	23.228300	12.072610	0.055378	0.260666	2.840912	0.000000	0.000370	0.000000	-0.000010	-0.000000	0.000000	0.000000
68.435038	23.235313	11.906131	-0.018172	0.265368	2.843239	0.000000	0.007793	0.000000	-0.000010	-0.000000	0.000000	0.000000
68.768372	23.252211	11.739208	-0.032523	0.235400	2.845837	0.000000	0.007793	0.000000	-0.000010	-0.000000	0.000000	0.000000
69.101705	23.278677	11.592264	-0.046873	0.205432	2.848434	0.000000	0.007793	0.000000	-0.000010	-0.000000	0.000000	0.000000
69.436288	23.314862	11.464861	-0.061278	0.175351	2.851042	0.000000	0.007793	0.000000	-0.000010	-0.000000	0.000000	0.000000
69.733611	23.355107	11.368537	-0.135106	0.178327	2.853359	0.000000	0.015249	0.000000	-0.000010	-0.000000	0.000000	0.000000
70.282671	23.102361	11.400356	0.592705	-0.236622	2.838550	0.000000	-0.069113	0.000000	-0.000010	0.000000	0.000000	0.000000
