#ParticleID	Turn	x[m]	xp	y[m]	yp	z[m]	dE[GeV]# s	beta_x	beta_y	alpha_x	alpha_y	D_x	D_y	D_px	D_py	orbit_x	orbit_px	orbit_y	orbit_py
0.300000	11.805611	25.050480	-0.010276	-0.026880	2.618264	0.000000	-0.000047	0.000000	-0.000001	0.000002	0.000000	0.000000
0.601250	11.819490	25.070301	-0.035796	-0.038915	2.618249	0.000000	-0.000047	0.000000	-0.000001	0.000002	0.000000	0.000000
0.898573	11.848265	25.096973	-0.031928	-0.112337	2.618235	0.000000	-0.006468	0.000000	-0.000000	0.000002	0.000000	0.000000
1.339533	12.028456	24.917635	-0.378255	0.517488	2.631676	0.000000	0.067493	0.000000	0.000000	0.000002	0.000000	0.000000
1.780493	12.520517	24.191141	-0.741863	1.123769	2.677869	0.000000	0.142221	0.000000	0.000001	0.000002	0.000000	0.000000
2.221453	13.346928	22.950548	-1.139365	1.678918	2.757340	0.000000	0.218570	0.000000	0.000002	0.000002	0.000000	0.000000
2.662413	14.545446	21.252300	-1.588921	2.157678	2.870993	0.000000	0.297408	0.000000	0.000003	0.000002	0.000000	0.000000
3.108373	16.191551	19.148763	-2.115356	2.539399	3.021986	0.000000	0.380123	0.000000	0.000004	0.000002	0.000000	0.000000
3.657433	18.302442	16.786136	-1.706438	1.789042	3.205423	0.000000	0.287085	0.000000	0.000005	0.000002	0.000000	0.000000
4.206493	19.895042	15.173099	-1.176985	1.166114	3.336303	0.000000	0.188956	0.000000	0.000006	0.000002	0.000000	0.000000
4.755553	20.856859	14.194761	-0.564396	0.626246	3.412302	0.000000	0.087475	0.000000	0.000006	0.000001	0.000000	0.000000
5.304613	21.119955	13.781437	0.088059	0.130983	3.432074	0.000000	-0.015558	0.000000	0.000007	0.000001	0.000000	0.000000
5.603185	21.104547	13.688369	0.018727	0.144720	3.430105	0.000000	-0.006591	0.000000	0.000007	0.000001	0.000000	0.000000
5.936519	21.097328	13.600176	0.002927	0.119859	3.427908	0.000000	-0.006591	0.000000	0.000008	0.000001	0.000000	0.000000
6.269852	21.100644	13.528557	-0.012873	0.094997	3.425711	0.000000	-0.006591	0.000000	0.000008	0.000001	0.000000	0.000000
6.604435	21.114564	13.473337	-0.028732	0.070042	3.423505	0.000000	-0.006591	0.000000	0.000009	0.000001	0.000000	0.000000
6.901758	21.135839	13.438280	-0.098045	0.082976	3.421545	0.000000	0.002348	0.000000	0.000009	0.000001	0.000000	0.000000
7.450818	20.883315	13.608100	0.555243	-0.394094	3.394634	0.000000	-0.100228	0.000000	0.000010	0.000001	0.000000	0.000000
7.999878	19.930793	14.314048	1.169311	-0.899234	3.311808	0.000000	-0.201026	0.000000	0.000010	0.000001	0.000000	0.000000
8.548938	18.345555	15.606407	1.700784	-1.468425	3.174538	0.000000	-0.298258	0.000000	0.000010	0.000000	0.000000	0.000000
9.097998	16.239573	17.577228	2.112123	-2.142208	2.985257	0.000000	-0.390200	0.000000	0.000011	-0.000000	0.000000	0.000000
9.543958	14.596563	19.333303	1.585184	-1.778888	2.829549	0.000000	-0.308499	0.000000	0.000011	0.000000	0.000000	0.000000
9.984918	13.401626	20.712031	1.134951	-1.335866	2.710758	0.000000	-0.230796	0.000000	0.000011	0.000001	0.000000	0.000000
10.425878	12.579478	21.671653	0.736571	-0.832063	2.625619	0.000000	-0.155721	0.000000	0.000011	0.000001	0.000000	0.000000
10.866838	12.092559	22.168506	0.371843	-0.290402	2.573163	0.000000	-0.082420	0.000000	0.000011	0.000001	0.000000	0.000000
11.309048	11.918490	22.179458	0.053223	0.210028	2.552772	0.000000	-0.016317	0.000000	0.000012	0.000001	0.000000	0.000000
11.606371	11.894279	22.058727	0.028206	0.196031	2.547920	0.000000	-0.016317	0.000000	0.000012	0.000001	0.000000	0.000000
12.086371	11.886587	21.881384	-0.012182	0.173435	2.540088	0.000000	-0.016317	0.000000	0.000013	0.000001	0.000000	0.000000
12.566371	11.917668	21.725732	-0.052569	0.150839	2.532255	0.000000	-0.016317	0.000000	0.000014	0.000001	0.000000	0.000000
13.046371	11.987520	21.591774	-0.092957	0.128242	2.524422	0.000000	-0.016317	0.000000	0.000014	0.000001	0.000000	0.000000
13.526371	12.096145	21.479507	-0.133345	0.105646	2.516589	0.000000	-0.016317	0.000000	0.000015	0.000001	0.000000	0.000000
14.007621	12.243976	21.388726	-0.173837	0.082991	2.508735	0.000000	-0.016317	0.000000	0.000016	0.000001	0.000000	0.000000
14.304943	12.354786	21.343537	-0.168561	0.016662	2.503884	0.000000	-0.022457	0.000000	0.000016	0.000001	0.000000	0.000000
14.745903	12.661935	21.095254	-0.530625	0.544247	2.509610	0.000000	0.048456	0.000000	0.000017	0.000002	0.000000	0.000000
15.186863	13.297838	20.390866	-0.916932	1.047070	2.546697	0.000000	0.119921	0.000000	0.000018	0.000002	0.000000	0.000000
15.627823	14.291548	19.262423	-1.345131	1.502251	2.615569	0.000000	0.192751	0.000000	0.000019	0.000003	0.000000	0.000000
16.068783	15.688466	17.761268	-1.834785	1.889082	2.717008	0.000000	0.267777	0.000000	0.000020	0.000003	0.000000	0.000000
16.514743	17.576073	15.934203	-2.413024	2.190703	2.853865	0.000000	0.346315	0.000000	0.000022	0.000004	0.000000	0.000000
17.063803	20.000532	13.894182	-1.976488	1.546706	3.020286	0.000000	0.259000	0.000000	0.000023	0.000003	0.000000	0.000000
17.612863	21.865656	12.497064	-1.400342	1.012877	3.137432	0.000000	0.167092	0.000000	0.000025	0.000002	0.000000	0.000000
18.161923	23.039702	11.643334	-0.725282	0.551194	3.203226	0.000000	0.072220	0.000000	0.000026	0.000001	0.000000	0.000000
18.710983	23.439741	11.272183	0.001007	0.128771	3.216501	0.000000	-0.023933	0.000000	0.000026	0.000001	0.000000	0.000000
19.009556	23.479520	11.185811	-0.073007	0.131066	3.211864	0.000000	-0.015531	0.000000	0.000026	0.000001	0.000000	0.000000
19.342889	23.532949	11.108538	-0.087279	0.100754	3.206686	0.000000	-0.015531	0.000000	0.000027	0.000001	0.000000	0.000000
19.676223	23.595893	11.051472	-0.101552	0.070443	3.201509	0.000000	-0.015531	0.000000	0.000027	0.000001	0.000000	0.000000
20.010806	23.668934	11.014378	-0.233147	0.094589	3.196332	0.000000	0.000305	0.000000	0.000027	0.000001	0.000000	0.000000
20.308129	23.811512	10.966228	-0.308592	0.096000	3.196423	0.000000	0.008655	0.000000	0.000027	0.000001	0.000000	0.000000
20.857189	23.739684	11.082744	0.438638	-0.309461	3.174961	0.000000	-0.086715	0.000000	0.000027	-0.000000	0.000000	0.000000
21.406249	22.859533	11.653923	1.154885	-0.736965	3.101482	0.000000	-0.180547	0.000000	0.000027	-0.000001	0.000000	0.000000
21.955309	21.233230	12.720451	1.789557	-1.216961	2.977289	0.000000	-0.271176	0.000000	0.000026	-0.000002	0.000000	0.000000
22.504369	18.975647	14.358294	2.297823	-1.783639	2.804584	0.000000	-0.356995	0.000000	0.000025	-0.000003	0.000000	0.000000
22.950329	17.196379	15.828871	1.706006	-1.500001	2.662669	0.000000	-0.279802	0.000000	0.000024	-0.000002	0.000000	0.000000
23.391289	15.921182	17.001422	1.196829	-1.148966	2.555607	0.000000	-0.206249	0.000000	0.000023	-0.000001	0.000000	0.000000
23.832249	15.069321	17.840066	0.742331	-0.745655	2.480430	0.000000	-0.135046	0.000000	0.000023	-0.000001	0.000000	0.000000
24.273209	14.601878	18.306644	0.321748	-0.308416	2.436282	0.000000	-0.065381	0.000000	0.000023	-0.000000	0.000000	0.000000
24.715418	14.497617	18.379685	-0.048676	0.097723	2.422658	0.000000	-0.002400	0.000000	0.000023	0.000000	0.000000	0.000000
25.012741	14.532674	18.326430	-0.069233	0.081392	2.421944	0.000000	-0.002400	0.000000	0.000023	0.000000	0.000000	0.000000
25.346075	14.586512	18.278272	-0.092280	0.063082	2.421144	0.000000	-0.002400	0.000000	0.000023	0.000000	0.000000	0.000000
25.679408	14.655714	18.242320	-0.115327	0.044773	2.420344	0.000000	-0.002400	0.000000	0.000023	0.000000	0.000000	0.000000
26.013991	14.740328	18.218878	-0.018877	-0.121405	2.419516	0.000000	-0.022029	0.000000	0.000023	0.000000	0.000000	0.000000
26.311314	14.757552	18.295994	-0.002873	-0.182822	2.412967	0.000000	-0.027945	0.000000	0.000023	0.000000	0.000000	0.000000
26.752274	14.941889	18.258832	-0.416748	0.266778	2.415751	0.000000	0.040586	0.000000	0.000023	0.000001	0.000000	0.000000
27.193234	15.498215	17.829015	-0.849663	0.704241	2.448828	0.000000	0.109580	0.000000	0.000024	0.000001	0.000000	0.000000
27.634194	16.451948	17.026102	-1.321397	1.109661	2.512573	0.000000	0.179821	0.000000	0.000024	0.000002	0.000000	0.000000
28.075154	17.846662	15.886622	-1.853502	1.464592	2.607714	0.000000	0.252110	0.000000	0.000025	0.000003	0.000000	0.000000
28.521114	19.770303	14.445256	-2.475260	1.753798	2.736936	0.000000	0.327714	0.000000	0.000027	0.000003	0.000000	0.000000
29.070174	22.215250	12.839371	-1.951346	1.188254	2.894211	0.000000	0.244336	0.000000	0.000028	0.000002	0.000000	0.000000
29.619234	24.005322	11.804680	-1.289599	0.707347	3.004448	0.000000	0.156625	0.000000	0.000029	0.000001	0.000000	0.000000
30.168294	25.014075	11.267482	-0.536761	0.276823	3.065693	0.000000	0.066135	0.000000	0.000030	0.000000	0.000000	0.000000
30.717354	25.170257	11.189515	0.253992	-0.133984	3.076857	0.000000	-0.025527	0.000000	0.000030	-0.000001	0.000000	0.000000
31.015927	25.061516	11.260124	0.175960	-0.131731	3.071635	0.000000	-0.017490	0.000000	0.000029	-0.000000	0.000000	0.000000
31.349260	24.948780	11.357983	0.162248	-0.161848	3.065805	0.000000	-0.017490	0.000000	0.000029	-0.000000	0.000000	0.000000
31.682593	24.845186	11.475920	0.148535	-0.191964	3.059976	0.000000	-0.017490	0.000000	0.000029	-0.000000	0.000000	0.000000
32.017177	24.750396	11.614491	0.134772	-0.222194	3.054124	0.000000	-0.017490	0.000000	0.000029	-0.000000	0.000000	0.000000
32.314499	24.673891	11.754604	0.058088	-0.218352	3.048924	0.000000	-0.009526	0.000000	0.000029	-0.000000	0.000000	0.000000
32.863559	24.187333	12.233560	0.822832	-0.659117	3.018818	0.000000	-0.099976	0.000000	0.000028	-0.000001	0.000000	0.000000
33.412619	22.888095	13.219315	1.529454	-1.146829	2.939465	0.000000	-0.188654	0.000000	0.000027	-0.000002	0.000000	0.000000
33.961679	20.867948	14.782081	2.128044	-1.716228	2.812271	0.000000	-0.273985	0.000000	0.000026	-0.000003	0.000000	0.000000
34.510739	18.269587	17.033171	2.576319	-2.407869	2.639492	0.000000	-0.354456	0.000000	0.000024	-0.000004	0.000000	0.000000
34.956699	16.249209	19.046718	1.970311	-2.088362	2.497758	0.000000	-0.281543	0.000000	0.000022	-0.000003	0.000000	0.000000
35.397659	14.742584	20.712363	1.459340	-1.674580	2.388989	0.000000	-0.212264	0.000000	0.000021	-0.000003	0.000000	0.000000
35.838619	13.655604	21.977966	1.015042	-1.184605	2.310206	0.000000	-0.145402	0.000000	0.000020	-0.000002	0.000000	0.000000
36.279579	12.938606	22.785942	0.617119	-0.640732	2.260514	0.000000	-0.080197	0.000000	0.000019	-0.000002	0.000000	0.000000
36.721789	12.558137	23.099839	0.278075	-0.124398	2.239320	0.000000	-0.021396	0.000000	0.000019	-0.000001	0.000000	0.000000
37.019112	12.400365	23.177698	0.252568	-0.137468	2.232959	0.000000	-0.021396	0.000000	0.000018	-0.000001	0.000000	0.000000
37.352445	12.241518	23.274228	0.223973	-0.152122	2.225827	0.000000	-0.021396	0.000000	0.000018	-0.000001	0.000000	0.000000
37.685779	12.101735	23.380527	0.195377	-0.166775	2.218696	0.000000	-0.021396	0.000000	0.000017	-0.000001	0.000000	0.000000
38.020362	11.980599	23.497048	0.166674	-0.181483	2.211538	0.000000	-0.021396	0.000000	0.000017	-0.000001	0.000000	0.000000
38.317684	11.889071	23.608853	0.170319	-0.252441	2.205177	0.000000	-0.026802	0.000000	0.000017	-0.000001	0.000000	0.000000
38.758644	11.890409	23.569975	-0.173367	0.340271	2.207283	0.000000	0.036363	0.000000	0.000016	-0.000001	0.000000	0.000000
39.199604	12.197185	23.013230	-0.524972	0.917500	2.237307	0.000000	0.099943	0.000000	0.000016	-0.000000	0.000000	0.000000
39.640564	12.823413	21.963948	-0.900562	1.452985	2.295592	0.000000	0.164661	0.000000	0.000016	-0.000000	0.000000	0.000000
40.081524	13.797704	20.469870	-1.317297	1.922359	2.382800	0.000000	0.231254	0.000000	0.000016	0.000000	0.000000	0.000000
40.527484	15.182148	18.576399	-1.798043	2.305554	2.501397	0.000000	0.300886	0.000000	0.000016	0.000001	0.000000	0.000000
41.076544	16.948755	16.448547	-1.400422	1.592766	2.646076	0.000000	0.225344	0.000000	0.000016	0.000000	0.000000	0.000000
41.625604	18.221491	15.036904	-0.903882	0.993427	2.748118	0.000000	0.145806	0.000000	0.000016	-0.000000	0.000000	0.000000
42.174664	18.910455	14.240923	-0.343497	0.464847	2.805713	0.000000	0.063681	0.000000	0.000016	-0.000001	0.000000	0.000000
42.723724	18.966984	14.003906	0.241151	-0.030623	2.817840	0.000000	-0.019574	0.000000	0.000015	-0.000001	0.000000	0.000000
43.022297	18.857443	14.006712	0.175281	-0.015359	2.814194	0.000000	-0.012212	0.000000	0.000015	-0.000001	0.000000	0.000000
43.502297	18.701768	14.037910	0.149044	-0.049636	2.808333	0.000000	-0.012212	0.000000	0.000014	-0.000001	0.000000	0.000000
43.982297	18.571278	14.102013	0.122808	-0.083914	2.802472	0.000000	-0.012212	0.000000	0.000014	-0.000001	0.000000	0.000000
44.462297	18.465976	14.199024	0.096572	-0.118191	2.796610	0.000000	-0.012212	0.000000	0.000013	-0.000001	0.000000	0.000000
44.942297	18.385860	14.328940	0.070336	-0.152468	2.790749	0.000000	-0.012212	0.000000	0.000012	-0.000001	0.000000	0.000000
45.423547	18.331048	14.492050	-0.046791	-0.115032	2.784890	0.000000	0.001586	0.000000	0.000012	-0.000001	0.000000	0.000000
45.720870	18.363705	14.566634	-0.111022	-0.097764	2.785361	0.000000	0.008863	0.000000	0.000012	-0.000001	0.000000	0.000000
46.269930	18.176421	14.955666	0.450102	-0.614959	2.767660	0.000000	-0.073249	0.000000	0.000011	-0.000002	0.000000	0.000000
46.818990	17.386846	15.933215	0.979433	-1.175956	2.705165	0.000000	-0.154062	0.000000	0.000010	-0.000002	0.000000	0.000000
47.368050	16.050752	17.568911	1.439582	-1.820713	2.598985	0.000000	-0.232142	0.000000	0.000009	-0.000002	0.000000	0.000000
47.917110	14.262513	19.979261	1.798046	-2.595156	2.451004	0.000000	-0.306105	0.000000	0.000007	-0.000002	0.000000	0.000000
48.363070	12.870996	22.122195	1.333283	-2.189859	2.329785	0.000000	-0.237814	0.000000	0.000006	-0.000002	0.000000	0.000000
48.804030	11.875343	23.837911	0.933204	-1.686201	2.239377	0.000000	-0.172628	0.000000	0.000005	-0.000002	0.000000	0.000000
49.244990	11.212464	25.073784	0.575761	-1.105822	2.177254	0.000000	-0.109409	0.000000	0.000005	-0.000002	0.000000	0.000000
49.685950	10.852074	25.773583	0.244623	-0.475129	2.142706	0.000000	-0.047436	0.000000	0.000004	-0.000002	0.000000	0.000000
50.128160	10.777832	25.905184	-0.049027	0.113607	2.135353	0.000000	0.008761	0.000000	0.000003	-0.000002	0.000000	0.000000
50.425482	10.815207	25.841084	-0.076679	0.101982	2.137958	0.000000	0.008761	0.000000	0.000002	-0.000002	0.000000	0.000000
50.758816	10.876660	25.777441	-0.107681	0.088948	2.140879	0.000000	0.008761	0.000000	0.000002	-0.000002	0.000000	0.000000
51.092149	10.958782	25.722487	-0.138683	0.075915	2.143800	0.000000	0.008761	0.000000	0.000001	-0.000002	0.000000	0.000000
51.426732	11.061772	25.676585	-0.080061	-0.145469	2.146710	0.000000	-0.008655	0.000000	0.000001	-0.000002	0.000000	0.000000
51.724055	11.117423	25.766603	-0.079849	-0.220481	2.144137	0.000000	-0.013913	0.000000	-0.000000	-0.000002	0.000000	0.000000
52.165015	11.333027	25.674365	-0.410950	0.428860	2.151591	0.000000	0.047748	0.000000	-0.000001	-0.000002	0.000000	0.000000
52.605975	11.847781	25.015911	-0.760826	1.058688	2.186328	0.000000	0.109953	0.000000	-0.000002	-0.000002	0.000000	0.000000
53.046935	12.685200	23.821198	-1.145462	1.640347	2.248745	0.000000	0.173410	0.000000	-0.000002	-0.000002	0.000000	0.000000
53.487895	13.883546	22.144586	-1.582432	2.147371	2.339553	0.000000	0.238842	0.000000	-0.000003	-0.000002	0.000000	0.000000
53.933855	15.518112	20.037294	-2.095922	2.558030	2.461290	0.000000	0.307393	0.000000	-0.000004	-0.000002	0.000000	0.000000
54.482915	17.622621	17.665993	-1.714321	1.786299	2.609887	0.000000	0.233087	0.000000	-0.000005	-0.000002	0.000000	0.000000
55.031975	19.238709	16.067724	-1.211629	1.141803	2.716490	0.000000	0.154647	0.000000	-0.000006	-0.000002	0.000000	0.000000
55.581035	20.252223	15.128644	-0.623354	0.578634	2.779206	0.000000	0.073464	0.000000	-0.000007	-0.000002	0.000000	0.000000
56.130095	20.591575	14.781866	0.008952	0.056680	2.796924	0.000000	-0.009023	0.000000	-0.000008	-0.000001	0.000000	0.000000
56.428668	20.622697	14.731040	-0.059382	0.074923	2.796412	0.000000	-0.001714	0.000000	-0.000008	-0.000001	0.000000	0.000000
56.762001	20.667691	14.688676	-0.075603	0.052168	2.795841	0.000000	-0.001714	0.000000	-0.000009	-0.000001	0.000000	0.000000
57.095334	20.723500	14.661482	-0.091823	0.029413	2.795270	0.000000	-0.001714	0.000000	-0.000009	-0.000001	0.000000	0.000000
57.429918	20.790392	14.649442	-0.108104	0.006573	2.794697	0.000000	-0.001714	0.000000	-0.000010	-0.000001	0.000000	0.000000
57.727240	20.858978	14.651568	-0.177078	0.024561	2.794188	0.000000	0.005587	0.000000	-0.000010	-0.000001	0.000000	0.000000
58.276300	20.697607	14.905886	0.469240	-0.490485	2.774615	0.000000	-0.076780	0.000000	-0.000011	-0.000001	0.000000	0.000000
58.825360	19.840584	15.741538	1.082412	-1.040467	2.710125	0.000000	-0.157786	0.000000	-0.000011	-0.000001	0.000000	0.000000
59.374420	18.348444	17.218044	1.619128	-1.664559	2.601862	0.000000	-0.235993	0.000000	-0.000011	-0.000000	0.000000	0.000000
59.923480	16.326584	19.440573	2.041477	-2.407214	2.451746	0.000000	-0.310014	0.000000	-0.000011	0.000000	0.000000	0.000000
60.369440	14.744133	21.415932	1.519502	-2.003542	2.328783	0.000000	-0.241727	0.000000	-0.000011	-0.000000	0.000000	0.000000
60.810400	13.606078	22.971221	1.071148	-1.510088	2.236641	0.000000	-0.176589	0.000000	-0.000012	-0.000000	0.000000	0.000000
61.251360	12.840442	24.059247	0.671731	-0.947926	2.172751	0.000000	-0.113464	0.000000	-0.000012	-0.000001	0.000000	0.000000
61.692320	12.412247	24.630506	0.303004	-0.342634	2.136386	0.000000	-0.051630	0.000000	-0.000012	-0.000001	0.000000	0.000000
62.134530	12.301984	24.658463	-0.021810	0.217716	2.127137	0.000000	0.004399	0.000000	-0.000013	-0.000001	0.000000	0.000000
62.431853	12.322143	24.532754	-0.045990	0.205087	2.128446	0.000000	0.004399	0.000000	-0.000013	-0.000001	0.000000	0.000000
62.765186	12.361839	24.400749	-0.073099	0.190928	2.129912	0.000000	0.004399	0.000000	-0.000014	-0.000001	0.000000	0.000000
63.098520	12.419608	24.278183	-0.100207	0.176769	2.131379	0.000000	0.004399	0.000000	-0.000014	-0.000001	0.000000	0.000000
63.433103	12.495767	24.164650	-0.127418	0.162558	2.132851	0.000000	0.004399	0.000000	-0.000015	-0.000001	0.000000	0.000000
63.730426	12.578725	24.071740	-0.120747	0.090889	2.134159	0.000000	-0.000836	0.000000	-0.000015	-0.000001	0.000000	0.000000
64.171386	12.845438	23.726495	-0.486394	0.689072	2.147333	0.000000	0.060642	0.000000	-0.000016	-0.000002	0.000000	0.000000
64.612346	13.443165	22.865563	-0.874263	1.255903	2.187743	0.000000	0.122810	0.000000	-0.000017	-0.000002	0.000000	0.000000
65.053306	14.399215	21.528116	-1.302074	1.765592	2.255849	0.000000	0.186376	0.000000	-0.000018	-0.000003	0.000000	0.000000
65.494266	15.757267	19.775006	-1.789373	2.194947	2.352426	0.000000	0.252066	0.000000	-0.000019	-0.000003	0.000000	0.000000
65.940226	17.602528	17.661198	-2.363115	2.525185	2.480147	0.000000	0.321028	0.000000	-0.000020	-0.000004	0.000000	0.000000
66.489286	19.968124	15.296574	-1.919832	1.806914	2.636042	0.000000	0.245993	0.000000	-0.000022	-0.000003	0.000000	0.000000
67.038346	21.769145	13.645820	-1.340942	1.217344	2.749478	0.000000	0.166595	0.000000	-0.000023	-0.000002	0.000000	0.000000
67.587406	22.878374	12.591355	-0.667334	0.714484	2.818443	0.000000	0.084242	0.000000	-0.000024	-0.000001	0.000000	0.000000
68.136466	23.217463	12.058073	0.053410	0.262514	2.841713	0.000000	0.000394	0.000000	-0.000025	-0.000001	0.000000	0.000000
68.435038	23.225641	11.890529	-0.020126	0.267124	2.844048	0.000000	0.007821	0.000000	-0.000025	-0.000001	0.000000	0.000000
68.768372	23.243844	11.722457	-0.034484	0.237090	2.846655	0.000000	0.007821	0.000000	-0.000025	-0.000001	0.000000	0.000000
69.101705	23.271619	11.574408	-0.048842	0.207057	2.849262	0.000000	0.007821	0.000000	-0.000026	-0.000001	0.000000	0.000000
69.436288	23.309124	11.445939	-0.063253	0.176910	2.851879	0.000000	0.007821	0.000000	-0.000026	-0.000001	0.000000	0.000000
69.733611	23.350545	11.348706	-0.137084	0.179779	2.854204	0.000000	0.015280	0.000000	-0.000026	-0.000001	0.000000	0.000000
70.282671	23.100036	11.378620	0.590634	-0.234584	2.839405	0.000000	-0.069110	0.000000	-0.000026	0.000000	0.000000	0.000000
