#ParticleID	Turn	x[m]	xp	y[m]	yp	z[m]	dE[GeV]# s	beta_x	beta_y	alpha_x	alpha_y	D_x	D_y	D_px	D_py	orbit_x	orbit_px	orbit_y	orbit_py
0.300000	11.828923	24.958443	-0.012955	-0.027724	2.618228	0.000000	-0.000032	0.000000	0.000000	0.000000	0.000000	0.000000
0.601250	11.844401	24.978786	-0.038427	-0.039803	2.618219	0.000000	-0.000032	0.000000	0.000000	0.000000	0.000000	0.000000
0.898573	11.874726	25.006000	-0.034446	-0.113047	2.618209	0.000000	-0.006453	0.000000	0.000000	0.000000	0.000000	0.000000
1.339533	12.057423	24.828348	-0.381441	0.514390	2.631657	0.000000	0.067507	0.000000	0.000000	0.000000	0.000000	0.000000
1.780493	12.552640	24.105593	-0.745863	1.118422	2.677857	0.000000	0.142235	0.000000	0.000000	0.000000	0.000000	0.000000
2.221453	13.383004	22.870620	-1.144361	1.671567	2.757335	0.000000	0.218584	0.000000	0.000001	0.000000	0.000000	0.000000
2.662413	14.586450	21.179619	-1.595142	2.148657	2.870995	0.000000	0.297421	0.000000	0.000001	0.000000	0.000000	0.000000
3.108373	16.238759	19.084727	-2.123099	2.529115	3.021995	0.000000	0.380136	0.000000	0.000001	0.000000	0.000000	0.000000
3.657433	18.357529	16.731953	-1.712961	1.781273	3.205441	0.000000	0.287099	0.000000	0.000001	0.000000	0.000000	0.000000
4.206493	19.956407	15.126327	-1.181828	1.160307	3.336328	0.000000	0.188969	0.000000	0.000001	0.000000	0.000000	0.000000
4.755553	20.922456	14.153483	-0.567217	0.621987	3.412335	0.000000	0.087487	0.000000	0.000001	0.000000	0.000000	0.000000
5.304613	21.187441	13.744128	0.087460	0.127969	3.432113	0.000000	-0.015547	0.000000	0.000001	0.000000	0.000000	0.000000
5.603185	21.172483	13.652929	0.017995	0.141573	3.430149	0.000000	-0.006580	0.000000	0.000001	0.000000	0.000000	0.000000
5.936519	21.165736	13.566848	0.002246	0.116669	3.427956	0.000000	-0.006580	0.000000	0.000001	0.000000	0.000000	0.000000
6.269852	21.169489	13.497370	-0.013503	0.091765	3.425762	0.000000	-0.006580	0.000000	0.000001	0.000000	0.000000	0.000000
6.604435	21.183813	13.444328	-0.029311	0.066767	3.423561	0.000000	-0.006580	0.000000	0.000001	0.000000	0.000000	0.000000
6.901758	21.205419	13.411230	-0.098763	0.079594	3.421604	0.000000	0.002360	0.000000	0.000002	0.000000	0.000000	0.000000
7.450818	20.952402	13.584360	0.556855	-0.396775	3.394700	0.000000	-0.100218	0.000000	0.000002	0.000000	0.000000	0.000000
7.999878	19.996874	14.292956	1.173141	-0.901405	3.311880	0.000000	-0.201018	0.000000	0.000002	0.000000	0.000000	0.000000
8.548938	18.406329	15.587491	1.706561	-1.470241	3.174613	0.000000	-0.298252	0.000000	0.000002	0.000000	0.000000	0.000000
9.097998	16.293116	17.560171	2.119439	-2.143798	2.985334	0.000000	-0.390197	0.000000	0.000002	-0.000000	0.000000	0.000000
9.543958	14.644311	19.317988	1.590911	-1.781191	2.829628	0.000000	-0.308494	0.000000	0.000002	-0.000000	0.000000	0.000000
9.984918	13.444918	20.699021	1.139365	-1.338770	2.710840	0.000000	-0.230789	0.000000	0.000002	0.000000	0.000000	0.000000
10.425878	12.619381	21.661422	0.739873	-0.835437	2.625705	0.000000	-0.155712	0.000000	0.000002	0.000000	0.000000	0.000000
10.866838	12.129984	22.161401	0.374183	-0.294092	2.573255	0.000000	-0.082409	0.000000	0.000002	0.000000	0.000000	0.000000
11.309048	11.954229	22.175695	0.054800	0.206194	2.552870	0.000000	-0.016304	0.000000	0.000002	0.000000	0.000000	0.000000
11.606371	11.929060	22.057239	0.029853	0.192216	2.548022	0.000000	-0.016304	0.000000	0.000002	0.000000	0.000000	0.000000
12.086371	11.919732	21.883542	-0.010420	0.169651	2.540196	0.000000	-0.016304	0.000000	0.000002	0.000000	0.000000	0.000000
12.566371	11.949067	21.731509	-0.050694	0.147085	2.532370	0.000000	-0.016304	0.000000	0.000002	0.000000	0.000000	0.000000
13.046371	12.017065	21.601139	-0.090968	0.124520	2.524544	0.000000	-0.016304	0.000000	0.000002	0.000000	0.000000	0.000000
13.526371	12.123725	21.492431	-0.131242	0.101954	2.516717	0.000000	-0.016304	0.000000	0.000002	0.000000	0.000000	0.000000
14.007621	12.269478	21.405188	-0.171620	0.079330	2.508871	0.000000	-0.016304	0.000000	0.000002	0.000000	0.000000	0.000000
14.304943	12.378948	21.362171	-0.166211	0.012967	2.504023	0.000000	-0.022445	0.000000	0.000002	0.000000	0.000000	0.000000
14.745903	12.684239	21.116901	-0.528749	0.541135	2.509756	0.000000	0.048472	0.000000	0.000002	0.000000	0.000000	0.000000
15.186863	13.318663	20.414948	-0.915444	1.044682	2.546852	0.000000	0.119940	0.000000	0.000002	0.000000	0.000000	0.000000
15.627823	14.311206	19.288250	-1.343963	1.500697	2.615734	0.000000	0.192775	0.000000	0.000003	0.000000	0.000000	0.000000
16.068783	15.707213	17.788071	-1.833883	1.888431	2.717186	0.000000	0.267805	0.000000	0.000003	0.000000	0.000000	0.000000
16.514743	17.594118	15.961167	-2.412347	2.190992	2.854058	0.000000	0.346347	0.000000	0.000003	0.000000	0.000000	0.000000
17.063803	20.017348	13.921143	-1.974941	1.546424	3.020496	0.000000	0.259026	0.000000	0.000003	0.000000	0.000000	0.000000
17.612863	21.880342	12.524656	-1.398035	1.012003	3.137655	0.000000	0.167111	0.000000	0.000003	0.000000	0.000000	0.000000
18.161923	23.051509	11.672237	-0.722379	0.549666	3.203459	0.000000	0.072232	0.000000	0.000004	0.000000	0.000000	0.000000
18.710983	23.448124	11.303171	0.004303	0.126480	3.216739	0.000000	-0.023929	0.000000	0.000004	0.000000	0.000000	0.000000
19.009556	23.485952	11.218088	-0.069736	0.128954	3.212103	0.000000	-0.015525	0.000000	0.000004	0.000000	0.000000	0.000000
19.342889	23.537197	11.142188	-0.083998	0.098746	3.206929	0.000000	-0.015525	0.000000	0.000004	0.000000	0.000000	0.000000
19.676223	23.597949	11.086427	-0.098259	0.068538	3.201754	0.000000	-0.015525	0.000000	0.000004	0.000000	0.000000	0.000000
20.010806	23.668784	11.050572	-0.229843	0.092968	3.196579	0.000000	0.000313	0.000000	0.000004	0.000000	0.000000	0.000000
20.308129	23.809391	11.003358	-0.305276	0.094579	3.196672	0.000000	0.008665	0.000000	0.000004	0.000000	0.000000	0.000000
20.857189	23.733978	11.122012	0.441813	-0.311959	3.175214	0.000000	-0.086713	0.000000	0.000004	-0.000000	0.000000	0.000000
21.406249	22.850523	11.696601	1.157695	-0.740716	3.101734	0.000000	-0.180553	0.000000	0.000004	-0.000000	0.000000	0.000000
21.955309	21.221428	12.768053	1.791802	-1.222233	2.977534	0.000000	-0.271190	0.000000	0.000004	-0.000000	0.000000	0.000000
22.504369	18.961765	14.412685	2.299346	-1.790806	2.804818	0.000000	-0.357017	0.000000	0.000003	-0.000000	0.000000	0.000000
22.950329	17.181090	15.889111	1.707654	-1.505897	2.662894	0.000000	-0.279818	0.000000	0.000003	-0.000000	0.000000	0.000000
23.391289	15.904358	17.066202	1.198677	-1.153328	2.555826	0.000000	-0.206260	0.000000	0.000003	-0.000000	0.000000	0.000000
23.832249	15.050749	17.907939	0.744463	-0.748283	2.480645	0.000000	-0.135051	0.000000	0.000003	-0.000000	0.000000	0.000000
24.273209	14.581265	18.376024	0.324263	-0.309192	2.436497	0.000000	-0.065380	0.000000	0.000003	-0.000000	0.000000	0.000000
24.715418	14.474570	18.448913	-0.045716	0.098657	2.422873	0.000000	-0.002395	0.000000	0.000003	0.000000	0.000000	0.000000
25.012741	14.507874	18.395086	-0.066299	0.082384	2.422161	0.000000	-0.002395	0.000000	0.000003	0.000000	0.000000	0.000000
25.346075	14.559766	18.346244	-0.089376	0.064141	2.421363	0.000000	-0.002395	0.000000	0.000003	0.000000	0.000000	0.000000
25.679408	14.627043	18.309565	-0.112454	0.045897	2.420564	0.000000	-0.002395	0.000000	0.000003	0.000000	0.000000	0.000000
26.013991	14.709745	18.285350	-0.016282	-0.120755	2.419738	0.000000	-0.022026	0.000000	0.000003	-0.000000	0.000000	0.000000
26.311314	14.725438	18.362061	-0.000390	-0.182280	2.413189	0.000000	-0.027944	0.000000	0.000003	-0.000000	0.000000	0.000000
26.752274	14.907230	18.323631	-0.413439	0.269099	2.415976	0.000000	0.040593	0.000000	0.000003	0.000000	0.000000	0.000000
27.193234	15.460219	17.891019	-0.845376	0.708235	2.449057	0.000000	0.109592	0.000000	0.000003	0.000000	0.000000	0.000000
27.634194	16.409670	17.083909	-1.315936	1.115147	2.512810	0.000000	0.179839	0.000000	0.000003	0.000000	0.000000	0.000000
28.075154	17.798959	15.939024	-1.846618	1.471320	2.607961	0.000000	0.252135	0.000000	0.000003	0.000000	0.000000	0.000000
28.521114	19.715703	14.491212	-2.466623	1.761464	2.737197	0.000000	0.327745	0.000000	0.000003	0.000000	0.000000	0.000000
29.070174	22.151892	12.877921	-1.944128	1.194158	2.894488	0.000000	0.244359	0.000000	0.000004	0.000000	0.000000	0.000000
29.619234	23.935053	11.837517	-1.284309	0.711909	3.004736	0.000000	0.156639	0.000000	0.000004	0.000000	0.000000	0.000000
30.168294	24.939233	11.295893	-0.533773	0.280369	3.065986	0.000000	0.066140	0.000000	0.000004	0.000000	0.000000	0.000000
30.717354	25.093502	11.214473	0.254467	-0.131202	3.077150	0.000000	-0.025532	0.000000	0.000004	-0.000000	0.000000	0.000000
31.015927	24.984378	11.283354	0.176581	-0.128802	3.071927	0.000000	-0.017493	0.000000	0.000004	-0.000000	0.000000	0.000000
31.349260	24.871243	11.379233	0.162823	-0.158834	3.066096	0.000000	-0.017493	0.000000	0.000004	-0.000000	0.000000	0.000000
31.682593	24.767280	11.495133	0.149066	-0.188866	3.060266	0.000000	-0.017493	0.000000	0.000004	-0.000000	0.000000	0.000000
32.017177	24.672151	11.631602	0.135256	-0.219011	3.054413	0.000000	-0.017493	0.000000	0.000004	-0.000000	0.000000	0.000000
32.314499	24.595370	11.769800	0.058724	-0.215047	3.049212	0.000000	-0.009526	0.000000	0.000004	-0.000000	0.000000	0.000000
32.863559	24.109549	12.245283	0.820862	-0.656059	3.019103	0.000000	-0.099986	0.000000	0.000004	-0.000000	0.000000	0.000000
33.412619	22.813849	13.227714	1.525019	-1.143799	2.939741	0.000000	-0.188672	0.000000	0.000003	-0.000000	0.000000	0.000000
33.961679	20.799793	14.787070	2.121456	-1.713011	2.812534	0.000000	-0.274012	0.000000	0.000003	-0.000000	0.000000	0.000000
34.510739	18.209644	17.034420	2.568044	-2.404236	2.639736	0.000000	-0.354492	0.000000	0.000003	-0.000001	0.000000	0.000000
34.956699	16.195818	19.044527	1.963845	-2.084314	2.497987	0.000000	-0.281572	0.000000	0.000003	-0.000000	0.000000	0.000000
35.397659	14.694218	20.706488	1.454372	-1.670306	2.389204	0.000000	-0.212287	0.000000	0.000003	-0.000000	0.000000	0.000000
35.838619	13.611044	21.968293	1.011345	-1.180301	2.310412	0.000000	-0.145421	0.000000	0.000002	-0.000000	0.000000	0.000000
36.279579	12.896810	22.772531	0.614524	-0.636592	2.260712	0.000000	-0.080210	0.000000	0.000002	-0.000000	0.000000	0.000000
36.721789	12.518194	23.082910	0.276371	-0.120579	2.239513	0.000000	-0.021405	0.000000	0.000002	-0.000000	0.000000	0.000000
37.019112	12.361452	23.158497	0.250806	-0.133647	2.233149	0.000000	-0.021405	0.000000	0.000002	-0.000000	0.000000	0.000000
37.352445	12.203802	23.252478	0.222144	-0.148297	2.226014	0.000000	-0.021405	0.000000	0.000002	-0.000000	0.000000	0.000000
37.685779	12.065260	23.356226	0.193482	-0.162948	2.218879	0.000000	-0.021405	0.000000	0.000002	-0.000000	0.000000	0.000000
38.020362	11.945414	23.470186	0.164713	-0.177653	2.211717	0.000000	-0.021405	0.000000	0.000002	-0.000000	0.000000	0.000000
38.317684	11.855070	23.579712	0.168219	-0.248545	2.205353	0.000000	-0.026813	0.000000	0.000002	-0.000000	0.000000	0.000000
38.758644	11.857923	23.537751	-0.174713	0.343341	2.207456	0.000000	0.036357	0.000000	0.000002	-0.000000	0.000000	0.000000
39.199604	12.165578	22.978715	-0.525628	0.919606	2.237478	0.000000	0.099941	0.000000	0.000002	-0.000000	0.000000	0.000000
39.640564	12.792092	21.928039	-0.900557	1.454029	2.295763	0.000000	0.164663	0.000000	0.000002	-0.000000	0.000000	0.000000
40.081524	13.766088	20.433528	-1.316630	1.922294	2.382973	0.000000	0.231261	0.000000	0.000002	0.000000	0.000000	0.000000
40.527484	15.149629	18.540615	-1.796680	2.304376	2.501574	0.000000	0.300898	0.000000	0.000002	0.000000	0.000000	0.000000
41.076544	16.915414	16.413545	-1.400297	1.592511	2.646258	0.000000	0.225350	0.000000	0.000002	-0.000000	0.000000	0.000000
41.625604	18.188700	15.001687	-0.905004	0.994078	2.748302	0.000000	0.145806	0.000000	0.000002	-0.000000	0.000000	0.000000
42.174664	18.879548	14.204475	-0.345785	0.466450	2.805896	0.000000	0.063675	0.000000	0.000002	-0.000000	0.000000	0.000000
42.723724	18.939159	13.965127	0.237857	-0.027954	2.818017	0.000000	-0.019586	0.000000	0.000002	-0.000000	0.000000	0.000000
43.022297	18.831547	13.966415	0.172049	-0.012847	2.814368	0.000000	-0.012223	0.000000	0.000002	-0.000000	0.000000	0.000000
43.502297	18.678977	13.995247	0.145806	-0.047221	2.808501	0.000000	-0.012223	0.000000	0.000002	-0.000000	0.000000	0.000000
43.982297	18.551600	14.057079	0.119562	-0.081595	2.802634	0.000000	-0.012223	0.000000	0.000001	-0.000000	0.000000	0.000000
44.462297	18.449418	14.151909	0.093318	-0.115969	2.796767	0.000000	-0.012223	0.000000	0.000001	-0.000000	0.000000	0.000000
44.942297	18.372429	14.279739	0.067075	-0.150342	2.790901	0.000000	-0.012223	0.000000	0.000001	-0.000000	0.000000	0.000000
45.423547	18.320759	14.440850	-0.050009	-0.113257	2.785036	0.000000	0.001576	0.000000	0.000001	-0.000000	0.000000	0.000000
45.720870	18.355334	14.514398	-0.114236	-0.096187	2.785504	0.000000	0.008854	0.000000	0.000001	-0.000000	0.000000	0.000000
46.269930	18.171705	14.900816	0.446698	-0.611748	2.767796	0.000000	-0.073263	0.000000	0.000001	-0.000000	0.000000	0.000000
46.818990	17.385862	15.873844	0.976081	-1.170883	2.705292	0.000000	-0.154079	0.000000	0.000001	-0.000000	0.000000	0.000000
47.368050	16.053313	17.502788	1.436518	-1.813417	2.599101	0.000000	-0.232163	0.000000	0.000001	-0.000000	0.000000	0.000000
47.917110	14.268181	19.903675	1.795486	-2.585116	2.451105	0.000000	-0.306129	0.000000	0.000001	-0.000000	0.000000	0.000000
48.363070	12.878879	22.038369	1.330858	-2.181500	2.329875	0.000000	-0.237836	0.000000	0.000001	-0.000000	0.000000	0.000000
48.804030	11.885347	23.747595	0.930801	-1.679897	2.239458	0.000000	-0.172648	0.000000	0.000000	-0.000000	0.000000	0.000000
49.244990	11.224619	24.978924	0.573269	-1.101860	2.177325	0.000000	-0.109427	0.000000	0.000000	-0.000000	0.000000	0.000000
49.685950	10.866508	25.676332	0.241928	-0.473689	2.142769	0.000000	-0.047452	0.000000	0.000000	-0.000000	0.000000	0.000000
50.128160	10.794783	25.807806	-0.052004	0.112696	2.135408	0.000000	0.008745	0.000000	0.000000	-0.000000	0.000000	0.000000
50.425482	10.833919	25.744260	-0.079622	0.101029	2.138008	0.000000	0.008745	0.000000	0.000000	-0.000000	0.000000	0.000000
50.758816	10.897321	25.681267	-0.110585	0.087949	2.140923	0.000000	0.008745	0.000000	-0.000000	-0.000000	0.000000	0.000000
51.092149	10.981365	25.626994	-0.141547	0.074869	2.143838	0.000000	0.008745	0.000000	-0.000000	-0.000000	0.000000	0.000000
51.426732	11.086257	25.581806	-0.082687	-0.145792	2.146743	0.000000	-0.008670	0.000000	-0.000000	-0.000000	0.000000	0.000000
51.724055	11.143455	25.672030	-0.082362	-0.220617	2.144165	0.000000	-0.013928	0.000000	-0.000000	-0.000000	0.000000	0.000000
52.165015	11.361557	25.581016	-0.414120	0.426230	2.151611	0.000000	0.047733	0.000000	-0.000000	-0.000000	0.000000	0.000000
52.605975	11.879448	24.925940	-0.764798	1.053684	2.186342	0.000000	0.109938	0.000000	-0.000000	-0.000000	0.000000	0.000000
53.046935	12.720789	23.736608	-1.150417	1.633196	2.248752	0.000000	0.173395	0.000000	-0.000001	-0.000000	0.000000	0.000000
53.487895	13.924018	22.067132	-1.588595	2.138399	2.339552	0.000000	0.238827	0.000000	-0.000001	-0.000000	0.000000	0.000000
53.933855	15.564730	19.968509	-2.103589	2.547641	2.461282	0.000000	0.307378	0.000000	-0.000001	-0.000000	0.000000	0.000000
54.482915	17.677044	17.607115	-1.720784	1.778540	2.609871	0.000000	0.233073	0.000000	-0.000001	-0.000000	0.000000	0.000000
55.031975	19.299356	16.016183	-1.216432	1.136120	2.716465	0.000000	0.154634	0.000000	-0.000001	-0.000000	0.000000	0.000000
55.581035	20.317072	15.082395	-0.626157	0.574623	2.779174	0.000000	0.073451	0.000000	-0.000001	-0.000000	0.000000	0.000000
56.130095	20.658307	14.739238	0.008346	0.054055	2.796884	0.000000	-0.009034	0.000000	-0.000001	-0.000000	0.000000	0.000000
56.428668	20.689880	14.690063	-0.060114	0.072136	2.796369	0.000000	-0.001726	0.000000	-0.000001	-0.000000	0.000000	0.000000
56.762001	20.735345	14.649575	-0.076283	0.049327	2.795794	0.000000	-0.001726	0.000000	-0.000001	-0.000000	0.000000	0.000000
57.095334	20.791590	14.624294	-0.092452	0.026518	2.795219	0.000000	-0.001726	0.000000	-0.000002	-0.000000	0.000000	0.000000
57.429918	20.858886	14.614209	-0.108682	0.003623	2.794641	0.000000	-0.001726	0.000000	-0.000002	-0.000000	0.000000	0.000000
57.727240	20.927801	14.618104	-0.177785	0.021473	2.794128	0.000000	0.005575	0.000000	-0.000002	-0.000000	0.000000	0.000000
58.276300	20.765938	14.875303	0.470839	-0.492673	2.774548	0.000000	-0.076791	0.000000	-0.000002	-0.000000	0.000000	0.000000
58.825360	19.905936	15.712937	1.086206	-1.041911	2.710053	0.000000	-0.157794	0.000000	-0.000002	-0.000000	0.000000	0.000000
59.374420	18.408541	17.190670	1.624848	-1.665362	2.601786	0.000000	-0.235999	0.000000	-0.000002	0.000000	0.000000	0.000000
59.923480	16.379521	19.413756	2.048720	-2.407433	2.451667	0.000000	-0.310017	0.000000	-0.000002	0.000000	0.000000	0.000000
60.369440	14.791332	21.389724	1.525174	-2.004686	2.328702	0.000000	-0.241732	0.000000	-0.000002	0.000000	0.000000	0.000000
60.810400	13.648863	22.946410	1.075522	-1.512099	2.236557	0.000000	-0.176597	0.000000	-0.000002	-0.000000	0.000000	0.000000
61.251360	12.879867	24.036559	0.675007	-0.950712	2.172663	0.000000	-0.113473	0.000000	-0.000002	-0.000000	0.000000	0.000000
61.692320	12.449211	24.610572	0.305331	-0.346068	2.136293	0.000000	-0.051642	0.000000	-0.000002	-0.000000	0.000000	0.000000
62.134530	12.337271	24.641796	-0.020242	0.213836	2.127038	0.000000	0.004385	0.000000	-0.000002	-0.000000	0.000000	0.000000
62.431853	12.356476	24.518390	-0.044351	0.201219	2.128342	0.000000	0.004385	0.000000	-0.000002	-0.000000	0.000000	0.000000
62.765186	12.395053	24.388959	-0.071381	0.187073	2.129804	0.000000	0.004385	0.000000	-0.000002	-0.000000	0.000000	0.000000
63.098520	12.451650	24.268959	-0.098410	0.172928	2.131266	0.000000	0.004385	0.000000	-0.000002	-0.000000	0.000000	0.000000
63.433103	12.526580	24.157992	-0.125541	0.158729	2.132733	0.000000	0.004385	0.000000	-0.000002	-0.000000	0.000000	0.000000
63.730426	12.608401	24.067357	-0.118730	0.087090	2.134037	0.000000	-0.000848	0.000000	-0.000002	-0.000000	0.000000	0.000000
64.171386	12.873617	23.725482	-0.485002	0.685256	2.147204	0.000000	0.060626	0.000000	-0.000002	-0.000000	0.000000	0.000000
64.612346	13.470367	22.867859	-0.873431	1.252244	2.187605	0.000000	0.122790	0.000000	-0.000002	-0.000000	0.000000	0.000000
65.053306	14.425916	21.533508	-1.301765	1.762255	2.255701	0.000000	0.186353	0.000000	-0.000002	-0.000000	0.000000	0.000000
65.494266	15.783921	19.783141	-1.789573	2.192085	2.352265	0.000000	0.252039	0.000000	-0.000003	-0.000000	0.000000	0.000000
65.940226	17.629593	17.671621	-2.363836	2.522935	2.479972	0.000000	0.320997	0.000000	-0.000003	-0.000000	0.000000	0.000000
66.489286	19.995381	15.309413	-1.919455	1.804737	2.635851	0.000000	0.245968	0.000000	-0.000003	-0.000000	0.000000	0.000000
67.038346	21.795394	13.661079	-1.339493	1.215086	2.749274	0.000000	0.166576	0.000000	-0.000003	-0.000000	0.000000	0.000000
67.587406	22.902489	12.609211	-0.664917	0.711983	2.818229	0.000000	0.084230	0.000000	-0.000003	-0.000000	0.000000	0.000000
68.136466	23.238465	12.078888	0.056626	0.259593	2.841494	0.000000	0.000389	0.000000	-0.000003	-0.000000	0.000000	0.000000
68.435038	23.244746	11.913032	-0.016942	0.264340	2.843826	0.000000	0.007814	0.000000	-0.000003	-0.000000	0.000000	0.000000
68.768372	23.260822	11.746784	-0.031286	0.234405	2.846431	0.000000	0.007814	0.000000	-0.000003	-0.000000	0.000000	0.000000
69.101705	23.286460	11.600493	-0.045630	0.204469	2.849036	0.000000	0.007814	0.000000	-0.000004	-0.000000	0.000000	0.000000
69.436288	23.321812	11.473723	-0.060028	0.174421	2.851650	0.000000	0.007814	0.000000	-0.000004	-0.000000	0.000000	0.000000
69.733611	23.361312	11.377943	-0.133864	0.177449	2.853973	0.000000	0.015271	0.000000	-0.000004	-0.000000	0.000000	0.000000
70.282671	23.107101	11.410875	0.594116	-0.237781	2.839170	0.000000	-0.069111	0.000000	-0.000004	0.000000	0.000000	0.000000
