#ParticleID	Turn	x[m]	xp	y[m]	yp	z[m]	dE[GeV]# s	beta_x	beta_y	alpha_x	alpha_y	D_x	D_y	D_px	D_py	orbit_x	orbit_px	orbit_y	orbit_py
0.300000	11.829636	24.955875	-0.013053	-0.027735	2.618241	0.000000	-0.000038	0.000000	0.000000	0.000000	0.000000	0.000000
0.601250	11.845174	24.976225	-0.038523	-0.039816	2.618230	0.000000	-0.000038	0.000000	0.000000	0.000000	0.000000	0.000000
0.898573	11.875555	25.003446	-0.034539	-0.113055	2.618219	0.000000	-0.006458	0.000000	0.000000	0.000000	0.000000	0.000000
1.339533	12.058342	24.825830	-0.381555	0.514315	2.631665	0.000000	0.067502	0.000000	0.000000	0.000000	0.000000	0.000000
1.780493	12.553671	24.103170	-0.746003	1.118283	2.677862	0.000000	0.142230	0.000000	0.000001	0.000000	0.000000	0.000000
2.221453	13.384172	22.868345	-1.144534	1.671371	2.757338	0.000000	0.218578	0.000000	0.000001	0.000000	0.000000	0.000000
2.662413	14.587788	21.177539	-1.595356	2.148412	2.870996	0.000000	0.297416	0.000000	0.000001	0.000000	0.000000	0.000000
3.108373	16.240311	19.082884	-2.123364	2.528833	3.021993	0.000000	0.380131	0.000000	0.000001	0.000000	0.000000	0.000000
3.657433	18.359351	16.730379	-1.713187	1.781061	3.205436	0.000000	0.287094	0.000000	0.000001	0.000000	0.000000	0.000000
4.206493	19.958449	15.124954	-1.182000	1.160151	3.336320	0.000000	0.188964	0.000000	0.000001	0.000000	0.000000	0.000000
4.755553	20.924651	14.152256	-0.567321	0.621876	3.412325	0.000000	0.087482	0.000000	0.000001	0.000000	0.000000	0.000000
5.304613	21.189709	13.743002	0.087430	0.127895	3.432101	0.000000	-0.015551	0.000000	0.000002	0.000000	0.000000	0.000000
5.603185	21.174772	13.651849	0.017961	0.141494	3.430135	0.000000	-0.006584	0.000000	0.000002	0.000000	0.000000	0.000000
5.936519	21.168048	13.565821	0.002214	0.116589	3.427940	0.000000	-0.006584	0.000000	0.000002	0.000000	0.000000	0.000000
6.269852	21.171821	13.496397	-0.013533	0.091683	3.425746	0.000000	-0.006584	0.000000	0.000002	0.000000	0.000000	0.000000
6.604435	21.186165	13.443410	-0.029340	0.066684	3.423543	0.000000	-0.006584	0.000000	0.000002	0.000000	0.000000	0.000000
6.901758	21.207788	13.410362	-0.098797	0.079507	3.421585	0.000000	0.002356	0.000000	0.000002	0.000000	0.000000	0.000000
7.450818	20.954763	13.583573	0.556902	-0.396838	3.394678	0.000000	-0.100221	0.000000	0.000002	0.000000	0.000000	0.000000
7.999878	19.999142	14.292229	1.173263	-0.901450	3.311856	0.000000	-0.201021	0.000000	0.000002	0.000000	0.000000	0.000000
8.548938	18.408424	15.586804	1.706752	-1.470270	3.174588	0.000000	-0.298255	0.000000	0.000002	0.000000	0.000000	0.000000
9.097998	16.294971	17.559509	2.119683	-2.143814	2.985309	0.000000	-0.390198	0.000000	0.000002	-0.000000	0.000000	0.000000
9.543958	14.645972	19.317351	1.591102	-1.781231	2.829602	0.000000	-0.308496	0.000000	0.000002	-0.000000	0.000000	0.000000
9.984918	13.446432	20.698429	1.139510	-1.338832	2.710813	0.000000	-0.230791	0.000000	0.000002	0.000000	0.000000	0.000000
10.425878	12.620785	21.660893	0.739980	-0.835518	2.625677	0.000000	-0.155715	0.000000	0.000002	0.000000	0.000000	0.000000
10.866838	12.131308	22.160951	0.374257	-0.294188	2.573224	0.000000	-0.082413	0.000000	0.000002	0.000000	0.000000	0.000000
11.309048	11.955502	22.175335	0.054846	0.206088	2.552837	0.000000	-0.016309	0.000000	0.000002	0.000000	0.000000	0.000000
11.606371	11.930305	22.056941	0.029902	0.192111	2.547988	0.000000	-0.016309	0.000000	0.000002	0.000000	0.000000	0.000000
12.086371	11.920928	21.883346	-0.010368	0.169546	2.540159	0.000000	-0.016309	0.000000	0.000002	0.000000	0.000000	0.000000
12.566371	11.950211	21.731413	-0.050637	0.146981	2.532331	0.000000	-0.016309	0.000000	0.000002	0.000000	0.000000	0.000000
13.046371	12.018152	21.601142	-0.090907	0.124416	2.524502	0.000000	-0.016309	0.000000	0.000003	0.000000	0.000000	0.000000
13.526371	12.124752	21.492534	-0.131177	0.101851	2.516674	0.000000	-0.016309	0.000000	0.000003	0.000000	0.000000	0.000000
14.007621	12.270440	21.405390	-0.171551	0.079227	2.508825	0.000000	-0.016309	0.000000	0.000003	0.000000	0.000000	0.000000
14.304943	12.379868	21.362434	-0.166137	0.012864	2.503976	0.000000	-0.022449	0.000000	0.000003	0.000000	0.000000	0.000000
14.745903	12.685103	21.117251	-0.528693	0.541042	2.509706	0.000000	0.048466	0.000000	0.000003	0.000000	0.000000	0.000000
15.186863	13.319486	20.415374	-0.915405	1.044603	2.546800	0.000000	0.119933	0.000000	0.000003	0.000000	0.000000	0.000000
15.627823	14.312000	19.288739	-1.343938	1.500635	2.615678	0.000000	0.192766	0.000000	0.000003	0.000000	0.000000	0.000000
16.068783	15.707991	17.788606	-1.833872	1.888389	2.717125	0.000000	0.267794	0.000000	0.000003	0.000001	0.000000	0.000000
16.514743	17.594893	15.961730	-2.412348	2.190972	2.853992	0.000000	0.346335	0.000000	0.000004	0.000001	0.000000	0.000000
17.063803	20.018104	13.921732	-1.974908	1.546395	3.020424	0.000000	0.259017	0.000000	0.000004	0.000000	0.000000	0.000000
17.612863	21.881046	12.525283	-1.397971	1.011963	3.137579	0.000000	0.167104	0.000000	0.000004	0.000000	0.000000	0.000000
18.161923	23.052127	11.672915	-0.722288	0.549612	3.203379	0.000000	0.072227	0.000000	0.000004	0.000000	0.000000	0.000000
18.710983	23.448630	11.303918	0.004415	0.126408	3.216657	0.000000	-0.023931	0.000000	0.000004	0.000000	0.000000	0.000000
19.009556	23.486391	11.218876	-0.069624	0.128887	3.212021	0.000000	-0.015527	0.000000	0.000004	0.000000	0.000000	0.000000
19.342889	23.537562	11.143020	-0.083886	0.098681	3.206846	0.000000	-0.015527	0.000000	0.000004	0.000000	0.000000	0.000000
19.676223	23.598239	11.087301	-0.098147	0.068476	3.201670	0.000000	-0.015527	0.000000	0.000004	0.000000	0.000000	0.000000
20.010806	23.668999	11.051486	-0.229731	0.092913	3.196495	0.000000	0.000310	0.000000	0.000004	0.000000	0.000000	0.000000
20.308129	23.809539	11.004304	-0.305164	0.094529	3.196587	0.000000	0.008662	0.000000	0.000004	0.000000	0.000000	0.000000
20.857189	23.734000	11.123028	0.441928	-0.312036	3.175128	0.000000	-0.086713	0.000000	0.000005	-0.000000	0.000000	0.000000
21.406249	22.850421	11.697720	1.157804	-0.740827	3.101648	0.000000	-0.180550	0.000000	0.000004	-0.000000	0.000000	0.000000
21.955309	21.221213	12.769316	1.791898	-1.222385	2.977451	0.000000	-0.271185	0.000000	0.000004	-0.000000	0.000000	0.000000
22.504369	18.961455	14.414142	2.299422	-1.791011	2.804738	0.000000	-0.357009	0.000000	0.000004	-0.000000	0.000000	0.000000
22.950329	17.180713	15.890737	1.707729	-1.506068	2.662818	0.000000	-0.279812	0.000000	0.000004	-0.000000	0.000000	0.000000
23.391289	15.903914	17.067962	1.198754	-1.153458	2.555751	0.000000	-0.206256	0.000000	0.000004	-0.000000	0.000000	0.000000
23.832249	15.050234	17.909794	0.744547	-0.748367	2.480572	0.000000	-0.135049	0.000000	0.000004	-0.000000	0.000000	0.000000
24.273209	14.580671	18.377931	0.324356	-0.309225	2.436424	0.000000	-0.065380	0.000000	0.000004	-0.000000	0.000000	0.000000
24.715418	14.473887	18.450827	-0.045609	0.098671	2.422800	0.000000	-0.002397	0.000000	0.000004	0.000000	0.000000	0.000000
25.012741	14.507129	18.396991	-0.066194	0.082400	2.422087	0.000000	-0.002397	0.000000	0.000004	0.000000	0.000000	0.000000
25.346075	14.558951	18.348138	-0.089272	0.064158	2.421288	0.000000	-0.002397	0.000000	0.000004	0.000000	0.000000	0.000000
25.679408	14.626158	18.311447	-0.112350	0.045916	2.420489	0.000000	-0.002397	0.000000	0.000004	0.000000	0.000000	0.000000
26.013991	14.708790	18.287218	-0.016187	-0.120749	2.419663	0.000000	-0.022027	0.000000	0.000004	-0.000000	0.000000	0.000000
26.311314	14.724428	18.363926	-0.000299	-0.182277	2.413114	0.000000	-0.027944	0.000000	0.000004	-0.000000	0.000000	0.000000
26.752274	14.906128	18.325470	-0.413321	0.269153	2.415899	0.000000	0.040590	0.000000	0.000004	0.000000	0.000000	0.000000
27.193234	15.459000	17.892790	-0.845227	0.708337	2.448979	0.000000	0.109587	0.000000	0.000004	0.000000	0.000000	0.000000
27.634194	16.408302	17.085571	-1.315749	1.115292	2.512730	0.000000	0.179833	0.000000	0.000004	0.000000	0.000000	0.000000
28.075154	17.797406	15.940541	-1.846383	1.471502	2.607877	0.000000	0.252126	0.000000	0.000004	0.000000	0.000000	0.000000
28.521114	19.713916	14.492553	-2.466330	1.761674	2.737108	0.000000	0.327734	0.000000	0.000004	0.000000	0.000000	0.000000
29.070174	22.149805	12.879060	-1.943880	1.194318	2.894394	0.000000	0.244351	0.000000	0.000004	0.000000	0.000000	0.000000
29.619234	23.932728	11.838502	-1.284124	0.712031	3.004639	0.000000	0.156634	0.000000	0.000005	0.000000	0.000000	0.000000
30.168294	24.936746	11.296763	-0.533664	0.280460	3.065886	0.000000	0.066138	0.000000	0.000005	0.000000	0.000000	0.000000
30.717354	25.090941	11.215255	0.254492	-0.131134	3.077050	0.000000	-0.025531	0.000000	0.000005	-0.000000	0.000000	0.000000
31.015927	24.981798	11.284095	0.176612	-0.128730	3.071828	0.000000	-0.017492	0.000000	0.000005	-0.000000	0.000000	0.000000
31.349260	24.868643	11.379925	0.162853	-0.158760	3.065998	0.000000	-0.017492	0.000000	0.000005	-0.000000	0.000000	0.000000
31.682593	24.764661	11.495774	0.149094	-0.188789	3.060167	0.000000	-0.017492	0.000000	0.000004	-0.000000	0.000000	0.000000
32.017177	24.669513	11.632191	0.135283	-0.218932	3.054315	0.000000	-0.017492	0.000000	0.000004	-0.000000	0.000000	0.000000
32.314499	24.592717	11.770342	0.058756	-0.214964	3.049114	0.000000	-0.009525	0.000000	0.000004	-0.000000	0.000000	0.000000
32.863559	24.106909	12.245740	0.820806	-0.655986	3.019007	0.000000	-0.099982	0.000000	0.000004	-0.000000	0.000000	0.000000
33.412619	22.811318	13.228095	1.524878	-1.143733	2.939648	0.000000	-0.188665	0.000000	0.000004	-0.000000	0.000000	0.000000
33.961679	20.797459	14.787379	2.121241	-1.712945	2.812445	0.000000	-0.274002	0.000000	0.000004	-0.000000	0.000000	0.000000
34.510739	18.207580	17.034655	2.567769	-2.404166	2.639654	0.000000	-0.354479	0.000000	0.000004	-0.000001	0.000000	0.000000
34.956699	16.193971	19.044693	1.963631	-2.084229	2.497909	0.000000	-0.281562	0.000000	0.000003	-0.000001	0.000000	0.000000
35.397659	14.692536	20.706574	1.454210	-1.670209	2.389131	0.000000	-0.212279	0.000000	0.000003	-0.000000	0.000000	0.000000
35.838619	13.609485	21.968290	1.011227	-1.180197	2.310342	0.000000	-0.145414	0.000000	0.000003	-0.000000	0.000000	0.000000
36.279579	12.895339	22.772435	0.614444	-0.636486	2.260645	0.000000	-0.080205	0.000000	0.000003	-0.000000	0.000000	0.000000
36.721789	12.516778	23.082721	0.276321	-0.120474	2.239448	0.000000	-0.021401	0.000000	0.000003	-0.000000	0.000000	0.000000
37.019112	12.360067	23.158246	0.250753	-0.133542	2.233085	0.000000	-0.021401	0.000000	0.000003	-0.000000	0.000000	0.000000
37.352445	12.202453	23.252157	0.222089	-0.148192	2.225951	0.000000	-0.021401	0.000000	0.000003	-0.000000	0.000000	0.000000
37.685779	12.063948	23.355835	0.193425	-0.162843	2.218817	0.000000	-0.021401	0.000000	0.000003	-0.000000	0.000000	0.000000
38.020362	11.944141	23.469725	0.164653	-0.177548	2.211657	0.000000	-0.021401	0.000000	0.000002	-0.000000	0.000000	0.000000
38.317684	11.853833	23.579188	0.168154	-0.248438	2.205294	0.000000	-0.026809	0.000000	0.000002	-0.000000	0.000000	0.000000
38.758644	11.856731	23.537139	-0.174751	0.343433	2.207398	0.000000	0.036359	0.000000	0.000002	-0.000000	0.000000	0.000000
39.199604	12.164408	22.978030	-0.525640	0.919678	2.237421	0.000000	0.099942	0.000000	0.000002	-0.000000	0.000000	0.000000
39.640564	12.790921	21.927300	-0.900544	1.454078	2.295705	0.000000	0.164663	0.000000	0.000002	-0.000000	0.000000	0.000000
40.081524	13.764894	20.432757	-1.316591	1.922319	2.382915	0.000000	0.231259	0.000000	0.000002	0.000000	0.000000	0.000000
40.527484	15.148388	18.539833	-1.796613	2.304374	2.501515	0.000000	0.300894	0.000000	0.000002	0.000000	0.000000	0.000000
41.076544	16.914125	16.412756	-1.400276	1.592527	2.646197	0.000000	0.225349	0.000000	0.000002	-0.000000	0.000000	0.000000
41.625604	18.187413	15.000870	-0.905030	0.994112	2.748241	0.000000	0.145806	0.000000	0.000002	-0.000000	0.000000	0.000000
42.174664	18.878315	14.203609	-0.345857	0.466506	2.805835	0.000000	0.063677	0.000000	0.000002	-0.000000	0.000000	0.000000
42.723724	18.938029	13.964186	0.237745	-0.027872	2.817958	0.000000	-0.019582	0.000000	0.000002	-0.000000	0.000000	0.000000
43.022297	18.830481	13.965427	0.171940	-0.012770	2.814310	0.000000	-0.012219	0.000000	0.000002	-0.000000	0.000000	0.000000
43.502297	18.678016	13.994187	0.145696	-0.047146	2.808445	0.000000	-0.012219	0.000000	0.000002	-0.000000	0.000000	0.000000
43.982297	18.550745	14.055948	0.119452	-0.081522	2.802580	0.000000	-0.012219	0.000000	0.000002	-0.000000	0.000000	0.000000
44.462297	18.448669	14.150710	0.093207	-0.115899	2.796715	0.000000	-0.012219	0.000000	0.000002	-0.000000	0.000000	0.000000
44.942297	18.371787	14.278473	0.066963	-0.150275	2.790850	0.000000	-0.012219	0.000000	0.000002	-0.000000	0.000000	0.000000
45.423547	18.320225	14.439521	-0.050118	-0.113198	2.784987	0.000000	0.001580	0.000000	0.000002	-0.000000	0.000000	0.000000
45.720870	18.354865	14.513034	-0.114345	-0.096134	2.785457	0.000000	0.008857	0.000000	0.000001	-0.000000	0.000000	0.000000
46.269930	18.171363	14.899370	0.446577	-0.611652	2.767751	0.000000	-0.073258	0.000000	0.000001	-0.000000	0.000000	0.000000
46.818990	17.385656	15.872265	0.975955	-1.170736	2.705250	0.000000	-0.154073	0.000000	0.000001	-0.000000	0.000000	0.000000
47.368050	16.053242	17.501016	1.436397	-1.813210	2.599063	0.000000	-0.232156	0.000000	0.000001	-0.000000	0.000000	0.000000
47.917110	14.268237	19.901636	1.795379	-2.584834	2.451072	0.000000	-0.306120	0.000000	0.000001	-0.000000	0.000000	0.000000
48.363070	12.879026	22.036097	1.330760	-2.181262	2.329846	0.000000	-0.237828	0.000000	0.000001	-0.000000	0.000000	0.000000
48.804030	11.885579	23.745137	0.930706	-1.679714	2.239432	0.000000	-0.172641	0.000000	0.000001	-0.000000	0.000000	0.000000
49.244990	11.224934	24.976332	0.573174	-1.101740	2.177302	0.000000	-0.109420	0.000000	0.000000	-0.000000	0.000000	0.000000
49.685950	10.866908	25.673664	0.241829	-0.473638	2.142749	0.000000	-0.047446	0.000000	0.000000	-0.000000	0.000000	0.000000
50.128160	10.795275	25.805124	-0.052112	0.112683	2.135390	0.000000	0.008751	0.000000	0.000000	-0.000000	0.000000	0.000000
50.425482	10.834475	25.741587	-0.079728	0.101015	2.137992	0.000000	0.008751	0.000000	0.000000	-0.000000	0.000000	0.000000
50.758816	10.897947	25.678604	-0.110690	0.087933	2.140909	0.000000	0.008751	0.000000	-0.000000	-0.000000	0.000000	0.000000
51.092149	10.982061	25.624342	-0.141652	0.074852	2.143826	0.000000	0.008751	0.000000	-0.000000	-0.000000	0.000000	0.000000
51.426732	11.087023	25.579166	-0.082784	-0.145789	2.146733	0.000000	-0.008664	0.000000	-0.000000	-0.000000	0.000000	0.000000
51.724055	11.144278	25.669388	-0.082456	-0.220609	2.144157	0.000000	-0.013923	0.000000	-0.000000	-0.000000	0.000000	0.000000
52.165015	11.362471	25.578398	-0.414235	0.426168	2.151606	0.000000	0.047739	0.000000	-0.000000	-0.000000	0.000000	0.000000
52.605975	11.880474	24.923407	-0.764939	1.053555	2.186338	0.000000	0.109944	0.000000	-0.000001	-0.000000	0.000000	0.000000
53.046935	12.721953	23.734215	-1.150591	1.633006	2.248751	0.000000	0.173401	0.000000	-0.000001	-0.000000	0.000000	0.000000
53.487895	13.925354	22.064931	-1.588810	2.138157	2.339554	0.000000	0.238833	0.000000	-0.000001	-0.000000	0.000000	0.000000
53.933855	15.566279	19.966544	-2.103855	2.547357	2.461286	0.000000	0.307384	0.000000	-0.000001	-0.000000	0.000000	0.000000
54.482915	17.678866	17.605419	-1.721011	1.778329	2.609878	0.000000	0.233078	0.000000	-0.000001	-0.000000	0.000000	0.000000
55.031975	19.301397	16.014685	-1.216604	1.135968	2.716475	0.000000	0.154639	0.000000	-0.000001	-0.000000	0.000000	0.000000
55.581035	20.319267	15.081036	-0.626262	0.574519	2.779187	0.000000	0.073456	0.000000	-0.000002	-0.000000	0.000000	0.000000
56.130095	20.660577	14.737971	0.008316	0.053992	2.796900	0.000000	-0.009030	0.000000	-0.000002	-0.000000	0.000000	0.000000
56.428668	20.692171	14.688835	-0.060149	0.072068	2.796386	0.000000	-0.001722	0.000000	-0.000002	-0.000000	0.000000	0.000000
56.762001	20.737660	14.648393	-0.076316	0.049257	2.795812	0.000000	-0.001722	0.000000	-0.000002	-0.000000	0.000000	0.000000
57.095334	20.793926	14.623159	-0.092484	0.026447	2.795238	0.000000	-0.001722	0.000000	-0.000002	-0.000000	0.000000	0.000000
57.429918	20.861243	14.613122	-0.108712	0.003550	2.794662	0.000000	-0.001722	0.000000	-0.000002	-0.000000	0.000000	0.000000
57.727240	20.930176	14.617061	-0.177820	0.021396	2.794150	0.000000	0.005579	0.000000	-0.000002	-0.000000	0.000000	0.000000
58.276300	20.768308	14.874328	0.470884	-0.492721	2.774573	0.000000	-0.076787	0.000000	-0.000002	-0.000000	0.000000	0.000000
58.825360	19.908214	15.712001	1.086327	-1.041934	2.710079	0.000000	-0.157791	0.000000	-0.000002	-0.000000	0.000000	0.000000
59.374420	18.410647	17.189746	1.625038	-1.665361	2.601813	0.000000	-0.235997	0.000000	-0.000002	0.000000	0.000000	0.000000
59.923480	16.381387	19.412818	2.048964	-2.407408	2.451695	0.000000	-0.310016	0.000000	-0.000002	0.000000	0.000000	0.000000
60.369440	14.793005	21.388778	1.525364	-2.004692	2.328731	0.000000	-0.241730	0.000000	-0.000002	0.000000	0.000000	0.000000
60.810400	13.650389	22.945481	1.075666	-1.512133	2.236587	0.000000	-0.176594	0.000000	-0.000002	-0.000000	0.000000	0.000000
61.251360	12.881283	24.035673	0.675113	-0.950774	2.172694	0.000000	-0.113470	0.000000	-0.000002	-0.000000	0.000000	0.000000
61.692320	12.450549	24.609751	0.305403	-0.346155	2.136326	0.000000	-0.051638	0.000000	-0.000002	-0.000000	0.000000	0.000000
62.134530	12.338558	24.641061	-0.020197	0.213730	2.127073	0.000000	0.004390	0.000000	-0.000002	-0.000000	0.000000	0.000000
62.431853	12.357736	24.517719	-0.044304	0.201113	2.128379	0.000000	0.004390	0.000000	-0.000002	-0.000000	0.000000	0.000000
62.765186	12.396280	24.388359	-0.071330	0.186968	2.129842	0.000000	0.004390	0.000000	-0.000002	-0.000000	0.000000	0.000000
63.098520	12.452843	24.268429	-0.098357	0.172822	2.131306	0.000000	0.004390	0.000000	-0.000002	-0.000000	0.000000	0.000000
63.433103	12.527736	24.157533	-0.125485	0.158624	2.132774	0.000000	0.004390	0.000000	-0.000003	-0.000000	0.000000	0.000000
63.730426	12.609523	24.066959	-0.118669	0.086985	2.134080	0.000000	-0.000844	0.000000	-0.000003	-0.000000	0.000000	0.000000
64.171386	12.874695	23.725181	-0.484964	0.685144	2.147249	0.000000	0.060632	0.000000	-0.000003	-0.000000	0.000000	0.000000
64.612346	13.471422	22.867658	-0.873416	1.252129	2.187653	0.000000	0.122797	0.000000	-0.000003	-0.000000	0.000000	0.000000
65.053306	14.426967	21.533408	-1.301772	1.762143	2.255752	0.000000	0.186362	0.000000	-0.000003	-0.000000	0.000000	0.000000
65.494266	15.784987	19.783137	-1.789602	2.191981	2.352321	0.000000	0.252049	0.000000	-0.000003	-0.000000	0.000000	0.000000
65.940226	17.630695	17.671705	-2.363887	2.522843	2.480033	0.000000	0.321008	0.000000	-0.000003	-0.000001	0.000000	0.000000
66.489286	19.996516	15.309593	-1.919464	1.804654	2.635917	0.000000	0.245977	0.000000	-0.000004	-0.000000	0.000000	0.000000
67.038346	21.796516	13.661347	-1.339460	1.215007	2.749344	0.000000	0.166583	0.000000	-0.000004	-0.000000	0.000000	0.000000
67.587406	22.903551	12.609566	-0.664843	0.711903	2.818303	0.000000	0.084234	0.000000	-0.000004	-0.000000	0.000000	0.000000
68.136466	23.239427	12.079334	0.056735	0.259506	2.841569	0.000000	0.000391	0.000000	-0.000004	-0.000000	0.000000	0.000000
68.435038	23.245644	11.913530	-0.016835	0.264256	2.843903	0.000000	0.007816	0.000000	-0.000004	-0.000000	0.000000	0.000000
68.768372	23.261648	11.747337	-0.031179	0.234323	2.846509	0.000000	0.007816	0.000000	-0.000004	-0.000000	0.000000	0.000000
69.101705	23.287215	11.601099	-0.045522	0.204390	2.849114	0.000000	0.007816	0.000000	-0.000004	-0.000000	0.000000	0.000000
69.436288	23.322494	11.474381	-0.059920	0.174344	2.851729	0.000000	0.007816	0.000000	-0.000004	-0.000000	0.000000	0.000000
69.733611	23.361929	11.378647	-0.133756	0.177376	2.854053	0.000000	0.015273	0.000000	-0.000004	-0.000000	0.000000	0.000000
70.282671	23.107590	11.411669	0.594241	-0.237875	2.839251	0.000000	-0.069111	0.000000	-0.000004	0.000000	0.000000	0.000000
