#ParticleID	Turn	x[m]	xp	y[m]	yp	z[m]	dE[GeV]# s	beta_x	beta_y	alpha_x	alpha_y	D_x	D_y	D_px	D_py	orbit_x	orbit_px	orbit_y	orbit_py
0.300000	11.827266	24.964578	-0.012729	-0.027695	2.618200	0.000000	-0.000020	0.000000	-0.000001	0.000000	0.000000	0.000000
0.601250	11.842610	24.984902	-0.038204	-0.039771	2.618194	0.000000	-0.000020	0.000000	-0.000001	0.000000	0.000000	0.000000
0.898573	11.872803	25.012095	-0.034231	-0.113027	2.618187	0.000000	-0.006441	0.000000	-0.000000	0.000000	0.000000	0.000000
1.339533	12.055289	24.834355	-0.381177	0.514570	2.631641	0.000000	0.067518	0.000000	-0.000000	0.000000	0.000000	0.000000
1.780493	12.550247	24.111373	-0.745537	1.118755	2.677846	0.000000	0.142246	0.000000	-0.000000	0.000000	0.000000	0.000000
2.221453	13.380291	22.876044	-1.143959	1.672037	2.757328	0.000000	0.218594	0.000000	-0.000000	0.000000	0.000000	0.000000
2.662413	14.583342	21.184576	-1.594645	2.149243	2.870993	0.000000	0.297432	0.000000	0.000000	0.000000	0.000000	0.000000
3.108373	16.235157	19.089119	-2.122484	2.529791	3.021997	0.000000	0.380147	0.000000	0.000000	0.000000	0.000000	0.000000
3.657433	18.353296	16.735700	-1.712436	1.781779	3.205449	0.000000	0.287109	0.000000	0.000000	0.000000	0.000000	0.000000
4.206493	19.951665	15.129594	-1.181431	1.160680	3.336341	0.000000	0.188979	0.000000	0.000001	0.000000	0.000000	0.000000
4.755553	20.917361	14.156401	-0.566975	0.622253	3.412354	0.000000	0.087496	0.000000	0.000001	0.000000	0.000000	0.000000
5.304613	21.182174	13.746803	0.087529	0.128149	3.432137	0.000000	-0.015538	0.000000	0.000001	0.000000	0.000000	0.000000
5.603185	21.167168	13.655491	0.018074	0.141762	3.430175	0.000000	-0.006571	0.000000	0.000001	0.000000	0.000000	0.000000
5.936519	21.160370	13.569283	0.002321	0.116861	3.427985	0.000000	-0.006571	0.000000	0.000001	0.000000	0.000000	0.000000
6.269852	21.164074	13.499676	-0.013432	0.091961	3.425795	0.000000	-0.006571	0.000000	0.000001	0.000000	0.000000	0.000000
6.604435	21.178352	13.446501	-0.029244	0.066966	3.423596	0.000000	-0.006571	0.000000	0.000001	0.000000	0.000000	0.000000
6.901758	21.199919	13.413284	-0.098685	0.079802	3.421642	0.000000	0.002369	0.000000	0.000001	0.000000	0.000000	0.000000
7.450818	20.946917	13.586216	0.556748	-0.396622	3.394742	0.000000	-0.100210	0.000000	0.000001	0.000000	0.000000	0.000000
7.999878	19.991606	14.294669	1.172856	-0.901296	3.311926	0.000000	-0.201012	0.000000	0.000001	0.000000	0.000000	0.000000
8.548938	18.401462	15.589103	1.706119	-1.470167	3.174662	0.000000	-0.298248	0.000000	0.000002	0.000000	0.000000	0.000000
9.097998	16.288807	17.561719	2.118871	-2.143755	2.985386	0.000000	-0.390194	0.000000	0.000002	0.000000	0.000000	0.000000
9.543958	14.640450	19.319472	1.590469	-1.781091	2.829681	0.000000	-0.308490	0.000000	0.000002	0.000000	0.000000	0.000000
9.984918	13.441400	20.700395	1.139028	-1.338620	2.710895	0.000000	-0.230783	0.000000	0.000002	0.000000	0.000000	0.000000
10.425878	12.616120	21.662643	0.739625	-0.835242	2.625763	0.000000	-0.155705	0.000000	0.000002	0.000000	0.000000	0.000000
10.866838	12.126906	22.162434	0.374014	-0.293861	2.573316	0.000000	-0.082400	0.000000	0.000002	0.000000	0.000000	0.000000
11.309048	11.951270	22.176512	0.054693	0.206447	2.552935	0.000000	-0.016294	0.000000	0.000002	0.000000	0.000000	0.000000
11.606371	11.926166	22.057906	0.029740	0.192469	2.548091	0.000000	-0.016294	0.000000	0.000002	0.000000	0.000000	0.000000
12.086371	11.916951	21.883967	-0.010543	0.169902	2.540269	0.000000	-0.016294	0.000000	0.000002	0.000000	0.000000	0.000000
12.566371	11.946409	21.731694	-0.050826	0.147335	2.532448	0.000000	-0.016294	0.000000	0.000002	0.000000	0.000000	0.000000
13.046371	12.014538	21.601084	-0.091109	0.124768	2.524627	0.000000	-0.016294	0.000000	0.000002	0.000000	0.000000	0.000000
13.526371	12.121339	21.492139	-0.131393	0.102201	2.516806	0.000000	-0.016294	0.000000	0.000003	0.000000	0.000000	0.000000
14.007621	12.267241	21.404660	-0.171781	0.079575	2.508964	0.000000	-0.016294	0.000000	0.000003	0.000000	0.000000	0.000000
14.304943	12.376808	21.361497	-0.166382	0.013213	2.504120	0.000000	-0.022435	0.000000	0.000003	0.000000	0.000000	0.000000
14.745903	12.682231	21.116019	-0.528877	0.541358	2.509858	0.000000	0.048484	0.000000	0.000003	0.000000	0.000000	0.000000
15.186863	13.316752	20.413884	-0.915535	1.044871	2.546960	0.000000	0.119955	0.000000	0.000003	0.000000	0.000000	0.000000
15.627823	14.309360	19.287037	-1.344020	1.500843	2.615849	0.000000	0.192793	0.000000	0.000003	0.000000	0.000000	0.000000
16.068783	15.705404	17.786751	-1.833911	1.888529	2.717309	0.000000	0.267826	0.000000	0.000003	0.000001	0.000000	0.000000
16.514743	17.592321	15.959783	-2.412345	2.191036	2.854191	0.000000	0.346372	0.000000	0.000004	0.000001	0.000000	0.000000
17.063803	20.015591	13.919700	-1.975017	1.546490	3.020641	0.000000	0.259046	0.000000	0.000004	0.000001	0.000000	0.000000
17.612863	21.878710	12.523126	-1.398185	1.012097	3.137811	0.000000	0.167126	0.000000	0.000004	0.000000	0.000000	0.000000
18.161923	23.050078	11.670587	-0.722591	0.549793	3.203621	0.000000	0.072242	0.000000	0.000005	0.000000	0.000000	0.000000
18.710983	23.446953	11.301359	0.004043	0.126650	3.216905	0.000000	-0.023924	0.000000	0.000005	0.000000	0.000000	0.000000
19.009556	23.484935	11.216179	-0.069993	0.129113	3.212271	0.000000	-0.015519	0.000000	0.000005	0.000000	0.000000	0.000000
19.342889	23.536352	11.140175	-0.084256	0.098899	3.207098	0.000000	-0.015519	0.000000	0.000005	0.000000	0.000000	0.000000
19.676223	23.597277	11.084314	-0.098519	0.068684	3.201925	0.000000	-0.015519	0.000000	0.000005	0.000000	0.000000	0.000000
20.010806	23.668286	11.048363	-0.230102	0.093097	3.196752	0.000000	0.000319	0.000000	0.000005	0.000000	0.000000	0.000000
20.308129	23.809047	11.001074	-0.305535	0.094696	3.196847	0.000000	0.008672	0.000000	0.000005	0.000000	0.000000	0.000000
20.857189	23.733923	11.119564	0.441548	-0.311775	3.175391	0.000000	-0.086712	0.000000	0.000005	0.000000	0.000000	0.000000
21.406249	22.850753	11.693909	1.157443	-0.740452	3.101909	0.000000	-0.180558	0.000000	0.000005	-0.000000	0.000000	0.000000
21.955309	21.221919	12.765019	1.791582	-1.221870	2.977705	0.000000	-0.271201	0.000000	0.000005	-0.000000	0.000000	0.000000
22.504369	18.962475	14.409186	2.299172	-1.790319	2.804982	0.000000	-0.357033	0.000000	0.000005	-0.000000	0.000000	0.000000
22.950329	17.181954	15.885212	1.707481	-1.505489	2.663052	0.000000	-0.279830	0.000000	0.000004	-0.000000	0.000000	0.000000
23.391289	15.905376	17.061985	1.198498	-1.153017	2.555979	0.000000	-0.206268	0.000000	0.000004	-0.000000	0.000000	0.000000
23.832249	15.051931	17.903497	0.744270	-0.748084	2.480796	0.000000	-0.135055	0.000000	0.000004	-0.000000	0.000000	0.000000
24.273209	14.582626	18.371460	0.324046	-0.309114	2.436646	0.000000	-0.065380	0.000000	0.000004	-0.000000	0.000000	0.000000
24.715418	14.476136	18.444335	-0.045961	0.098622	2.423024	0.000000	-0.002392	0.000000	0.000004	0.000000	0.000000	0.000000
25.012741	14.509586	18.390529	-0.066543	0.082345	2.422312	0.000000	-0.002392	0.000000	0.000004	0.000000	0.000000	0.000000
25.346075	14.561640	18.341715	-0.089618	0.064097	2.421515	0.000000	-0.002392	0.000000	0.000004	0.000000	0.000000	0.000000
25.679408	14.629077	18.305066	-0.112693	0.045849	2.420718	0.000000	-0.002392	0.000000	0.000004	0.000000	0.000000	0.000000
26.013991	14.711939	18.280885	-0.016502	-0.120771	2.419893	0.000000	-0.022024	0.000000	0.000004	0.000000	0.000000	0.000000
26.311314	14.727762	18.357607	-0.000602	-0.182289	2.413345	0.000000	-0.027942	0.000000	0.000004	0.000000	0.000000	0.000000
26.752274	14.909767	18.319238	-0.413711	0.268971	2.416133	0.000000	0.040599	0.000000	0.000004	0.000000	0.000000	0.000000
27.193234	15.463028	17.886791	-0.845722	0.707992	2.449218	0.000000	0.109602	0.000000	0.000004	0.000000	0.000000	0.000000
27.634194	16.412821	17.079942	-1.316371	1.114800	2.512976	0.000000	0.179854	0.000000	0.000005	0.000000	0.000000	0.000000
28.075154	17.802540	15.935402	-1.847161	1.470886	2.608134	0.000000	0.252153	0.000000	0.000005	0.000000	0.000000	0.000000
28.521114	19.719826	14.488010	-2.467301	1.760961	2.737379	0.000000	0.327769	0.000000	0.000005	0.000001	0.000000	0.000000
29.070174	22.156705	12.875202	-1.944701	1.193775	2.894681	0.000000	0.244376	0.000000	0.000005	0.000000	0.000000	0.000000
29.619234	23.940419	11.835165	-1.284737	0.711619	3.004937	0.000000	0.156649	0.000000	0.000005	0.000000	0.000000	0.000000
30.168294	24.944975	11.293820	-0.534025	0.280150	3.066190	0.000000	0.066144	0.000000	0.000006	0.000000	0.000000	0.000000
30.717354	25.099416	11.212607	0.254407	-0.131364	3.077355	0.000000	-0.025535	0.000000	0.000006	-0.000000	0.000000	0.000000
31.015927	24.990336	11.281590	0.176510	-0.128975	3.072132	0.000000	-0.017495	0.000000	0.000006	-0.000000	0.000000	0.000000
31.349260	24.877247	11.377587	0.162756	-0.159013	3.066300	0.000000	-0.017495	0.000000	0.000006	-0.000000	0.000000	0.000000
31.682593	24.773327	11.493608	0.149002	-0.189051	3.060469	0.000000	-0.017495	0.000000	0.000006	-0.000000	0.000000	0.000000
32.017177	24.678239	11.630203	0.135197	-0.219202	3.054615	0.000000	-0.017495	0.000000	0.000006	-0.000000	0.000000	0.000000
32.314499	24.601493	11.768517	0.058652	-0.215248	3.049414	0.000000	-0.009528	0.000000	0.000005	-0.000000	0.000000	0.000000
32.863559	24.115638	12.244204	0.820994	-0.656234	3.019302	0.000000	-0.099994	0.000000	0.000005	-0.000000	0.000000	0.000000
33.412619	22.819684	13.226820	1.525346	-1.143962	2.939934	0.000000	-0.188687	0.000000	0.000005	-0.000000	0.000000	0.000000
33.961679	20.805172	14.786352	2.121954	-1.713172	2.812717	0.000000	-0.274033	0.000000	0.000005	-0.000001	0.000000	0.000000
34.510739	18.214397	17.033883	2.568679	-2.404407	2.639907	0.000000	-0.354518	0.000000	0.000005	-0.000001	0.000000	0.000000
34.956699	16.200070	19.044160	1.964338	-2.084522	2.498146	0.000000	-0.281594	0.000000	0.000004	-0.000001	0.000000	0.000000
35.397659	14.698087	20.706318	1.454748	-1.670541	2.389355	0.000000	-0.212306	0.000000	0.000004	-0.000000	0.000000	0.000000
35.838619	13.614627	21.968339	1.011621	-1.180552	2.310556	0.000000	-0.145435	0.000000	0.000004	-0.000000	0.000000	0.000000
36.279579	12.900189	22.772801	0.614713	-0.636849	2.260851	0.000000	-0.080221	0.000000	0.000004	-0.000000	0.000000	0.000000
36.721789	12.521441	23.083405	0.276488	-0.120829	2.239647	0.000000	-0.021412	0.000000	0.000004	-0.000000	0.000000	0.000000
37.019112	12.364629	23.159140	0.250927	-0.133897	2.233281	0.000000	-0.021412	0.000000	0.000004	-0.000000	0.000000	0.000000
37.352445	12.206896	23.253289	0.222271	-0.148548	2.226144	0.000000	-0.021412	0.000000	0.000003	-0.000000	0.000000	0.000000
37.685779	12.068267	23.357205	0.193615	-0.163199	2.219006	0.000000	-0.021412	0.000000	0.000003	-0.000000	0.000000	0.000000
38.020362	11.948330	23.471333	0.164852	-0.177906	2.211842	0.000000	-0.021412	0.000000	0.000003	-0.000000	0.000000	0.000000
38.317684	11.857901	23.581009	0.168370	-0.248800	2.205476	0.000000	-0.026820	0.000000	0.000003	-0.000000	0.000000	0.000000
38.758644	11.860649	23.539257	-0.174626	0.343124	2.207576	0.000000	0.036353	0.000000	0.000003	-0.000000	0.000000	0.000000
39.199604	12.168254	22.980392	-0.525599	0.919436	2.237597	0.000000	0.099940	0.000000	0.000003	-0.000000	0.000000	0.000000
39.640564	12.794767	21.929841	-0.900586	1.453915	2.295881	0.000000	0.164665	0.000000	0.000003	0.000000	0.000000	0.000000
40.081524	13.768815	20.435405	-1.316718	1.922241	2.383093	0.000000	0.231266	0.000000	0.000003	0.000000	0.000000	0.000000
40.527484	15.152462	18.542510	-1.796831	2.304386	2.501697	0.000000	0.300906	0.000000	0.000003	0.000000	0.000000	0.000000
41.076544	16.918356	16.415454	-1.400343	1.592478	2.646384	0.000000	0.225354	0.000000	0.000003	0.000000	0.000000	0.000000
41.625604	18.191633	15.003656	-0.904942	0.993998	2.748429	0.000000	0.145805	0.000000	0.000003	-0.000000	0.000000	0.000000
42.174664	18.882354	14.206560	-0.345620	0.466319	2.806021	0.000000	0.063670	0.000000	0.000003	-0.000000	0.000000	0.000000
42.723724	18.941732	13.967388	0.238115	-0.028145	2.818139	0.000000	-0.019594	0.000000	0.000003	-0.000000	0.000000	0.000000
43.022297	18.833970	13.968786	0.172302	-0.013030	2.814488	0.000000	-0.012231	0.000000	0.000003	-0.000000	0.000000	0.000000
43.502297	18.681156	13.997791	0.146059	-0.047398	2.808617	0.000000	-0.012231	0.000000	0.000003	-0.000000	0.000000	0.000000
43.982297	18.553536	14.059790	0.119817	-0.081766	2.802746	0.000000	-0.012231	0.000000	0.000003	-0.000000	0.000000	0.000000
44.462297	18.451108	14.154782	0.093574	-0.116134	2.796876	0.000000	-0.012231	0.000000	0.000003	-0.000000	0.000000	0.000000
44.942297	18.373874	14.282768	0.067332	-0.150503	2.791005	0.000000	-0.012231	0.000000	0.000003	-0.000000	0.000000	0.000000
45.423547	18.321956	14.444031	-0.049756	-0.113396	2.785136	0.000000	0.001568	0.000000	0.000003	-0.000000	0.000000	0.000000
45.720870	18.356380	14.517660	-0.113985	-0.096314	2.785602	0.000000	0.008846	0.000000	0.000003	-0.000000	0.000000	0.000000
46.269930	18.172458	14.904273	0.446978	-0.611978	2.767889	0.000000	-0.073273	0.000000	0.000002	-0.000000	0.000000	0.000000
46.818990	17.386302	15.877617	0.976368	-1.171232	2.705379	0.000000	-0.154093	0.000000	0.000002	-0.000000	0.000000	0.000000
47.368050	16.053441	17.507021	1.436793	-1.813911	2.599179	0.000000	-0.232180	0.000000	0.000002	-0.000000	0.000000	0.000000
47.917110	14.268023	19.908545	1.795730	-2.585790	2.451175	0.000000	-0.306148	0.000000	0.000002	-0.000000	0.000000	0.000000
48.363070	12.878511	22.043795	1.331083	-2.182068	2.329936	0.000000	-0.237853	0.000000	0.000002	-0.000000	0.000000	0.000000
48.804030	11.884786	23.753466	0.931017	-1.680333	2.239512	0.000000	-0.172664	0.000000	0.000001	-0.000000	0.000000	0.000000
49.244990	11.223867	24.985114	0.573486	-1.102145	2.177373	0.000000	-0.109441	0.000000	0.000001	-0.000000	0.000000	0.000000
49.685950	10.865561	25.682702	0.242156	-0.473810	2.142811	0.000000	-0.047465	0.000000	0.000001	-0.000000	0.000000	0.000000
50.128160	10.793625	25.814207	-0.051757	0.112730	2.135444	0.000000	0.008734	0.000000	0.000001	-0.000000	0.000000	0.000000
50.425482	10.832615	25.750641	-0.079377	0.101066	2.138041	0.000000	0.008734	0.000000	0.000001	-0.000000	0.000000	0.000000
50.758816	10.895855	25.687623	-0.110343	0.087989	2.140952	0.000000	0.008734	0.000000	0.000001	-0.000000	0.000000	0.000000
51.092149	10.979738	25.633322	-0.141308	0.074912	2.143863	0.000000	0.008734	0.000000	0.000001	-0.000000	0.000000	0.000000
51.426732	11.084471	25.588105	-0.082464	-0.145797	2.146764	0.000000	-0.008682	0.000000	0.000000	-0.000000	0.000000	0.000000
51.724055	11.141538	25.678330	-0.082148	-0.220635	2.144182	0.000000	-0.013940	0.000000	0.000000	-0.000000	0.000000	0.000000
52.165015	11.359429	25.587259	-0.413856	0.426379	2.151624	0.000000	0.047721	0.000000	0.000000	-0.000000	0.000000	0.000000
52.605975	11.877061	24.931980	-0.764473	1.053993	2.186349	0.000000	0.109927	0.000000	0.000000	-0.000000	0.000000	0.000000
53.046935	12.718084	23.742310	-1.150016	1.633651	2.248754	0.000000	0.173384	0.000000	-0.000000	-0.000000	0.000000	0.000000
53.487895	13.920920	22.072376	-1.588100	2.138979	2.339549	0.000000	0.238816	0.000000	-0.000000	-0.000000	0.000000	0.000000
53.933855	15.561139	19.973190	-2.102976	2.548320	2.461274	0.000000	0.307367	0.000000	-0.000000	-0.000000	0.000000	0.000000
54.482915	17.672825	17.611151	-1.720261	1.779043	2.609857	0.000000	0.233062	0.000000	-0.000001	-0.000000	0.000000	0.000000
55.031975	19.294628	16.019746	-1.216036	1.136482	2.716445	0.000000	0.154623	0.000000	-0.000001	-0.000000	0.000000	0.000000
55.581035	20.311993	15.085624	-0.625916	0.574871	2.779148	0.000000	0.073441	0.000000	-0.000001	-0.000000	0.000000	0.000000
56.130095	20.653056	14.742249	0.008415	0.054207	2.796854	0.000000	-0.009043	0.000000	-0.000001	-0.000000	0.000000	0.000000
56.428668	20.684580	14.692977	-0.060034	0.072299	2.796336	0.000000	-0.001735	0.000000	-0.000001	-0.000000	0.000000	0.000000
56.762001	20.729994	14.652380	-0.076207	0.049494	2.795758	0.000000	-0.001735	0.000000	-0.000001	-0.000000	0.000000	0.000000
57.095334	20.786190	14.626985	-0.092380	0.026689	2.795179	0.000000	-0.001735	0.000000	-0.000001	-0.000000	0.000000	0.000000
57.429918	20.853440	14.616785	-0.108614	0.003798	2.794599	0.000000	-0.001735	0.000000	-0.000001	-0.000000	0.000000	0.000000
57.727240	20.922316	14.620574	-0.177707	0.021658	2.794083	0.000000	0.005566	0.000000	-0.000001	-0.000000	0.000000	0.000000
58.276300	20.760469	14.877608	0.470733	-0.492556	2.774499	0.000000	-0.076798	0.000000	-0.000002	-0.000000	0.000000	0.000000
58.825360	19.900682	15.715147	1.085923	-1.041853	2.710000	0.000000	-0.157800	0.000000	-0.000002	-0.000000	0.000000	0.000000
59.374420	18.403686	17.192847	1.624408	-1.665359	2.601730	0.000000	-0.236003	0.000000	-0.000002	-0.000000	0.000000	0.000000
59.923480	16.375221	19.415960	2.048154	-2.407485	2.451609	0.000000	-0.310020	0.000000	-0.000002	-0.000000	0.000000	0.000000
60.369440	14.787479	21.391945	1.524734	-2.004669	2.328643	0.000000	-0.241736	0.000000	-0.000002	-0.000000	0.000000	0.000000
60.810400	13.645351	22.948585	1.075186	-1.512013	2.236496	0.000000	-0.176602	0.000000	-0.000002	-0.000000	0.000000	0.000000
61.251360	12.876612	24.038629	0.674760	-0.950561	2.172599	0.000000	-0.113480	0.000000	-0.000002	-0.000000	0.000000	0.000000
61.692320	12.446138	24.612483	0.305162	-0.345860	2.136226	0.000000	-0.051651	0.000000	-0.000002	-0.000000	0.000000	0.000000
62.134530	12.334316	24.643500	-0.020348	0.214089	2.126967	0.000000	0.004375	0.000000	-0.000002	-0.000000	0.000000	0.000000
62.431853	12.353585	24.519944	-0.044463	0.201471	2.128268	0.000000	0.004375	0.000000	-0.000002	-0.000000	0.000000	0.000000
62.765186	12.392240	24.390345	-0.071499	0.187325	2.129726	0.000000	0.004375	0.000000	-0.000002	-0.000000	0.000000	0.000000
63.098520	12.448918	24.270177	-0.098535	0.173179	2.131184	0.000000	0.004375	0.000000	-0.000002	-0.000000	0.000000	0.000000
63.433103	12.523934	24.159043	-0.125673	0.158980	2.132648	0.000000	0.004375	0.000000	-0.000002	-0.000000	0.000000	0.000000
63.730426	12.605835	24.068258	-0.118874	0.087338	2.133949	0.000000	-0.000859	0.000000	-0.000003	-0.000000	0.000000	0.000000
64.171386	12.871153	23.726156	-0.485090	0.685522	2.147111	0.000000	0.060613	0.000000	-0.000003	-0.000000	0.000000	0.000000
64.612346	13.467959	22.868295	-0.873469	1.252515	2.187506	0.000000	0.122775	0.000000	-0.000003	-0.000000	0.000000	0.000000
65.053306	14.423520	21.533707	-1.301754	1.762519	2.255595	0.000000	0.186336	0.000000	-0.000003	-0.000000	0.000000	0.000000
65.494266	15.781493	19.783115	-1.789512	2.192330	2.352151	0.000000	0.252018	0.000000	-0.000003	-0.000001	0.000000	0.000000
65.940226	17.627088	17.671390	-2.363722	2.523149	2.479848	0.000000	0.320973	0.000000	-0.000004	-0.000001	0.000000	0.000000
66.489286	19.992803	15.308960	-1.919438	1.804929	2.635715	0.000000	0.245948	0.000000	-0.000004	-0.000001	0.000000	0.000000
67.038346	21.792851	13.660420	-1.339574	1.215270	2.749129	0.000000	0.166561	0.000000	-0.000004	-0.000000	0.000000	0.000000
67.587406	22.900086	12.608349	-0.665089	0.712173	2.818077	0.000000	0.084220	0.000000	-0.000004	-0.000000	0.000000	0.000000
68.136466	23.236297	12.077808	0.056374	0.259801	2.841338	0.000000	0.000384	0.000000	-0.000004	-0.000000	0.000000	0.000000
68.435038	23.242725	11.911832	-0.017190	0.264540	2.843669	0.000000	0.007808	0.000000	-0.000004	-0.000000	0.000000	0.000000
68.768372	23.258967	11.745452	-0.031536	0.234598	2.846272	0.000000	0.007808	0.000000	-0.000004	-0.000000	0.000000	0.000000
69.101705	23.284773	11.599034	-0.045881	0.204657	2.848875	0.000000	0.007808	0.000000	-0.000005	-0.000000	0.000000	0.000000
69.436288	23.320293	11.472140	-0.060281	0.174603	2.851487	0.000000	0.007808	0.000000	-0.000005	-0.000000	0.000000	0.000000
69.733611	23.359943	11.376254	-0.134114	0.177621	2.853809	0.000000	0.015265	0.000000	-0.000005	-0.000000	0.000000	0.000000
70.282671	23.106030	11.408970	0.593828	-0.237558	2.839005	0.000000	-0.069112	0.000000	-0.000005	0.000000	0.000000	0.000000
