#ParticleID	Turn	x[m]	xp	y[m]	yp	z[m]	dE[GeV]# s	beta_x	beta_y	alpha_x	alpha_y	D_x	D_y	D_px	D_py	orbit_x	orbit_px	orbit_y	orbit_py
0.300000	11.825673	24.970558	-0.012517	-0.027661	2.618172	0.000000	-0.000010	0.000000	0.000000	0.000000	0.000000	0.000000
0.601250	11.840890	24.990861	-0.037995	-0.039734	2.618169	0.000000	-0.000010	0.000000	0.000000	0.000000	0.000000	0.000000
0.898573	11.870960	25.018032	-0.034030	-0.113002	2.618166	0.000000	-0.006430	0.000000	0.000000	0.000000	0.000000	0.000000
1.339533	12.053249	24.840199	-0.380929	0.514752	2.631623	0.000000	0.067528	0.000000	0.000000	0.000000	0.000000	0.000000
1.780493	12.547963	24.116990	-0.745230	1.119085	2.677832	0.000000	0.142256	0.000000	0.000001	0.000000	0.000000	0.000000
2.221453	13.377705	22.881311	-1.143580	1.672500	2.757319	0.000000	0.218604	0.000000	0.000001	0.000000	0.000000	0.000000
2.662413	14.580383	21.189383	-1.594176	2.149818	2.870988	0.000000	0.297441	0.000000	0.000001	0.000000	0.000000	0.000000
3.108373	16.231731	19.093374	-2.121902	2.530452	3.021996	0.000000	0.380156	0.000000	0.000001	0.000000	0.000000	0.000000
3.657433	18.349277	16.739323	-1.711941	1.782276	3.205452	0.000000	0.287118	0.000000	0.000001	0.000000	0.000000	0.000000
4.206493	19.947165	15.132745	-1.181057	1.161047	3.336350	0.000000	0.188987	0.000000	0.000001	0.000000	0.000000	0.000000
4.755553	20.912530	14.159208	-0.566749	0.622517	3.412367	0.000000	0.087504	0.000000	0.000002	0.000000	0.000000	0.000000
5.304613	21.177184	13.749368	0.087591	0.128328	3.432155	0.000000	-0.015530	0.000000	0.000002	0.000000	0.000000	0.000000
5.603185	21.162134	13.657944	0.018146	0.141951	3.430195	0.000000	-0.006563	0.000000	0.000002	0.000000	0.000000	0.000000
5.936519	21.155288	13.571609	0.002390	0.117053	3.428008	0.000000	-0.006563	0.000000	0.000002	0.000000	0.000000	0.000000
6.269852	21.158947	13.501873	-0.013367	0.092156	3.425820	0.000000	-0.006563	0.000000	0.000002	0.000000	0.000000	0.000000
6.604435	21.173183	13.448567	-0.029182	0.067165	3.423624	0.000000	-0.006563	0.000000	0.000002	0.000000	0.000000	0.000000
6.901758	21.194715	13.415230	-0.098614	0.080008	3.421673	0.000000	0.002377	0.000000	0.000002	0.000000	0.000000	0.000000
7.450818	20.941731	13.587966	0.556645	-0.396467	3.394777	0.000000	-0.100203	0.000000	0.000002	0.000000	0.000000	0.000000
7.999878	19.986626	14.296272	1.172586	-0.901181	3.311964	0.000000	-0.201006	0.000000	0.000002	0.000000	0.000000	0.000000
8.548938	18.396863	15.590599	1.705700	-1.470085	3.174703	0.000000	-0.298243	0.000000	0.000002	0.000000	0.000000	0.000000
9.097998	16.284737	17.563140	2.118333	-2.143700	2.985428	0.000000	-0.390191	0.000000	0.000002	-0.000000	0.000000	0.000000
9.543958	14.636805	19.320821	1.590050	-1.780983	2.829725	0.000000	-0.308485	0.000000	0.000002	0.000000	0.000000	0.000000
9.984918	13.438080	20.701627	1.138708	-1.338464	2.710942	0.000000	-0.230778	0.000000	0.000002	0.000000	0.000000	0.000000
10.425878	12.613044	21.663719	0.739389	-0.835046	2.625813	0.000000	-0.155698	0.000000	0.000002	0.000000	0.000000	0.000000
10.866838	12.124005	22.163323	0.373851	-0.293634	2.573368	0.000000	-0.082392	0.000000	0.000002	0.000000	0.000000	0.000000
11.309048	11.948483	22.177190	0.054590	0.206695	2.552991	0.000000	-0.016285	0.000000	0.000003	0.000000	0.000000	0.000000
11.606371	11.923442	22.058436	0.029632	0.192715	2.548150	0.000000	-0.016285	0.000000	0.000003	0.000000	0.000000	0.000000
12.086371	11.914335	21.884262	-0.010660	0.170147	2.540333	0.000000	-0.016285	0.000000	0.000003	0.000000	0.000000	0.000000
12.566371	11.943910	21.731754	-0.050953	0.147578	2.532516	0.000000	-0.016285	0.000000	0.000003	0.000000	0.000000	0.000000
13.046371	12.012164	21.600912	-0.091245	0.125010	2.524699	0.000000	-0.016285	0.000000	0.000003	0.000000	0.000000	0.000000
13.526371	12.119099	21.491735	-0.131537	0.102441	2.516882	0.000000	-0.016285	0.000000	0.000003	0.000000	0.000000	0.000000
14.007621	12.265145	21.404025	-0.171934	0.079814	2.509045	0.000000	-0.016285	0.000000	0.000003	0.000000	0.000000	0.000000
14.304943	12.374805	21.360720	-0.166546	0.013453	2.504203	0.000000	-0.022426	0.000000	0.000003	0.000000	0.000000	0.000000
14.745903	12.680354	21.115042	-0.529000	0.541572	2.509946	0.000000	0.048496	0.000000	0.000003	0.000000	0.000000	0.000000
15.186863	13.314968	20.412733	-0.915623	1.045049	2.547053	0.000000	0.119969	0.000000	0.000004	0.000000	0.000000	0.000000
15.627823	14.307640	19.285749	-1.344078	1.500977	2.615949	0.000000	0.192809	0.000000	0.000004	0.000001	0.000000	0.000000
16.068783	15.703724	17.785366	-1.833941	1.888612	2.717417	0.000000	0.267845	0.000000	0.000004	0.000001	0.000000	0.000000
16.514743	17.590655	15.958349	-2.412348	2.191065	2.854308	0.000000	0.346393	0.000000	0.000004	0.000001	0.000000	0.000000
17.063803	20.013969	13.918219	-1.975094	1.546544	3.020769	0.000000	0.259064	0.000000	0.000005	0.000001	0.000000	0.000000
17.612863	21.877211	12.521570	-1.398330	1.012180	3.137947	0.000000	0.167140	0.000000	0.000005	0.000000	0.000000	0.000000
18.161923	23.048771	11.668921	-0.722794	0.549911	3.203763	0.000000	0.072251	0.000000	0.000005	0.000000	0.000000	0.000000
18.710983	23.445894	11.299540	0.003796	0.126812	3.217051	0.000000	-0.023920	0.000000	0.000005	0.000000	0.000000	0.000000
19.009556	23.484022	11.214268	-0.070237	0.129265	3.212419	0.000000	-0.015515	0.000000	0.000005	0.000000	0.000000	0.000000
19.342889	23.535601	11.138165	-0.084501	0.099044	3.207247	0.000000	-0.015515	0.000000	0.000005	0.000000	0.000000	0.000000
19.676223	23.596690	11.082210	-0.098766	0.068823	3.202075	0.000000	-0.015515	0.000000	0.000005	0.000000	0.000000	0.000000
20.010806	23.667864	11.046168	-0.230347	0.093219	3.196904	0.000000	0.000324	0.000000	0.000005	0.000000	0.000000	0.000000
20.308129	23.808772	10.998808	-0.305781	0.094805	3.197000	0.000000	0.008677	0.000000	0.000005	0.000000	0.000000	0.000000
20.857189	23.733922	11.117143	0.441299	-0.311599	3.175546	0.000000	-0.086711	0.000000	0.000005	-0.000000	0.000000	0.000000
21.406249	22.851020	11.691253	1.157207	-0.740197	3.102063	0.000000	-0.180562	0.000000	0.000005	-0.000000	0.000000	0.000000
21.955309	21.222430	12.762032	1.791376	-1.221518	2.977856	0.000000	-0.271210	0.000000	0.000005	-0.000000	0.000000	0.000000
22.504369	18.963188	14.405749	2.299011	-1.789845	2.805126	0.000000	-0.357047	0.000000	0.000005	-0.000001	0.000000	0.000000
22.950329	17.182808	15.881385	1.707321	-1.505094	2.663190	0.000000	-0.279840	0.000000	0.000005	-0.000000	0.000000	0.000000
23.391289	15.906374	17.057851	1.198331	-1.152719	2.556114	0.000000	-0.206274	0.000000	0.000005	-0.000000	0.000000	0.000000
23.832249	15.053081	17.899147	0.744089	-0.747895	2.480929	0.000000	-0.135058	0.000000	0.000004	-0.000000	0.000000	0.000000
24.273209	14.583946	18.366995	0.323843	-0.309044	2.436778	0.000000	-0.065380	0.000000	0.000004	-0.000000	0.000000	0.000000
24.715418	14.477649	18.439862	-0.046193	0.098582	2.423157	0.000000	-0.002389	0.000000	0.000004	0.000000	0.000000	0.000000
25.012741	14.511236	18.386082	-0.066773	0.082301	2.422446	0.000000	-0.002389	0.000000	0.000004	0.000000	0.000000	0.000000
25.346075	14.563443	18.337298	-0.089846	0.064049	2.421650	0.000000	-0.002389	0.000000	0.000004	0.000000	0.000000	0.000000
25.679408	14.631031	18.300683	-0.112920	0.045797	2.420854	0.000000	-0.002389	0.000000	0.000004	0.000000	0.000000	0.000000
26.013991	14.714044	18.276538	-0.016709	-0.120793	2.420030	0.000000	-0.022022	0.000000	0.000004	-0.000000	0.000000	0.000000
26.311314	14.729989	18.353274	-0.000801	-0.182304	2.413482	0.000000	-0.027940	0.000000	0.000004	-0.000000	0.000000	0.000000
26.752274	14.912194	18.314970	-0.413968	0.268839	2.416272	0.000000	0.040604	0.000000	0.000004	0.000000	0.000000	0.000000
27.193234	15.465711	17.882689	-0.846048	0.707749	2.449360	0.000000	0.109611	0.000000	0.000004	0.000000	0.000000	0.000000
27.634194	16.415828	17.076099	-1.316782	1.114458	2.513123	0.000000	0.179866	0.000000	0.000005	0.000000	0.000000	0.000000
28.075154	17.805954	15.931900	-1.847675	1.470459	2.608288	0.000000	0.252170	0.000000	0.000005	0.000000	0.000000	0.000000
28.521114	19.723754	14.484919	-2.467943	1.760469	2.737541	0.000000	0.327789	0.000000	0.000005	0.000001	0.000000	0.000000
29.070174	22.161287	12.872585	-1.945243	1.193399	2.894853	0.000000	0.244391	0.000000	0.000005	0.000000	0.000000	0.000000
29.619234	23.945524	11.832910	-1.285141	0.711333	3.005115	0.000000	0.156659	0.000000	0.000005	0.000000	0.000000	0.000000
30.168294	24.950434	11.291839	-0.534263	0.279933	3.066372	0.000000	0.066147	0.000000	0.000006	0.000000	0.000000	0.000000
30.717354	25.105036	11.210834	0.254353	-0.131528	3.077537	0.000000	-0.025537	0.000000	0.000006	-0.000000	0.000000	0.000000
31.015927	24.995996	11.279920	0.176445	-0.129149	3.072314	0.000000	-0.017496	0.000000	0.000006	-0.000000	0.000000	0.000000
31.349260	24.882949	11.376034	0.162694	-0.159193	3.066481	0.000000	-0.017496	0.000000	0.000005	-0.000000	0.000000	0.000000
31.682593	24.779070	11.492177	0.148944	-0.189237	3.060649	0.000000	-0.017496	0.000000	0.000005	-0.000000	0.000000	0.000000
32.017177	24.684020	11.628898	0.135141	-0.219393	3.054795	0.000000	-0.017496	0.000000	0.000005	-0.000000	0.000000	0.000000
32.314499	24.607305	11.767326	0.058585	-0.215447	3.049593	0.000000	-0.009529	0.000000	0.000005	-0.000000	0.000000	0.000000
32.863559	24.121418	12.243219	0.821121	-0.656410	3.019480	0.000000	-0.100001	0.000000	0.000005	-0.000000	0.000000	0.000000
33.412619	22.825223	13.226022	1.525657	-1.144128	2.940106	0.000000	-0.188699	0.000000	0.000005	-0.000000	0.000000	0.000000
33.961679	20.810278	14.785737	2.122428	-1.713340	2.812880	0.000000	-0.274051	0.000000	0.000005	-0.000001	0.000000	0.000000
34.510739	18.218908	17.033459	2.569281	-2.404589	2.640059	0.000000	-0.354541	0.000000	0.000004	-0.000001	0.000000	0.000000
34.956699	16.204104	19.043914	1.964807	-2.084738	2.498289	0.000000	-0.281614	0.000000	0.000004	-0.000001	0.000000	0.000000
35.397659	14.701759	20.706273	1.455106	-1.670781	2.389490	0.000000	-0.212321	0.000000	0.000004	-0.000001	0.000000	0.000000
35.838619	13.618026	21.968511	1.011884	-1.180804	2.310684	0.000000	-0.145447	0.000000	0.000004	-0.000000	0.000000	0.000000
36.279579	12.903395	22.773197	0.614892	-0.637102	2.260975	0.000000	-0.080230	0.000000	0.000004	-0.000000	0.000000	0.000000
36.721789	12.524522	23.084021	0.276599	-0.121074	2.239768	0.000000	-0.021419	0.000000	0.000003	-0.000000	0.000000	0.000000
37.019112	12.367642	23.159903	0.251044	-0.134142	2.233399	0.000000	-0.021419	0.000000	0.000003	-0.000000	0.000000	0.000000
37.352445	12.209830	23.254215	0.222393	-0.148794	2.226260	0.000000	-0.021419	0.000000	0.000003	-0.000000	0.000000	0.000000
37.685779	12.071118	23.358295	0.193743	-0.163446	2.219121	0.000000	-0.021419	0.000000	0.000003	-0.000000	0.000000	0.000000
38.020362	11.951094	23.472588	0.164984	-0.178152	2.211954	0.000000	-0.021419	0.000000	0.000003	-0.000000	0.000000	0.000000
38.317684	11.860585	23.582411	0.168514	-0.249051	2.205586	0.000000	-0.026827	0.000000	0.000003	-0.000000	0.000000	0.000000
38.758644	11.863232	23.540863	-0.174541	0.342914	2.207684	0.000000	0.036349	0.000000	0.000003	-0.000000	0.000000	0.000000
39.199604	12.170787	22.982162	-0.525570	0.919276	2.237704	0.000000	0.099939	0.000000	0.000003	-0.000000	0.000000	0.000000
39.640564	12.797299	21.931727	-0.900611	1.453812	2.295989	0.000000	0.164667	0.000000	0.000003	-0.000000	0.000000	0.000000
40.081524	13.771393	20.437354	-1.316799	1.922200	2.383202	0.000000	0.231270	0.000000	0.000003	0.000000	0.000000	0.000000
40.527484	15.155139	18.544467	-1.796972	2.304410	2.501809	0.000000	0.300913	0.000000	0.000003	0.000000	0.000000	0.000000
41.076544	16.921133	16.417410	-1.400384	1.592455	2.646499	0.000000	0.225358	0.000000	0.000003	0.000000	0.000000	0.000000
41.625604	18.194399	15.005663	-0.904881	0.993928	2.748544	0.000000	0.145805	0.000000	0.000003	-0.000000	0.000000	0.000000
42.174664	18.885000	14.208672	-0.345461	0.466196	2.806136	0.000000	0.063667	0.000000	0.000003	-0.000000	0.000000	0.000000
42.723724	18.944155	13.969668	0.238360	-0.028330	2.818251	0.000000	-0.019601	0.000000	0.000003	-0.000000	0.000000	0.000000
43.022297	18.836250	13.971172	0.172541	-0.013205	2.814597	0.000000	-0.012238	0.000000	0.000003	-0.000000	0.000000	0.000000
43.502297	18.683206	14.000343	0.146299	-0.047568	2.808723	0.000000	-0.012238	0.000000	0.000002	-0.000000	0.000000	0.000000
43.982297	18.555355	14.062502	0.120058	-0.081930	2.802849	0.000000	-0.012238	0.000000	0.000002	-0.000000	0.000000	0.000000
44.462297	18.452695	14.157649	0.093817	-0.116293	2.796974	0.000000	-0.012238	0.000000	0.000002	-0.000000	0.000000	0.000000
44.942297	18.375227	14.285784	0.067575	-0.150655	2.791100	0.000000	-0.012238	0.000000	0.000002	-0.000000	0.000000	0.000000
45.423547	18.323074	14.447191	-0.049517	-0.113527	2.785228	0.000000	0.001562	0.000000	0.000002	-0.000000	0.000000	0.000000
45.720870	18.357356	14.520897	-0.113747	-0.096432	2.785692	0.000000	0.008840	0.000000	0.000002	-0.000000	0.000000	0.000000
46.269930	18.173157	14.907694	0.447242	-0.612199	2.767975	0.000000	-0.073282	0.000000	0.000002	-0.000000	0.000000	0.000000
46.818990	17.386706	15.881343	0.976639	-1.171571	2.705459	0.000000	-0.154105	0.000000	0.000002	-0.000000	0.000000	0.000000
47.368050	16.053552	17.511195	1.437052	-1.814391	2.599252	0.000000	-0.232194	0.000000	0.000001	-0.000000	0.000000	0.000000
47.917110	14.267864	19.913339	1.795959	-2.586446	2.451239	0.000000	-0.306164	0.000000	0.000001	-0.000000	0.000000	0.000000
48.363070	12.878157	22.049130	1.331294	-2.182619	2.329994	0.000000	-0.237868	0.000000	0.000001	-0.000000	0.000000	0.000000
48.804030	11.884249	23.759231	0.931220	-1.680755	2.239563	0.000000	-0.172677	0.000000	0.000001	-0.000000	0.000000	0.000000
49.244990	11.223152	24.991188	0.573691	-1.102418	2.177418	0.000000	-0.109454	0.000000	0.000001	-0.000000	0.000000	0.000000
49.685950	10.864661	25.688946	0.242372	-0.473922	2.142851	0.000000	-0.047477	0.000000	0.000000	-0.000000	0.000000	0.000000
50.128160	10.792527	25.820477	-0.051524	0.112768	2.135479	0.000000	0.008723	0.000000	0.000000	-0.000000	0.000000	0.000000
50.425482	10.831379	25.756887	-0.079146	0.101107	2.138073	0.000000	0.008723	0.000000	0.000000	-0.000000	0.000000	0.000000
50.758816	10.894465	25.693840	-0.110114	0.088033	2.140981	0.000000	0.008723	0.000000	0.000000	-0.000000	0.000000	0.000000
51.092149	10.978197	25.639509	-0.141082	0.074959	2.143888	0.000000	0.008723	0.000000	-0.000000	-0.000000	0.000000	0.000000
51.426732	11.082780	25.594259	-0.082255	-0.145797	2.146785	0.000000	-0.008693	0.000000	-0.000000	-0.000000	0.000000	0.000000
51.724055	11.139722	25.684483	-0.081946	-0.220647	2.144201	0.000000	-0.013951	0.000000	-0.000000	-0.000000	0.000000	0.000000
52.165015	11.357415	25.593351	-0.413607	0.426530	2.151637	0.000000	0.047711	0.000000	-0.000000	-0.000000	0.000000	0.000000
52.605975	11.874803	24.937870	-0.764166	1.054299	2.186358	0.000000	0.109917	0.000000	-0.000001	-0.000000	0.000000	0.000000
53.046935	12.715524	23.747866	-1.149637	1.634099	2.248759	0.000000	0.173374	0.000000	-0.000001	-0.000000	0.000000	0.000000
53.487895	13.917988	22.077482	-1.587631	2.139548	2.339550	0.000000	0.238806	0.000000	-0.000001	-0.000000	0.000000	0.000000
53.933855	15.557741	19.977742	-2.102395	2.548985	2.461271	0.000000	0.307357	0.000000	-0.000001	-0.000000	0.000000	0.000000
54.482915	17.668833	17.615071	-1.719766	1.779536	2.609848	0.000000	0.233052	0.000000	-0.000001	-0.000000	0.000000	0.000000
55.031975	19.290157	16.023202	-1.215661	1.136840	2.716431	0.000000	0.154614	0.000000	-0.000002	-0.000000	0.000000	0.000000
55.581035	20.307188	15.088751	-0.625688	0.575117	2.779129	0.000000	0.073433	0.000000	-0.000002	-0.000000	0.000000	0.000000
56.130095	20.648090	14.745158	0.008480	0.054360	2.796830	0.000000	-0.009051	0.000000	-0.000002	-0.000000	0.000000	0.000000
56.428668	20.679569	14.695789	-0.059960	0.072463	2.796310	0.000000	-0.001743	0.000000	-0.000002	-0.000000	0.000000	0.000000
56.762001	20.724934	14.655081	-0.076137	0.049662	2.795729	0.000000	-0.001743	0.000000	-0.000002	-0.000000	0.000000	0.000000
57.095334	20.781085	14.629574	-0.092314	0.026860	2.795148	0.000000	-0.001743	0.000000	-0.000002	-0.000000	0.000000	0.000000
57.429918	20.848291	14.619257	-0.108551	0.003974	2.794565	0.000000	-0.001743	0.000000	-0.000002	-0.000000	0.000000	0.000000
57.727240	20.917131	14.622941	-0.177634	0.021843	2.794047	0.000000	0.005557	0.000000	-0.000002	-0.000000	0.000000	0.000000
58.276300	20.755300	14.879808	0.470631	-0.492435	2.774458	0.000000	-0.076805	0.000000	-0.000002	-0.000000	0.000000	0.000000
58.825360	19.895718	15.717246	1.085654	-1.041789	2.709956	0.000000	-0.157806	0.000000	-0.000002	-0.000000	0.000000	0.000000
59.374420	18.399101	17.194904	1.623991	-1.665347	2.601683	0.000000	-0.236007	0.000000	-0.000002	-0.000000	0.000000	0.000000
59.923480	16.371162	19.418031	2.047618	-2.407523	2.451561	0.000000	-0.310022	0.000000	-0.000002	0.000000	0.000000	0.000000
60.369440	14.783843	21.394020	1.524317	-2.004640	2.328594	0.000000	-0.241739	0.000000	-0.000002	0.000000	0.000000	0.000000
60.810400	13.642039	22.950605	1.074867	-1.511919	2.236444	0.000000	-0.176607	0.000000	-0.000002	-0.000000	0.000000	0.000000
61.251360	12.873542	24.040540	0.674526	-0.950407	2.172545	0.000000	-0.113487	0.000000	-0.000003	-0.000000	0.000000	0.000000
61.692320	12.443242	24.614233	0.305001	-0.345652	2.136169	0.000000	-0.051658	0.000000	-0.000003	-0.000000	0.000000	0.000000
62.134530	12.331532	24.645046	-0.020449	0.214338	2.126906	0.000000	0.004365	0.000000	-0.000003	-0.000000	0.000000	0.000000
62.431853	12.350864	24.521343	-0.044570	0.201719	2.128204	0.000000	0.004365	0.000000	-0.000003	-0.000000	0.000000	0.000000
62.765186	12.389591	24.391579	-0.071613	0.187572	2.129659	0.000000	0.004365	0.000000	-0.000003	-0.000000	0.000000	0.000000
63.098520	12.446347	24.271246	-0.098655	0.173426	2.131114	0.000000	0.004365	0.000000	-0.000003	-0.000000	0.000000	0.000000
63.433103	12.521445	24.159947	-0.125799	0.159226	2.132575	0.000000	0.004365	0.000000	-0.000003	-0.000000	0.000000	0.000000
63.730426	12.603423	24.069015	-0.119011	0.087581	2.133873	0.000000	-0.000868	0.000000	-0.000003	-0.000000	0.000000	0.000000
64.171386	12.868838	23.726692	-0.485176	0.685779	2.147031	0.000000	0.060602	0.000000	-0.000003	-0.000000	0.000000	0.000000
64.612346	13.465698	22.868603	-0.873507	1.252774	2.187421	0.000000	0.122762	0.000000	-0.000003	-0.000000	0.000000	0.000000
65.053306	14.421272	21.533790	-1.301746	1.762768	2.255503	0.000000	0.186320	0.000000	-0.000004	-0.000000	0.000000	0.000000
65.494266	15.779218	19.782986	-1.789458	2.192559	2.352052	0.000000	0.252000	0.000000	-0.000004	-0.000001	0.000000	0.000000
65.940226	17.624741	17.671071	-2.363618	2.523346	2.479741	0.000000	0.320953	0.000000	-0.000004	-0.000001	0.000000	0.000000
66.489286	19.990392	15.308436	-1.919424	1.805108	2.635597	0.000000	0.245931	0.000000	-0.000004	-0.000001	0.000000	0.000000
67.038346	21.790476	13.659704	-1.339652	1.215444	2.749002	0.000000	0.166548	0.000000	-0.000005	-0.000000	0.000000	0.000000
67.587406	22.897844	12.607440	-0.665253	0.712353	2.817945	0.000000	0.084211	0.000000	-0.000005	-0.000000	0.000000	0.000000
68.136466	23.234278	12.076692	0.056135	0.260002	2.841202	0.000000	0.000380	0.000000	-0.000005	-0.000000	0.000000	0.000000
68.435038	23.240846	11.910599	-0.017425	0.264732	2.843532	0.000000	0.007803	0.000000	-0.000005	-0.000000	0.000000	0.000000
68.768372	23.257245	11.744093	-0.031772	0.234785	2.846133	0.000000	0.007803	0.000000	-0.000005	-0.000000	0.000000	0.000000
69.101705	23.283208	11.597552	-0.046119	0.204837	2.848734	0.000000	0.007803	0.000000	-0.000005	-0.000000	0.000000	0.000000
69.436288	23.318888	11.470540	-0.060519	0.174777	2.851345	0.000000	0.007803	0.000000	-0.000005	-0.000000	0.000000	0.000000
69.733611	23.358680	11.374551	-0.134351	0.177786	2.853665	0.000000	0.015260	0.000000	-0.000005	-0.000000	0.000000	0.000000
70.282671	23.105047	11.407059	0.593556	-0.237342	2.838859	0.000000	-0.069112	0.000000	-0.000005	0.000000	0.000000	0.000000
