#ParticleID	Turn	x[m]	xp	y[m]	yp	z[m]	dE[GeV]# s	beta_x	beta_y	alpha_x	alpha_y	D_x	D_y	D_px	D_py	orbit_x	orbit_px	orbit_y	orbit_py
0.300000	11.814390	25.015737	-0.011134	-0.027291	2.618111	0.000000	0.000012	0.000000	-0.000001	0.000001	0.000000	0.000000
0.601250	11.828781	25.035810	-0.036636	-0.039342	2.618115	0.000000	0.000012	0.000000	-0.000001	0.000001	0.000000	0.000000
0.898573	11.858049	25.062741	-0.032726	-0.112697	2.618118	0.000000	-0.006408	0.000000	-0.000001	0.000001	0.000000	0.000000
1.339533	12.039048	24.884119	-0.379296	0.516231	2.631585	0.000000	0.067549	0.000000	-0.000000	0.000001	0.000000	0.000000
1.780493	12.532152	24.159111	-0.743196	1.121671	2.677803	0.000000	0.142276	0.000000	0.000000	0.000001	0.000000	0.000000
2.221453	13.359888	22.920704	-1.141049	1.676076	2.757297	0.000000	0.218623	0.000000	0.000001	0.000001	0.000000	0.000000
2.662413	14.560075	21.225244	-1.591035	2.154221	2.870975	0.000000	0.297460	0.000000	0.000001	0.000001	0.000000	0.000000
3.108373	16.208294	19.125009	-2.118000	2.535483	3.021990	0.000000	0.380175	0.000000	0.000002	0.000001	0.000000	0.000000
3.657433	18.321859	16.766140	-1.708638	1.786070	3.205457	0.000000	0.287137	0.000000	0.000003	0.000001	0.000000	0.000000
4.206493	19.916559	15.155947	-1.178586	1.163875	3.336364	0.000000	0.189006	0.000000	0.000003	0.000001	0.000000	0.000000
4.755553	20.879752	14.179740	-0.565286	0.624580	3.412391	0.000000	0.087522	0.000000	0.000004	0.000001	0.000000	0.000000
5.304613	21.143402	13.767986	0.087944	0.129773	3.432188	0.000000	-0.015514	0.000000	0.000005	0.000001	0.000000	0.000000
5.603185	21.128094	13.675665	0.018566	0.143463	3.430233	0.000000	-0.006546	0.000000	0.000005	0.000001	0.000000	0.000000
5.936519	21.120977	13.588315	0.002784	0.118587	3.428051	0.000000	-0.006546	0.000000	0.000005	0.000001	0.000000	0.000000
6.269852	21.124382	13.517549	-0.012998	0.093711	3.425868	0.000000	-0.006546	0.000000	0.000005	0.000001	0.000000	0.000000
6.604435	21.138380	13.463195	-0.028840	0.068742	3.423678	0.000000	-0.006546	0.000000	0.000006	0.000001	0.000000	0.000000
6.901758	21.159715	13.428915	-0.098200	0.081639	3.421731	0.000000	0.002394	0.000000	0.000006	0.000001	0.000000	0.000000
7.450818	20.906923	13.600065	0.555884	-0.395193	3.394844	0.000000	-0.100189	0.000000	0.000006	0.000001	0.000000	0.000000
7.999878	19.953277	14.307125	1.170704	-0.900173	3.312038	0.000000	-0.200994	0.000000	0.000007	0.000001	0.000000	0.000000
8.548938	18.366138	15.600458	1.702831	-1.469271	3.174783	0.000000	-0.298234	0.000000	0.000007	0.000000	0.000000	0.000000
9.097998	16.257614	17.572185	2.114679	-2.143022	2.985513	0.000000	-0.390184	0.000000	0.000007	0.000000	0.000000	0.000000
9.543958	14.612575	19.329095	1.587196	-1.779942	2.829813	0.000000	-0.308476	0.000000	0.000007	0.000000	0.000000	0.000000
9.984918	13.416066	20.708841	1.136516	-1.337109	2.711034	0.000000	-0.230766	0.000000	0.000007	0.000000	0.000000	0.000000
10.425878	12.592709	21.669622	0.737760	-0.833439	2.625911	0.000000	-0.155684	0.000000	0.000008	0.000001	0.000000	0.000000
10.866838	12.104886	22.167724	0.372711	-0.291848	2.573473	0.000000	-0.082375	0.000000	0.000008	0.000001	0.000000	0.000000
11.309048	11.930176	22.179962	0.053839	0.208574	2.553104	0.000000	-0.016265	0.000000	0.000008	0.000001	0.000000	0.000000
11.606371	11.905592	22.060094	0.028845	0.194586	2.548267	0.000000	-0.016265	0.000000	0.000009	0.000001	0.000000	0.000000
12.086371	11.897269	21.884131	-0.011506	0.172003	2.540460	0.000000	-0.016265	0.000000	0.000009	0.000001	0.000000	0.000000
12.566371	11.927683	21.729848	-0.051857	0.149420	2.532652	0.000000	-0.016265	0.000000	0.000009	0.000001	0.000000	0.000000
13.046371	11.996834	21.597244	-0.092207	0.126838	2.524844	0.000000	-0.016265	0.000000	0.000010	0.000001	0.000000	0.000000
13.526371	12.104721	21.486320	-0.132558	0.104255	2.517036	0.000000	-0.016265	0.000000	0.000010	0.000001	0.000000	0.000000
14.007621	12.251778	21.396870	-0.173014	0.081614	2.509208	0.000000	-0.016265	0.000000	0.000011	0.000001	0.000000	0.000000
14.304943	12.362091	21.352498	-0.167696	0.015269	2.504372	0.000000	-0.022406	0.000000	0.000011	0.000001	0.000000	0.000000
14.745903	12.668539	21.105328	-0.529898	0.543125	2.510124	0.000000	0.048520	0.000000	0.000012	0.000001	0.000000	0.000000
15.186863	13.303849	20.401791	-0.916309	1.046270	2.547243	0.000000	0.119998	0.000000	0.000012	0.000002	0.000000	0.000000
15.627823	14.297045	19.273897	-1.344584	1.501811	2.616152	0.000000	0.192843	0.000000	0.000013	0.000002	0.000000	0.000000
16.068783	15.693504	17.772964	-1.834289	1.889020	2.717635	0.000000	0.267884	0.000000	0.000014	0.000002	0.000000	0.000000
16.514743	17.580682	15.945781	-2.412556	2.191026	2.854544	0.000000	0.346439	0.000000	0.000015	0.000003	0.000000	0.000000
17.063803	20.004482	13.905555	-1.975763	1.546760	3.021027	0.000000	0.259101	0.000000	0.000016	0.000002	0.000000	0.000000
17.612863	21.868693	12.508522	-1.399413	1.012667	3.138223	0.000000	0.167168	0.000000	0.000017	0.000002	0.000000	0.000000
18.161923	23.041636	11.655175	-0.724215	0.550704	3.204052	0.000000	0.072270	0.000000	0.000018	0.000001	0.000000	0.000000
18.710983	23.440460	11.284732	0.002138	0.127966	3.217347	0.000000	-0.023910	0.000000	0.000019	0.000000	0.000000	0.000000
19.009556	23.479567	11.198809	-0.071880	0.130332	3.212718	0.000000	-0.015505	0.000000	0.000019	0.000000	0.000000	0.000000
19.342889	23.532243	11.122011	-0.086150	0.100061	3.207549	0.000000	-0.015505	0.000000	0.000019	0.000000	0.000000	0.000000
19.676223	23.594433	11.065394	-0.100420	0.069791	3.202381	0.000000	-0.015505	0.000000	0.000019	0.000000	0.000000	0.000000
20.010806	23.666716	11.028722	-0.232002	0.094050	3.197213	0.000000	0.000336	0.000000	0.000019	0.000001	0.000000	0.000000
20.308129	23.808611	10.980882	-0.307438	0.095539	3.197312	0.000000	0.008688	0.000000	0.000019	0.000001	0.000000	0.000000
20.857189	23.735575	11.098131	0.439672	-0.310345	3.175861	0.000000	-0.086710	0.000000	0.000019	-0.000000	0.000000	0.000000
21.406249	22.854390	11.670540	1.155725	-0.738333	3.102376	0.000000	-0.180571	0.000000	0.000019	-0.000001	0.000000	0.000000
21.955309	21.227298	12.738879	1.790144	-1.218912	2.978161	0.000000	-0.271229	0.000000	0.000019	-0.000001	0.000000	0.000000
22.504369	18.969230	14.379244	2.298116	-1.786310	2.805419	0.000000	-0.357076	0.000000	0.000018	-0.000002	0.000000	0.000000
22.950329	17.189661	15.851990	1.706392	-1.502175	2.663472	0.000000	-0.279861	0.000000	0.000017	-0.000001	0.000000	0.000000
23.391289	15.914076	17.026202	1.197325	-1.150545	2.556388	0.000000	-0.206289	0.000000	0.000017	-0.000001	0.000000	0.000000
23.832249	15.061722	17.865948	0.742960	-0.746568	2.481198	0.000000	-0.135065	0.000000	0.000016	-0.000001	0.000000	0.000000
24.273209	14.593655	18.333022	0.322538	-0.308621	2.437046	0.000000	-0.065380	0.000000	0.000016	-0.000000	0.000000	0.000000
24.715418	14.488611	18.405925	-0.047709	0.098168	2.423426	0.000000	-0.002382	0.000000	0.000016	0.000000	0.000000	0.000000
25.012741	14.523096	18.352399	-0.068277	0.081859	2.422718	0.000000	-0.002382	0.000000	0.000016	0.000000	0.000000	0.000000
25.346075	14.576300	18.303922	-0.091335	0.063574	2.421924	0.000000	-0.002382	0.000000	0.000016	0.000000	0.000000	0.000000
25.679408	14.644877	18.267634	-0.114394	0.045289	2.421129	0.000000	-0.002382	0.000000	0.000016	0.000000	0.000000	0.000000
26.013991	14.728871	18.243839	-0.018050	-0.121067	2.420308	0.000000	-0.022017	0.000000	0.000016	0.000000	0.000000	0.000000
26.311314	14.745608	18.320747	-0.002088	-0.182524	2.413762	0.000000	-0.027936	0.000000	0.000016	0.000000	0.000000	0.000000
26.752274	14.929121	18.283026	-0.415658	0.267742	2.416555	0.000000	0.040616	0.000000	0.000017	0.000000	0.000000	0.000000
27.193234	15.484335	17.852081	-0.848220	0.705826	2.449649	0.000000	0.109630	0.000000	0.000017	0.000001	0.000000	0.000000
27.634194	16.436615	17.047521	-1.319534	1.111795	2.513422	0.000000	0.179893	0.000000	0.000017	0.000001	0.000000	0.000000
28.075154	17.829469	15.905952	-1.851133	1.467179	2.608599	0.000000	0.252205	0.000000	0.000018	0.000002	0.000000	0.000000
28.521114	19.750730	14.462118	-2.472273	1.756719	2.737869	0.000000	0.327832	0.000000	0.000019	0.000002	0.000000	0.000000
29.070174	22.192664	12.853403	-1.948878	1.190518	2.895201	0.000000	0.244423	0.000000	0.000020	0.000002	0.000000	0.000000
29.619234	23.980392	11.816510	-1.287825	0.709116	3.005477	0.000000	0.156679	0.000000	0.000021	0.000001	0.000000	0.000000
30.168294	24.987637	11.277584	-0.535805	0.278221	3.066742	0.000000	0.066156	0.000000	0.000021	0.000000	0.000000	0.000000
30.717354	25.143253	11.198238	0.254061	-0.132856	3.077909	0.000000	-0.025541	0.000000	0.000021	-0.000000	0.000000	0.000000
31.015927	25.034435	11.268149	0.176081	-0.130550	3.072684	0.000000	-0.017500	0.000000	0.000021	-0.000000	0.000000	0.000000
31.349260	24.921624	11.365212	0.162354	-0.160637	3.066850	0.000000	-0.017500	0.000000	0.000021	-0.000000	0.000000	0.000000
31.682593	24.817964	11.482331	0.148626	-0.190723	3.061017	0.000000	-0.017500	0.000000	0.000021	-0.000000	0.000000	0.000000
32.017177	24.723119	11.620061	0.134846	-0.220922	3.055162	0.000000	-0.017500	0.000000	0.000021	-0.000000	0.000000	0.000000
32.314499	24.646574	11.759410	0.058216	-0.217038	3.049959	0.000000	-0.009533	0.000000	0.000021	-0.000000	0.000000	0.000000
32.863559	24.160373	12.236965	0.822057	-0.657865	3.019840	0.000000	-0.100017	0.000000	0.000020	-0.000001	0.000000	0.000000
33.412619	22.862459	13.221338	1.527832	-1.145551	2.940455	0.000000	-0.188727	0.000000	0.000020	-0.000002	0.000000	0.000000
33.961679	20.844511	14.782644	2.125688	-1.714832	2.813212	0.000000	-0.274089	0.000000	0.000019	-0.000002	0.000000	0.000000
34.510739	18.249066	17.032092	2.573396	-2.406256	2.640368	0.000000	-0.354590	0.000000	0.000017	-0.000003	0.000000	0.000000
34.956699	16.231008	19.044138	1.968017	-2.086624	2.498579	0.000000	-0.281654	0.000000	0.000016	-0.000002	0.000000	0.000000
35.397659	14.726171	20.708225	1.457564	-1.672798	2.389764	0.000000	-0.212355	0.000000	0.000015	-0.000002	0.000000	0.000000
35.838619	13.640559	21.972267	1.013704	-1.182860	2.310946	0.000000	-0.145474	0.000000	0.000014	-0.000002	0.000000	0.000000
36.279579	12.924572	22.778749	0.616156	-0.639103	2.261226	0.000000	-0.080250	0.000000	0.000014	-0.000001	0.000000	0.000000
36.721789	12.544805	23.091285	0.277413	-0.122941	2.240012	0.000000	-0.021432	0.000000	0.000013	-0.000001	0.000000	0.000000
37.019112	12.387431	23.168277	0.251889	-0.136012	2.233640	0.000000	-0.021432	0.000000	0.000013	-0.000001	0.000000	0.000000
37.352445	12.229044	23.263836	0.223272	-0.150665	2.226496	0.000000	-0.021432	0.000000	0.000013	-0.000001	0.000000	0.000000
37.685779	12.089735	23.369164	0.194656	-0.165319	2.219353	0.000000	-0.021432	0.000000	0.000013	-0.000001	0.000000	0.000000
38.020362	11.969088	23.484712	0.165932	-0.180028	2.212182	0.000000	-0.021432	0.000000	0.000012	-0.000001	0.000000	0.000000
38.317684	11.878006	23.595650	0.169533	-0.250955	2.205810	0.000000	-0.026841	0.000000	0.000012	-0.000001	0.000000	0.000000
38.758644	11.879929	23.555622	-0.173909	0.341386	2.207903	0.000000	0.036341	0.000000	0.000012	-0.000001	0.000000	0.000000
39.199604	12.187084	22.998075	-0.525295	0.918195	2.237921	0.000000	0.099936	0.000000	0.000012	-0.000000	0.000000	0.000000
39.640564	12.813506	21.948379	-0.900681	1.453226	2.296206	0.000000	0.164670	0.000000	0.000011	0.000000	0.000000	0.000000
40.081524	13.787814	20.454293	-1.317216	1.922137	2.383422	0.000000	0.231279	0.000000	0.000012	0.000000	0.000000	0.000000
40.527484	15.172095	18.561225	-1.797758	2.304876	2.502034	0.000000	0.300928	0.000000	0.000012	0.000001	0.000000	0.000000
41.076544	16.938606	16.433889	-1.400533	1.592498	2.646730	0.000000	0.225365	0.000000	0.000012	0.000000	0.000000	0.000000
41.625604	18.211679	15.022326	-0.904381	0.993549	2.748778	0.000000	0.145805	0.000000	0.000012	-0.000000	0.000000	0.000000
42.174664	18.901388	14.225993	-0.344348	0.465369	2.806367	0.000000	0.063659	0.000000	0.000012	-0.000001	0.000000	0.000000
42.723724	18.959017	13.988168	0.240008	-0.029663	2.818476	0.000000	-0.019617	0.000000	0.000011	-0.000001	0.000000	0.000000
43.022297	18.850148	13.990432	0.174157	-0.014464	2.814818	0.000000	-0.012253	0.000000	0.000011	-0.000001	0.000000	0.000000
43.502297	18.695550	14.020789	0.147921	-0.048780	2.808937	0.000000	-0.012253	0.000000	0.000011	-0.000001	0.000000	0.000000
43.982297	18.566140	14.084089	0.121684	-0.083096	2.803056	0.000000	-0.012253	0.000000	0.000010	-0.000001	0.000000	0.000000
44.462297	18.461916	14.180334	0.095448	-0.117413	2.797175	0.000000	-0.012253	0.000000	0.000010	-0.000001	0.000000	0.000000
44.942297	18.382880	14.309522	0.069212	-0.151729	2.791293	0.000000	-0.012253	0.000000	0.000009	-0.000001	0.000000	0.000000
45.423547	18.329149	14.471939	-0.047906	-0.114432	2.785414	0.000000	0.001547	0.000000	0.000009	-0.000001	0.000000	0.000000
45.720870	18.362470	14.546174	-0.112138	-0.097242	2.785875	0.000000	0.008826	0.000000	0.000009	-0.000001	0.000000	0.000000
46.269930	18.176425	14.934289	0.448976	-0.613801	2.768148	0.000000	-0.073302	0.000000	0.000008	-0.000001	0.000000	0.000000
46.818990	17.388054	15.910182	0.978378	-1.174079	2.705620	0.000000	-0.154130	0.000000	0.000007	-0.000001	0.000000	0.000000
47.368050	16.053047	17.543365	1.438671	-1.817985	2.599399	0.000000	-0.232224	0.000000	0.000007	-0.000002	0.000000	0.000000
47.917110	14.265699	19.950165	1.797344	-2.591382	2.451368	0.000000	-0.306199	0.000000	0.000006	-0.000002	0.000000	0.000000
48.363070	12.874801	22.090012	1.332591	-2.186740	2.330109	0.000000	-0.237899	0.000000	0.000005	-0.000002	0.000000	0.000000
48.804030	11.879766	23.803319	0.932489	-1.683876	2.239665	0.000000	-0.172706	0.000000	0.000004	-0.000002	0.000000	0.000000
49.244990	11.217540	25.037533	0.574991	-1.104398	2.177508	0.000000	-0.109480	0.000000	0.000004	-0.000001	0.000000	0.000000
49.685950	10.857867	25.736498	0.243762	-0.474670	2.142931	0.000000	-0.047501	0.000000	0.000003	-0.000001	0.000000	0.000000
50.128160	10.784440	25.868130	-0.050001	0.113170	2.135549	0.000000	0.008701	0.000000	0.000002	-0.000001	0.000000	0.000000
50.425482	10.822391	25.804295	-0.077640	0.101530	2.138137	0.000000	0.008701	0.000000	0.000002	-0.000001	0.000000	0.000000
50.758816	10.884479	25.740959	-0.108626	0.088479	2.141037	0.000000	0.008701	0.000000	0.000002	-0.000001	0.000000	0.000000
51.092149	10.967225	25.686324	-0.139612	0.075428	2.143938	0.000000	0.008701	0.000000	0.000001	-0.000001	0.000000	0.000000
51.426732	11.070830	25.640753	-0.080900	-0.145682	2.146828	0.000000	-0.008716	0.000000	0.000001	-0.000001	0.000000	0.000000
51.724055	11.126975	25.730903	-0.080646	-0.220624	2.144237	0.000000	-0.013974	0.000000	0.000000	-0.000001	0.000000	0.000000
52.165015	11.343383	25.639208	-0.411984	0.427777	2.151664	0.000000	0.047689	0.000000	-0.000000	-0.000001	0.000000	0.000000
52.605975	11.859170	24.982107	-0.762145	1.056714	2.186376	0.000000	0.109895	0.000000	-0.000001	-0.000001	0.000000	0.000000
53.046935	12.697900	23.789496	-1.147125	1.637572	2.248768	0.000000	0.173353	0.000000	-0.000001	-0.000001	0.000000	0.000000
53.487895	13.897891	22.115639	-1.584515	2.143922	2.339550	0.000000	0.238785	0.000000	-0.000002	-0.000001	0.000000	0.000000
53.933855	15.534540	20.011668	-2.098526	2.554062	2.461262	0.000000	0.307336	0.000000	-0.000003	-0.000001	0.000000	0.000000
54.482915	17.641685	17.644159	-1.716489	1.783321	2.609828	0.000000	0.233032	0.000000	-0.000003	-0.000001	0.000000	0.000000
55.031975	19.259844	16.048716	-1.213209	1.139602	2.716401	0.000000	0.154594	0.000000	-0.000004	-0.000001	0.000000	0.000000
55.581035	20.274717	15.111700	-0.624234	0.577055	2.779089	0.000000	0.073414	0.000000	-0.000005	-0.000001	0.000000	0.000000
56.130095	20.614620	14.766367	0.008834	0.055610	2.796780	0.000000	-0.009068	0.000000	-0.000005	-0.000001	0.000000	0.000000
56.428668	20.645843	14.716211	-0.059543	0.073794	2.796255	0.000000	-0.001760	0.000000	-0.000005	-0.000001	0.000000	0.000000
56.762001	20.690939	14.674606	-0.075746	0.051020	2.795669	0.000000	-0.001760	0.000000	-0.000006	-0.000001	0.000000	0.000000
57.095334	20.746837	14.648184	-0.091948	0.028246	2.795083	0.000000	-0.001760	0.000000	-0.000006	-0.000001	0.000000	0.000000
57.429918	20.813807	14.636931	-0.108211	0.005387	2.794494	0.000000	-0.001760	0.000000	-0.000006	-0.000001	0.000000	0.000000
57.727240	20.882451	14.639767	-0.177229	0.023326	2.793971	0.000000	0.005541	0.000000	-0.000007	-0.000001	0.000000	0.000000
58.276300	20.720814	14.895264	0.469873	-0.491408	2.774375	0.000000	-0.076819	0.000000	-0.000007	-0.000001	0.000000	0.000000
58.825360	19.862683	15.731789	1.083785	-1.041143	2.709865	0.000000	-0.157817	0.000000	-0.000007	-0.000000	0.000000	0.000000
59.374420	18.368670	17.208924	1.621145	-1.665037	2.601587	0.000000	-0.236015	0.000000	-0.000008	-0.000000	0.000000	0.000000
59.923480	16.344306	19.431884	2.043994	-2.407527	2.451461	0.000000	-0.310027	0.000000	-0.000008	0.000000	0.000000	0.000000
60.369440	14.759856	21.407667	1.521485	-2.004176	2.328491	0.000000	-0.241747	0.000000	-0.000008	-0.000000	0.000000	0.000000
60.810400	13.620251	22.963644	1.072692	-1.511011	2.236338	0.000000	-0.176618	0.000000	-0.000008	-0.000000	0.000000	0.000000
61.251360	12.853420	24.052597	0.672907	-0.949096	2.172434	0.000000	-0.113500	0.000000	-0.000008	-0.000001	0.000000	0.000000
61.692320	12.424331	24.624978	0.303865	-0.343999	2.136051	0.000000	-0.051675	0.000000	-0.000008	-0.000001	0.000000	0.000000
62.134530	12.313430	24.654204	-0.021197	0.216232	2.126780	0.000000	0.004346	0.000000	-0.000009	-0.000001	0.000000	0.000000
62.431853	12.333217	24.529376	-0.045354	0.203609	2.128073	0.000000	0.004346	0.000000	-0.000009	-0.000001	0.000000	0.000000
62.765186	12.372481	24.398354	-0.072437	0.189456	2.129522	0.000000	0.004346	0.000000	-0.000009	-0.000001	0.000000	0.000000
63.098520	12.429799	24.276768	-0.099519	0.175304	2.130971	0.000000	0.004346	0.000000	-0.000010	-0.000001	0.000000	0.000000
63.433103	12.505490	24.164213	-0.126704	0.161098	2.132425	0.000000	0.004346	0.000000	-0.000010	-0.000001	0.000000	0.000000
63.730426	12.588016	24.072170	-0.119988	0.089436	2.133718	0.000000	-0.000887	0.000000	-0.000010	-0.000001	0.000000	0.000000
64.171386	12.854147	23.728189	-0.485827	0.687669	2.146867	0.000000	0.060579	0.000000	-0.000011	-0.000001	0.000000	0.000000
64.612346	13.451448	22.868449	-0.873861	1.254613	2.187246	0.000000	0.122734	0.000000	-0.000012	-0.000002	0.000000	0.000000
65.053306	14.407210	21.532067	-1.301820	1.764474	2.255315	0.000000	0.186288	0.000000	-0.000012	-0.000002	0.000000	0.000000
65.494266	15.765098	19.779848	-1.789254	2.194052	2.351849	0.000000	0.251963	0.000000	-0.000013	-0.000002	0.000000	0.000000
65.940226	17.610312	17.666723	-2.363127	2.524556	2.479520	0.000000	0.320909	0.000000	-0.000014	-0.000003	0.000000	0.000000
66.489286	19.975736	15.302803	-1.919506	1.806254	2.635356	0.000000	0.245896	0.000000	-0.000015	-0.000002	0.000000	0.000000
67.038346	21.776223	13.652811	-1.340302	1.216607	2.748744	0.000000	0.166521	0.000000	-0.000016	-0.000002	0.000000	0.000000
67.587406	22.884597	12.599221	-0.666425	0.713617	2.817674	0.000000	0.084192	0.000000	-0.000017	-0.000001	0.000000	0.000000
68.136466	23.222567	12.066990	0.054525	0.261456	2.840924	0.000000	0.000369	0.000000	-0.000018	-0.000000	0.000000	0.000000
68.435038	23.230085	11.900054	-0.019018	0.266122	2.843251	0.000000	0.007793	0.000000	-0.000018	-0.000000	0.000000	0.000000
68.768372	23.247548	11.732637	-0.033373	0.236128	2.845849	0.000000	0.007793	0.000000	-0.000018	-0.000000	0.000000	0.000000
69.101705	23.274582	11.585217	-0.047727	0.206133	2.848446	0.000000	0.007793	0.000000	-0.000018	-0.000000	0.000000	0.000000
69.436288	23.311340	11.457354	-0.062135	0.176025	2.851054	0.000000	0.007793	0.000000	-0.000018	-0.000000	0.000000	0.000000
69.733611	23.352095	11.360636	-0.135963	0.178959	2.853371	0.000000	0.015250	0.000000	-0.000018	-0.000001	0.000000	0.000000
70.282671	23.100337	11.391637	0.591774	-0.235755	2.838563	0.000000	-0.069112	0.000000	-0.000018	0.000000	0.000000	0.000000
