#ParticleID	Turn	x[m]	xp	y[m]	yp	z[m]	dE[GeV]# s	beta_x	beta_y	alpha_x	alpha_y	D_x	D_y	D_px	D_py	orbit_x	orbit_px	orbit_y	orbit_py
0.300000	11.804352	25.055176	-0.010173	-0.026815	2.618305	0.000000	-0.000062	0.000000	-0.000002	0.000002	0.000000	0.000000
0.601250	11.818170	25.074957	-0.035696	-0.038847	2.618286	0.000000	-0.000062	0.000000	-0.000001	0.000002	0.000000	0.000000
0.898573	11.846886	25.101588	-0.031834	-0.112279	2.618267	0.000000	-0.006483	0.000000	-0.000001	0.000002	0.000000	0.000000
1.339533	12.026979	24.922145	-0.378127	0.517667	2.631702	0.000000	0.067478	0.000000	0.000000	0.000002	0.000000	0.000000
1.780493	12.518910	24.195443	-0.741695	1.124060	2.677889	0.000000	0.142207	0.000000	0.000001	0.000002	0.000000	0.000000
2.221453	13.345153	22.954548	-1.139150	1.679309	2.757354	0.000000	0.218556	0.000000	0.000002	0.000002	0.000000	0.000000
2.662413	14.543458	21.255918	-1.588649	2.158151	2.871002	0.000000	0.297395	0.000000	0.000003	0.000002	0.000000	0.000000
3.108373	16.189290	19.151931	-2.115014	2.539932	3.021988	0.000000	0.380110	0.000000	0.000003	0.000002	0.000000	0.000000
3.657433	18.299836	16.788791	-1.706157	1.789447	3.205419	0.000000	0.287072	0.000000	0.000004	0.000002	0.000000	0.000000
4.206493	19.892171	15.175366	-1.176786	1.166421	3.336291	0.000000	0.188943	0.000000	0.000005	0.000002	0.000000	0.000000
4.755553	20.853821	14.196734	-0.564292	0.626477	3.412284	0.000000	0.087462	0.000000	0.000006	0.000001	0.000000	0.000000
5.304613	21.116858	13.783190	0.088060	0.131154	3.432049	0.000000	-0.015569	0.000000	0.000007	0.000001	0.000000	0.000000
5.603185	21.101445	13.690017	0.018734	0.144898	3.430077	0.000000	-0.006603	0.000000	0.000007	0.000001	0.000000	0.000000
5.936519	21.094223	13.601705	0.002932	0.120038	3.427876	0.000000	-0.006603	0.000000	0.000008	0.000001	0.000000	0.000000
6.269852	21.097536	13.529966	-0.012870	0.095178	3.425675	0.000000	-0.006603	0.000000	0.000008	0.000001	0.000000	0.000000
6.604435	21.111455	13.474625	-0.028732	0.070225	3.423465	0.000000	-0.006603	0.000000	0.000008	0.000001	0.000000	0.000000
6.901758	21.132731	13.439459	-0.098039	0.083163	3.421502	0.000000	0.002337	0.000000	0.000009	0.000001	0.000000	0.000000
7.450818	20.880257	13.609091	0.555146	-0.393936	3.394585	0.000000	-0.100238	0.000000	0.000009	0.000001	0.000000	0.000000
7.999878	19.927896	14.314876	1.169117	-0.899094	3.311754	0.000000	-0.201034	0.000000	0.000010	0.000001	0.000000	0.000000
8.548938	18.342918	15.607087	1.700508	-1.468293	3.174479	0.000000	-0.298264	0.000000	0.000010	0.000000	0.000000	0.000000
9.097998	16.237276	17.577763	2.111783	-2.142075	2.985195	0.000000	-0.390204	0.000000	0.000010	-0.000000	0.000000	0.000000
9.543958	14.594538	19.333707	1.584914	-1.778726	2.829485	0.000000	-0.308505	0.000000	0.000010	0.000000	0.000000	0.000000
9.984918	13.399812	20.712282	1.134739	-1.335682	2.710691	0.000000	-0.230804	0.000000	0.000010	0.000001	0.000000	0.000000
10.425878	12.577829	21.671735	0.736407	-0.831866	2.625548	0.000000	-0.155731	0.000000	0.000011	0.000001	0.000000	0.000000
10.866838	12.091036	22.168412	0.371720	-0.290200	2.573088	0.000000	-0.082432	0.000000	0.000011	0.000001	0.000000	0.000000
11.309048	11.917059	22.179187	0.053131	0.210225	2.552691	0.000000	-0.016331	0.000000	0.000012	0.000001	0.000000	0.000000
11.606371	11.892904	22.058340	0.028112	0.196227	2.547835	0.000000	-0.016331	0.000000	0.000012	0.000001	0.000000	0.000000
12.086371	11.885305	21.880809	-0.012281	0.173629	2.539996	0.000000	-0.016331	0.000000	0.000013	0.000001	0.000000	0.000000
12.566371	11.916483	21.724973	-0.052673	0.151030	2.532156	0.000000	-0.016331	0.000000	0.000013	0.000001	0.000000	0.000000
13.046371	11.986437	21.590831	-0.093065	0.128432	2.524317	0.000000	-0.016331	0.000000	0.000014	0.000001	0.000000	0.000000
13.526371	12.095167	21.478384	-0.133457	0.105833	2.516477	0.000000	-0.016331	0.000000	0.000014	0.000001	0.000000	0.000000
14.007621	12.243108	21.387423	-0.173954	0.083176	2.508618	0.000000	-0.016331	0.000000	0.000015	0.000001	0.000000	0.000000
14.304943	12.353988	21.342124	-0.168683	0.016849	2.503762	0.000000	-0.022470	0.000000	0.000016	0.000001	0.000000	0.000000
14.745903	12.661237	21.093694	-0.530733	0.544392	2.509481	0.000000	0.048440	0.000000	0.000016	0.000002	0.000000	0.000000
15.186863	13.297230	20.389199	-0.917030	1.047166	2.546561	0.000000	0.119901	0.000000	0.000017	0.000002	0.000000	0.000000
15.627823	14.291025	19.260694	-1.345224	1.502295	2.615423	0.000000	0.192728	0.000000	0.000018	0.000003	0.000000	0.000000
16.068783	15.688024	17.759525	-1.834878	1.889070	2.716851	0.000000	0.267749	0.000000	0.000019	0.000003	0.000000	0.000000
16.514743	17.575716	15.932494	-2.413121	2.190636	2.853695	0.000000	0.346283	0.000000	0.000021	0.000004	0.000000	0.000000
17.063803	20.000296	13.892524	-1.976611	1.546681	3.020100	0.000000	0.258974	0.000000	0.000023	0.000003	0.000000	0.000000
17.612863	21.865566	12.495410	-1.400483	1.012893	3.137233	0.000000	0.167072	0.000000	0.000024	0.000002	0.000000	0.000000
18.161923	23.039772	11.641641	-0.725432	0.551251	3.203019	0.000000	0.072207	0.000000	0.000025	0.000001	0.000000	0.000000
18.710983	23.439975	11.270404	0.000861	0.128873	3.216288	0.000000	-0.023940	0.000000	0.000025	0.000001	0.000000	0.000000
19.009556	23.479842	11.183975	-0.073155	0.131158	3.211649	0.000000	-0.015538	0.000000	0.000026	0.000001	0.000000	0.000000
19.342889	23.533370	11.106642	-0.087427	0.100841	3.206469	0.000000	-0.015538	0.000000	0.000026	0.000001	0.000000	0.000000
19.676223	23.596412	11.049521	-0.101700	0.070524	3.201290	0.000000	-0.015538	0.000000	0.000026	0.000001	0.000000	0.000000
20.010806	23.669553	11.012374	-0.233298	0.094655	3.196111	0.000000	0.000298	0.000000	0.000026	0.000001	0.000000	0.000000
20.308129	23.812221	10.964187	-0.308746	0.096055	3.196199	0.000000	0.008647	0.000000	0.000026	0.000001	0.000000	0.000000
20.857189	23.740548	11.080610	0.438511	-0.309348	3.174735	0.000000	-0.086716	0.000000	0.000027	-0.000000	0.000000	0.000000
21.406249	22.860519	11.651630	1.154793	-0.736785	3.101257	0.000000	-0.180540	0.000000	0.000026	-0.000001	0.000000	0.000000
21.955309	21.234294	12.717918	1.789507	-1.216702	2.977069	0.000000	-0.271162	0.000000	0.000026	-0.000002	0.000000	0.000000
22.504369	18.976741	14.355424	2.297819	-1.783282	2.804373	0.000000	-0.356975	0.000000	0.000024	-0.000003	0.000000	0.000000
22.950329	17.197485	15.825711	1.705982	-1.499713	2.662466	0.000000	-0.279787	0.000000	0.000023	-0.000002	0.000000	0.000000
23.391289	15.922318	16.998043	1.196784	-1.148760	2.555410	0.000000	-0.206239	0.000000	0.000023	-0.000001	0.000000	0.000000
23.832249	15.070506	17.836545	0.742264	-0.745539	2.480236	0.000000	-0.135041	0.000000	0.000022	-0.000001	0.000000	0.000000
24.273209	14.603133	18.303064	0.321656	-0.308397	2.436090	0.000000	-0.065381	0.000000	0.000022	-0.000000	0.000000	0.000000
24.715418	14.498967	18.376131	-0.048796	0.097653	2.422464	0.000000	-0.002405	0.000000	0.000022	0.000000	0.000000	0.000000
25.012741	14.534095	18.322918	-0.069351	0.081319	2.421749	0.000000	-0.002405	0.000000	0.000022	0.000000	0.000000	0.000000
25.346075	14.588011	18.274810	-0.092396	0.063006	2.420947	0.000000	-0.002405	0.000000	0.000022	0.000000	0.000000	0.000000
25.679408	14.657289	18.238910	-0.115441	0.044694	2.420145	0.000000	-0.002405	0.000000	0.000022	0.000000	0.000000	0.000000
26.013991	14.741979	18.215522	-0.018975	-0.121460	2.419316	0.000000	-0.022032	0.000000	0.000022	0.000000	0.000000	0.000000
26.311314	14.759261	18.292672	-0.002965	-0.182873	2.412765	0.000000	-0.027947	0.000000	0.000022	0.000000	0.000000	0.000000
26.752274	14.943698	18.255594	-0.416883	0.266638	2.415548	0.000000	0.040578	0.000000	0.000022	0.000001	0.000000	0.000000
27.193234	15.500164	17.825938	-0.849847	0.704018	2.448620	0.000000	0.109566	0.000000	0.000023	0.000001	0.000000	0.000000
27.634194	16.454085	17.023254	-1.321639	1.109365	2.512358	0.000000	0.179802	0.000000	0.000024	0.000002	0.000000	0.000000
28.075154	17.849041	15.884063	-1.853813	1.464238	2.607489	0.000000	0.252086	0.000000	0.000024	0.000002	0.000000	0.000000
28.521114	19.772995	14.443033	-2.475654	1.753400	2.736699	0.000000	0.327684	0.000000	0.000026	0.000003	0.000000	0.000000
29.070174	22.218338	12.837535	-1.951668	1.187944	2.893960	0.000000	0.244314	0.000000	0.000027	0.000002	0.000000	0.000000
29.619234	24.008711	11.803146	-1.289825	0.707103	3.004187	0.000000	0.156611	0.000000	0.000028	0.000001	0.000000	0.000000
30.168294	25.017652	11.266189	-0.536875	0.276627	3.065426	0.000000	0.066130	0.000000	0.000029	0.000000	0.000000	0.000000
30.717354	25.173893	11.188417	0.253997	-0.134145	3.076590	0.000000	-0.025524	0.000000	0.000029	-0.000001	0.000000	0.000000
31.015927	25.065154	11.259124	0.175958	-0.131898	3.071369	0.000000	-0.017487	0.000000	0.000028	-0.000000	0.000000	0.000000
31.349260	24.952419	11.357096	0.162247	-0.162019	3.065540	0.000000	-0.017487	0.000000	0.000028	-0.000000	0.000000	0.000000
31.682593	24.848824	11.475149	0.148537	-0.192140	3.059711	0.000000	-0.017487	0.000000	0.000028	-0.000000	0.000000	0.000000
32.017177	24.754033	11.613838	0.134775	-0.222373	3.053860	0.000000	-0.017487	0.000000	0.000028	-0.000000	0.000000	0.000000
32.314499	24.677525	11.754060	0.058083	-0.218536	3.048661	0.000000	-0.009524	0.000000	0.000028	-0.000000	0.000000	0.000000
32.863559	24.190906	12.233214	0.822947	-0.659296	3.018559	0.000000	-0.099966	0.000000	0.000027	-0.000001	0.000000	0.000000
33.412619	22.891479	13.219168	1.529681	-1.147016	2.939213	0.000000	-0.188635	0.000000	0.000027	-0.000002	0.000000	0.000000
33.961679	20.871030	14.782149	2.128366	-1.716435	2.812031	0.000000	-0.273958	0.000000	0.000025	-0.000003	0.000000	0.000000
34.510739	18.272273	17.033485	2.576714	-2.408113	2.639269	0.000000	-0.354422	0.000000	0.000023	-0.000004	0.000000	0.000000
34.956699	16.251581	19.047255	1.970623	-2.088619	2.497549	0.000000	-0.281514	0.000000	0.000022	-0.000003	0.000000	0.000000
35.397659	14.744713	20.713129	1.459583	-1.674838	2.388791	0.000000	-0.212241	0.000000	0.000020	-0.000003	0.000000	0.000000
35.838619	13.657545	21.978956	1.015227	-1.184853	2.310018	0.000000	-0.145384	0.000000	0.000019	-0.000002	0.000000	0.000000
36.279579	12.940406	22.787142	0.617255	-0.640959	2.260333	0.000000	-0.080184	0.000000	0.000019	-0.000002	0.000000	0.000000
36.721789	12.559836	23.101226	0.278172	-0.124596	2.239143	0.000000	-0.021386	0.000000	0.000018	-0.000001	0.000000	0.000000
37.019112	12.402006	23.179202	0.252668	-0.137666	2.232785	0.000000	-0.021386	0.000000	0.000018	-0.000001	0.000000	0.000000
37.352445	12.243091	23.275864	0.224075	-0.152320	2.225656	0.000000	-0.021386	0.000000	0.000017	-0.000001	0.000000	0.000000
37.685779	12.103239	23.382295	0.195481	-0.166973	2.218528	0.000000	-0.021386	0.000000	0.000017	-0.000001	0.000000	0.000000
38.020362	11.982032	23.498949	0.166781	-0.181681	2.211373	0.000000	-0.021386	0.000000	0.000016	-0.000001	0.000000	0.000000
38.317684	11.890440	23.610871	0.170431	-0.252644	2.205015	0.000000	-0.026793	0.000000	0.000016	-0.000001	0.000000	0.000000
38.758644	11.891693	23.572148	-0.173284	0.340124	2.207125	0.000000	0.036369	0.000000	0.000016	-0.000001	0.000000	0.000000
39.199604	12.198407	23.015504	-0.524916	0.917417	2.237150	0.000000	0.099944	0.000000	0.000015	-0.000000	0.000000	0.000000
39.640564	12.824596	21.966267	-0.900530	1.452968	2.295435	0.000000	0.164658	0.000000	0.000015	-0.000000	0.000000	0.000000
40.081524	13.798868	20.472174	-1.317286	1.922410	2.382641	0.000000	0.231247	0.000000	0.000015	0.000000	0.000000	0.000000
40.527484	15.183313	18.578628	-1.798054	2.305671	2.501234	0.000000	0.300875	0.000000	0.000015	0.000001	0.000000	0.000000
41.076544	16.949906	16.450683	-1.400385	1.592820	2.645908	0.000000	0.225339	0.000000	0.000016	0.000000	0.000000	0.000000
41.625604	18.222576	15.039013	-0.903801	0.993423	2.747949	0.000000	0.145806	0.000000	0.000016	-0.000000	0.000000	0.000000
42.174664	18.911429	14.243067	-0.343376	0.464785	2.805545	0.000000	0.063686	0.000000	0.000015	-0.000001	0.000000	0.000000
42.723724	18.967806	14.006153	0.241303	-0.030747	2.817677	0.000000	-0.019563	0.000000	0.000015	-0.000001	0.000000	0.000000
43.022297	18.858177	14.009028	0.175430	-0.015474	2.814034	0.000000	-0.012202	0.000000	0.000015	-0.000001	0.000000	0.000000
43.502297	18.702357	14.040334	0.149194	-0.049746	2.808178	0.000000	-0.012202	0.000000	0.000014	-0.000001	0.000000	0.000000
43.982297	18.571725	14.104541	0.122957	-0.084018	2.802321	0.000000	-0.012202	0.000000	0.000013	-0.000001	0.000000	0.000000
44.462297	18.466280	14.201649	0.096721	-0.118290	2.796465	0.000000	-0.012202	0.000000	0.000013	-0.000001	0.000000	0.000000
44.942297	18.386022	14.331657	0.070484	-0.152562	2.790609	0.000000	-0.012202	0.000000	0.000012	-0.000001	0.000000	0.000000
45.423547	18.331067	14.494854	-0.046643	-0.115106	2.784754	0.000000	0.001595	0.000000	0.000012	-0.000001	0.000000	0.000000
45.720870	18.363636	14.569481	-0.110874	-0.097827	2.785229	0.000000	0.008872	0.000000	0.000011	-0.000001	0.000000	0.000000
46.269930	18.176192	14.958629	0.450243	-0.615109	2.767534	0.000000	-0.073236	0.000000	0.000010	-0.000001	0.000000	0.000000
46.818990	17.386470	15.936397	0.979558	-1.176205	2.705047	0.000000	-0.154045	0.000000	0.000010	-0.000002	0.000000	0.000000
47.368050	16.050252	17.572428	1.439682	-1.821079	2.598878	0.000000	-0.232121	0.000000	0.000008	-0.000002	0.000000	0.000000
47.917110	14.261921	19.983255	1.798113	-2.595664	2.450909	0.000000	-0.306080	0.000000	0.000007	-0.000002	0.000000	0.000000
48.363070	12.870342	22.126604	1.333354	-2.190276	2.329700	0.000000	-0.237791	0.000000	0.000006	-0.000002	0.000000	0.000000
48.804030	11.874623	23.842642	0.933283	-1.686509	2.239302	0.000000	-0.172608	0.000000	0.000005	-0.000002	0.000000	0.000000
49.244990	11.211671	25.078733	0.575850	-1.106007	2.177187	0.000000	-0.109391	0.000000	0.000004	-0.000002	0.000000	0.000000
49.685950	10.851197	25.778637	0.244726	-0.475182	2.142647	0.000000	-0.047419	0.000000	0.000004	-0.000002	0.000000	0.000000
50.128160	10.776854	25.910225	-0.048906	0.113676	2.135301	0.000000	0.008776	0.000000	0.000003	-0.000002	0.000000	0.000000
50.425482	10.814158	25.846084	-0.076561	0.102053	2.137910	0.000000	0.008776	0.000000	0.000002	-0.000002	0.000000	0.000000
50.758816	10.875533	25.782392	-0.107565	0.089022	2.140836	0.000000	0.008776	0.000000	0.000002	-0.000002	0.000000	0.000000
51.092149	10.957578	25.727388	-0.138569	0.075991	2.143762	0.000000	0.008776	0.000000	0.000001	-0.000002	0.000000	0.000000
51.426732	11.060492	25.681435	-0.079960	-0.145430	2.146677	0.000000	-0.008639	0.000000	0.000001	-0.000002	0.000000	0.000000
51.724055	11.116084	25.771429	-0.079754	-0.220452	2.144109	0.000000	-0.013897	0.000000	0.000000	-0.000002	0.000000	0.000000
52.165015	11.331590	25.679109	-0.410822	0.429016	2.151570	0.000000	0.047763	0.000000	-0.000001	-0.000002	0.000000	0.000000
52.605975	11.846214	25.020463	-0.760660	1.058964	2.186314	0.000000	0.109967	0.000000	-0.000001	-0.000002	0.000000	0.000000
53.046935	12.683468	23.825459	-1.145250	1.640730	2.248737	0.000000	0.173424	0.000000	-0.000002	-0.000002	0.000000	0.000000
53.487895	13.881602	22.148468	-1.582163	2.147844	2.339551	0.000000	0.238856	0.000000	-0.000003	-0.000002	0.000000	0.000000
53.933855	15.515898	20.040721	-2.095585	2.558572	2.461294	0.000000	0.307407	0.000000	-0.000004	-0.000002	0.000000	0.000000
54.482915	17.620068	17.668902	-1.714044	1.786707	2.609900	0.000000	0.233101	0.000000	-0.000005	-0.000002	0.000000	0.000000
55.031975	19.235894	16.070244	-1.211431	1.142106	2.716509	0.000000	0.154660	0.000000	-0.000006	-0.000002	0.000000	0.000000
55.581035	20.249242	15.130879	-0.623250	0.578855	2.779233	0.000000	0.073476	0.000000	-0.000007	-0.000001	0.000000	0.000000
56.130095	20.588534	14.783896	0.008955	0.056834	2.796957	0.000000	-0.009011	0.000000	-0.000008	-0.000001	0.000000	0.000000
56.428668	20.619650	14.732974	-0.059373	0.075084	2.796449	0.000000	-0.001702	0.000000	-0.000008	-0.000001	0.000000	0.000000
56.762001	20.664640	14.690502	-0.075596	0.052332	2.795882	0.000000	-0.001702	0.000000	-0.000008	-0.000001	0.000000	0.000000
57.095334	20.720445	14.663199	-0.091819	0.029579	2.795315	0.000000	-0.001702	0.000000	-0.000009	-0.000001	0.000000	0.000000
57.429918	20.787335	14.651047	-0.108103	0.006741	2.794746	0.000000	-0.001702	0.000000	-0.000009	-0.000001	0.000000	0.000000
57.727240	20.855920	14.653072	-0.177070	0.024735	2.794240	0.000000	0.005599	0.000000	-0.000010	-0.000001	0.000000	0.000000
58.276300	20.694598	14.907222	0.469145	-0.490350	2.774673	0.000000	-0.076770	0.000000	-0.000010	-0.000001	0.000000	0.000000
58.825360	19.837731	15.742743	1.082223	-1.040362	2.710188	0.000000	-0.157778	0.000000	-0.000011	-0.000001	0.000000	0.000000
59.374420	18.345845	17.219146	1.618857	-1.664476	2.601929	0.000000	-0.235987	0.000000	-0.000011	-0.000000	0.000000	0.000000
59.923480	16.324319	19.441593	2.041143	-2.407148	2.451815	0.000000	-0.310010	0.000000	-0.000011	0.000000	0.000000	0.000000
60.369440	14.742135	21.416875	1.519237	-2.003436	2.328855	0.000000	-0.241721	0.000000	-0.000011	-0.000000	0.000000	0.000000
60.810400	13.604287	22.972053	1.070940	-1.509946	2.236715	0.000000	-0.176582	0.000000	-0.000011	-0.000000	0.000000	0.000000
61.251360	12.838813	24.059941	0.671570	-0.947756	2.172829	0.000000	-0.113454	0.000000	-0.000011	-0.000001	0.000000	0.000000
61.692320	12.410742	24.631040	0.302883	-0.342443	2.136469	0.000000	-0.051618	0.000000	-0.000012	-0.000001	0.000000	0.000000
62.134530	12.300571	24.658821	-0.021900	0.217919	2.127226	0.000000	0.004412	0.000000	-0.000012	-0.000001	0.000000	0.000000
62.431853	12.320784	24.532992	-0.046083	0.205289	2.128538	0.000000	0.004412	0.000000	-0.000013	-0.000001	0.000000	0.000000
62.765186	12.360543	24.400852	-0.073195	0.191129	2.130010	0.000000	0.004412	0.000000	-0.000013	-0.000001	0.000000	0.000000
63.098520	12.418378	24.278153	-0.100307	0.176969	2.131481	0.000000	0.004412	0.000000	-0.000014	-0.000001	0.000000	0.000000
63.433103	12.494605	24.164486	-0.127521	0.162757	2.132957	0.000000	0.004412	0.000000	-0.000014	-0.000001	0.000000	0.000000
63.730426	12.577625	24.071459	-0.120856	0.091088	2.134270	0.000000	-0.000822	0.000000	-0.000014	-0.000001	0.000000	0.000000
64.171386	12.844423	23.726043	-0.486481	0.689258	2.147450	0.000000	0.060658	0.000000	-0.000015	-0.000002	0.000000	0.000000
64.612346	13.442219	22.864955	-0.874331	1.256069	2.187868	0.000000	0.122829	0.000000	-0.000016	-0.000002	0.000000	0.000000
65.053306	14.398322	21.527374	-1.302128	1.765728	2.255982	0.000000	0.186399	0.000000	-0.000017	-0.000003	0.000000	0.000000
65.494266	15.756416	19.774158	-1.789415	2.195049	2.352570	0.000000	0.252092	0.000000	-0.000018	-0.000003	0.000000	0.000000
65.940226	17.601709	17.660277	-2.363146	2.525247	2.480304	0.000000	0.321058	0.000000	-0.000020	-0.000003	0.000000	0.000000
66.489286	19.967361	15.295580	-1.919902	1.806986	2.636214	0.000000	0.246018	0.000000	-0.000021	-0.000003	0.000000	0.000000
67.038346	21.768477	13.644738	-1.341045	1.217432	2.749662	0.000000	0.166614	0.000000	-0.000023	-0.000002	0.000000	0.000000
67.587406	22.877836	12.590165	-0.667465	0.714593	2.818636	0.000000	0.084255	0.000000	-0.000024	-0.000001	0.000000	0.000000
68.136466	23.217077	12.056748	0.053262	0.262653	2.841911	0.000000	0.000401	0.000000	-0.000024	-0.000001	0.000000	0.000000
68.435038	23.225343	11.889124	-0.020273	0.267255	2.844248	0.000000	0.007828	0.000000	-0.000024	-0.000001	0.000000	0.000000
68.768372	23.243645	11.720968	-0.034631	0.237215	2.846858	0.000000	0.007828	0.000000	-0.000025	-0.000001	0.000000	0.000000
69.101705	23.271518	11.572837	-0.048989	0.207176	2.849467	0.000000	0.007828	0.000000	-0.000025	-0.000001	0.000000	0.000000
69.436288	23.309121	11.444290	-0.063401	0.177024	2.852086	0.000000	0.007828	0.000000	-0.000025	-0.000001	0.000000	0.000000
69.733611	23.350630	11.346991	-0.137231	0.179883	2.854414	0.000000	0.015287	0.000000	-0.000025	-0.000001	0.000000	0.000000
70.282671	23.100280	11.376764	0.590493	-0.234429	2.839617	0.000000	-0.069109	0.000000	-0.000025	0.000000	0.000000	0.000000
