#ParticleID	Turn	x[m]	xp	y[m]	yp	z[m]	dE[GeV]# s	beta_x	beta_y	alpha_x	alpha_y	D_x	D_y	D_px	D_py	orbit_x	orbit_px	orbit_y	orbit_py
0.300000	11.808317	25.040000	-0.010518	-0.027015	2.618192	0.000000	-0.000020	0.000000	-0.000001	0.000001	0.000000	0.000000
0.601250	11.822340	25.059903	-0.036032	-0.039054	2.618186	0.000000	-0.000020	0.000000	-0.000000	0.000001	0.000000	0.000000
0.898573	11.851254	25.086659	-0.032152	-0.112456	2.618180	0.000000	-0.006440	0.000000	0.000000	0.000001	0.000000	0.000000
1.339533	12.031674	24.907547	-0.378552	0.517099	2.631633	0.000000	0.067518	0.000000	0.000001	0.000002	0.000000	0.000000
1.780493	12.524034	24.181510	-0.742248	1.123127	2.677837	0.000000	0.142246	0.000000	0.000002	0.000002	0.000000	0.000000
2.221453	13.350830	22.941583	-1.139855	1.678053	2.757319	0.000000	0.218594	0.000000	0.000002	0.000002	0.000000	0.000000
2.662413	14.549835	21.244182	-1.589538	2.156630	2.870983	0.000000	0.297432	0.000000	0.000003	0.000002	0.000000	0.000000
3.108373	16.196558	19.141646	-2.116131	2.538214	3.021986	0.000000	0.380146	0.000000	0.000004	0.000002	0.000000	0.000000
3.657433	18.308230	16.780156	-1.707078	1.788141	3.205437	0.000000	0.287109	0.000000	0.000005	0.000002	0.000000	0.000000
4.206493	19.901439	15.167983	-1.177446	1.165433	3.336329	0.000000	0.188979	0.000000	0.000005	0.000001	0.000000	0.000000
4.755553	20.863647	14.190294	-0.564645	0.625737	3.412341	0.000000	0.087497	0.000000	0.000006	0.000001	0.000000	0.000000
5.304613	21.126891	13.777451	0.088040	0.130610	3.432125	0.000000	-0.015537	0.000000	0.000007	0.000001	0.000000	0.000000
5.603185	21.111503	13.684614	0.018695	0.144333	3.430163	0.000000	-0.006570	0.000000	0.000007	0.000001	0.000000	0.000000
5.936519	21.104305	13.596680	0.002900	0.119467	3.427972	0.000000	-0.006570	0.000000	0.000008	0.000001	0.000000	0.000000
6.269852	21.107636	13.525324	-0.012894	0.094602	3.425782	0.000000	-0.006570	0.000000	0.000008	0.000001	0.000000	0.000000
6.604435	21.121569	13.470370	-0.028748	0.069643	3.423583	0.000000	-0.006570	0.000000	0.000008	0.000001	0.000000	0.000000
6.901758	21.142853	13.435552	-0.098075	0.082566	3.421629	0.000000	0.002369	0.000000	0.000009	0.000001	0.000000	0.000000
7.450818	20.890234	13.605783	0.555446	-0.394435	3.394729	0.000000	-0.100210	0.000000	0.000009	0.000001	0.000000	0.000000
7.999878	19.937366	14.312079	1.169733	-0.899531	3.311912	0.000000	-0.201011	0.000000	0.000009	0.000001	0.000000	0.000000
8.548938	18.351556	15.604749	1.701397	-1.468699	3.174649	0.000000	-0.298247	0.000000	0.000010	0.000000	0.000000	0.000000
9.097998	16.244817	17.575868	2.112882	-2.142478	2.985373	0.000000	-0.390192	0.000000	0.000010	-0.000000	0.000000	0.000000
9.543958	14.601205	19.332215	1.585783	-1.779227	2.829669	0.000000	-0.308488	0.000000	0.000010	0.000000	0.000000	0.000000
9.984918	13.405798	20.711268	1.135419	-1.336258	2.710884	0.000000	-0.230782	0.000000	0.000010	0.000000	0.000000	0.000000
10.425878	12.583288	21.671252	0.736930	-0.832490	2.625752	0.000000	-0.155704	0.000000	0.000010	0.000001	0.000000	0.000000
10.866838	12.096094	22.168490	0.372109	-0.290844	2.573305	0.000000	-0.082399	0.000000	0.000010	0.000001	0.000000	0.000000
11.309048	11.921826	22.179833	0.053416	0.209588	2.552924	0.000000	-0.016293	0.000000	0.000011	0.000001	0.000000	0.000000
11.606371	11.897498	22.059363	0.028406	0.195594	2.548079	0.000000	-0.016293	0.000000	0.000011	0.000001	0.000000	0.000000
12.086371	11.889609	21.882437	-0.011971	0.173002	2.540258	0.000000	-0.016293	0.000000	0.000012	0.000001	0.000000	0.000000
12.566371	11.920483	21.727198	-0.052348	0.150410	2.532436	0.000000	-0.016293	0.000000	0.000012	0.000001	0.000000	0.000000
13.046371	11.990118	21.593649	-0.092726	0.127818	2.524615	0.000000	-0.016293	0.000000	0.000013	0.000001	0.000000	0.000000
13.526371	12.098516	21.481787	-0.133103	0.105227	2.516794	0.000000	-0.016293	0.000000	0.000013	0.000001	0.000000	0.000000
14.007621	12.246109	21.391407	-0.173585	0.082576	2.508952	0.000000	-0.016293	0.000000	0.000014	0.000001	0.000000	0.000000
14.304943	12.356767	21.346464	-0.168297	0.016241	2.504107	0.000000	-0.022433	0.000000	0.000014	0.000001	0.000000	0.000000
14.745903	12.663699	21.098514	-0.530398	0.543915	2.509845	0.000000	0.048485	0.000000	0.000015	0.000001	0.000000	0.000000
15.186863	13.299413	20.394376	-0.916730	1.046840	2.546947	0.000000	0.119956	0.000000	0.000015	0.000002	0.000000	0.000000
15.627823	14.292954	19.266086	-1.344946	1.502135	2.615836	0.000000	0.192793	0.000000	0.000016	0.000002	0.000000	0.000000
16.068783	15.689712	17.764981	-1.834608	1.889084	2.717295	0.000000	0.267826	0.000000	0.000018	0.000003	0.000000	0.000000
16.514743	17.577162	15.937860	-2.412847	2.190825	2.854176	0.000000	0.346372	0.000000	0.000019	0.000003	0.000000	0.000000
17.063803	20.001387	13.897754	-1.976242	1.546741	3.020625	0.000000	0.259047	0.000000	0.000020	0.000003	0.000000	0.000000
17.612863	21.866212	12.500644	-1.400046	1.012827	3.137794	0.000000	0.167127	0.000000	0.000022	0.000002	0.000000	0.000000
18.161923	23.039915	11.647017	-0.724957	0.551056	3.203604	0.000000	0.072243	0.000000	0.000022	0.000001	0.000000	0.000000
18.710983	23.439590	11.276070	0.001340	0.128535	3.216889	0.000000	-0.023923	0.000000	0.000023	0.000000	0.000000	0.000000
19.009556	23.479171	11.189830	-0.072676	0.130852	3.212255	0.000000	-0.015519	0.000000	0.000023	0.000000	0.000000	0.000000
19.342889	23.532379	11.112695	-0.086948	0.100553	3.207082	0.000000	-0.015519	0.000000	0.000023	0.000000	0.000000	0.000000
19.676223	23.595101	11.055759	-0.101220	0.070254	3.201909	0.000000	-0.015519	0.000000	0.000023	0.000000	0.000000	0.000000
20.010806	23.667920	11.018787	-0.232809	0.094435	3.196736	0.000000	0.000319	0.000000	0.000024	0.000001	0.000000	0.000000
20.308129	23.810297	10.970726	-0.308252	0.095870	3.196831	0.000000	0.008670	0.000000	0.000024	0.000001	0.000000	0.000000
20.857189	23.738119	11.087454	0.438931	-0.309721	3.175374	0.000000	-0.086713	0.000000	0.000024	-0.000000	0.000000	0.000000
21.406249	22.857682	11.658997	1.155110	-0.737372	3.101892	0.000000	-0.180558	0.000000	0.000024	-0.000001	0.000000	0.000000
21.955309	21.231177	12.726065	1.789698	-1.217545	2.977689	0.000000	-0.271200	0.000000	0.000023	-0.000002	0.000000	0.000000
22.504369	18.973491	14.364664	2.297870	-1.784441	2.804967	0.000000	-0.357032	0.000000	0.000022	-0.000002	0.000000	0.000000
22.950329	17.194165	15.835890	1.706089	-1.500650	2.663038	0.000000	-0.279829	0.000000	0.000021	-0.000002	0.000000	0.000000
23.391289	15.918878	17.008936	1.196950	-1.149435	2.555966	0.000000	-0.206267	0.000000	0.000020	-0.000001	0.000000	0.000000
23.832249	15.066891	17.847904	0.742498	-0.745921	2.480783	0.000000	-0.135055	0.000000	0.000020	-0.000001	0.000000	0.000000
24.273209	14.599278	18.314623	0.321967	-0.308468	2.436633	0.000000	-0.065381	0.000000	0.000020	-0.000000	0.000000	0.000000
24.715418	14.494797	18.387613	-0.048401	0.097868	2.423010	0.000000	-0.002392	0.000000	0.000020	0.000000	0.000000	0.000000
25.012741	14.529692	18.334270	-0.068961	0.081543	2.422299	0.000000	-0.002392	0.000000	0.000020	0.000000	0.000000	0.000000
25.346075	14.583349	18.286009	-0.092012	0.063241	2.421502	0.000000	-0.002392	0.000000	0.000020	0.000000	0.000000	0.000000
25.679408	14.652374	18.249948	-0.115063	0.044939	2.420704	0.000000	-0.002392	0.000000	0.000020	0.000000	0.000000	0.000000
26.013991	14.736813	18.226392	-0.018645	-0.121292	2.419880	0.000000	-0.022023	0.000000	0.000020	0.000000	0.000000	0.000000
26.311314	14.753900	18.303440	-0.002653	-0.182722	2.413332	0.000000	-0.027941	0.000000	0.000020	-0.000000	0.000000	0.000000
26.752274	14.938004	18.266100	-0.416436	0.267079	2.416120	0.000000	0.040600	0.000000	0.000020	0.000001	0.000000	0.000000
27.193234	15.494009	17.835935	-0.849244	0.704727	2.449205	0.000000	0.109603	0.000000	0.000020	0.000001	0.000000	0.000000
27.634194	16.447319	17.032518	-1.320852	1.110312	2.512963	0.000000	0.179854	0.000000	0.000021	0.000002	0.000000	0.000000
28.075154	17.841487	15.892403	-1.852806	1.465378	2.608121	0.000000	0.252153	0.000000	0.000022	0.000002	0.000000	0.000000
28.521114	19.764428	14.450289	-2.474380	1.754682	2.737365	0.000000	0.327768	0.000000	0.000023	0.000003	0.000000	0.000000
29.070174	22.208490	12.843547	-1.950624	1.188941	2.894666	0.000000	0.244376	0.000000	0.000024	0.000002	0.000000	0.000000
29.619234	23.997879	11.808187	-1.289085	0.707885	3.004921	0.000000	0.156650	0.000000	0.000025	0.000001	0.000000	0.000000
30.168294	25.006200	11.270462	-0.536492	0.277251	3.066175	0.000000	0.066145	0.000000	0.000025	0.000000	0.000000	0.000000
30.717354	25.162231	11.192071	0.253996	-0.133635	3.077340	0.000000	-0.025533	0.000000	0.000025	-0.000000	0.000000	0.000000
31.015927	25.053477	11.262464	0.175980	-0.131366	3.072117	0.000000	-0.017495	0.000000	0.000025	-0.000000	0.000000	0.000000
31.349260	24.940729	11.360077	0.162263	-0.161474	3.066286	0.000000	-0.017495	0.000000	0.000025	-0.000000	0.000000	0.000000
31.682593	24.837127	11.477762	0.148546	-0.191581	3.060454	0.000000	-0.017495	0.000000	0.000025	-0.000000	0.000000	0.000000
32.017177	24.742331	11.616073	0.134777	-0.221802	3.054601	0.000000	-0.017495	0.000000	0.000025	-0.000000	0.000000	0.000000
32.314499	24.665824	11.755951	0.058108	-0.217947	3.049399	0.000000	-0.009529	0.000000	0.000024	-0.000000	0.000000	0.000000
32.863559	24.179390	12.234474	0.822586	-0.658728	3.019288	0.000000	-0.099995	0.000000	0.000024	-0.000001	0.000000	0.000000
33.412619	22.880561	13.219797	1.528960	-1.146428	2.939920	0.000000	-0.188687	0.000000	0.000023	-0.000002	0.000000	0.000000
33.961679	20.861078	14.782102	2.127337	-1.715785	2.812704	0.000000	-0.274033	0.000000	0.000022	-0.000003	0.000000	0.000000
34.510739	18.263590	17.032669	2.575448	-2.407355	2.639895	0.000000	-0.354518	0.000000	0.000020	-0.000003	0.000000	0.000000
34.956699	16.243904	19.045740	1.969626	-2.087813	2.498136	0.000000	-0.281594	0.000000	0.000019	-0.000003	0.000000	0.000000
35.397659	14.737815	20.710896	1.458807	-1.674022	2.389345	0.000000	-0.212306	0.000000	0.000018	-0.000002	0.000000	0.000000
35.838619	13.651247	21.976012	1.014637	-1.184064	2.310546	0.000000	-0.145435	0.000000	0.000017	-0.000002	0.000000	0.000000
36.279579	12.934556	22.783527	0.616823	-0.640233	2.260842	0.000000	-0.080221	0.000000	0.000016	-0.000001	0.000000	0.000000
36.721789	12.554306	23.097010	0.277867	-0.123957	2.239638	0.000000	-0.021412	0.000000	0.000016	-0.000001	0.000000	0.000000
37.019112	12.396658	23.174606	0.252356	-0.137027	2.233272	0.000000	-0.021412	0.000000	0.000015	-0.000001	0.000000	0.000000
37.352445	12.237955	23.270842	0.223754	-0.151681	2.226135	0.000000	-0.021412	0.000000	0.000015	-0.000001	0.000000	0.000000
37.685779	12.098319	23.376847	0.195153	-0.166335	2.218998	0.000000	-0.021412	0.000000	0.000014	-0.000001	0.000000	0.000000
38.020362	11.977335	23.493074	0.166444	-0.181043	2.211834	0.000000	-0.021412	0.000000	0.000014	-0.000001	0.000000	0.000000
38.317684	11.885945	23.604617	0.170077	-0.251992	2.205468	0.000000	-0.026820	0.000000	0.000014	-0.000001	0.000000	0.000000
38.758644	11.887466	23.565395	-0.173539	0.340601	2.207568	0.000000	0.036353	0.000000	0.000013	-0.000001	0.000000	0.000000
39.199604	12.194366	23.008416	-0.525084	0.917698	2.237590	0.000000	0.099940	0.000000	0.000013	-0.000000	0.000000	0.000000
39.640564	12.820669	21.959022	-0.900619	1.453039	2.295875	0.000000	0.164665	0.000000	0.000013	-0.000000	0.000000	0.000000
40.081524	13.794986	20.464960	-1.317300	1.922269	2.383086	0.000000	0.231266	0.000000	0.000013	0.000000	0.000000	0.000000
40.527484	15.179409	18.571633	-1.797992	2.305322	2.501690	0.000000	0.300905	0.000000	0.000013	0.000001	0.000000	0.000000
41.076544	16.946021	16.443963	-1.400482	1.592665	2.646377	0.000000	0.225354	0.000000	0.000013	0.000000	0.000000	0.000000
41.625604	18.218882	15.032364	-0.904049	0.993449	2.748422	0.000000	0.145805	0.000000	0.000013	-0.000000	0.000000	0.000000
42.174664	18.908082	14.236290	-0.343758	0.464994	2.806014	0.000000	0.063671	0.000000	0.000013	-0.000001	0.000000	0.000000
42.723724	18.964940	13.999039	0.240815	-0.030340	2.818133	0.000000	-0.019594	0.000000	0.000013	-0.000001	0.000000	0.000000
43.022297	18.855598	14.001685	0.174949	-0.015095	2.814482	0.000000	-0.012231	0.000000	0.000012	-0.000001	0.000000	0.000000
43.502297	18.700240	14.032635	0.148713	-0.049385	2.808611	0.000000	-0.012231	0.000000	0.000012	-0.000001	0.000000	0.000000
43.982297	18.570069	14.096503	0.122477	-0.083674	2.802741	0.000000	-0.012231	0.000000	0.000011	-0.000001	0.000000	0.000000
44.462297	18.465084	14.193289	0.096241	-0.117963	2.796871	0.000000	-0.012231	0.000000	0.000011	-0.000001	0.000000	0.000000
44.942297	18.385286	14.322993	0.070005	-0.152253	2.791000	0.000000	-0.012231	0.000000	0.000010	-0.000001	0.000000	0.000000
45.423547	18.330792	14.485902	-0.047120	-0.114859	2.785132	0.000000	0.001568	0.000000	0.000010	-0.000001	0.000000	0.000000
45.720870	18.363644	14.560385	-0.111353	-0.097615	2.785598	0.000000	0.008846	0.000000	0.000009	-0.000001	0.000000	0.000000
46.269930	18.176721	14.949148	0.449779	-0.614616	2.767886	0.000000	-0.073274	0.000000	0.000009	-0.000001	0.000000	0.000000
46.818990	17.387486	15.926203	0.979141	-1.175394	2.705375	0.000000	-0.154093	0.000000	0.000008	-0.000002	0.000000	0.000000
47.368050	16.051687	17.561145	1.439340	-1.819893	2.599176	0.000000	-0.232180	0.000000	0.000007	-0.000002	0.000000	0.000000
47.917110	14.263678	19.970427	1.797872	-2.594020	2.451172	0.000000	-0.306148	0.000000	0.000006	-0.000002	0.000000	0.000000
48.363070	12.872317	22.112433	1.333105	-2.188922	2.329935	0.000000	-0.237853	0.000000	0.000005	-0.000002	0.000000	0.000000
48.804030	11.876825	23.827427	0.933015	-1.685506	2.239511	0.000000	-0.172664	0.000000	0.000004	-0.000002	0.000000	0.000000
49.244990	11.214122	25.062806	0.575550	-1.105400	2.177372	0.000000	-0.109442	0.000000	0.000003	-0.000002	0.000000	0.000000
49.685950	10.853931	25.762362	0.244381	-0.475000	2.142811	0.000000	-0.047466	0.000000	0.000003	-0.000002	0.000000	0.000000
50.128160	10.779919	25.893981	-0.049304	0.113465	2.135444	0.000000	0.008733	0.000000	0.000002	-0.000002	0.000000	0.000000
50.425482	10.817458	25.829967	-0.076952	0.101835	2.138041	0.000000	0.008733	0.000000	0.000001	-0.000002	0.000000	0.000000
50.758816	10.879091	25.766424	-0.107949	0.088796	2.140953	0.000000	0.008733	0.000000	0.000001	-0.000002	0.000000	0.000000
51.092149	10.961390	25.711572	-0.138946	0.075757	2.143864	0.000000	0.008733	0.000000	0.000000	-0.000002	0.000000	0.000000
51.426732	11.064553	25.665778	-0.080296	-0.145544	2.146765	0.000000	-0.008683	0.000000	-0.000000	-0.000002	0.000000	0.000000
51.724055	11.120342	25.755842	-0.080070	-0.220535	2.144184	0.000000	-0.013941	0.000000	-0.000001	-0.000002	0.000000	0.000000
52.165015	11.336173	25.663777	-0.411243	0.428522	2.151625	0.000000	0.047721	0.000000	-0.000001	-0.000002	0.000000	0.000000
52.605975	11.851221	25.005740	-0.761205	1.058083	2.186351	0.000000	0.109926	0.000000	-0.000002	-0.000002	0.000000	0.000000
53.046935	12.689019	23.811669	-1.145943	1.639501	2.248757	0.000000	0.173384	0.000000	-0.000003	-0.000002	0.000000	0.000000
53.487895	13.887842	22.135895	-1.583037	2.146324	2.339553	0.000000	0.238816	0.000000	-0.000003	-0.000002	0.000000	0.000000
53.933855	15.523014	20.029610	-2.096681	2.556828	2.461278	0.000000	0.307367	0.000000	-0.000004	-0.000002	0.000000	0.000000
54.482915	17.628288	17.659459	-1.714948	1.785396	2.609862	0.000000	0.233062	0.000000	-0.000005	-0.000002	0.000000	0.000000
55.031975	19.244972	16.062048	-1.212080	1.141133	2.716450	0.000000	0.154623	0.000000	-0.000006	-0.000002	0.000000	0.000000
55.581035	20.258870	15.123598	-0.623597	0.578150	2.779154	0.000000	0.073441	0.000000	-0.000007	-0.000001	0.000000	0.000000
56.130095	20.598365	14.777265	0.008935	0.056348	2.796860	0.000000	-0.009043	0.000000	-0.000008	-0.000001	0.000000	0.000000
56.428668	20.629507	14.726647	-0.059413	0.074574	2.796342	0.000000	-0.001735	0.000000	-0.000008	-0.000001	0.000000	0.000000
56.762001	20.674520	14.684517	-0.075628	0.051813	2.795764	0.000000	-0.001735	0.000000	-0.000008	-0.000001	0.000000	0.000000
57.095334	20.730344	14.657562	-0.091843	0.029053	2.795186	0.000000	-0.001735	0.000000	-0.000009	-0.000001	0.000000	0.000000
57.429918	20.797248	14.645765	-0.108119	0.006207	2.794606	0.000000	-0.001735	0.000000	-0.000009	-0.000001	0.000000	0.000000
57.727240	20.865840	14.648110	-0.177105	0.024181	2.794090	0.000000	0.005566	0.000000	-0.000009	-0.000001	0.000000	0.000000
58.276300	20.704374	14.902795	0.469441	-0.490774	2.774506	0.000000	-0.076798	0.000000	-0.000010	-0.000001	0.000000	0.000000
58.825360	19.847010	15.738724	1.082828	-1.040686	2.710007	0.000000	-0.157800	0.000000	-0.000010	-0.000000	0.000000	0.000000
59.374420	18.354308	17.215439	1.619730	-1.664724	2.601737	0.000000	-0.236003	0.000000	-0.000010	-0.000000	0.000000	0.000000
59.923480	16.331704	19.438124	2.042222	-2.407336	2.451616	0.000000	-0.310020	0.000000	-0.000010	0.000000	0.000000	0.000000
60.369440	14.748661	21.413634	1.520091	-2.003757	2.328650	0.000000	-0.241736	0.000000	-0.000010	-0.000000	0.000000	0.000000
60.810400	13.610145	22.969149	1.071609	-1.510386	2.236503	0.000000	-0.176603	0.000000	-0.000010	-0.000000	0.000000	0.000000
61.251360	12.844151	24.057469	0.672086	-0.948293	2.172606	0.000000	-0.113480	0.000000	-0.000011	-0.000001	0.000000	0.000000
61.692320	12.415684	24.629076	0.303268	-0.343053	2.136233	0.000000	-0.051651	0.000000	-0.000011	-0.000001	0.000000	0.000000
62.134530	12.305223	24.657420	-0.021616	0.217267	2.126975	0.000000	0.004374	0.000000	-0.000011	-0.000001	0.000000	0.000000
62.431853	12.325265	24.531977	-0.045790	0.204639	2.128275	0.000000	0.004374	0.000000	-0.000012	-0.000001	0.000000	0.000000
62.765186	12.364825	24.400270	-0.072891	0.190483	2.129734	0.000000	0.004374	0.000000	-0.000012	-0.000001	0.000000	0.000000
63.098520	12.422453	24.278000	-0.099993	0.176326	2.131193	0.000000	0.004374	0.000000	-0.000013	-0.000001	0.000000	0.000000
63.433103	12.498466	24.164763	-0.127196	0.162116	2.132657	0.000000	0.004374	0.000000	-0.000013	-0.000001	0.000000	0.000000
63.730426	12.581290	24.072116	-0.120512	0.090449	2.133958	0.000000	-0.000859	0.000000	-0.000013	-0.000001	0.000000	0.000000
64.171386	12.847820	23.727250	-0.486211	0.688654	2.147120	0.000000	0.060613	0.000000	-0.000014	-0.000001	0.000000	0.000000
64.612346	13.445406	22.866670	-0.874124	1.255526	2.187516	0.000000	0.122775	0.000000	-0.000015	-0.000002	0.000000	0.000000
65.053306	14.401350	21.529532	-1.301973	1.765272	2.255604	0.000000	0.186336	0.000000	-0.000015	-0.000002	0.000000	0.000000
65.494266	15.759327	19.776673	-1.789305	2.194699	2.352162	0.000000	0.252018	0.000000	-0.000017	-0.000003	0.000000	0.000000
65.940226	17.604541	17.663049	-2.363076	2.525022	2.479860	0.000000	0.320974	0.000000	-0.000018	-0.000003	0.000000	0.000000
66.489286	19.970044	15.298613	-1.919701	1.806734	2.635728	0.000000	0.245948	0.000000	-0.000019	-0.000002	0.000000	0.000000
67.038346	21.770875	13.648070	-1.340728	1.217136	2.749142	0.000000	0.166561	0.000000	-0.000021	-0.000002	0.000000	0.000000
67.587406	22.879831	12.593856	-0.667053	0.714232	2.818091	0.000000	0.084219	0.000000	-0.000021	-0.000001	0.000000	0.000000
68.136466	23.218582	12.060883	0.053739	0.262201	2.841351	0.000000	0.000383	0.000000	-0.000022	-0.000000	0.000000	0.000000
68.435038	23.226565	11.893519	-0.019798	0.266828	2.843683	0.000000	0.007808	0.000000	-0.000022	-0.000001	0.000000	0.000000
68.768372	23.244549	11.725640	-0.034155	0.236806	2.846286	0.000000	0.007808	0.000000	-0.000022	-0.000001	0.000000	0.000000
69.101705	23.272104	11.577777	-0.048512	0.206784	2.848888	0.000000	0.007808	0.000000	-0.000022	-0.000001	0.000000	0.000000
69.436288	23.309389	11.449486	-0.062923	0.176650	2.851501	0.000000	0.007808	0.000000	-0.000022	-0.000001	0.000000	0.000000
69.733611	23.350613	11.352404	-0.136751	0.179539	2.853823	0.000000	0.015266	0.000000	-0.000023	-0.000001	0.000000	0.000000
70.282671	23.099740	11.382640	0.590959	-0.234933	2.839019	0.000000	-0.069111	0.000000	-0.000023	0.000000	0.000000	0.000000
