#ParticleID	Turn	x[m]	xp	y[m]	yp	z[m]	dE[GeV]# s	beta_x	beta_y	alpha_x	alpha_y	D_x	D_y	D_px	D_py	orbit_x	orbit_px	orbit_y	orbit_py
0.300000	11.809476	25.035488	-0.010627	-0.027071	2.618173	0.000000	-0.000011	0.000000	-0.000002	0.000001	0.000000	0.000000
0.601250	11.823565	25.055425	-0.036139	-0.039112	2.618169	0.000000	-0.000011	0.000000	-0.000001	0.000001	0.000000	0.000000
0.898573	11.852541	25.082217	-0.032252	-0.112506	2.618165	0.000000	-0.006432	0.000000	-0.000001	0.000001	0.000000	0.000000
1.339533	12.033063	24.903200	-0.378685	0.516933	2.631622	0.000000	0.067527	0.000000	-0.000000	0.000001	0.000000	0.000000
1.780493	12.525557	24.177358	-0.742419	1.122852	2.677830	0.000000	0.142254	0.000000	0.000000	0.000001	0.000000	0.000000
2.221453	13.352522	22.937718	-1.140071	1.677682	2.757316	0.000000	0.218602	0.000000	0.000001	0.000001	0.000000	0.000000
2.662413	14.551742	21.240680	-1.589811	2.156179	2.870984	0.000000	0.297440	0.000000	0.000002	0.000002	0.000000	0.000000
3.108373	16.198737	19.138574	-2.116471	2.537704	3.021990	0.000000	0.380154	0.000000	0.000002	0.000002	0.000000	0.000000
3.657433	18.310753	16.777575	-1.707361	1.787754	3.205446	0.000000	0.287117	0.000000	0.000003	0.000001	0.000000	0.000000
4.206493	19.904231	15.165772	-1.177650	1.165141	3.336342	0.000000	0.188986	0.000000	0.000004	0.000001	0.000000	0.000000
4.755553	20.866615	14.188362	-0.564757	0.625518	3.412358	0.000000	0.087504	0.000000	0.000005	0.000001	0.000000	0.000000
5.304613	21.129926	13.775726	0.088028	0.130450	3.432145	0.000000	-0.015531	0.000000	0.000005	0.000001	0.000000	0.000000
5.603185	21.114550	13.682986	0.018677	0.144168	3.430185	0.000000	-0.006564	0.000000	0.000006	0.000001	0.000000	0.000000
5.936519	21.107363	13.595164	0.002884	0.119300	3.427997	0.000000	-0.006564	0.000000	0.000006	0.000001	0.000000	0.000000
6.269852	21.110704	13.523919	-0.012908	0.094433	3.425808	0.000000	-0.006564	0.000000	0.000006	0.000001	0.000000	0.000000
6.604435	21.124646	13.469080	-0.028760	0.069472	3.423612	0.000000	-0.006564	0.000000	0.000007	0.000001	0.000000	0.000000
6.901758	21.145936	13.434363	-0.098093	0.082391	3.421660	0.000000	0.002376	0.000000	0.000007	0.000001	0.000000	0.000000
7.450818	20.893280	13.604769	0.555531	-0.394580	3.394763	0.000000	-0.100204	0.000000	0.000008	0.000001	0.000000	0.000000
7.999878	19.940265	14.311213	1.169915	-0.899657	3.311949	0.000000	-0.201006	0.000000	0.000008	0.000001	0.000000	0.000000
8.548938	18.354208	15.604014	1.701662	-1.468813	3.174688	0.000000	-0.298243	0.000000	0.000008	0.000000	0.000000	0.000000
9.097998	16.247140	17.575255	2.113213	-2.142590	2.985414	0.000000	-0.390190	0.000000	0.000008	0.000000	0.000000	0.000000
9.543958	14.603264	19.331717	1.586043	-1.779369	2.829711	0.000000	-0.308485	0.000000	0.000008	0.000000	0.000000	0.000000
9.984918	13.407654	20.710905	1.135622	-1.336423	2.710927	0.000000	-0.230778	0.000000	0.000009	0.000000	0.000000	0.000000
10.425878	12.584986	21.671043	0.737085	-0.832671	2.625797	0.000000	-0.155699	0.000000	0.000009	0.000001	0.000000	0.000000
10.866838	12.097675	22.168444	0.372222	-0.291033	2.573352	0.000000	-0.082393	0.000000	0.000009	0.000001	0.000000	0.000000
11.309048	11.923322	22.179955	0.053498	0.209399	2.552975	0.000000	-0.016286	0.000000	0.000010	0.000001	0.000000	0.000000
11.606371	11.898945	22.059597	0.028490	0.195406	2.548132	0.000000	-0.016286	0.000000	0.000010	0.000001	0.000000	0.000000
12.086371	11.890974	21.882850	-0.011882	0.172816	2.540314	0.000000	-0.016286	0.000000	0.000011	0.000001	0.000000	0.000000
12.566371	11.921759	21.727790	-0.052255	0.150226	2.532497	0.000000	-0.016286	0.000000	0.000011	0.000001	0.000000	0.000000
13.046371	11.991302	21.594416	-0.092627	0.127636	2.524679	0.000000	-0.016286	0.000000	0.000012	0.000001	0.000000	0.000000
13.526371	12.099603	21.482728	-0.133000	0.105046	2.516861	0.000000	-0.016286	0.000000	0.000012	0.000001	0.000000	0.000000
14.007621	12.247095	21.392521	-0.173477	0.082397	2.509023	0.000000	-0.016286	0.000000	0.000013	0.000001	0.000000	0.000000
14.304943	12.357688	21.347685	-0.168184	0.016060	2.504181	0.000000	-0.022426	0.000000	0.000013	0.000001	0.000000	0.000000
14.745903	12.664528	21.099879	-0.530301	0.543770	2.509923	0.000000	0.048495	0.000000	0.000014	0.000001	0.000000	0.000000
15.186863	13.300163	20.395848	-0.916647	1.046739	2.547029	0.000000	0.119968	0.000000	0.000014	0.000002	0.000000	0.000000
15.627823	14.293634	19.267627	-1.344872	1.502082	2.615923	0.000000	0.192807	0.000000	0.000015	0.000002	0.000000	0.000000
16.068783	15.690330	17.766547	-1.834540	1.889082	2.717389	0.000000	0.267842	0.000000	0.000016	0.000003	0.000000	0.000000
16.514743	17.577720	15.939405	-2.412781	2.190873	2.854278	0.000000	0.346390	0.000000	0.000018	0.000003	0.000000	0.000000
17.063803	20.001854	13.899267	-1.976144	1.546752	3.020736	0.000000	0.259062	0.000000	0.000019	0.000002	0.000000	0.000000
17.612863	21.866556	12.502163	-1.399922	1.012803	3.137912	0.000000	0.167138	0.000000	0.000020	0.000002	0.000000	0.000000
18.161923	23.040113	11.648583	-0.724817	0.550995	3.203728	0.000000	0.072250	0.000000	0.000021	0.000001	0.000000	0.000000
18.710983	23.439631	11.277726	0.001486	0.128432	3.217015	0.000000	-0.023919	0.000000	0.000022	0.000000	0.000000	0.000000
19.009556	23.479125	11.191543	-0.072530	0.130758	3.212382	0.000000	-0.015515	0.000000	0.000022	0.000001	0.000000	0.000000
19.342889	23.532236	11.114468	-0.086802	0.100465	3.207210	0.000000	-0.015515	0.000000	0.000022	0.000001	0.000000	0.000000
19.676223	23.594861	11.057590	-0.101073	0.070171	3.202039	0.000000	-0.015515	0.000000	0.000022	0.000001	0.000000	0.000000
20.010806	23.667582	11.020671	-0.232661	0.094367	3.196867	0.000000	0.000324	0.000000	0.000022	0.000001	0.000000	0.000000
20.308129	23.809870	10.972649	-0.308102	0.095812	3.196963	0.000000	0.008675	0.000000	0.000023	0.000001	0.000000	0.000000
20.857189	23.737536	11.089470	0.439063	-0.309834	3.175508	0.000000	-0.086712	0.000000	0.000023	-0.000000	0.000000	0.000000
21.406249	22.856968	11.661171	1.155216	-0.737548	3.102025	0.000000	-0.180562	0.000000	0.000023	-0.000001	0.000000	0.000000
21.955309	21.230365	12.728473	1.789769	-1.217797	2.977818	0.000000	-0.271208	0.000000	0.000022	-0.000001	0.000000	0.000000
22.504369	18.972622	14.367399	2.297902	-1.784787	2.805091	0.000000	-0.357045	0.000000	0.000021	-0.000002	0.000000	0.000000
22.950329	17.193262	15.838906	1.706134	-1.500931	2.663157	0.000000	-0.279838	0.000000	0.000020	-0.000002	0.000000	0.000000
23.391289	15.917928	17.012166	1.197011	-1.149638	2.556081	0.000000	-0.206273	0.000000	0.000019	-0.000001	0.000000	0.000000
23.832249	15.065880	17.851276	0.742576	-0.746037	2.480896	0.000000	-0.135058	0.000000	0.000019	-0.000001	0.000000	0.000000
24.273209	14.598188	18.318057	0.322068	-0.308492	2.436746	0.000000	-0.065381	0.000000	0.000019	-0.000000	0.000000	0.000000
24.715418	14.493607	18.391026	-0.048277	0.097928	2.423124	0.000000	-0.002389	0.000000	0.000019	0.000000	0.000000	0.000000
25.012741	14.528429	18.337647	-0.068839	0.081606	2.422413	0.000000	-0.002389	0.000000	0.000019	0.000000	0.000000	0.000000
25.346075	14.582005	18.289342	-0.091891	0.063308	2.421617	0.000000	-0.002389	0.000000	0.000019	0.000000	0.000000	0.000000
25.679408	14.650950	18.253236	-0.114943	0.045009	2.420820	0.000000	-0.002389	0.000000	0.000019	0.000000	0.000000	0.000000
26.013991	14.735309	18.229632	-0.018540	-0.121246	2.419996	0.000000	-0.022022	0.000000	0.000019	0.000000	0.000000	0.000000
26.311314	14.752335	18.306651	-0.002554	-0.182680	2.413449	0.000000	-0.027939	0.000000	0.000019	0.000000	0.000000	0.000000
26.752274	14.936334	18.269236	-0.416296	0.267207	2.416238	0.000000	0.040604	0.000000	0.000019	0.000001	0.000000	0.000000
27.193234	15.492196	17.838922	-0.849059	0.704936	2.449326	0.000000	0.109610	0.000000	0.000020	0.000001	0.000000	0.000000
27.634194	16.445319	17.035289	-1.320612	1.110591	2.513088	0.000000	0.179864	0.000000	0.000020	0.000002	0.000000	0.000000
28.075154	17.839247	15.894901	-1.852500	1.465715	2.608251	0.000000	0.252167	0.000000	0.000021	0.000002	0.000000	0.000000
28.521114	19.761881	14.452465	-2.473994	1.755062	2.737502	0.000000	0.327785	0.000000	0.000022	0.000003	0.000000	0.000000
29.070174	22.205554	12.845355	-1.950306	1.189236	2.894811	0.000000	0.244389	0.000000	0.000024	0.000002	0.000000	0.000000
29.619234	23.994641	11.809707	-1.288857	0.708117	3.005072	0.000000	0.156658	0.000000	0.000024	0.000001	0.000000	0.000000
30.168294	25.002769	11.271755	-0.536370	0.277435	3.066328	0.000000	0.066148	0.000000	0.000025	0.000000	0.000000	0.000000
30.717354	25.158729	11.193182	0.254003	-0.133486	3.077494	0.000000	-0.025535	0.000000	0.000025	-0.000000	0.000000	0.000000
31.015927	25.049966	11.263483	0.175993	-0.131211	3.072270	0.000000	-0.017496	0.000000	0.000025	-0.000000	0.000000	0.000000
31.349260	24.937210	11.360992	0.162274	-0.161314	3.066438	0.000000	-0.017496	0.000000	0.000025	-0.000000	0.000000	0.000000
31.682593	24.833600	11.478569	0.148556	-0.191418	3.060606	0.000000	-0.017496	0.000000	0.000024	-0.000000	0.000000	0.000000
32.017177	24.738799	11.616770	0.134785	-0.221635	3.054753	0.000000	-0.017496	0.000000	0.000024	-0.000000	0.000000	0.000000
32.314499	24.662288	11.756547	0.058123	-0.217775	3.049551	0.000000	-0.009530	0.000000	0.000024	-0.000000	0.000000	0.000000
32.863559	24.175902	12.234885	0.822484	-0.658562	3.019437	0.000000	-0.100001	0.000000	0.000024	-0.000001	0.000000	0.000000
33.412619	22.877245	13.220025	1.528749	-1.146258	2.940065	0.000000	-0.188698	0.000000	0.000023	-0.000002	0.000000	0.000000
33.961679	20.858049	14.782136	2.127031	-1.715599	2.812841	0.000000	-0.274048	0.000000	0.000022	-0.000003	0.000000	0.000000
34.510739	18.260938	17.032483	2.575069	-2.407138	2.640022	0.000000	-0.354537	0.000000	0.000020	-0.000003	0.000000	0.000000
34.956699	16.241554	19.045353	1.969328	-2.087582	2.498255	0.000000	-0.281611	0.000000	0.000019	-0.000003	0.000000	0.000000
35.397659	14.735697	20.710302	1.458576	-1.673786	2.389458	0.000000	-0.212319	0.000000	0.000018	-0.000002	0.000000	0.000000
35.838619	13.649306	21.975212	1.014463	-1.183834	2.310654	0.000000	-0.145446	0.000000	0.000017	-0.000002	0.000000	0.000000
36.279579	12.932747	22.782530	0.616698	-0.640019	2.260945	0.000000	-0.080229	0.000000	0.000016	-0.000001	0.000000	0.000000
36.721789	12.552588	23.095835	0.277780	-0.123767	2.239739	0.000000	-0.021418	0.000000	0.000016	-0.000001	0.000000	0.000000
37.019112	12.394994	23.173319	0.252266	-0.136838	2.233371	0.000000	-0.021418	0.000000	0.000015	-0.000001	0.000000	0.000000
37.352445	12.236351	23.269428	0.223662	-0.151491	2.226232	0.000000	-0.021418	0.000000	0.000015	-0.000001	0.000000	0.000000
37.685779	12.096777	23.375307	0.195058	-0.166145	2.219093	0.000000	-0.021418	0.000000	0.000015	-0.000001	0.000000	0.000000
38.020362	11.975857	23.491407	0.166347	-0.180854	2.211927	0.000000	-0.021418	0.000000	0.000014	-0.000001	0.000000	0.000000
38.317684	11.884525	23.602837	0.169974	-0.251798	2.205560	0.000000	-0.026826	0.000000	0.000014	-0.000001	0.000000	0.000000
38.758644	11.886123	23.563465	-0.173611	0.340746	2.207658	0.000000	0.036349	0.000000	0.000014	-0.000001	0.000000	0.000000
39.199604	12.193074	23.006383	-0.525128	0.917785	2.237678	0.000000	0.099939	0.000000	0.000013	-0.000000	0.000000	0.000000
39.640564	12.819403	21.956938	-0.900636	1.453067	2.295963	0.000000	0.164666	0.000000	0.000013	-0.000000	0.000000	0.000000
40.081524	13.793725	20.462880	-1.317292	1.922235	2.383176	0.000000	0.231269	0.000000	0.000013	0.000000	0.000000	0.000000
40.527484	15.178130	18.569610	-1.797959	2.305228	2.501782	0.000000	0.300911	0.000000	0.000014	0.000001	0.000000	0.000000
41.076544	16.944734	16.442014	-1.400500	1.592625	2.646471	0.000000	0.225357	0.000000	0.000014	0.000000	0.000000	0.000000
41.625604	18.217641	15.030429	-0.904115	0.993462	2.748516	0.000000	0.145805	0.000000	0.000014	-0.000000	0.000000	0.000000
42.174664	18.906940	14.234312	-0.343869	0.465060	2.806108	0.000000	0.063667	0.000000	0.000014	-0.000001	0.000000	0.000000
42.723724	18.963942	13.996957	0.240667	-0.030216	2.818224	0.000000	-0.019600	0.000000	0.000013	-0.000001	0.000000	0.000000
43.022297	18.854686	13.999533	0.174803	-0.014980	2.814571	0.000000	-0.012237	0.000000	0.000013	-0.000001	0.000000	0.000000
43.502297	18.699468	14.030376	0.148568	-0.049275	2.808697	0.000000	-0.012237	0.000000	0.000012	-0.000001	0.000000	0.000000
43.982297	18.569436	14.094141	0.122332	-0.083569	2.802824	0.000000	-0.012237	0.000000	0.000012	-0.000001	0.000000	0.000000
44.462297	18.464590	14.190829	0.096096	-0.117864	2.796951	0.000000	-0.012237	0.000000	0.000011	-0.000001	0.000000	0.000000
44.942297	18.384931	14.320440	0.069860	-0.152158	2.791077	0.000000	-0.012237	0.000000	0.000011	-0.000001	0.000000	0.000000
45.423547	18.330577	14.483260	-0.047264	-0.114783	2.785206	0.000000	0.001562	0.000000	0.000010	-0.000001	0.000000	0.000000
45.720870	18.363515	14.557700	-0.111496	-0.097549	2.785671	0.000000	0.008840	0.000000	0.000010	-0.000001	0.000000	0.000000
46.269930	18.176750	14.946345	0.449635	-0.614467	2.767954	0.000000	-0.073281	0.000000	0.000009	-0.000001	0.000000	0.000000
46.818990	17.387669	15.923187	0.979007	-1.175152	2.705439	0.000000	-0.154103	0.000000	0.000009	-0.000002	0.000000	0.000000
47.368050	16.052007	17.557804	1.439226	-1.819540	2.599234	0.000000	-0.232192	0.000000	0.000008	-0.000002	0.000000	0.000000
47.917110	14.264109	19.966625	1.797785	-2.593529	2.451223	0.000000	-0.306162	0.000000	0.000007	-0.000002	0.000000	0.000000
48.363070	12.872825	22.108230	1.333019	-2.188518	2.329979	0.000000	-0.237865	0.000000	0.000006	-0.000002	0.000000	0.000000
48.804030	11.877411	23.822912	0.932925	-1.685206	2.239550	0.000000	-0.172675	0.000000	0.000005	-0.000002	0.000000	0.000000
49.244990	11.214790	25.058078	0.575453	-1.105218	2.177407	0.000000	-0.109452	0.000000	0.000004	-0.000002	0.000000	0.000000
49.685950	10.854690	25.757527	0.244272	-0.474943	2.142841	0.000000	-0.047475	0.000000	0.000003	-0.000002	0.000000	0.000000
50.128160	10.780782	25.889153	-0.049429	0.113406	2.135470	0.000000	0.008724	0.000000	0.000003	-0.000001	0.000000	0.000000
50.425482	10.818394	25.825175	-0.077075	0.101773	2.138065	0.000000	0.008724	0.000000	0.000002	-0.000001	0.000000	0.000000
50.758816	10.880109	25.761673	-0.108070	0.088732	2.140973	0.000000	0.008724	0.000000	0.000002	-0.000001	0.000000	0.000000
51.092149	10.962487	25.706865	-0.139064	0.075691	2.143882	0.000000	0.008724	0.000000	0.000001	-0.000001	0.000000	0.000000
51.426732	11.065729	25.661115	-0.080403	-0.145574	2.146780	0.000000	-0.008692	0.000000	0.000001	-0.000002	0.000000	0.000000
51.724055	11.121581	25.751198	-0.080172	-0.220556	2.144196	0.000000	-0.013950	0.000000	0.000000	-0.000002	0.000000	0.000000
52.165015	11.337514	25.659206	-0.411376	0.428380	2.151633	0.000000	0.047712	0.000000	-0.000000	-0.000002	0.000000	0.000000
52.605975	11.852696	25.001346	-0.761374	1.057824	2.186355	0.000000	0.109918	0.000000	-0.000001	-0.000002	0.000000	0.000000
53.046935	12.690661	23.807551	-1.146157	1.639139	2.248757	0.000000	0.173375	0.000000	-0.000002	-0.000002	0.000000	0.000000
53.487895	13.889696	22.132136	-1.583305	2.145874	2.339549	0.000000	0.238807	0.000000	-0.000002	-0.000002	0.000000	0.000000
53.933855	15.525136	20.026284	-2.097016	2.556311	2.461271	0.000000	0.307358	0.000000	-0.000003	-0.000002	0.000000	0.000000
54.482915	17.630750	17.656627	-1.715227	1.785007	2.609850	0.000000	0.233053	0.000000	-0.000004	-0.000002	0.000000	0.000000
55.031975	19.247699	16.059585	-1.212283	1.140845	2.716434	0.000000	0.154615	0.000000	-0.000005	-0.000001	0.000000	0.000000
55.581035	20.261771	15.121405	-0.623709	0.577943	2.779133	0.000000	0.073434	0.000000	-0.000005	-0.000001	0.000000	0.000000
56.130095	20.601336	14.775261	0.008921	0.056207	2.796835	0.000000	-0.009050	0.000000	-0.000006	-0.000001	0.000000	0.000000
56.428668	20.632490	14.724731	-0.059432	0.074425	2.796315	0.000000	-0.001742	0.000000	-0.000006	-0.000001	0.000000	0.000000
56.762001	20.677515	14.682702	-0.075644	0.051662	2.795735	0.000000	-0.001742	0.000000	-0.000007	-0.000001	0.000000	0.000000
57.095334	20.733349	14.655848	-0.091857	0.028899	2.795154	0.000000	-0.001742	0.000000	-0.000007	-0.000001	0.000000	0.000000
57.429918	20.800262	14.644155	-0.108131	0.006051	2.794572	0.000000	-0.001742	0.000000	-0.000008	-0.000001	0.000000	0.000000
57.727240	20.868861	14.646594	-0.177122	0.024018	2.794054	0.000000	0.005559	0.000000	-0.000008	-0.000001	0.000000	0.000000
58.276300	20.707358	14.901434	0.469525	-0.490897	2.774467	0.000000	-0.076804	0.000000	-0.000008	-0.000001	0.000000	0.000000
58.825360	19.849849	15.737480	1.083007	-1.040778	2.709965	0.000000	-0.157805	0.000000	-0.000009	-0.000001	0.000000	0.000000
59.374420	18.356903	17.214282	1.619991	-1.664790	2.601693	0.000000	-0.236006	0.000000	-0.000009	-0.000000	0.000000	0.000000
59.923480	16.333976	19.437029	2.042547	-2.407382	2.451571	0.000000	-0.310022	0.000000	-0.000009	0.000000	0.000000	0.000000
60.369440	14.750674	21.412599	1.520347	-2.003845	2.328604	0.000000	-0.241739	0.000000	-0.000009	-0.000000	0.000000	0.000000
60.810400	13.611957	22.968208	1.071809	-1.510510	2.236455	0.000000	-0.176606	0.000000	-0.000009	-0.000000	0.000000	0.000000
61.251360	12.845809	24.056653	0.672238	-0.948448	2.172557	0.000000	-0.113486	0.000000	-0.000009	-0.000001	0.000000	0.000000
61.692320	12.417226	24.628408	0.303381	-0.343233	2.136181	0.000000	-0.051657	0.000000	-0.000010	-0.000001	0.000000	0.000000
62.134530	12.306681	24.656918	-0.021536	0.217073	2.126920	0.000000	0.004367	0.000000	-0.000010	-0.000001	0.000000	0.000000
62.431853	12.326673	24.531590	-0.045706	0.204447	2.128218	0.000000	0.004367	0.000000	-0.000011	-0.000001	0.000000	0.000000
62.765186	12.366177	24.400011	-0.072804	0.190291	2.129674	0.000000	0.004367	0.000000	-0.000011	-0.000001	0.000000	0.000000
63.098520	12.423746	24.277869	-0.099902	0.176135	2.131130	0.000000	0.004367	0.000000	-0.000011	-0.000001	0.000000	0.000000
63.433103	12.499697	24.164760	-0.127102	0.161926	2.132592	0.000000	0.004367	0.000000	-0.000012	-0.000001	0.000000	0.000000
63.730426	12.582465	24.072225	-0.120413	0.090260	2.133890	0.000000	-0.000867	0.000000	-0.000012	-0.000001	0.000000	0.000000
64.171386	12.848918	23.727524	-0.486136	0.688473	2.147049	0.000000	0.060603	0.000000	-0.000013	-0.000001	0.000000	0.000000
64.612346	13.446447	22.867097	-0.874070	1.255360	2.187440	0.000000	0.122764	0.000000	-0.000014	-0.000002	0.000000	0.000000
65.053306	14.402352	21.530094	-1.301937	1.765130	2.255524	0.000000	0.186322	0.000000	-0.000014	-0.000002	0.000000	0.000000
65.494266	15.760304	19.777348	-1.789285	2.194588	2.352075	0.000000	0.252003	0.000000	-0.000015	-0.000003	0.000000	0.000000
65.940226	17.605508	17.663808	-2.363072	2.524945	2.479766	0.000000	0.320956	0.000000	-0.000017	-0.000003	0.000000	0.000000
66.489286	19.970983	15.299457	-1.919655	1.806652	2.635625	0.000000	0.245934	0.000000	-0.000018	-0.000002	0.000000	0.000000
67.038346	21.771741	13.649010	-1.340643	1.217043	2.749032	0.000000	0.166550	0.000000	-0.000019	-0.000002	0.000000	0.000000
67.587406	22.880584	12.594907	-0.666935	0.714121	2.817976	0.000000	0.084211	0.000000	-0.000020	-0.000001	0.000000	0.000000
68.136466	23.219191	12.062068	0.053883	0.262064	2.841233	0.000000	0.000379	0.000000	-0.000021	-0.000001	0.000000	0.000000
68.435038	23.227088	11.894782	-0.019655	0.266699	2.843563	0.000000	0.007804	0.000000	-0.000021	-0.000001	0.000000	0.000000
68.768372	23.244977	11.726989	-0.034011	0.236682	2.846165	0.000000	0.007804	0.000000	-0.000021	-0.000001	0.000000	0.000000
69.101705	23.272436	11.579206	-0.048368	0.206666	2.848766	0.000000	0.007804	0.000000	-0.000021	-0.000001	0.000000	0.000000
69.436288	23.309624	11.450993	-0.062778	0.176536	2.851378	0.000000	0.007804	0.000000	-0.000021	-0.000001	0.000000	0.000000
69.733611	23.350762	11.353977	-0.136606	0.179433	2.853698	0.000000	0.015262	0.000000	-0.000021	-0.000001	0.000000	0.000000
70.282671	23.099729	11.384353	0.591105	-0.235084	2.838893	0.000000	-0.069111	0.000000	-0.000022	0.000000	0.000000	0.000000
