#ParticleID	Turn	x[m]	xp	y[m]	yp	z[m]	dE[GeV]# s	beta_x	beta_y	alpha_x	alpha_y	D_x	D_y	D_px	D_py	orbit_x	orbit_px	orbit_y	orbit_py
0.300000	11.815641	25.010674	-0.011273	-0.027342	2.618109	0.000000	0.000015	0.000000	-0.000002	0.000001	0.000000	0.000000
0.601250	11.830115	25.030779	-0.036773	-0.039396	2.618113	0.000000	0.000015	0.000000	-0.000002	0.000001	0.000000	0.000000
0.898573	11.859464	25.057742	-0.032856	-0.112742	2.618117	0.000000	-0.006406	0.000000	-0.000001	0.000001	0.000000	0.000000
1.339533	12.040593	24.879218	-0.379462	0.516056	2.631585	0.000000	0.067552	0.000000	-0.000001	0.000001	0.000000	0.000000
1.780493	12.533861	24.154419	-0.743404	1.121373	2.677804	0.000000	0.142278	0.000000	-0.000000	0.000001	0.000000	0.000000
2.221453	13.361804	22.916325	-1.141311	1.675668	2.757300	0.000000	0.218626	0.000000	0.000000	0.000001	0.000000	0.000000
2.662413	14.562249	21.221266	-1.591361	2.153722	2.870978	0.000000	0.297463	0.000000	0.000000	0.000001	0.000000	0.000000
3.108373	16.210793	19.121509	-2.118406	2.534916	3.021996	0.000000	0.380178	0.000000	0.000001	0.000001	0.000000	0.000000
3.657433	18.324772	16.763185	-1.708980	1.785641	3.205464	0.000000	0.287139	0.000000	0.000002	0.000001	0.000000	0.000000
4.206493	19.919800	15.153403	-1.178839	1.163553	3.336373	0.000000	0.189008	0.000000	0.000002	0.000001	0.000000	0.000000
4.755553	20.883212	14.177501	-0.565431	0.624343	3.412401	0.000000	0.087524	0.000000	0.000003	0.000001	0.000000	0.000000
5.304613	21.146958	13.765969	0.087916	0.129603	3.432199	0.000000	-0.015512	0.000000	0.000003	0.000001	0.000000	0.000000
5.603185	21.131673	13.673753	0.018530	0.143286	3.430245	0.000000	-0.006544	0.000000	0.000003	0.000001	0.000000	0.000000
5.936519	21.124579	13.586522	0.002751	0.118408	3.428063	0.000000	-0.006544	0.000000	0.000003	0.000001	0.000000	0.000000
6.269852	21.128006	13.515876	-0.013029	0.093530	3.425881	0.000000	-0.006544	0.000000	0.000004	0.000001	0.000000	0.000000
6.604435	21.142023	13.461644	-0.028868	0.068558	3.423692	0.000000	-0.006544	0.000000	0.000004	0.000001	0.000000	0.000000
6.901758	21.163374	13.427474	-0.098236	0.081450	3.421746	0.000000	0.002396	0.000000	0.000004	0.000001	0.000000	0.000000
7.450818	20.910554	13.598809	0.555971	-0.395344	3.394859	0.000000	-0.100187	0.000000	0.000005	0.000001	0.000000	0.000000
7.999878	19.956749	14.306020	1.170907	-0.900299	3.312054	0.000000	-0.200992	0.000000	0.000005	0.000000	0.000000	0.000000
8.548938	18.369329	15.599481	1.703136	-1.469379	3.174799	0.000000	-0.298233	0.000000	0.000005	0.000000	0.000000	0.000000
9.097998	16.260424	17.571320	2.115065	-2.143120	2.985530	0.000000	-0.390184	0.000000	0.000005	0.000000	0.000000	0.000000
9.543958	14.615079	19.328336	1.587498	-1.780078	2.829830	0.000000	-0.308476	0.000000	0.000005	0.000000	0.000000	0.000000
9.984918	13.418335	20.708215	1.136749	-1.337276	2.711051	0.000000	-0.230765	0.000000	0.000006	0.000000	0.000000	0.000000
10.425878	12.594799	21.669154	0.737935	-0.833629	2.625928	0.000000	-0.155683	0.000000	0.000006	0.000001	0.000000	0.000000
10.866838	12.106844	22.167431	0.372835	-0.292053	2.573491	0.000000	-0.082373	0.000000	0.000006	0.000001	0.000000	0.000000
11.309048	11.932044	22.179855	0.053924	0.208362	2.553123	0.000000	-0.016263	0.000000	0.000006	0.000001	0.000000	0.000000
11.606371	11.907409	22.060112	0.028933	0.194375	2.548288	0.000000	-0.016263	0.000000	0.000007	0.000001	0.000000	0.000000
12.086371	11.898999	21.884350	-0.011412	0.171794	2.540481	0.000000	-0.016263	0.000000	0.000007	0.000001	0.000000	0.000000
12.566371	11.929319	21.730266	-0.051756	0.149214	2.532674	0.000000	-0.016263	0.000000	0.000008	0.000001	0.000000	0.000000
13.046371	11.998371	21.597860	-0.092101	0.126633	2.524868	0.000000	-0.016263	0.000000	0.000008	0.000001	0.000000	0.000000
13.526371	12.106153	21.487132	-0.132446	0.104052	2.517061	0.000000	-0.016263	0.000000	0.000008	0.000001	0.000000	0.000000
14.007621	12.253099	21.397877	-0.172896	0.081412	2.509234	0.000000	-0.016263	0.000000	0.000009	0.000001	0.000000	0.000000
14.304943	12.363341	21.353624	-0.167570	0.015065	2.504399	0.000000	-0.022404	0.000000	0.000009	0.000001	0.000000	0.000000
14.745903	12.669689	21.106619	-0.529796	0.542956	2.510151	0.000000	0.048522	0.000000	0.000010	0.000001	0.000000	0.000000
15.186863	13.304919	20.403213	-0.916228	1.046144	2.547272	0.000000	0.120001	0.000000	0.000010	0.000001	0.000000	0.000000
15.627823	14.298050	19.275410	-1.344518	1.501732	2.616182	0.000000	0.192847	0.000000	0.000011	0.000002	0.000000	0.000000
16.068783	15.694457	17.774524	-1.834237	1.888993	2.717668	0.000000	0.267889	0.000000	0.000012	0.000002	0.000000	0.000000
16.514743	17.581594	15.947341	-2.412514	2.191052	2.854580	0.000000	0.346445	0.000000	0.000013	0.000002	0.000000	0.000000
17.063803	20.005322	13.907105	-1.975677	1.546752	3.021066	0.000000	0.259106	0.000000	0.000014	0.000002	0.000000	0.000000
17.612863	21.869415	12.510099	-1.399288	1.012624	3.138263	0.000000	0.167172	0.000000	0.000015	0.000001	0.000000	0.000000
18.161923	23.042204	11.656819	-0.724060	0.550623	3.204094	0.000000	0.072272	0.000000	0.000015	0.000001	0.000000	0.000000
18.710983	23.440846	11.286487	0.002312	0.127842	3.217391	0.000000	-0.023909	0.000000	0.000015	0.000000	0.000000	0.000000
19.009556	23.479850	11.200633	-0.071708	0.130219	3.212761	0.000000	-0.015504	0.000000	0.000016	0.000000	0.000000	0.000000
19.342889	23.532412	11.123909	-0.085978	0.099954	3.207593	0.000000	-0.015504	0.000000	0.000016	0.000000	0.000000	0.000000
19.676223	23.594487	11.067361	-0.100247	0.069689	3.202425	0.000000	-0.015504	0.000000	0.000016	0.000000	0.000000	0.000000
20.010806	23.666655	11.030755	-0.231828	0.093964	3.197257	0.000000	0.000337	0.000000	0.000016	0.000001	0.000000	0.000000
20.308129	23.808446	10.982964	-0.307265	0.095465	3.197357	0.000000	0.008690	0.000000	0.000016	0.000001	0.000000	0.000000
20.857189	23.735223	11.100327	0.439836	-0.310479	3.175907	0.000000	-0.086710	0.000000	0.000016	0.000000	0.000000	0.000000
21.406249	22.853868	11.672920	1.155869	-0.738537	3.102421	0.000000	-0.180573	0.000000	0.000016	-0.000001	0.000000	0.000000
21.955309	21.226635	12.741527	1.790257	-1.219200	2.978205	0.000000	-0.271232	0.000000	0.000016	-0.000001	0.000000	0.000000
22.504369	18.968465	14.382264	2.298190	-1.786703	2.805461	0.000000	-0.357081	0.000000	0.000015	-0.000002	0.000000	0.000000
22.950329	17.188827	15.855330	1.706473	-1.502496	2.663512	0.000000	-0.279865	0.000000	0.000014	-0.000001	0.000000	0.000000
23.391289	15.913166	17.029789	1.197417	-1.150782	2.556427	0.000000	-0.206291	0.000000	0.000014	-0.000001	0.000000	0.000000
23.832249	15.060723	17.869702	0.743068	-0.746708	2.481237	0.000000	-0.135067	0.000000	0.000014	-0.000000	0.000000	0.000000
24.273209	14.592552	18.336854	0.322668	-0.308659	2.437084	0.000000	-0.065381	0.000000	0.000014	-0.000000	0.000000	0.000000
24.715418	14.487382	18.409745	-0.047555	0.098224	2.423464	0.000000	-0.002382	0.000000	0.000014	0.000000	0.000000	0.000000
25.012741	14.521776	18.356184	-0.068124	0.081918	2.422756	0.000000	-0.002382	0.000000	0.000014	0.000000	0.000000	0.000000
25.346075	14.574879	18.307666	-0.091185	0.063637	2.421962	0.000000	-0.002382	0.000000	0.000014	0.000000	0.000000	0.000000
25.679408	14.643356	18.271335	-0.114245	0.045356	2.421168	0.000000	-0.002382	0.000000	0.000014	0.000000	0.000000	0.000000
26.013991	14.727251	18.247494	-0.017915	-0.121026	2.420346	0.000000	-0.022017	0.000000	0.000014	0.000000	0.000000	0.000000
26.311314	14.743909	18.324377	-0.001959	-0.182490	2.413800	0.000000	-0.027936	0.000000	0.000014	0.000000	0.000000	0.000000
26.752274	14.927290	18.286582	-0.415486	0.267874	2.416594	0.000000	0.040617	0.000000	0.000014	0.000000	0.000000	0.000000
27.193234	15.482329	17.855480	-0.847996	0.706050	2.449689	0.000000	0.109632	0.000000	0.000015	0.000001	0.000000	0.000000
27.634194	16.434386	17.050686	-1.319248	1.112101	2.513463	0.000000	0.179896	0.000000	0.000015	0.000001	0.000000	0.000000
28.075154	17.826955	15.908817	-1.850773	1.467552	2.608642	0.000000	0.252209	0.000000	0.000016	0.000002	0.000000	0.000000
28.521114	19.747855	14.464627	-2.471820	1.757143	2.737914	0.000000	0.327837	0.000000	0.000016	0.000002	0.000000	0.000000
29.070174	22.189330	12.855503	-1.948500	1.190845	2.895248	0.000000	0.244427	0.000000	0.000017	0.000001	0.000000	0.000000
29.619234	23.976696	11.818294	-1.287548	0.709369	3.005526	0.000000	0.156681	0.000000	0.000018	0.000001	0.000000	0.000000
30.168294	24.983703	11.279121	-0.535650	0.278419	3.066792	0.000000	0.066157	0.000000	0.000018	0.000000	0.000000	0.000000
30.717354	25.139220	11.199581	0.254084	-0.132699	3.077958	0.000000	-0.025542	0.000000	0.000018	-0.000000	0.000000	0.000000
31.015927	25.030384	11.269395	0.176111	-0.130385	3.072733	0.000000	-0.017501	0.000000	0.000018	-0.000000	0.000000	0.000000
31.349260	24.917553	11.366346	0.162381	-0.160467	3.066900	0.000000	-0.017501	0.000000	0.000018	-0.000000	0.000000	0.000000
31.682593	24.813876	11.483351	0.148651	-0.190548	3.061066	0.000000	-0.017501	0.000000	0.000018	-0.000000	0.000000	0.000000
32.017177	24.719015	11.620962	0.134869	-0.220743	3.055211	0.000000	-0.017501	0.000000	0.000018	-0.000000	0.000000	0.000000
32.314499	24.642457	11.760204	0.058246	-0.216852	3.050008	0.000000	-0.009533	0.000000	0.000018	-0.000000	0.000000	0.000000
32.863559	24.156298	12.237563	0.821950	-0.657691	3.019888	0.000000	-0.100018	0.000000	0.000018	-0.000001	0.000000	0.000000
33.412619	22.858573	13.221746	1.527596	-1.145377	2.940502	0.000000	-0.188730	0.000000	0.000017	-0.000001	0.000000	0.000000
33.961679	20.840947	14.782856	2.125340	-1.714645	2.813256	0.000000	-0.274094	0.000000	0.000016	-0.000002	0.000000	0.000000
34.510739	18.245936	17.032085	2.572961	-2.406044	2.640409	0.000000	-0.354596	0.000000	0.000015	-0.000002	0.000000	0.000000
34.956699	16.228222	19.043932	1.967676	-2.086391	2.498617	0.000000	-0.281660	0.000000	0.000014	-0.000002	0.000000	0.000000
35.397659	14.723651	20.707808	1.457302	-1.672553	2.389800	0.000000	-0.212359	0.000000	0.000013	-0.000002	0.000000	0.000000
35.838619	13.638239	21.971633	1.013508	-1.182617	2.310980	0.000000	-0.145477	0.000000	0.000013	-0.000001	0.000000	0.000000
36.279579	12.922399	22.777905	0.616018	-0.638871	2.261259	0.000000	-0.080252	0.000000	0.000012	-0.000001	0.000000	0.000000
36.721789	12.542731	23.090245	0.277322	-0.122730	2.240044	0.000000	-0.021434	0.000000	0.000012	-0.000001	0.000000	0.000000
37.019112	12.385413	23.167112	0.251794	-0.135800	2.233671	0.000000	-0.021434	0.000000	0.000012	-0.000001	0.000000	0.000000
37.352445	12.227090	23.262530	0.223174	-0.150454	2.226527	0.000000	-0.021434	0.000000	0.000011	-0.000001	0.000000	0.000000
37.685779	12.087847	23.367717	0.194555	-0.165108	2.219382	0.000000	-0.021434	0.000000	0.000011	-0.000001	0.000000	0.000000
38.020362	11.967269	23.483123	0.165828	-0.179816	2.212211	0.000000	-0.021434	0.000000	0.000011	-0.000001	0.000000	0.000000
38.317684	11.876251	23.593936	0.169421	-0.250740	2.205839	0.000000	-0.026843	0.000000	0.000011	-0.000001	0.000000	0.000000
38.758644	11.878254	23.553738	-0.173981	0.341553	2.207931	0.000000	0.036340	0.000000	0.000011	-0.000000	0.000000	0.000000
39.199604	12.185458	22.996069	-0.525332	0.918306	2.237948	0.000000	0.099936	0.000000	0.000010	-0.000000	0.000000	0.000000
39.640564	12.811898	21.946301	-0.900684	1.453276	2.296233	0.000000	0.164670	0.000000	0.000010	0.000000	0.000000	0.000000
40.081524	13.786194	20.452199	-1.317186	1.922124	2.383449	0.000000	0.231280	0.000000	0.000010	0.000000	0.000000	0.000000
40.527484	15.170433	18.559171	-1.797693	2.304799	2.502062	0.000000	0.300929	0.000000	0.000011	0.000001	0.000000	0.000000
41.076544	16.936907	16.431891	-1.400531	1.592475	2.646758	0.000000	0.225366	0.000000	0.000011	0.000000	0.000000	0.000000
41.625604	18.210013	15.020324	-0.904443	0.993579	2.748806	0.000000	0.145805	0.000000	0.000011	-0.000000	0.000000	0.000000
42.174664	18.899823	14.223928	-0.344469	0.465453	2.806395	0.000000	0.063658	0.000000	0.000011	-0.000000	0.000000	0.000000
42.723724	18.957615	13.985978	0.239836	-0.029519	2.818503	0.000000	-0.019619	0.000000	0.000010	-0.000001	0.000000	0.000000
43.022297	18.848846	13.988160	0.173988	-0.014328	2.814844	0.000000	-0.012255	0.000000	0.000010	-0.000001	0.000000	0.000000
43.502297	18.694412	14.018390	0.147751	-0.048650	2.808962	0.000000	-0.012255	0.000000	0.000010	-0.000001	0.000000	0.000000
43.982297	18.565164	14.081568	0.121515	-0.082972	2.803080	0.000000	-0.012255	0.000000	0.000010	-0.000001	0.000000	0.000000
44.462297	18.461104	14.177695	0.095278	-0.117293	2.797198	0.000000	-0.012255	0.000000	0.000009	-0.000001	0.000000	0.000000
44.942297	18.382230	14.306772	0.069041	-0.151615	2.791316	0.000000	-0.012255	0.000000	0.000009	-0.000001	0.000000	0.000000
45.423547	18.328664	14.469082	-0.048074	-0.114338	2.785436	0.000000	0.001546	0.000000	0.000008	-0.000001	0.000000	0.000000
45.720870	18.362086	14.543262	-0.112307	-0.097159	2.785896	0.000000	0.008824	0.000000	0.000008	-0.000001	0.000000	0.000000
46.269930	18.176230	14.931236	0.448800	-0.613627	2.768168	0.000000	-0.073305	0.000000	0.000008	-0.000001	0.000000	0.000000
46.818990	17.388052	15.906883	0.978206	-1.173802	2.705638	0.000000	-0.154133	0.000000	0.000007	-0.000001	0.000000	0.000000
47.368050	16.053225	17.539696	1.438516	-1.817585	2.599415	0.000000	-0.232228	0.000000	0.000006	-0.000001	0.000000	0.000000
47.917110	14.266035	19.945977	1.797216	-2.590830	2.451382	0.000000	-0.306203	0.000000	0.000006	-0.000002	0.000000	0.000000
48.363070	12.875248	22.085372	1.332469	-2.186281	2.330121	0.000000	-0.237903	0.000000	0.000005	-0.000001	0.000000	0.000000
48.804030	11.880320	23.798323	0.932367	-1.683532	2.239676	0.000000	-0.172710	0.000000	0.000004	-0.000001	0.000000	0.000000
49.244990	11.218203	25.032290	0.574863	-1.104183	2.177517	0.000000	-0.109483	0.000000	0.000004	-0.000001	0.000000	0.000000
49.685950	10.858647	25.731128	0.243623	-0.474595	2.142938	0.000000	-0.047504	0.000000	0.000003	-0.000001	0.000000	0.000000
50.128160	10.785351	25.862757	-0.050155	0.113116	2.135556	0.000000	0.008698	0.000000	0.000003	-0.000001	0.000000	0.000000
50.425482	10.823392	25.798954	-0.077792	0.101473	2.138142	0.000000	0.008698	0.000000	0.000002	-0.000001	0.000000	0.000000
50.758816	10.885581	25.735657	-0.108776	0.088419	2.141042	0.000000	0.008698	0.000000	0.000002	-0.000001	0.000000	0.000000
51.092149	10.968426	25.681062	-0.139760	0.075366	2.143941	0.000000	0.008698	0.000000	0.000002	-0.000001	0.000000	0.000000
51.426732	11.072130	25.635534	-0.081035	-0.145705	2.146830	0.000000	-0.008718	0.000000	0.000001	-0.000001	0.000000	0.000000
51.724055	11.128354	25.725698	-0.080775	-0.220636	2.144238	0.000000	-0.013977	0.000000	0.000001	-0.000001	0.000000	0.000000
52.165015	11.344891	25.634074	-0.412148	0.427628	2.151664	0.000000	0.047686	0.000000	0.000001	-0.000001	0.000000	0.000000
52.605975	11.860841	24.977161	-0.762351	1.056435	2.186375	0.000000	0.109893	0.000000	0.000000	-0.000001	0.000000	0.000000
53.046935	12.699774	23.784850	-1.147383	1.637175	2.248765	0.000000	0.173350	0.000000	-0.000000	-0.000001	0.000000	0.000000
53.487895	13.900020	22.111388	-1.584836	2.143425	2.339546	0.000000	0.238783	0.000000	-0.000001	-0.000001	0.000000	0.000000
53.933855	15.536989	20.007896	-2.098926	2.553488	2.461256	0.000000	0.307333	0.000000	-0.000001	-0.000001	0.000000	0.000000
54.482915	17.644541	17.640935	-1.716826	1.782892	2.609821	0.000000	0.233029	0.000000	-0.000002	-0.000001	0.000000	0.000000
55.031975	19.263023	16.045899	-1.213458	1.139287	2.716392	0.000000	0.154592	0.000000	-0.000003	-0.000001	0.000000	0.000000
55.581035	20.278114	15.109176	-0.624378	0.576831	2.779079	0.000000	0.073412	0.000000	-0.000003	-0.000001	0.000000	0.000000
56.130095	20.618112	14.764046	0.008806	0.055462	2.796769	0.000000	-0.009070	0.000000	-0.000004	-0.000001	0.000000	0.000000
56.428668	20.649356	14.713983	-0.059578	0.073637	2.796243	0.000000	-0.001762	0.000000	-0.000004	-0.000001	0.000000	0.000000
56.762001	20.694475	14.672483	-0.075778	0.050860	2.795656	0.000000	-0.001762	0.000000	-0.000004	-0.000001	0.000000	0.000000
57.095334	20.750393	14.646169	-0.091978	0.028083	2.795069	0.000000	-0.001762	0.000000	-0.000004	-0.000001	0.000000	0.000000
57.429918	20.817382	14.635026	-0.108238	0.005221	2.794480	0.000000	-0.001762	0.000000	-0.000005	-0.000001	0.000000	0.000000
57.727240	20.886042	14.637962	-0.177261	0.023152	2.793956	0.000000	0.005538	0.000000	-0.000005	-0.000001	0.000000	0.000000
58.276300	20.724375	14.893622	0.469961	-0.491533	2.774359	0.000000	-0.076821	0.000000	-0.000005	-0.000001	0.000000	0.000000
58.825360	19.866084	15.730262	1.083987	-1.041229	2.709848	0.000000	-0.157818	0.000000	-0.000006	-0.000000	0.000000	0.000000
59.374420	18.371793	17.207474	1.621446	-1.665089	2.601570	0.000000	-0.236016	0.000000	-0.000006	-0.000000	0.000000	0.000000
59.923480	16.347053	19.430475	2.044374	-2.407550	2.451444	0.000000	-0.310027	0.000000	-0.000006	-0.000000	0.000000	0.000000
60.369440	14.762301	21.406301	1.521783	-2.004249	2.328473	0.000000	-0.241748	0.000000	-0.000006	-0.000000	0.000000	0.000000
60.810400	13.622464	22.962364	1.072922	-1.511130	2.236320	0.000000	-0.176619	0.000000	-0.000006	-0.000000	0.000000	0.000000
61.251360	12.855456	24.051440	0.673081	-0.949256	2.172415	0.000000	-0.113501	0.000000	-0.000006	-0.000001	0.000000	0.000000
61.692320	12.426235	24.623977	0.303990	-0.344191	2.136032	0.000000	-0.051677	0.000000	-0.000007	-0.000001	0.000000	0.000000
62.134530	12.315245	24.653385	-0.021112	0.216018	2.126760	0.000000	0.004344	0.000000	-0.000007	-0.000001	0.000000	0.000000
62.431853	12.334980	24.528684	-0.045265	0.203395	2.128052	0.000000	0.004344	0.000000	-0.000007	-0.000001	0.000000	0.000000
62.765186	12.374183	24.397805	-0.072344	0.189244	2.129500	0.000000	0.004344	0.000000	-0.000008	-0.000001	0.000000	0.000000
63.098520	12.431439	24.276359	-0.099423	0.175092	2.130948	0.000000	0.004344	0.000000	-0.000008	-0.000001	0.000000	0.000000
63.433103	12.507063	24.163947	-0.126603	0.160887	2.132402	0.000000	0.004344	0.000000	-0.000008	-0.000001	0.000000	0.000000
63.730426	12.589528	24.072029	-0.119881	0.089227	2.133694	0.000000	-0.000889	0.000000	-0.000008	-0.000001	0.000000	0.000000
64.171386	12.855578	23.728232	-0.485751	0.687462	2.146842	0.000000	0.060576	0.000000	-0.000009	-0.000001	0.000000	0.000000
64.612346	13.452825	22.868670	-0.873813	1.254417	2.187219	0.000000	0.122731	0.000000	-0.000009	-0.000001	0.000000	0.000000
65.053306	14.408557	21.532453	-1.301798	1.764297	2.255286	0.000000	0.186283	0.000000	-0.000010	-0.000002	0.000000	0.000000
65.494266	15.766436	19.780378	-1.789258	2.193904	2.351819	0.000000	0.251958	0.000000	-0.000011	-0.000002	0.000000	0.000000
65.940226	17.611665	17.667369	-2.363155	2.524443	2.479487	0.000000	0.320904	0.000000	-0.000012	-0.000002	0.000000	0.000000
66.489286	19.977090	15.303572	-1.919479	1.806142	2.635320	0.000000	0.245891	0.000000	-0.000013	-0.000002	0.000000	0.000000
67.038346	21.777518	13.653705	-1.340221	1.216489	2.748706	0.000000	0.166517	0.000000	-0.000014	-0.000001	0.000000	0.000000
67.587406	22.885775	12.600253	-0.666296	0.713484	2.817635	0.000000	0.084190	0.000000	-0.000014	-0.000001	0.000000	0.000000
68.136466	23.223582	12.068180	0.054693	0.261298	2.840883	0.000000	0.000369	0.000000	-0.000015	-0.000000	0.000000	0.000000
68.435038	23.231000	11.901336	-0.018851	0.265972	2.843210	0.000000	0.007792	0.000000	-0.000015	-0.000000	0.000000	0.000000
68.768372	23.248351	11.734018	-0.033204	0.235982	2.845807	0.000000	0.007792	0.000000	-0.000015	-0.000000	0.000000	0.000000
69.101705	23.275272	11.586692	-0.047558	0.205993	2.848405	0.000000	0.007792	0.000000	-0.000015	-0.000000	0.000000	0.000000
69.436288	23.311917	11.458920	-0.061966	0.175891	2.851012	0.000000	0.007792	0.000000	-0.000015	-0.000000	0.000000	0.000000
69.733611	23.352571	11.362281	-0.135792	0.178833	2.853329	0.000000	0.015248	0.000000	-0.000015	-0.000000	0.000000	0.000000
70.282671	23.100619	11.393446	0.591955	-0.235930	2.838520	0.000000	-0.069113	0.000000	-0.000015	0.000000	0.000000	0.000000
