#ParticleID	Turn	x[m]	xp	y[m]	yp	z[m]	dE[GeV]# s	beta_x	beta_y	alpha_x	alpha_y	D_x	D_y	D_px	D_py	orbit_x	orbit_px	orbit_y	orbit_py
0.300000	11.829557	24.956158	-0.013042	-0.027734	2.618240	0.000000	-0.000037	0.000000	0.000000	0.000000	0.000000	0.000000
0.601250	11.845088	24.976507	-0.038512	-0.039815	2.618229	0.000000	-0.000037	0.000000	0.000000	0.000000	0.000000	0.000000
0.898573	11.875463	25.003728	-0.034528	-0.113054	2.618218	0.000000	-0.006458	0.000000	0.000000	0.000000	0.000000	0.000000
1.339533	12.058240	24.826108	-0.381542	0.514323	2.631664	0.000000	0.067502	0.000000	0.000000	0.000000	0.000000	0.000000
1.780493	12.553557	24.103437	-0.745988	1.118299	2.677862	0.000000	0.142231	0.000000	0.000001	0.000000	0.000000	0.000000
2.221453	13.384043	22.868596	-1.144515	1.671393	2.757337	0.000000	0.218579	0.000000	0.000001	0.000000	0.000000	0.000000
2.662413	14.587640	21.177769	-1.595332	2.148439	2.870996	0.000000	0.297417	0.000000	0.000001	0.000000	0.000000	0.000000
3.108373	16.240138	19.083087	-2.123335	2.528864	3.021993	0.000000	0.380132	0.000000	0.000001	0.000000	0.000000	0.000000
3.657433	18.359149	16.730553	-1.713162	1.781085	3.205436	0.000000	0.287094	0.000000	0.000001	0.000000	0.000000	0.000000
4.206493	19.958222	15.125105	-1.181981	1.160168	3.336321	0.000000	0.188964	0.000000	0.000001	0.000000	0.000000	0.000000
4.755553	20.924407	14.152391	-0.567310	0.621888	3.412326	0.000000	0.087483	0.000000	0.000001	0.000000	0.000000	0.000000
5.304613	21.189457	13.743127	0.087433	0.127903	3.432102	0.000000	-0.015551	0.000000	0.000002	0.000000	0.000000	0.000000
5.603185	21.174518	13.651968	0.017965	0.141503	3.430137	0.000000	-0.006584	0.000000	0.000002	0.000000	0.000000	0.000000
5.936519	21.167791	13.565935	0.002217	0.116597	3.427942	0.000000	-0.006584	0.000000	0.000002	0.000000	0.000000	0.000000
6.269852	21.171562	13.496505	-0.013530	0.091692	3.425747	0.000000	-0.006584	0.000000	0.000002	0.000000	0.000000	0.000000
6.604435	21.185904	13.443512	-0.029336	0.066693	3.423545	0.000000	-0.006584	0.000000	0.000002	0.000000	0.000000	0.000000
6.901758	21.207525	13.410458	-0.098793	0.079517	3.421587	0.000000	0.002356	0.000000	0.000002	0.000000	0.000000	0.000000
7.450818	20.954501	13.583660	0.556897	-0.396831	3.394681	0.000000	-0.100221	0.000000	0.000002	0.000000	0.000000	0.000000
7.999878	19.998890	14.292309	1.173250	-0.901445	3.311859	0.000000	-0.201020	0.000000	0.000002	0.000000	0.000000	0.000000
8.548938	18.408192	15.586880	1.706730	-1.470267	3.174591	0.000000	-0.298254	0.000000	0.000002	0.000000	0.000000	0.000000
9.097998	16.294765	17.559582	2.119656	-2.143812	2.985312	0.000000	-0.390198	0.000000	0.000002	-0.000000	0.000000	0.000000
9.543958	14.645788	19.317422	1.591080	-1.781226	2.829605	0.000000	-0.308496	0.000000	0.000002	-0.000000	0.000000	0.000000
9.984918	13.446264	20.698495	1.139494	-1.338825	2.710816	0.000000	-0.230791	0.000000	0.000002	0.000000	0.000000	0.000000
10.425878	12.620629	21.660952	0.739968	-0.835509	2.625680	0.000000	-0.155715	0.000000	0.000002	0.000000	0.000000	0.000000
10.866838	12.131161	22.161001	0.374249	-0.294177	2.573227	0.000000	-0.082412	0.000000	0.000002	0.000000	0.000000	0.000000
11.309048	11.955361	22.175375	0.054841	0.206100	2.552841	0.000000	-0.016309	0.000000	0.000002	0.000000	0.000000	0.000000
11.606371	11.930166	22.056975	0.029897	0.192123	2.547992	0.000000	-0.016309	0.000000	0.000002	0.000000	0.000000	0.000000
12.086371	11.920795	21.883368	-0.010374	0.169558	2.540163	0.000000	-0.016309	0.000000	0.000002	0.000000	0.000000	0.000000
12.566371	11.950084	21.731424	-0.050644	0.146992	2.532335	0.000000	-0.016309	0.000000	0.000002	0.000000	0.000000	0.000000
13.046371	12.018031	21.601143	-0.090914	0.124427	2.524507	0.000000	-0.016309	0.000000	0.000002	0.000000	0.000000	0.000000
13.526371	12.124638	21.492524	-0.131184	0.101862	2.516679	0.000000	-0.016309	0.000000	0.000003	0.000000	0.000000	0.000000
14.007621	12.270333	21.405369	-0.171559	0.079238	2.508830	0.000000	-0.016309	0.000000	0.000003	0.000000	0.000000	0.000000
14.304943	12.379766	21.362406	-0.166145	0.012876	2.503981	0.000000	-0.022449	0.000000	0.000003	0.000000	0.000000	0.000000
14.745903	12.685007	21.117213	-0.528700	0.541052	2.509712	0.000000	0.048466	0.000000	0.000003	0.000000	0.000000	0.000000
15.186863	13.319394	20.415328	-0.915409	1.044611	2.546805	0.000000	0.119934	0.000000	0.000003	0.000000	0.000000	0.000000
15.627823	14.311912	19.288685	-1.343941	1.500642	2.615684	0.000000	0.192767	0.000000	0.000003	0.000000	0.000000	0.000000
16.068783	15.707905	17.788548	-1.833873	1.888394	2.717132	0.000000	0.267796	0.000000	0.000003	0.000000	0.000000	0.000000
16.514743	17.594807	15.961668	-2.412348	2.190975	2.854000	0.000000	0.346337	0.000000	0.000004	0.000001	0.000000	0.000000
17.063803	20.018020	13.921668	-1.974912	1.546398	3.020432	0.000000	0.259018	0.000000	0.000004	0.000000	0.000000	0.000000
17.612863	21.880967	12.525214	-1.397978	1.011968	3.137588	0.000000	0.167105	0.000000	0.000004	0.000000	0.000000	0.000000
18.161923	23.052058	11.672841	-0.722298	0.549618	3.203388	0.000000	0.072227	0.000000	0.000004	0.000000	0.000000	0.000000
18.710983	23.448573	11.303836	0.004402	0.126416	3.216667	0.000000	-0.023931	0.000000	0.000004	0.000000	0.000000	0.000000
19.009556	23.486343	11.218789	-0.069637	0.128894	3.212031	0.000000	-0.015527	0.000000	0.000004	0.000000	0.000000	0.000000
19.342889	23.537521	11.142928	-0.083898	0.098688	3.206855	0.000000	-0.015527	0.000000	0.000004	0.000000	0.000000	0.000000
19.676223	23.598207	11.087205	-0.098160	0.068483	3.201679	0.000000	-0.015527	0.000000	0.000004	0.000000	0.000000	0.000000
20.010806	23.668975	11.051385	-0.229744	0.092919	3.196504	0.000000	0.000311	0.000000	0.000004	0.000000	0.000000	0.000000
20.308129	23.809523	11.004200	-0.305176	0.094534	3.196597	0.000000	0.008662	0.000000	0.000004	0.000000	0.000000	0.000000
20.857189	23.733998	11.122916	0.441915	-0.312028	3.175138	0.000000	-0.086713	0.000000	0.000004	-0.000000	0.000000	0.000000
21.406249	22.850432	11.697597	1.157792	-0.740815	3.101658	0.000000	-0.180550	0.000000	0.000004	-0.000000	0.000000	0.000000
21.955309	21.221237	12.769177	1.791888	-1.222368	2.977460	0.000000	-0.271185	0.000000	0.000004	-0.000000	0.000000	0.000000
22.504369	18.961490	14.413982	2.299414	-1.790988	2.804747	0.000000	-0.357010	0.000000	0.000004	-0.000000	0.000000	0.000000
22.950329	17.180754	15.890558	1.707721	-1.506049	2.662826	0.000000	-0.279813	0.000000	0.000004	-0.000000	0.000000	0.000000
23.391289	15.903963	17.067768	1.198746	-1.153444	2.555760	0.000000	-0.206256	0.000000	0.000004	-0.000000	0.000000	0.000000
23.832249	15.050291	17.909590	0.744538	-0.748358	2.480580	0.000000	-0.135049	0.000000	0.000004	-0.000000	0.000000	0.000000
24.273209	14.580737	18.377721	0.324346	-0.309222	2.436432	0.000000	-0.065380	0.000000	0.000004	-0.000000	0.000000	0.000000
24.715418	14.473963	18.450616	-0.045621	0.098670	2.422808	0.000000	-0.002397	0.000000	0.000004	0.000000	0.000000	0.000000
25.012741	14.507211	18.396781	-0.066206	0.082398	2.422096	0.000000	-0.002397	0.000000	0.000004	0.000000	0.000000	0.000000
25.346075	14.559041	18.347929	-0.089283	0.064156	2.421297	0.000000	-0.002397	0.000000	0.000004	0.000000	0.000000	0.000000
25.679408	14.626256	18.311239	-0.112361	0.045914	2.420498	0.000000	-0.002397	0.000000	0.000004	0.000000	0.000000	0.000000
26.013991	14.708896	18.287012	-0.016197	-0.120750	2.419671	0.000000	-0.022027	0.000000	0.000004	-0.000000	0.000000	0.000000
26.311314	14.724540	18.363720	-0.000309	-0.182277	2.413122	0.000000	-0.027944	0.000000	0.000004	-0.000000	0.000000	0.000000
26.752274	14.906250	18.325268	-0.413334	0.269147	2.415908	0.000000	0.040591	0.000000	0.000004	0.000000	0.000000	0.000000
27.193234	15.459135	17.892595	-0.845243	0.708326	2.448988	0.000000	0.109588	0.000000	0.000004	0.000000	0.000000	0.000000
27.634194	16.408454	17.085387	-1.315769	1.115276	2.512739	0.000000	0.179833	0.000000	0.000004	0.000000	0.000000	0.000000
28.075154	17.797579	15.940373	-1.846409	1.471482	2.607887	0.000000	0.252127	0.000000	0.000004	0.000000	0.000000	0.000000
28.521114	19.714114	14.492405	-2.466363	1.761651	2.737118	0.000000	0.327736	0.000000	0.000004	0.000000	0.000000	0.000000
29.070174	22.150037	12.878934	-1.943908	1.194300	2.894405	0.000000	0.244352	0.000000	0.000004	0.000000	0.000000	0.000000
29.619234	23.932986	11.838393	-1.284144	0.712017	3.004650	0.000000	0.156634	0.000000	0.000004	0.000000	0.000000	0.000000
30.168294	24.937022	11.296667	-0.533676	0.280450	3.065897	0.000000	0.066138	0.000000	0.000004	0.000000	0.000000	0.000000
30.717354	25.091225	11.215169	0.254489	-0.131142	3.077062	0.000000	-0.025531	0.000000	0.000004	-0.000000	0.000000	0.000000
31.015927	24.982084	11.284013	0.176609	-0.128738	3.071839	0.000000	-0.017492	0.000000	0.000004	-0.000000	0.000000	0.000000
31.349260	24.868931	11.379848	0.162850	-0.158768	3.066009	0.000000	-0.017492	0.000000	0.000004	-0.000000	0.000000	0.000000
31.682593	24.764951	11.495703	0.149090	-0.188798	3.060178	0.000000	-0.017492	0.000000	0.000004	-0.000000	0.000000	0.000000
32.017177	24.669806	11.632126	0.135280	-0.218940	3.054326	0.000000	-0.017492	0.000000	0.000004	-0.000000	0.000000	0.000000
32.314499	24.593011	11.770282	0.058752	-0.214974	3.049125	0.000000	-0.009525	0.000000	0.000004	-0.000000	0.000000	0.000000
32.863559	24.107202	12.245689	0.820812	-0.655994	3.019018	0.000000	-0.099982	0.000000	0.000004	-0.000000	0.000000	0.000000
33.412619	22.811599	13.228053	1.524894	-1.143740	2.939658	0.000000	-0.188666	0.000000	0.000004	-0.000000	0.000000	0.000000
33.961679	20.797718	14.787344	2.121264	-1.712952	2.812455	0.000000	-0.274003	0.000000	0.000004	-0.000000	0.000000	0.000000
34.510739	18.207809	17.034628	2.567800	-2.404174	2.639663	0.000000	-0.354480	0.000000	0.000004	-0.000001	0.000000	0.000000
34.956699	16.194176	19.044674	1.963655	-2.084238	2.497918	0.000000	-0.281563	0.000000	0.000003	-0.000001	0.000000	0.000000
35.397659	14.692722	20.706564	1.454228	-1.670220	2.389139	0.000000	-0.212280	0.000000	0.000003	-0.000000	0.000000	0.000000
35.838619	13.609658	21.968290	1.011240	-1.180208	2.310350	0.000000	-0.145415	0.000000	0.000003	-0.000000	0.000000	0.000000
36.279579	12.895502	22.772445	0.614453	-0.636498	2.260653	0.000000	-0.080205	0.000000	0.000003	-0.000000	0.000000	0.000000
36.721789	12.516935	23.082741	0.276327	-0.120486	2.239455	0.000000	-0.021402	0.000000	0.000003	-0.000000	0.000000	0.000000
37.019112	12.360221	23.158273	0.250759	-0.133553	2.233092	0.000000	-0.021402	0.000000	0.000003	-0.000000	0.000000	0.000000
37.352445	12.202603	23.252192	0.222095	-0.148204	2.225958	0.000000	-0.021402	0.000000	0.000003	-0.000000	0.000000	0.000000
37.685779	12.064094	23.355878	0.193431	-0.162854	2.218824	0.000000	-0.021402	0.000000	0.000002	-0.000000	0.000000	0.000000
38.020362	11.944283	23.469775	0.164660	-0.177560	2.211664	0.000000	-0.021402	0.000000	0.000002	-0.000000	0.000000	0.000000
38.317684	11.853970	23.579245	0.168161	-0.248449	2.205300	0.000000	-0.026810	0.000000	0.000002	-0.000000	0.000000	0.000000
38.758644	11.856863	23.537205	-0.174747	0.343423	2.207404	0.000000	0.036359	0.000000	0.000002	-0.000000	0.000000	0.000000
39.199604	12.164538	22.978104	-0.525639	0.919670	2.237427	0.000000	0.099942	0.000000	0.000002	-0.000000	0.000000	0.000000
39.640564	12.791051	21.927381	-0.900545	1.454072	2.295712	0.000000	0.164663	0.000000	0.000002	-0.000000	0.000000	0.000000
40.081524	13.765027	20.432841	-1.316595	1.922316	2.382922	0.000000	0.231259	0.000000	0.000002	0.000000	0.000000	0.000000
40.527484	15.148526	18.539919	-1.796621	2.304374	2.501522	0.000000	0.300895	0.000000	0.000002	0.000000	0.000000	0.000000
41.076544	16.914268	16.412843	-1.400278	1.592525	2.646204	0.000000	0.225349	0.000000	0.000002	-0.000000	0.000000	0.000000
41.625604	18.187556	15.000960	-0.905027	0.994108	2.748248	0.000000	0.145806	0.000000	0.000002	-0.000000	0.000000	0.000000
42.174664	18.878452	14.203704	-0.345849	0.466500	2.805842	0.000000	0.063677	0.000000	0.000002	-0.000000	0.000000	0.000000
42.723724	18.938154	13.964290	0.237758	-0.027881	2.817965	0.000000	-0.019582	0.000000	0.000002	-0.000000	0.000000	0.000000
43.022297	18.830600	13.965536	0.171952	-0.012779	2.814317	0.000000	-0.012219	0.000000	0.000002	-0.000000	0.000000	0.000000
43.502297	18.678123	13.994304	0.145708	-0.047154	2.808451	0.000000	-0.012219	0.000000	0.000002	-0.000000	0.000000	0.000000
43.982297	18.550840	14.056072	0.119464	-0.081530	2.802586	0.000000	-0.012219	0.000000	0.000002	-0.000000	0.000000	0.000000
44.462297	18.448752	14.150842	0.093220	-0.115906	2.796721	0.000000	-0.012219	0.000000	0.000002	-0.000000	0.000000	0.000000
44.942297	18.371858	14.278613	0.066976	-0.150282	2.790856	0.000000	-0.012219	0.000000	0.000002	-0.000000	0.000000	0.000000
45.423547	18.320284	14.439667	-0.050106	-0.113205	2.784993	0.000000	0.001579	0.000000	0.000001	-0.000000	0.000000	0.000000
45.720870	18.354917	14.513184	-0.114333	-0.096139	2.785462	0.000000	0.008857	0.000000	0.000001	-0.000000	0.000000	0.000000
46.269930	18.171401	14.899529	0.446591	-0.611662	2.767756	0.000000	-0.073258	0.000000	0.000001	-0.000000	0.000000	0.000000
46.818990	17.385679	15.872439	0.975969	-1.170752	2.705255	0.000000	-0.154074	0.000000	0.000001	-0.000000	0.000000	0.000000
47.368050	16.053250	17.501211	1.436410	-1.813232	2.599067	0.000000	-0.232157	0.000000	0.000001	-0.000000	0.000000	0.000000
47.917110	14.268231	19.901860	1.795391	-2.584865	2.451076	0.000000	-0.306121	0.000000	0.000001	-0.000000	0.000000	0.000000
48.363070	12.879010	22.036348	1.330771	-2.181288	2.329849	0.000000	-0.237829	0.000000	0.000001	-0.000000	0.000000	0.000000
48.804030	11.885553	23.745408	0.930717	-1.679734	2.239434	0.000000	-0.172642	0.000000	0.000001	-0.000000	0.000000	0.000000
49.244990	11.224899	24.976617	0.573185	-1.101753	2.177304	0.000000	-0.109421	0.000000	0.000000	-0.000000	0.000000	0.000000
49.685950	10.866864	25.673958	0.241840	-0.473644	2.142751	0.000000	-0.047447	0.000000	0.000000	-0.000000	0.000000	0.000000
50.128160	10.795221	25.805419	-0.052100	0.112684	2.135392	0.000000	0.008751	0.000000	0.000000	-0.000000	0.000000	0.000000
50.425482	10.834413	25.741881	-0.079717	0.101016	2.137994	0.000000	0.008751	0.000000	0.000000	-0.000000	0.000000	0.000000
50.758816	10.897878	25.678898	-0.110678	0.087935	2.140911	0.000000	0.008751	0.000000	-0.000000	-0.000000	0.000000	0.000000
51.092149	10.981984	25.624634	-0.141640	0.074854	2.143828	0.000000	0.008751	0.000000	-0.000000	-0.000000	0.000000	0.000000
51.426732	11.086938	25.579457	-0.082773	-0.145789	2.146734	0.000000	-0.008665	0.000000	-0.000000	-0.000000	0.000000	0.000000
51.724055	11.144187	25.669679	-0.082445	-0.220610	2.144158	0.000000	-0.013923	0.000000	-0.000000	-0.000000	0.000000	0.000000
52.165015	11.362369	25.578687	-0.414222	0.426175	2.151606	0.000000	0.047738	0.000000	-0.000000	-0.000000	0.000000	0.000000
52.605975	11.880360	24.923686	-0.764923	1.053570	2.186339	0.000000	0.109943	0.000000	-0.000001	-0.000000	0.000000	0.000000
53.046935	12.721824	23.734479	-1.150571	1.633027	2.248751	0.000000	0.173400	0.000000	-0.000001	-0.000000	0.000000	0.000000
53.487895	13.925206	22.065173	-1.588786	2.138184	2.339554	0.000000	0.238832	0.000000	-0.000001	-0.000000	0.000000	0.000000
53.933855	15.566107	19.966761	-2.103825	2.547389	2.461286	0.000000	0.307383	0.000000	-0.000001	-0.000000	0.000000	0.000000
54.482915	17.678663	17.605607	-1.720986	1.778353	2.609877	0.000000	0.233078	0.000000	-0.000001	-0.000000	0.000000	0.000000
55.031975	19.301171	16.014850	-1.216585	1.135985	2.716474	0.000000	0.154638	0.000000	-0.000001	-0.000000	0.000000	0.000000
55.581035	20.319023	15.081186	-0.626251	0.574531	2.779185	0.000000	0.073455	0.000000	-0.000002	-0.000000	0.000000	0.000000
56.130095	20.660325	14.738111	0.008319	0.053999	2.796898	0.000000	-0.009030	0.000000	-0.000002	-0.000000	0.000000	0.000000
56.428668	20.691917	14.688971	-0.060145	0.072076	2.796384	0.000000	-0.001722	0.000000	-0.000002	-0.000000	0.000000	0.000000
56.762001	20.737403	14.648524	-0.076313	0.049265	2.795810	0.000000	-0.001722	0.000000	-0.000002	-0.000000	0.000000	0.000000
57.095334	20.793667	14.623284	-0.092480	0.026454	2.795236	0.000000	-0.001722	0.000000	-0.000002	-0.000000	0.000000	0.000000
57.429918	20.860982	14.613242	-0.108709	0.003558	2.794660	0.000000	-0.001722	0.000000	-0.000002	-0.000000	0.000000	0.000000
57.727240	20.929912	14.617176	-0.177816	0.021404	2.794148	0.000000	0.005579	0.000000	-0.000002	-0.000000	0.000000	0.000000
58.276300	20.768045	14.874436	0.470879	-0.492716	2.774570	0.000000	-0.076788	0.000000	-0.000002	-0.000000	0.000000	0.000000
58.825360	19.907961	15.712105	1.086314	-1.041931	2.710076	0.000000	-0.157792	0.000000	-0.000002	-0.000000	0.000000	0.000000
59.374420	18.410413	17.189848	1.625017	-1.665361	2.601810	0.000000	-0.235997	0.000000	-0.000002	0.000000	0.000000	0.000000
59.923480	16.381180	19.412922	2.048937	-2.407411	2.451692	0.000000	-0.310016	0.000000	-0.000002	0.000000	0.000000	0.000000
60.369440	14.792819	21.388883	1.525343	-2.004691	2.328728	0.000000	-0.241730	0.000000	-0.000002	0.000000	0.000000	0.000000
60.810400	13.650220	22.945584	1.075650	-1.512129	2.236584	0.000000	-0.176595	0.000000	-0.000002	-0.000000	0.000000	0.000000
61.251360	12.881126	24.035771	0.675101	-0.950767	2.172691	0.000000	-0.113470	0.000000	-0.000002	-0.000000	0.000000	0.000000
61.692320	12.450401	24.609842	0.305395	-0.346146	2.136322	0.000000	-0.051638	0.000000	-0.000002	-0.000000	0.000000	0.000000
62.134530	12.338415	24.641143	-0.020202	0.213742	2.127070	0.000000	0.004389	0.000000	-0.000002	-0.000000	0.000000	0.000000
62.431853	12.357596	24.517794	-0.044309	0.201125	2.128375	0.000000	0.004389	0.000000	-0.000002	-0.000000	0.000000	0.000000
62.765186	12.396144	24.388426	-0.071336	0.186979	2.129838	0.000000	0.004389	0.000000	-0.000002	-0.000000	0.000000	0.000000
63.098520	12.452710	24.268488	-0.098363	0.172834	2.131301	0.000000	0.004389	0.000000	-0.000002	-0.000000	0.000000	0.000000
63.433103	12.527608	24.157584	-0.125491	0.158635	2.132770	0.000000	0.004389	0.000000	-0.000003	-0.000000	0.000000	0.000000
63.730426	12.609398	24.067004	-0.118676	0.086997	2.134075	0.000000	-0.000844	0.000000	-0.000003	-0.000000	0.000000	0.000000
64.171386	12.874575	23.725215	-0.484968	0.685156	2.147244	0.000000	0.060631	0.000000	-0.000003	-0.000000	0.000000	0.000000
64.612346	13.471305	22.867681	-0.873418	1.252141	2.187648	0.000000	0.122797	0.000000	-0.000003	-0.000000	0.000000	0.000000
65.053306	14.426851	21.533419	-1.301771	1.762155	2.255746	0.000000	0.186361	0.000000	-0.000003	-0.000000	0.000000	0.000000
65.494266	15.784869	19.783138	-1.789598	2.191992	2.352315	0.000000	0.252048	0.000000	-0.000003	-0.000000	0.000000	0.000000
65.940226	17.630572	17.671697	-2.363882	2.522853	2.480026	0.000000	0.321007	0.000000	-0.000003	-0.000001	0.000000	0.000000
66.489286	19.996390	15.309574	-1.919463	1.804663	2.635910	0.000000	0.245976	0.000000	-0.000004	-0.000000	0.000000	0.000000
67.038346	21.796391	13.661318	-1.339464	1.215016	2.749336	0.000000	0.166582	0.000000	-0.000004	-0.000000	0.000000	0.000000
67.587406	22.903433	12.609527	-0.664851	0.711912	2.818295	0.000000	0.084234	0.000000	-0.000004	-0.000000	0.000000	0.000000
68.136466	23.239320	12.079285	0.056723	0.259515	2.841561	0.000000	0.000391	0.000000	-0.000004	-0.000000	0.000000	0.000000
68.435038	23.245544	11.913475	-0.016847	0.264265	2.843895	0.000000	0.007816	0.000000	-0.000004	-0.000000	0.000000	0.000000
68.768372	23.261556	11.747276	-0.031190	0.234332	2.846500	0.000000	0.007816	0.000000	-0.000004	-0.000000	0.000000	0.000000
69.101705	23.287131	11.601033	-0.045534	0.204398	2.849105	0.000000	0.007816	0.000000	-0.000004	-0.000000	0.000000	0.000000
69.436288	23.322419	11.474309	-0.059932	0.174353	2.851720	0.000000	0.007816	0.000000	-0.000004	-0.000000	0.000000	0.000000
69.733611	23.361861	11.378570	-0.133768	0.177384	2.854044	0.000000	0.015273	0.000000	-0.000004	-0.000000	0.000000	0.000000
70.282671	23.107536	11.411582	0.594227	-0.237864	2.839242	0.000000	-0.069111	0.000000	-0.000004	0.000000	0.000000	0.000000
