#ParticleID	Turn	x[m]	xp	y[m]	yp	z[m]	dE[GeV]# s	beta_x	beta_y	alpha_x	alpha_y	D_x	D_y	D_px	D_py	orbit_x	orbit_px	orbit_y	orbit_py
0.300000	11.800321	25.069140	-0.009898	-0.026598	2.618488	0.000000	-0.000132	0.000000	-0.000002	0.000002	0.000000	0.000000
0.601250	11.813976	25.088788	-0.035429	-0.038623	2.618448	0.000000	-0.000132	0.000000	-0.000002	0.000002	0.000000	0.000000
0.898573	11.842536	25.115284	-0.031586	-0.112082	2.618408	0.000000	-0.006553	0.000000	-0.000001	0.000002	0.000000	0.000000
1.339533	12.022366	24.935508	-0.377774	0.518222	2.631813	0.000000	0.067411	0.000000	-0.000000	0.000002	0.000000	0.000000
1.780493	12.513933	24.208168	-0.741221	1.124947	2.677970	0.000000	0.142143	0.000000	0.000001	0.000002	0.000000	0.000000
2.221453	13.339696	22.966357	-1.138532	1.680489	2.757407	0.000000	0.218494	0.000000	0.000002	0.000002	0.000000	0.000000
2.662413	14.537382	21.266577	-1.587859	2.159569	2.871027	0.000000	0.297333	0.000000	0.000002	0.000002	0.000000	0.000000
3.108373	16.182419	19.161243	-2.114015	2.541524	3.021986	0.000000	0.380048	0.000000	0.000003	0.000002	0.000000	0.000000
3.657433	18.291967	16.796570	-1.705349	1.790663	3.205383	0.000000	0.287011	0.000000	0.000004	0.000002	0.000000	0.000000
4.206493	19.883547	15.181975	-1.176226	1.167347	3.336222	0.000000	0.188884	0.000000	0.000006	0.000002	0.000000	0.000000
4.755553	20.844737	14.202455	-0.564020	0.627178	3.412183	0.000000	0.087406	0.000000	0.000006	0.000002	0.000000	0.000000
5.304613	21.107644	13.788240	0.088025	0.131682	3.431918	0.000000	-0.015622	0.000000	0.000007	0.000001	0.000000	0.000000
5.603185	21.092238	13.694743	0.018718	0.145443	3.429931	0.000000	-0.006656	0.000000	0.000008	0.000001	0.000000	0.000000
5.936519	21.085030	13.606066	0.002909	0.120588	3.427712	0.000000	-0.006656	0.000000	0.000008	0.000001	0.000000	0.000000
6.269852	21.088360	13.533959	-0.012901	0.095732	3.425493	0.000000	-0.006656	0.000000	0.000009	0.000001	0.000000	0.000000
6.604435	21.102302	13.478246	-0.028769	0.070784	3.423265	0.000000	-0.006656	0.000000	0.000009	0.000001	0.000000	0.000000
6.901758	21.123602	13.442746	-0.098058	0.083735	3.421286	0.000000	0.002283	0.000000	0.000010	0.000001	0.000000	0.000000
7.450818	20.871318	13.611797	0.554824	-0.393445	3.394342	0.000000	-0.100284	0.000000	0.000010	0.000001	0.000000	0.000000
7.999878	19.919467	14.317072	1.168515	-0.898649	3.311488	0.000000	-0.201072	0.000000	0.000011	0.000001	0.000000	0.000000
8.548938	18.335283	15.608803	1.699669	-1.467862	3.174195	0.000000	-0.298294	0.000000	0.000011	0.000000	0.000000	0.000000
9.097998	16.230667	17.579000	2.110766	-2.141627	2.984897	0.000000	-0.390224	0.000000	0.000011	0.000000	0.000000	0.000000
9.543958	14.588740	19.334506	1.584104	-1.778198	2.829176	0.000000	-0.308533	0.000000	0.000011	0.000000	0.000000	0.000000
9.984918	13.394652	20.712590	1.134097	-1.335099	2.710368	0.000000	-0.230839	0.000000	0.000012	0.000001	0.000000	0.000000
10.425878	12.573173	21.671515	0.735904	-0.831254	2.625208	0.000000	-0.155775	0.000000	0.000012	0.000001	0.000000	0.000000
10.866838	12.086771	22.167649	0.371332	-0.289588	2.572726	0.000000	-0.082485	0.000000	0.000012	0.000001	0.000000	0.000000
11.309048	11.913093	22.177893	0.052831	0.210814	2.552303	0.000000	-0.016393	0.000000	0.000013	0.000002	0.000000	0.000000
11.606371	11.889119	22.056697	0.027804	0.196812	2.547429	0.000000	-0.016393	0.000000	0.000014	0.000002	0.000000	0.000000
12.086371	11.881821	21.878608	-0.012601	0.174207	2.539560	0.000000	-0.016393	0.000000	0.000014	0.000002	0.000000	0.000000
12.566371	11.913312	21.722221	-0.053005	0.151601	2.531691	0.000000	-0.016393	0.000000	0.000015	0.000002	0.000000	0.000000
13.046371	11.983591	21.587534	-0.093409	0.128996	2.523821	0.000000	-0.016393	0.000000	0.000016	0.000002	0.000000	0.000000
13.526371	12.092658	21.474547	-0.133813	0.106391	2.515952	0.000000	-0.016393	0.000000	0.000017	0.000002	0.000000	0.000000
14.007621	12.240948	21.383053	-0.174323	0.083727	2.508063	0.000000	-0.016393	0.000000	0.000017	0.000002	0.000000	0.000000
14.304943	12.352050	21.337428	-0.169064	0.017409	2.503188	0.000000	-0.022530	0.000000	0.000018	0.000002	0.000000	0.000000
14.745903	12.659620	21.088563	-0.531083	0.544814	2.508878	0.000000	0.048364	0.000000	0.000019	0.000002	0.000000	0.000000
15.186863	13.295915	20.383765	-0.917366	1.047430	2.545921	0.000000	0.119809	0.000000	0.000020	0.000002	0.000000	0.000000
15.627823	14.290004	19.255101	-1.345560	1.502389	2.614738	0.000000	0.192619	0.000000	0.000021	0.000003	0.000000	0.000000
16.068783	15.687304	17.753925	-1.835229	1.888991	2.716115	0.000000	0.267622	0.000000	0.000022	0.000004	0.000000	0.000000
16.514743	17.575322	15.927043	-2.413504	2.190386	2.852897	0.000000	0.346136	0.000000	0.000024	0.000004	0.000000	0.000000
17.063803	20.000359	13.887270	-1.977054	1.546569	3.019228	0.000000	0.258855	0.000000	0.000026	0.000003	0.000000	0.000000
17.612863	21.866136	12.490209	-1.400956	1.012910	3.136304	0.000000	0.166982	0.000000	0.000028	0.000002	0.000000	0.000000
18.161923	23.040863	11.636349	-0.725901	0.551399	3.202048	0.000000	0.072147	0.000000	0.000029	0.000002	0.000000	0.000000
18.710983	23.441563	11.264872	0.000429	0.129163	3.215293	0.000000	-0.023968	0.000000	0.000029	0.000001	0.000000	0.000000
19.009556	23.481689	11.178284	-0.073589	0.131417	3.210645	0.000000	-0.015569	0.000000	0.000030	0.000001	0.000000	0.000000
19.342889	23.535506	11.100784	-0.087861	0.101083	3.205455	0.000000	-0.015569	0.000000	0.000030	0.000001	0.000000	0.000000
19.676223	23.598837	11.043507	-0.102133	0.070748	3.200265	0.000000	-0.015569	0.000000	0.000030	0.000001	0.000000	0.000000
20.010806	23.672268	11.006216	-0.233745	0.094831	3.195076	0.000000	0.000262	0.000000	0.000030	0.000001	0.000000	0.000000
20.308129	23.815202	10.957929	-0.309200	0.096198	3.195153	0.000000	0.008608	0.000000	0.000030	0.000001	0.000000	0.000000
20.857189	23.743970	11.074099	0.438165	-0.309026	3.173677	0.000000	-0.086721	0.000000	0.000031	-0.000000	0.000000	0.000000
21.406249	22.864249	11.644658	1.154581	-0.736262	3.100206	0.000000	-0.180511	0.000000	0.000030	-0.000001	0.000000	0.000000
21.955309	21.238177	12.710245	1.789442	-1.215940	2.976043	0.000000	-0.271100	0.000000	0.000030	-0.000002	0.000000	0.000000
22.504369	18.980612	14.346759	2.297906	-1.782227	2.803391	0.000000	-0.356880	0.000000	0.000028	-0.000003	0.000000	0.000000
22.950329	17.201313	15.816196	1.705991	-1.498868	2.661521	0.000000	-0.279716	0.000000	0.000027	-0.000002	0.000000	0.000000
23.391289	15.926173	16.987890	1.196715	-1.148163	2.554491	0.000000	-0.206193	0.000000	0.000026	-0.000002	0.000000	0.000000
23.832249	15.074457	17.825985	0.742114	-0.745217	2.479332	0.000000	-0.135018	0.000000	0.000026	-0.000001	0.000000	0.000000
24.273209	14.607255	18.292347	0.321418	-0.308365	2.435191	0.000000	-0.065381	0.000000	0.000025	-0.000000	0.000000	0.000000
24.715418	14.503342	18.365515	-0.049122	0.097422	2.421559	0.000000	-0.002426	0.000000	0.000025	0.000000	0.000000	0.000000
25.012741	14.538662	18.312442	-0.069672	0.081079	2.420838	0.000000	-0.002426	0.000000	0.000026	0.000000	0.000000	0.000000
25.346075	14.592790	18.264497	-0.092711	0.062757	2.420029	0.000000	-0.002426	0.000000	0.000026	0.000000	0.000000	0.000000
25.679408	14.662276	18.228767	-0.115749	0.044435	2.419221	0.000000	-0.002426	0.000000	0.000026	0.000000	0.000000	0.000000
26.013991	14.747170	18.205555	-0.019236	-0.121649	2.418384	0.000000	-0.022045	0.000000	0.000026	0.000000	0.000000	0.000000
26.311314	14.764605	18.282820	-0.003206	-0.183046	2.411830	0.000000	-0.027958	0.000000	0.000026	0.000000	0.000000	0.000000
26.752274	14.949312	18.246012	-0.417258	0.266202	2.414602	0.000000	0.040543	0.000000	0.000026	0.000001	0.000000	0.000000
27.193234	15.506175	17.816850	-0.850373	0.703337	2.447653	0.000000	0.109506	0.000000	0.000027	0.000001	0.000000	0.000000
27.634194	16.460634	17.014863	-1.322340	1.108472	2.511359	0.000000	0.179717	0.000000	0.000027	0.000002	0.000000	0.000000
28.075154	17.856297	15.876539	-1.854720	1.463171	2.606447	0.000000	0.251974	0.000000	0.000029	0.000003	0.000000	0.000000
28.521114	19.781170	14.436520	-2.476813	1.752209	2.735601	0.000000	0.327544	0.000000	0.000030	0.000004	0.000000	0.000000
29.070174	22.227668	12.832180	-1.952600	1.187013	2.892795	0.000000	0.244211	0.000000	0.000032	0.000003	0.000000	0.000000
29.619234	24.018910	11.798701	-1.290465	0.706366	3.002976	0.000000	0.156547	0.000000	0.000033	0.000002	0.000000	0.000000
30.168294	25.028372	11.262471	-0.537178	0.276031	3.064190	0.000000	0.066105	0.000000	0.000033	0.000001	0.000000	0.000000
30.717354	25.184751	11.185295	0.254052	-0.134642	3.075352	0.000000	-0.025509	0.000000	0.000033	-0.000001	0.000000	0.000000
31.015927	25.075993	11.256308	0.175992	-0.132415	3.070134	0.000000	-0.017476	0.000000	0.000033	-0.000000	0.000000	0.000000
31.349260	24.963233	11.354628	0.162288	-0.162547	3.064309	0.000000	-0.017476	0.000000	0.000033	-0.000000	0.000000	0.000000
31.682593	24.859609	11.473037	0.148583	-0.192680	3.058484	0.000000	-0.017476	0.000000	0.000033	-0.000000	0.000000	0.000000
32.017177	24.764785	11.612092	0.134827	-0.222925	3.052637	0.000000	-0.017476	0.000000	0.000033	-0.000000	0.000000	0.000000
32.314499	24.688246	11.752644	0.058115	-0.219103	3.047441	0.000000	-0.009515	0.000000	0.000033	-0.000000	0.000000	0.000000
32.863559	24.201397	12.232412	0.823329	-0.659854	3.017355	0.000000	-0.099918	0.000000	0.000032	-0.000001	0.000000	0.000000
33.412619	22.901369	13.218993	1.530388	-1.147606	2.938046	0.000000	-0.188549	0.000000	0.000031	-0.000002	0.000000	0.000000
33.961679	20.879987	14.782659	2.129347	-1.717099	2.810922	0.000000	-0.273835	0.000000	0.000029	-0.000003	0.000000	0.000000
34.510739	18.280032	17.034785	2.577900	-2.408897	2.638238	0.000000	-0.354265	0.000000	0.000027	-0.000004	0.000000	0.000000
34.956699	16.258396	19.049273	1.971563	-2.089436	2.496582	0.000000	-0.281383	0.000000	0.000025	-0.000004	0.000000	0.000000
35.397659	14.750791	20.715868	1.460322	-1.675650	2.387877	0.000000	-0.212133	0.000000	0.000024	-0.000003	0.000000	0.000000
35.838619	13.663046	21.982395	1.015799	-1.185623	2.309146	0.000000	-0.145300	0.000000	0.000023	-0.000002	0.000000	0.000000
36.279579	12.945467	22.791228	0.617685	-0.641652	2.259494	0.000000	-0.080121	0.000000	0.000022	-0.000002	0.000000	0.000000
36.721789	12.564572	23.105879	0.278492	-0.125190	2.238327	0.000000	-0.021343	0.000000	0.000021	-0.000001	0.000000	0.000000
37.019112	12.406550	23.184209	0.252993	-0.138260	2.231981	0.000000	-0.021343	0.000000	0.000021	-0.000001	0.000000	0.000000
37.352445	12.247417	23.281266	0.224406	-0.152912	2.224868	0.000000	-0.021343	0.000000	0.000020	-0.000001	0.000000	0.000000
37.685779	12.107342	23.388092	0.195819	-0.167564	2.217754	0.000000	-0.021343	0.000000	0.000020	-0.000001	0.000000	0.000000
38.020362	11.985907	23.505141	0.167124	-0.182272	2.210613	0.000000	-0.021343	0.000000	0.000019	-0.000001	0.000000	0.000000
38.317684	11.894109	23.617414	0.170788	-0.253248	2.204268	0.000000	-0.026748	0.000000	0.000019	-0.000001	0.000000	0.000000
38.758644	11.895084	23.579146	-0.173007	0.339701	2.206393	0.000000	0.036395	0.000000	0.000018	-0.000001	0.000000	0.000000
39.199604	12.201585	23.022788	-0.524706	0.917195	2.236427	0.000000	0.099952	0.000000	0.000018	-0.000000	0.000000	0.000000
39.640564	12.827615	21.973653	-0.900378	1.452957	2.294710	0.000000	0.164647	0.000000	0.000018	-0.000000	0.000000	0.000000
40.081524	13.801776	20.479477	-1.317185	1.922610	2.381907	0.000000	0.231217	0.000000	0.000018	0.000000	0.000000	0.000000
40.527484	15.186152	18.585659	-1.797999	2.306075	2.500482	0.000000	0.300826	0.000000	0.000018	0.000001	0.000000	0.000000
41.076544	16.952616	16.457381	-1.400207	1.593025	2.645136	0.000000	0.225314	0.000000	0.000019	0.000000	0.000000	0.000000
41.625604	18.225028	15.045588	-0.903511	0.993443	2.747170	0.000000	0.145806	0.000000	0.000019	-0.000000	0.000000	0.000000
42.174664	18.913510	14.249720	-0.342995	0.464622	2.804774	0.000000	0.063712	0.000000	0.000018	-0.000001	0.000000	0.000000
42.723724	18.969431	14.013090	0.241748	-0.031105	2.816927	0.000000	-0.019513	0.000000	0.000018	-0.000001	0.000000	0.000000
43.022297	18.859537	14.016165	0.175871	-0.015804	2.813298	0.000000	-0.012154	0.000000	0.000017	-0.000001	0.000000	0.000000
43.502297	18.703295	14.047779	0.149633	-0.050059	2.807465	0.000000	-0.012154	0.000000	0.000017	-0.000001	0.000000	0.000000
43.982297	18.572243	14.112278	0.123394	-0.084313	2.801632	0.000000	-0.012154	0.000000	0.000016	-0.000001	0.000000	0.000000
44.462297	18.466379	14.209661	0.097155	-0.118568	2.795799	0.000000	-0.012154	0.000000	0.000015	-0.000001	0.000000	0.000000
44.942297	18.385704	14.339929	0.070917	-0.152823	2.789966	0.000000	-0.012154	0.000000	0.000015	-0.000001	0.000000	0.000000
45.423547	18.330334	14.503369	-0.046209	-0.115308	2.784135	0.000000	0.001640	0.000000	0.000014	-0.000001	0.000000	0.000000
45.720870	18.362644	14.578113	-0.110436	-0.097996	2.784623	0.000000	0.008915	0.000000	0.000014	-0.000001	0.000000	0.000000
46.269930	18.174742	14.967590	0.450636	-0.615544	2.766957	0.000000	-0.073173	0.000000	0.000013	-0.000002	0.000000	0.000000
46.818990	17.384627	15.945995	0.979877	-1.176937	2.704510	0.000000	-0.153964	0.000000	0.000012	-0.000002	0.000000	0.000000
47.368050	16.048110	17.583017	1.439904	-1.822160	2.598390	0.000000	-0.232024	0.000000	0.000010	-0.000002	0.000000	0.000000
47.917110	14.259595	19.995257	1.798224	-2.597172	2.450478	0.000000	-0.305968	0.000000	0.000009	-0.000003	0.000000	0.000000
48.363070	12.867906	22.139833	1.333494	-2.191509	2.329317	0.000000	-0.237690	0.000000	0.000008	-0.000003	0.000000	0.000000
48.804030	11.872048	23.856816	0.933458	-1.687412	2.238962	0.000000	-0.172516	0.000000	0.000007	-0.000002	0.000000	0.000000
49.244990	11.208923	25.093543	0.576069	-1.106539	2.176886	0.000000	-0.109307	0.000000	0.000006	-0.000002	0.000000	0.000000
49.685950	10.848233	25.793743	0.244999	-0.475319	2.142382	0.000000	-0.047343	0.000000	0.000005	-0.000002	0.000000	0.000000
50.128160	10.773621	25.925275	-0.048576	0.113904	2.135067	0.000000	0.008847	0.000000	0.000004	-0.000002	0.000000	0.000000
50.425482	10.810731	25.860996	-0.076238	0.102287	2.137698	0.000000	0.008847	0.000000	0.000003	-0.000002	0.000000	0.000000
50.758816	10.871894	25.797146	-0.107251	0.089263	2.140648	0.000000	0.008847	0.000000	0.000002	-0.000002	0.000000	0.000000
51.092149	10.953732	25.741979	-0.138263	0.076238	2.143598	0.000000	0.008847	0.000000	0.000002	-0.000002	0.000000	0.000000
51.426732	11.056444	25.695858	-0.079695	-0.145292	2.146537	0.000000	-0.008567	0.000000	0.000001	-0.000002	0.000000	0.000000
51.724055	11.111881	25.785768	-0.079508	-0.220342	2.143990	0.000000	-0.013825	0.000000	0.000000	-0.000002	0.000000	0.000000
52.165015	11.327127	25.693184	-0.410475	0.429503	2.151482	0.000000	0.047833	0.000000	-0.000000	-0.000002	0.000000	0.000000
52.605975	11.841395	25.033951	-0.760196	1.059805	2.186256	0.000000	0.110035	0.000000	-0.000001	-0.000002	0.000000	0.000000
53.046935	12.678180	23.838061	-1.144647	1.641887	2.248709	0.000000	0.173490	0.000000	-0.000002	-0.000002	0.000000	0.000000
53.487895	13.875712	22.159929	-1.581395	2.149265	2.339552	0.000000	0.238922	0.000000	-0.000003	-0.000002	0.000000	0.000000
53.933855	15.509236	20.050820	-2.094614	2.560192	2.461325	0.000000	0.307473	0.000000	-0.000004	-0.000002	0.000000	0.000000
54.482915	17.612436	17.677449	-1.713259	1.787932	2.609967	0.000000	0.233166	0.000000	-0.000005	-0.000002	0.000000	0.000000
55.031975	19.227528	16.077623	-1.210888	1.143021	2.716612	0.000000	0.154723	0.000000	-0.000006	-0.000002	0.000000	0.000000
55.581035	20.240431	15.137391	-0.622986	0.579526	2.779369	0.000000	0.073535	0.000000	-0.000007	-0.000002	0.000000	0.000000
56.130095	20.579597	14.789782	0.008920	0.057309	2.797124	0.000000	-0.008957	0.000000	-0.000008	-0.000001	0.000000	0.000000
56.428668	20.610722	14.738566	-0.059392	0.075582	2.796632	0.000000	-0.001648	0.000000	-0.000009	-0.000001	0.000000	0.000000
56.762001	20.655726	14.695760	-0.075622	0.052836	2.796083	0.000000	-0.001648	0.000000	-0.000009	-0.000001	0.000000	0.000000
57.095334	20.711551	14.668118	-0.091851	0.030090	2.795534	0.000000	-0.001648	0.000000	-0.000010	-0.000001	0.000000	0.000000
57.429918	20.778465	14.655621	-0.108142	0.007259	2.794983	0.000000	-0.001648	0.000000	-0.000010	-0.000001	0.000000	0.000000
57.727240	20.847076	14.657337	-0.177093	0.025271	2.794494	0.000000	0.005654	0.000000	-0.000011	-0.000001	0.000000	0.000000
58.276300	20.685941	14.910962	0.468829	-0.489924	2.774955	0.000000	-0.076724	0.000000	-0.000011	-0.000001	0.000000	0.000000
58.825360	19.829574	15.746061	1.081635	-1.040016	2.710492	0.000000	-0.157741	0.000000	-0.000012	-0.000001	0.000000	0.000000
59.374420	18.338464	17.222117	1.618039	-1.664185	2.602250	0.000000	-0.235961	0.000000	-0.000012	-0.000000	0.000000	0.000000
59.923480	16.317937	19.444265	2.040154	-2.406891	2.452149	0.000000	-0.309994	0.000000	-0.000012	0.000000	0.000000	0.000000
60.369440	14.736543	21.419267	1.518448	-2.003066	2.329197	0.000000	-0.241696	0.000000	-0.000012	-0.000000	0.000000	0.000000
60.810400	13.599318	22.974077	1.070312	-1.509482	2.237070	0.000000	-0.176548	0.000000	-0.000012	-0.000001	0.000000	0.000000
61.251360	12.834338	24.061521	0.671075	-0.947218	2.173201	0.000000	-0.113411	0.000000	-0.000013	-0.000001	0.000000	0.000000
61.692320	12.406653	24.632123	0.302499	-0.341856	2.136862	0.000000	-0.051566	0.000000	-0.000013	-0.000001	0.000000	0.000000
62.134530	12.296779	24.659373	-0.022200	0.218526	2.127645	0.000000	0.004474	0.000000	-0.000014	-0.000002	0.000000	0.000000
62.431853	12.317173	24.533184	-0.046391	0.205893	2.128976	0.000000	0.004474	0.000000	-0.000014	-0.000002	0.000000	0.000000
62.765186	12.357141	24.400643	-0.073512	0.191730	2.130468	0.000000	0.004474	0.000000	-0.000015	-0.000002	0.000000	0.000000
63.098520	12.415189	24.277544	-0.100633	0.177567	2.131960	0.000000	0.004474	0.000000	-0.000015	-0.000002	0.000000	0.000000
63.433103	12.491637	24.163479	-0.127855	0.163351	2.133458	0.000000	0.004474	0.000000	-0.000016	-0.000002	0.000000	0.000000
63.730426	12.574858	24.070099	-0.121204	0.091681	2.134788	0.000000	-0.000762	0.000000	-0.000016	-0.000002	0.000000	0.000000
64.171386	12.841939	23.724181	-0.486776	0.689800	2.147999	0.000000	0.060732	0.000000	-0.000017	-0.000002	0.000000	0.000000
64.612346	13.439976	22.862647	-0.874587	1.256534	2.188453	0.000000	0.122918	0.000000	-0.000018	-0.000002	0.000000	0.000000
65.053306	14.396291	21.524696	-1.302355	1.766097	2.256610	0.000000	0.186504	0.000000	-0.000019	-0.000003	0.000000	0.000000
65.494266	15.754576	19.771205	-1.789624	2.195304	2.353248	0.000000	0.252214	0.000000	-0.000021	-0.000003	0.000000	0.000000
65.940226	17.600052	17.657153	-2.363347	2.525375	2.481040	0.000000	0.321198	0.000000	-0.000022	-0.000004	0.000000	0.000000
66.489286	19.965979	15.292292	-1.920198	1.807159	2.637021	0.000000	0.246133	0.000000	-0.000024	-0.000003	0.000000	0.000000
67.038346	21.767462	13.641230	-1.341415	1.217662	2.750525	0.000000	0.166702	0.000000	-0.000026	-0.000002	0.000000	0.000000
67.587406	22.877255	12.586366	-0.667882	0.714897	2.819539	0.000000	0.084314	0.000000	-0.000027	-0.000002	0.000000	0.000000
68.136466	23.216967	12.052564	0.052827	0.263052	2.842839	0.000000	0.000431	0.000000	-0.000028	-0.000001	0.000000	0.000000
68.435038	23.225494	11.884713	-0.020709	0.267629	2.845186	0.000000	0.007860	0.000000	-0.000028	-0.000001	0.000000	0.000000
68.768372	23.244086	11.716312	-0.035068	0.237573	2.847806	0.000000	0.007860	0.000000	-0.000028	-0.000001	0.000000	0.000000
69.101705	23.272251	11.567949	-0.049426	0.207517	2.850427	0.000000	0.007860	0.000000	-0.000028	-0.000001	0.000000	0.000000
69.436288	23.310147	11.439179	-0.063838	0.177348	2.853057	0.000000	0.007860	0.000000	-0.000029	-0.000001	0.000000	0.000000
69.733611	23.351915	11.341691	-0.137674	0.180180	2.855394	0.000000	0.015323	0.000000	-0.000029	-0.000001	0.000000	0.000000
70.282671	23.102024	11.371057	0.590106	-0.233979	2.840607	0.000000	-0.069106	0.000000	-0.000029	0.000000	0.000000	0.000000
