#ParticleID	Turn	x[m]	xp	y[m]	yp	z[m]	dE[GeV]# s	beta_x	beta_y	alpha_x	alpha_y	D_x	D_y	D_px	D_py	orbit_x	orbit_px	orbit_y	orbit_py
0.300000	11.801093	25.066682	-0.009941	-0.026641	2.618444	0.000000	-0.000115	0.000000	-0.000002	0.000002	0.000000	0.000000
0.601250	11.814773	25.086356	-0.035471	-0.038667	2.618409	0.000000	-0.000115	0.000000	-0.000001	0.000002	0.000000	0.000000
0.898573	11.843357	25.112879	-0.031624	-0.112121	2.618374	0.000000	-0.006536	0.000000	-0.000001	0.000002	0.000000	0.000000
1.339533	12.023228	24.933166	-0.377831	0.518120	2.631785	0.000000	0.067427	0.000000	-0.000000	0.000002	0.000000	0.000000
1.780493	12.514856	24.205942	-0.741300	1.124787	2.677950	0.000000	0.142158	0.000000	0.000001	0.000002	0.000000	0.000000
2.221453	13.340700	22.964295	-1.138637	1.680278	2.757393	0.000000	0.218508	0.000000	0.000002	0.000002	0.000000	0.000000
2.662413	14.538493	21.264720	-1.587995	2.159317	2.871020	0.000000	0.297347	0.000000	0.000003	0.000002	0.000000	0.000000
3.108373	16.183667	19.159625	-2.114188	2.541242	3.021985	0.000000	0.380062	0.000000	0.000004	0.000002	0.000000	0.000000
3.657433	18.293388	16.795223	-1.705487	1.790447	3.205390	0.000000	0.287026	0.000000	0.000005	0.000002	0.000000	0.000000
4.206493	19.885095	15.180837	-1.176319	1.167182	3.336237	0.000000	0.188898	0.000000	0.000006	0.000002	0.000000	0.000000
4.755553	20.846359	14.201476	-0.564061	0.627052	3.412205	0.000000	0.087419	0.000000	0.000007	0.000002	0.000000	0.000000
5.304613	21.109281	13.787382	0.088039	0.131586	3.431947	0.000000	-0.015610	0.000000	0.000008	0.000001	0.000000	0.000000
5.603185	21.093869	13.693944	0.018728	0.145343	3.429963	0.000000	-0.006643	0.000000	0.000008	0.000001	0.000000	0.000000
5.936519	21.086653	13.605334	0.002921	0.120487	3.427749	0.000000	-0.006643	0.000000	0.000008	0.000001	0.000000	0.000000
6.269852	21.089975	13.533294	-0.012887	0.095632	3.425534	0.000000	-0.006643	0.000000	0.000009	0.000001	0.000000	0.000000
6.604435	21.103908	13.477648	-0.028755	0.070682	3.423311	0.000000	-0.006643	0.000000	0.000009	0.000001	0.000000	0.000000
6.901758	21.125199	13.442209	-0.098046	0.083631	3.421335	0.000000	0.002295	0.000000	0.000010	0.000001	0.000000	0.000000
7.450818	20.872872	13.611367	0.554888	-0.393536	3.394397	0.000000	-0.100273	0.000000	0.000011	0.000001	0.000000	0.000000
7.999878	19.920924	14.316737	1.168628	-0.898733	3.311549	0.000000	-0.201063	0.000000	0.000011	0.000001	0.000000	0.000000
8.548938	18.336595	15.608560	1.699822	-1.467946	3.174260	0.000000	-0.298287	0.000000	0.000011	0.000000	0.000000	0.000000
9.097998	16.231793	17.578852	2.110948	-2.141717	2.984966	0.000000	-0.390219	0.000000	0.000011	0.000000	0.000000	0.000000
9.543958	14.589721	19.334444	1.584250	-1.778300	2.829247	0.000000	-0.308526	0.000000	0.000012	0.000000	0.000000	0.000000
9.984918	13.395517	20.712622	1.134214	-1.335209	2.710442	0.000000	-0.230831	0.000000	0.000012	0.000001	0.000000	0.000000
10.425878	12.573946	21.671645	0.735997	-0.831367	2.625287	0.000000	-0.155765	0.000000	0.000012	0.000001	0.000000	0.000000
10.866838	12.087471	22.167879	0.371405	-0.289699	2.572809	0.000000	-0.082472	0.000000	0.000013	0.000001	0.000000	0.000000
11.309048	11.913736	22.178218	0.052890	0.210710	2.552393	0.000000	-0.016378	0.000000	0.000013	0.000002	0.000000	0.000000
11.606371	11.889726	22.057083	0.027864	0.196708	2.547523	0.000000	-0.016378	0.000000	0.000014	0.000002	0.000000	0.000000
12.086371	11.882370	21.879093	-0.012538	0.174105	2.539661	0.000000	-0.016378	0.000000	0.000014	0.000002	0.000000	0.000000
12.566371	11.913800	21.722802	-0.052941	0.151501	2.531799	0.000000	-0.016378	0.000000	0.000015	0.000002	0.000000	0.000000
13.046371	11.984016	21.588211	-0.093343	0.128897	2.523937	0.000000	-0.016378	0.000000	0.000016	0.000002	0.000000	0.000000
13.526371	12.093018	21.475320	-0.133745	0.106293	2.516074	0.000000	-0.016378	0.000000	0.000017	0.000002	0.000000	0.000000
14.007621	12.241243	21.383919	-0.174253	0.083631	2.508192	0.000000	-0.016378	0.000000	0.000017	0.000002	0.000000	0.000000
14.304943	12.352302	21.338351	-0.168993	0.017311	2.503322	0.000000	-0.022516	0.000000	0.000018	0.000002	0.000000	0.000000
14.745903	12.659811	21.089561	-0.531015	0.544743	2.509019	0.000000	0.048382	0.000000	0.000019	0.000002	0.000000	0.000000
15.186863	13.296046	20.384812	-0.917297	1.047389	2.546070	0.000000	0.119831	0.000000	0.000020	0.000002	0.000000	0.000000
15.627823	14.290074	19.256171	-1.345489	1.502380	2.614898	0.000000	0.192645	0.000000	0.000021	0.000003	0.000000	0.000000
16.068783	15.687309	17.754989	-1.835152	1.889014	2.716286	0.000000	0.267652	0.000000	0.000022	0.000004	0.000000	0.000000
16.514743	17.575254	15.928071	-2.413417	2.190441	2.853083	0.000000	0.346171	0.000000	0.000024	0.000004	0.000000	0.000000
17.063803	20.000191	13.888253	-1.976960	1.546597	3.019432	0.000000	0.258883	0.000000	0.000026	0.000003	0.000000	0.000000
17.612863	21.865864	12.491175	-1.400862	1.012913	3.136521	0.000000	0.167003	0.000000	0.000028	0.000002	0.000000	0.000000
18.161923	23.040490	11.637325	-0.725813	0.551378	3.202274	0.000000	0.072161	0.000000	0.000029	0.000002	0.000000	0.000000
18.710983	23.441100	11.265886	0.000504	0.129115	3.215526	0.000000	-0.023961	0.000000	0.000030	0.000001	0.000000	0.000000
19.009556	23.481181	11.179324	-0.073512	0.131375	3.210879	0.000000	-0.015561	0.000000	0.000030	0.000001	0.000000	0.000000
19.342889	23.534946	11.101851	-0.087785	0.101043	3.205692	0.000000	-0.015561	0.000000	0.000030	0.000001	0.000000	0.000000
19.676223	23.598227	11.044600	-0.102057	0.070712	3.200504	0.000000	-0.015561	0.000000	0.000030	0.000001	0.000000	0.000000
20.010806	23.671607	11.007332	-0.233666	0.094804	3.195317	0.000000	0.000270	0.000000	0.000030	0.000001	0.000000	0.000000
20.308129	23.814493	10.959060	-0.309118	0.096176	3.195398	0.000000	0.008617	0.000000	0.000031	0.000001	0.000000	0.000000
20.857189	23.743186	11.075272	0.438222	-0.309080	3.173924	0.000000	-0.086720	0.000000	0.000031	-0.000000	0.000000	0.000000
21.406249	22.863419	11.645909	1.154608	-0.736352	3.100452	0.000000	-0.180518	0.000000	0.000031	-0.000001	0.000000	0.000000
21.955309	21.237334	12.711617	1.789438	-1.216073	2.976283	0.000000	-0.271114	0.000000	0.000030	-0.000002	0.000000	0.000000
22.504369	18.979790	14.348304	2.297871	-1.782411	2.803621	0.000000	-0.356902	0.000000	0.000028	-0.000003	0.000000	0.000000
22.950329	17.200514	15.817889	1.705974	-1.499014	2.661742	0.000000	-0.279733	0.000000	0.000027	-0.000002	0.000000	0.000000
23.391289	15.925381	16.989693	1.196716	-1.148265	2.554706	0.000000	-0.206204	0.000000	0.000026	-0.000002	0.000000	0.000000
23.832249	15.073657	17.827856	0.742132	-0.745270	2.479544	0.000000	-0.135024	0.000000	0.000026	-0.000001	0.000000	0.000000
24.273209	14.606431	18.294242	0.321454	-0.308366	2.435401	0.000000	-0.065381	0.000000	0.000026	-0.000000	0.000000	0.000000
24.715418	14.502478	18.367388	-0.049069	0.097467	2.421771	0.000000	-0.002421	0.000000	0.000026	0.000000	0.000000	0.000000
25.012741	14.537767	18.314289	-0.069620	0.081126	2.421051	0.000000	-0.002421	0.000000	0.000026	0.000000	0.000000	0.000000
25.346075	14.591860	18.266312	-0.092660	0.062805	2.420244	0.000000	-0.002421	0.000000	0.000026	0.000000	0.000000	0.000000
25.679408	14.661313	18.230548	-0.115700	0.044485	2.419437	0.000000	-0.002421	0.000000	0.000026	0.000000	0.000000	0.000000
26.013991	14.746174	18.207302	-0.019195	-0.121611	2.418602	0.000000	-0.022042	0.000000	0.000026	0.000000	0.000000	0.000000
26.311314	14.763585	18.284545	-0.003170	-0.183010	2.412049	0.000000	-0.027956	0.000000	0.000026	0.000000	0.000000	0.000000
26.752274	14.948250	18.247684	-0.417196	0.266283	2.414823	0.000000	0.040552	0.000000	0.000026	0.000001	0.000000	0.000000
27.193234	15.505046	17.818432	-0.850284	0.703461	2.447879	0.000000	0.109521	0.000000	0.000027	0.000001	0.000000	0.000000
27.634194	16.459412	17.016319	-1.322218	1.108632	2.511593	0.000000	0.179737	0.000000	0.000028	0.000002	0.000000	0.000000
28.075154	17.854951	15.877839	-1.854560	1.463361	2.606691	0.000000	0.252000	0.000000	0.000029	0.000003	0.000000	0.000000
28.521114	19.779662	14.437641	-2.476607	1.752420	2.735858	0.000000	0.327577	0.000000	0.000030	0.000004	0.000000	0.000000
29.070174	22.225956	12.833095	-1.952437	1.187179	2.893068	0.000000	0.244236	0.000000	0.000032	0.000003	0.000000	0.000000
29.619234	24.017048	11.799453	-1.290356	0.706498	3.003260	0.000000	0.156562	0.000000	0.000033	0.000002	0.000000	0.000000
30.168294	25.026425	11.263092	-0.537131	0.276139	3.064480	0.000000	0.066111	0.000000	0.000034	0.000001	0.000000	0.000000
30.717354	25.182787	11.185808	0.254034	-0.134550	3.075642	0.000000	-0.025512	0.000000	0.000034	-0.000001	0.000000	0.000000
31.015927	25.074037	11.256764	0.175979	-0.132320	3.070424	0.000000	-0.017478	0.000000	0.000033	-0.000001	0.000000	0.000000
31.349260	24.961287	11.355021	0.162273	-0.162451	3.064598	0.000000	-0.017478	0.000000	0.000033	-0.000001	0.000000	0.000000
31.682593	24.857673	11.473365	0.148567	-0.192581	3.058772	0.000000	-0.017478	0.000000	0.000033	-0.000001	0.000000	0.000000
32.017177	24.762860	11.612353	0.134810	-0.222824	3.052924	0.000000	-0.017478	0.000000	0.000033	-0.000001	0.000000	0.000000
32.314499	24.686330	11.752845	0.058102	-0.219000	3.047727	0.000000	-0.009517	0.000000	0.000033	-0.000000	0.000000	0.000000
32.863559	24.199531	12.232501	0.823254	-0.659751	3.017637	0.000000	-0.099930	0.000000	0.000032	-0.000001	0.000000	0.000000
33.412619	22.899616	13.218965	1.530256	-1.147495	2.938320	0.000000	-0.188569	0.000000	0.000031	-0.000002	0.000000	0.000000
33.961679	20.878407	14.782502	2.129167	-1.716973	2.811182	0.000000	-0.273864	0.000000	0.000030	-0.000003	0.000000	0.000000
34.510739	18.278671	17.034478	2.577685	-2.408747	2.638480	0.000000	-0.354302	0.000000	0.000027	-0.000004	0.000000	0.000000
34.956699	16.257206	19.048829	1.971391	-2.089282	2.496809	0.000000	-0.281414	0.000000	0.000026	-0.000004	0.000000	0.000000
35.397659	14.749735	20.715289	1.460186	-1.675499	2.388091	0.000000	-0.212158	0.000000	0.000024	-0.000003	0.000000	0.000000
35.838619	13.662097	21.981687	1.015693	-1.185482	2.309351	0.000000	-0.145320	0.000000	0.000023	-0.000002	0.000000	0.000000
36.279579	12.944600	22.790403	0.617604	-0.641527	2.259691	0.000000	-0.080136	0.000000	0.000022	-0.000002	0.000000	0.000000
36.721789	12.563768	23.104953	0.278429	-0.125085	2.238518	0.000000	-0.021353	0.000000	0.000021	-0.000001	0.000000	0.000000
37.019112	12.405783	23.183220	0.252930	-0.138155	2.232170	0.000000	-0.021353	0.000000	0.000021	-0.000001	0.000000	0.000000
37.352445	12.246692	23.280207	0.224342	-0.152807	2.225053	0.000000	-0.021353	0.000000	0.000020	-0.000001	0.000000	0.000000
37.685779	12.106660	23.386963	0.195754	-0.167460	2.217936	0.000000	-0.021353	0.000000	0.000020	-0.000001	0.000000	0.000000
38.020362	11.985270	23.503942	0.167058	-0.182167	2.210792	0.000000	-0.021353	0.000000	0.000019	-0.000001	0.000000	0.000000
38.317684	11.893511	23.616153	0.170720	-0.253141	2.204443	0.000000	-0.026758	0.000000	0.000019	-0.000001	0.000000	0.000000
38.758644	11.894540	23.577805	-0.173062	0.339774	2.206565	0.000000	0.036389	0.000000	0.000018	-0.000001	0.000000	0.000000
39.199604	12.201085	23.021400	-0.524751	0.917229	2.236597	0.000000	0.099950	0.000000	0.000018	-0.000000	0.000000	0.000000
39.640564	12.827151	21.972252	-0.900414	1.452951	2.294880	0.000000	0.164649	0.000000	0.000018	-0.000000	0.000000	0.000000
40.081524	13.801341	20.478098	-1.317215	1.922565	2.382080	0.000000	0.231224	0.000000	0.000018	0.000000	0.000000	0.000000
40.527484	15.185741	18.584338	-1.798024	2.305992	2.500659	0.000000	0.300838	0.000000	0.000018	0.000001	0.000000	0.000000
41.076544	16.952243	16.456129	-1.400251	1.592981	2.645318	0.000000	0.225320	0.000000	0.000019	0.000000	0.000000	0.000000
41.625604	18.224712	15.044366	-0.903571	0.993434	2.747353	0.000000	0.145806	0.000000	0.000019	-0.000000	0.000000	0.000000
42.174664	18.913267	14.248490	-0.343067	0.464647	2.804956	0.000000	0.063706	0.000000	0.000018	-0.000001	0.000000	0.000000
42.723724	18.969272	14.011813	0.241669	-0.031044	2.817103	0.000000	-0.019525	0.000000	0.000018	-0.000001	0.000000	0.000000
43.022297	18.859426	14.014855	0.175792	-0.015749	2.813472	0.000000	-0.012165	0.000000	0.000017	-0.000001	0.000000	0.000000
43.502297	18.703260	14.046417	0.149554	-0.050006	2.807633	0.000000	-0.012165	0.000000	0.000017	-0.000001	0.000000	0.000000
43.982297	18.572282	14.110867	0.123316	-0.084264	2.801794	0.000000	-0.012165	0.000000	0.000016	-0.000001	0.000000	0.000000
44.462297	18.466492	14.208204	0.097078	-0.118522	2.795956	0.000000	-0.012165	0.000000	0.000015	-0.000001	0.000000	0.000000
44.942297	18.385892	14.338429	0.070840	-0.152780	2.790117	0.000000	-0.012165	0.000000	0.000015	-0.000001	0.000000	0.000000
45.423547	18.330595	14.501830	-0.046286	-0.115276	2.784281	0.000000	0.001630	0.000000	0.000014	-0.000001	0.000000	0.000000
45.720870	18.362951	14.576555	-0.110514	-0.097970	2.784766	0.000000	0.008905	0.000000	0.000013	-0.000001	0.000000	0.000000
46.269930	18.175128	14.965978	0.450570	-0.615471	2.767093	0.000000	-0.073188	0.000000	0.000013	-0.000002	0.000000	0.000000
46.818990	17.385076	15.944274	0.979828	-1.176810	2.704637	0.000000	-0.153983	0.000000	0.000012	-0.000002	0.000000	0.000000
47.368050	16.048601	17.581123	1.439876	-1.821971	2.598505	0.000000	-0.232047	0.000000	0.000010	-0.000002	0.000000	0.000000
47.917110	14.260105	19.993115	1.798218	-2.596907	2.450580	0.000000	-0.305994	0.000000	0.000009	-0.000003	0.000000	0.000000
48.363070	12.868423	22.137477	1.333481	-2.191294	2.329408	0.000000	-0.237714	0.000000	0.000008	-0.000003	0.000000	0.000000
48.804030	11.872581	23.854295	0.933436	-1.687256	2.239043	0.000000	-0.172538	0.000000	0.000007	-0.000002	0.000000	0.000000
49.244990	11.209479	25.090913	0.576037	-1.106449	2.176957	0.000000	-0.109327	0.000000	0.000005	-0.000002	0.000000	0.000000
49.685950	10.848822	25.791065	0.244956	-0.475299	2.142445	0.000000	-0.047361	0.000000	0.000005	-0.000002	0.000000	0.000000
50.128160	10.774254	25.922610	-0.048630	0.113859	2.135123	0.000000	0.008830	0.000000	0.000004	-0.000002	0.000000	0.000000
50.425482	10.811395	25.858359	-0.076291	0.102241	2.137749	0.000000	0.008830	0.000000	0.000003	-0.000002	0.000000	0.000000
50.758816	10.872593	25.794540	-0.107302	0.089216	2.140693	0.000000	0.008830	0.000000	0.000002	-0.000002	0.000000	0.000000
51.092149	10.954464	25.739405	-0.138313	0.076190	2.143637	0.000000	0.008830	0.000000	0.000002	-0.000002	0.000000	0.000000
51.426732	11.057209	25.693316	-0.079737	-0.145321	2.146570	0.000000	-0.008584	0.000000	0.000001	-0.000002	0.000000	0.000000
51.724055	11.112670	25.783244	-0.079546	-0.220366	2.144019	0.000000	-0.013842	0.000000	0.000000	-0.000002	0.000000	0.000000
52.165015	11.327958	25.690711	-0.410532	0.429412	2.151503	0.000000	0.047816	0.000000	-0.000001	-0.000002	0.000000	0.000000
52.605975	11.842285	25.031585	-0.760274	1.059653	2.186270	0.000000	0.110019	0.000000	-0.000001	-0.000002	0.000000	0.000000
53.046935	12.679149	23.835855	-1.144750	1.641680	2.248717	0.000000	0.173475	0.000000	-0.000002	-0.000002	0.000000	0.000000
53.487895	13.876785	22.157927	-1.581527	2.149012	2.339553	0.000000	0.238906	0.000000	-0.000003	-0.000002	0.000000	0.000000
53.933855	15.510443	20.049060	-2.094783	2.559904	2.461319	0.000000	0.307458	0.000000	-0.000004	-0.000002	0.000000	0.000000
54.482915	17.613810	17.675965	-1.713393	1.787714	2.609952	0.000000	0.233151	0.000000	-0.000006	-0.000002	0.000000	0.000000
55.031975	19.229026	16.076348	-1.210978	1.142857	2.716589	0.000000	0.154708	0.000000	-0.000007	-0.000002	0.000000	0.000000
55.581035	20.242000	15.136272	-0.623026	0.579405	2.779338	0.000000	0.073521	0.000000	-0.000008	-0.000002	0.000000	0.000000
56.130095	20.581181	14.788777	0.008933	0.057221	2.797086	0.000000	-0.008970	0.000000	-0.000008	-0.000001	0.000000	0.000000
56.428668	20.612301	14.737615	-0.059381	0.075490	2.796591	0.000000	-0.001661	0.000000	-0.000009	-0.000001	0.000000	0.000000
56.762001	20.657298	14.694871	-0.075610	0.052743	2.796037	0.000000	-0.001661	0.000000	-0.000009	-0.000001	0.000000	0.000000
57.095334	20.713114	14.667291	-0.091839	0.029997	2.795484	0.000000	-0.001661	0.000000	-0.000010	-0.000001	0.000000	0.000000
57.429918	20.780020	14.654857	-0.108128	0.007165	2.794929	0.000000	-0.001661	0.000000	-0.000010	-0.000001	0.000000	0.000000
57.727240	20.848621	14.656629	-0.177082	0.025173	2.794435	0.000000	0.005641	0.000000	-0.000011	-0.000001	0.000000	0.000000
58.276300	20.687446	14.910351	0.468891	-0.490004	2.774890	0.000000	-0.076735	0.000000	-0.000012	-0.000001	0.000000	0.000000
58.825360	19.830985	15.745531	1.081743	-1.040083	2.710422	0.000000	-0.157750	0.000000	-0.000012	-0.000001	0.000000	0.000000
59.374420	18.339733	17.221656	1.618187	-1.664245	2.602176	0.000000	-0.235967	0.000000	-0.000012	-0.000000	0.000000	0.000000
59.923480	16.319026	19.443868	2.040330	-2.406948	2.452071	0.000000	-0.309998	0.000000	-0.000012	0.000000	0.000000	0.000000
60.369440	14.737491	21.418929	1.518589	-2.003142	2.329118	0.000000	-0.241702	0.000000	-0.000012	-0.000000	0.000000	0.000000
60.810400	13.600154	22.973812	1.070426	-1.509572	2.236988	0.000000	-0.176556	0.000000	-0.000013	-0.000001	0.000000	0.000000
61.251360	12.835084	24.061341	0.671166	-0.947319	2.173115	0.000000	-0.113421	0.000000	-0.000013	-0.000001	0.000000	0.000000
61.692320	12.407327	24.632034	0.302571	-0.341963	2.136771	0.000000	-0.051578	0.000000	-0.000013	-0.000001	0.000000	0.000000
62.134530	12.297396	24.659379	-0.022142	0.218418	2.127548	0.000000	0.004460	0.000000	-0.000014	-0.000002	0.000000	0.000000
62.431853	12.317755	24.533254	-0.046331	0.205786	2.128874	0.000000	0.004460	0.000000	-0.000015	-0.000002	0.000000	0.000000
62.765186	12.357682	24.400785	-0.073451	0.191623	2.130361	0.000000	0.004460	0.000000	-0.000015	-0.000002	0.000000	0.000000
63.098520	12.415689	24.277757	-0.100570	0.177461	2.131848	0.000000	0.004460	0.000000	-0.000016	-0.000002	0.000000	0.000000
63.433103	12.492095	24.163762	-0.127791	0.163245	2.133341	0.000000	0.004460	0.000000	-0.000016	-0.000002	0.000000	0.000000
63.730426	12.575277	24.070445	-0.121137	0.091575	2.134668	0.000000	-0.000776	0.000000	-0.000017	-0.000002	0.000000	0.000000
64.171386	12.842303	23.724615	-0.486717	0.689706	2.147871	0.000000	0.060715	0.000000	-0.000017	-0.000002	0.000000	0.000000
64.612346	13.440290	22.863157	-0.874533	1.256457	2.188316	0.000000	0.122897	0.000000	-0.000018	-0.000002	0.000000	0.000000
65.053306	14.396560	21.525267	-1.302303	1.766039	2.256464	0.000000	0.186479	0.000000	-0.000020	-0.000003	0.000000	0.000000
65.494266	15.754800	19.771817	-1.789573	2.195268	2.353090	0.000000	0.252185	0.000000	-0.000021	-0.000003	0.000000	0.000000
65.940226	17.600228	17.657786	-2.363294	2.525363	2.480868	0.000000	0.321165	0.000000	-0.000023	-0.000004	0.000000	0.000000
66.489286	19.966088	15.292943	-1.920130	1.807136	2.636833	0.000000	0.246106	0.000000	-0.000025	-0.000003	0.000000	0.000000
67.038346	21.767492	13.641913	-1.341339	1.217627	2.750324	0.000000	0.166681	0.000000	-0.000026	-0.000002	0.000000	0.000000
67.587406	22.877199	12.587095	-0.667802	0.714847	2.819328	0.000000	0.084300	0.000000	-0.000027	-0.000002	0.000000	0.000000
68.136466	23.216825	12.053358	0.052905	0.262984	2.842622	0.000000	0.000424	0.000000	-0.000028	-0.000001	0.000000	0.000000
68.435038	23.225305	11.885545	-0.020632	0.267566	2.844967	0.000000	0.007852	0.000000	-0.000028	-0.000001	0.000000	0.000000
68.768372	23.243845	11.717186	-0.034990	0.237513	2.847585	0.000000	0.007852	0.000000	-0.000028	-0.000001	0.000000	0.000000
69.101705	23.271958	11.568862	-0.049348	0.207459	2.850202	0.000000	0.007852	0.000000	-0.000029	-0.000001	0.000000	0.000000
69.436288	23.309802	11.440130	-0.063760	0.177294	2.852830	0.000000	0.007852	0.000000	-0.000029	-0.000001	0.000000	0.000000
69.733611	23.351525	11.342673	-0.137596	0.180131	2.855165	0.000000	0.015314	0.000000	-0.000029	-0.000001	0.000000	0.000000
70.282671	23.101555	11.372108	0.590169	-0.234056	2.840376	0.000000	-0.069106	0.000000	-0.000029	0.000000	0.000000	0.000000
