#ParticleID	Turn	x[m]	xp	y[m]	yp	z[m]	dE[GeV]# s	beta_x	beta_y	alpha_x	alpha_y	D_x	D_y	D_px	D_py	orbit_x	orbit_px	orbit_y	orbit_py
0.300000	11.827025	24.965462	-0.012697	-0.027690	2.618195	0.000000	-0.000019	0.000000	-0.000000	0.000000	0.000000	0.000000
0.601250	11.842349	24.985783	-0.038173	-0.039766	2.618189	0.000000	-0.000019	0.000000	-0.000000	0.000000	0.000000	0.000000
0.898573	11.872524	25.012973	-0.034201	-0.113024	2.618184	0.000000	-0.006439	0.000000	-0.000000	0.000000	0.000000	0.000000
1.339533	12.054980	24.835219	-0.381139	0.514597	2.631638	0.000000	0.067520	0.000000	-0.000000	0.000000	0.000000	0.000000
1.780493	12.549902	24.112203	-0.745491	1.118804	2.677843	0.000000	0.142248	0.000000	0.000000	0.000000	0.000000	0.000000
2.221453	13.379900	22.876823	-1.143902	1.672106	2.757326	0.000000	0.218596	0.000000	0.000000	0.000000	0.000000	0.000000
2.662413	14.582895	21.185287	-1.594575	2.149328	2.870992	0.000000	0.297433	0.000000	0.000000	0.000000	0.000000	0.000000
3.108373	16.234640	19.089749	-2.122396	2.529889	3.021997	0.000000	0.380148	0.000000	0.000000	0.000000	0.000000	0.000000
3.657433	18.352690	16.736236	-1.712362	1.781853	3.205449	0.000000	0.287110	0.000000	0.000001	0.000000	0.000000	0.000000
4.206493	19.950986	15.130060	-1.181375	1.160734	3.336343	0.000000	0.188980	0.000000	0.000001	0.000000	0.000000	0.000000
4.755553	20.916633	14.156816	-0.566941	0.622292	3.412356	0.000000	0.087497	0.000000	0.000001	0.000000	0.000000	0.000000
5.304613	21.181422	13.747182	0.087538	0.128175	3.432140	0.000000	-0.015537	0.000000	0.000001	0.000000	0.000000	0.000000
5.603185	21.166409	13.655854	0.018085	0.141790	3.430179	0.000000	-0.006570	0.000000	0.000001	0.000000	0.000000	0.000000
5.936519	21.159604	13.569627	0.002331	0.116890	3.427989	0.000000	-0.006570	0.000000	0.000001	0.000000	0.000000	0.000000
6.269852	21.163301	13.500001	-0.013422	0.091989	3.425799	0.000000	-0.006570	0.000000	0.000001	0.000000	0.000000	0.000000
6.604435	21.177573	13.446807	-0.029234	0.066996	3.423601	0.000000	-0.006570	0.000000	0.000001	0.000000	0.000000	0.000000
6.901758	21.199135	13.413572	-0.098675	0.079832	3.421647	0.000000	0.002370	0.000000	0.000001	0.000000	0.000000	0.000000
7.450818	20.946136	13.586475	0.556733	-0.396599	3.394748	0.000000	-0.100209	0.000000	0.000002	0.000000	0.000000	0.000000
7.999878	19.990855	14.294906	1.172815	-0.901279	3.311932	0.000000	-0.201011	0.000000	0.000002	0.000000	0.000000	0.000000
8.548938	18.400769	15.589325	1.706056	-1.470155	3.174669	0.000000	-0.298247	0.000000	0.000002	0.000000	0.000000	0.000000
9.097998	16.288194	17.561930	2.118790	-2.143747	2.985393	0.000000	-0.390193	0.000000	0.000002	0.000000	0.000000	0.000000
9.543958	14.639901	19.319673	1.590406	-1.781076	2.829688	0.000000	-0.308489	0.000000	0.000002	0.000000	0.000000	0.000000
9.984918	13.440900	20.700579	1.138979	-1.338597	2.710903	0.000000	-0.230782	0.000000	0.000002	0.000000	0.000000	0.000000
10.425878	12.615657	21.662803	0.739589	-0.835213	2.625772	0.000000	-0.155704	0.000000	0.000002	0.000000	0.000000	0.000000
10.866838	12.126469	22.162567	0.373989	-0.293828	2.573325	0.000000	-0.082398	0.000000	0.000002	0.000000	0.000000	0.000000
11.309048	11.950850	22.176614	0.054677	0.206484	2.552945	0.000000	-0.016292	0.000000	0.000002	0.000000	0.000000	0.000000
11.606371	11.925756	22.057986	0.029724	0.192505	2.548100	0.000000	-0.016292	0.000000	0.000002	0.000000	0.000000	0.000000
12.086371	11.916558	21.884013	-0.010561	0.169938	2.540280	0.000000	-0.016292	0.000000	0.000002	0.000000	0.000000	0.000000
12.566371	11.946032	21.731704	-0.050845	0.147371	2.532459	0.000000	-0.016292	0.000000	0.000002	0.000000	0.000000	0.000000
13.046371	12.014180	21.601061	-0.091130	0.124804	2.524639	0.000000	-0.016292	0.000000	0.000002	0.000000	0.000000	0.000000
13.526371	12.121002	21.492081	-0.131414	0.102236	2.516818	0.000000	-0.016292	0.000000	0.000003	0.000000	0.000000	0.000000
14.007621	12.266925	21.404568	-0.171804	0.079610	2.508978	0.000000	-0.016292	0.000000	0.000003	0.000000	0.000000	0.000000
14.304943	12.376507	21.361384	-0.166407	0.013249	2.504133	0.000000	-0.022433	0.000000	0.000003	0.000000	0.000000	0.000000
14.745903	12.681949	21.115876	-0.528896	0.541389	2.509872	0.000000	0.048486	0.000000	0.000003	0.000000	0.000000	0.000000
15.186863	13.316484	20.413715	-0.915548	1.044897	2.546975	0.000000	0.119958	0.000000	0.000003	0.000000	0.000000	0.000000
15.627823	14.309101	19.286849	-1.344029	1.500863	2.615865	0.000000	0.192795	0.000000	0.000003	0.000000	0.000000	0.000000
16.068783	15.705151	17.786548	-1.833915	1.888541	2.717327	0.000000	0.267829	0.000000	0.000003	0.000001	0.000000	0.000000
16.514743	17.592070	15.959573	-2.412345	2.191040	2.854210	0.000000	0.346375	0.000000	0.000004	0.000001	0.000000	0.000000
17.063803	20.015347	13.919482	-1.975029	1.546498	3.020662	0.000000	0.259049	0.000000	0.000004	0.000001	0.000000	0.000000
17.612863	21.878485	12.522897	-1.398207	1.012109	3.137833	0.000000	0.167128	0.000000	0.000004	0.000000	0.000000	0.000000
18.161923	23.049882	11.670342	-0.722622	0.549810	3.203645	0.000000	0.072243	0.000000	0.000004	0.000000	0.000000	0.000000
18.710983	23.446795	11.301092	0.004006	0.126674	3.216929	0.000000	-0.023924	0.000000	0.000005	0.000000	0.000000	0.000000
19.009556	23.484798	11.215898	-0.070030	0.129136	3.212296	0.000000	-0.015519	0.000000	0.000005	0.000000	0.000000	0.000000
19.342889	23.536239	11.139879	-0.084293	0.098920	3.207123	0.000000	-0.015519	0.000000	0.000005	0.000000	0.000000	0.000000
19.676223	23.597189	11.084004	-0.098556	0.068705	3.201950	0.000000	-0.015519	0.000000	0.000005	0.000000	0.000000	0.000000
20.010806	23.668223	11.048040	-0.230139	0.093115	3.196777	0.000000	0.000320	0.000000	0.000005	0.000000	0.000000	0.000000
20.308129	23.809007	11.000740	-0.305572	0.094712	3.196872	0.000000	0.008672	0.000000	0.000005	0.000000	0.000000	0.000000
20.857189	23.733924	11.119207	0.441511	-0.311749	3.175416	0.000000	-0.086712	0.000000	0.000005	-0.000000	0.000000	0.000000
21.406249	22.850795	11.693517	1.157407	-0.740414	3.101935	0.000000	-0.180558	0.000000	0.000005	-0.000000	0.000000	0.000000
21.955309	21.221998	12.764578	1.791550	-1.221818	2.977730	0.000000	-0.271202	0.000000	0.000005	-0.000000	0.000000	0.000000
22.504369	18.962584	14.408679	2.299147	-1.790249	2.805006	0.000000	-0.357036	0.000000	0.000004	-0.000000	0.000000	0.000000
22.950329	17.182084	15.884647	1.707457	-1.505430	2.663075	0.000000	-0.279831	0.000000	0.000004	-0.000000	0.000000	0.000000
23.391289	15.905528	17.061374	1.198473	-1.152973	2.556001	0.000000	-0.206269	0.000000	0.000004	-0.000000	0.000000	0.000000
23.832249	15.052106	17.902854	0.744243	-0.748056	2.480818	0.000000	-0.135055	0.000000	0.000004	-0.000000	0.000000	0.000000
24.273209	14.582827	18.370800	0.324016	-0.309104	2.436668	0.000000	-0.065380	0.000000	0.000004	-0.000000	0.000000	0.000000
24.715418	14.476366	18.443674	-0.045996	0.098616	2.423046	0.000000	-0.002391	0.000000	0.000004	0.000000	0.000000	0.000000
25.012741	14.509837	18.389872	-0.066578	0.082339	2.422335	0.000000	-0.002391	0.000000	0.000004	0.000000	0.000000	0.000000
25.346075	14.561914	18.341062	-0.089653	0.064090	2.421537	0.000000	-0.002391	0.000000	0.000004	0.000000	0.000000	0.000000
25.679408	14.629374	18.304418	-0.112728	0.045841	2.420740	0.000000	-0.002391	0.000000	0.000004	0.000000	0.000000	0.000000
26.013991	14.712259	18.280242	-0.016533	-0.120774	2.419916	0.000000	-0.022023	0.000000	0.000004	0.000000	0.000000	0.000000
26.311314	14.728100	18.356967	-0.000632	-0.182291	2.413368	0.000000	-0.027941	0.000000	0.000004	0.000000	0.000000	0.000000
26.752274	14.910136	18.318607	-0.413750	0.268951	2.416156	0.000000	0.040600	0.000000	0.000004	0.000000	0.000000	0.000000
27.193234	15.463435	17.886185	-0.845771	0.707956	2.449241	0.000000	0.109604	0.000000	0.000004	0.000000	0.000000	0.000000
27.634194	16.413277	17.079374	-1.316433	1.114750	2.513000	0.000000	0.179856	0.000000	0.000004	0.000000	0.000000	0.000000
28.075154	17.803057	15.934885	-1.847239	1.470823	2.608160	0.000000	0.252156	0.000000	0.000004	0.000000	0.000000	0.000000
28.521114	19.720421	14.487553	-2.467398	1.760889	2.737406	0.000000	0.327772	0.000000	0.000005	0.000001	0.000000	0.000000
29.070174	22.157399	12.874815	-1.944783	1.193720	2.894710	0.000000	0.244379	0.000000	0.000005	0.000000	0.000000	0.000000
29.619234	23.941192	11.834832	-1.284798	0.711577	3.004966	0.000000	0.156651	0.000000	0.000005	0.000000	0.000000	0.000000
30.168294	24.945801	11.293527	-0.534061	0.280118	3.066220	0.000000	0.066144	0.000000	0.000005	0.000000	0.000000	0.000000
30.717354	25.100267	11.212345	0.254399	-0.131389	3.077385	0.000000	-0.025535	0.000000	0.000005	-0.000000	0.000000	0.000000
31.015927	24.991192	11.281344	0.176500	-0.129001	3.072162	0.000000	-0.017495	0.000000	0.000005	-0.000000	0.000000	0.000000
31.349260	24.878110	11.377357	0.162747	-0.159040	3.066330	0.000000	-0.017495	0.000000	0.000005	-0.000000	0.000000	0.000000
31.682593	24.774196	11.493397	0.148993	-0.189079	3.060498	0.000000	-0.017495	0.000000	0.000005	-0.000000	0.000000	0.000000
32.017177	24.679114	11.630010	0.135188	-0.219230	3.054645	0.000000	-0.017495	0.000000	0.000005	-0.000000	0.000000	0.000000
32.314499	24.602372	11.768341	0.058642	-0.215277	3.049443	0.000000	-0.009528	0.000000	0.000005	-0.000000	0.000000	0.000000
32.863559	24.116513	12.244059	0.821013	-0.656260	3.019332	0.000000	-0.099995	0.000000	0.000005	-0.000000	0.000000	0.000000
33.412619	22.820523	13.226702	1.525393	-1.143986	2.939963	0.000000	-0.188689	0.000000	0.000005	-0.000000	0.000000	0.000000
33.961679	20.805946	14.786261	2.122026	-1.713196	2.812744	0.000000	-0.274036	0.000000	0.000005	-0.000001	0.000000	0.000000
34.510739	18.215081	17.033820	2.568770	-2.404434	2.639932	0.000000	-0.354522	0.000000	0.000004	-0.000001	0.000000	0.000000
34.956699	16.200682	19.044123	1.964409	-2.084554	2.498170	0.000000	-0.281597	0.000000	0.000004	-0.000001	0.000000	0.000000
35.397659	14.698644	20.706311	1.454802	-1.670576	2.389378	0.000000	-0.212308	0.000000	0.000004	-0.000000	0.000000	0.000000
35.838619	13.615143	21.968363	1.011661	-1.180589	2.310577	0.000000	-0.145437	0.000000	0.000004	-0.000000	0.000000	0.000000
36.279579	12.900676	22.772859	0.614739	-0.636886	2.260871	0.000000	-0.080222	0.000000	0.000003	-0.000000	0.000000	0.000000
36.721789	12.521910	23.083495	0.276504	-0.120865	2.239667	0.000000	-0.021413	0.000000	0.000003	-0.000000	0.000000	0.000000
37.019112	12.365087	23.159252	0.250945	-0.133933	2.233301	0.000000	-0.021413	0.000000	0.000003	-0.000000	0.000000	0.000000
37.352445	12.207342	23.253424	0.222290	-0.148585	2.226163	0.000000	-0.021413	0.000000	0.000003	-0.000000	0.000000	0.000000
37.685779	12.068701	23.357365	0.193634	-0.163236	2.219025	0.000000	-0.021413	0.000000	0.000003	-0.000000	0.000000	0.000000
38.020362	11.948750	23.471517	0.164872	-0.177942	2.211861	0.000000	-0.021413	0.000000	0.000003	-0.000000	0.000000	0.000000
38.317684	11.858310	23.581215	0.168391	-0.248837	2.205494	0.000000	-0.026822	0.000000	0.000003	-0.000000	0.000000	0.000000
38.758644	11.861043	23.539493	-0.174613	0.343093	2.207594	0.000000	0.036352	0.000000	0.000003	-0.000000	0.000000	0.000000
39.199604	12.168639	22.980652	-0.525595	0.919412	2.237615	0.000000	0.099940	0.000000	0.000003	-0.000000	0.000000	0.000000
39.640564	12.795153	21.930119	-0.900590	1.453899	2.295899	0.000000	0.164665	0.000000	0.000003	0.000000	0.000000	0.000000
40.081524	13.769207	20.435693	-1.316730	1.922235	2.383111	0.000000	0.231267	0.000000	0.000003	0.000000	0.000000	0.000000
40.527484	15.152870	18.542800	-1.796853	2.304389	2.501716	0.000000	0.300907	0.000000	0.000003	0.000000	0.000000	0.000000
41.076544	16.918779	16.415743	-1.400349	1.592474	2.646403	0.000000	0.225355	0.000000	0.000003	0.000000	0.000000	0.000000
41.625604	18.192055	15.003953	-0.904932	0.993988	2.748448	0.000000	0.145805	0.000000	0.000003	-0.000000	0.000000	0.000000
42.174664	18.882758	14.206872	-0.345596	0.466301	2.806040	0.000000	0.063670	0.000000	0.000003	-0.000000	0.000000	0.000000
42.723724	18.942102	13.967726	0.238152	-0.028173	2.818158	0.000000	-0.019595	0.000000	0.000003	-0.000000	0.000000	0.000000
43.022297	18.834318	13.969139	0.172338	-0.013056	2.814506	0.000000	-0.012232	0.000000	0.000003	-0.000000	0.000000	0.000000
43.502297	18.681470	13.998169	0.146095	-0.047423	2.808635	0.000000	-0.012232	0.000000	0.000003	-0.000000	0.000000	0.000000
43.982297	18.553815	14.060192	0.119853	-0.081791	2.802763	0.000000	-0.012232	0.000000	0.000003	-0.000000	0.000000	0.000000
44.462297	18.451352	14.155207	0.093611	-0.116158	2.796892	0.000000	-0.012232	0.000000	0.000002	-0.000000	0.000000	0.000000
44.942297	18.374082	14.283215	0.067369	-0.150525	2.791021	0.000000	-0.012232	0.000000	0.000002	-0.000000	0.000000	0.000000
45.423547	18.322129	14.444499	-0.049720	-0.113415	2.785151	0.000000	0.001567	0.000000	0.000002	-0.000000	0.000000	0.000000
45.720870	18.356531	14.518140	-0.113949	-0.096331	2.785617	0.000000	0.008845	0.000000	0.000002	-0.000000	0.000000	0.000000
46.269930	18.172567	14.904780	0.447018	-0.612011	2.767904	0.000000	-0.073275	0.000000	0.000002	-0.000000	0.000000	0.000000
46.818990	17.386366	15.878169	0.976410	-1.171282	2.705392	0.000000	-0.154095	0.000000	0.000002	-0.000000	0.000000	0.000000
47.368050	16.053461	17.507639	1.436833	-1.813982	2.599191	0.000000	-0.232182	0.000000	0.000002	-0.000000	0.000000	0.000000
47.917110	14.268002	19.909255	1.795765	-2.585887	2.451185	0.000000	-0.306151	0.000000	0.000001	-0.000000	0.000000	0.000000
48.363070	12.878461	22.044586	1.331115	-2.182149	2.329946	0.000000	-0.237855	0.000000	0.000001	-0.000000	0.000000	0.000000
48.804030	11.884707	23.754320	0.931048	-1.680396	2.239520	0.000000	-0.172666	0.000000	0.000001	-0.000000	0.000000	0.000000
49.244990	11.223762	24.986014	0.573517	-1.102185	2.177380	0.000000	-0.109443	0.000000	0.000001	-0.000000	0.000000	0.000000
49.685950	10.865427	25.683626	0.242189	-0.473827	2.142818	0.000000	-0.047467	0.000000	0.000001	-0.000000	0.000000	0.000000
50.128160	10.793462	25.815136	-0.051722	0.112736	2.135450	0.000000	0.008732	0.000000	0.000001	-0.000000	0.000000	0.000000
50.425482	10.832430	25.751566	-0.079342	0.101072	2.138046	0.000000	0.008732	0.000000	0.000001	-0.000000	0.000000	0.000000
50.758816	10.895647	25.688543	-0.110308	0.087995	2.140957	0.000000	0.008732	0.000000	0.000000	-0.000000	0.000000	0.000000
51.092149	10.979508	25.634239	-0.141273	0.074919	2.143868	0.000000	0.008732	0.000000	0.000000	-0.000000	0.000000	0.000000
51.426732	11.084218	25.589016	-0.082433	-0.145797	2.146768	0.000000	-0.008684	0.000000	0.000000	-0.000000	0.000000	0.000000
51.724055	11.141265	25.679242	-0.082117	-0.220636	2.144186	0.000000	-0.013942	0.000000	0.000000	-0.000000	0.000000	0.000000
52.165015	11.359127	25.588161	-0.413819	0.426401	2.151626	0.000000	0.047720	0.000000	-0.000000	-0.000000	0.000000	0.000000
52.605975	11.876722	24.932853	-0.764426	1.054038	2.186351	0.000000	0.109925	0.000000	-0.000000	-0.000000	0.000000	0.000000
53.046935	12.717698	23.743133	-1.149958	1.633717	2.248755	0.000000	0.173382	0.000000	-0.000000	-0.000000	0.000000	0.000000
53.487895	13.920478	22.073133	-1.588029	2.139063	2.339550	0.000000	0.238814	0.000000	-0.000000	-0.000000	0.000000	0.000000
53.933855	15.560627	19.973864	-2.102888	2.548418	2.461274	0.000000	0.307365	0.000000	-0.000001	-0.000000	0.000000	0.000000
54.482915	17.672223	17.611732	-1.720186	1.779116	2.609856	0.000000	0.233060	0.000000	-0.000001	-0.000000	0.000000	0.000000
55.031975	19.293954	16.020259	-1.215979	1.136535	2.716443	0.000000	0.154621	0.000000	-0.000001	-0.000000	0.000000	0.000000
55.581035	20.311268	15.086088	-0.625881	0.574908	2.779145	0.000000	0.073440	0.000000	-0.000001	-0.000000	0.000000	0.000000
56.130095	20.652307	14.742681	0.008426	0.054229	2.796850	0.000000	-0.009044	0.000000	-0.000001	-0.000000	0.000000	0.000000
56.428668	20.683824	14.693395	-0.060023	0.072323	2.796332	0.000000	-0.001736	0.000000	-0.000001	-0.000000	0.000000	0.000000
56.762001	20.729230	14.652781	-0.076196	0.049519	2.795753	0.000000	-0.001736	0.000000	-0.000001	-0.000000	0.000000	0.000000
57.095334	20.785419	14.627370	-0.092370	0.026714	2.795174	0.000000	-0.001736	0.000000	-0.000001	-0.000000	0.000000	0.000000
57.429918	20.852662	14.617152	-0.108605	0.003824	2.794593	0.000000	-0.001736	0.000000	-0.000002	-0.000000	0.000000	0.000000
57.727240	20.921532	14.620926	-0.177696	0.021685	2.794077	0.000000	0.005564	0.000000	-0.000002	-0.000000	0.000000	0.000000
58.276300	20.759687	14.877935	0.470718	-0.492538	2.774492	0.000000	-0.076800	0.000000	-0.000002	-0.000000	0.000000	0.000000
58.825360	19.899931	15.715459	1.085882	-1.041844	2.709993	0.000000	-0.157801	0.000000	-0.000002	-0.000000	0.000000	0.000000
59.374420	18.402992	17.193153	1.624345	-1.665358	2.601722	0.000000	-0.236004	0.000000	-0.000002	-0.000000	0.000000	0.000000
59.923480	16.374607	19.416269	2.048073	-2.407491	2.451601	0.000000	-0.310020	0.000000	-0.000002	-0.000000	0.000000	0.000000
60.369440	14.786929	21.392254	1.524671	-2.004665	2.328635	0.000000	-0.241736	0.000000	-0.000002	-0.000000	0.000000	0.000000
60.810400	13.644850	22.948886	1.075138	-1.511999	2.236487	0.000000	-0.176603	0.000000	-0.000002	-0.000000	0.000000	0.000000
61.251360	12.876147	24.038915	0.674725	-0.950539	2.172590	0.000000	-0.113481	0.000000	-0.000002	-0.000000	0.000000	0.000000
61.692320	12.445700	24.612744	0.305138	-0.345829	2.136217	0.000000	-0.051652	0.000000	-0.000002	-0.000000	0.000000	0.000000
62.134530	12.333894	24.643731	-0.020363	0.214126	2.126957	0.000000	0.004373	0.000000	-0.000002	-0.000000	0.000000	0.000000
62.431853	12.353173	24.520154	-0.044479	0.201508	2.128257	0.000000	0.004373	0.000000	-0.000002	-0.000000	0.000000	0.000000
62.765186	12.391838	24.390530	-0.071516	0.187362	2.129715	0.000000	0.004373	0.000000	-0.000002	-0.000000	0.000000	0.000000
63.098520	12.448528	24.270338	-0.098553	0.173216	2.131173	0.000000	0.004373	0.000000	-0.000002	-0.000000	0.000000	0.000000
63.433103	12.523557	24.159179	-0.125692	0.159016	2.132636	0.000000	0.004373	0.000000	-0.000002	-0.000000	0.000000	0.000000
63.730426	12.605469	24.068372	-0.118895	0.087374	2.133936	0.000000	-0.000860	0.000000	-0.000003	-0.000000	0.000000	0.000000
64.171386	12.870801	23.726237	-0.485103	0.685560	2.147098	0.000000	0.060611	0.000000	-0.000003	-0.000000	0.000000	0.000000
64.612346	13.467615	22.868342	-0.873475	1.252553	2.187492	0.000000	0.122773	0.000000	-0.000003	-0.000000	0.000000	0.000000
65.053306	14.423178	21.533721	-1.301753	1.762556	2.255580	0.000000	0.186333	0.000000	-0.000003	-0.000000	0.000000	0.000000
65.494266	15.781147	19.783098	-1.789504	2.192364	2.352135	0.000000	0.252015	0.000000	-0.000003	-0.000001	0.000000	0.000000
65.940226	17.626730	17.671344	-2.363706	2.523179	2.479831	0.000000	0.320970	0.000000	-0.000003	-0.000001	0.000000	0.000000
66.489286	19.992435	15.308884	-1.919435	1.804956	2.635696	0.000000	0.245946	0.000000	-0.000004	-0.000001	0.000000	0.000000
67.038346	21.792489	13.660315	-1.339585	1.215296	2.749108	0.000000	0.166559	0.000000	-0.000004	-0.000000	0.000000	0.000000
67.587406	22.899743	12.608215	-0.665114	0.712199	2.818055	0.000000	0.084218	0.000000	-0.000004	-0.000000	0.000000	0.000000
68.136466	23.235988	12.077643	0.056338	0.259831	2.841315	0.000000	0.000383	0.000000	-0.000004	-0.000000	0.000000	0.000000
68.435038	23.242437	11.911650	-0.017225	0.264569	2.843646	0.000000	0.007807	0.000000	-0.000004	-0.000000	0.000000	0.000000
68.768372	23.258703	11.745251	-0.031571	0.234626	2.846249	0.000000	0.007807	0.000000	-0.000004	-0.000000	0.000000	0.000000
69.101705	23.284532	11.598815	-0.045917	0.204684	2.848851	0.000000	0.007807	0.000000	-0.000004	-0.000000	0.000000	0.000000
69.436288	23.320076	11.471903	-0.060317	0.174629	2.851464	0.000000	0.007807	0.000000	-0.000004	-0.000000	0.000000	0.000000
69.733611	23.359748	11.376002	-0.134150	0.177645	2.853785	0.000000	0.015264	0.000000	-0.000004	-0.000000	0.000000	0.000000
70.282671	23.105877	11.408687	0.593787	-0.237526	2.838981	0.000000	-0.069112	0.000000	-0.000004	0.000000	0.000000	0.000000
