#ParticleID	Turn	x[m]	xp	y[m]	yp	z[m]	dE[GeV]# s	beta_x	beta_y	alpha_x	alpha_y	D_x	D_y	D_px	D_py	orbit_x	orbit_px	orbit_y	orbit_py
0.300000	11.808246	25.040278	-0.010511	-0.027011	2.618194	0.000000	-0.000020	0.000000	-0.000001	0.000001	0.000000	0.000000
0.601250	11.822266	25.060179	-0.036026	-0.039051	2.618188	0.000000	-0.000020	0.000000	-0.000000	0.000001	0.000000	0.000000
0.898573	11.851176	25.086934	-0.032145	-0.112453	2.618181	0.000000	-0.006441	0.000000	0.000000	0.000001	0.000000	0.000000
1.339533	12.031589	24.907815	-0.378544	0.517109	2.631634	0.000000	0.067518	0.000000	0.000001	0.000001	0.000000	0.000000
1.780493	12.523941	24.181766	-0.742238	1.123144	2.677838	0.000000	0.142246	0.000000	0.000001	0.000002	0.000000	0.000000
2.221453	13.350727	22.941821	-1.139842	1.678076	2.757320	0.000000	0.218594	0.000000	0.000002	0.000002	0.000000	0.000000
2.662413	14.549719	21.244398	-1.589522	2.156657	2.870984	0.000000	0.297431	0.000000	0.000003	0.000002	0.000000	0.000000
3.108373	16.196425	19.141835	-2.116110	2.538246	3.021987	0.000000	0.380146	0.000000	0.000004	0.000002	0.000000	0.000000
3.657433	18.308076	16.780316	-1.707061	1.788165	3.205437	0.000000	0.287108	0.000000	0.000005	0.000002	0.000000	0.000000
4.206493	19.901269	15.168120	-1.177434	1.165451	3.336329	0.000000	0.188978	0.000000	0.000005	0.000001	0.000000	0.000000
4.755553	20.863467	14.190414	-0.564638	0.625750	3.412341	0.000000	0.087496	0.000000	0.000006	0.000001	0.000000	0.000000
5.304613	21.126706	13.777558	0.088041	0.130620	3.432124	0.000000	-0.015538	0.000000	0.000007	0.000001	0.000000	0.000000
5.603185	21.111318	13.684714	0.018696	0.144343	3.430162	0.000000	-0.006571	0.000000	0.000007	0.000001	0.000000	0.000000
5.936519	21.104119	13.596774	0.002901	0.119478	3.427971	0.000000	-0.006571	0.000000	0.000007	0.000001	0.000000	0.000000
6.269852	21.107450	13.525411	-0.012894	0.094612	3.425781	0.000000	-0.006571	0.000000	0.000008	0.000001	0.000000	0.000000
6.604435	21.121382	13.470450	-0.028748	0.069653	3.423582	0.000000	-0.006571	0.000000	0.000008	0.000001	0.000000	0.000000
6.901758	21.142666	13.435626	-0.098074	0.082576	3.421628	0.000000	0.002369	0.000000	0.000008	0.000001	0.000000	0.000000
7.450818	20.890049	13.605845	0.555441	-0.394426	3.394727	0.000000	-0.100210	0.000000	0.000009	0.000001	0.000000	0.000000
7.999878	19.937191	14.312133	1.169722	-0.899523	3.311911	0.000000	-0.201011	0.000000	0.000009	0.000001	0.000000	0.000000
8.548938	18.351396	15.604795	1.701380	-1.468692	3.174647	0.000000	-0.298247	0.000000	0.000009	0.000000	0.000000	0.000000
9.097998	16.244677	17.575905	2.112861	-2.142471	2.985371	0.000000	-0.390193	0.000000	0.000010	-0.000000	0.000000	0.000000
9.543958	14.601081	19.332246	1.585767	-1.779219	2.829667	0.000000	-0.308489	0.000000	0.000010	0.000000	0.000000	0.000000
9.984918	13.405687	20.711290	1.135407	-1.336248	2.710882	0.000000	-0.230782	0.000000	0.000010	0.000000	0.000000	0.000000
10.425878	12.583186	21.671265	0.736920	-0.832479	2.625750	0.000000	-0.155704	0.000000	0.000010	0.000001	0.000000	0.000000
10.866838	12.096000	22.168492	0.372102	-0.290832	2.573302	0.000000	-0.082400	0.000000	0.000010	0.000001	0.000000	0.000000
11.309048	11.921737	22.179825	0.053411	0.209600	2.552921	0.000000	-0.016294	0.000000	0.000011	0.000001	0.000000	0.000000
11.606371	11.897412	22.059348	0.028401	0.195606	2.548076	0.000000	-0.016294	0.000000	0.000011	0.000001	0.000000	0.000000
12.086371	11.889528	21.882411	-0.011977	0.173014	2.540255	0.000000	-0.016294	0.000000	0.000012	0.000001	0.000000	0.000000
12.566371	11.920407	21.727162	-0.052354	0.150422	2.532433	0.000000	-0.016294	0.000000	0.000012	0.000001	0.000000	0.000000
13.046371	11.990049	21.593601	-0.092732	0.127830	2.524611	0.000000	-0.016294	0.000000	0.000013	0.000001	0.000000	0.000000
13.526371	12.098452	21.481728	-0.133109	0.105238	2.516790	0.000000	-0.016294	0.000000	0.000013	0.000001	0.000000	0.000000
14.007621	12.246052	21.391338	-0.173592	0.082587	2.508948	0.000000	-0.016294	0.000000	0.000014	0.000001	0.000000	0.000000
14.304943	12.356714	21.346389	-0.168304	0.016252	2.504103	0.000000	-0.022434	0.000000	0.000014	0.000001	0.000000	0.000000
14.745903	12.663651	21.098430	-0.530403	0.543923	2.509841	0.000000	0.048485	0.000000	0.000015	0.000001	0.000000	0.000000
15.186863	13.299371	20.394285	-0.916736	1.046846	2.546942	0.000000	0.119955	0.000000	0.000015	0.000002	0.000000	0.000000
15.627823	14.292915	19.265991	-1.344951	1.502138	2.615831	0.000000	0.192792	0.000000	0.000016	0.000002	0.000000	0.000000
16.068783	15.689677	17.764885	-1.834613	1.889084	2.717290	0.000000	0.267825	0.000000	0.000017	0.000003	0.000000	0.000000
16.514743	17.577131	15.937765	-2.412851	2.190822	2.854171	0.000000	0.346370	0.000000	0.000019	0.000003	0.000000	0.000000
17.063803	20.001362	13.897661	-1.976249	1.546740	3.020619	0.000000	0.259046	0.000000	0.000020	0.000003	0.000000	0.000000
17.612863	21.866195	12.500551	-1.400053	1.012829	3.137787	0.000000	0.167126	0.000000	0.000021	0.000002	0.000000	0.000000
18.161923	23.039906	11.646921	-0.724965	0.551059	3.203597	0.000000	0.072242	0.000000	0.000022	0.000001	0.000000	0.000000
18.710983	23.439592	11.275969	0.001331	0.128541	3.216882	0.000000	-0.023923	0.000000	0.000023	0.000000	0.000000	0.000000
19.009556	23.479178	11.189725	-0.072685	0.130858	3.212248	0.000000	-0.015519	0.000000	0.000023	0.000000	0.000000	0.000000
19.342889	23.532392	11.112586	-0.086957	0.100558	3.207074	0.000000	-0.015519	0.000000	0.000023	0.000000	0.000000	0.000000
19.676223	23.595120	11.055647	-0.101229	0.070259	3.201901	0.000000	-0.015519	0.000000	0.000023	0.000000	0.000000	0.000000
20.010806	23.667945	11.018671	-0.232818	0.094439	3.196728	0.000000	0.000319	0.000000	0.000023	0.000001	0.000000	0.000000
20.308129	23.810327	10.970608	-0.308261	0.095874	3.196823	0.000000	0.008670	0.000000	0.000023	0.000001	0.000000	0.000000
20.857189	23.738159	11.087330	0.438923	-0.309714	3.175366	0.000000	-0.086713	0.000000	0.000024	-0.000000	0.000000	0.000000
21.406249	22.857730	11.658863	1.155104	-0.737361	3.101884	0.000000	-0.180558	0.000000	0.000023	-0.000001	0.000000	0.000000
21.955309	21.231230	12.725917	1.789694	-1.217529	2.977681	0.000000	-0.271200	0.000000	0.000023	-0.000002	0.000000	0.000000
22.504369	18.973548	14.364496	2.297868	-1.784419	2.804959	0.000000	-0.357032	0.000000	0.000022	-0.000002	0.000000	0.000000
22.950329	17.194224	15.835705	1.706086	-1.500633	2.663030	0.000000	-0.279829	0.000000	0.000021	-0.000002	0.000000	0.000000
23.391289	15.918940	17.008737	1.196947	-1.149422	2.555959	0.000000	-0.206267	0.000000	0.000020	-0.000001	0.000000	0.000000
23.832249	15.066956	17.847697	0.742493	-0.745913	2.480776	0.000000	-0.135055	0.000000	0.000020	-0.000001	0.000000	0.000000
24.273209	14.599348	18.314412	0.321961	-0.308466	2.436626	0.000000	-0.065381	0.000000	0.000019	-0.000000	0.000000	0.000000
24.715418	14.494873	18.387403	-0.048408	0.097864	2.423003	0.000000	-0.002392	0.000000	0.000019	0.000000	0.000000	0.000000
25.012741	14.529772	18.334063	-0.068969	0.081539	2.422292	0.000000	-0.002392	0.000000	0.000019	0.000000	0.000000	0.000000
25.346075	14.583435	18.285804	-0.092019	0.063237	2.421495	0.000000	-0.002392	0.000000	0.000019	0.000000	0.000000	0.000000
25.679408	14.652464	18.249746	-0.115070	0.044935	2.420697	0.000000	-0.002392	0.000000	0.000020	0.000000	0.000000	0.000000
26.013991	14.736908	18.226193	-0.018651	-0.121295	2.419873	0.000000	-0.022024	0.000000	0.000020	0.000000	0.000000	0.000000
26.311314	14.753999	18.303243	-0.002659	-0.182725	2.413324	0.000000	-0.027941	0.000000	0.000020	0.000000	0.000000	0.000000
26.752274	14.938109	18.265907	-0.416444	0.267071	2.416113	0.000000	0.040600	0.000000	0.000020	0.000001	0.000000	0.000000
27.193234	15.494123	17.835752	-0.849256	0.704714	2.449197	0.000000	0.109602	0.000000	0.000020	0.000001	0.000000	0.000000
27.634194	16.447444	17.032348	-1.320867	1.110294	2.512955	0.000000	0.179853	0.000000	0.000021	0.000002	0.000000	0.000000
28.075154	17.841627	15.892250	-1.852825	1.465357	2.608113	0.000000	0.252153	0.000000	0.000021	0.000002	0.000000	0.000000
28.521114	19.764587	14.450156	-2.474404	1.754658	2.737356	0.000000	0.327767	0.000000	0.000023	0.000003	0.000000	0.000000
29.070174	22.208673	12.843437	-1.950644	1.188923	2.894657	0.000000	0.244375	0.000000	0.000024	0.000002	0.000000	0.000000
29.619234	23.998080	11.808094	-1.289099	0.707871	3.004912	0.000000	0.156649	0.000000	0.000025	0.000001	0.000000	0.000000
30.168294	25.006413	11.270383	-0.536499	0.277240	3.066165	0.000000	0.066145	0.000000	0.000025	0.000000	0.000000	0.000000
30.717354	25.162448	11.192003	0.253996	-0.133644	3.077331	0.000000	-0.025533	0.000000	0.000025	-0.000000	0.000000	0.000000
31.015927	25.053694	11.262402	0.175979	-0.131376	3.072107	0.000000	-0.017495	0.000000	0.000025	-0.000000	0.000000	0.000000
31.349260	24.940947	11.360022	0.162262	-0.161484	3.066276	0.000000	-0.017495	0.000000	0.000025	-0.000000	0.000000	0.000000
31.682593	24.837345	11.477714	0.148545	-0.191592	3.060445	0.000000	-0.017495	0.000000	0.000025	-0.000000	0.000000	0.000000
32.017177	24.742550	11.616032	0.134777	-0.221812	3.054591	0.000000	-0.017495	0.000000	0.000024	-0.000000	0.000000	0.000000
32.314499	24.666043	11.755916	0.058107	-0.217958	3.049390	0.000000	-0.009529	0.000000	0.000024	-0.000000	0.000000	0.000000
32.863559	24.179606	12.234450	0.822592	-0.658738	3.019279	0.000000	-0.099994	0.000000	0.000024	-0.000001	0.000000	0.000000
33.412619	22.880766	13.219784	1.528974	-1.146438	2.939911	0.000000	-0.188686	0.000000	0.000023	-0.000002	0.000000	0.000000
33.961679	20.861266	14.782101	2.127355	-1.715797	2.812695	0.000000	-0.274032	0.000000	0.000022	-0.000003	0.000000	0.000000
34.510739	18.263754	17.032682	2.575471	-2.407368	2.639887	0.000000	-0.354517	0.000000	0.000020	-0.000003	0.000000	0.000000
34.956699	16.244050	19.045765	1.969644	-2.087828	2.498128	0.000000	-0.281593	0.000000	0.000019	-0.000003	0.000000	0.000000
35.397659	14.737946	20.710934	1.458821	-1.674037	2.389338	0.000000	-0.212305	0.000000	0.000018	-0.000002	0.000000	0.000000
35.838619	13.651367	21.976063	1.014648	-1.184079	2.310540	0.000000	-0.145435	0.000000	0.000017	-0.000002	0.000000	0.000000
36.279579	12.934668	22.783590	0.616831	-0.640246	2.260835	0.000000	-0.080221	0.000000	0.000016	-0.000001	0.000000	0.000000
36.721789	12.554412	23.097083	0.277873	-0.123968	2.239632	0.000000	-0.021412	0.000000	0.000015	-0.000001	0.000000	0.000000
37.019112	12.396761	23.174686	0.252361	-0.137039	2.233266	0.000000	-0.021412	0.000000	0.000015	-0.000001	0.000000	0.000000
37.352445	12.238054	23.270930	0.223760	-0.151693	2.226129	0.000000	-0.021412	0.000000	0.000015	-0.000001	0.000000	0.000000
37.685779	12.098415	23.376943	0.195159	-0.166346	2.218992	0.000000	-0.021412	0.000000	0.000014	-0.000001	0.000000	0.000000
38.020362	11.977426	23.493178	0.166450	-0.181055	2.211828	0.000000	-0.021412	0.000000	0.000014	-0.000001	0.000000	0.000000
38.317684	11.886033	23.604728	0.170083	-0.252004	2.205462	0.000000	-0.026820	0.000000	0.000014	-0.000001	0.000000	0.000000
38.758644	11.887549	23.565514	-0.173535	0.340592	2.207563	0.000000	0.036353	0.000000	0.000013	-0.000001	0.000000	0.000000
39.199604	12.194446	23.008542	-0.525081	0.917692	2.237584	0.000000	0.099940	0.000000	0.000013	-0.000000	0.000000	0.000000
39.640564	12.820746	21.959151	-0.900617	1.453038	2.295869	0.000000	0.164665	0.000000	0.000013	-0.000000	0.000000	0.000000
40.081524	13.795063	20.465089	-1.317300	1.922271	2.383081	0.000000	0.231265	0.000000	0.000013	0.000000	0.000000	0.000000
40.527484	15.179487	18.571759	-1.797994	2.305328	2.501684	0.000000	0.300905	0.000000	0.000013	0.000001	0.000000	0.000000
41.076544	16.946100	16.444084	-1.400481	1.592667	2.646371	0.000000	0.225354	0.000000	0.000013	0.000000	0.000000	0.000000
41.625604	18.218958	15.032484	-0.904044	0.993448	2.748416	0.000000	0.145805	0.000000	0.000013	-0.000000	0.000000	0.000000
42.174664	18.908152	14.236412	-0.343751	0.464990	2.806008	0.000000	0.063671	0.000000	0.000013	-0.000001	0.000000	0.000000
42.723724	18.965001	13.999168	0.240824	-0.030347	2.818127	0.000000	-0.019593	0.000000	0.000012	-0.000001	0.000000	0.000000
43.022297	18.855653	14.001818	0.174958	-0.015102	2.814476	0.000000	-0.012231	0.000000	0.000012	-0.000001	0.000000	0.000000
43.502297	18.700287	14.032775	0.148722	-0.049391	2.808606	0.000000	-0.012231	0.000000	0.000012	-0.000001	0.000000	0.000000
43.982297	18.570108	14.096649	0.122486	-0.083680	2.802735	0.000000	-0.012231	0.000000	0.000011	-0.000001	0.000000	0.000000
44.462297	18.465114	14.193441	0.096250	-0.117970	2.796865	0.000000	-0.012231	0.000000	0.000011	-0.000001	0.000000	0.000000
44.942297	18.385307	14.323151	0.070014	-0.152259	2.790995	0.000000	-0.012231	0.000000	0.000010	-0.000001	0.000000	0.000000
45.423547	18.330804	14.486065	-0.047111	-0.114864	2.785127	0.000000	0.001568	0.000000	0.000009	-0.000001	0.000000	0.000000
45.720870	18.363651	14.560551	-0.111344	-0.097619	2.785593	0.000000	0.008846	0.000000	0.000009	-0.000001	0.000000	0.000000
46.269930	18.176718	14.949321	0.449788	-0.614625	2.767881	0.000000	-0.073273	0.000000	0.000009	-0.000001	0.000000	0.000000
46.818990	17.387474	15.926389	0.979149	-1.175409	2.705371	0.000000	-0.154093	0.000000	0.000008	-0.000002	0.000000	0.000000
47.368050	16.051666	17.561352	1.439347	-1.819915	2.599172	0.000000	-0.232179	0.000000	0.000007	-0.000002	0.000000	0.000000
47.917110	14.263650	19.970662	1.797878	-2.594050	2.451169	0.000000	-0.306147	0.000000	0.000006	-0.000002	0.000000	0.000000
48.363070	12.872284	22.112692	1.333111	-2.188947	2.329931	0.000000	-0.237852	0.000000	0.000005	-0.000002	0.000000	0.000000
48.804030	11.876788	23.827706	0.933020	-1.685524	2.239508	0.000000	-0.172663	0.000000	0.000004	-0.000002	0.000000	0.000000
49.244990	11.214080	25.063098	0.575556	-1.105412	2.177369	0.000000	-0.109441	0.000000	0.000003	-0.000002	0.000000	0.000000
49.685950	10.853883	25.762660	0.244388	-0.475003	2.142808	0.000000	-0.047465	0.000000	0.000003	-0.000002	0.000000	0.000000
50.128160	10.779865	25.894278	-0.049296	0.113469	2.135442	0.000000	0.008734	0.000000	0.000002	-0.000002	0.000000	0.000000
50.425482	10.817399	25.830262	-0.076945	0.101839	2.138039	0.000000	0.008734	0.000000	0.000001	-0.000002	0.000000	0.000000
50.758816	10.879028	25.766716	-0.107942	0.088800	2.140951	0.000000	0.008734	0.000000	0.000001	-0.000002	0.000000	0.000000
51.092149	10.961321	25.711862	-0.138939	0.075761	2.143863	0.000000	0.008734	0.000000	0.000000	-0.000002	0.000000	0.000000
51.426732	11.064480	25.666065	-0.080289	-0.145542	2.146764	0.000000	-0.008682	0.000000	-0.000000	-0.000002	0.000000	0.000000
51.724055	11.120265	25.756128	-0.080064	-0.220534	2.144183	0.000000	-0.013940	0.000000	-0.000001	-0.000002	0.000000	0.000000
52.165015	11.336089	25.664059	-0.411235	0.428531	2.151624	0.000000	0.047722	0.000000	-0.000001	-0.000002	0.000000	0.000000
52.605975	11.851129	25.006010	-0.761194	1.058099	2.186350	0.000000	0.109927	0.000000	-0.000002	-0.000002	0.000000	0.000000
53.046935	12.688916	23.811923	-1.145930	1.639524	2.248756	0.000000	0.173384	0.000000	-0.000003	-0.000002	0.000000	0.000000
53.487895	13.887726	22.136126	-1.583021	2.146352	2.339552	0.000000	0.238816	0.000000	-0.000003	-0.000002	0.000000	0.000000
53.933855	15.522882	20.029814	-2.096660	2.556860	2.461278	0.000000	0.307367	0.000000	-0.000004	-0.000002	0.000000	0.000000
54.482915	17.628136	17.659633	-1.714931	1.785420	2.609862	0.000000	0.233062	0.000000	-0.000005	-0.000002	0.000000	0.000000
55.031975	19.244803	16.062199	-1.212067	1.141151	2.716451	0.000000	0.154623	0.000000	-0.000006	-0.000002	0.000000	0.000000
55.581035	20.258690	15.123733	-0.623590	0.578163	2.779154	0.000000	0.073441	0.000000	-0.000007	-0.000001	0.000000	0.000000
56.130095	20.598181	14.777387	0.008935	0.056357	2.796860	0.000000	-0.009043	0.000000	-0.000007	-0.000001	0.000000	0.000000
56.428668	20.629322	14.726763	-0.059412	0.074583	2.796343	0.000000	-0.001735	0.000000	-0.000008	-0.000001	0.000000	0.000000
56.762001	20.674335	14.684628	-0.075627	0.051823	2.795765	0.000000	-0.001735	0.000000	-0.000008	-0.000001	0.000000	0.000000
57.095334	20.730158	14.657666	-0.091842	0.029062	2.795187	0.000000	-0.001735	0.000000	-0.000008	-0.000001	0.000000	0.000000
57.429918	20.797061	14.645863	-0.108118	0.006217	2.794607	0.000000	-0.001735	0.000000	-0.000009	-0.000001	0.000000	0.000000
57.727240	20.865654	14.648202	-0.177104	0.024191	2.794091	0.000000	0.005566	0.000000	-0.000009	-0.000001	0.000000	0.000000
58.276300	20.704190	14.902877	0.469436	-0.490767	2.774508	0.000000	-0.076798	0.000000	-0.000010	-0.000001	0.000000	0.000000
58.825360	19.846834	15.738799	1.082817	-1.040680	2.710009	0.000000	-0.157800	0.000000	-0.000010	-0.000000	0.000000	0.000000
59.374420	18.354147	17.215509	1.619714	-1.664719	2.601739	0.000000	-0.236003	0.000000	-0.000010	-0.000000	0.000000	0.000000
59.923480	16.331563	19.438190	2.042202	-2.407333	2.451618	0.000000	-0.310020	0.000000	-0.000010	0.000000	0.000000	0.000000
60.369440	14.748536	21.413696	1.520075	-2.003752	2.328652	0.000000	-0.241736	0.000000	-0.000010	-0.000000	0.000000	0.000000
60.810400	13.610032	22.969205	1.071597	-1.510378	2.236505	0.000000	-0.176602	0.000000	-0.000010	-0.000000	0.000000	0.000000
61.251360	12.844048	24.057518	0.672076	-0.948283	2.172609	0.000000	-0.113480	0.000000	-0.000011	-0.000001	0.000000	0.000000
61.692320	12.415588	24.629116	0.303261	-0.343042	2.136236	0.000000	-0.051650	0.000000	-0.000011	-0.000001	0.000000	0.000000
62.134530	12.305132	24.657449	-0.021621	0.217279	2.126977	0.000000	0.004375	0.000000	-0.000011	-0.000001	0.000000	0.000000
62.431853	12.325177	24.531999	-0.045795	0.204651	2.128279	0.000000	0.004375	0.000000	-0.000012	-0.000001	0.000000	0.000000
62.765186	12.364740	24.400284	-0.072897	0.190495	2.129737	0.000000	0.004375	0.000000	-0.000012	-0.000001	0.000000	0.000000
63.098520	12.422372	24.278007	-0.099998	0.176338	2.131196	0.000000	0.004375	0.000000	-0.000012	-0.000001	0.000000	0.000000
63.433103	12.498389	24.164762	-0.127201	0.162128	2.132660	0.000000	0.004375	0.000000	-0.000013	-0.000001	0.000000	0.000000
63.730426	12.581216	24.072107	-0.120519	0.090461	2.133961	0.000000	-0.000859	0.000000	-0.000013	-0.000001	0.000000	0.000000
64.171386	12.847751	23.727232	-0.486216	0.688665	2.147124	0.000000	0.060613	0.000000	-0.000014	-0.000001	0.000000	0.000000
64.612346	13.445340	22.866642	-0.874127	1.255536	2.187520	0.000000	0.122776	0.000000	-0.000014	-0.000002	0.000000	0.000000
65.053306	14.401287	21.529495	-1.301975	1.765280	2.255609	0.000000	0.186336	0.000000	-0.000015	-0.000002	0.000000	0.000000
65.494266	15.759266	19.776629	-1.789306	2.194706	2.352167	0.000000	0.252019	0.000000	-0.000016	-0.000003	0.000000	0.000000
65.940226	17.604480	17.663001	-2.363076	2.525026	2.479865	0.000000	0.320975	0.000000	-0.000018	-0.000003	0.000000	0.000000
66.489286	19.969985	15.298559	-1.919704	1.806739	2.635734	0.000000	0.245949	0.000000	-0.000019	-0.000002	0.000000	0.000000
67.038346	21.770820	13.648010	-1.340734	1.217142	2.749148	0.000000	0.166561	0.000000	-0.000020	-0.000002	0.000000	0.000000
67.587406	22.879783	12.593790	-0.667061	0.714239	2.818098	0.000000	0.084219	0.000000	-0.000021	-0.000001	0.000000	0.000000
68.136466	23.218544	12.060808	0.053730	0.262209	2.841358	0.000000	0.000383	0.000000	-0.000022	-0.000000	0.000000	0.000000
68.435038	23.226531	11.893439	-0.019807	0.266836	2.843690	0.000000	0.007808	0.000000	-0.000022	-0.000001	0.000000	0.000000
68.768372	23.244521	11.725555	-0.034164	0.236814	2.846293	0.000000	0.007808	0.000000	-0.000022	-0.000001	0.000000	0.000000
69.101705	23.272083	11.577687	-0.048521	0.206792	2.848896	0.000000	0.007808	0.000000	-0.000022	-0.000001	0.000000	0.000000
69.436288	23.309373	11.449391	-0.062932	0.176657	2.851508	0.000000	0.007808	0.000000	-0.000022	-0.000001	0.000000	0.000000
69.733611	23.350602	11.352305	-0.136760	0.179545	2.853830	0.000000	0.015266	0.000000	-0.000022	-0.000001	0.000000	0.000000
70.282671	23.099739	11.382533	0.590950	-0.234924	2.839026	0.000000	-0.069111	0.000000	-0.000023	0.000000	0.000000	0.000000
