#ParticleID	Turn	x[m]	xp	y[m]	yp	z[m]	dE[GeV]# s	beta_x	beta_y	alpha_x	alpha_y	D_x	D_y	D_px	D_py	orbit_x	orbit_px	orbit_y	orbit_py
0.300000	11.816885	25.005552	-0.011417	-0.027390	2.618100	0.000000	0.000016	0.000000	-0.000001	0.000001	0.000000	0.000000
0.601250	11.831445	25.025687	-0.036913	-0.039447	2.618105	0.000000	0.000016	0.000000	-0.000000	0.000001	0.000000	0.000000
0.898573	11.860877	25.052681	-0.032991	-0.112782	2.618109	0.000000	-0.006405	0.000000	-0.000000	0.000001	0.000000	0.000000
1.339533	12.042140	24.874252	-0.379633	0.515882	2.631578	0.000000	0.067553	0.000000	0.000000	0.000001	0.000000	0.000000
1.780493	12.535577	24.149662	-0.743619	1.121074	2.677797	0.000000	0.142279	0.000000	0.000001	0.000001	0.000000	0.000000
2.221453	13.363732	22.911881	-1.141578	1.675258	2.757294	0.000000	0.218626	0.000000	0.000001	0.000001	0.000000	0.000000
2.662413	14.564441	21.217226	-1.591694	2.153220	2.870972	0.000000	0.297463	0.000000	0.000002	0.000001	0.000000	0.000000
3.108373	16.213317	19.117951	-2.118821	2.534343	3.021990	0.000000	0.380178	0.000000	0.000002	0.000001	0.000000	0.000000
3.657433	18.327717	16.760175	-1.709329	1.785208	3.205458	0.000000	0.287140	0.000000	0.000003	0.000001	0.000000	0.000000
4.206493	19.923081	15.150806	-1.179098	1.163229	3.336367	0.000000	0.189009	0.000000	0.000004	0.000001	0.000000	0.000000
4.755553	20.886720	14.175210	-0.565582	0.624105	3.412395	0.000000	0.087525	0.000000	0.000004	0.000001	0.000000	0.000000
5.304613	21.150568	13.763900	0.087884	0.129434	3.432194	0.000000	-0.015511	0.000000	0.000005	0.000001	0.000000	0.000000
5.603185	21.135306	13.671789	0.018492	0.143109	3.430240	0.000000	-0.006543	0.000000	0.000005	0.000001	0.000000	0.000000
5.936519	21.128238	13.584676	0.002715	0.118229	3.428059	0.000000	-0.006543	0.000000	0.000005	0.000001	0.000000	0.000000
6.269852	21.131687	13.514150	-0.013062	0.093349	3.425877	0.000000	-0.006543	0.000000	0.000005	0.000001	0.000000	0.000000
6.604435	21.145726	13.460040	-0.028898	0.068375	3.423688	0.000000	-0.006543	0.000000	0.000006	0.000001	0.000000	0.000000
6.901758	21.167094	13.425980	-0.098273	0.081260	3.421742	0.000000	0.002397	0.000000	0.000006	0.000001	0.000000	0.000000
7.450818	20.914246	13.597501	0.556059	-0.395496	3.394856	0.000000	-0.100186	0.000000	0.000006	0.000001	0.000000	0.000000
7.999878	19.960278	14.304862	1.171113	-0.900422	3.312052	0.000000	-0.200992	0.000000	0.000006	0.000000	0.000000	0.000000
8.548938	18.372573	15.598447	1.703446	-1.469483	3.174798	0.000000	-0.298232	0.000000	0.000007	0.000000	0.000000	0.000000
9.097998	16.263280	17.570394	2.115456	-2.143213	2.985529	0.000000	-0.390183	0.000000	0.000007	-0.000000	0.000000	0.000000
9.543958	14.617625	19.327511	1.587805	-1.780210	2.829830	0.000000	-0.308475	0.000000	0.000007	0.000000	0.000000	0.000000
9.984918	13.420642	20.707522	1.136986	-1.337441	2.711051	0.000000	-0.230764	0.000000	0.000007	0.000000	0.000000	0.000000
10.425878	12.596923	21.668618	0.738113	-0.833820	2.625929	0.000000	-0.155682	0.000000	0.000007	0.000000	0.000000	0.000000
10.866838	12.108835	22.167071	0.372962	-0.292260	2.573492	0.000000	-0.082372	0.000000	0.000007	0.000001	0.000000	0.000000
11.309048	11.933944	22.179681	0.054009	0.208149	2.553125	0.000000	-0.016262	0.000000	0.000007	0.000001	0.000000	0.000000
11.606371	11.909257	22.060065	0.029022	0.194163	2.548289	0.000000	-0.016262	0.000000	0.000008	0.000001	0.000000	0.000000
12.086371	11.900759	21.884506	-0.011317	0.171584	2.540483	0.000000	-0.016262	0.000000	0.000008	0.000001	0.000000	0.000000
12.566371	11.930985	21.730624	-0.051655	0.149005	2.532677	0.000000	-0.016262	0.000000	0.000009	0.000001	0.000000	0.000000
13.046371	11.999937	21.598417	-0.091994	0.126426	2.524871	0.000000	-0.016262	0.000000	0.000009	0.000001	0.000000	0.000000
13.526371	12.107613	21.487887	-0.132333	0.103847	2.517065	0.000000	-0.016262	0.000000	0.000009	0.000001	0.000000	0.000000
14.007621	12.254447	21.398829	-0.172776	0.081209	2.509239	0.000000	-0.016262	0.000000	0.000010	0.000001	0.000000	0.000000
14.304943	12.364617	21.354696	-0.167444	0.014860	2.504404	0.000000	-0.022403	0.000000	0.000010	0.000001	0.000000	0.000000
14.745903	12.670866	21.107858	-0.529696	0.542785	2.510157	0.000000	0.048524	0.000000	0.000010	0.000001	0.000000	0.000000
15.186863	13.306016	20.404585	-0.916147	1.046014	2.547278	0.000000	0.120003	0.000000	0.000011	0.000001	0.000000	0.000000
15.627823	14.299084	19.276876	-1.344455	1.501649	2.616189	0.000000	0.192849	0.000000	0.000012	0.000002	0.000000	0.000000
16.068783	15.695441	17.776041	-1.834187	1.888961	2.717676	0.000000	0.267891	0.000000	0.000012	0.000002	0.000000	0.000000
16.514743	17.582538	15.948864	-2.412475	2.191073	2.854588	0.000000	0.346447	0.000000	0.000013	0.000002	0.000000	0.000000
17.063803	20.006199	13.908623	-1.975592	1.546740	3.021075	0.000000	0.259108	0.000000	0.000014	0.000002	0.000000	0.000000
17.612863	21.870177	12.511649	-1.399163	1.012578	3.138274	0.000000	0.167173	0.000000	0.000015	0.000001	0.000000	0.000000
18.161923	23.042811	11.658439	-0.723904	0.550541	3.204105	0.000000	0.072273	0.000000	0.000016	0.000001	0.000000	0.000000
18.710983	23.441271	11.288221	0.002488	0.127716	3.217402	0.000000	-0.023909	0.000000	0.000016	0.000000	0.000000	0.000000
19.009556	23.480170	11.202438	-0.071533	0.130103	3.212773	0.000000	-0.015503	0.000000	0.000016	0.000000	0.000000	0.000000
19.342889	23.532615	11.125789	-0.085802	0.099844	3.207605	0.000000	-0.015503	0.000000	0.000016	0.000000	0.000000	0.000000
19.676223	23.594572	11.069313	-0.100071	0.069585	3.202437	0.000000	-0.015503	0.000000	0.000017	0.000000	0.000000	0.000000
20.010806	23.666622	11.032775	-0.231651	0.093875	3.197270	0.000000	0.000338	0.000000	0.000017	0.000000	0.000000	0.000000
20.308129	23.808307	10.985036	-0.307086	0.095387	3.197370	0.000000	0.008691	0.000000	0.000017	0.000000	0.000000	0.000000
20.857189	23.734892	11.102516	0.440006	-0.310617	3.175920	0.000000	-0.086710	0.000000	0.000017	-0.000000	0.000000	0.000000
21.406249	22.853359	11.675298	1.156019	-0.738745	3.102435	0.000000	-0.180573	0.000000	0.000017	-0.000001	0.000000	0.000000
21.955309	21.225978	12.744179	1.790376	-1.219492	2.978218	0.000000	-0.271233	0.000000	0.000016	-0.000001	0.000000	0.000000
22.504369	18.967697	14.385292	2.298269	-1.787101	2.805473	0.000000	-0.357081	0.000000	0.000015	-0.000002	0.000000	0.000000
22.950329	17.187985	15.858683	1.706560	-1.502823	2.663525	0.000000	-0.279865	0.000000	0.000015	-0.000001	0.000000	0.000000
23.391289	15.912244	17.033393	1.197515	-1.151023	2.556439	0.000000	-0.206291	0.000000	0.000014	-0.000001	0.000000	0.000000
23.832249	15.059708	17.873478	0.743182	-0.746853	2.481249	0.000000	-0.135067	0.000000	0.000014	-0.000001	0.000000	0.000000
24.273209	14.591427	18.340713	0.322802	-0.308701	2.437096	0.000000	-0.065380	0.000000	0.000014	-0.000000	0.000000	0.000000
24.715418	14.486127	18.413594	-0.047396	0.098278	2.423477	0.000000	-0.002381	0.000000	0.000014	0.000000	0.000000	0.000000
25.012741	14.520427	18.360001	-0.067967	0.081975	2.422769	0.000000	-0.002381	0.000000	0.000014	0.000000	0.000000	0.000000
25.346075	14.573426	18.311443	-0.091029	0.063697	2.421975	0.000000	-0.002381	0.000000	0.000014	0.000000	0.000000	0.000000
25.679408	14.641800	18.275071	-0.114092	0.045420	2.421181	0.000000	-0.002381	0.000000	0.000014	0.000000	0.000000	0.000000
26.013991	14.725592	18.251185	-0.017777	-0.120988	2.420360	0.000000	-0.022017	0.000000	0.000014	0.000000	0.000000	0.000000
26.311314	14.742168	18.328045	-0.001827	-0.182457	2.413814	0.000000	-0.027935	0.000000	0.000014	0.000000	0.000000	0.000000
26.752274	14.925413	18.290178	-0.415309	0.268005	2.416607	0.000000	0.040618	0.000000	0.000014	0.000000	0.000000	0.000000
27.193234	15.480274	17.858919	-0.847766	0.706273	2.449703	0.000000	0.109633	0.000000	0.000014	0.000001	0.000000	0.000000
27.634194	16.432100	17.053890	-1.318955	1.112407	2.513478	0.000000	0.179898	0.000000	0.000015	0.000001	0.000000	0.000000
28.075154	17.824379	15.911719	-1.850403	1.467927	2.608658	0.000000	0.252211	0.000000	0.000015	0.000002	0.000000	0.000000
28.521114	19.744908	14.467170	-2.471356	1.757570	2.737931	0.000000	0.327840	0.000000	0.000016	0.000002	0.000000	0.000000
29.070174	22.185912	12.857633	-1.948113	1.191174	2.895266	0.000000	0.244429	0.000000	0.000017	0.000001	0.000000	0.000000
29.619234	23.972907	11.820105	-1.287265	0.709624	3.005545	0.000000	0.156683	0.000000	0.000018	0.000001	0.000000	0.000000
30.168294	24.979669	11.280685	-0.535491	0.278618	3.066812	0.000000	0.066157	0.000000	0.000018	0.000000	0.000000	0.000000
30.717354	25.135085	11.200952	0.254108	-0.132542	3.077978	0.000000	-0.025542	0.000000	0.000018	-0.000000	0.000000	0.000000
31.015927	25.026229	11.270669	0.176144	-0.130221	3.072753	0.000000	-0.017501	0.000000	0.000018	-0.000000	0.000000	0.000000
31.349260	24.913378	11.367509	0.162411	-0.160298	3.066920	0.000000	-0.017501	0.000000	0.000018	-0.000000	0.000000	0.000000
31.682593	24.809681	11.484400	0.148678	-0.190375	3.061086	0.000000	-0.017501	0.000000	0.000018	-0.000000	0.000000	0.000000
32.017177	24.714803	11.621893	0.134894	-0.220564	3.055231	0.000000	-0.017501	0.000000	0.000018	-0.000000	0.000000	0.000000
32.314499	24.638230	11.761027	0.058280	-0.216667	3.050027	0.000000	-0.009533	0.000000	0.000018	-0.000000	0.000000	0.000000
32.863559	24.152112	12.238191	0.821844	-0.657520	3.019908	0.000000	-0.100019	0.000000	0.000017	-0.000001	0.000000	0.000000
33.412619	22.854578	13.222188	1.527357	-1.145206	2.940521	0.000000	-0.188731	0.000000	0.000017	-0.000001	0.000000	0.000000
33.961679	20.837280	14.783105	2.124985	-1.714463	2.813275	0.000000	-0.274096	0.000000	0.000016	-0.000002	0.000000	0.000000
34.510739	18.242711	17.032122	2.572515	-2.405837	2.640426	0.000000	-0.354599	0.000000	0.000015	-0.000002	0.000000	0.000000
34.956699	16.225350	19.043773	1.967328	-2.086161	2.498634	0.000000	-0.281662	0.000000	0.000014	-0.000002	0.000000	0.000000
35.397659	14.721049	20.707441	1.457034	-1.672313	2.389816	0.000000	-0.212361	0.000000	0.000013	-0.000002	0.000000	0.000000
35.838619	13.635843	21.971053	1.013309	-1.182375	2.310995	0.000000	-0.145478	0.000000	0.000012	-0.000001	0.000000	0.000000
36.279579	12.920151	22.777116	0.615878	-0.638640	2.261274	0.000000	-0.080253	0.000000	0.000012	-0.000001	0.000000	0.000000
36.721789	12.540583	23.089260	0.277230	-0.122518	2.240059	0.000000	-0.021434	0.000000	0.000011	-0.000001	0.000000	0.000000
37.019112	12.383321	23.166000	0.251699	-0.135588	2.233686	0.000000	-0.021434	0.000000	0.000011	-0.000001	0.000000	0.000000
37.352445	12.225063	23.261277	0.223075	-0.150241	2.226541	0.000000	-0.021434	0.000000	0.000011	-0.000001	0.000000	0.000000
37.685779	12.085887	23.366322	0.194452	-0.164895	2.219397	0.000000	-0.021434	0.000000	0.000011	-0.000001	0.000000	0.000000
38.020362	11.965379	23.481586	0.165722	-0.179603	2.212225	0.000000	-0.021434	0.000000	0.000010	-0.000001	0.000000	0.000000
38.317684	11.874424	23.592272	0.169307	-0.250524	2.205853	0.000000	-0.026843	0.000000	0.000010	-0.000001	0.000000	0.000000
38.758644	11.876509	23.551903	-0.174054	0.341722	2.207945	0.000000	0.036339	0.000000	0.000010	-0.000001	0.000000	0.000000
39.199604	12.183761	22.994108	-0.525368	0.918420	2.237962	0.000000	0.099936	0.000000	0.000010	-0.000000	0.000000	0.000000
39.640564	12.810217	21.944265	-0.900685	1.453331	2.296248	0.000000	0.164671	0.000000	0.000009	-0.000000	0.000000	0.000000
40.081524	13.784498	20.450142	-1.317151	1.922116	2.383464	0.000000	0.231281	0.000000	0.000009	0.000000	0.000000	0.000000
40.527484	15.168689	18.557150	-1.797621	2.304729	2.502077	0.000000	0.300931	0.000000	0.000010	0.000000	0.000000	0.000000
41.076544	16.935120	16.429917	-1.400525	1.592457	2.646774	0.000000	0.225367	0.000000	0.000010	0.000000	0.000000	0.000000
41.625604	18.208255	15.018342	-0.904504	0.993613	2.748823	0.000000	0.145805	0.000000	0.000010	-0.000000	0.000000	0.000000
42.174664	18.898168	14.221880	-0.344593	0.465541	2.806411	0.000000	0.063658	0.000000	0.000010	-0.000001	0.000000	0.000000
42.723724	18.956126	13.983802	0.239659	-0.029372	2.818519	0.000000	-0.019619	0.000000	0.000009	-0.000001	0.000000	0.000000
43.022297	18.847461	13.985900	0.173814	-0.014190	2.814860	0.000000	-0.012256	0.000000	0.000009	-0.000001	0.000000	0.000000
43.502297	18.693194	14.015999	0.147577	-0.048517	2.808978	0.000000	-0.012256	0.000000	0.000009	-0.000001	0.000000	0.000000
43.982297	18.564114	14.079053	0.121340	-0.082844	2.803096	0.000000	-0.012256	0.000000	0.000008	-0.000001	0.000000	0.000000
44.462297	18.460222	14.175060	0.095103	-0.117171	2.797213	0.000000	-0.012256	0.000000	0.000008	-0.000001	0.000000	0.000000
44.942297	18.381517	14.304021	0.068866	-0.151498	2.791331	0.000000	-0.012256	0.000000	0.000007	-0.000001	0.000000	0.000000
45.423547	18.328120	14.466222	-0.048247	-0.114240	2.785451	0.000000	0.001545	0.000000	0.000007	-0.000001	0.000000	0.000000
45.720870	18.361645	14.540345	-0.112480	-0.097073	2.785910	0.000000	0.008824	0.000000	0.000007	-0.000001	0.000000	0.000000
46.269930	18.175987	14.928175	0.448617	-0.613449	2.768182	0.000000	-0.073305	0.000000	0.000006	-0.000001	0.000000	0.000000
46.818990	17.388010	15.903572	0.978025	-1.173521	2.705652	0.000000	-0.154134	0.000000	0.000006	-0.000001	0.000000	0.000000
47.368050	16.053374	17.536010	1.438351	-1.817180	2.599428	0.000000	-0.232230	0.000000	0.000005	-0.000001	0.000000	0.000000
47.917110	14.266349	19.941765	1.797079	-2.590272	2.451394	0.000000	-0.306205	0.000000	0.000004	-0.000001	0.000000	0.000000
48.363070	12.875681	22.080702	1.332339	-2.185817	2.330132	0.000000	-0.237905	0.000000	0.000004	-0.000001	0.000000	0.000000
48.804030	11.880867	23.793293	0.932238	-1.683183	2.239685	0.000000	-0.172711	0.000000	0.000003	-0.000001	0.000000	0.000000
49.244990	11.218866	25.027008	0.574729	-1.103964	2.177527	0.000000	-0.109484	0.000000	0.000003	-0.000001	0.000000	0.000000
49.685950	10.859432	25.725714	0.243478	-0.474517	2.142947	0.000000	-0.047505	0.000000	0.000002	-0.000001	0.000000	0.000000
50.128160	10.786271	25.857337	-0.050315	0.113063	2.135564	0.000000	0.008697	0.000000	0.000002	-0.000001	0.000000	0.000000
50.425482	10.824407	25.793567	-0.077950	0.101418	2.138150	0.000000	0.008697	0.000000	0.000001	-0.000001	0.000000	0.000000
50.758816	10.886701	25.730308	-0.108932	0.088361	2.141049	0.000000	0.008697	0.000000	0.000001	-0.000001	0.000000	0.000000
51.092149	10.969650	25.675752	-0.139913	0.075305	2.143949	0.000000	0.008697	0.000000	0.000001	-0.000001	0.000000	0.000000
51.426732	11.073455	25.630265	-0.081176	-0.145725	2.146837	0.000000	-0.008719	0.000000	0.000000	-0.000001	0.000000	0.000000
51.724055	11.129762	25.720441	-0.080910	-0.220646	2.144245	0.000000	-0.013978	0.000000	-0.000000	-0.000001	0.000000	0.000000
52.165015	11.346434	25.628888	-0.412318	0.427479	2.151670	0.000000	0.047685	0.000000	-0.000001	-0.000001	0.000000	0.000000
52.605975	11.862552	24.972166	-0.762564	1.056154	2.186381	0.000000	0.109892	0.000000	-0.000001	-0.000001	0.000000	0.000000
53.046935	12.701696	23.780156	-1.147649	1.636776	2.248771	0.000000	0.173350	0.000000	-0.000002	-0.000001	0.000000	0.000000
53.487895	13.902204	22.107092	-1.585168	2.142925	2.339552	0.000000	0.238782	0.000000	-0.000002	-0.000001	0.000000	0.000000
53.933855	15.539504	20.004084	-2.099338	2.552909	2.461262	0.000000	0.307333	0.000000	-0.000003	-0.000001	0.000000	0.000000
54.482915	17.647475	17.637675	-1.717173	1.782459	2.609826	0.000000	0.233028	0.000000	-0.000003	-0.000001	0.000000	0.000000
55.031975	19.266292	16.043049	-1.213716	1.138970	2.716397	0.000000	0.154591	0.000000	-0.000004	-0.000001	0.000000	0.000000
55.581035	20.281608	15.106622	-0.624528	0.576606	2.779083	0.000000	0.073411	0.000000	-0.000005	-0.000001	0.000000	0.000000
56.130095	20.621706	14.761696	0.008774	0.055313	2.796773	0.000000	-0.009071	0.000000	-0.000005	-0.000001	0.000000	0.000000
56.428668	20.652975	14.711725	-0.059617	0.073480	2.796247	0.000000	-0.001763	0.000000	-0.000005	-0.000001	0.000000	0.000000
56.762001	20.698119	14.670332	-0.075814	0.050700	2.795660	0.000000	-0.001763	0.000000	-0.000006	-0.000001	0.000000	0.000000
57.095334	20.754060	14.644125	-0.092011	0.027920	2.795072	0.000000	-0.001763	0.000000	-0.000006	-0.000001	0.000000	0.000000
57.429918	20.821071	14.633092	-0.108269	0.005055	2.794483	0.000000	-0.001763	0.000000	-0.000006	-0.000001	0.000000	0.000000
57.727240	20.889748	14.636127	-0.177300	0.022979	2.793959	0.000000	0.005538	0.000000	-0.000006	-0.000001	0.000000	0.000000
58.276300	20.728056	14.891949	0.470046	-0.491657	2.774361	0.000000	-0.076822	0.000000	-0.000007	-0.000001	0.000000	0.000000
58.825360	19.869605	15.728702	1.084191	-1.041312	2.709850	0.000000	-0.157819	0.000000	-0.000007	-0.000000	0.000000	0.000000
59.374420	18.375032	17.205985	1.621753	-1.665138	2.601571	0.000000	-0.236017	0.000000	-0.000007	-0.000000	0.000000	0.000000
59.923480	16.349907	19.429022	2.044764	-2.407568	2.451444	0.000000	-0.310028	0.000000	-0.000007	0.000000	0.000000	0.000000
60.369440	14.764847	21.404886	1.522088	-2.004317	2.328473	0.000000	-0.241749	0.000000	-0.000007	-0.000000	0.000000	0.000000
60.810400	13.624772	22.961030	1.073158	-1.511245	2.236319	0.000000	-0.176620	0.000000	-0.000007	-0.000000	0.000000	0.000000
61.251360	12.857584	24.050226	0.673256	-0.949413	2.172414	0.000000	-0.113502	0.000000	-0.000007	-0.000000	0.000000	0.000000
61.692320	12.428231	24.622918	0.304114	-0.344383	2.136030	0.000000	-0.051678	0.000000	-0.000008	-0.000001	0.000000	0.000000
62.134530	12.317151	24.652508	-0.021027	0.215802	2.126758	0.000000	0.004343	0.000000	-0.000008	-0.000001	0.000000	0.000000
62.431853	12.336835	24.527935	-0.045177	0.203180	2.128050	0.000000	0.004343	0.000000	-0.000008	-0.000001	0.000000	0.000000
62.765186	12.375978	24.397199	-0.072252	0.189029	2.129498	0.000000	0.004343	0.000000	-0.000008	-0.000001	0.000000	0.000000
63.098520	12.433170	24.275897	-0.099326	0.174878	2.130945	0.000000	0.004343	0.000000	-0.000009	-0.000001	0.000000	0.000000
63.433103	12.508729	24.163627	-0.126502	0.160674	2.132399	0.000000	0.004343	0.000000	-0.000009	-0.000001	0.000000	0.000000
63.730426	12.591133	24.071837	-0.119772	0.089015	2.133690	0.000000	-0.000890	0.000000	-0.000009	-0.000001	0.000000	0.000000
64.171386	12.857102	23.728228	-0.485676	0.687249	2.146837	0.000000	0.060575	0.000000	-0.000010	-0.000001	0.000000	0.000000
64.612346	13.454296	22.868849	-0.873768	1.254215	2.187214	0.000000	0.122729	0.000000	-0.000010	-0.000001	0.000000	0.000000
65.053306	14.410001	21.532803	-1.301781	1.764115	2.255281	0.000000	0.186282	0.000000	-0.000011	-0.000002	0.000000	0.000000
65.494266	15.767878	19.780877	-1.789269	2.193748	2.351812	0.000000	0.251956	0.000000	-0.000012	-0.000002	0.000000	0.000000
65.940226	17.613129	17.667992	-2.363194	2.524323	2.479480	0.000000	0.320902	0.000000	-0.000013	-0.000002	0.000000	0.000000
66.489286	19.978563	15.304324	-1.919459	1.806025	2.635312	0.000000	0.245890	0.000000	-0.000014	-0.000002	0.000000	0.000000
67.038346	21.778937	13.654589	-1.340143	1.216366	2.748697	0.000000	0.166516	0.000000	-0.000014	-0.000001	0.000000	0.000000
67.587406	22.887079	12.601279	-0.666165	0.713346	2.817625	0.000000	0.084189	0.000000	-0.000015	-0.000001	0.000000	0.000000
68.136466	23.224718	12.069370	0.054866	0.261136	2.840873	0.000000	0.000368	0.000000	-0.000015	-0.000000	0.000000	0.000000
68.435038	23.232033	11.902619	-0.018680	0.265818	2.843199	0.000000	0.007792	0.000000	-0.000016	-0.000000	0.000000	0.000000
68.768372	23.249271	11.735402	-0.033033	0.235834	2.845797	0.000000	0.007792	0.000000	-0.000016	-0.000000	0.000000	0.000000
69.101705	23.276077	11.588174	-0.047386	0.205850	2.848394	0.000000	0.007792	0.000000	-0.000016	-0.000000	0.000000	0.000000
69.436288	23.312606	11.460495	-0.061792	0.175754	2.851001	0.000000	0.007792	0.000000	-0.000016	-0.000000	0.000000	0.000000
69.733611	23.353157	11.363936	-0.135621	0.178705	2.853318	0.000000	0.015248	0.000000	-0.000016	-0.000000	0.000000	0.000000
70.282671	23.101007	11.395268	0.592141	-0.236107	2.838509	0.000000	-0.069113	0.000000	-0.000016	0.000000	0.000000	0.000000
