#ParticleID	Turn	x[m]	xp	y[m]	yp	z[m]	dE[GeV]# s	beta_x	beta_y	alpha_x	alpha_y	D_x	D_y	D_px	D_py	orbit_x	orbit_px	orbit_y	orbit_py
0.300000	11.816333	25.007793	-0.011354	-0.027369	2.618104	0.000000	0.000016	0.000000	-0.000001	0.000001	0.000000	0.000000
0.601250	11.830855	25.027915	-0.036851	-0.039424	2.618109	0.000000	0.000016	0.000000	-0.000001	0.000001	0.000000	0.000000
0.898573	11.860251	25.054896	-0.032932	-0.112764	2.618113	0.000000	-0.006405	0.000000	-0.000000	0.000001	0.000000	0.000000
1.339533	12.041455	24.876424	-0.379558	0.515958	2.631582	0.000000	0.067553	0.000000	-0.000000	0.000001	0.000000	0.000000
1.780493	12.534818	24.151743	-0.743524	1.121205	2.677801	0.000000	0.142279	0.000000	0.000000	0.000001	0.000000	0.000000
2.221453	13.362879	22.913825	-1.141461	1.675438	2.757298	0.000000	0.218627	0.000000	0.000001	0.000001	0.000000	0.000000
2.662413	14.563472	21.218993	-1.591547	2.153440	2.870977	0.000000	0.297464	0.000000	0.000001	0.000001	0.000000	0.000000
3.108373	16.212202	19.119507	-2.118638	2.534594	3.021995	0.000000	0.380178	0.000000	0.000002	0.000001	0.000000	0.000000
3.657433	18.326417	16.761491	-1.709175	1.785398	3.205463	0.000000	0.287140	0.000000	0.000002	0.000001	0.000000	0.000000
4.206493	19.921633	15.151941	-1.178984	1.163371	3.336373	0.000000	0.189009	0.000000	0.000003	0.000001	0.000000	0.000000
4.755553	20.885172	14.176212	-0.565516	0.624209	3.412401	0.000000	0.087525	0.000000	0.000003	0.000001	0.000000	0.000000
5.304613	21.148975	13.764804	0.087897	0.129508	3.432200	0.000000	-0.015511	0.000000	0.000003	0.000001	0.000000	0.000000
5.603185	21.133704	13.672647	0.018508	0.143187	3.430246	0.000000	-0.006543	0.000000	0.000004	0.000001	0.000000	0.000000
5.936519	21.126624	13.585482	0.002730	0.118308	3.428065	0.000000	-0.006543	0.000000	0.000004	0.000001	0.000000	0.000000
6.269852	21.130064	13.514904	-0.013048	0.093428	3.425883	0.000000	-0.006543	0.000000	0.000004	0.000001	0.000000	0.000000
6.604435	21.144094	13.460740	-0.028885	0.068455	3.423694	0.000000	-0.006543	0.000000	0.000004	0.000001	0.000000	0.000000
6.901758	21.165455	13.426631	-0.098258	0.081344	3.421748	0.000000	0.002397	0.000000	0.000005	0.000001	0.000000	0.000000
7.450818	20.912620	13.598071	0.556019	-0.395429	3.394862	0.000000	-0.100186	0.000000	0.000005	0.000001	0.000000	0.000000
7.999878	19.958724	14.305366	1.171022	-0.900367	3.312058	0.000000	-0.200992	0.000000	0.000005	0.000000	0.000000	0.000000
8.548938	18.371147	15.598896	1.703309	-1.469437	3.174803	0.000000	-0.298232	0.000000	0.000005	0.000000	0.000000	0.000000
9.097998	16.262025	17.570795	2.115283	-2.143171	2.985534	0.000000	-0.390183	0.000000	0.000005	0.000000	0.000000	0.000000
9.543958	14.616507	19.327867	1.587669	-1.780151	2.829835	0.000000	-0.308475	0.000000	0.000005	0.000000	0.000000	0.000000
9.984918	13.419629	20.707819	1.136881	-1.337368	2.711056	0.000000	-0.230764	0.000000	0.000006	0.000000	0.000000	0.000000
10.425878	12.595991	21.668846	0.738034	-0.833736	2.625934	0.000000	-0.155682	0.000000	0.000006	0.000000	0.000000	0.000000
10.866838	12.107963	22.167222	0.372905	-0.292170	2.573497	0.000000	-0.082372	0.000000	0.000006	0.000001	0.000000	0.000000
11.309048	11.933113	22.179750	0.053971	0.208242	2.553129	0.000000	-0.016262	0.000000	0.000006	0.000001	0.000000	0.000000
11.606371	11.908449	22.060079	0.028983	0.194256	2.548294	0.000000	-0.016262	0.000000	0.000006	0.000001	0.000000	0.000000
12.086371	11.899989	21.884432	-0.011359	0.171676	2.540488	0.000000	-0.016262	0.000000	0.000007	0.000001	0.000000	0.000000
12.566371	11.930258	21.730461	-0.051700	0.149096	2.532682	0.000000	-0.016262	0.000000	0.000007	0.000001	0.000000	0.000000
13.046371	11.999254	21.598167	-0.092042	0.126516	2.524876	0.000000	-0.016262	0.000000	0.000008	0.000001	0.000000	0.000000
13.526371	12.106977	21.487550	-0.132383	0.103936	2.517070	0.000000	-0.016262	0.000000	0.000008	0.000001	0.000000	0.000000
14.007621	12.253861	21.398407	-0.172829	0.081298	2.509243	0.000000	-0.016262	0.000000	0.000008	0.000001	0.000000	0.000000
14.304943	12.364062	21.354222	-0.167500	0.014949	2.504408	0.000000	-0.022403	0.000000	0.000008	0.000001	0.000000	0.000000
14.745903	12.670356	21.107311	-0.529740	0.542859	2.510161	0.000000	0.048524	0.000000	0.000009	0.000001	0.000000	0.000000
15.186863	13.305540	20.403981	-0.916183	1.046069	2.547282	0.000000	0.120003	0.000000	0.000009	0.000001	0.000000	0.000000
15.627823	14.298637	19.276232	-1.344483	1.501685	2.616194	0.000000	0.192849	0.000000	0.000010	0.000001	0.000000	0.000000
16.068783	15.695016	17.775375	-1.834209	1.888974	2.717681	0.000000	0.267891	0.000000	0.000011	0.000002	0.000000	0.000000
16.514743	17.582132	15.948197	-2.412493	2.191063	2.854593	0.000000	0.346447	0.000000	0.000011	0.000002	0.000000	0.000000
17.063803	20.005823	13.907959	-1.975630	1.546745	3.021081	0.000000	0.259108	0.000000	0.000012	0.000002	0.000000	0.000000
17.612863	21.869852	12.510972	-1.399218	1.012598	3.138279	0.000000	0.167173	0.000000	0.000013	0.000001	0.000000	0.000000
18.161923	23.042554	11.657732	-0.723973	0.550576	3.204111	0.000000	0.072273	0.000000	0.000014	0.000001	0.000000	0.000000
18.710983	23.441094	11.287465	0.002411	0.127771	3.217408	0.000000	-0.023909	0.000000	0.000014	0.000000	0.000000	0.000000
19.009556	23.480040	11.201651	-0.071611	0.130153	3.212779	0.000000	-0.015504	0.000000	0.000014	0.000000	0.000000	0.000000
19.342889	23.532537	11.124970	-0.085880	0.099892	3.207611	0.000000	-0.015504	0.000000	0.000014	0.000000	0.000000	0.000000
19.676223	23.594547	11.068462	-0.100149	0.069630	3.202443	0.000000	-0.015504	0.000000	0.000014	0.000000	0.000000	0.000000
20.010806	23.666648	11.031895	-0.231730	0.093914	3.197275	0.000000	0.000338	0.000000	0.000014	0.000000	0.000000	0.000000
20.308129	23.808381	10.984133	-0.307167	0.095421	3.197375	0.000000	0.008691	0.000000	0.000015	0.000000	0.000000	0.000000
20.857189	23.735052	11.101562	0.439930	-0.310556	3.175925	0.000000	-0.086710	0.000000	0.000015	-0.000000	0.000000	0.000000
21.406249	22.853599	11.674261	1.155952	-0.738654	3.102440	0.000000	-0.180573	0.000000	0.000014	-0.000000	0.000000	0.000000
21.955309	21.226284	12.743022	1.790323	-1.219364	2.978223	0.000000	-0.271233	0.000000	0.000014	-0.000001	0.000000	0.000000
22.504369	18.968052	14.383970	2.298235	-1.786927	2.805478	0.000000	-0.357082	0.000000	0.000013	-0.000001	0.000000	0.000000
22.950329	17.188372	15.857219	1.706522	-1.502680	2.663529	0.000000	-0.279866	0.000000	0.000013	-0.000001	0.000000	0.000000
23.391289	15.912666	17.031820	1.197472	-1.150918	2.556443	0.000000	-0.206292	0.000000	0.000012	-0.000001	0.000000	0.000000
23.832249	15.060172	17.871829	0.743131	-0.746789	2.481253	0.000000	-0.135067	0.000000	0.000012	-0.000000	0.000000	0.000000
24.273209	14.591940	18.339028	0.322742	-0.308682	2.437100	0.000000	-0.065380	0.000000	0.000012	-0.000000	0.000000	0.000000
24.715418	14.486699	18.411913	-0.047467	0.098254	2.423480	0.000000	-0.002381	0.000000	0.000012	0.000000	0.000000	0.000000
25.012741	14.521041	18.358334	-0.068037	0.081950	2.422772	0.000000	-0.002381	0.000000	0.000012	0.000000	0.000000	0.000000
25.346075	14.574086	18.309794	-0.091098	0.063671	2.421978	0.000000	-0.002381	0.000000	0.000012	0.000000	0.000000	0.000000
25.679408	14.642505	18.273440	-0.114160	0.045392	2.421185	0.000000	-0.002381	0.000000	0.000012	0.000000	0.000000	0.000000
26.013991	14.726344	18.249574	-0.017838	-0.121005	2.420363	0.000000	-0.022017	0.000000	0.000012	0.000000	0.000000	0.000000
26.311314	14.742956	18.326444	-0.001885	-0.182473	2.413817	0.000000	-0.027935	0.000000	0.000012	0.000000	0.000000	0.000000
26.752274	14.926261	18.288610	-0.415387	0.267947	2.416611	0.000000	0.040618	0.000000	0.000012	0.000000	0.000000	0.000000
27.193234	15.481200	17.857420	-0.847868	0.706175	2.449706	0.000000	0.109633	0.000000	0.000013	0.000001	0.000000	0.000000
27.634194	16.433129	17.052495	-1.319085	1.112272	2.513481	0.000000	0.179897	0.000000	0.000013	0.000001	0.000000	0.000000
28.075154	17.825537	15.910457	-1.850567	1.467762	2.608661	0.000000	0.252211	0.000000	0.000014	0.000001	0.000000	0.000000
28.521114	19.746231	14.466065	-2.471562	1.757383	2.737934	0.000000	0.327840	0.000000	0.000014	0.000002	0.000000	0.000000
29.070174	22.187444	12.856709	-1.948285	1.191030	2.895270	0.000000	0.244429	0.000000	0.000015	0.000001	0.000000	0.000000
29.619234	23.974604	11.819321	-1.287390	0.709512	3.005549	0.000000	0.156682	0.000000	0.000016	0.000001	0.000000	0.000000
30.168294	24.981474	11.280010	-0.535561	0.278530	3.066815	0.000000	0.066157	0.000000	0.000016	0.000000	0.000000	0.000000
30.717354	25.136934	11.200362	0.254098	-0.132612	3.077981	0.000000	-0.025542	0.000000	0.000016	-0.000000	0.000000	0.000000
31.015927	25.028087	11.270122	0.176129	-0.130293	3.072756	0.000000	-0.017501	0.000000	0.000016	-0.000000	0.000000	0.000000
31.349260	24.915245	11.367010	0.162398	-0.160372	3.066922	0.000000	-0.017501	0.000000	0.000016	-0.000000	0.000000	0.000000
31.682593	24.811557	11.483951	0.148666	-0.190451	3.061089	0.000000	-0.017501	0.000000	0.000016	-0.000000	0.000000	0.000000
32.017177	24.716686	11.621496	0.134883	-0.220643	3.055233	0.000000	-0.017501	0.000000	0.000016	-0.000000	0.000000	0.000000
32.314499	24.640120	11.760677	0.058263	-0.216748	3.050030	0.000000	-0.009533	0.000000	0.000016	-0.000000	0.000000	0.000000
32.863559	24.153985	12.237927	0.821890	-0.657595	3.019910	0.000000	-0.100019	0.000000	0.000015	-0.000001	0.000000	0.000000
33.412619	22.856368	13.222005	1.527463	-1.145281	2.940523	0.000000	-0.188731	0.000000	0.000015	-0.000001	0.000000	0.000000
33.961679	20.838924	14.783006	2.125143	-1.714543	2.813277	0.000000	-0.274096	0.000000	0.000014	-0.000002	0.000000	0.000000
34.510739	18.244158	17.032117	2.572714	-2.405928	2.640428	0.000000	-0.354599	0.000000	0.000013	-0.000002	0.000000	0.000000
34.956699	16.226640	19.043854	1.967483	-2.086262	2.498635	0.000000	-0.281662	0.000000	0.000012	-0.000002	0.000000	0.000000
35.397659	14.722219	20.707613	1.457153	-1.672418	2.389817	0.000000	-0.212361	0.000000	0.000011	-0.000001	0.000000	0.000000
35.838619	13.636922	21.971319	1.013397	-1.182481	2.310996	0.000000	-0.145479	0.000000	0.000011	-0.000001	0.000000	0.000000
36.279579	12.921165	22.777472	0.615940	-0.638741	2.261275	0.000000	-0.080253	0.000000	0.000010	-0.000001	0.000000	0.000000
36.721789	12.541553	23.089701	0.277270	-0.122610	2.240059	0.000000	-0.021435	0.000000	0.000010	-0.000001	0.000000	0.000000
37.019112	12.384266	23.166497	0.251741	-0.135681	2.233686	0.000000	-0.021435	0.000000	0.000010	-0.000001	0.000000	0.000000
37.352445	12.225979	23.261836	0.223119	-0.150334	2.226542	0.000000	-0.021435	0.000000	0.000010	-0.000001	0.000000	0.000000
37.685779	12.086773	23.366943	0.194498	-0.164988	2.219397	0.000000	-0.021435	0.000000	0.000009	-0.000001	0.000000	0.000000
38.020362	11.966234	23.482269	0.165769	-0.179696	2.212226	0.000000	-0.021435	0.000000	0.000009	-0.000001	0.000000	0.000000
38.317684	11.875251	23.593010	0.169358	-0.250619	2.205853	0.000000	-0.026844	0.000000	0.000009	-0.000001	0.000000	0.000000
38.758644	11.877300	23.552717	-0.174022	0.341648	2.207945	0.000000	0.036339	0.000000	0.000009	-0.000000	0.000000	0.000000
39.199604	12.184531	22.994977	-0.525353	0.918370	2.237962	0.000000	0.099936	0.000000	0.000009	-0.000000	0.000000	0.000000
39.640564	12.810980	21.945167	-0.900685	1.453307	2.296247	0.000000	0.164671	0.000000	0.000009	-0.000000	0.000000	0.000000
40.081524	13.785268	20.451053	-1.317168	1.922120	2.383463	0.000000	0.231281	0.000000	0.000009	0.000000	0.000000	0.000000
40.527484	15.169482	18.558045	-1.797654	2.304761	2.502076	0.000000	0.300931	0.000000	0.000009	0.000000	0.000000	0.000000
41.076544	16.935933	16.430790	-1.400529	1.592465	2.646774	0.000000	0.225366	0.000000	0.000009	0.000000	0.000000	0.000000
41.625604	18.209056	15.019218	-0.904477	0.993598	2.748822	0.000000	0.145805	0.000000	0.000009	-0.000000	0.000000	0.000000
42.174664	18.898924	14.222786	-0.344537	0.465502	2.806410	0.000000	0.063657	0.000000	0.000009	-0.000000	0.000000	0.000000
42.723724	18.956807	13.984764	0.239739	-0.029436	2.818518	0.000000	-0.019620	0.000000	0.000008	-0.000001	0.000000	0.000000
43.022297	18.848096	13.986899	0.173892	-0.014250	2.814859	0.000000	-0.012256	0.000000	0.000008	-0.000001	0.000000	0.000000
43.502297	18.693753	14.017055	0.147655	-0.048575	2.808976	0.000000	-0.012256	0.000000	0.000008	-0.000001	0.000000	0.000000
43.982297	18.564598	14.080163	0.121418	-0.082900	2.803094	0.000000	-0.012256	0.000000	0.000008	-0.000001	0.000000	0.000000
44.462297	18.460631	14.176222	0.095181	-0.117225	2.797211	0.000000	-0.012256	0.000000	0.000007	-0.000001	0.000000	0.000000
44.942297	18.381851	14.305234	0.068944	-0.151549	2.791329	0.000000	-0.012256	0.000000	0.000007	-0.000001	0.000000	0.000000
45.423547	18.328378	14.467482	-0.048170	-0.114283	2.785449	0.000000	0.001545	0.000000	0.000007	-0.000001	0.000000	0.000000
45.720870	18.361857	14.541630	-0.112403	-0.097110	2.785908	0.000000	0.008824	0.000000	0.000006	-0.000001	0.000000	0.000000
46.269930	18.176111	14.929523	0.448699	-0.613527	2.768180	0.000000	-0.073306	0.000000	0.000006	-0.000001	0.000000	0.000000
46.818990	17.388044	15.905028	0.978106	-1.173644	2.705649	0.000000	-0.154134	0.000000	0.000006	-0.000001	0.000000	0.000000
47.368050	16.053321	17.537630	1.438426	-1.817357	2.599425	0.000000	-0.232229	0.000000	0.000005	-0.000001	0.000000	0.000000
47.917110	14.266221	19.943615	1.797142	-2.590516	2.451391	0.000000	-0.306205	0.000000	0.000004	-0.000001	0.000000	0.000000
48.363070	12.875499	22.082753	1.332398	-2.186020	2.330129	0.000000	-0.237905	0.000000	0.000004	-0.000001	0.000000	0.000000
48.804030	11.880633	23.795501	0.932297	-1.683335	2.239683	0.000000	-0.172711	0.000000	0.000003	-0.000001	0.000000	0.000000
49.244990	11.218580	25.029326	0.574790	-1.104060	2.177524	0.000000	-0.109485	0.000000	0.000003	-0.000001	0.000000	0.000000
49.685950	10.859091	25.728089	0.243543	-0.474550	2.142945	0.000000	-0.047505	0.000000	0.000002	-0.000001	0.000000	0.000000
50.128160	10.785869	25.859714	-0.050243	0.113087	2.135561	0.000000	0.008697	0.000000	0.000002	-0.000001	0.000000	0.000000
50.425482	10.823963	25.795930	-0.077879	0.101442	2.138147	0.000000	0.008697	0.000000	0.000001	-0.000001	0.000000	0.000000
50.758816	10.886210	25.732653	-0.108862	0.088387	2.141047	0.000000	0.008697	0.000000	0.000001	-0.000001	0.000000	0.000000
51.092149	10.969112	25.678080	-0.139844	0.075332	2.143946	0.000000	0.008697	0.000000	0.000001	-0.000001	0.000000	0.000000
51.426732	11.072872	25.632574	-0.081113	-0.145715	2.146834	0.000000	-0.008720	0.000000	0.000001	-0.000001	0.000000	0.000000
51.724055	11.129141	25.722745	-0.080849	-0.220641	2.144242	0.000000	-0.013978	0.000000	0.000000	-0.000001	0.000000	0.000000
52.165015	11.345752	25.631160	-0.412242	0.427545	2.151667	0.000000	0.047685	0.000000	-0.000000	-0.000001	0.000000	0.000000
52.605975	11.861795	24.974354	-0.762469	1.056278	2.186377	0.000000	0.109892	0.000000	-0.000001	-0.000001	0.000000	0.000000
53.046935	12.700845	23.782211	-1.147530	1.636951	2.248767	0.000000	0.173349	0.000000	-0.000001	-0.000001	0.000000	0.000000
53.487895	13.901236	22.108973	-1.585020	2.143144	2.339548	0.000000	0.238782	0.000000	-0.000002	-0.000001	0.000000	0.000000
53.933855	15.538388	20.005753	-2.099154	2.553163	2.461258	0.000000	0.307332	0.000000	-0.000002	-0.000001	0.000000	0.000000
54.482915	17.646172	17.639101	-1.717018	1.782649	2.609822	0.000000	0.233028	0.000000	-0.000003	-0.000001	0.000000	0.000000
55.031975	19.264839	16.044295	-1.213600	1.139109	2.716392	0.000000	0.154591	0.000000	-0.000003	-0.000001	0.000000	0.000000
55.581035	20.280053	15.107738	-0.624460	0.576705	2.779078	0.000000	0.073411	0.000000	-0.000004	-0.000001	0.000000	0.000000
56.130095	20.620106	14.762722	0.008789	0.055379	2.796768	0.000000	-0.009071	0.000000	-0.000004	-0.000001	0.000000	0.000000
56.428668	20.651363	14.712711	-0.059598	0.073549	2.796242	0.000000	-0.001763	0.000000	-0.000004	-0.000001	0.000000	0.000000
56.762001	20.696495	14.671271	-0.075797	0.050771	2.795655	0.000000	-0.001763	0.000000	-0.000004	-0.000001	0.000000	0.000000
57.095334	20.752426	14.645016	-0.091995	0.027992	2.795067	0.000000	-0.001763	0.000000	-0.000005	-0.000001	0.000000	0.000000
57.429918	20.819426	14.633935	-0.108254	0.005128	2.794478	0.000000	-0.001763	0.000000	-0.000005	-0.000001	0.000000	0.000000
57.727240	20.888094	14.636927	-0.177282	0.023055	2.793954	0.000000	0.005538	0.000000	-0.000005	-0.000001	0.000000	0.000000
58.276300	20.726412	14.892678	0.470009	-0.491602	2.774355	0.000000	-0.076822	0.000000	-0.000005	-0.000001	0.000000	0.000000
58.825360	19.868031	15.729380	1.084101	-1.041275	2.709845	0.000000	-0.157819	0.000000	-0.000006	-0.000000	0.000000	0.000000
59.374420	18.373583	17.206632	1.621617	-1.665116	2.601566	0.000000	-0.236016	0.000000	-0.000006	-0.000000	0.000000	0.000000
59.923480	16.348628	19.429653	2.044591	-2.407559	2.451439	0.000000	-0.310028	0.000000	-0.000006	0.000000	0.000000	0.000000
60.369440	14.763705	21.405499	1.521953	-2.004286	2.328469	0.000000	-0.241748	0.000000	-0.000006	-0.000000	0.000000	0.000000
60.810400	13.623736	22.961607	1.073054	-1.511194	2.236315	0.000000	-0.176619	0.000000	-0.000006	-0.000000	0.000000	0.000000
61.251360	12.856627	24.050750	0.673179	-0.949344	2.172410	0.000000	-0.113502	0.000000	-0.000006	-0.000000	0.000000	0.000000
61.692320	12.427332	24.623374	0.304060	-0.344299	2.136026	0.000000	-0.051678	0.000000	-0.000006	-0.000001	0.000000	0.000000
62.134530	12.316291	24.652884	-0.021064	0.215897	2.126754	0.000000	0.004343	0.000000	-0.000007	-0.000001	0.000000	0.000000
62.431853	12.335997	24.528255	-0.045215	0.203274	2.128045	0.000000	0.004343	0.000000	-0.000007	-0.000001	0.000000	0.000000
62.765186	12.375166	24.397456	-0.072292	0.189123	2.129493	0.000000	0.004343	0.000000	-0.000007	-0.000001	0.000000	0.000000
63.098520	12.432386	24.276091	-0.099368	0.174972	2.130941	0.000000	0.004343	0.000000	-0.000007	-0.000001	0.000000	0.000000
63.433103	12.507974	24.163758	-0.126546	0.160767	2.132394	0.000000	0.004343	0.000000	-0.000008	-0.000001	0.000000	0.000000
63.730426	12.590404	24.071912	-0.119820	0.089109	2.133686	0.000000	-0.000890	0.000000	-0.000008	-0.000001	0.000000	0.000000
64.171386	12.856409	23.728219	-0.485708	0.687343	2.146833	0.000000	0.060575	0.000000	-0.000008	-0.000001	0.000000	0.000000
64.612346	13.453626	22.868760	-0.873787	1.254304	2.187210	0.000000	0.122729	0.000000	-0.000009	-0.000001	0.000000	0.000000
65.053306	14.409341	21.532639	-1.301787	1.764195	2.255276	0.000000	0.186282	0.000000	-0.000009	-0.000001	0.000000	0.000000
65.494266	15.767218	19.780648	-1.789262	2.193816	2.351808	0.000000	0.251956	0.000000	-0.000010	-0.000002	0.000000	0.000000
65.940226	17.612457	17.667709	-2.363174	2.524375	2.479475	0.000000	0.320901	0.000000	-0.000011	-0.000002	0.000000	0.000000
66.489286	19.977885	15.303984	-1.919466	1.806076	2.635307	0.000000	0.245889	0.000000	-0.000012	-0.000002	0.000000	0.000000
67.038346	21.778281	13.654191	-1.340176	1.216420	2.748692	0.000000	0.166516	0.000000	-0.000012	-0.000001	0.000000	0.000000
67.587406	22.886474	12.600819	-0.666223	0.713406	2.817620	0.000000	0.084189	0.000000	-0.000013	-0.000001	0.000000	0.000000
68.136466	23.224187	12.068838	0.054789	0.261207	2.840867	0.000000	0.000368	0.000000	-0.000013	-0.000000	0.000000	0.000000
68.435038	23.231548	11.902046	-0.018755	0.265885	2.843194	0.000000	0.007792	0.000000	-0.000013	-0.000000	0.000000	0.000000
68.768372	23.248835	11.734785	-0.033108	0.235899	2.845791	0.000000	0.007792	0.000000	-0.000013	-0.000000	0.000000	0.000000
69.101705	23.275692	11.587514	-0.047462	0.205913	2.848389	0.000000	0.007792	0.000000	-0.000014	-0.000000	0.000000	0.000000
69.436288	23.312272	11.459795	-0.061869	0.175814	2.850996	0.000000	0.007792	0.000000	-0.000014	-0.000000	0.000000	0.000000
69.733611	23.352869	11.363200	-0.135695	0.178761	2.853312	0.000000	0.015248	0.000000	-0.000014	-0.000000	0.000000	0.000000
70.282671	23.100806	11.394460	0.592059	-0.236029	2.838503	0.000000	-0.069113	0.000000	-0.000014	0.000000	0.000000	0.000000
