#ParticleID	Turn	x[m]	xp	y[m]	yp	z[m]	dE[GeV]# s	beta_x	beta_y	alpha_x	alpha_y	D_x	D_y	D_px	D_py	orbit_x	orbit_px	orbit_y	orbit_py
0.300000	11.804290	25.055399	-0.010168	-0.026812	2.618307	0.000000	-0.000063	0.000000	-0.000001	0.000002	0.000000	0.000000
0.601250	11.818105	25.075178	-0.035691	-0.038844	2.618288	0.000000	-0.000063	0.000000	-0.000001	0.000002	0.000000	0.000000
0.898573	11.846819	25.101807	-0.031830	-0.112276	2.618269	0.000000	-0.006484	0.000000	-0.000000	0.000002	0.000000	0.000000
1.339533	12.026907	24.922359	-0.378121	0.517676	2.631703	0.000000	0.067477	0.000000	0.000000	0.000002	0.000000	0.000000
1.780493	12.518832	24.195648	-0.741687	1.124074	2.677890	0.000000	0.142207	0.000000	0.000001	0.000002	0.000000	0.000000
2.221453	13.345067	22.954738	-1.139140	1.679328	2.757354	0.000000	0.218556	0.000000	0.000002	0.000002	0.000000	0.000000
2.662413	14.543362	21.256089	-1.588636	2.158173	2.871002	0.000000	0.297394	0.000000	0.000003	0.000002	0.000000	0.000000
3.108373	16.189180	19.152081	-2.114998	2.539957	3.021988	0.000000	0.380109	0.000000	0.000003	0.000002	0.000000	0.000000
3.657433	18.299710	16.788917	-1.706144	1.789467	3.205418	0.000000	0.287072	0.000000	0.000004	0.000002	0.000000	0.000000
4.206493	19.892033	15.175473	-1.176776	1.166436	3.336290	0.000000	0.188942	0.000000	0.000005	0.000002	0.000000	0.000000
4.755553	20.853675	14.196827	-0.564287	0.626488	3.412282	0.000000	0.087462	0.000000	0.000006	0.000001	0.000000	0.000000
5.304613	21.116710	13.783273	0.088060	0.131163	3.432047	0.000000	-0.015570	0.000000	0.000007	0.000001	0.000000	0.000000
5.603185	21.101296	13.690094	0.018735	0.144906	3.430075	0.000000	-0.006603	0.000000	0.000007	0.000001	0.000000	0.000000
5.936519	21.094074	13.601777	0.002932	0.120046	3.427874	0.000000	-0.006603	0.000000	0.000008	0.000001	0.000000	0.000000
6.269852	21.097386	13.530032	-0.012870	0.095187	3.425672	0.000000	-0.006603	0.000000	0.000008	0.000001	0.000000	0.000000
6.604435	21.111306	13.474685	-0.028732	0.070234	3.423463	0.000000	-0.006603	0.000000	0.000008	0.000001	0.000000	0.000000
6.901758	21.132582	13.439514	-0.098038	0.083172	3.421499	0.000000	0.002336	0.000000	0.000009	0.000001	0.000000	0.000000
7.450818	20.880111	13.609136	0.555141	-0.393928	3.394582	0.000000	-0.100238	0.000000	0.000009	0.000001	0.000000	0.000000
7.999878	19.927758	14.314914	1.169108	-0.899088	3.311751	0.000000	-0.201034	0.000000	0.000010	0.000001	0.000000	0.000000
8.548938	18.342791	15.607117	1.700494	-1.468287	3.174476	0.000000	-0.298265	0.000000	0.000010	0.000000	0.000000	0.000000
9.097998	16.237167	17.577787	2.111767	-2.142069	2.985192	0.000000	-0.390205	0.000000	0.000010	-0.000000	0.000000	0.000000
9.543958	14.594441	19.333723	1.584901	-1.778718	2.829481	0.000000	-0.308506	0.000000	0.000010	0.000000	0.000000	0.000000
9.984918	13.399725	20.712292	1.134729	-1.335673	2.710687	0.000000	-0.230804	0.000000	0.000010	0.000001	0.000000	0.000000
10.425878	12.577750	21.671737	0.736400	-0.831856	2.625544	0.000000	-0.155731	0.000000	0.000011	0.000001	0.000000	0.000000
10.866838	12.090963	22.168405	0.371714	-0.290190	2.573083	0.000000	-0.082432	0.000000	0.000011	0.000001	0.000000	0.000000
11.309048	11.916991	22.179172	0.053127	0.210234	2.552686	0.000000	-0.016331	0.000000	0.000012	0.000001	0.000000	0.000000
11.606371	11.892839	22.058319	0.028107	0.196236	2.547830	0.000000	-0.016331	0.000000	0.000012	0.000001	0.000000	0.000000
12.086371	11.885244	21.880779	-0.012285	0.173638	2.539991	0.000000	-0.016331	0.000000	0.000013	0.000001	0.000000	0.000000
12.566371	11.916427	21.724934	-0.052678	0.151039	2.532151	0.000000	-0.016331	0.000000	0.000013	0.000001	0.000000	0.000000
13.046371	11.986385	21.590783	-0.093070	0.128441	2.524311	0.000000	-0.016331	0.000000	0.000014	0.000001	0.000000	0.000000
13.526371	12.095121	21.478327	-0.133462	0.105842	2.516471	0.000000	-0.016331	0.000000	0.000015	0.000001	0.000000	0.000000
14.007621	12.243068	21.387358	-0.173960	0.083185	2.508611	0.000000	-0.016331	0.000000	0.000015	0.000001	0.000000	0.000000
14.304943	12.353951	21.342054	-0.168689	0.016858	2.503755	0.000000	-0.022470	0.000000	0.000016	0.000001	0.000000	0.000000
14.745903	12.661205	21.093617	-0.530738	0.544399	2.509475	0.000000	0.048439	0.000000	0.000016	0.000002	0.000000	0.000000
15.186863	13.297202	20.389117	-0.917035	1.047171	2.546554	0.000000	0.119900	0.000000	0.000017	0.000002	0.000000	0.000000
15.627823	14.291001	19.260609	-1.345229	1.502297	2.615415	0.000000	0.192726	0.000000	0.000018	0.000003	0.000000	0.000000
16.068783	15.688004	17.759439	-1.834883	1.889069	2.716843	0.000000	0.267748	0.000000	0.000019	0.000003	0.000000	0.000000
16.514743	17.575700	15.932411	-2.413126	2.190633	2.853686	0.000000	0.346281	0.000000	0.000021	0.000004	0.000000	0.000000
17.063803	20.000286	13.892443	-1.976617	1.546680	3.020090	0.000000	0.258973	0.000000	0.000023	0.000003	0.000000	0.000000
17.612863	21.865564	12.495330	-1.400490	1.012893	3.137223	0.000000	0.167071	0.000000	0.000024	0.000002	0.000000	0.000000
18.161923	23.039778	11.641559	-0.725439	0.551253	3.203008	0.000000	0.072206	0.000000	0.000025	0.000001	0.000000	0.000000
18.710983	23.439989	11.270317	0.000853	0.128878	3.216277	0.000000	-0.023940	0.000000	0.000025	0.000001	0.000000	0.000000
19.009556	23.479860	11.183886	-0.073162	0.131163	3.211638	0.000000	-0.015538	0.000000	0.000026	0.000001	0.000000	0.000000
19.342889	23.533392	11.106550	-0.087435	0.100845	3.206458	0.000000	-0.015538	0.000000	0.000026	0.000001	0.000000	0.000000
19.676223	23.596439	11.049426	-0.101707	0.070527	3.201278	0.000000	-0.015538	0.000000	0.000026	0.000001	0.000000	0.000000
20.010806	23.669585	11.012277	-0.233305	0.094658	3.196099	0.000000	0.000297	0.000000	0.000026	0.000001	0.000000	0.000000
20.308129	23.812257	10.964089	-0.308754	0.096058	3.196187	0.000000	0.008646	0.000000	0.000026	0.000001	0.000000	0.000000
20.857189	23.740592	11.080508	0.438505	-0.309343	3.174723	0.000000	-0.086716	0.000000	0.000027	-0.000000	0.000000	0.000000
21.406249	22.860568	11.651520	1.154789	-0.736777	3.101245	0.000000	-0.180540	0.000000	0.000026	-0.000001	0.000000	0.000000
21.955309	21.234346	12.717796	1.789505	-1.216690	2.977058	0.000000	-0.271162	0.000000	0.000026	-0.000002	0.000000	0.000000
22.504369	18.976795	14.355286	2.297819	-1.783265	2.804362	0.000000	-0.356974	0.000000	0.000024	-0.000003	0.000000	0.000000
22.950329	17.197539	15.825560	1.705981	-1.499699	2.662456	0.000000	-0.279786	0.000000	0.000023	-0.000002	0.000000	0.000000
23.391289	15.922374	16.997882	1.196782	-1.148750	2.555400	0.000000	-0.206239	0.000000	0.000023	-0.000001	0.000000	0.000000
23.832249	15.070564	17.836376	0.742261	-0.745534	2.480226	0.000000	-0.135041	0.000000	0.000022	-0.000001	0.000000	0.000000
24.273209	14.603194	18.302893	0.321651	-0.308397	2.436079	0.000000	-0.065381	0.000000	0.000022	-0.000000	0.000000	0.000000
24.715418	14.499033	18.375961	-0.048801	0.097649	2.422453	0.000000	-0.002405	0.000000	0.000022	0.000000	0.000000	0.000000
25.012741	14.534164	18.322751	-0.069356	0.081315	2.421738	0.000000	-0.002405	0.000000	0.000022	0.000000	0.000000	0.000000
25.346075	14.588083	18.274645	-0.092401	0.063003	2.420937	0.000000	-0.002405	0.000000	0.000022	0.000000	0.000000	0.000000
25.679408	14.657366	18.238747	-0.115446	0.044690	2.420135	0.000000	-0.002405	0.000000	0.000022	0.000000	0.000000	0.000000
26.013991	14.742059	18.215362	-0.018980	-0.121463	2.419306	0.000000	-0.022032	0.000000	0.000022	0.000000	0.000000	0.000000
26.311314	14.759344	18.292514	-0.002969	-0.182876	2.412755	0.000000	-0.027947	0.000000	0.000022	0.000000	0.000000	0.000000
26.752274	14.943785	18.255440	-0.416889	0.266631	2.415537	0.000000	0.040578	0.000000	0.000022	0.000001	0.000000	0.000000
27.193234	15.500258	17.825792	-0.849856	0.704007	2.448609	0.000000	0.109566	0.000000	0.000023	0.000001	0.000000	0.000000
27.634194	16.454188	17.023119	-1.321651	1.109351	2.512347	0.000000	0.179801	0.000000	0.000024	0.000002	0.000000	0.000000
28.075154	17.849155	15.883941	-1.853827	1.464221	2.607478	0.000000	0.252085	0.000000	0.000024	0.000002	0.000000	0.000000
28.521114	19.773125	14.442928	-2.475673	1.753381	2.736687	0.000000	0.327682	0.000000	0.000026	0.000003	0.000000	0.000000
29.070174	22.218486	12.837448	-1.951683	1.187929	2.893947	0.000000	0.244313	0.000000	0.000027	0.000002	0.000000	0.000000
29.619234	24.008874	11.803074	-1.289835	0.707091	3.004174	0.000000	0.156610	0.000000	0.000028	0.000001	0.000000	0.000000
30.168294	25.017824	11.266128	-0.536880	0.276618	3.065412	0.000000	0.066130	0.000000	0.000029	0.000000	0.000000	0.000000
30.717354	25.174068	11.188365	0.253998	-0.134153	3.076576	0.000000	-0.025524	0.000000	0.000029	-0.000001	0.000000	0.000000
31.015927	25.065329	11.259077	0.175958	-0.131906	3.071355	0.000000	-0.017487	0.000000	0.000028	-0.000000	0.000000	0.000000
31.349260	24.952594	11.357055	0.162248	-0.162027	3.065526	0.000000	-0.017487	0.000000	0.000028	-0.000000	0.000000	0.000000
31.682593	24.848999	11.475113	0.148537	-0.192148	3.059697	0.000000	-0.017487	0.000000	0.000028	-0.000000	0.000000	0.000000
32.017177	24.754207	11.613808	0.134775	-0.222382	3.053846	0.000000	-0.017487	0.000000	0.000028	-0.000000	0.000000	0.000000
32.314499	24.677699	11.754035	0.058083	-0.218545	3.048647	0.000000	-0.009524	0.000000	0.000028	-0.000000	0.000000	0.000000
32.863559	24.191077	12.233199	0.822952	-0.659304	3.018545	0.000000	-0.099965	0.000000	0.000027	-0.000001	0.000000	0.000000
33.412619	22.891641	13.219162	1.529692	-1.147025	2.939200	0.000000	-0.188634	0.000000	0.000026	-0.000002	0.000000	0.000000
33.961679	20.871177	14.782154	2.128382	-1.716445	2.812019	0.000000	-0.273957	0.000000	0.000025	-0.000003	0.000000	0.000000
34.510739	18.272401	17.033502	2.576733	-2.408125	2.639258	0.000000	-0.354421	0.000000	0.000023	-0.000004	0.000000	0.000000
34.956699	16.251695	19.047283	1.970638	-2.088632	2.497539	0.000000	-0.281513	0.000000	0.000022	-0.000003	0.000000	0.000000
35.397659	14.744815	20.713168	1.459595	-1.674851	2.388781	0.000000	-0.212239	0.000000	0.000020	-0.000003	0.000000	0.000000
35.838619	13.657637	21.979006	1.015236	-1.184865	2.310008	0.000000	-0.145383	0.000000	0.000019	-0.000002	0.000000	0.000000
36.279579	12.940491	22.787202	0.617261	-0.640970	2.260323	0.000000	-0.080183	0.000000	0.000019	-0.000002	0.000000	0.000000
36.721789	12.559917	23.101295	0.278177	-0.124606	2.239134	0.000000	-0.021386	0.000000	0.000018	-0.000001	0.000000	0.000000
37.019112	12.402083	23.179277	0.252673	-0.137676	2.232776	0.000000	-0.021386	0.000000	0.000018	-0.000001	0.000000	0.000000
37.352445	12.243166	23.275945	0.224080	-0.152329	2.225648	0.000000	-0.021386	0.000000	0.000017	-0.000001	0.000000	0.000000
37.685779	12.103311	23.382383	0.195487	-0.166982	2.218520	0.000000	-0.021386	0.000000	0.000017	-0.000001	0.000000	0.000000
38.020362	11.982100	23.499043	0.166786	-0.181691	2.211365	0.000000	-0.021386	0.000000	0.000016	-0.000001	0.000000	0.000000
38.317684	11.890505	23.610970	0.170437	-0.252653	2.205007	0.000000	-0.026792	0.000000	0.000016	-0.000001	0.000000	0.000000
38.758644	11.891753	23.572255	-0.173280	0.340117	2.207116	0.000000	0.036369	0.000000	0.000016	-0.000001	0.000000	0.000000
39.199604	12.198465	23.015616	-0.524913	0.917413	2.237142	0.000000	0.099944	0.000000	0.000015	-0.000000	0.000000	0.000000
39.640564	12.824652	21.966380	-0.900528	1.452967	2.295427	0.000000	0.164658	0.000000	0.000015	-0.000000	0.000000	0.000000
40.081524	13.798923	20.472287	-1.317285	1.922412	2.382633	0.000000	0.231247	0.000000	0.000015	0.000000	0.000000	0.000000
40.527484	15.183367	18.578736	-1.798054	2.305676	2.501226	0.000000	0.300875	0.000000	0.000015	0.000001	0.000000	0.000000
41.076544	16.949959	16.450787	-1.400383	1.592823	2.645900	0.000000	0.225339	0.000000	0.000016	0.000000	0.000000	0.000000
41.625604	18.222626	15.039115	-0.903797	0.993423	2.747940	0.000000	0.145806	0.000000	0.000016	-0.000000	0.000000	0.000000
42.174664	18.911474	14.243171	-0.343370	0.464782	2.805537	0.000000	0.063686	0.000000	0.000015	-0.000001	0.000000	0.000000
42.723724	18.967844	14.006262	0.241310	-0.030753	2.817669	0.000000	-0.019563	0.000000	0.000015	-0.000001	0.000000	0.000000
43.022297	18.858210	14.009140	0.175437	-0.015480	2.814026	0.000000	-0.012201	0.000000	0.000014	-0.000001	0.000000	0.000000
43.502297	18.702384	14.040451	0.149201	-0.049751	2.808170	0.000000	-0.012201	0.000000	0.000014	-0.000001	0.000000	0.000000
43.982297	18.571745	14.104663	0.122964	-0.084023	2.802314	0.000000	-0.012201	0.000000	0.000013	-0.000001	0.000000	0.000000
44.462297	18.466293	14.201775	0.096728	-0.118294	2.796458	0.000000	-0.012201	0.000000	0.000013	-0.000001	0.000000	0.000000
44.942297	18.386028	14.331788	0.070491	-0.152566	2.790602	0.000000	-0.012201	0.000000	0.000012	-0.000001	0.000000	0.000000
45.423547	18.331066	14.494989	-0.046636	-0.115110	2.784747	0.000000	0.001596	0.000000	0.000011	-0.000001	0.000000	0.000000
45.720870	18.363631	14.569618	-0.110867	-0.097830	2.785222	0.000000	0.008872	0.000000	0.000011	-0.000001	0.000000	0.000000
46.269930	18.176179	14.958771	0.450250	-0.615116	2.767527	0.000000	-0.073235	0.000000	0.000010	-0.000001	0.000000	0.000000
46.818990	17.386450	15.936549	0.979564	-1.176217	2.705042	0.000000	-0.154044	0.000000	0.000009	-0.000002	0.000000	0.000000
47.368050	16.050226	17.572597	1.439686	-1.821096	2.598873	0.000000	-0.232120	0.000000	0.000008	-0.000002	0.000000	0.000000
47.917110	14.261892	19.983447	1.798116	-2.595689	2.450905	0.000000	-0.306079	0.000000	0.000007	-0.000002	0.000000	0.000000
48.363070	12.870310	22.126815	1.333357	-2.190296	2.329696	0.000000	-0.237790	0.000000	0.000006	-0.000002	0.000000	0.000000
48.804030	11.874588	23.842868	0.933286	-1.686523	2.239299	0.000000	-0.172607	0.000000	0.000005	-0.000002	0.000000	0.000000
49.244990	11.211633	25.078970	0.575854	-1.106015	2.177184	0.000000	-0.109390	0.000000	0.000004	-0.000002	0.000000	0.000000
49.685950	10.851154	25.778879	0.244731	-0.475184	2.142645	0.000000	-0.047418	0.000000	0.000004	-0.000002	0.000000	0.000000
50.128160	10.776807	25.910466	-0.048900	0.113680	2.135298	0.000000	0.008777	0.000000	0.000003	-0.000002	0.000000	0.000000
50.425482	10.814107	25.846323	-0.076555	0.102056	2.137908	0.000000	0.008777	0.000000	0.000002	-0.000002	0.000000	0.000000
50.758816	10.875479	25.782629	-0.107560	0.089025	2.140834	0.000000	0.008777	0.000000	0.000002	-0.000002	0.000000	0.000000
51.092149	10.957520	25.727622	-0.138564	0.075994	2.143761	0.000000	0.008777	0.000000	0.000001	-0.000002	0.000000	0.000000
51.426732	11.060431	25.681667	-0.079956	-0.145428	2.146676	0.000000	-0.008638	0.000000	0.000001	-0.000002	0.000000	0.000000
51.724055	11.116020	25.771659	-0.079749	-0.220450	2.144108	0.000000	-0.013896	0.000000	-0.000000	-0.000002	0.000000	0.000000
52.165015	11.331522	25.679336	-0.410816	0.429024	2.151569	0.000000	0.047764	0.000000	-0.000001	-0.000002	0.000000	0.000000
52.605975	11.846139	25.020680	-0.760652	1.058977	2.186313	0.000000	0.109968	0.000000	-0.000002	-0.000002	0.000000	0.000000
53.046935	12.683385	23.825662	-1.145240	1.640748	2.248737	0.000000	0.173425	0.000000	-0.000002	-0.000002	0.000000	0.000000
53.487895	13.881509	22.148653	-1.582150	2.147867	2.339551	0.000000	0.238856	0.000000	-0.000003	-0.000002	0.000000	0.000000
53.933855	15.515793	20.040884	-2.095569	2.558597	2.461295	0.000000	0.307408	0.000000	-0.000004	-0.000002	0.000000	0.000000
54.482915	17.619946	17.669041	-1.714031	1.786727	2.609901	0.000000	0.233102	0.000000	-0.000005	-0.000002	0.000000	0.000000
55.031975	19.235759	16.070364	-1.211422	1.142121	2.716511	0.000000	0.154661	0.000000	-0.000006	-0.000002	0.000000	0.000000
55.581035	20.249100	15.130985	-0.623245	0.578865	2.779235	0.000000	0.073477	0.000000	-0.000007	-0.000001	0.000000	0.000000
56.130095	20.588389	14.783992	0.008955	0.056841	2.796959	0.000000	-0.009010	0.000000	-0.000008	-0.000001	0.000000	0.000000
56.428668	20.619505	14.733066	-0.059373	0.075092	2.796452	0.000000	-0.001702	0.000000	-0.000008	-0.000001	0.000000	0.000000
56.762001	20.664495	14.690589	-0.075596	0.052340	2.795885	0.000000	-0.001702	0.000000	-0.000008	-0.000001	0.000000	0.000000
57.095334	20.720300	14.663280	-0.091819	0.029587	2.795318	0.000000	-0.001702	0.000000	-0.000009	-0.000001	0.000000	0.000000
57.429918	20.787190	14.651122	-0.108103	0.006749	2.794749	0.000000	-0.001702	0.000000	-0.000009	-0.000001	0.000000	0.000000
57.727240	20.855775	14.653143	-0.177070	0.024744	2.794243	0.000000	0.005600	0.000000	-0.000010	-0.000001	0.000000	0.000000
58.276300	20.694455	14.907285	0.469141	-0.490343	2.774677	0.000000	-0.076770	0.000000	-0.000010	-0.000001	0.000000	0.000000
58.825360	19.837596	15.742799	1.082213	-1.040357	2.710192	0.000000	-0.157778	0.000000	-0.000011	-0.000001	0.000000	0.000000
59.374420	18.345722	17.219197	1.618844	-1.664472	2.601933	0.000000	-0.235987	0.000000	-0.000011	-0.000000	0.000000	0.000000
59.923480	16.324212	19.441640	2.041128	-2.407144	2.451819	0.000000	-0.310010	0.000000	-0.000011	0.000000	0.000000	0.000000
60.369440	14.742040	21.416918	1.519225	-2.003430	2.328859	0.000000	-0.241721	0.000000	-0.000011	-0.000000	0.000000	0.000000
60.810400	13.604202	22.972091	1.070930	-1.509939	2.236719	0.000000	-0.176582	0.000000	-0.000011	-0.000000	0.000000	0.000000
61.251360	12.838737	24.059972	0.671563	-0.947747	2.172834	0.000000	-0.113454	0.000000	-0.000011	-0.000001	0.000000	0.000000
61.692320	12.410672	24.631063	0.302877	-0.342434	2.136474	0.000000	-0.051618	0.000000	-0.000012	-0.000001	0.000000	0.000000
62.134530	12.300505	24.658836	-0.021905	0.217929	2.127231	0.000000	0.004413	0.000000	-0.000012	-0.000001	0.000000	0.000000
62.431853	12.320720	24.533001	-0.046088	0.205299	2.128543	0.000000	0.004413	0.000000	-0.000013	-0.000001	0.000000	0.000000
62.765186	12.360483	24.400855	-0.073200	0.191139	2.130015	0.000000	0.004413	0.000000	-0.000013	-0.000001	0.000000	0.000000
63.098520	12.418320	24.278149	-0.100312	0.176979	2.131486	0.000000	0.004413	0.000000	-0.000014	-0.000001	0.000000	0.000000
63.433103	12.494551	24.164476	-0.127526	0.162766	2.132963	0.000000	0.004413	0.000000	-0.000014	-0.000001	0.000000	0.000000
63.730426	12.577574	24.071443	-0.120861	0.091097	2.134276	0.000000	-0.000822	0.000000	-0.000014	-0.000001	0.000000	0.000000
64.171386	12.844377	23.726019	-0.486485	0.689267	2.147456	0.000000	0.060659	0.000000	-0.000015	-0.000002	0.000000	0.000000
64.612346	13.442176	22.864924	-0.874335	1.256076	2.187874	0.000000	0.122830	0.000000	-0.000016	-0.000002	0.000000	0.000000
65.053306	14.398282	21.527336	-1.302131	1.765735	2.255990	0.000000	0.186400	0.000000	-0.000017	-0.000003	0.000000	0.000000
65.494266	15.756378	19.774116	-1.789417	2.195054	2.352578	0.000000	0.252093	0.000000	-0.000018	-0.000003	0.000000	0.000000
65.940226	17.601672	17.660231	-2.363147	2.525250	2.480312	0.000000	0.321060	0.000000	-0.000020	-0.000003	0.000000	0.000000
66.489286	19.967327	15.295531	-1.919905	1.806989	2.636223	0.000000	0.246019	0.000000	-0.000021	-0.000003	0.000000	0.000000
67.038346	21.768448	13.644685	-1.341051	1.217436	2.749672	0.000000	0.166615	0.000000	-0.000023	-0.000002	0.000000	0.000000
67.587406	22.877813	12.590108	-0.667471	0.714598	2.818646	0.000000	0.084255	0.000000	-0.000024	-0.000001	0.000000	0.000000
68.136466	23.217062	12.056684	0.053255	0.262659	2.841921	0.000000	0.000401	0.000000	-0.000024	-0.000001	0.000000	0.000000
68.435038	23.225332	11.889056	-0.020280	0.267261	2.844259	0.000000	0.007828	0.000000	-0.000024	-0.000001	0.000000	0.000000
68.768372	23.243638	11.720896	-0.034638	0.237221	2.846868	0.000000	0.007828	0.000000	-0.000025	-0.000001	0.000000	0.000000
69.101705	23.271516	11.572762	-0.048996	0.207181	2.849478	0.000000	0.007828	0.000000	-0.000025	-0.000001	0.000000	0.000000
69.436288	23.309125	11.444211	-0.063408	0.177029	2.852097	0.000000	0.007828	0.000000	-0.000025	-0.000001	0.000000	0.000000
69.733611	23.350637	11.346908	-0.137238	0.179888	2.854425	0.000000	0.015288	0.000000	-0.000025	-0.000001	0.000000	0.000000
70.282671	23.100295	11.376675	0.590487	-0.234422	2.839628	0.000000	-0.069109	0.000000	-0.000025	0.000000	0.000000	0.000000
