#ParticleID	Turn	x[m]	xp	y[m]	yp	z[m]	dE[GeV]# s	beta_x	beta_y	alpha_x	alpha_y	D_x	D_y	D_px	D_py	orbit_x	orbit_px	orbit_y	orbit_py
0.300000	11.800606	25.068240	-0.009913	-0.026614	2.618471	0.000000	-0.000125	0.000000	-0.000002	0.000002	0.000000	0.000000
0.601250	11.814270	25.087898	-0.035444	-0.038640	2.618432	0.000000	-0.000125	0.000000	-0.000001	0.000002	0.000000	0.000000
0.898573	11.842838	25.114404	-0.031600	-0.112096	2.618394	0.000000	-0.006546	0.000000	-0.000001	0.000002	0.000000	0.000000
1.339533	12.022683	24.934651	-0.377794	0.518185	2.631802	0.000000	0.067417	0.000000	0.000000	0.000002	0.000000	0.000000
1.780493	12.514272	24.207354	-0.741249	1.124889	2.677962	0.000000	0.142149	0.000000	0.000001	0.000002	0.000000	0.000000
2.221453	13.340064	22.965604	-1.138570	1.680411	2.757401	0.000000	0.218499	0.000000	0.000002	0.000002	0.000000	0.000000
2.662413	14.537789	21.265899	-1.587908	2.159476	2.871024	0.000000	0.297338	0.000000	0.000003	0.000002	0.000000	0.000000
3.108373	16.182875	19.160652	-2.114078	2.541421	3.021986	0.000000	0.380054	0.000000	0.000004	0.000002	0.000000	0.000000
3.657433	18.292486	16.796078	-1.705399	1.790584	3.205386	0.000000	0.287017	0.000000	0.000005	0.000002	0.000000	0.000000
4.206493	19.884112	15.181560	-1.176259	1.167286	3.336228	0.000000	0.188889	0.000000	0.000006	0.000002	0.000000	0.000000
4.755553	20.845328	14.202098	-0.564035	0.627132	3.412191	0.000000	0.087411	0.000000	0.000007	0.000002	0.000000	0.000000
5.304613	21.108240	13.787928	0.088031	0.131647	3.431929	0.000000	-0.015617	0.000000	0.000008	0.000001	0.000000	0.000000
5.603185	21.092832	13.694452	0.018722	0.145406	3.429943	0.000000	-0.006651	0.000000	0.000008	0.000001	0.000000	0.000000
5.936519	21.085620	13.605800	0.002913	0.120551	3.427726	0.000000	-0.006651	0.000000	0.000008	0.000001	0.000000	0.000000
6.269852	21.088947	13.533718	-0.012895	0.095695	3.425509	0.000000	-0.006651	0.000000	0.000009	0.000001	0.000000	0.000000
6.604435	21.102886	13.478029	-0.028763	0.070747	3.423283	0.000000	-0.006651	0.000000	0.000009	0.000001	0.000000	0.000000
6.901758	21.124182	13.442551	-0.098053	0.083697	3.421305	0.000000	0.002288	0.000000	0.000010	0.000001	0.000000	0.000000
7.450818	20.871881	13.611642	0.554848	-0.393478	3.394363	0.000000	-0.100280	0.000000	0.000010	0.000001	0.000000	0.000000
7.999878	19.919994	14.316952	1.168557	-0.898680	3.311512	0.000000	-0.201068	0.000000	0.000011	0.000001	0.000000	0.000000
8.548938	18.335757	15.608718	1.699725	-1.467893	3.174220	0.000000	-0.298291	0.000000	0.000011	0.000000	0.000000	0.000000
9.097998	16.231073	17.578950	2.110833	-2.141661	2.984924	0.000000	-0.390222	0.000000	0.000011	0.000000	0.000000	0.000000
9.543958	14.589093	19.334488	1.584157	-1.778236	2.829204	0.000000	-0.308530	0.000000	0.000012	0.000000	0.000000	0.000000
9.984918	13.394963	20.712607	1.134140	-1.335140	2.710397	0.000000	-0.230836	0.000000	0.000012	0.000001	0.000000	0.000000
10.425878	12.573450	21.671567	0.735938	-0.831296	2.625239	0.000000	-0.155771	0.000000	0.000012	0.000001	0.000000	0.000000
10.866838	12.087022	22.167739	0.371359	-0.289629	2.572759	0.000000	-0.082480	0.000000	0.000013	0.000001	0.000000	0.000000
11.309048	11.913322	22.178017	0.052853	0.210776	2.552339	0.000000	-0.016387	0.000000	0.000013	0.000002	0.000000	0.000000
11.606371	11.889335	22.056844	0.027826	0.196774	2.547466	0.000000	-0.016387	0.000000	0.000014	0.000002	0.000000	0.000000
12.086371	11.882015	21.878791	-0.012578	0.174169	2.539600	0.000000	-0.016387	0.000000	0.000014	0.000002	0.000000	0.000000
12.566371	11.913484	21.722439	-0.052981	0.151565	2.531733	0.000000	-0.016387	0.000000	0.000015	0.000002	0.000000	0.000000
13.046371	11.983739	21.587787	-0.093385	0.128960	2.523867	0.000000	-0.016387	0.000000	0.000016	0.000002	0.000000	0.000000
13.526371	12.092782	21.474836	-0.133788	0.106355	2.516000	0.000000	-0.016387	0.000000	0.000017	0.000002	0.000000	0.000000
14.007621	12.241048	21.383375	-0.174297	0.083692	2.508113	0.000000	-0.016387	0.000000	0.000017	0.000002	0.000000	0.000000
14.304943	12.352134	21.337771	-0.169038	0.017373	2.503241	0.000000	-0.022524	0.000000	0.000018	0.000002	0.000000	0.000000
14.745903	12.659682	21.088934	-0.531058	0.544788	2.508933	0.000000	0.048371	0.000000	0.000019	0.000002	0.000000	0.000000
15.186863	13.295954	20.384154	-0.917340	1.047415	2.545979	0.000000	0.119818	0.000000	0.000020	0.000002	0.000000	0.000000
15.627823	14.290020	19.255498	-1.345533	1.502386	2.614801	0.000000	0.192629	0.000000	0.000021	0.000003	0.000000	0.000000
16.068783	15.687296	17.754319	-1.835200	1.889000	2.716182	0.000000	0.267634	0.000000	0.000022	0.000004	0.000000	0.000000
16.514743	17.575286	15.927423	-2.413470	2.190406	2.852971	0.000000	0.346150	0.000000	0.000024	0.000004	0.000000	0.000000
17.063803	20.000285	13.887634	-1.977019	1.546579	3.019308	0.000000	0.258866	0.000000	0.000026	0.000003	0.000000	0.000000
17.612863	21.866023	12.490566	-1.400921	1.012912	3.136389	0.000000	0.166990	0.000000	0.000028	0.000002	0.000000	0.000000
18.161923	23.040713	11.636709	-0.725868	0.551391	3.202137	0.000000	0.072152	0.000000	0.000029	0.000002	0.000000	0.000000
18.710983	23.441380	11.265246	0.000456	0.129146	3.215385	0.000000	-0.023965	0.000000	0.000029	0.000001	0.000000	0.000000
19.009556	23.481489	11.178667	-0.073561	0.131402	3.210737	0.000000	-0.015566	0.000000	0.000029	0.000001	0.000000	0.000000
19.342889	23.535288	11.101177	-0.087833	0.101069	3.205548	0.000000	-0.015566	0.000000	0.000030	0.000001	0.000000	0.000000
19.676223	23.598601	11.043909	-0.102106	0.070735	3.200359	0.000000	-0.015566	0.000000	0.000030	0.000001	0.000000	0.000000
20.010806	23.672013	11.006627	-0.233716	0.094821	3.195171	0.000000	0.000265	0.000000	0.000030	0.000001	0.000000	0.000000
20.308129	23.814929	10.958345	-0.309170	0.096190	3.195249	0.000000	0.008611	0.000000	0.000030	0.000001	0.000000	0.000000
20.857189	23.743671	11.074530	0.438185	-0.309046	3.173774	0.000000	-0.086720	0.000000	0.000031	-0.000000	0.000000	0.000000
21.406249	22.863934	11.645117	1.154590	-0.736295	3.100303	0.000000	-0.180514	0.000000	0.000030	-0.000001	0.000000	0.000000
21.955309	21.237858	12.710748	1.789439	-1.215989	2.976138	0.000000	-0.271105	0.000000	0.000029	-0.000002	0.000000	0.000000
22.504369	18.980303	14.347326	2.297892	-1.782295	2.803482	0.000000	-0.356888	0.000000	0.000028	-0.000003	0.000000	0.000000
22.950329	17.201014	15.816817	1.705983	-1.498922	2.661608	0.000000	-0.279723	0.000000	0.000027	-0.000002	0.000000	0.000000
23.391289	15.925877	16.988551	1.196714	-1.148200	2.554575	0.000000	-0.206197	0.000000	0.000026	-0.000002	0.000000	0.000000
23.832249	15.074159	17.826671	0.742120	-0.745236	2.479416	0.000000	-0.135020	0.000000	0.000026	-0.000001	0.000000	0.000000
24.273209	14.606948	18.293042	0.321430	-0.308365	2.435273	0.000000	-0.065381	0.000000	0.000025	-0.000000	0.000000	0.000000
24.715418	14.503021	18.366201	-0.049103	0.097439	2.421643	0.000000	-0.002424	0.000000	0.000025	0.000000	0.000000	0.000000
25.012741	14.538331	18.313118	-0.069653	0.081096	2.420922	0.000000	-0.002424	0.000000	0.000025	0.000000	0.000000	0.000000
25.346075	14.592446	18.265161	-0.092693	0.062775	2.420114	0.000000	-0.002424	0.000000	0.000026	0.000000	0.000000	0.000000
25.679408	14.661921	18.229419	-0.115732	0.044453	2.419306	0.000000	-0.002424	0.000000	0.000026	0.000000	0.000000	0.000000
26.013991	14.746803	18.206194	-0.019222	-0.121635	2.418470	0.000000	-0.022044	0.000000	0.000026	0.000000	0.000000	0.000000
26.311314	14.764230	18.283451	-0.003193	-0.183032	2.411916	0.000000	-0.027957	0.000000	0.000026	0.000000	0.000000	0.000000
26.752274	14.948922	18.246623	-0.417236	0.266232	2.414689	0.000000	0.040546	0.000000	0.000026	0.000001	0.000000	0.000000
27.193234	15.505761	17.817429	-0.850341	0.703383	2.447742	0.000000	0.109512	0.000000	0.000027	0.000001	0.000000	0.000000
27.634194	16.460186	17.015395	-1.322296	1.108531	2.511451	0.000000	0.179725	0.000000	0.000027	0.000002	0.000000	0.000000
28.075154	17.855804	15.877014	-1.854662	1.463241	2.606543	0.000000	0.251985	0.000000	0.000028	0.000003	0.000000	0.000000
28.521114	19.780618	14.436929	-2.476738	1.752286	2.735702	0.000000	0.327557	0.000000	0.000030	0.000004	0.000000	0.000000
29.070174	22.227042	12.832514	-1.952541	1.187074	2.892902	0.000000	0.244221	0.000000	0.000032	0.000003	0.000000	0.000000
29.619234	24.018230	11.798975	-1.290426	0.706414	3.003088	0.000000	0.156553	0.000000	0.000033	0.000002	0.000000	0.000000
30.168294	25.027662	11.262697	-0.537162	0.276071	3.064304	0.000000	0.066108	0.000000	0.000033	0.000000	0.000000	0.000000
30.717354	25.184035	11.185482	0.254045	-0.134608	3.075466	0.000000	-0.025510	0.000000	0.000033	-0.000001	0.000000	0.000000
31.015927	25.075281	11.256473	0.175987	-0.132380	3.070248	0.000000	-0.017477	0.000000	0.000033	-0.000000	0.000000	0.000000
31.349260	24.962525	11.354771	0.162282	-0.162512	3.064423	0.000000	-0.017477	0.000000	0.000033	-0.000000	0.000000	0.000000
31.682593	24.858905	11.473156	0.148577	-0.192643	3.058597	0.000000	-0.017477	0.000000	0.000033	-0.000000	0.000000	0.000000
32.017177	24.764085	11.612186	0.134820	-0.222888	3.052750	0.000000	-0.017477	0.000000	0.000033	-0.000000	0.000000	0.000000
32.314499	24.687550	11.752716	0.058109	-0.219065	3.047554	0.000000	-0.009516	0.000000	0.000032	-0.000000	0.000000	0.000000
32.863559	24.200720	12.232443	0.823301	-0.659816	3.017466	0.000000	-0.099923	0.000000	0.000032	-0.000001	0.000000	0.000000
33.412619	22.900734	13.218981	1.530339	-1.147565	2.938154	0.000000	-0.188557	0.000000	0.000031	-0.000002	0.000000	0.000000
33.961679	20.879416	14.782598	2.129281	-1.717052	2.811025	0.000000	-0.273847	0.000000	0.000029	-0.000003	0.000000	0.000000
34.510739	18.279541	17.034669	2.577822	-2.408841	2.638333	0.000000	-0.354279	0.000000	0.000027	-0.000004	0.000000	0.000000
34.956699	16.257968	19.049106	1.971500	-2.089379	2.496672	0.000000	-0.281395	0.000000	0.000025	-0.000004	0.000000	0.000000
35.397659	14.750411	20.715651	1.460272	-1.675594	2.387962	0.000000	-0.212143	0.000000	0.000024	-0.000003	0.000000	0.000000
35.838619	13.662706	21.982131	1.015760	-1.185571	2.309227	0.000000	-0.145307	0.000000	0.000023	-0.000002	0.000000	0.000000
36.279579	12.945157	22.790921	0.617655	-0.641606	2.259571	0.000000	-0.080127	0.000000	0.000022	-0.000002	0.000000	0.000000
36.721789	12.564286	23.105535	0.278469	-0.125152	2.238402	0.000000	-0.021347	0.000000	0.000021	-0.000001	0.000000	0.000000
37.019112	12.406277	23.183841	0.252969	-0.138221	2.232056	0.000000	-0.021347	0.000000	0.000021	-0.000001	0.000000	0.000000
37.352445	12.247160	23.280873	0.224382	-0.152874	2.224941	0.000000	-0.021347	0.000000	0.000020	-0.000001	0.000000	0.000000
37.685779	12.107101	23.387673	0.195794	-0.167526	2.217826	0.000000	-0.021347	0.000000	0.000020	-0.000001	0.000000	0.000000
38.020362	11.985683	23.504697	0.167100	-0.182234	2.210684	0.000000	-0.021347	0.000000	0.000019	-0.000001	0.000000	0.000000
38.317684	11.893899	23.616947	0.170763	-0.253209	2.204337	0.000000	-0.026752	0.000000	0.000019	-0.000001	0.000000	0.000000
38.758644	11.894894	23.578650	-0.173028	0.339728	2.206461	0.000000	0.036392	0.000000	0.000018	-0.000001	0.000000	0.000000
39.199604	12.201412	23.022275	-0.524723	0.917207	2.236494	0.000000	0.099951	0.000000	0.000018	-0.000000	0.000000	0.000000
39.640564	12.827456	21.973136	-0.900392	1.452954	2.294777	0.000000	0.164648	0.000000	0.000018	-0.000000	0.000000	0.000000
40.081524	13.801629	20.478968	-1.317197	1.922593	2.381975	0.000000	0.231220	0.000000	0.000018	0.000000	0.000000	0.000000
40.527484	15.186014	18.585172	-1.798010	2.306044	2.500552	0.000000	0.300831	0.000000	0.000018	0.000001	0.000000	0.000000
41.076544	16.952494	16.456920	-1.400224	1.593008	2.645208	0.000000	0.225317	0.000000	0.000018	0.000000	0.000000	0.000000
41.625604	18.224928	15.045138	-0.903533	0.993439	2.747243	0.000000	0.145806	0.000000	0.000018	-0.000000	0.000000	0.000000
42.174664	18.913437	14.249268	-0.343022	0.464631	2.804846	0.000000	0.063709	0.000000	0.000018	-0.000001	0.000000	0.000000
42.723724	18.969389	14.012621	0.241720	-0.031083	2.816997	0.000000	-0.019518	0.000000	0.000018	-0.000001	0.000000	0.000000
43.022297	18.859512	14.015684	0.175842	-0.015784	2.813367	0.000000	-0.012158	0.000000	0.000017	-0.000001	0.000000	0.000000
43.502297	18.703298	14.047279	0.149604	-0.050040	2.807532	0.000000	-0.012158	0.000000	0.000016	-0.000001	0.000000	0.000000
43.982297	18.572272	14.111760	0.123366	-0.084296	2.801696	0.000000	-0.012158	0.000000	0.000016	-0.000001	0.000000	0.000000
44.462297	18.466435	14.209127	0.097127	-0.118552	2.795861	0.000000	-0.012158	0.000000	0.000015	-0.000001	0.000000	0.000000
44.942297	18.385787	14.339379	0.070889	-0.152807	2.790026	0.000000	-0.012158	0.000000	0.000014	-0.000001	0.000000	0.000000
45.423547	18.330444	14.502805	-0.046237	-0.115297	2.784192	0.000000	0.001636	0.000000	0.000014	-0.000001	0.000000	0.000000
45.720870	18.362771	14.577542	-0.110465	-0.097986	2.784679	0.000000	0.008911	0.000000	0.000013	-0.000001	0.000000	0.000000
46.269930	18.174897	14.967000	0.450612	-0.615518	2.767011	0.000000	-0.073179	0.000000	0.000012	-0.000002	0.000000	0.000000
46.818990	17.384805	15.945365	0.979860	-1.176891	2.704560	0.000000	-0.153971	0.000000	0.000011	-0.000002	0.000000	0.000000
47.368050	16.048302	17.582323	1.439895	-1.822091	2.598435	0.000000	-0.232033	0.000000	0.000010	-0.000002	0.000000	0.000000
47.917110	14.259792	19.994473	1.798223	-2.597075	2.450519	0.000000	-0.305978	0.000000	0.000009	-0.000003	0.000000	0.000000
48.363070	12.868104	22.138971	1.333490	-2.191430	2.329353	0.000000	-0.237699	0.000000	0.000007	-0.000003	0.000000	0.000000
48.804030	11.872251	23.855894	0.933451	-1.687355	2.238994	0.000000	-0.172525	0.000000	0.000006	-0.000002	0.000000	0.000000
49.244990	11.209133	25.092581	0.576058	-1.106506	2.176914	0.000000	-0.109315	0.000000	0.000005	-0.000002	0.000000	0.000000
49.685950	10.848455	25.792764	0.244984	-0.475312	2.142407	0.000000	-0.047350	0.000000	0.000004	-0.000002	0.000000	0.000000
50.128160	10.773858	25.924300	-0.048595	0.113888	2.135090	0.000000	0.008840	0.000000	0.000004	-0.000002	0.000000	0.000000
50.425482	10.810979	25.860032	-0.076257	0.102270	2.137719	0.000000	0.008840	0.000000	0.000003	-0.000002	0.000000	0.000000
50.758816	10.872155	25.796193	-0.107269	0.089245	2.140666	0.000000	0.008840	0.000000	0.000002	-0.000002	0.000000	0.000000
51.092149	10.954004	25.741038	-0.138281	0.076220	2.143613	0.000000	0.008840	0.000000	0.000002	-0.000002	0.000000	0.000000
51.426732	11.056728	25.694929	-0.079710	-0.145303	2.146550	0.000000	-0.008574	0.000000	0.000001	-0.000002	0.000000	0.000000
51.724055	11.112173	25.784846	-0.079521	-0.220351	2.144002	0.000000	-0.013832	0.000000	0.000000	-0.000002	0.000000	0.000000
52.165015	11.327434	25.692281	-0.410495	0.429469	2.151490	0.000000	0.047826	0.000000	-0.000001	-0.000002	0.000000	0.000000
52.605975	11.841723	25.033087	-0.760224	1.059749	2.186262	0.000000	0.110029	0.000000	-0.000001	-0.000002	0.000000	0.000000
53.046935	12.678536	23.837256	-1.144684	1.641811	2.248712	0.000000	0.173484	0.000000	-0.000002	-0.000002	0.000000	0.000000
53.487895	13.876106	22.159198	-1.581443	2.149172	2.339553	0.000000	0.238916	0.000000	-0.000003	-0.000002	0.000000	0.000000
53.933855	15.509678	20.050178	-2.094675	2.560087	2.461323	0.000000	0.307467	0.000000	-0.000004	-0.000002	0.000000	0.000000
54.482915	17.612938	17.676908	-1.713307	1.787852	2.609962	0.000000	0.233160	0.000000	-0.000006	-0.000002	0.000000	0.000000
55.031975	19.228075	16.077159	-1.210920	1.142961	2.716603	0.000000	0.154717	0.000000	-0.000007	-0.000002	0.000000	0.000000
55.581035	20.241003	15.136984	-0.623000	0.579481	2.779357	0.000000	0.073529	0.000000	-0.000008	-0.000002	0.000000	0.000000
56.130095	20.580173	14.789417	0.008926	0.057277	2.797110	0.000000	-0.008962	0.000000	-0.000008	-0.000001	0.000000	0.000000
56.428668	20.611296	14.738221	-0.059387	0.075548	2.796616	0.000000	-0.001653	0.000000	-0.000009	-0.000001	0.000000	0.000000
56.762001	20.656297	14.695438	-0.075617	0.052802	2.796066	0.000000	-0.001653	0.000000	-0.000009	-0.000001	0.000000	0.000000
57.095334	20.712118	14.667819	-0.091846	0.030056	2.795515	0.000000	-0.001653	0.000000	-0.000010	-0.000001	0.000000	0.000000
57.429918	20.779028	14.655345	-0.108136	0.007225	2.794962	0.000000	-0.001653	0.000000	-0.000010	-0.000001	0.000000	0.000000
57.727240	20.847635	14.657081	-0.177088	0.025235	2.794471	0.000000	0.005649	0.000000	-0.000011	-0.000001	0.000000	0.000000
58.276300	20.686485	14.910742	0.468852	-0.489954	2.774929	0.000000	-0.076729	0.000000	-0.000011	-0.000001	0.000000	0.000000
58.825360	19.830083	15.745871	1.081675	-1.040041	2.710465	0.000000	-0.157745	0.000000	-0.000012	-0.000001	0.000000	0.000000
59.374420	18.338921	17.221953	1.618093	-1.664208	2.602221	0.000000	-0.235963	0.000000	-0.000012	-0.000000	0.000000	0.000000
59.923480	16.318328	19.444125	2.040218	-2.406913	2.452119	0.000000	-0.309996	0.000000	-0.000012	0.000000	0.000000	0.000000
60.369440	14.736883	21.419149	1.518499	-2.003095	2.329166	0.000000	-0.241699	0.000000	-0.000012	-0.000000	0.000000	0.000000
60.810400	13.599617	22.973986	1.070353	-1.509516	2.237038	0.000000	-0.176552	0.000000	-0.000013	-0.000001	0.000000	0.000000
61.251360	12.834604	24.061462	0.671109	-0.947255	2.173168	0.000000	-0.113415	0.000000	-0.000013	-0.000001	0.000000	0.000000
61.692320	12.406893	24.632097	0.302525	-0.341895	2.136827	0.000000	-0.051570	0.000000	-0.000013	-0.000001	0.000000	0.000000
62.134530	12.296997	24.659382	-0.022178	0.218486	2.127607	0.000000	0.004469	0.000000	-0.000014	-0.000002	0.000000	0.000000
62.431853	12.317378	24.533216	-0.046369	0.205854	2.128936	0.000000	0.004469	0.000000	-0.000015	-0.000002	0.000000	0.000000
62.765186	12.357331	24.400702	-0.073489	0.191691	2.130426	0.000000	0.004469	0.000000	-0.000015	-0.000002	0.000000	0.000000
63.098520	12.415363	24.277629	-0.100609	0.177528	2.131916	0.000000	0.004469	0.000000	-0.000016	-0.000002	0.000000	0.000000
63.433103	12.491796	24.163589	-0.127831	0.163312	2.133412	0.000000	0.004469	0.000000	-0.000016	-0.000002	0.000000	0.000000
63.730426	12.575002	24.070232	-0.121179	0.091642	2.134741	0.000000	-0.000767	0.000000	-0.000017	-0.000002	0.000000	0.000000
64.171386	12.842063	23.724346	-0.486753	0.689766	2.147949	0.000000	0.060725	0.000000	-0.000017	-0.000002	0.000000	0.000000
64.612346	13.440081	22.862840	-0.874566	1.256506	2.188399	0.000000	0.122910	0.000000	-0.000018	-0.000002	0.000000	0.000000
65.053306	14.396379	21.524911	-1.302335	1.766076	2.256553	0.000000	0.186494	0.000000	-0.000019	-0.000003	0.000000	0.000000
65.494266	15.754646	19.771434	-1.789604	2.195291	2.353186	0.000000	0.252202	0.000000	-0.000021	-0.000003	0.000000	0.000000
65.940226	17.600103	17.657389	-2.363326	2.525371	2.480973	0.000000	0.321185	0.000000	-0.000023	-0.000004	0.000000	0.000000
66.489286	19.966003	15.292535	-1.920171	1.807151	2.636947	0.000000	0.246122	0.000000	-0.000025	-0.000003	0.000000	0.000000
67.038346	21.767457	13.641484	-1.341386	1.217650	2.750446	0.000000	0.166694	0.000000	-0.000026	-0.000002	0.000000	0.000000
67.587406	22.877217	12.586636	-0.667852	0.714879	2.819456	0.000000	0.084309	0.000000	-0.000027	-0.000002	0.000000	0.000000
68.136466	23.216897	12.052858	0.052855	0.263028	2.842754	0.000000	0.000428	0.000000	-0.000028	-0.000001	0.000000	0.000000
68.435038	23.225407	11.885020	-0.020681	0.267606	2.845100	0.000000	0.007857	0.000000	-0.000028	-0.000001	0.000000	0.000000
68.768372	23.243981	11.716635	-0.035039	0.237551	2.847719	0.000000	0.007857	0.000000	-0.000028	-0.000001	0.000000	0.000000
69.101705	23.272126	11.568285	-0.049398	0.207496	2.850338	0.000000	0.007857	0.000000	-0.000028	-0.000001	0.000000	0.000000
69.436288	23.310003	11.439530	-0.063810	0.177328	2.852968	0.000000	0.007857	0.000000	-0.000029	-0.000001	0.000000	0.000000
69.733611	23.351755	11.342053	-0.137645	0.180162	2.855304	0.000000	0.015319	0.000000	-0.000029	-0.000001	0.000000	0.000000
70.282671	23.101835	11.371443	0.590128	-0.234007	2.840516	0.000000	-0.069106	0.000000	-0.000029	0.000000	0.000000	0.000000
