#ParticleID	Turn	x[m]	xp	y[m]	yp	z[m]	dE[GeV]# s	beta_x	beta_y	alpha_x	alpha_y	D_x	D_y	D_px	D_py	orbit_x	orbit_px	orbit_y	orbit_py
0.300000	11.809038	25.037193	-0.010585	-0.027050	2.618179	0.000000	-0.000014	0.000000	-0.000001	0.000002	0.000000	0.000000
0.601250	11.823101	25.057117	-0.036098	-0.039091	2.618174	0.000000	-0.000014	0.000000	-0.000001	0.000002	0.000000	0.000000
0.898573	11.852054	25.083896	-0.032214	-0.112487	2.618169	0.000000	-0.006435	0.000000	-0.000000	0.000002	0.000000	0.000000
1.339533	12.032537	24.904842	-0.378634	0.516996	2.631625	0.000000	0.067524	0.000000	0.000000	0.000002	0.000000	0.000000
1.780493	12.524980	24.178927	-0.742354	1.122956	2.677831	0.000000	0.142251	0.000000	0.000001	0.000002	0.000000	0.000000
2.221453	13.351881	22.939178	-1.139989	1.677822	2.757315	0.000000	0.218599	0.000000	0.000002	0.000002	0.000000	0.000000
2.662413	14.551019	21.242004	-1.589707	2.156349	2.870982	0.000000	0.297437	0.000000	0.000002	0.000002	0.000000	0.000000
3.108373	16.197911	19.139735	-2.116342	2.537897	3.021987	0.000000	0.380151	0.000000	0.000003	0.000002	0.000000	0.000000
3.657433	18.309796	16.778550	-1.707253	1.787900	3.205441	0.000000	0.287114	0.000000	0.000004	0.000002	0.000000	0.000000
4.206493	19.903171	15.166608	-1.177573	1.165251	3.336336	0.000000	0.188983	0.000000	0.000005	0.000001	0.000000	0.000000
4.755553	20.865488	14.189092	-0.564714	0.625601	3.412350	0.000000	0.087501	0.000000	0.000006	0.000001	0.000000	0.000000
5.304613	21.128774	13.776378	0.088033	0.130511	3.432136	0.000000	-0.015533	0.000000	0.000006	0.000001	0.000000	0.000000
5.603185	21.113393	13.683601	0.018684	0.144230	3.430175	0.000000	-0.006566	0.000000	0.000007	0.000001	0.000000	0.000000
5.936519	21.106201	13.595737	0.002891	0.119363	3.427986	0.000000	-0.006566	0.000000	0.000007	0.000001	0.000000	0.000000
6.269852	21.109538	13.524451	-0.012903	0.094496	3.425797	0.000000	-0.006566	0.000000	0.000007	0.000001	0.000000	0.000000
6.604435	21.123476	13.469568	-0.028755	0.069536	3.423599	0.000000	-0.006566	0.000000	0.000008	0.000001	0.000000	0.000000
6.901758	21.144764	13.434813	-0.098086	0.082456	3.421647	0.000000	0.002373	0.000000	0.000008	0.000001	0.000000	0.000000
7.450818	20.892121	13.605153	0.555499	-0.394526	3.394749	0.000000	-0.100206	0.000000	0.000009	0.000001	0.000000	0.000000
7.999878	19.939162	14.311541	1.169847	-0.899610	3.311934	0.000000	-0.201008	0.000000	0.000009	0.000001	0.000000	0.000000
8.548938	18.353198	15.604293	1.701562	-1.468770	3.174672	0.000000	-0.298244	0.000000	0.000009	0.000000	0.000000	0.000000
9.097998	16.246254	17.575489	2.113087	-2.142548	2.985397	0.000000	-0.390191	0.000000	0.000009	-0.000000	0.000000	0.000000
9.543958	14.602478	19.331908	1.585945	-1.779316	2.829694	0.000000	-0.308486	0.000000	0.000009	0.000000	0.000000	0.000000
9.984918	13.406945	20.711045	1.135546	-1.336361	2.710909	0.000000	-0.230779	0.000000	0.000009	0.000000	0.000000	0.000000
10.425878	12.584337	21.671125	0.737026	-0.832603	2.625779	0.000000	-0.155701	0.000000	0.000010	0.000001	0.000000	0.000000
10.866838	12.097070	22.168465	0.372180	-0.290962	2.573333	0.000000	-0.082395	0.000000	0.000010	0.000001	0.000000	0.000000
11.309048	11.922749	22.179912	0.053467	0.209471	2.552954	0.000000	-0.016288	0.000000	0.000010	0.000001	0.000000	0.000000
11.606371	11.898391	22.059512	0.028459	0.195477	2.548111	0.000000	-0.016288	0.000000	0.000011	0.000001	0.000000	0.000000
12.086371	11.890450	21.882697	-0.011916	0.172887	2.540292	0.000000	-0.016288	0.000000	0.000011	0.000001	0.000000	0.000000
12.566371	11.921269	21.727570	-0.052290	0.150296	2.532473	0.000000	-0.016288	0.000000	0.000012	0.000001	0.000000	0.000000
13.046371	11.990847	21.594129	-0.092664	0.127705	2.524654	0.000000	-0.016288	0.000000	0.000013	0.000001	0.000000	0.000000
13.526371	12.099184	21.482376	-0.133038	0.105114	2.516835	0.000000	-0.016288	0.000000	0.000013	0.000001	0.000000	0.000000
14.007621	12.246714	21.392104	-0.173518	0.082465	2.508996	0.000000	-0.016288	0.000000	0.000014	0.000001	0.000000	0.000000
14.304943	12.357331	21.347227	-0.168227	0.016129	2.504152	0.000000	-0.022429	0.000000	0.000014	0.000001	0.000000	0.000000
14.745903	12.664206	21.099366	-0.530338	0.543825	2.509893	0.000000	0.048491	0.000000	0.000015	0.000002	0.000000	0.000000
15.186863	13.299871	20.395295	-0.916678	1.046778	2.546998	0.000000	0.119963	0.000000	0.000015	0.000002	0.000000	0.000000
15.627823	14.293368	19.267047	-1.344899	1.502103	2.615890	0.000000	0.192802	0.000000	0.000016	0.000002	0.000000	0.000000
16.068783	15.690087	17.765957	-1.834565	1.889083	2.717353	0.000000	0.267836	0.000000	0.000017	0.000003	0.000000	0.000000
16.514743	17.577499	15.938823	-2.412805	2.190855	2.854239	0.000000	0.346383	0.000000	0.000019	0.000003	0.000000	0.000000
17.063803	20.001666	13.898696	-1.976180	1.546748	3.020694	0.000000	0.259056	0.000000	0.000020	0.000003	0.000000	0.000000
17.612863	21.866415	12.501590	-1.399969	1.012813	3.137867	0.000000	0.167134	0.000000	0.000022	0.000002	0.000000	0.000000
18.161923	23.040027	11.647991	-0.724870	0.551018	3.203681	0.000000	0.072247	0.000000	0.000022	0.000001	0.000000	0.000000
18.710983	23.439604	11.277100	0.001430	0.128471	3.216967	0.000000	-0.023920	0.000000	0.000023	0.000000	0.000000	0.000000
19.009556	23.479131	11.190895	-0.072585	0.130794	3.212334	0.000000	-0.015517	0.000000	0.000023	0.000001	0.000000	0.000000
19.342889	23.532279	11.113797	-0.086857	0.100498	3.207162	0.000000	-0.015517	0.000000	0.000023	0.000001	0.000000	0.000000
19.676223	23.594941	11.056897	-0.101129	0.070202	3.201989	0.000000	-0.015517	0.000000	0.000023	0.000001	0.000000	0.000000
20.010806	23.667699	11.019958	-0.232717	0.094393	3.196817	0.000000	0.000322	0.000000	0.000023	0.000001	0.000000	0.000000
20.308129	23.810020	10.971921	-0.308159	0.095834	3.196913	0.000000	0.008673	0.000000	0.000024	0.000001	0.000000	0.000000
20.857189	23.737745	11.088707	0.439013	-0.309791	3.175457	0.000000	-0.086712	0.000000	0.000024	-0.000000	0.000000	0.000000
21.406249	22.857227	11.660348	1.155175	-0.737482	3.101975	0.000000	-0.180560	0.000000	0.000024	-0.000001	0.000000	0.000000
21.955309	21.230662	12.727562	1.789742	-1.217702	2.977769	0.000000	-0.271205	0.000000	0.000023	-0.000002	0.000000	0.000000
22.504369	18.972941	14.366364	2.297889	-1.784656	2.805044	0.000000	-0.357040	0.000000	0.000022	-0.000002	0.000000	0.000000
22.950329	17.193595	15.837765	1.706116	-1.500825	2.663112	0.000000	-0.279835	0.000000	0.000021	-0.000002	0.000000	0.000000
23.391289	15.918280	17.010944	1.196988	-1.149561	2.556038	0.000000	-0.206271	0.000000	0.000020	-0.000001	0.000000	0.000000
23.832249	15.066255	17.850000	0.742546	-0.745993	2.480854	0.000000	-0.135057	0.000000	0.000020	-0.000001	0.000000	0.000000
24.273209	14.598593	18.316758	0.322030	-0.308483	2.436703	0.000000	-0.065381	0.000000	0.000020	-0.000000	0.000000	0.000000
24.715418	14.494050	18.389735	-0.048324	0.097906	2.423081	0.000000	-0.002390	0.000000	0.000020	0.000000	0.000000	0.000000
25.012741	14.528899	18.336369	-0.068885	0.081583	2.422370	0.000000	-0.002390	0.000000	0.000020	0.000000	0.000000	0.000000
25.346075	14.582507	18.288081	-0.091937	0.063283	2.421574	0.000000	-0.002390	0.000000	0.000020	0.000000	0.000000	0.000000
25.679408	14.651482	18.251992	-0.114989	0.044983	2.420777	0.000000	-0.002390	0.000000	0.000020	0.000000	0.000000	0.000000
26.013991	14.735871	18.228406	-0.018580	-0.121263	2.419952	0.000000	-0.022022	0.000000	0.000020	0.000000	0.000000	0.000000
26.311314	14.752921	18.305436	-0.002592	-0.182696	2.413405	0.000000	-0.027940	0.000000	0.000020	0.000000	0.000000	0.000000
26.752274	14.936959	18.268049	-0.416350	0.267159	2.416194	0.000000	0.040603	0.000000	0.000020	0.000001	0.000000	0.000000
27.193234	15.492876	17.837791	-0.849129	0.704857	2.449280	0.000000	0.109607	0.000000	0.000020	0.000001	0.000000	0.000000
27.634194	16.446069	17.034239	-1.320703	1.110486	2.513041	0.000000	0.179861	0.000000	0.000021	0.000002	0.000000	0.000000
28.075154	17.840089	15.893955	-1.852616	1.465588	2.608202	0.000000	0.252162	0.000000	0.000022	0.000002	0.000000	0.000000
28.521114	19.762839	14.451640	-2.474140	1.754919	2.737450	0.000000	0.327779	0.000000	0.000023	0.000003	0.000000	0.000000
29.070174	22.206659	12.844669	-1.950426	1.189125	2.894757	0.000000	0.244384	0.000000	0.000024	0.000002	0.000000	0.000000
29.619234	23.995860	11.809130	-1.288944	0.708029	3.005016	0.000000	0.156655	0.000000	0.000025	0.000001	0.000000	0.000000
30.168294	25.004062	11.271263	-0.536417	0.277366	3.066271	0.000000	0.066147	0.000000	0.000026	0.000000	0.000000	0.000000
30.717354	25.160049	11.192759	0.254000	-0.133542	3.077437	0.000000	-0.025535	0.000000	0.000025	-0.000000	0.000000	0.000000
31.015927	25.051290	11.263095	0.175988	-0.131269	3.072213	0.000000	-0.017496	0.000000	0.000025	-0.000000	0.000000	0.000000
31.349260	24.938538	11.360642	0.162270	-0.161374	3.066382	0.000000	-0.017496	0.000000	0.000025	-0.000000	0.000000	0.000000
31.682593	24.834931	11.478261	0.148551	-0.191480	3.060550	0.000000	-0.017496	0.000000	0.000025	-0.000000	0.000000	0.000000
32.017177	24.740132	11.616503	0.134782	-0.221698	3.054696	0.000000	-0.017496	0.000000	0.000025	-0.000000	0.000000	0.000000
32.314499	24.663623	11.756318	0.058118	-0.217840	3.049495	0.000000	-0.009529	0.000000	0.000025	-0.000000	0.000000	0.000000
32.863559	24.177218	12.234726	0.822523	-0.658625	3.019382	0.000000	-0.099999	0.000000	0.000024	-0.000001	0.000000	0.000000
33.412619	22.878496	13.219935	1.528829	-1.146322	2.940011	0.000000	-0.188694	0.000000	0.000024	-0.000002	0.000000	0.000000
33.961679	20.859192	14.782119	2.127146	-1.715669	2.812790	0.000000	-0.274042	0.000000	0.000022	-0.000003	0.000000	0.000000
34.510739	18.261939	17.032549	2.575212	-2.407220	2.639975	0.000000	-0.354530	0.000000	0.000021	-0.000003	0.000000	0.000000
34.956699	16.242441	19.045494	1.969440	-2.087669	2.498211	0.000000	-0.281604	0.000000	0.000019	-0.000003	0.000000	0.000000
35.397659	14.736496	20.710521	1.458663	-1.673875	2.389416	0.000000	-0.212314	0.000000	0.000018	-0.000002	0.000000	0.000000
35.838619	13.650039	21.975509	1.014529	-1.183921	2.310614	0.000000	-0.145442	0.000000	0.000017	-0.000002	0.000000	0.000000
36.279579	12.933430	22.782902	0.616745	-0.640100	2.260907	0.000000	-0.080226	0.000000	0.000016	-0.000001	0.000000	0.000000
36.721789	12.553237	23.096274	0.277813	-0.123839	2.239702	0.000000	-0.021416	0.000000	0.000016	-0.000001	0.000000	0.000000
37.019112	12.395622	23.173800	0.252300	-0.136909	2.233335	0.000000	-0.021416	0.000000	0.000016	-0.000001	0.000000	0.000000
37.352445	12.236957	23.269958	0.223697	-0.151563	2.226196	0.000000	-0.021416	0.000000	0.000015	-0.000001	0.000000	0.000000
37.685779	12.097360	23.375884	0.195094	-0.166217	2.219058	0.000000	-0.021416	0.000000	0.000015	-0.000001	0.000000	0.000000
38.020362	11.976415	23.492032	0.166384	-0.180925	2.211893	0.000000	-0.021416	0.000000	0.000014	-0.000001	0.000000	0.000000
38.317684	11.885061	23.603505	0.170013	-0.251871	2.205526	0.000000	-0.026824	0.000000	0.000014	-0.000001	0.000000	0.000000
38.758644	11.886630	23.564189	-0.173584	0.340691	2.207625	0.000000	0.036351	0.000000	0.000014	-0.000001	0.000000	0.000000
39.199604	12.193563	23.007146	-0.525112	0.917752	2.237646	0.000000	0.099939	0.000000	0.000013	-0.000000	0.000000	0.000000
39.640564	12.819882	21.957721	-0.900630	1.453056	2.295931	0.000000	0.164666	0.000000	0.000013	-0.000000	0.000000	0.000000
40.081524	13.794202	20.463662	-1.317296	1.922247	2.383143	0.000000	0.231268	0.000000	0.000013	0.000000	0.000000	0.000000
40.527484	15.178614	18.570371	-1.797972	2.305263	2.501748	0.000000	0.300909	0.000000	0.000014	0.000001	0.000000	0.000000
41.076544	16.945222	16.442747	-1.400493	1.592640	2.646437	0.000000	0.225356	0.000000	0.000014	0.000000	0.000000	0.000000
41.625604	18.218112	15.031157	-0.904090	0.993457	2.748482	0.000000	0.145805	0.000000	0.000014	-0.000000	0.000000	0.000000
42.174664	18.907374	14.235057	-0.343827	0.465035	2.806074	0.000000	0.063669	0.000000	0.000014	-0.000001	0.000000	0.000000
42.723724	18.964321	13.997741	0.240722	-0.030263	2.818191	0.000000	-0.019597	0.000000	0.000013	-0.000001	0.000000	0.000000
43.022297	18.855033	14.000344	0.174858	-0.015024	2.814539	0.000000	-0.012235	0.000000	0.000013	-0.000001	0.000000	0.000000
43.502297	18.699762	14.031227	0.148622	-0.049316	2.808666	0.000000	-0.012235	0.000000	0.000012	-0.000001	0.000000	0.000000
43.982297	18.569678	14.095031	0.122387	-0.083609	2.802794	0.000000	-0.012235	0.000000	0.000012	-0.000001	0.000000	0.000000
44.462297	18.464780	14.191757	0.096151	-0.117902	2.796922	0.000000	-0.012235	0.000000	0.000011	-0.000001	0.000000	0.000000
44.942297	18.385068	14.321403	0.069915	-0.152194	2.791050	0.000000	-0.012235	0.000000	0.000011	-0.000001	0.000000	0.000000
45.423547	18.330661	14.484257	-0.047209	-0.114812	2.785179	0.000000	0.001565	0.000000	0.000010	-0.000001	0.000000	0.000000
45.720870	18.363567	14.558713	-0.111442	-0.097574	2.785645	0.000000	0.008842	0.000000	0.000010	-0.000001	0.000000	0.000000
46.269930	18.176743	14.947403	0.449690	-0.614523	2.767930	0.000000	-0.073279	0.000000	0.000009	-0.000001	0.000000	0.000000
46.818990	17.387603	15.924326	0.979057	-1.175243	2.705416	0.000000	-0.154100	0.000000	0.000008	-0.000002	0.000000	0.000000
47.368050	16.051889	17.559065	1.439269	-1.819673	2.599214	0.000000	-0.232187	0.000000	0.000007	-0.000002	0.000000	0.000000
47.917110	14.263949	19.968061	1.797818	-2.593715	2.451205	0.000000	-0.306157	0.000000	0.000006	-0.000002	0.000000	0.000000
48.363070	12.872635	22.109817	1.333052	-2.188671	2.329964	0.000000	-0.237861	0.000000	0.000005	-0.000002	0.000000	0.000000
48.804030	11.877191	23.824618	0.932959	-1.685319	2.239537	0.000000	-0.172671	0.000000	0.000005	-0.000002	0.000000	0.000000
49.244990	11.214540	25.059864	0.575490	-1.105287	2.177395	0.000000	-0.109448	0.000000	0.000004	-0.000002	0.000000	0.000000
49.685950	10.854405	25.759353	0.244313	-0.474965	2.142831	0.000000	-0.047472	0.000000	0.000003	-0.000002	0.000000	0.000000
50.128160	10.780458	25.890977	-0.049381	0.113428	2.135462	0.000000	0.008728	0.000000	0.000002	-0.000002	0.000000	0.000000
50.425482	10.818043	25.826986	-0.077028	0.101796	2.138057	0.000000	0.008728	0.000000	0.000002	-0.000002	0.000000	0.000000
50.758816	10.879727	25.763468	-0.108024	0.088756	2.140967	0.000000	0.008728	0.000000	0.000001	-0.000002	0.000000	0.000000
51.092149	10.962075	25.708644	-0.139020	0.075716	2.143876	0.000000	0.008728	0.000000	0.000001	-0.000002	0.000000	0.000000
51.426732	11.065287	25.662877	-0.080362	-0.145563	2.146775	0.000000	-0.008688	0.000000	0.000000	-0.000002	0.000000	0.000000
51.724055	11.121115	25.752953	-0.080134	-0.220549	2.144193	0.000000	-0.013946	0.000000	-0.000000	-0.000002	0.000000	0.000000
52.165015	11.337009	25.660934	-0.411326	0.428433	2.151632	0.000000	0.047716	0.000000	-0.000001	-0.000002	0.000000	0.000000
52.605975	11.852140	25.003008	-0.761310	1.057922	2.186355	0.000000	0.109921	0.000000	-0.000002	-0.000002	0.000000	0.000000
53.046935	12.690042	23.809109	-1.146076	1.639275	2.248758	0.000000	0.173378	0.000000	-0.000002	-0.000002	0.000000	0.000000
53.487895	13.888997	22.133558	-1.583204	2.146044	2.339552	0.000000	0.238811	0.000000	-0.000003	-0.000002	0.000000	0.000000
53.933855	15.524335	20.027542	-2.096889	2.556506	2.461275	0.000000	0.307361	0.000000	-0.000004	-0.000002	0.000000	0.000000
54.482915	17.629821	17.657699	-1.715121	1.785154	2.609855	0.000000	0.233056	0.000000	-0.000005	-0.000002	0.000000	0.000000
55.031975	19.246670	16.060519	-1.212206	1.140954	2.716441	0.000000	0.154618	0.000000	-0.000006	-0.000002	0.000000	0.000000
55.581035	20.260676	15.122237	-0.623666	0.578021	2.779142	0.000000	0.073436	0.000000	-0.000006	-0.000001	0.000000	0.000000
56.130095	20.600214	14.776022	0.008926	0.056260	2.796846	0.000000	-0.009048	0.000000	-0.000007	-0.000001	0.000000	0.000000
56.428668	20.631363	14.725458	-0.059424	0.074481	2.796327	0.000000	-0.001739	0.000000	-0.000007	-0.000001	0.000000	0.000000
56.762001	20.676384	14.683391	-0.075638	0.051719	2.795747	0.000000	-0.001739	0.000000	-0.000008	-0.000001	0.000000	0.000000
57.095334	20.732214	14.656499	-0.091852	0.028957	2.795168	0.000000	-0.001739	0.000000	-0.000008	-0.000001	0.000000	0.000000
57.429918	20.799124	14.644767	-0.108126	0.006109	2.794586	0.000000	-0.001739	0.000000	-0.000008	-0.000001	0.000000	0.000000
57.727240	20.867720	14.647170	-0.177116	0.024079	2.794069	0.000000	0.005561	0.000000	-0.000009	-0.000001	0.000000	0.000000
58.276300	20.706232	14.901952	0.469493	-0.490851	2.774483	0.000000	-0.076802	0.000000	-0.000009	-0.000001	0.000000	0.000000
58.825360	19.848777	15.737954	1.082939	-1.040743	2.709982	0.000000	-0.157803	0.000000	-0.000010	-0.000001	0.000000	0.000000
59.374420	18.355924	17.214724	1.619892	-1.664766	2.601711	0.000000	-0.236005	0.000000	-0.000010	-0.000000	0.000000	0.000000
59.923480	16.333119	19.437448	2.042424	-2.407365	2.451589	0.000000	-0.310021	0.000000	-0.000010	0.000000	0.000000	0.000000
60.369440	14.749915	21.412995	1.520250	-2.003812	2.328623	0.000000	-0.241738	0.000000	-0.000010	-0.000000	0.000000	0.000000
60.810400	13.611274	22.968570	1.071733	-1.510463	2.236474	0.000000	-0.176605	0.000000	-0.000010	-0.000000	0.000000	0.000000
61.251360	12.845184	24.056967	0.672181	-0.948390	2.172576	0.000000	-0.113484	0.000000	-0.000010	-0.000001	0.000000	0.000000
61.692320	12.416645	24.628667	0.303338	-0.343165	2.136202	0.000000	-0.051655	0.000000	-0.000011	-0.000001	0.000000	0.000000
62.134530	12.306132	24.657113	-0.021566	0.217146	2.126941	0.000000	0.004370	0.000000	-0.000011	-0.000001	0.000000	0.000000
62.431853	12.326142	24.531743	-0.045738	0.204519	2.128241	0.000000	0.004370	0.000000	-0.000012	-0.000001	0.000000	0.000000
62.765186	12.365667	24.400115	-0.072837	0.190363	2.129698	0.000000	0.004370	0.000000	-0.000012	-0.000001	0.000000	0.000000
63.098520	12.423259	24.277925	-0.099937	0.176207	2.131154	0.000000	0.004370	0.000000	-0.000012	-0.000001	0.000000	0.000000
63.433103	12.499234	24.164767	-0.127138	0.161998	2.132617	0.000000	0.004370	0.000000	-0.000013	-0.000001	0.000000	0.000000
63.730426	12.582022	24.072190	-0.120451	0.090331	2.133916	0.000000	-0.000864	0.000000	-0.000013	-0.000001	0.000000	0.000000
64.171386	12.848504	23.727427	-0.486165	0.688541	2.147077	0.000000	0.060607	0.000000	-0.000014	-0.000002	0.000000	0.000000
64.612346	13.446055	22.866943	-0.874090	1.255423	2.187469	0.000000	0.122768	0.000000	-0.000014	-0.000002	0.000000	0.000000
65.053306	14.401974	21.529888	-1.301950	1.765184	2.255555	0.000000	0.186327	0.000000	-0.000015	-0.000002	0.000000	0.000000
65.494266	15.759936	19.777099	-1.789293	2.194630	2.352108	0.000000	0.252009	0.000000	-0.000016	-0.000003	0.000000	0.000000
65.940226	17.605143	17.663527	-2.363074	2.524975	2.479802	0.000000	0.320963	0.000000	-0.000018	-0.000003	0.000000	0.000000
66.489286	19.970629	15.299144	-1.919672	1.806684	2.635664	0.000000	0.245939	0.000000	-0.000019	-0.000002	0.000000	0.000000
67.038346	21.771414	13.648660	-1.340675	1.217078	2.749074	0.000000	0.166554	0.000000	-0.000020	-0.000002	0.000000	0.000000
67.587406	22.880300	12.594515	-0.666979	0.714163	2.818020	0.000000	0.084214	0.000000	-0.000021	-0.000001	0.000000	0.000000
68.136466	23.218961	12.061626	0.053829	0.262116	2.841278	0.000000	0.000381	0.000000	-0.000022	-0.000000	0.000000	0.000000
68.435038	23.226891	11.894310	-0.019709	0.266748	2.843609	0.000000	0.007806	0.000000	-0.000022	-0.000001	0.000000	0.000000
68.768372	23.244815	11.726484	-0.034066	0.236729	2.846211	0.000000	0.007806	0.000000	-0.000022	-0.000001	0.000000	0.000000
69.101705	23.272312	11.578671	-0.048422	0.206711	2.848813	0.000000	0.007806	0.000000	-0.000022	-0.000001	0.000000	0.000000
69.436288	23.309536	11.450429	-0.062833	0.176579	2.851425	0.000000	0.007806	0.000000	-0.000022	-0.000001	0.000000	0.000000
69.733611	23.350707	11.353388	-0.136661	0.179473	2.853746	0.000000	0.015263	0.000000	-0.000023	-0.000001	0.000000	0.000000
70.282671	23.099735	11.383711	0.591049	-0.235027	2.838941	0.000000	-0.069111	0.000000	-0.000023	0.000000	0.000000	0.000000
