#ParticleID	Turn	x[m]	xp	y[m]	yp	z[m]	dE[GeV]# s	beta_x	beta_y	alpha_x	alpha_y	D_x	D_y	D_px	D_py	orbit_x	orbit_px	orbit_y	orbit_py
0.300000	11.823139	24.980405	-0.012184	-0.027597	2.618137	0.000000	0.000003	0.000000	-0.000000	0.000001	0.000000	0.000000
0.601250	11.838157	25.000669	-0.037668	-0.039666	2.618137	0.000000	0.000003	0.000000	-0.000000	0.000001	0.000000	0.000000
0.898573	11.868034	25.027797	-0.033715	-0.112953	2.618138	0.000000	-0.006417	0.000000	0.000000	0.000001	0.000000	0.000000
1.339533	12.050013	24.849808	-0.380539	0.515058	2.631601	0.000000	0.067540	0.000000	0.000000	0.000001	0.000000	0.000000
1.780493	12.544344	24.126221	-0.744748	1.119634	2.677816	0.000000	0.142268	0.000000	0.000001	0.000001	0.000000	0.000000
2.221453	13.373611	22.889959	-1.142982	1.673267	2.757307	0.000000	0.218615	0.000000	0.000001	0.000001	0.000000	0.000000
2.662413	14.575703	21.197271	-1.593437	2.150768	2.870981	0.000000	0.297452	0.000000	0.000001	0.000001	0.000000	0.000000
3.108373	16.226315	19.100347	-2.120986	2.531542	3.021994	0.000000	0.380167	0.000000	0.000001	0.000001	0.000000	0.000000
3.657433	18.342924	16.745254	-1.711162	1.783095	3.205456	0.000000	0.287129	0.000000	0.000002	0.000001	0.000000	0.000000
4.206493	19.940057	15.137897	-1.180470	1.161655	3.336360	0.000000	0.188998	0.000000	0.000002	0.000001	0.000000	0.000000
4.755553	20.904902	14.163788	-0.566395	0.622956	3.412383	0.000000	0.087515	0.000000	0.000002	0.000000	0.000000	0.000000
5.304613	21.169307	13.753544	0.087687	0.128629	3.432176	0.000000	-0.015521	0.000000	0.000003	0.000000	0.000000	0.000000
5.603185	21.154189	13.661933	0.018258	0.142267	3.430220	0.000000	-0.006553	0.000000	0.000003	0.000000	0.000000	0.000000
5.936519	21.147271	13.575385	0.002495	0.117375	3.428035	0.000000	-0.006553	0.000000	0.000003	0.000000	0.000000	0.000000
6.269852	21.150862	13.505433	-0.013267	0.092482	3.425851	0.000000	-0.006553	0.000000	0.000003	0.000000	0.000000	0.000000
6.604435	21.165034	13.451907	-0.029089	0.067496	3.423658	0.000000	-0.006553	0.000000	0.000003	0.000000	0.000000	0.000000
6.901758	21.186512	13.418372	-0.098504	0.080352	3.421709	0.000000	0.002387	0.000000	0.000003	0.000000	0.000000	0.000000
7.450818	20.933559	13.590777	0.556480	-0.396206	3.394818	0.000000	-0.100195	0.000000	0.000003	0.000000	0.000000	0.000000
7.999878	19.978782	14.298832	1.172156	-0.900984	3.312010	0.000000	-0.200999	0.000000	0.000004	0.000000	0.000000	0.000000
8.548938	18.389623	15.592972	1.705037	-1.469938	3.174752	0.000000	-0.298238	0.000000	0.000004	0.000000	0.000000	0.000000
9.097998	16.278332	17.565374	2.117483	-2.143592	2.985481	0.000000	-0.390187	0.000000	0.000004	-0.000000	0.000000	0.000000
9.543958	14.631072	19.322921	1.589388	-1.780791	2.829780	0.000000	-0.308480	0.000000	0.000004	0.000000	0.000000	0.000000
9.984918	13.432860	20.703523	1.138201	-1.338197	2.710999	0.000000	-0.230771	0.000000	0.000004	0.000000	0.000000	0.000000
10.425878	12.608211	21.665350	0.739016	-0.834715	2.625873	0.000000	-0.155690	0.000000	0.000004	0.000000	0.000000	0.000000
10.866838	12.119449	22.164640	0.373593	-0.293255	2.573432	0.000000	-0.082382	0.000000	0.000004	0.000000	0.000000	0.000000
11.309048	11.944108	22.178157	0.054425	0.207103	2.553060	0.000000	-0.016273	0.000000	0.000004	0.000000	0.000000	0.000000
11.606371	11.919168	22.059161	0.029458	0.193122	2.548222	0.000000	-0.016273	0.000000	0.000004	0.000000	0.000000	0.000000
12.086371	11.910235	21.884598	-0.010848	0.170551	2.540410	0.000000	-0.016273	0.000000	0.000004	0.000000	0.000000	0.000000
12.566371	11.939997	21.731703	-0.051154	0.147979	2.532599	0.000000	-0.016273	0.000000	0.000005	0.000000	0.000000	0.000000
13.046371	12.008452	21.600477	-0.091461	0.125408	2.524788	0.000000	-0.016273	0.000000	0.000005	0.000000	0.000000	0.000000
13.526371	12.115601	21.490919	-0.131767	0.102837	2.516976	0.000000	-0.016273	0.000000	0.000005	0.000000	0.000000	0.000000
14.007621	12.261875	21.402829	-0.172178	0.080207	2.509144	0.000000	-0.016273	0.000000	0.000005	0.000000	0.000000	0.000000
14.304943	12.371683	21.359291	-0.166807	0.013849	2.504306	0.000000	-0.022414	0.000000	0.000005	0.000000	0.000000	0.000000
14.745903	12.677434	21.113283	-0.529199	0.541920	2.510054	0.000000	0.048510	0.000000	0.000006	0.000001	0.000000	0.000000
15.186863	13.312198	20.410694	-0.915768	1.045334	2.547168	0.000000	0.119986	0.000000	0.000006	0.000001	0.000000	0.000000
15.627823	14.304977	19.283490	-1.344176	1.501186	2.616072	0.000000	0.192829	0.000000	0.000006	0.000001	0.000000	0.000000
16.068783	15.701127	17.782960	-1.833995	1.888736	2.717549	0.000000	0.267868	0.000000	0.000007	0.000001	0.000000	0.000000
16.514743	17.588089	15.955873	-2.412363	2.191097	2.854451	0.000000	0.346420	0.000000	0.000007	0.000001	0.000000	0.000000
17.063803	20.011483	13.915684	-1.975223	1.546621	3.020925	0.000000	0.259086	0.000000	0.000008	0.000001	0.000000	0.000000
17.612863	21.874926	12.518922	-1.398564	1.012309	3.138114	0.000000	0.167156	0.000000	0.000008	0.000001	0.000000	0.000000
18.161923	23.046793	11.666100	-0.723117	0.550100	3.203938	0.000000	0.072262	0.000000	0.000008	0.000000	0.000000	0.000000
18.710983	23.444310	11.296472	0.003408	0.127074	3.217230	0.000000	-0.023915	0.000000	0.000009	0.000000	0.000000	0.000000
19.009556	23.482666	11.211051	-0.070622	0.129509	3.212600	0.000000	-0.015509	0.000000	0.000009	0.000000	0.000000	0.000000
19.342889	23.534502	11.134789	-0.084887	0.099278	3.207430	0.000000	-0.015509	0.000000	0.000009	0.000000	0.000000	0.000000
19.676223	23.595849	11.078681	-0.099153	0.069047	3.202260	0.000000	-0.015509	0.000000	0.000009	0.000000	0.000000	0.000000
20.010806	23.667283	11.042493	-0.230733	0.093413	3.197091	0.000000	0.000331	0.000000	0.000009	0.000000	0.000000	0.000000
20.308129	23.808421	10.995020	-0.306167	0.094979	3.197189	0.000000	0.008684	0.000000	0.000009	0.000000	0.000000	0.000000
20.857189	23.733998	11.113105	0.440910	-0.311314	3.175737	0.000000	-0.086711	0.000000	0.000009	-0.000000	0.000000	0.000000
21.406249	22.851513	11.686833	1.156842	-0.739782	3.102253	0.000000	-0.180567	0.000000	0.000009	-0.000000	0.000000	0.000000
21.955309	21.223298	12.757071	1.791061	-1.220943	2.978041	0.000000	-0.271221	0.000000	0.000009	-0.000001	0.000000	0.000000
22.504369	18.964364	14.400050	2.298768	-1.789068	2.805303	0.000000	-0.357065	0.000000	0.000008	-0.000001	0.000000	0.000000
22.950329	17.184201	15.875049	1.707078	-1.504448	2.663361	0.000000	-0.279853	0.000000	0.000008	-0.000001	0.000000	0.000000
23.391289	15.907986	17.051014	1.198076	-1.152232	2.556280	0.000000	-0.206283	0.000000	0.000008	-0.000000	0.000000	0.000000
23.832249	15.054928	17.891960	0.743810	-0.747591	2.481092	0.000000	-0.135062	0.000000	0.000007	-0.000000	0.000000	0.000000
24.273209	14.586054	18.359626	0.323527	-0.308935	2.436940	0.000000	-0.065380	0.000000	0.000007	-0.000000	0.000000	0.000000
24.715418	14.480058	18.432486	-0.046555	0.098509	2.423320	0.000000	-0.002385	0.000000	0.000007	0.000000	0.000000	0.000000
25.012741	14.513859	18.378750	-0.067133	0.082222	2.422611	0.000000	-0.002385	0.000000	0.000007	0.000000	0.000000	0.000000
25.346075	14.566304	18.330022	-0.090203	0.063963	2.421816	0.000000	-0.002385	0.000000	0.000007	0.000000	0.000000	0.000000
25.679408	14.634130	18.293467	-0.113273	0.045703	2.421021	0.000000	-0.002385	0.000000	0.000007	0.000000	0.000000	0.000000
26.013991	14.717377	18.269386	-0.017032	-0.120835	2.420198	0.000000	-0.022019	0.000000	0.000007	0.000000	0.000000	0.000000
26.311314	14.733514	18.346150	-0.001112	-0.182334	2.413651	0.000000	-0.027938	0.000000	0.000007	0.000000	0.000000	0.000000
26.752274	14.916032	18.307957	-0.414371	0.268616	2.416443	0.000000	0.040611	0.000000	0.000007	0.000000	0.000000	0.000000
27.193234	15.469951	17.875953	-0.846561	0.707345	2.449535	0.000000	0.109622	0.000000	0.000008	0.000000	0.000000	0.000000
27.634194	16.420577	17.069794	-1.317428	1.113889	2.513304	0.000000	0.179882	0.000000	0.000008	0.000001	0.000000	0.000000
28.075154	17.811342	15.926159	-1.848484	1.469753	2.608476	0.000000	0.252191	0.000000	0.000008	0.000001	0.000000	0.000000
28.521114	19.729951	14.479858	-2.468954	1.759657	2.737739	0.000000	0.327815	0.000000	0.000009	0.000001	0.000000	0.000000
29.070174	22.168514	12.868306	-1.946096	1.192778	2.895063	0.000000	0.244410	0.000000	0.000009	0.000001	0.000000	0.000000
29.619234	23.953572	11.829229	-1.285775	0.710858	3.005334	0.000000	0.156671	0.000000	0.000009	0.000000	0.000000	0.000000
30.168294	24.959038	11.288614	-0.534634	0.279571	3.066596	0.000000	0.066152	0.000000	0.000009	0.000000	0.000000	0.000000
30.717354	25.113891	11.207957	0.254271	-0.131803	3.077762	0.000000	-0.025540	0.000000	0.000009	-0.000000	0.000000	0.000000
31.015927	25.004911	11.277214	0.176347	-0.129440	3.072537	0.000000	-0.017499	0.000000	0.000009	-0.000000	0.000000	0.000000
31.349260	24.891928	11.373525	0.162601	-0.159494	3.066704	0.000000	-0.017499	0.000000	0.000009	-0.000000	0.000000	0.000000
31.682593	24.788109	11.489872	0.148856	-0.189547	3.060871	0.000000	-0.017499	0.000000	0.000009	-0.000000	0.000000	0.000000
32.017177	24.693116	11.626804	0.135059	-0.219713	3.055017	0.000000	-0.017499	0.000000	0.000009	-0.000000	0.000000	0.000000
32.314499	24.616449	11.765425	0.058486	-0.215781	3.049814	0.000000	-0.009531	0.000000	0.000009	-0.000000	0.000000	0.000000
32.863559	24.130503	12.241664	0.821326	-0.656709	3.019698	0.000000	-0.100010	0.000000	0.000009	-0.000000	0.000000	0.000000
33.412619	22.833921	13.224785	1.526152	-1.144413	2.940317	0.000000	-0.188715	0.000000	0.000009	-0.000001	0.000000	0.000000
33.961679	20.818288	14.784814	2.123178	-1.713631	2.813081	0.000000	-0.274073	0.000000	0.000008	-0.000001	0.000000	0.000000
34.510739	18.225978	17.032869	2.570233	-2.404907	2.640246	0.000000	-0.354570	0.000000	0.000008	-0.000001	0.000000	0.000000
34.956699	16.210422	19.043633	1.965548	-2.085110	2.498464	0.000000	-0.281638	0.000000	0.000007	-0.000001	0.000000	0.000000
35.397659	14.707502	20.706337	1.455671	-1.671189	2.389656	0.000000	-0.212341	0.000000	0.000007	-0.000001	0.000000	0.000000
35.838619	13.623338	21.968945	1.012300	-1.181230	2.310842	0.000000	-0.145463	0.000000	0.000006	-0.000001	0.000000	0.000000
36.279579	12.908398	22.774007	0.615177	-0.637526	2.261127	0.000000	-0.080241	0.000000	0.000006	-0.000001	0.000000	0.000000
36.721789	12.529326	23.085198	0.276779	-0.121478	2.239916	0.000000	-0.021427	0.000000	0.000006	-0.000000	0.000000	0.000000
37.019112	12.372336	23.161320	0.251231	-0.134547	2.233545	0.000000	-0.021427	0.000000	0.000006	-0.000000	0.000000	0.000000
37.352445	12.214396	23.255902	0.222589	-0.149200	2.226403	0.000000	-0.021427	0.000000	0.000006	-0.000000	0.000000	0.000000
37.685779	12.075551	23.360252	0.193946	-0.163852	2.219261	0.000000	-0.021427	0.000000	0.000005	-0.000000	0.000000	0.000000
38.020362	11.955388	23.474817	0.165197	-0.178559	2.212092	0.000000	-0.021427	0.000000	0.000005	-0.000000	0.000000	0.000000
38.317684	11.864751	23.584883	0.168743	-0.249463	2.205722	0.000000	-0.026835	0.000000	0.000005	-0.000000	0.000000	0.000000
38.758644	11.867237	23.543668	-0.174404	0.342573	2.207816	0.000000	0.036344	0.000000	0.000005	-0.000000	0.000000	0.000000
39.199604	12.174709	22.985231	-0.525520	0.919022	2.237835	0.000000	0.099937	0.000000	0.000005	-0.000000	0.000000	0.000000
39.640564	12.801214	21.934978	-0.900645	1.453656	2.296120	0.000000	0.164669	0.000000	0.000005	-0.000000	0.000000	0.000000
40.081524	13.775375	20.440697	-1.316918	1.922150	2.383335	0.000000	0.231276	0.000000	0.000005	0.000000	0.000000	0.000000
40.527484	15.159267	18.547807	-1.797182	2.304468	2.501945	0.000000	0.300922	0.000000	0.000005	0.000000	0.000000	0.000000
41.076544	16.925409	16.420730	-1.400441	1.592432	2.646639	0.000000	0.225362	0.000000	0.000005	0.000000	0.000000	0.000000
41.625604	18.198651	15.009054	-0.904780	0.993822	2.748686	0.000000	0.145805	0.000000	0.000005	-0.000000	0.000000	0.000000
42.174664	18.889057	14.212227	-0.345210	0.466000	2.806276	0.000000	0.063662	0.000000	0.000005	-0.000000	0.000000	0.000000
42.723724	18.947861	13.973494	0.238744	-0.028630	2.818387	0.000000	-0.019611	0.000000	0.000005	-0.000000	0.000000	0.000000
43.022297	18.839731	13.975169	0.172917	-0.013490	2.814731	0.000000	-0.012247	0.000000	0.000005	-0.000000	0.000000	0.000000
43.502297	18.686325	14.004609	0.146677	-0.047842	2.808852	0.000000	-0.012247	0.000000	0.000004	-0.000000	0.000000	0.000000
43.982297	18.558110	14.067027	0.120438	-0.082195	2.802974	0.000000	-0.012247	0.000000	0.000004	-0.000000	0.000000	0.000000
44.462297	18.455085	14.162424	0.094198	-0.116548	2.797096	0.000000	-0.012247	0.000000	0.000004	-0.000000	0.000000	0.000000
44.942297	18.377251	14.290799	0.067958	-0.150901	2.791217	0.000000	-0.012247	0.000000	0.000004	-0.000000	0.000000	0.000000
45.423547	18.324729	14.452438	-0.049141	-0.113737	2.785341	0.000000	0.001553	0.000000	0.000004	-0.000000	0.000000	0.000000
45.720870	18.358786	14.526267	-0.113372	-0.096623	2.785803	0.000000	0.008832	0.000000	0.000003	-0.000000	0.000000	0.000000
46.269930	18.174153	14.913365	0.447654	-0.612558	2.768080	0.000000	-0.073294	0.000000	0.000003	-0.000000	0.000000	0.000000
46.818990	17.387241	15.887513	0.977060	-1.172125	2.705557	0.000000	-0.154120	0.000000	0.000003	-0.000001	0.000000	0.000000
47.368050	16.053635	17.518097	1.437452	-1.815179	2.599341	0.000000	-0.232212	0.000000	0.000003	-0.000001	0.000000	0.000000
47.917110	14.267533	19.921260	1.796309	-2.587525	2.451317	0.000000	-0.306185	0.000000	0.000002	-0.000001	0.000000	0.000000
48.363070	12.877528	22.057940	1.331618	-2.183524	2.330063	0.000000	-0.237887	0.000000	0.000002	-0.000001	0.000000	0.000000
48.804030	11.883340	23.768747	0.931533	-1.681446	2.239625	0.000000	-0.172694	0.000000	0.000002	-0.000001	0.000000	0.000000
49.244990	11.221966	25.001206	0.574007	-1.102863	2.177473	0.000000	-0.109469	0.000000	0.000001	-0.000001	0.000000	0.000000
49.685950	10.863189	25.699241	0.242706	-0.474101	2.142900	0.000000	-0.047491	0.000000	0.000001	-0.000001	0.000000	0.000000
50.128160	10.790746	25.830809	-0.051161	0.112838	2.135522	0.000000	0.008710	0.000000	0.000001	-0.000001	0.000000	0.000000
50.425482	10.829382	25.767176	-0.078786	0.101182	2.138112	0.000000	0.008710	0.000000	0.000001	-0.000001	0.000000	0.000000
50.758816	10.892230	25.704077	-0.109758	0.088113	2.141015	0.000000	0.008710	0.000000	0.000000	-0.000001	0.000000	0.000000
51.092149	10.975726	25.649692	-0.140729	0.075044	2.143919	0.000000	0.008710	0.000000	0.000000	-0.000001	0.000000	0.000000
51.426732	11.080074	25.604383	-0.081928	-0.145789	2.146811	0.000000	-0.008706	0.000000	-0.000000	-0.000001	0.000000	0.000000
51.724055	11.136824	25.694602	-0.081632	-0.220659	2.144223	0.000000	-0.013965	0.000000	-0.000000	-0.000001	0.000000	0.000000
52.165015	11.354209	25.603362	-0.413219	0.426784	2.151654	0.000000	0.047698	0.000000	-0.000000	-0.000001	0.000000	0.000000
52.605975	11.871216	24.947543	-0.763686	1.054810	2.186369	0.000000	0.109904	0.000000	-0.000001	-0.000001	0.000000	0.000000
53.046935	12.711465	23.756984	-1.149043	1.634842	2.248765	0.000000	0.173362	0.000000	-0.000001	-0.000001	0.000000	0.000000
53.487895	13.913345	22.085854	-1.586897	2.140490	2.339551	0.000000	0.238794	0.000000	-0.000001	-0.000001	0.000000	0.000000
53.933855	15.552367	19.985202	-2.101485	2.550083	2.461266	0.000000	0.307345	0.000000	-0.000002	-0.000001	0.000000	0.000000
54.482915	17.662529	17.621486	-1.718991	1.780352	2.609837	0.000000	0.233040	0.000000	-0.000002	-0.000001	0.000000	0.000000
55.031975	19.283101	16.028849	-1.215077	1.137431	2.716413	0.000000	0.154602	0.000000	-0.000002	-0.000001	0.000000	0.000000
55.581035	20.299615	15.093851	-0.625336	0.575527	2.779105	0.000000	0.073422	0.000000	-0.000003	-0.000000	0.000000	0.000000
56.130095	20.640270	14.749894	0.008576	0.054617	2.796801	0.000000	-0.009061	0.000000	-0.000003	-0.000000	0.000000	0.000000
56.428668	20.671681	14.700362	-0.059850	0.072739	2.796277	0.000000	-0.001753	0.000000	-0.000003	-0.000000	0.000000	0.000000
56.762001	20.716975	14.659468	-0.076032	0.049944	2.795693	0.000000	-0.001753	0.000000	-0.000003	-0.000000	0.000000	0.000000
57.095334	20.773057	14.633771	-0.092215	0.027148	2.795109	0.000000	-0.001753	0.000000	-0.000003	-0.000000	0.000000	0.000000
57.429918	20.840200	14.623260	-0.108459	0.004268	2.794523	0.000000	-0.001753	0.000000	-0.000003	-0.000000	0.000000	0.000000
57.727240	20.908986	14.626767	-0.177526	0.022153	2.794002	0.000000	0.005547	0.000000	-0.000003	-0.000000	0.000000	0.000000
58.276300	20.747187	14.883352	0.470466	-0.492230	2.774408	0.000000	-0.076814	0.000000	-0.000004	-0.000000	0.000000	0.000000
58.825360	19.887932	15.720615	1.085226	-1.041673	2.709902	0.000000	-0.157812	0.000000	-0.000004	-0.000000	0.000000	0.000000
59.374420	18.391916	17.198190	1.623332	-1.665312	2.601626	0.000000	-0.236012	0.000000	-0.000004	-0.000000	0.000000	0.000000
59.923480	16.364808	19.421322	2.046774	-2.407568	2.451501	0.000000	-0.310025	0.000000	-0.000004	0.000000	0.000000	0.000000
60.369440	14.778157	21.397303	1.523659	-2.004577	2.328532	0.000000	-0.241744	0.000000	-0.000004	-0.000000	0.000000	0.000000
60.810400	13.636863	22.953786	1.074364	-1.511752	2.236380	0.000000	-0.176614	0.000000	-0.000004	-0.000000	0.000000	0.000000
61.251360	12.868750	24.043531	0.674154	-0.950143	2.172478	0.000000	-0.113495	0.000000	-0.000004	-0.000000	0.000000	0.000000
61.692320	12.438727	24.616953	0.304744	-0.345304	2.136098	0.000000	-0.051668	0.000000	-0.000004	-0.000000	0.000000	0.000000
62.134530	12.327198	24.647427	-0.020614	0.214747	2.126831	0.000000	0.004354	0.000000	-0.000004	-0.000000	0.000000	0.000000
62.431853	12.346630	24.523481	-0.044743	0.202128	2.128125	0.000000	0.004354	0.000000	-0.000004	-0.000000	0.000000	0.000000
62.765186	12.385476	24.393445	-0.071795	0.187980	2.129577	0.000000	0.004354	0.000000	-0.000005	-0.000000	0.000000	0.000000
63.098520	12.442357	24.272841	-0.098847	0.173832	2.131028	0.000000	0.004354	0.000000	-0.000005	-0.000000	0.000000	0.000000
63.433103	12.517587	24.161270	-0.126001	0.159631	2.132485	0.000000	0.004354	0.000000	-0.000005	-0.000000	0.000000	0.000000
63.730426	12.599687	24.070098	-0.119231	0.087982	2.133780	0.000000	-0.000879	0.000000	-0.000005	-0.000000	0.000000	0.000000
64.171386	12.865260	23.727411	-0.485316	0.686198	2.146932	0.000000	0.060588	0.000000	-0.000005	-0.000001	0.000000	0.000000
64.612346	13.462211	22.868951	-0.873573	1.253192	2.187315	0.000000	0.122746	0.000000	-0.000005	-0.000001	0.000000	0.000000
65.053306	14.417812	21.533777	-1.301742	1.763167	2.255389	0.000000	0.186301	0.000000	-0.000006	-0.000001	0.000000	0.000000
65.494266	15.775723	19.782638	-1.789383	2.192919	2.351930	0.000000	0.251978	0.000000	-0.000006	-0.000001	0.000000	0.000000
65.940226	17.621148	17.670425	-2.363470	2.523651	2.479608	0.000000	0.320927	0.000000	-0.000007	-0.000001	0.000000	0.000000
66.489286	19.986711	15.307471	-1.919416	1.805388	2.635452	0.000000	0.245910	0.000000	-0.000007	-0.000001	0.000000	0.000000
67.038346	21.786863	13.658436	-1.339784	1.215719	2.748847	0.000000	0.166532	0.000000	-0.000008	-0.000001	0.000000	0.000000
67.587406	22.894449	12.605863	-0.665516	0.712643	2.817782	0.000000	0.084200	0.000000	-0.000008	-0.000000	0.000000	0.000000
68.136466	23.231235	12.074779	0.055760	0.260327	2.841034	0.000000	0.000374	0.000000	-0.000008	-0.000000	0.000000	0.000000
68.435038	23.238025	11.908497	-0.017796	0.265045	2.843362	0.000000	0.007797	0.000000	-0.000008	-0.000000	0.000000	0.000000
68.768372	23.254672	11.741786	-0.032145	0.235087	2.845962	0.000000	0.007797	0.000000	-0.000008	-0.000000	0.000000	0.000000
69.101705	23.280884	11.595047	-0.046494	0.205130	2.848561	0.000000	0.007797	0.000000	-0.000008	-0.000000	0.000000	0.000000
69.436288	23.316815	11.467842	-0.060896	0.175060	2.851170	0.000000	0.007797	0.000000	-0.000008	-0.000000	0.000000	0.000000
69.733611	23.356832	11.371689	-0.134726	0.178053	2.853488	0.000000	0.015254	0.000000	-0.000008	-0.000000	0.000000	0.000000
70.282671	23.103642	11.403859	0.593131	-0.236989	2.838680	0.000000	-0.069112	0.000000	-0.000009	0.000000	0.000000	0.000000
