#ParticleID	Turn	x[m]	xp	y[m]	yp	z[m]	dE[GeV]# s	beta_x	beta_y	alpha_x	alpha_y	D_x	D_y	D_px	D_py	orbit_x	orbit_px	orbit_y	orbit_py
0.300000	11.800860	25.067414	-0.009927	-0.026628	2.618454	0.000000	-0.000120	0.000000	-0.000002	0.000002	0.000000	0.000000
0.601250	11.814532	25.087080	-0.035458	-0.038654	2.618417	0.000000	-0.000120	0.000000	-0.000001	0.000002	0.000000	0.000000
0.898573	11.843108	25.113595	-0.031612	-0.112109	2.618381	0.000000	-0.006541	0.000000	-0.000000	0.000002	0.000000	0.000000
1.339533	12.022967	24.933863	-0.377813	0.518151	2.631791	0.000000	0.067423	0.000000	0.000000	0.000002	0.000000	0.000000
1.780493	12.514575	24.206604	-0.741276	1.124835	2.677953	0.000000	0.142154	0.000000	0.000001	0.000002	0.000000	0.000000
2.221453	13.340395	22.964908	-1.138605	1.680341	2.757395	0.000000	0.218504	0.000000	0.000002	0.000002	0.000000	0.000000
2.662413	14.538155	21.265272	-1.587954	2.159392	2.871020	0.000000	0.297343	0.000000	0.000003	0.000002	0.000000	0.000000
3.108373	16.183287	19.160105	-2.114135	2.541326	3.021983	0.000000	0.380058	0.000000	0.000004	0.000002	0.000000	0.000000
3.657433	18.292955	16.795623	-1.705445	1.790512	3.205386	0.000000	0.287022	0.000000	0.000005	0.000002	0.000000	0.000000
4.206493	19.884623	15.181174	-1.176290	1.167231	3.336230	0.000000	0.188894	0.000000	0.000006	0.000002	0.000000	0.000000
4.755553	20.845864	14.201766	-0.564048	0.627090	3.412196	0.000000	0.087416	0.000000	0.000007	0.000002	0.000000	0.000000
5.304613	21.108781	13.787636	0.088035	0.131615	3.431937	0.000000	-0.015613	0.000000	0.000008	0.000001	0.000000	0.000000
5.603185	21.093371	13.694180	0.018726	0.145373	3.429952	0.000000	-0.006647	0.000000	0.000009	0.000001	0.000000	0.000000
5.936519	21.086157	13.605550	0.002918	0.120517	3.427736	0.000000	-0.006647	0.000000	0.000009	0.000001	0.000000	0.000000
6.269852	21.089481	13.533490	-0.012891	0.095662	3.425520	0.000000	-0.006647	0.000000	0.000010	0.000001	0.000000	0.000000
6.604435	21.103416	13.477824	-0.028758	0.070713	3.423296	0.000000	-0.006647	0.000000	0.000010	0.000001	0.000000	0.000000
6.901758	21.124710	13.442367	-0.098049	0.083662	3.421319	0.000000	0.002292	0.000000	0.000010	0.000001	0.000000	0.000000
7.450818	20.872395	13.611493	0.554869	-0.393509	3.394379	0.000000	-0.100276	0.000000	0.000011	0.000001	0.000000	0.000000
7.999878	19.920475	14.316835	1.168594	-0.898708	3.311529	0.000000	-0.201065	0.000000	0.000012	0.000001	0.000000	0.000000
8.548938	18.336189	15.608632	1.699776	-1.467921	3.174239	0.000000	-0.298288	0.000000	0.000012	0.000000	0.000000	0.000000
9.097998	16.231444	17.578895	2.110893	-2.141690	2.984944	0.000000	-0.390220	0.000000	0.000012	-0.000000	0.000000	0.000000
9.543958	14.589416	19.334462	1.584206	-1.778270	2.829225	0.000000	-0.308528	0.000000	0.000012	0.000000	0.000000	0.000000
9.984918	13.395247	20.712612	1.134179	-1.335177	2.710420	0.000000	-0.230833	0.000000	0.000012	0.000001	0.000000	0.000000
10.425878	12.573703	21.671606	0.735969	-0.831334	2.625263	0.000000	-0.155767	0.000000	0.000013	0.000001	0.000000	0.000000
10.866838	12.087251	22.167810	0.371384	-0.289666	2.572785	0.000000	-0.082476	0.000000	0.000013	0.000001	0.000000	0.000000
11.309048	11.913532	22.178121	0.052873	0.210741	2.552367	0.000000	-0.016382	0.000000	0.000014	0.000002	0.000000	0.000000
11.606371	11.889532	22.056968	0.027846	0.196739	2.547496	0.000000	-0.016382	0.000000	0.000014	0.000002	0.000000	0.000000
12.086371	11.882194	21.878949	-0.012557	0.174135	2.539631	0.000000	-0.016382	0.000000	0.000015	0.000002	0.000000	0.000000
12.566371	11.913642	21.722629	-0.052960	0.151531	2.531767	0.000000	-0.016382	0.000000	0.000016	0.000002	0.000000	0.000000
13.046371	11.983876	21.588010	-0.093363	0.128927	2.523903	0.000000	-0.016382	0.000000	0.000016	0.000002	0.000000	0.000000
13.526371	12.092898	21.475090	-0.133766	0.106323	2.516039	0.000000	-0.016382	0.000000	0.000017	0.000002	0.000000	0.000000
14.007621	12.241142	21.383661	-0.174274	0.083660	2.508155	0.000000	-0.016382	0.000000	0.000018	0.000002	0.000000	0.000000
14.304943	12.352214	21.338076	-0.169014	0.017340	2.503284	0.000000	-0.022520	0.000000	0.000018	0.000002	0.000000	0.000000
14.745903	12.659742	21.089264	-0.531035	0.544764	2.508978	0.000000	0.048377	0.000000	0.000019	0.000002	0.000000	0.000000
15.186863	13.295994	20.384500	-0.917317	1.047402	2.546027	0.000000	0.119825	0.000000	0.000020	0.000002	0.000000	0.000000
15.627823	14.290040	19.255852	-1.345509	1.502383	2.614853	0.000000	0.192638	0.000000	0.000021	0.000003	0.000000	0.000000
16.068783	15.687294	17.754671	-1.835174	1.889007	2.716238	0.000000	0.267644	0.000000	0.000023	0.000004	0.000000	0.000000
16.514743	17.575259	15.927764	-2.413441	2.190424	2.853031	0.000000	0.346161	0.000000	0.000025	0.000004	0.000000	0.000000
17.063803	20.000225	13.887960	-1.976988	1.546588	3.019374	0.000000	0.258875	0.000000	0.000027	0.000003	0.000000	0.000000
17.612863	21.865928	12.490886	-1.400889	1.012912	3.136460	0.000000	0.166997	0.000000	0.000028	0.000002	0.000000	0.000000
18.161923	23.040585	11.637033	-0.725839	0.551384	3.202210	0.000000	0.072157	0.000000	0.000029	0.000002	0.000000	0.000000
18.710983	23.441222	11.265583	0.000481	0.129130	3.215460	0.000000	-0.023963	0.000000	0.000030	0.000001	0.000000	0.000000
19.009556	23.481317	11.179013	-0.073536	0.131388	3.210813	0.000000	-0.015563	0.000000	0.000030	0.000001	0.000000	0.000000
19.342889	23.535098	11.101532	-0.087808	0.101055	3.205625	0.000000	-0.015563	0.000000	0.000030	0.000001	0.000000	0.000000
19.676223	23.598394	11.044273	-0.102081	0.070723	3.200437	0.000000	-0.015563	0.000000	0.000031	0.000001	0.000000	0.000000
20.010806	23.671789	11.006998	-0.233690	0.094812	3.195250	0.000000	0.000268	0.000000	0.000031	0.000001	0.000000	0.000000
20.308129	23.814690	10.958722	-0.309143	0.096183	3.195329	0.000000	0.008614	0.000000	0.000031	0.000001	0.000000	0.000000
20.857189	23.743406	11.074921	0.438204	-0.309064	3.173855	0.000000	-0.086720	0.000000	0.000031	-0.000000	0.000000	0.000000
21.406249	22.863654	11.645535	1.154599	-0.736325	3.100383	0.000000	-0.180516	0.000000	0.000031	-0.000001	0.000000	0.000000
21.955309	21.237574	12.711207	1.789438	-1.216033	2.976216	0.000000	-0.271110	0.000000	0.000030	-0.000002	0.000000	0.000000
22.504369	18.980025	14.347842	2.297880	-1.782356	2.803557	0.000000	-0.356896	0.000000	0.000029	-0.000003	0.000000	0.000000
22.950329	17.200744	15.817383	1.705978	-1.498971	2.661681	0.000000	-0.279728	0.000000	0.000027	-0.000002	0.000000	0.000000
23.391289	15.925610	16.989154	1.196714	-1.148235	2.554646	0.000000	-0.206201	0.000000	0.000027	-0.000002	0.000000	0.000000
23.832249	15.073889	17.827297	0.742125	-0.745255	2.479485	0.000000	-0.135022	0.000000	0.000026	-0.000001	0.000000	0.000000
24.273209	14.606671	18.293676	0.321442	-0.308366	2.435342	0.000000	-0.065381	0.000000	0.000026	-0.000000	0.000000	0.000000
24.715418	14.502730	18.366829	-0.049086	0.097454	2.421712	0.000000	-0.002422	0.000000	0.000026	0.000000	0.000000	0.000000
25.012741	14.538029	18.313737	-0.069636	0.081112	2.420992	0.000000	-0.002422	0.000000	0.000026	0.000000	0.000000	0.000000
25.346075	14.592133	18.265770	-0.092676	0.062791	2.420184	0.000000	-0.002422	0.000000	0.000026	0.000000	0.000000	0.000000
25.679408	14.661597	18.230016	-0.115715	0.044470	2.419377	0.000000	-0.002422	0.000000	0.000026	0.000000	0.000000	0.000000
26.013991	14.746468	18.206781	-0.019208	-0.121622	2.418542	0.000000	-0.022043	0.000000	0.000026	0.000000	0.000000	0.000000
26.311314	14.763887	18.284030	-0.003182	-0.183021	2.411988	0.000000	-0.027956	0.000000	0.000026	0.000000	0.000000	0.000000
26.752274	14.948565	18.247185	-0.417216	0.266259	2.414762	0.000000	0.040549	0.000000	0.000026	0.000001	0.000000	0.000000
27.193234	15.505381	17.817960	-0.850311	0.703424	2.447816	0.000000	0.109517	0.000000	0.000027	0.000001	0.000000	0.000000
27.634194	16.459776	17.015884	-1.322255	1.108584	2.511529	0.000000	0.179732	0.000000	0.000028	0.000002	0.000000	0.000000
28.075154	17.855353	15.877451	-1.854609	1.463305	2.606624	0.000000	0.251993	0.000000	0.000029	0.000003	0.000000	0.000000
28.521114	19.780112	14.437306	-2.476670	1.752357	2.735787	0.000000	0.327568	0.000000	0.000030	0.000004	0.000000	0.000000
29.070174	22.226469	12.832821	-1.952487	1.187130	2.892993	0.000000	0.244229	0.000000	0.000032	0.000003	0.000000	0.000000
29.619234	24.017607	11.799228	-1.290390	0.706459	3.003182	0.000000	0.156558	0.000000	0.000033	0.000002	0.000000	0.000000
30.168294	25.027010	11.262906	-0.537146	0.276107	3.064400	0.000000	0.066110	0.000000	0.000034	0.000000	0.000000	0.000000
30.717354	25.183378	11.185654	0.254039	-0.134578	3.075562	0.000000	-0.025511	0.000000	0.000034	-0.000001	0.000000	0.000000
31.015927	25.074626	11.256627	0.175982	-0.132349	3.070344	0.000000	-0.017477	0.000000	0.000033	-0.000001	0.000000	0.000000
31.349260	24.961873	11.354903	0.162277	-0.162479	3.064518	0.000000	-0.017477	0.000000	0.000033	-0.000001	0.000000	0.000000
31.682593	24.858257	11.473267	0.148571	-0.192610	3.058693	0.000000	-0.017477	0.000000	0.000033	-0.000001	0.000000	0.000000
32.017177	24.763441	11.612274	0.134814	-0.222854	3.052845	0.000000	-0.017477	0.000000	0.000033	-0.000001	0.000000	0.000000
32.314499	24.686909	11.752784	0.058105	-0.219031	3.047649	0.000000	-0.009517	0.000000	0.000033	-0.000000	0.000000	0.000000
32.863559	24.200096	12.232474	0.823276	-0.659782	3.017560	0.000000	-0.099926	0.000000	0.000032	-0.000001	0.000000	0.000000
33.412619	22.900148	13.218973	1.530295	-1.147528	2.938245	0.000000	-0.188564	0.000000	0.000031	-0.000003	0.000000	0.000000
33.961679	20.878887	14.782548	2.129221	-1.717010	2.811111	0.000000	-0.273856	0.000000	0.000029	-0.000004	0.000000	0.000000
34.510739	18.279085	17.034568	2.577750	-2.408792	2.638414	0.000000	-0.354292	0.000000	0.000027	-0.000004	0.000000	0.000000
34.956699	16.257569	19.048960	1.971443	-2.089328	2.496747	0.000000	-0.281405	0.000000	0.000025	-0.000004	0.000000	0.000000
35.397659	14.750058	20.715461	1.460227	-1.675544	2.388033	0.000000	-0.212151	0.000000	0.000024	-0.000003	0.000000	0.000000
35.838619	13.662388	21.981897	1.015724	-1.185524	2.309295	0.000000	-0.145314	0.000000	0.000023	-0.000002	0.000000	0.000000
36.279579	12.944867	22.790648	0.617628	-0.641564	2.259637	0.000000	-0.080132	0.000000	0.000022	-0.000002	0.000000	0.000000
36.721789	12.564016	23.105228	0.278448	-0.125116	2.238466	0.000000	-0.021350	0.000000	0.000021	-0.000001	0.000000	0.000000
37.019112	12.406020	23.183513	0.252948	-0.138186	2.232119	0.000000	-0.021350	0.000000	0.000021	-0.000001	0.000000	0.000000
37.352445	12.246917	23.280522	0.224360	-0.152839	2.225003	0.000000	-0.021350	0.000000	0.000020	-0.000001	0.000000	0.000000
37.685779	12.106872	23.387298	0.195773	-0.167491	2.217886	0.000000	-0.021350	0.000000	0.000020	-0.000001	0.000000	0.000000
38.020362	11.985469	23.504299	0.167078	-0.182199	2.210744	0.000000	-0.021350	0.000000	0.000019	-0.000001	0.000000	0.000000
38.317684	11.893698	23.616528	0.170740	-0.253173	2.204396	0.000000	-0.026755	0.000000	0.000019	-0.000001	0.000000	0.000000
38.758644	11.894711	23.578205	-0.173046	0.339752	2.206519	0.000000	0.036390	0.000000	0.000018	-0.000001	0.000000	0.000000
39.199604	12.201244	23.021813	-0.524738	0.917219	2.236551	0.000000	0.099950	0.000000	0.000018	-0.000001	0.000000	0.000000
39.640564	12.827300	21.972670	-0.900404	1.452953	2.294835	0.000000	0.164649	0.000000	0.000018	-0.000000	0.000000	0.000000
40.081524	13.801482	20.478509	-1.317207	1.922579	2.382033	0.000000	0.231223	0.000000	0.000018	0.000000	0.000000	0.000000
40.527484	15.185876	18.584732	-1.798018	2.306017	2.500612	0.000000	0.300835	0.000000	0.000018	0.000001	0.000000	0.000000
41.076544	16.952368	16.456503	-1.400239	1.592994	2.645270	0.000000	0.225319	0.000000	0.000018	0.000000	0.000000	0.000000
41.625604	18.224821	15.044731	-0.903554	0.993436	2.747305	0.000000	0.145806	0.000000	0.000018	-0.000000	0.000000	0.000000
42.174664	18.913354	14.248858	-0.343046	0.464639	2.804908	0.000000	0.063707	0.000000	0.000018	-0.000001	0.000000	0.000000
42.723724	18.969334	14.012195	0.241693	-0.031063	2.817057	0.000000	-0.019521	0.000000	0.000017	-0.000001	0.000000	0.000000
43.022297	18.859474	14.015247	0.175816	-0.015765	2.813426	0.000000	-0.012162	0.000000	0.000017	-0.000001	0.000000	0.000000
43.502297	18.703285	14.046825	0.149578	-0.050022	2.807589	0.000000	-0.012162	0.000000	0.000016	-0.000001	0.000000	0.000000
43.982297	18.572284	14.111289	0.123340	-0.084279	2.801752	0.000000	-0.012162	0.000000	0.000015	-0.000001	0.000000	0.000000
44.462297	18.466472	14.208640	0.097102	-0.118536	2.795915	0.000000	-0.012162	0.000000	0.000015	-0.000001	0.000000	0.000000
44.942297	18.385849	14.338878	0.070863	-0.152793	2.790077	0.000000	-0.012162	0.000000	0.000014	-0.000001	0.000000	0.000000
45.423547	18.330530	14.502291	-0.046263	-0.115286	2.784242	0.000000	0.001633	0.000000	0.000013	-0.000001	0.000000	0.000000
45.720870	18.362873	14.577022	-0.110491	-0.097977	2.784728	0.000000	0.008908	0.000000	0.000013	-0.000001	0.000000	0.000000
46.269930	18.175026	14.966461	0.450590	-0.615493	2.767057	0.000000	-0.073184	0.000000	0.000012	-0.000002	0.000000	0.000000
46.818990	17.384955	15.944789	0.979843	-1.176848	2.704604	0.000000	-0.153978	0.000000	0.000011	-0.000002	0.000000	0.000000
47.368050	16.048466	17.581689	1.439886	-1.822028	2.598475	0.000000	-0.232040	0.000000	0.000010	-0.000002	0.000000	0.000000
47.917110	14.259963	19.993756	1.798221	-2.596986	2.450554	0.000000	-0.305987	0.000000	0.000008	-0.000003	0.000000	0.000000
48.363070	12.868277	22.138181	1.333486	-2.191358	2.329385	0.000000	-0.237707	0.000000	0.000007	-0.000003	0.000000	0.000000
48.804030	11.872430	23.855049	0.933443	-1.687302	2.239022	0.000000	-0.172532	0.000000	0.000006	-0.000002	0.000000	0.000000
49.244990	11.209320	25.091699	0.576047	-1.106476	2.176940	0.000000	-0.109321	0.000000	0.000005	-0.000002	0.000000	0.000000
49.685950	10.848653	25.791866	0.244969	-0.475305	2.142429	0.000000	-0.047356	0.000000	0.000004	-0.000002	0.000000	0.000000
50.128160	10.774071	25.923407	-0.048613	0.113873	2.135109	0.000000	0.008835	0.000000	0.000003	-0.000002	0.000000	0.000000
50.425482	10.811203	25.859147	-0.076274	0.102255	2.137737	0.000000	0.008835	0.000000	0.000003	-0.000002	0.000000	0.000000
50.758816	10.872390	25.795319	-0.107286	0.089229	2.140682	0.000000	0.008835	0.000000	0.000002	-0.000002	0.000000	0.000000
51.092149	10.954251	25.740174	-0.138298	0.076204	2.143628	0.000000	0.008835	0.000000	0.000001	-0.000002	0.000000	0.000000
51.426732	11.056986	25.694076	-0.079724	-0.145313	2.146563	0.000000	-0.008579	0.000000	0.000000	-0.000002	0.000000	0.000000
51.724055	11.112439	25.783999	-0.079534	-0.220359	2.144013	0.000000	-0.013837	0.000000	-0.000000	-0.000002	0.000000	0.000000
52.165015	11.327714	25.691451	-0.410514	0.429439	2.151499	0.000000	0.047821	0.000000	-0.000001	-0.000002	0.000000	0.000000
52.605975	11.842022	25.032293	-0.760250	1.059698	2.186268	0.000000	0.110023	0.000000	-0.000002	-0.000002	0.000000	0.000000
53.046935	12.678862	23.836516	-1.144719	1.641741	2.248717	0.000000	0.173479	0.000000	-0.000003	-0.000002	0.000000	0.000000
53.487895	13.876466	22.158527	-1.581487	2.149087	2.339555	0.000000	0.238911	0.000000	-0.000004	-0.000002	0.000000	0.000000
53.933855	15.510083	20.049588	-2.094732	2.559990	2.461323	0.000000	0.307462	0.000000	-0.000005	-0.000002	0.000000	0.000000
54.482915	17.613400	17.676411	-1.713352	1.787778	2.609959	0.000000	0.233155	0.000000	-0.000006	-0.000002	0.000000	0.000000
55.031975	19.228578	16.076732	-1.210950	1.142906	2.716598	0.000000	0.154712	0.000000	-0.000007	-0.000002	0.000000	0.000000
55.581035	20.241530	15.136610	-0.623013	0.579441	2.779349	0.000000	0.073525	0.000000	-0.000008	-0.000002	0.000000	0.000000
56.130095	20.580705	14.789081	0.008930	0.057247	2.797099	0.000000	-0.008967	0.000000	-0.000009	-0.000001	0.000000	0.000000
56.428668	20.611826	14.737903	-0.059384	0.075517	2.796605	0.000000	-0.001658	0.000000	-0.000010	-0.000001	0.000000	0.000000
56.762001	20.656825	14.695140	-0.075613	0.052771	2.796053	0.000000	-0.001658	0.000000	-0.000010	-0.000001	0.000000	0.000000
57.095334	20.712643	14.667542	-0.091842	0.030024	2.795501	0.000000	-0.001658	0.000000	-0.000011	-0.000001	0.000000	0.000000
57.429918	20.779551	14.655090	-0.108132	0.007193	2.794946	0.000000	-0.001658	0.000000	-0.000011	-0.000001	0.000000	0.000000
57.727240	20.848155	14.656845	-0.177085	0.025203	2.794454	0.000000	0.005644	0.000000	-0.000011	-0.000001	0.000000	0.000000
58.276300	20.686992	14.910538	0.468872	-0.489980	2.774910	0.000000	-0.076732	0.000000	-0.000012	-0.000001	0.000000	0.000000
58.825360	19.830558	15.745694	1.081711	-1.040063	2.710444	0.000000	-0.157748	0.000000	-0.000013	-0.000001	0.000000	0.000000
59.374420	18.339350	17.221799	1.618143	-1.664228	2.602199	0.000000	-0.235965	0.000000	-0.000013	-0.000000	0.000000	0.000000
59.923480	16.318696	19.443992	2.040277	-2.406931	2.452095	0.000000	-0.309997	0.000000	-0.000013	0.000000	0.000000	0.000000
60.369440	14.737204	21.419035	1.518547	-2.003119	2.329142	0.000000	-0.241701	0.000000	-0.000013	-0.000000	0.000000	0.000000
60.810400	13.599900	22.973897	1.070391	-1.509546	2.237013	0.000000	-0.176554	0.000000	-0.000013	-0.000001	0.000000	0.000000
61.251360	12.834858	24.061400	0.671139	-0.947289	2.173141	0.000000	-0.113419	0.000000	-0.000014	-0.000001	0.000000	0.000000
61.692320	12.407122	24.632066	0.302549	-0.341931	2.136798	0.000000	-0.051575	0.000000	-0.000014	-0.000001	0.000000	0.000000
62.134530	12.297208	24.659383	-0.022159	0.218450	2.127576	0.000000	0.004464	0.000000	-0.000015	-0.000002	0.000000	0.000000
62.431853	12.317577	24.533239	-0.046349	0.205818	2.128904	0.000000	0.004464	0.000000	-0.000015	-0.000002	0.000000	0.000000
62.765186	12.357517	24.400748	-0.073469	0.191655	2.130392	0.000000	0.004464	0.000000	-0.000016	-0.000002	0.000000	0.000000
63.098520	12.415536	24.277699	-0.100588	0.177492	2.131881	0.000000	0.004464	0.000000	-0.000016	-0.000002	0.000000	0.000000
63.433103	12.491954	24.163683	-0.127810	0.163277	2.133375	0.000000	0.004464	0.000000	-0.000017	-0.000002	0.000000	0.000000
63.730426	12.575148	24.070347	-0.121157	0.091607	2.134702	0.000000	-0.000772	0.000000	-0.000017	-0.000002	0.000000	0.000000
64.171386	12.842190	23.724491	-0.486734	0.689734	2.147908	0.000000	0.060720	0.000000	-0.000018	-0.000002	0.000000	0.000000
64.612346	13.440192	22.863011	-0.874548	1.256480	2.188355	0.000000	0.122903	0.000000	-0.000019	-0.000002	0.000000	0.000000
65.053306	14.396474	21.525102	-1.302318	1.766056	2.256506	0.000000	0.186486	0.000000	-0.000020	-0.000003	0.000000	0.000000
65.494266	15.754727	19.771640	-1.789587	2.195279	2.353135	0.000000	0.252193	0.000000	-0.000021	-0.000003	0.000000	0.000000
65.940226	17.600169	17.657602	-2.363308	2.525367	2.480917	0.000000	0.321174	0.000000	-0.000023	-0.000004	0.000000	0.000000
66.489286	19.966047	15.292754	-1.920149	1.807143	2.636886	0.000000	0.246113	0.000000	-0.000025	-0.000003	0.000000	0.000000
67.038346	21.767474	13.641714	-1.341361	1.217638	2.750381	0.000000	0.166687	0.000000	-0.000027	-0.000002	0.000000	0.000000
67.587406	22.877206	12.586882	-0.667826	0.714862	2.819388	0.000000	0.084304	0.000000	-0.000028	-0.000002	0.000000	0.000000
68.136466	23.216857	12.053126	0.052882	0.263004	2.842684	0.000000	0.000425	0.000000	-0.000028	-0.000001	0.000000	0.000000
68.435038	23.225351	11.885301	-0.020655	0.267585	2.845029	0.000000	0.007855	0.000000	-0.000029	-0.000001	0.000000	0.000000
68.768372	23.243908	11.716929	-0.035013	0.237531	2.847647	0.000000	0.007855	0.000000	-0.000029	-0.000001	0.000000	0.000000
69.101705	23.272036	11.568594	-0.049372	0.207477	2.850266	0.000000	0.007855	0.000000	-0.000029	-0.000001	0.000000	0.000000
69.436288	23.309896	11.439850	-0.063784	0.177310	2.852894	0.000000	0.007855	0.000000	-0.000029	-0.000001	0.000000	0.000000
69.733611	23.351632	11.342384	-0.137619	0.180146	2.855230	0.000000	0.015317	0.000000	-0.000030	-0.000001	0.000000	0.000000
70.282671	23.101687	11.371798	0.590149	-0.234033	2.840441	0.000000	-0.069106	0.000000	-0.000030	0.000000	0.000000	0.000000
