#ParticleID	Turn	x[m]	xp	y[m]	yp	z[m]	dE[GeV]# s	beta_x	beta_y	alpha_x	alpha_y	D_x	D_y	D_px	D_py	orbit_x	orbit_px	orbit_y	orbit_py
0.300000	11.812069	25.025054	-0.010889	-0.027190	2.618131	0.000000	0.000004	0.000000	-0.000001	0.000001	0.000000	0.000000
0.601250	11.826313	25.045065	-0.036395	-0.039237	2.618132	0.000000	0.000004	0.000000	-0.000000	0.000001	0.000000	0.000000
0.898573	11.855440	25.071932	-0.032496	-0.112610	2.618133	0.000000	-0.006416	0.000000	0.000000	0.000001	0.000000	0.000000
1.339533	12.036208	24.893127	-0.379001	0.516559	2.631597	0.000000	0.067542	0.000000	0.000001	0.000001	0.000000	0.000000
1.780493	12.529018	24.167727	-0.742822	1.122226	2.677811	0.000000	0.142269	0.000000	0.000001	0.000001	0.000000	0.000000
2.221453	13.356384	22.928740	-1.140580	1.676832	2.757303	0.000000	0.218616	0.000000	0.000002	0.000001	0.000000	0.000000
2.662413	14.556107	21.232538	-1.590448	2.155143	2.870977	0.000000	0.297453	0.000000	0.000002	0.000001	0.000000	0.000000
3.108373	16.203739	19.131421	-2.117267	2.536530	3.021990	0.000000	0.380168	0.000000	0.000003	0.000001	0.000000	0.000000
3.657433	18.316562	16.771548	-1.708025	1.786863	3.205452	0.000000	0.287130	0.000000	0.000004	0.000001	0.000000	0.000000
4.206493	19.910674	15.160598	-1.178136	1.164471	3.336356	0.000000	0.188999	0.000000	0.000004	0.000001	0.000000	0.000000
4.755553	20.873476	14.183825	-0.565029	0.625021	3.412379	0.000000	0.087516	0.000000	0.000005	0.000001	0.000000	0.000000
5.304613	21.136960	13.771656	0.087988	0.130090	3.432173	0.000000	-0.015519	0.000000	0.000005	0.000001	0.000000	0.000000
5.603185	21.121617	13.679139	0.018623	0.143793	3.430217	0.000000	-0.006552	0.000000	0.000006	0.000001	0.000000	0.000000
5.936519	21.114464	13.591568	0.002836	0.118921	3.428032	0.000000	-0.006552	0.000000	0.000006	0.000001	0.000000	0.000000
6.269852	21.117836	13.520578	-0.012951	0.094049	3.425848	0.000000	-0.006552	0.000000	0.000006	0.000001	0.000000	0.000000
6.604435	21.131804	13.465996	-0.028797	0.069084	3.423656	0.000000	-0.006552	0.000000	0.000007	0.000001	0.000000	0.000000
6.901758	21.153115	13.431512	-0.098145	0.081991	3.421707	0.000000	0.002388	0.000000	0.000007	0.000001	0.000000	0.000000
7.450818	20.900384	13.602313	0.555719	-0.394907	3.394817	0.000000	-0.100194	0.000000	0.000007	0.000001	0.000000	0.000000
7.999878	19.947036	14.309086	1.170330	-0.899933	3.312008	0.000000	-0.200998	0.000000	0.000008	0.000000	0.000000	0.000000
8.548938	18.360412	15.602173	1.702274	-1.469060	3.174751	0.000000	-0.298237	0.000000	0.000008	0.000000	0.000000	0.000000
9.097998	16.252582	17.573678	2.113979	-2.142825	2.985480	0.000000	-0.390186	0.000000	0.000008	-0.000000	0.000000	0.000000
9.543958	14.608098	19.330382	1.586646	-1.779678	2.829779	0.000000	-0.308479	0.000000	0.000008	0.000000	0.000000	0.000000
9.984918	13.412018	20.709870	1.136090	-1.336790	2.710999	0.000000	-0.230770	0.000000	0.000008	0.000000	0.000000	0.000000
10.425878	12.588988	21.670351	0.737439	-0.833080	2.625873	0.000000	-0.155689	0.000000	0.000008	0.000001	0.000000	0.000000
10.866838	12.101408	22.168125	0.372480	-0.291466	2.573433	0.000000	-0.082381	0.000000	0.000008	0.000001	0.000000	0.000000
11.309048	11.926866	22.180021	0.053679	0.208963	2.553061	0.000000	-0.016272	0.000000	0.000009	0.000001	0.000000	0.000000
11.606371	11.902380	22.059922	0.028678	0.194972	2.548223	0.000000	-0.016272	0.000000	0.000009	0.000001	0.000000	0.000000
12.086371	11.894222	21.883590	-0.011683	0.172386	2.540412	0.000000	-0.016272	0.000000	0.000009	0.000001	0.000000	0.000000
12.566371	11.924811	21.728940	-0.052044	0.149800	2.532601	0.000000	-0.016272	0.000000	0.000010	0.000001	0.000000	0.000000
13.046371	11.994146	21.595973	-0.092405	0.127214	2.524790	0.000000	-0.016272	0.000000	0.000010	0.000001	0.000000	0.000000
13.526371	12.102229	21.484689	-0.132767	0.104628	2.516979	0.000000	-0.016272	0.000000	0.000011	0.000001	0.000000	0.000000
14.007621	12.249491	21.394882	-0.173233	0.081983	2.509147	0.000000	-0.016272	0.000000	0.000011	0.000001	0.000000	0.000000
14.304943	12.359936	21.350291	-0.167927	0.015642	2.504309	0.000000	-0.022413	0.000000	0.000012	0.000001	0.000000	0.000000
14.745903	12.666569	21.102821	-0.530087	0.543431	2.510058	0.000000	0.048511	0.000000	0.000012	0.000001	0.000000	0.000000
15.186863	13.302031	20.399049	-0.916465	1.046494	2.547172	0.000000	0.119988	0.000000	0.000013	0.000002	0.000000	0.000000
15.627823	14.295353	19.270997	-1.344715	1.501943	2.616076	0.000000	0.192831	0.000000	0.000013	0.000002	0.000000	0.000000
16.068783	15.691918	17.769990	-1.834400	1.889055	2.717554	0.000000	0.267870	0.000000	0.000014	0.000002	0.000000	0.000000
16.514743	17.579189	15.942822	-2.412652	2.190960	2.854457	0.000000	0.346423	0.000000	0.000015	0.000003	0.000000	0.000000
17.063803	20.003137	13.902630	-1.975936	1.546761	3.020932	0.000000	0.259088	0.000000	0.000017	0.000002	0.000000	0.000000
17.612863	21.867574	12.505560	-1.399650	1.012735	3.138121	0.000000	0.167158	0.000000	0.000018	0.000002	0.000000	0.000000
18.161923	23.040806	11.652099	-0.724500	0.550843	3.203945	0.000000	0.072263	0.000000	0.000018	0.000001	0.000000	0.000000
18.710983	23.439960	11.281458	0.001826	0.128187	3.217238	0.000000	-0.023913	0.000000	0.000019	0.000000	0.000000	0.000000
19.009556	23.479252	11.195411	-0.072192	0.130535	3.212608	0.000000	-0.015509	0.000000	0.000019	0.000000	0.000000	0.000000
19.342889	23.532137	11.118482	-0.086463	0.100254	3.207438	0.000000	-0.015509	0.000000	0.000019	0.000000	0.000000	0.000000
19.676223	23.594536	11.061740	-0.100733	0.069972	3.202268	0.000000	-0.015509	0.000000	0.000019	0.000000	0.000000	0.000000
20.010806	23.667029	11.024950	-0.232317	0.094202	3.197099	0.000000	0.000332	0.000000	0.000019	0.000000	0.000000	0.000000
20.308129	23.809112	10.977023	-0.307757	0.095671	3.197198	0.000000	0.008684	0.000000	0.000019	0.000001	0.000000	0.000000
20.857189	23.736415	11.094067	0.439376	-0.310101	3.175745	0.000000	-0.086711	0.000000	0.000019	-0.000000	0.000000	0.000000
21.406249	22.855532	11.666140	1.155474	-0.737961	3.102261	0.000000	-0.180568	0.000000	0.000019	-0.000001	0.000000	0.000000
21.955309	21.228684	12.733988	1.789955	-1.218384	2.978049	0.000000	-0.271222	0.000000	0.000019	-0.000001	0.000000	0.000000
22.504369	18.970783	14.373672	2.298002	-1.785590	2.805311	0.000000	-0.357066	0.000000	0.000018	-0.000002	0.000000	0.000000
22.950329	17.191323	15.845832	1.706259	-1.501586	2.663369	0.000000	-0.279854	0.000000	0.000017	-0.000001	0.000000	0.000000
23.391289	15.915866	17.019593	1.197167	-1.150115	2.556288	0.000000	-0.206284	0.000000	0.000016	-0.000001	0.000000	0.000000
23.832249	15.063664	17.859037	0.742770	-0.746314	2.481099	0.000000	-0.135063	0.000000	0.000016	-0.000001	0.000000	0.000000
24.273209	14.595782	18.325969	0.322308	-0.308557	2.436948	0.000000	-0.065380	0.000000	0.000016	-0.000000	0.000000	0.000000
24.715418	14.490963	18.398901	-0.047984	0.098058	2.423327	0.000000	-0.002385	0.000000	0.000016	0.000000	0.000000	0.000000
25.012741	14.525611	18.345442	-0.068549	0.081743	2.422618	0.000000	-0.002385	0.000000	0.000016	0.000000	0.000000	0.000000
25.346075	14.578996	18.297044	-0.091605	0.063451	2.421823	0.000000	-0.002385	0.000000	0.000016	0.000000	0.000000	0.000000
25.679408	14.647751	18.260840	-0.114661	0.045160	2.421028	0.000000	-0.002385	0.000000	0.000016	0.000000	0.000000	0.000000
26.013991	14.731922	18.237133	-0.018288	-0.121148	2.420206	0.000000	-0.022019	0.000000	0.000016	0.000000	0.000000	0.000000
26.311314	14.748800	18.314092	-0.002314	-0.182595	2.413659	0.000000	-0.027937	0.000000	0.000016	0.000000	0.000000	0.000000
26.752274	14.932548	18.276513	-0.415967	0.267492	2.416451	0.000000	0.040612	0.000000	0.000016	0.000000	0.000000	0.000000
27.193234	15.488074	17.845865	-0.848623	0.705408	2.449543	0.000000	0.109623	0.000000	0.000017	0.000001	0.000000	0.000000
27.634194	16.440759	17.041740	-1.320052	1.111229	2.513312	0.000000	0.179883	0.000000	0.000017	0.000001	0.000000	0.000000
28.075154	17.834129	15.900728	-1.851789	1.466489	2.608485	0.000000	0.252192	0.000000	0.000018	0.000002	0.000000	0.000000
28.521114	19.756048	14.457553	-2.473098	1.755938	2.737749	0.000000	0.327817	0.000000	0.000019	0.000002	0.000000	0.000000
29.070174	22.198816	12.849594	-1.949564	1.189914	2.895073	0.000000	0.244412	0.000000	0.000020	0.000002	0.000000	0.000000
29.619234	23.987197	11.813288	-1.288322	0.708645	3.005345	0.000000	0.156672	0.000000	0.000020	0.000001	0.000000	0.000000
30.168294	24.994868	11.274820	-0.536079	0.277852	3.066607	0.000000	0.066153	0.000000	0.000021	0.000000	0.000000	0.000000
30.717354	25.150653	11.195837	0.254029	-0.133151	3.077773	0.000000	-0.025539	0.000000	0.000021	-0.000000	0.000000	0.000000
31.015927	25.041865	11.265930	0.176034	-0.130860	3.072548	0.000000	-0.017499	0.000000	0.000020	-0.000000	0.000000	0.000000
31.349260	24.929083	11.363202	0.162310	-0.160954	3.066716	0.000000	-0.017499	0.000000	0.000020	-0.000000	0.000000	0.000000
31.682593	24.825451	11.480536	0.148587	-0.191048	3.060883	0.000000	-0.017499	0.000000	0.000020	-0.000000	0.000000	0.000000
32.017177	24.730630	11.618486	0.134812	-0.221256	3.055028	0.000000	-0.017499	0.000000	0.000020	-0.000000	0.000000	0.000000
32.314499	24.654104	11.758036	0.058165	-0.217383	3.049825	0.000000	-0.009532	0.000000	0.000020	-0.000000	0.000000	0.000000
32.863559	24.167822	12.235957	0.822256	-0.658190	3.019709	0.000000	-0.100011	0.000000	0.000020	-0.000001	0.000000	0.000000
33.412619	22.869558	13.220687	1.528266	-1.145880	2.940328	0.000000	-0.188717	0.000000	0.000019	-0.000002	0.000000	0.000000
33.961679	20.851018	14.782367	2.126327	-1.715187	2.813091	0.000000	-0.274076	0.000000	0.000018	-0.000002	0.000000	0.000000
34.510739	18.254779	17.032231	2.574195	-2.406664	2.640255	0.000000	-0.354573	0.000000	0.000017	-0.000003	0.000000	0.000000
34.956699	16.236088	19.044659	1.968642	-2.087069	2.498473	0.000000	-0.281640	0.000000	0.000016	-0.000002	0.000000	0.000000
35.397659	14.730766	20.709146	1.458046	-1.673258	2.389664	0.000000	-0.212343	0.000000	0.000015	-0.000002	0.000000	0.000000
35.838619	13.644783	21.973593	1.014064	-1.183315	2.310851	0.000000	-0.145465	0.000000	0.000014	-0.000002	0.000000	0.000000
36.279579	12.928526	22.780466	0.616412	-0.639532	2.261135	0.000000	-0.080243	0.000000	0.000013	-0.000001	0.000000	0.000000
36.721789	12.548575	23.093363	0.277585	-0.123330	2.239923	0.000000	-0.021427	0.000000	0.000013	-0.000001	0.000000	0.000000
37.019112	12.391098	23.170587	0.252066	-0.136401	2.233552	0.000000	-0.021427	0.000000	0.000012	-0.000001	0.000000	0.000000
37.352445	12.232591	23.266406	0.223455	-0.151055	2.226410	0.000000	-0.021427	0.000000	0.000012	-0.000001	0.000000	0.000000
37.685779	12.093157	23.371993	0.194845	-0.165708	2.219268	0.000000	-0.021427	0.000000	0.000012	-0.000001	0.000000	0.000000
38.020362	11.972382	23.487801	0.166127	-0.180417	2.212099	0.000000	-0.021427	0.000000	0.000012	-0.000001	0.000000	0.000000
38.317684	11.881183	23.598971	0.169741	-0.251353	2.205729	0.000000	-0.026836	0.000000	0.000011	-0.000001	0.000000	0.000000
38.758644	11.882952	23.559254	-0.173770	0.341082	2.207823	0.000000	0.036344	0.000000	0.000011	-0.000001	0.000000	0.000000
39.199604	12.190014	23.001929	-0.525221	0.917998	2.237842	0.000000	0.099937	0.000000	0.000011	-0.000000	0.000000	0.000000
39.640564	12.816397	21.952356	-0.900667	1.453145	2.296127	0.000000	0.164669	0.000000	0.000011	-0.000000	0.000000	0.000000
40.081524	13.790719	20.458289	-1.317262	1.922176	2.383342	0.000000	0.231276	0.000000	0.000011	0.000000	0.000000	0.000000
40.527484	15.175069	18.565132	-1.797866	2.305034	2.501952	0.000000	0.300923	0.000000	0.000011	0.000000	0.000000	0.000000
41.076544	16.941636	16.437681	-1.400526	1.592552	2.646646	0.000000	0.225363	0.000000	0.000011	0.000000	0.000000	0.000000
41.625604	18.214637	15.026114	-0.904260	0.993503	2.748693	0.000000	0.145805	0.000000	0.000011	-0.000000	0.000000	0.000000
42.174664	18.904155	14.229887	-0.344121	0.465220	2.806283	0.000000	0.063662	0.000000	0.000011	-0.000001	0.000000	0.000000
42.723724	18.961484	13.992287	0.240325	-0.029926	2.818394	0.000000	-0.019611	0.000000	0.000010	-0.000001	0.000000	0.000000
43.022297	18.852430	13.994699	0.174467	-0.014709	2.814738	0.000000	-0.012248	0.000000	0.000010	-0.000001	0.000000	0.000000
43.502297	18.697535	14.025287	0.148231	-0.049016	2.808859	0.000000	-0.012248	0.000000	0.000010	-0.000001	0.000000	0.000000
43.982297	18.567827	14.088809	0.121995	-0.083322	2.802981	0.000000	-0.012248	0.000000	0.000009	-0.000001	0.000000	0.000000
44.462297	18.463305	14.185265	0.095759	-0.117628	2.797102	0.000000	-0.012248	0.000000	0.000009	-0.000001	0.000000	0.000000
44.942297	18.383970	14.314654	0.069523	-0.151934	2.791224	0.000000	-0.012248	0.000000	0.000008	-0.000001	0.000000	0.000000
45.423547	18.329940	14.477264	-0.047598	-0.114600	2.785347	0.000000	0.001552	0.000000	0.000008	-0.000001	0.000000	0.000000
45.720870	18.363077	14.551597	-0.111832	-0.097389	2.785809	0.000000	0.008831	0.000000	0.000008	-0.000001	0.000000	0.000000
46.269930	18.176686	14.939964	0.449295	-0.614117	2.768086	0.000000	-0.073295	0.000000	0.000007	-0.000001	0.000000	0.000000
46.818990	17.387970	15.916306	0.978685	-1.174586	2.705562	0.000000	-0.154121	0.000000	0.000006	-0.000001	0.000000	0.000000
47.368050	16.052640	17.550167	1.438946	-1.818719	2.599346	0.000000	-0.232213	0.000000	0.000006	-0.000001	0.000000	0.000000
47.917110	14.265018	19.957921	1.797567	-2.592396	2.451322	0.000000	-0.306187	0.000000	0.000005	-0.000002	0.000000	0.000000
48.363070	12.873926	22.098599	1.332805	-2.187580	2.330067	0.000000	-0.237888	0.000000	0.000004	-0.000002	0.000000	0.000000
48.804030	11.878702	23.812556	0.932705	-1.684505	2.239628	0.000000	-0.172696	0.000000	0.000003	-0.000001	0.000000	0.000000
49.244990	11.216281	25.047220	0.575218	-1.104787	2.177476	0.000000	-0.109471	0.000000	0.000003	-0.000001	0.000000	0.000000
49.685950	10.856400	25.746416	0.244010	-0.474801	2.142902	0.000000	-0.047492	0.000000	0.000002	-0.000001	0.000000	0.000000
50.128160	10.782739	25.878047	-0.049723	0.113279	2.135524	0.000000	0.008709	0.000000	0.000002	-0.000001	0.000000	0.000000
50.425482	10.820526	25.814146	-0.077366	0.101642	2.138114	0.000000	0.008709	0.000000	0.000001	-0.000001	0.000000	0.000000
50.758816	10.882433	25.750734	-0.108356	0.088595	2.141017	0.000000	0.008709	0.000000	0.000001	-0.000001	0.000000	0.000000
51.092149	10.965000	25.696019	-0.139346	0.075549	2.143921	0.000000	0.008709	0.000000	0.000000	-0.000001	0.000000	0.000000
51.426732	11.068428	25.650366	-0.080658	-0.145634	2.146813	0.000000	-0.008708	0.000000	-0.000000	-0.000001	0.000000	0.000000
51.724055	11.124430	25.740486	-0.080414	-0.220595	2.144224	0.000000	-0.013966	0.000000	-0.000000	-0.000001	0.000000	0.000000
52.165015	11.340607	25.648653	-0.411689	0.428058	2.151655	0.000000	0.047697	0.000000	-0.000001	-0.000001	0.000000	0.000000
52.605975	11.856100	24.991197	-0.761772	1.057235	2.186370	0.000000	0.109903	0.000000	-0.000002	-0.000001	0.000000	0.000000
53.046935	12.694461	23.798029	-1.146658	1.638309	2.248765	0.000000	0.173361	0.000000	-0.000002	-0.000001	0.000000	0.000000
53.487895	13.893992	22.123439	-1.583932	2.144841	2.339551	0.000000	0.238793	0.000000	-0.000003	-0.000001	0.000000	0.000000
53.933855	15.530059	20.018581	-2.097800	2.555122	2.461266	0.000000	0.307343	0.000000	-0.000003	-0.000002	0.000000	0.000000
54.482915	17.636466	17.650060	-1.715880	1.784115	2.609836	0.000000	0.233039	0.000000	-0.000004	-0.000001	0.000000	0.000000
55.031975	19.254041	16.053865	-1.212760	1.140187	2.716413	0.000000	0.154601	0.000000	-0.000005	-0.000001	0.000000	0.000000
55.581035	20.268524	15.116301	-0.623976	0.577472	2.779104	0.000000	0.073421	0.000000	-0.000006	-0.000001	0.000000	0.000000
56.130095	20.608258	14.770588	0.008882	0.055889	2.796799	0.000000	-0.009062	0.000000	-0.000006	-0.000001	0.000000	0.000000
56.428668	20.639444	14.720257	-0.059484	0.074089	2.796276	0.000000	-0.001754	0.000000	-0.000006	-0.000001	0.000000	0.000000
56.762001	20.684502	14.678454	-0.075691	0.051321	2.795692	0.000000	-0.001754	0.000000	-0.000007	-0.000001	0.000000	0.000000
57.095334	20.740366	14.651830	-0.091899	0.028552	2.795107	0.000000	-0.001754	0.000000	-0.000007	-0.000001	0.000000	0.000000
57.429918	20.807304	14.640370	-0.108167	0.005698	2.794521	0.000000	-0.001754	0.000000	-0.000007	-0.000001	0.000000	0.000000
57.727240	20.875923	14.643021	-0.177172	0.023650	2.794000	0.000000	0.005547	0.000000	-0.000007	-0.000001	0.000000	0.000000
58.276300	20.714345	14.898211	0.469712	-0.491170	2.774406	0.000000	-0.076814	0.000000	-0.000008	-0.000001	0.000000	0.000000
58.825360	19.856506	15.734513	1.083417	-1.040975	2.709899	0.000000	-0.157813	0.000000	-0.000008	-0.000000	0.000000	0.000000
59.374420	18.363001	17.211497	1.620595	-1.664926	2.601623	0.000000	-0.236012	0.000000	-0.000008	-0.000000	0.000000	0.000000
59.923480	16.339323	19.434364	2.043302	-2.407467	2.451498	0.000000	-0.310026	0.000000	-0.000008	0.000000	0.000000	0.000000
60.369440	14.755422	21.410053	1.520942	-2.004027	2.328529	0.000000	-0.241745	0.000000	-0.000008	-0.000000	0.000000	0.000000
60.810400	13.616240	22.965862	1.072271	-1.510780	2.236377	0.000000	-0.176614	0.000000	-0.000008	-0.000000	0.000000	0.000000
61.251360	12.849734	24.054579	0.672590	-0.948794	2.172475	0.000000	-0.113495	0.000000	-0.000009	-0.000001	0.000000	0.000000
61.692320	12.420884	24.626668	0.303637	-0.343639	2.136094	0.000000	-0.051669	0.000000	-0.000009	-0.000001	0.000000	0.000000
62.134530	12.310151	24.655557	-0.021354	0.216629	2.126827	0.000000	0.004353	0.000000	-0.000009	-0.000001	0.000000	0.000000
62.431853	12.330033	24.530493	-0.045518	0.204004	2.128121	0.000000	0.004353	0.000000	-0.000010	-0.000001	0.000000	0.000000
62.765186	12.369409	24.399208	-0.072608	0.189850	2.129573	0.000000	0.004353	0.000000	-0.000010	-0.000001	0.000000	0.000000
63.098520	12.426845	24.277359	-0.099699	0.175696	2.131024	0.000000	0.004353	0.000000	-0.000010	-0.000001	0.000000	0.000000
63.433103	12.502658	24.164543	-0.126891	0.161489	2.132481	0.000000	0.004353	0.000000	-0.000011	-0.000001	0.000000	0.000000
63.730426	12.585297	24.072268	-0.120188	0.089825	2.133775	0.000000	-0.000880	0.000000	-0.000011	-0.000001	0.000000	0.000000
64.171386	12.851578	23.727946	-0.485970	0.688050	2.146927	0.000000	0.060587	0.000000	-0.000011	-0.000001	0.000000	0.000000
64.612346	13.448983	22.867879	-0.873954	1.254970	2.187310	0.000000	0.122744	0.000000	-0.000012	-0.000002	0.000000	0.000000
65.053306	14.404806	21.531200	-1.301866	1.764789	2.255384	0.000000	0.186299	0.000000	-0.000013	-0.000002	0.000000	0.000000
65.494266	15.762716	19.778727	-1.789258	2.194312	2.351924	0.000000	0.251976	0.000000	-0.000013	-0.000002	0.000000	0.000000
65.940226	17.607914	17.665399	-2.363086	2.524748	2.479601	0.000000	0.320925	0.000000	-0.000015	-0.000003	0.000000	0.000000
66.489286	19.973347	15.301269	-1.919566	1.806448	2.635445	0.000000	0.245908	0.000000	-0.000016	-0.000002	0.000000	0.000000
67.038346	21.773953	13.651056	-1.340457	1.216817	2.748839	0.000000	0.166530	0.000000	-0.000017	-0.000002	0.000000	0.000000
67.587406	22.882545	12.597220	-0.666665	0.713858	2.817774	0.000000	0.084198	0.000000	-0.000017	-0.000001	0.000000	0.000000
68.136466	23.220817	12.064699	0.054217	0.261745	2.841026	0.000000	0.000373	0.000000	-0.000018	-0.000000	0.000000	0.000000
68.435038	23.228516	11.897597	-0.019322	0.266397	2.843354	0.000000	0.007797	0.000000	-0.000018	-0.000000	0.000000	0.000000
68.768372	23.246182	11.730001	-0.033678	0.236391	2.845953	0.000000	0.007797	0.000000	-0.000018	-0.000000	0.000000	0.000000
69.101705	23.273419	11.582408	-0.048033	0.206386	2.848552	0.000000	0.007797	0.000000	-0.000018	-0.000000	0.000000	0.000000
69.436288	23.310383	11.454378	-0.062442	0.176269	2.851161	0.000000	0.007797	0.000000	-0.000018	-0.000000	0.000000	0.000000
69.733611	23.351321	11.357518	-0.136269	0.179185	2.853479	0.000000	0.015254	0.000000	-0.000018	-0.000000	0.000000	0.000000
70.282671	23.099911	11.388223	0.591451	-0.235438	2.838672	0.000000	-0.069112	0.000000	-0.000019	0.000000	0.000000	0.000000
