#ParticleID	Turn	x[m]	xp	y[m]	yp	z[m]	dE[GeV]# s	beta_x	beta_y	alpha_x	alpha_y	D_x	D_y	D_px	D_py	orbit_x	orbit_px	orbit_y	orbit_py
0.300000	11.811532	25.027189	-0.010834	-0.027166	2.618136	0.000000	0.000002	0.000000	-0.000000	0.000001	0.000000	0.000000
0.601250	11.825744	25.047185	-0.036342	-0.039212	2.618137	0.000000	0.000002	0.000000	0.000000	0.000001	0.000000	0.000000
0.898573	11.854839	25.074037	-0.032445	-0.112589	2.618137	0.000000	-0.006418	0.000000	0.000000	0.000001	0.000000	0.000000
1.339533	12.035556	24.895188	-0.378935	0.516636	2.631599	0.000000	0.067539	0.000000	0.000001	0.000001	0.000000	0.000000
1.780493	12.528300	24.169698	-0.742738	1.122354	2.677813	0.000000	0.142266	0.000000	0.000002	0.000001	0.000000	0.000000
2.221453	13.355583	22.930577	-1.140474	1.677006	2.757304	0.000000	0.218614	0.000000	0.000002	0.000001	0.000000	0.000000
2.662413	14.555201	21.234204	-1.590315	2.155355	2.870977	0.000000	0.297451	0.000000	0.000003	0.000001	0.000000	0.000000
3.108373	16.202701	19.132885	-2.117102	2.536771	3.021989	0.000000	0.380166	0.000000	0.000003	0.000001	0.000000	0.000000
3.657433	18.315355	16.772782	-1.707886	1.787046	3.205450	0.000000	0.287128	0.000000	0.000004	0.000001	0.000000	0.000000
4.206493	19.909335	15.161657	-1.178035	1.164608	3.336353	0.000000	0.188997	0.000000	0.000005	0.000001	0.000000	0.000000
4.755553	20.872050	14.184753	-0.564972	0.625123	3.412375	0.000000	0.087514	0.000000	0.000005	0.000001	0.000000	0.000000
5.304613	21.135498	13.772489	0.087997	0.130164	3.432167	0.000000	-0.015521	0.000000	0.000006	0.000001	0.000000	0.000000
5.603185	21.120148	13.679927	0.018635	0.143869	3.430210	0.000000	-0.006554	0.000000	0.000006	0.000001	0.000000	0.000000
5.936519	21.112987	13.592304	0.002847	0.118999	3.428025	0.000000	-0.006554	0.000000	0.000007	0.000001	0.000000	0.000000
6.269852	21.116352	13.521262	-0.012942	0.094128	3.425840	0.000000	-0.006554	0.000000	0.000007	0.000001	0.000000	0.000000
6.604435	21.130315	13.466627	-0.028789	0.069163	3.423647	0.000000	-0.006554	0.000000	0.000007	0.000001	0.000000	0.000000
6.901758	21.151621	13.432096	-0.098133	0.082073	3.421698	0.000000	0.002386	0.000000	0.000007	0.000001	0.000000	0.000000
7.450818	20.898904	13.602816	0.555681	-0.394840	3.394807	0.000000	-0.100195	0.000000	0.000008	0.000001	0.000000	0.000000
7.999878	19.945625	14.309522	1.170244	-0.899877	3.311998	0.000000	-0.200999	0.000000	0.000008	0.000000	0.000000	0.000000
8.548938	18.359118	15.602551	1.702148	-1.469010	3.174740	0.000000	-0.298238	0.000000	0.000008	0.000000	0.000000	0.000000
9.097998	16.251446	17.574003	2.113820	-2.142778	2.985468	0.000000	-0.390186	0.000000	0.000008	-0.000000	0.000000	0.000000
9.543958	14.607089	19.330658	1.586521	-1.779615	2.829767	0.000000	-0.308480	0.000000	0.000008	0.000000	0.000000	0.000000
9.984918	13.411106	20.710085	1.135993	-1.336716	2.710986	0.000000	-0.230771	0.000000	0.000008	0.000000	0.000000	0.000000
10.425878	12.588151	21.670496	0.737366	-0.832997	2.625860	0.000000	-0.155690	0.000000	0.000008	0.000000	0.000000	0.000000
10.866838	12.100626	22.168194	0.372427	-0.291377	2.573419	0.000000	-0.082383	0.000000	0.000009	0.000001	0.000000	0.000000
11.309048	11.926123	22.180011	0.053642	0.209052	2.553046	0.000000	-0.016274	0.000000	0.000009	0.000001	0.000000	0.000000
11.606371	11.901659	22.059859	0.028640	0.195061	2.548208	0.000000	-0.016274	0.000000	0.000009	0.000001	0.000000	0.000000
12.086371	11.893539	21.883442	-0.011724	0.172474	2.540396	0.000000	-0.016274	0.000000	0.000010	0.000001	0.000000	0.000000
12.566371	11.924169	21.728709	-0.052087	0.149887	2.532584	0.000000	-0.016274	0.000000	0.000010	0.000001	0.000000	0.000000
13.046371	11.993547	21.595659	-0.092451	0.127300	2.524772	0.000000	-0.016274	0.000000	0.000011	0.000001	0.000000	0.000000
13.526371	12.101674	21.484292	-0.132814	0.104714	2.516960	0.000000	-0.016274	0.000000	0.000011	0.000001	0.000000	0.000000
14.007621	12.248984	21.394403	-0.173283	0.082068	2.509127	0.000000	-0.016274	0.000000	0.000012	0.000001	0.000000	0.000000
14.304943	12.359459	21.349762	-0.167980	0.015727	2.504288	0.000000	-0.022415	0.000000	0.000012	0.000001	0.000000	0.000000
14.745903	12.666135	21.102223	-0.530131	0.543500	2.510036	0.000000	0.048509	0.000000	0.000012	0.000001	0.000000	0.000000
15.186863	13.301632	20.398398	-0.916502	1.046545	2.547149	0.000000	0.119985	0.000000	0.000013	0.000002	0.000000	0.000000
15.627823	14.294984	19.270311	-1.344746	1.501972	2.616052	0.000000	0.192827	0.000000	0.000014	0.000002	0.000000	0.000000
16.068783	15.691575	17.769289	-1.834428	1.889061	2.717528	0.000000	0.267866	0.000000	0.000015	0.000002	0.000000	0.000000
16.514743	17.578869	15.942126	-2.412677	2.190943	2.854428	0.000000	0.346417	0.000000	0.000016	0.000003	0.000000	0.000000
17.063803	20.002853	13.901945	-1.975978	1.546760	3.020900	0.000000	0.259084	0.000000	0.000017	0.000002	0.000000	0.000000
17.612863	21.867344	12.504867	-1.399706	1.012749	3.138087	0.000000	0.167155	0.000000	0.000018	0.000002	0.000000	0.000000
18.161923	23.040643	11.651382	-0.724565	0.550874	3.203910	0.000000	0.072261	0.000000	0.000019	0.000001	0.000000	0.000000
18.710983	23.439872	11.280697	0.001755	0.128237	3.217202	0.000000	-0.023914	0.000000	0.000019	0.000000	0.000000	0.000000
19.009556	23.479207	11.194622	-0.072262	0.130581	3.212572	0.000000	-0.015510	0.000000	0.000019	0.000000	0.000000	0.000000
19.342889	23.532139	11.117663	-0.086533	0.100297	3.207402	0.000000	-0.015510	0.000000	0.000019	0.000000	0.000000	0.000000
19.676223	23.594584	11.060893	-0.100804	0.070013	3.202232	0.000000	-0.015510	0.000000	0.000019	0.000000	0.000000	0.000000
20.010806	23.667125	11.024076	-0.232389	0.094236	3.197062	0.000000	0.000331	0.000000	0.000020	0.000000	0.000000	0.000000
20.308129	23.809251	10.976129	-0.307829	0.095700	3.197160	0.000000	0.008683	0.000000	0.000020	0.000001	0.000000	0.000000
20.857189	23.736630	11.093128	0.439310	-0.310046	3.175707	0.000000	-0.086711	0.000000	0.000020	-0.000000	0.000000	0.000000
21.406249	22.855814	11.665124	1.155419	-0.737876	3.102224	0.000000	-0.180567	0.000000	0.000020	-0.000001	0.000000	0.000000
21.955309	21.229018	12.732860	1.789914	-1.218264	2.978012	0.000000	-0.271220	0.000000	0.000019	-0.000001	0.000000	0.000000
22.504369	18.971153	14.372389	2.297979	-1.785426	2.805276	0.000000	-0.357062	0.000000	0.000018	-0.000002	0.000000	0.000000
22.950329	17.191715	15.844415	1.706231	-1.501452	2.663335	0.000000	-0.279851	0.000000	0.000017	-0.000002	0.000000	0.000000
23.391289	15.916286	17.018073	1.197133	-1.150017	2.556255	0.000000	-0.206282	0.000000	0.000017	-0.000001	0.000000	0.000000
23.832249	15.064117	17.857449	0.742729	-0.746257	2.481067	0.000000	-0.135062	0.000000	0.000016	-0.000001	0.000000	0.000000
24.273209	14.596275	18.324350	0.322257	-0.308543	2.436916	0.000000	-0.065380	0.000000	0.000016	-0.000000	0.000000	0.000000
24.715418	14.491507	18.397289	-0.048046	0.098031	2.423295	0.000000	-0.002385	0.000000	0.000016	0.000000	0.000000	0.000000
25.012741	14.526191	18.343846	-0.068610	0.081715	2.422586	0.000000	-0.002385	0.000000	0.000016	0.000000	0.000000	0.000000
25.346075	14.579616	18.295467	-0.091665	0.063422	2.421791	0.000000	-0.002385	0.000000	0.000016	0.000000	0.000000	0.000000
25.679408	14.648411	18.259284	-0.114720	0.045129	2.420996	0.000000	-0.002385	0.000000	0.000016	0.000000	0.000000	0.000000
26.013991	14.732622	18.235598	-0.018341	-0.121168	2.420173	0.000000	-0.022019	0.000000	0.000016	0.000000	0.000000	0.000000
26.311314	14.749531	18.312569	-0.002364	-0.182613	2.413626	0.000000	-0.027937	0.000000	0.000016	-0.000000	0.000000	0.000000
26.752274	14.933331	18.275023	-0.416036	0.267433	2.416418	0.000000	0.040611	0.000000	0.000016	0.000000	0.000000	0.000000
27.193234	15.488928	17.844443	-0.848714	0.705311	2.449509	0.000000	0.109621	0.000000	0.000017	0.000001	0.000000	0.000000
27.634194	16.441704	17.040420	-1.320168	1.111098	2.513277	0.000000	0.179880	0.000000	0.000017	0.000001	0.000000	0.000000
28.075154	17.835190	15.899535	-1.851937	1.466331	2.608449	0.000000	0.252188	0.000000	0.000018	0.000002	0.000000	0.000000
28.521114	19.757258	14.456512	-2.473284	1.755759	2.737710	0.000000	0.327812	0.000000	0.000019	0.000002	0.000000	0.000000
29.070174	22.200215	12.848726	-1.949718	1.189775	2.895033	0.000000	0.244408	0.000000	0.000020	0.000002	0.000000	0.000000
29.619234	23.988743	11.812555	-1.288434	0.708537	3.005302	0.000000	0.156670	0.000000	0.000020	0.000001	0.000000	0.000000
30.168294	24.996510	11.274193	-0.536141	0.277766	3.066564	0.000000	0.066152	0.000000	0.000021	0.000000	0.000000	0.000000
30.717354	25.152332	11.195294	0.254023	-0.133220	3.077730	0.000000	-0.025539	0.000000	0.000021	-0.000000	0.000000	0.000000
31.015927	25.043550	11.265430	0.176024	-0.130931	3.072505	0.000000	-0.017498	0.000000	0.000021	-0.000000	0.000000	0.000000
31.349260	24.930774	11.362750	0.162302	-0.161028	3.066673	0.000000	-0.017498	0.000000	0.000020	-0.000000	0.000000	0.000000
31.682593	24.827147	11.480134	0.148579	-0.191124	3.060840	0.000000	-0.017498	0.000000	0.000020	-0.000000	0.000000	0.000000
32.017177	24.732332	11.618135	0.134805	-0.221333	3.054985	0.000000	-0.017498	0.000000	0.000020	-0.000000	0.000000	0.000000
32.314499	24.655810	11.757731	0.058155	-0.217462	3.049783	0.000000	-0.009531	0.000000	0.000020	-0.000000	0.000000	0.000000
32.863559	24.169507	12.235737	0.822302	-0.658266	3.019667	0.000000	-0.100010	0.000000	0.000020	-0.000001	0.000000	0.000000
33.412619	22.871163	13.220551	1.528365	-1.145957	2.940287	0.000000	-0.188714	0.000000	0.000019	-0.000002	0.000000	0.000000
33.961679	20.852488	14.782318	2.126472	-1.715271	2.813052	0.000000	-0.274071	0.000000	0.000018	-0.000002	0.000000	0.000000
34.510739	18.256069	17.032281	2.574376	-2.406761	2.640219	0.000000	-0.354567	0.000000	0.000017	-0.000003	0.000000	0.000000
34.956699	16.237233	19.044798	1.968784	-2.087173	2.498440	0.000000	-0.281635	0.000000	0.000015	-0.000002	0.000000	0.000000
35.397659	14.731800	20.709380	1.458156	-1.673365	2.389633	0.000000	-0.212339	0.000000	0.000015	-0.000002	0.000000	0.000000
35.838619	13.645734	21.973921	1.014146	-1.183421	2.310820	0.000000	-0.145462	0.000000	0.000014	-0.000002	0.000000	0.000000
36.279579	12.929414	22.780885	0.616470	-0.639632	2.261105	0.000000	-0.080241	0.000000	0.000013	-0.000001	0.000000	0.000000
36.721789	12.549421	23.093865	0.277625	-0.123420	2.239895	0.000000	-0.021426	0.000000	0.000013	-0.000001	0.000000	0.000000
37.019112	12.391920	23.171142	0.252106	-0.136490	2.233525	0.000000	-0.021426	0.000000	0.000012	-0.000001	0.000000	0.000000
37.352445	12.233385	23.267020	0.223498	-0.151144	2.226383	0.000000	-0.021426	0.000000	0.000012	-0.000001	0.000000	0.000000
37.685779	12.093923	23.372668	0.194889	-0.165798	2.219241	0.000000	-0.021426	0.000000	0.000012	-0.000001	0.000000	0.000000
38.020362	11.973118	23.488535	0.166172	-0.180507	2.212073	0.000000	-0.021426	0.000000	0.000011	-0.000001	0.000000	0.000000
38.317684	11.881892	23.599759	0.169789	-0.251445	2.205703	0.000000	-0.026834	0.000000	0.000011	-0.000001	0.000000	0.000000
38.758644	11.883626	23.560112	-0.173738	0.341012	2.207798	0.000000	0.036345	0.000000	0.000011	-0.000001	0.000000	0.000000
39.199604	12.190666	23.002838	-0.525202	0.917954	2.237817	0.000000	0.099937	0.000000	0.000011	-0.000000	0.000000	0.000000
39.640564	12.817039	21.953292	-0.900662	1.453129	2.296102	0.000000	0.164668	0.000000	0.000010	-0.000000	0.000000	0.000000
40.081524	13.791362	20.459227	-1.317270	1.922188	2.383317	0.000000	0.231275	0.000000	0.000010	0.000000	0.000000	0.000000
40.527484	15.175726	18.566048	-1.797888	2.305073	2.501926	0.000000	0.300921	0.000000	0.000011	0.000000	0.000000	0.000000
41.076544	16.942303	16.438568	-1.400522	1.592566	2.646620	0.000000	0.225362	0.000000	0.000011	0.000000	0.000000	0.000000
41.625604	18.215286	15.026998	-0.904231	0.993494	2.748666	0.000000	0.145805	0.000000	0.000011	-0.000000	0.000000	0.000000
42.174664	18.904759	14.230794	-0.344069	0.465187	2.806257	0.000000	0.063663	0.000000	0.000010	-0.000001	0.000000	0.000000
42.723724	18.962021	13.993244	0.240396	-0.029986	2.818369	0.000000	-0.019609	0.000000	0.000010	-0.000001	0.000000	0.000000
43.022297	18.852924	13.995690	0.174537	-0.014765	2.814713	0.000000	-0.012246	0.000000	0.000010	-0.000001	0.000000	0.000000
43.502297	18.697962	14.026331	0.148301	-0.049069	2.808835	0.000000	-0.012246	0.000000	0.000009	-0.000001	0.000000	0.000000
43.982297	18.568187	14.089903	0.122065	-0.083373	2.802957	0.000000	-0.012246	0.000000	0.000009	-0.000001	0.000000	0.000000
44.462297	18.463598	14.186406	0.095829	-0.117676	2.797080	0.000000	-0.012246	0.000000	0.000008	-0.000001	0.000000	0.000000
44.942297	18.384195	14.315841	0.069593	-0.151980	2.791202	0.000000	-0.012246	0.000000	0.000008	-0.000001	0.000000	0.000000
45.423547	18.330097	14.478494	-0.047528	-0.114638	2.785326	0.000000	0.001554	0.000000	0.000008	-0.000001	0.000000	0.000000
45.720870	18.363193	14.552849	-0.111762	-0.097422	2.785789	0.000000	0.008832	0.000000	0.000007	-0.000001	0.000000	0.000000
46.269930	18.176724	14.941273	0.449366	-0.614188	2.768067	0.000000	-0.073293	0.000000	0.000007	-0.000001	0.000000	0.000000
46.818990	17.387931	15.917718	0.978753	-1.174702	2.705544	0.000000	-0.154118	0.000000	0.000006	-0.000001	0.000000	0.000000
47.368050	16.052531	17.551733	1.439006	-1.818887	2.599329	0.000000	-0.232210	0.000000	0.000005	-0.000001	0.000000	0.000000
47.917110	14.264849	19.959706	1.797615	-2.592628	2.451307	0.000000	-0.306183	0.000000	0.000004	-0.000002	0.000000	0.000000
48.363070	12.873715	22.100574	1.332852	-2.187772	2.330055	0.000000	-0.237885	0.000000	0.000004	-0.000002	0.000000	0.000000
48.804030	11.878450	23.814679	0.932752	-1.684649	2.239617	0.000000	-0.172693	0.000000	0.000003	-0.000001	0.000000	0.000000
49.244990	11.215986	25.049446	0.575268	-1.104875	2.177466	0.000000	-0.109468	0.000000	0.000002	-0.000001	0.000000	0.000000
49.685950	10.856058	25.748694	0.244066	-0.474830	2.142894	0.000000	-0.047489	0.000000	0.000002	-0.000001	0.000000	0.000000
50.128160	10.782346	25.880324	-0.049661	0.113304	2.135517	0.000000	0.008711	0.000000	0.000001	-0.000001	0.000000	0.000000
50.425482	10.820095	25.816407	-0.077304	0.101668	2.138107	0.000000	0.008711	0.000000	0.000001	-0.000001	0.000000	0.000000
50.758816	10.881962	25.752977	-0.108295	0.088623	2.141012	0.000000	0.008711	0.000000	0.000000	-0.000001	0.000000	0.000000
51.092149	10.964489	25.698243	-0.139286	0.075578	2.143916	0.000000	0.008711	0.000000	0.000000	-0.000001	0.000000	0.000000
51.426732	11.067878	25.652570	-0.080604	-0.145622	2.146809	0.000000	-0.008705	0.000000	-0.000000	-0.000001	0.000000	0.000000
51.724055	11.123848	25.742682	-0.080363	-0.220588	2.144221	0.000000	-0.013963	0.000000	-0.000001	-0.000001	0.000000	0.000000
52.165015	11.339974	25.650818	-0.411623	0.428124	2.151653	0.000000	0.047699	0.000000	-0.000001	-0.000001	0.000000	0.000000
52.605975	11.855401	24.993279	-0.761688	1.057356	2.186369	0.000000	0.109905	0.000000	-0.000002	-0.000001	0.000000	0.000000
53.046935	12.693679	23.799983	-1.146553	1.638479	2.248765	0.000000	0.173363	0.000000	-0.000003	-0.000001	0.000000	0.000000
53.487895	13.893106	22.125224	-1.583801	2.145052	2.339552	0.000000	0.238795	0.000000	-0.000003	-0.000001	0.000000	0.000000
53.933855	15.529042	20.020163	-2.097636	2.555366	2.461268	0.000000	0.307346	0.000000	-0.000004	-0.000002	0.000000	0.000000
54.482915	17.635284	17.651409	-1.715743	1.784298	2.609840	0.000000	0.233041	0.000000	-0.000005	-0.000001	0.000000	0.000000
55.031975	19.252727	16.055041	-1.212659	1.140322	2.716418	0.000000	0.154603	0.000000	-0.000005	-0.000001	0.000000	0.000000
55.581035	20.267123	15.117351	-0.623919	0.577568	2.779110	0.000000	0.073423	0.000000	-0.000006	-0.000001	0.000000	0.000000
56.130095	20.606820	14.771550	0.008892	0.055954	2.796807	0.000000	-0.009060	0.000000	-0.000007	-0.000001	0.000000	0.000000
56.428668	20.637999	14.721178	-0.059471	0.074158	2.796284	0.000000	-0.001752	0.000000	-0.000007	-0.000001	0.000000	0.000000
56.762001	20.683049	14.679329	-0.075680	0.051390	2.795700	0.000000	-0.001752	0.000000	-0.000007	-0.000001	0.000000	0.000000
57.095334	20.738906	14.652658	-0.091889	0.028623	2.795116	0.000000	-0.001752	0.000000	-0.000007	-0.000001	0.000000	0.000000
57.429918	20.805838	14.641151	-0.108158	0.005770	2.794530	0.000000	-0.001752	0.000000	-0.000008	-0.000001	0.000000	0.000000
57.727240	20.874452	14.643758	-0.177160	0.023726	2.794010	0.000000	0.005549	0.000000	-0.000008	-0.000001	0.000000	0.000000
58.276300	20.712888	14.898876	0.469674	-0.491114	2.774417	0.000000	-0.076813	0.000000	-0.000008	-0.000001	0.000000	0.000000
58.825360	19.855117	15.735127	1.083332	-1.040935	2.709911	0.000000	-0.157812	0.000000	-0.000009	-0.000000	0.000000	0.000000
59.374420	18.361727	17.212074	1.620470	-1.664899	2.601635	0.000000	-0.236012	0.000000	-0.000009	-0.000000	0.000000	0.000000
59.923480	16.338205	19.434917	2.043145	-2.407450	2.451511	0.000000	-0.310025	0.000000	-0.000009	0.000000	0.000000	0.000000
60.369440	14.754428	21.410582	1.520818	-2.003990	2.328542	0.000000	-0.241744	0.000000	-0.000009	-0.000000	0.000000	0.000000
60.810400	13.615343	22.966351	1.072175	-1.510725	2.236391	0.000000	-0.176613	0.000000	-0.000009	-0.000000	0.000000	0.000000
61.251360	12.848911	24.055012	0.672517	-0.948724	2.172489	0.000000	-0.113494	0.000000	-0.000009	-0.000000	0.000000	0.000000
61.692320	12.420116	24.627032	0.303584	-0.343556	2.136109	0.000000	-0.051667	0.000000	-0.000009	-0.000001	0.000000	0.000000
62.134530	12.309421	24.655844	-0.021391	0.216720	2.126842	0.000000	0.004355	0.000000	-0.000010	-0.000001	0.000000	0.000000
62.431853	12.329326	24.530726	-0.045556	0.204095	2.128137	0.000000	0.004355	0.000000	-0.000010	-0.000001	0.000000	0.000000
62.765186	12.368727	24.399381	-0.072648	0.189940	2.129589	0.000000	0.004355	0.000000	-0.000010	-0.000001	0.000000	0.000000
63.098520	12.426190	24.277472	-0.099740	0.175786	2.131041	0.000000	0.004355	0.000000	-0.000011	-0.000001	0.000000	0.000000
63.433103	12.502031	24.164595	-0.126934	0.161578	2.132499	0.000000	0.004355	0.000000	-0.000011	-0.000001	0.000000	0.000000
63.730426	12.584696	24.072267	-0.120234	0.089914	2.133794	0.000000	-0.000878	0.000000	-0.000011	-0.000001	0.000000	0.000000
64.171386	12.851012	23.727867	-0.486003	0.688137	2.146947	0.000000	0.060589	0.000000	-0.000012	-0.000001	0.000000	0.000000
64.612346	13.448442	22.867726	-0.873976	1.255050	2.187331	0.000000	0.122747	0.000000	-0.000012	-0.000002	0.000000	0.000000
65.053306	14.404281	21.530981	-1.301879	1.764859	2.255407	0.000000	0.186303	0.000000	-0.000013	-0.000002	0.000000	0.000000
65.494266	15.762198	19.778451	-1.789261	2.194369	2.351948	0.000000	0.251980	0.000000	-0.000014	-0.000002	0.000000	0.000000
65.940226	17.607394	17.665079	-2.363080	2.524789	2.479628	0.000000	0.320930	0.000000	-0.000015	-0.000003	0.000000	0.000000
66.489286	19.972834	15.300902	-1.919582	1.806490	2.635474	0.000000	0.245912	0.000000	-0.000016	-0.000002	0.000000	0.000000
67.038346	21.773468	13.650641	-1.340493	1.216864	2.748870	0.000000	0.166533	0.000000	-0.000017	-0.000002	0.000000	0.000000
67.587406	22.882111	12.596750	-0.666720	0.713912	2.817806	0.000000	0.084200	0.000000	-0.000018	-0.000001	0.000000	0.000000
68.136466	23.220452	12.064163	0.054148	0.261811	2.841059	0.000000	0.000374	0.000000	-0.000018	-0.000000	0.000000	0.000000
68.435038	23.228192	11.897023	-0.019391	0.266459	2.843387	0.000000	0.007798	0.000000	-0.000018	-0.000000	0.000000	0.000000
68.768372	23.245904	11.729387	-0.033747	0.236451	2.845987	0.000000	0.007798	0.000000	-0.000018	-0.000000	0.000000	0.000000
69.101705	23.273187	11.581755	-0.048102	0.206444	2.848586	0.000000	0.007798	0.000000	-0.000019	-0.000000	0.000000	0.000000
69.436288	23.310197	11.453687	-0.062512	0.176324	2.851196	0.000000	0.007798	0.000000	-0.000019	-0.000000	0.000000	0.000000
69.733611	23.351177	11.356795	-0.136339	0.179236	2.853514	0.000000	0.015255	0.000000	-0.000019	-0.000000	0.000000	0.000000
70.282671	23.099845	11.387433	0.591378	-0.235365	2.838707	0.000000	-0.069112	0.000000	-0.000019	0.000000	0.000000	0.000000
