#ParticleID	Turn	x[m]	xp	y[m]	yp	z[m]	dE[GeV]# s	beta_x	beta_y	alpha_x	alpha_y	D_x	D_y	D_px	D_py	orbit_x	orbit_px	orbit_y	orbit_py
0.300000	11.823612	24.978534	-0.012246	-0.027610	2.618142	0.000000	0.000001	0.000000	-0.000000	0.000001	0.000000	0.000000
0.601250	11.838666	24.998806	-0.037728	-0.039680	2.618142	0.000000	0.000001	0.000000	0.000000	0.000001	0.000000	0.000000
0.898573	11.868579	25.025943	-0.033773	-0.112963	2.618142	0.000000	-0.006420	0.000000	0.000000	0.000001	0.000000	0.000000
1.339533	12.050616	24.847983	-0.380611	0.514999	2.631604	0.000000	0.067538	0.000000	0.000000	0.000001	0.000000	0.000000
1.780493	12.545018	24.124469	-0.744837	1.119529	2.677818	0.000000	0.142266	0.000000	0.000001	0.000001	0.000000	0.000000
2.221453	13.374373	22.888318	-1.143093	1.673121	2.757308	0.000000	0.218613	0.000000	0.000001	0.000001	0.000000	0.000000
2.662413	14.576574	21.195775	-1.593574	2.150587	2.870982	0.000000	0.297450	0.000000	0.000001	0.000001	0.000000	0.000000
3.108373	16.227323	19.099025	-2.121156	2.531335	3.021994	0.000000	0.380165	0.000000	0.000001	0.000001	0.000000	0.000000
3.657433	18.344105	16.744130	-1.711306	1.782939	3.205455	0.000000	0.287127	0.000000	0.000002	0.000001	0.000000	0.000000
4.206493	19.941379	15.136922	-1.180578	1.161539	3.336358	0.000000	0.188996	0.000000	0.000002	0.000001	0.000000	0.000000
4.755553	20.906320	14.162922	-0.566461	0.622872	3.412380	0.000000	0.087513	0.000000	0.000002	0.000000	0.000000	0.000000
5.304613	21.170771	13.752755	0.087669	0.128572	3.432172	0.000000	-0.015522	0.000000	0.000003	0.000000	0.000000	0.000000
5.603185	21.155665	13.661179	0.018237	0.142207	3.430215	0.000000	-0.006555	0.000000	0.000003	0.000000	0.000000	0.000000
5.936519	21.148761	13.574673	0.002476	0.117313	3.428030	0.000000	-0.006555	0.000000	0.000003	0.000000	0.000000	0.000000
6.269852	21.152364	13.504762	-0.013286	0.092420	3.425845	0.000000	-0.006555	0.000000	0.000003	0.000000	0.000000	0.000000
6.604435	21.166548	13.451278	-0.029106	0.067433	3.423652	0.000000	-0.006555	0.000000	0.000003	0.000000	0.000000	0.000000
6.901758	21.188035	13.417781	-0.098524	0.080286	3.421703	0.000000	0.002385	0.000000	0.000003	0.000000	0.000000	0.000000
7.450818	20.935076	13.590249	0.556511	-0.396256	3.394811	0.000000	-0.100196	0.000000	0.000003	0.000000	0.000000	0.000000
7.999878	19.980238	14.298353	1.172236	-0.901023	3.312002	0.000000	-0.201000	0.000000	0.000003	0.000000	0.000000	0.000000
8.548938	18.390966	15.592530	1.705161	-1.469967	3.174744	0.000000	-0.298239	0.000000	0.000004	0.000000	0.000000	0.000000
9.097998	16.279520	17.564960	2.117641	-2.143614	2.985472	0.000000	-0.390187	0.000000	0.000004	-0.000000	0.000000	0.000000
9.543958	14.632135	19.322533	1.589511	-1.780829	2.829770	0.000000	-0.308481	0.000000	0.000004	0.000000	0.000000	0.000000
9.984918	13.433827	20.703176	1.138296	-1.338249	2.710989	0.000000	-0.230772	0.000000	0.000004	0.000000	0.000000	0.000000
10.425878	12.609106	21.665054	0.739085	-0.834779	2.625862	0.000000	-0.155691	0.000000	0.000004	0.000000	0.000000	0.000000
10.866838	12.120293	22.164404	0.373642	-0.293327	2.573422	0.000000	-0.082384	0.000000	0.000004	0.000000	0.000000	0.000000
11.309048	11.944918	22.177987	0.054456	0.207025	2.553049	0.000000	-0.016275	0.000000	0.000004	0.000000	0.000000	0.000000
11.606371	11.919959	22.059037	0.029491	0.193045	2.548209	0.000000	-0.016275	0.000000	0.000004	0.000000	0.000000	0.000000
12.086371	11.910993	21.884548	-0.010813	0.170474	2.540397	0.000000	-0.016275	0.000000	0.000004	0.000000	0.000000	0.000000
12.566371	11.940720	21.731727	-0.051117	0.147903	2.532585	0.000000	-0.016275	0.000000	0.000004	0.000000	0.000000	0.000000
13.046371	12.009137	21.600574	-0.091420	0.125333	2.524773	0.000000	-0.016275	0.000000	0.000005	0.000000	0.000000	0.000000
13.526371	12.116247	21.491089	-0.131724	0.102762	2.516961	0.000000	-0.016275	0.000000	0.000005	0.000000	0.000000	0.000000
14.007621	12.262477	21.403071	-0.172132	0.080132	2.509128	0.000000	-0.016275	0.000000	0.000005	0.000000	0.000000	0.000000
14.304943	12.372258	21.359577	-0.166758	0.013774	2.504289	0.000000	-0.022416	0.000000	0.000005	0.000000	0.000000	0.000000
14.745903	12.677971	21.113631	-0.529162	0.541855	2.510036	0.000000	0.048507	0.000000	0.000005	0.000001	0.000000	0.000000
15.186863	13.312707	20.411095	-0.915740	1.045281	2.547149	0.000000	0.119983	0.000000	0.000005	0.000001	0.000000	0.000000
15.627823	14.305465	19.283932	-1.344157	1.501148	2.616051	0.000000	0.192826	0.000000	0.000006	0.000001	0.000000	0.000000
16.068783	15.701602	17.783429	-1.833984	1.888714	2.717527	0.000000	0.267864	0.000000	0.000006	0.000001	0.000000	0.000000
16.514743	17.588558	15.956354	-2.412359	2.191092	2.854428	0.000000	0.346416	0.000000	0.000007	0.000001	0.000000	0.000000
17.063803	20.011936	13.916174	-1.975198	1.546608	3.020900	0.000000	0.259083	0.000000	0.000007	0.000001	0.000000	0.000000
17.612863	21.875341	12.519433	-1.398520	1.012285	3.138087	0.000000	0.167154	0.000000	0.000008	0.000001	0.000000	0.000000
18.161923	23.047150	11.666643	-0.723056	0.550065	3.203909	0.000000	0.072260	0.000000	0.000008	0.000000	0.000000	0.000000
18.710983	23.444594	11.297061	0.003480	0.127025	3.217201	0.000000	-0.023915	0.000000	0.000008	0.000000	0.000000	0.000000
19.009556	23.482908	11.211668	-0.070550	0.129463	3.212570	0.000000	-0.015510	0.000000	0.000008	0.000000	0.000000	0.000000
19.342889	23.534696	11.135436	-0.084816	0.099234	3.207400	0.000000	-0.015510	0.000000	0.000008	0.000000	0.000000	0.000000
19.676223	23.595995	11.079356	-0.099081	0.069005	3.202230	0.000000	-0.015510	0.000000	0.000008	0.000000	0.000000	0.000000
20.010806	23.667381	11.043196	-0.230661	0.093377	3.197060	0.000000	0.000330	0.000000	0.000008	0.000000	0.000000	0.000000
20.308129	23.808476	10.995745	-0.306095	0.094947	3.197158	0.000000	0.008683	0.000000	0.000008	0.000000	0.000000	0.000000
20.857189	23.733974	11.113876	0.440982	-0.311368	3.175706	0.000000	-0.086711	0.000000	0.000008	-0.000000	0.000000	0.000000
21.406249	22.851412	11.687676	1.156909	-0.739861	3.102222	0.000000	-0.180567	0.000000	0.000008	-0.000000	0.000000	0.000000
21.955309	21.223128	12.758017	1.791119	-1.221052	2.978010	0.000000	-0.271220	0.000000	0.000008	-0.000001	0.000000	0.000000
22.504369	18.964138	14.401136	2.298813	-1.789216	2.805274	0.000000	-0.357062	0.000000	0.000008	-0.000001	0.000000	0.000000
22.950329	17.183935	15.876255	1.707122	-1.504570	2.663333	0.000000	-0.279851	0.000000	0.000007	-0.000001	0.000000	0.000000
23.391289	15.907680	17.052315	1.198122	-1.152324	2.556253	0.000000	-0.206281	0.000000	0.000007	-0.000000	0.000000	0.000000
23.832249	15.054579	17.893327	0.743861	-0.747648	2.481065	0.000000	-0.135062	0.000000	0.000007	-0.000000	0.000000	0.000000
24.273209	14.585656	18.361027	0.323585	-0.308955	2.436914	0.000000	-0.065380	0.000000	0.000007	-0.000000	0.000000	0.000000
24.715418	14.479605	18.433888	-0.046488	0.098524	2.423293	0.000000	-0.002385	0.000000	0.000007	0.000000	0.000000	0.000000
25.012741	14.513367	18.380143	-0.067066	0.082238	2.422584	0.000000	-0.002385	0.000000	0.000007	0.000000	0.000000	0.000000
25.346075	14.565768	18.331404	-0.090137	0.063980	2.421789	0.000000	-0.002385	0.000000	0.000007	0.000000	0.000000	0.000000
25.679408	14.633549	18.294837	-0.113207	0.045722	2.420994	0.000000	-0.002385	0.000000	0.000007	0.000000	0.000000	0.000000
26.013991	14.716753	18.270744	-0.016973	-0.120826	2.420171	0.000000	-0.022020	0.000000	0.000007	0.000000	0.000000	0.000000
26.311314	14.732854	18.347501	-0.001054	-0.182327	2.413624	0.000000	-0.027938	0.000000	0.000007	-0.000000	0.000000	0.000000
26.752274	14.915315	18.309287	-0.414296	0.268659	2.416415	0.000000	0.040610	0.000000	0.000007	0.000000	0.000000	0.000000
27.193234	15.469160	17.877230	-0.846465	0.707422	2.449506	0.000000	0.109620	0.000000	0.000007	0.000000	0.000000	0.000000
27.634194	16.419691	17.070989	-1.317308	1.113998	2.513274	0.000000	0.179879	0.000000	0.000007	0.000001	0.000000	0.000000
28.075154	17.810337	15.927246	-1.848334	1.469887	2.608446	0.000000	0.252187	0.000000	0.000007	0.000001	0.000000	0.000000
28.521114	19.728795	14.480816	-2.468766	1.759812	2.737707	0.000000	0.327811	0.000000	0.000008	0.000001	0.000000	0.000000
29.070174	22.167167	12.869115	-1.945937	1.192896	2.895029	0.000000	0.244407	0.000000	0.000008	0.000001	0.000000	0.000000
29.619234	23.952073	11.829924	-1.285658	0.710949	3.005299	0.000000	0.156669	0.000000	0.000009	0.000000	0.000000	0.000000
30.168294	24.957436	11.289222	-0.534565	0.279640	3.066560	0.000000	0.066151	0.000000	0.000009	0.000000	0.000000	0.000000
30.717354	25.112243	11.208498	0.254286	-0.131750	3.077726	0.000000	-0.025539	0.000000	0.000009	-0.000000	0.000000	0.000000
31.015927	25.003251	11.277723	0.176364	-0.129384	3.072501	0.000000	-0.017498	0.000000	0.000009	-0.000000	0.000000	0.000000
31.349260	24.890257	11.373996	0.162618	-0.159436	3.066668	0.000000	-0.017498	0.000000	0.000009	-0.000000	0.000000	0.000000
31.682593	24.786427	11.490304	0.148872	-0.189487	3.060836	0.000000	-0.017498	0.000000	0.000008	-0.000000	0.000000	0.000000
32.017177	24.691424	11.627195	0.135074	-0.219652	3.054981	0.000000	-0.017498	0.000000	0.000008	-0.000000	0.000000	0.000000
32.314499	24.614748	11.765780	0.058503	-0.215717	3.049779	0.000000	-0.009530	0.000000	0.000008	-0.000000	0.000000	0.000000
32.863559	24.128813	12.241952	0.821287	-0.656652	3.019663	0.000000	-0.100009	0.000000	0.000008	-0.000000	0.000000	0.000000
33.412619	22.832304	13.225011	1.526059	-1.144358	2.940283	0.000000	-0.188713	0.000000	0.000008	-0.000001	0.000000	0.000000
33.961679	20.816800	14.784979	2.123038	-1.713574	2.813049	0.000000	-0.274070	0.000000	0.000008	-0.000001	0.000000	0.000000
34.510739	18.224665	17.032970	2.570056	-2.404845	2.640216	0.000000	-0.354566	0.000000	0.000007	-0.000001	0.000000	0.000000
34.956699	16.209249	19.043673	1.965410	-2.085037	2.498436	0.000000	-0.281634	0.000000	0.000006	-0.000001	0.000000	0.000000
35.397659	14.706436	20.706311	1.455566	-1.671110	2.389629	0.000000	-0.212338	0.000000	0.000006	-0.000001	0.000000	0.000000
35.838619	13.622353	21.968847	1.012222	-1.181148	2.310817	0.000000	-0.145460	0.000000	0.000006	-0.000001	0.000000	0.000000
36.279579	12.907470	22.773837	0.615124	-0.637445	2.261102	0.000000	-0.080240	0.000000	0.000005	-0.000001	0.000000	0.000000
36.721789	12.528435	23.084958	0.276745	-0.121401	2.239892	0.000000	-0.021425	0.000000	0.000005	-0.000000	0.000000	0.000000
37.019112	12.371467	23.161034	0.251196	-0.134470	2.233522	0.000000	-0.021425	0.000000	0.000005	-0.000000	0.000000	0.000000
37.352445	12.213551	23.255565	0.222552	-0.149122	2.226380	0.000000	-0.021425	0.000000	0.000005	-0.000000	0.000000	0.000000
37.685779	12.074731	23.359864	0.193908	-0.163775	2.219239	0.000000	-0.021425	0.000000	0.000005	-0.000000	0.000000	0.000000
38.020362	11.954593	23.474378	0.165157	-0.178482	2.212070	0.000000	-0.021425	0.000000	0.000005	-0.000000	0.000000	0.000000
38.317684	11.863980	23.584397	0.168700	-0.249385	2.205700	0.000000	-0.026834	0.000000	0.000005	-0.000000	0.000000	0.000000
38.758644	11.866497	23.543119	-0.174430	0.342637	2.207795	0.000000	0.036345	0.000000	0.000004	-0.000000	0.000000	0.000000
39.199604	12.173985	22.984632	-0.525530	0.919069	2.237814	0.000000	0.099938	0.000000	0.000004	-0.000000	0.000000	0.000000
39.640564	12.800491	21.934346	-0.900639	1.453684	2.296099	0.000000	0.164669	0.000000	0.000004	-0.000000	0.000000	0.000000
40.081524	13.774640	20.440048	-1.316896	1.922158	2.383314	0.000000	0.231275	0.000000	0.000004	0.000000	0.000000	0.000000
40.527484	15.158506	18.547160	-1.797144	2.304455	2.501923	0.000000	0.300921	0.000000	0.000004	0.000000	0.000000	0.000000
41.076544	16.924621	16.420089	-1.400431	1.592435	2.646617	0.000000	0.225362	0.000000	0.000004	0.000000	0.000000	0.000000
41.625604	18.197868	15.008401	-0.904799	0.993841	2.748663	0.000000	0.145805	0.000000	0.000004	-0.000000	0.000000	0.000000
42.174664	18.888311	14.211544	-0.345257	0.466037	2.806253	0.000000	0.063663	0.000000	0.000004	-0.000000	0.000000	0.000000
42.723724	18.947180	13.972760	0.238673	-0.028574	2.818365	0.000000	-0.019609	0.000000	0.000004	-0.000000	0.000000	0.000000
43.022297	18.839092	13.974403	0.172847	-0.013436	2.814709	0.000000	-0.012245	0.000000	0.000004	-0.000000	0.000000	0.000000
43.502297	18.685754	14.003792	0.146607	-0.047791	2.808832	0.000000	-0.012245	0.000000	0.000004	-0.000000	0.000000	0.000000
43.982297	18.557607	14.066161	0.120367	-0.082145	2.802954	0.000000	-0.012245	0.000000	0.000004	-0.000000	0.000000	0.000000
44.462297	18.454650	14.161511	0.094127	-0.116500	2.797077	0.000000	-0.012245	0.000000	0.000003	-0.000000	0.000000	0.000000
44.942297	18.376883	14.289841	0.067887	-0.150855	2.791199	0.000000	-0.012245	0.000000	0.000003	-0.000000	0.000000	0.000000
45.423547	18.324430	14.451436	-0.049211	-0.113698	2.785323	0.000000	0.001555	0.000000	0.000003	-0.000000	0.000000	0.000000
45.720870	18.358529	14.525242	-0.113442	-0.096587	2.785786	0.000000	0.008833	0.000000	0.000003	-0.000000	0.000000	0.000000
46.269930	18.173977	14.912283	0.447577	-0.612490	2.768064	0.000000	-0.073292	0.000000	0.000003	-0.000000	0.000000	0.000000
46.818990	17.387150	15.886337	0.976982	-1.172020	2.705541	0.000000	-0.154117	0.000000	0.000002	-0.000001	0.000000	0.000000
47.368050	16.053627	17.516782	1.437378	-1.815030	2.599327	0.000000	-0.232209	0.000000	0.000002	-0.000001	0.000000	0.000000
47.917110	14.267602	19.919752	1.796245	-2.587320	2.451305	0.000000	-0.306182	0.000000	0.000002	-0.000001	0.000000	0.000000
48.363070	12.877651	22.056263	1.331558	-2.183353	2.330053	0.000000	-0.237883	0.000000	0.000002	-0.000001	0.000000	0.000000
48.804030	11.883515	23.766937	0.931475	-1.681315	2.239615	0.000000	-0.172692	0.000000	0.000001	-0.000001	0.000000	0.000000
49.244990	11.222192	24.999301	0.573949	-1.102779	2.177464	0.000000	-0.109467	0.000000	0.000001	-0.000001	0.000000	0.000000
49.685950	10.863468	25.697283	0.242644	-0.474068	2.142892	0.000000	-0.047488	0.000000	0.000001	-0.000001	0.000000	0.000000
50.128160	10.791082	25.828845	-0.051228	0.112824	2.135516	0.000000	0.008712	0.000000	0.000000	-0.000001	0.000000	0.000000
50.425482	10.829758	25.765220	-0.078853	0.101167	2.138106	0.000000	0.008712	0.000000	0.000000	-0.000001	0.000000	0.000000
50.758816	10.892650	25.702132	-0.109824	0.088097	2.141010	0.000000	0.008712	0.000000	0.000000	-0.000001	0.000000	0.000000
51.092149	10.976190	25.647758	-0.140795	0.075027	2.143914	0.000000	0.008712	0.000000	-0.000000	-0.000001	0.000000	0.000000
51.426732	11.080581	25.602461	-0.081989	-0.145791	2.146808	0.000000	-0.008704	0.000000	-0.000000	-0.000001	0.000000	0.000000
51.724055	11.137367	25.692681	-0.081690	-0.220658	2.144220	0.000000	-0.013962	0.000000	-0.000000	-0.000001	0.000000	0.000000
52.165015	11.354809	25.601462	-0.413291	0.426735	2.151652	0.000000	0.047700	0.000000	-0.000001	-0.000001	0.000000	0.000000
52.605975	11.871886	24.945708	-0.763775	1.054712	2.186368	0.000000	0.109906	0.000000	-0.000001	-0.000001	0.000000	0.000000
53.046935	12.712223	23.755254	-1.149153	1.634700	2.248764	0.000000	0.173364	0.000000	-0.000001	-0.000001	0.000000	0.000000
53.487895	13.914211	22.084267	-1.587033	2.140311	2.339551	0.000000	0.238796	0.000000	-0.000001	-0.000001	0.000000	0.000000
53.933855	15.553369	19.983789	-2.101654	2.549874	2.461267	0.000000	0.307347	0.000000	-0.000002	-0.000001	0.000000	0.000000
54.482915	17.663703	17.620271	-1.719135	1.780197	2.609839	0.000000	0.233042	0.000000	-0.000002	-0.000001	0.000000	0.000000
55.031975	19.284415	16.027781	-1.215185	1.137318	2.716417	0.000000	0.154604	0.000000	-0.000002	-0.000001	0.000000	0.000000
55.581035	20.301025	15.092887	-0.625401	0.575449	2.779110	0.000000	0.073424	0.000000	-0.000003	-0.000000	0.000000	0.000000
56.130095	20.641725	14.749000	0.008559	0.054567	2.796806	0.000000	-0.009059	0.000000	-0.000003	-0.000000	0.000000	0.000000
56.428668	20.673148	14.699500	-0.059870	0.072686	2.796283	0.000000	-0.001751	0.000000	-0.000003	-0.000000	0.000000	0.000000
56.762001	20.718455	14.658641	-0.076051	0.049889	2.795700	0.000000	-0.001751	0.000000	-0.000003	-0.000000	0.000000	0.000000
57.095334	20.774550	14.632981	-0.092233	0.027093	2.795116	0.000000	-0.001751	0.000000	-0.000003	-0.000000	0.000000	0.000000
57.429918	20.841704	14.622507	-0.108476	0.004211	2.794530	0.000000	-0.001751	0.000000	-0.000003	-0.000000	0.000000	0.000000
57.727240	20.910500	14.626048	-0.177546	0.022094	2.794010	0.000000	0.005549	0.000000	-0.000003	-0.000000	0.000000	0.000000
58.276300	20.748694	14.882688	0.470497	-0.492269	2.774417	0.000000	-0.076812	0.000000	-0.000004	-0.000000	0.000000	0.000000
58.825360	19.889378	15.719984	1.085306	-1.041696	2.709911	0.000000	-0.157811	0.000000	-0.000004	-0.000000	0.000000	0.000000
59.374420	18.393250	17.197576	1.623455	-1.665320	2.601636	0.000000	-0.236011	0.000000	-0.000004	-0.000000	0.000000	0.000000
59.923480	16.365988	19.420710	2.046931	-2.407561	2.451511	0.000000	-0.310025	0.000000	-0.000004	0.000000	0.000000	0.000000
60.369440	14.779212	21.396693	1.523781	-2.004591	2.328543	0.000000	-0.241743	0.000000	-0.000004	-0.000000	0.000000	0.000000
60.810400	13.637823	22.953197	1.074458	-1.511785	2.236391	0.000000	-0.176613	0.000000	-0.000004	-0.000000	0.000000	0.000000
61.251360	12.869639	24.042979	0.674223	-0.950194	2.172490	0.000000	-0.113493	0.000000	-0.000004	-0.000000	0.000000	0.000000
61.692320	12.439564	24.616453	0.304792	-0.345371	2.136110	0.000000	-0.051667	0.000000	-0.000004	-0.000000	0.000000	0.000000
62.134530	12.328001	24.646991	-0.020583	0.214669	2.126843	0.000000	0.004356	0.000000	-0.000004	-0.000000	0.000000	0.000000
62.431853	12.347414	24.523091	-0.044711	0.202050	2.128138	0.000000	0.004356	0.000000	-0.000004	-0.000000	0.000000	0.000000
62.765186	12.386238	24.393107	-0.071761	0.187902	2.129590	0.000000	0.004356	0.000000	-0.000004	-0.000000	0.000000	0.000000
63.098520	12.443095	24.272555	-0.098811	0.173755	2.131043	0.000000	0.004356	0.000000	-0.000004	-0.000000	0.000000	0.000000
63.433103	12.518301	24.161035	-0.125963	0.159554	2.132500	0.000000	0.004356	0.000000	-0.000005	-0.000000	0.000000	0.000000
63.730426	12.600378	24.069909	-0.119189	0.087906	2.133795	0.000000	-0.000877	0.000000	-0.000005	-0.000000	0.000000	0.000000
64.171386	12.865921	23.727292	-0.485289	0.686118	2.146949	0.000000	0.060591	0.000000	-0.000005	-0.000001	0.000000	0.000000
64.612346	13.462855	22.868902	-0.873560	1.253113	2.187333	0.000000	0.122748	0.000000	-0.000005	-0.000001	0.000000	0.000000
65.053306	14.418451	21.533795	-1.301742	1.763092	2.255408	0.000000	0.186304	0.000000	-0.000005	-0.000001	0.000000	0.000000
65.494266	15.776367	19.782719	-1.789396	2.192852	2.351950	0.000000	0.251982	0.000000	-0.000006	-0.000001	0.000000	0.000000
65.940226	17.621809	17.670561	-2.363496	2.523595	2.479630	0.000000	0.320931	0.000000	-0.000006	-0.000001	0.000000	0.000000
66.489286	19.987388	15.307666	-1.919416	1.805336	2.635476	0.000000	0.245914	0.000000	-0.000007	-0.000001	0.000000	0.000000
67.038346	21.787526	13.658687	-1.339759	1.215668	2.748872	0.000000	0.166535	0.000000	-0.000007	-0.000001	0.000000	0.000000
67.587406	22.895071	12.606172	-0.665467	0.712589	2.817809	0.000000	0.084201	0.000000	-0.000008	-0.000000	0.000000	0.000000
68.136466	23.231792	12.075151	0.055830	0.260265	2.841062	0.000000	0.000375	0.000000	-0.000008	-0.000000	0.000000	0.000000
68.435038	23.238540	11.908905	-0.017727	0.264986	2.843390	0.000000	0.007798	0.000000	-0.000008	-0.000000	0.000000	0.000000
68.768372	23.255140	11.742233	-0.032075	0.235030	2.845990	0.000000	0.007798	0.000000	-0.000008	-0.000000	0.000000	0.000000
69.101705	23.281307	11.595531	-0.046424	0.205074	2.848589	0.000000	0.007798	0.000000	-0.000008	-0.000000	0.000000	0.000000
69.436288	23.317191	11.468362	-0.060826	0.175006	2.851198	0.000000	0.007798	0.000000	-0.000008	-0.000000	0.000000	0.000000
69.733611	23.357166	11.372240	-0.134656	0.178002	2.853517	0.000000	0.015255	0.000000	-0.000008	-0.000000	0.000000	0.000000
70.282671	23.103893	11.404474	0.593210	-0.237056	2.838710	0.000000	-0.069112	0.000000	-0.000008	0.000000	0.000000	0.000000
