#ParticleID	Turn	x[m]	xp	y[m]	yp	z[m]	dE[GeV]# s	beta_x	beta_y	alpha_x	alpha_y	D_x	D_y	D_px	D_py	orbit_x	orbit_px	orbit_y	orbit_py
0.300000	11.824648	24.974524	-0.012380	-0.027637	2.618154	0.000000	-0.000005	0.000000	-0.000000	0.000001	0.000000	0.000000
0.601250	11.839783	24.994811	-0.037861	-0.039708	2.618152	0.000000	-0.000005	0.000000	0.000000	0.000001	0.000000	0.000000
0.898573	11.869774	25.021966	-0.033901	-0.112983	2.618151	0.000000	-0.006425	0.000000	0.000000	0.000001	0.000000	0.000000
1.339533	12.051935	24.844071	-0.380769	0.514874	2.631611	0.000000	0.067533	0.000000	0.000001	0.000001	0.000000	0.000000
1.780493	12.546492	24.120711	-0.745033	1.119305	2.677822	0.000000	0.142260	0.000000	0.000001	0.000001	0.000000	0.000000
2.221453	13.376040	22.884798	-1.143335	1.672808	2.757310	0.000000	0.218608	0.000000	0.000001	0.000001	0.000000	0.000000
2.662413	14.578478	21.192565	-1.593874	2.150200	2.870981	0.000000	0.297445	0.000000	0.000001	0.000001	0.000000	0.000000
3.108373	16.229526	19.096188	-2.121528	2.530890	3.021991	0.000000	0.380160	0.000000	0.000002	0.000001	0.000000	0.000000
3.657433	18.346688	16.741718	-1.711622	1.782605	3.205450	0.000000	0.287122	0.000000	0.000002	0.000001	0.000000	0.000000
4.206493	19.944268	15.134827	-1.180816	1.161291	3.336350	0.000000	0.188992	0.000000	0.000002	0.000001	0.000000	0.000000
4.755553	20.909419	14.161061	-0.566603	0.622693	3.412369	0.000000	0.087509	0.000000	0.000003	0.000000	0.000000	0.000000
5.304613	21.173970	13.751059	0.087632	0.128449	3.432159	0.000000	-0.015526	0.000000	0.000003	0.000000	0.000000	0.000000
5.603185	21.158891	13.659560	0.018194	0.142077	3.430201	0.000000	-0.006559	0.000000	0.000003	0.000000	0.000000	0.000000
5.936519	21.152015	13.573141	0.002435	0.117182	3.428014	0.000000	-0.006559	0.000000	0.000003	0.000000	0.000000	0.000000
6.269852	21.155645	13.503318	-0.013325	0.092286	3.425828	0.000000	-0.006559	0.000000	0.000003	0.000000	0.000000	0.000000
6.604435	21.169854	13.449924	-0.029143	0.067297	3.423633	0.000000	-0.006559	0.000000	0.000003	0.000000	0.000000	0.000000
6.901758	21.191363	13.416508	-0.098567	0.080145	3.421683	0.000000	0.002381	0.000000	0.000004	0.000000	0.000000	0.000000
7.450818	20.938389	13.589113	0.556580	-0.396364	3.394789	0.000000	-0.100199	0.000000	0.000004	0.000000	0.000000	0.000000
7.999878	19.983416	14.297320	1.172412	-0.901104	3.311978	0.000000	-0.201003	0.000000	0.000004	0.000000	0.000000	0.000000
8.548938	18.393898	15.591575	1.705431	-1.470029	3.174719	0.000000	-0.298241	0.000000	0.000004	0.000000	0.000000	0.000000
9.097998	16.282111	17.564064	2.117987	-2.143660	2.985446	0.000000	-0.390189	0.000000	0.000004	-0.000000	0.000000	0.000000
9.543958	14.634453	19.321694	1.589781	-1.780910	2.829744	0.000000	-0.308483	0.000000	0.000004	0.000000	0.000000	0.000000
9.984918	13.435937	20.702421	1.138502	-1.338359	2.710961	0.000000	-0.230774	0.000000	0.000004	0.000000	0.000000	0.000000
10.425878	12.611058	21.664409	0.739238	-0.834915	2.625834	0.000000	-0.155694	0.000000	0.000004	0.000000	0.000000	0.000000
10.866838	12.122131	22.163888	0.373747	-0.293482	2.573391	0.000000	-0.082388	0.000000	0.000004	0.000000	0.000000	0.000000
11.309048	11.946681	22.177614	0.054524	0.206859	2.553016	0.000000	-0.016280	0.000000	0.000004	0.000000	0.000000	0.000000
11.606371	11.921680	22.058763	0.029562	0.192879	2.548176	0.000000	-0.016280	0.000000	0.000004	0.000000	0.000000	0.000000
12.086371	11.912644	21.884432	-0.010736	0.170310	2.540361	0.000000	-0.016280	0.000000	0.000005	0.000000	0.000000	0.000000
12.566371	11.942293	21.731768	-0.051034	0.147740	2.532547	0.000000	-0.016280	0.000000	0.000005	0.000000	0.000000	0.000000
13.046371	12.010629	21.600771	-0.091332	0.125170	2.524732	0.000000	-0.016280	0.000000	0.000005	0.000000	0.000000	0.000000
13.526371	12.117650	21.491441	-0.131630	0.102601	2.516917	0.000000	-0.016280	0.000000	0.000005	0.000000	0.000000	0.000000
14.007621	12.263788	21.403578	-0.172033	0.079973	2.509083	0.000000	-0.016280	0.000000	0.000005	0.000000	0.000000	0.000000
14.304943	12.373508	21.360179	-0.166652	0.013614	2.504242	0.000000	-0.022421	0.000000	0.000006	0.000000	0.000000	0.000000
14.745903	12.679139	21.114366	-0.529080	0.541714	2.509987	0.000000	0.048502	0.000000	0.000006	0.000001	0.000000	0.000000
15.186863	13.313813	20.411942	-0.915681	1.045167	2.547097	0.000000	0.119976	0.000000	0.000006	0.000001	0.000000	0.000000
15.627823	14.306527	19.284867	-1.344116	1.501065	2.615996	0.000000	0.192817	0.000000	0.000006	0.000001	0.000000	0.000000
16.068783	15.702635	17.784422	-1.833960	1.888666	2.717468	0.000000	0.267854	0.000000	0.000007	0.000001	0.000000	0.000000
16.514743	17.589577	15.957372	-2.412350	2.191082	2.854363	0.000000	0.346404	0.000000	0.000007	0.000001	0.000000	0.000000
17.063803	20.012920	13.917215	-1.975144	1.546579	3.020829	0.000000	0.259073	0.000000	0.000008	0.000001	0.000000	0.000000
17.612863	21.876241	12.520517	-1.398423	1.012234	3.138011	0.000000	0.167147	0.000000	0.000008	0.000001	0.000000	0.000000
18.161923	23.047925	11.667795	-0.722925	0.549990	3.203831	0.000000	0.072255	0.000000	0.000009	0.000000	0.000000	0.000000
18.710983	23.445209	11.298313	0.003637	0.126919	3.217121	0.000000	-0.023918	0.000000	0.000009	0.000000	0.000000	0.000000
19.009556	23.483430	11.212980	-0.070394	0.129364	3.212489	0.000000	-0.015512	0.000000	0.000009	0.000000	0.000000	0.000000
19.342889	23.535114	11.136812	-0.084658	0.099140	3.207318	0.000000	-0.015512	0.000000	0.000009	0.000000	0.000000	0.000000
19.676223	23.596307	11.080794	-0.098923	0.068915	3.202147	0.000000	-0.015512	0.000000	0.000009	0.000000	0.000000	0.000000
20.010806	23.667587	11.044693	-0.230504	0.093299	3.196977	0.000000	0.000327	0.000000	0.000009	0.000000	0.000000	0.000000
20.308129	23.808589	10.997287	-0.305936	0.094876	3.197074	0.000000	0.008680	0.000000	0.000009	0.000000	0.000000	0.000000
20.857189	23.733911	11.115519	0.441141	-0.311484	3.175621	0.000000	-0.086711	0.000000	0.000009	-0.000000	0.000000	0.000000
21.406249	22.851179	11.689475	1.157058	-0.740029	3.102137	0.000000	-0.180564	0.000000	0.000009	-0.000000	0.000000	0.000000
21.955309	21.222743	12.760036	1.791246	-1.221286	2.977928	0.000000	-0.271214	0.000000	0.000009	-0.000001	0.000000	0.000000
22.504369	18.963630	14.403455	2.298909	-1.789532	2.805196	0.000000	-0.357054	0.000000	0.000008	-0.000001	0.000000	0.000000
22.950329	17.183341	15.878834	1.707220	-1.504833	2.663258	0.000000	-0.279845	0.000000	0.000008	-0.000001	0.000000	0.000000
23.391289	15.906998	17.055097	1.198225	-1.152522	2.556179	0.000000	-0.206278	0.000000	0.000008	-0.000001	0.000000	0.000000
23.832249	15.053802	17.896252	0.743975	-0.747772	2.480993	0.000000	-0.135060	0.000000	0.000008	-0.000000	0.000000	0.000000
24.273209	14.584773	18.364026	0.323714	-0.308999	2.436842	0.000000	-0.065380	0.000000	0.000008	-0.000000	0.000000	0.000000
24.715418	14.478598	18.436889	-0.046340	0.098554	2.423221	0.000000	-0.002387	0.000000	0.000008	0.000000	0.000000	0.000000
25.012741	14.512273	18.383126	-0.066920	0.082271	2.422511	0.000000	-0.002387	0.000000	0.000008	0.000000	0.000000	0.000000
25.346075	14.564577	18.334363	-0.089992	0.064016	2.421716	0.000000	-0.002387	0.000000	0.000008	0.000000	0.000000	0.000000
25.679408	14.632262	18.297771	-0.113064	0.045761	2.420920	0.000000	-0.002387	0.000000	0.000008	0.000000	0.000000	0.000000
26.013991	14.715370	18.273651	-0.016841	-0.120808	2.420097	0.000000	-0.022020	0.000000	0.000008	0.000000	0.000000	0.000000
26.311314	14.731394	18.350397	-0.000929	-0.182313	2.413550	0.000000	-0.027939	0.000000	0.000008	-0.000000	0.000000	0.000000
26.752274	14.913728	18.312135	-0.414133	0.268752	2.416340	0.000000	0.040607	0.000000	0.000008	0.000000	0.000000	0.000000
27.193234	15.467409	17.879964	-0.846257	0.707588	2.449430	0.000000	0.109616	0.000000	0.000008	0.000000	0.000000	0.000000
27.634194	16.417733	17.073546	-1.317044	1.114230	2.513195	0.000000	0.179873	0.000000	0.000008	0.000001	0.000000	0.000000
28.075154	17.808118	15.929573	-1.848004	1.470176	2.608363	0.000000	0.252179	0.000000	0.000008	0.000001	0.000000	0.000000
28.521114	19.726247	14.482865	-2.468353	1.760143	2.737620	0.000000	0.327800	0.000000	0.000009	0.000001	0.000000	0.000000
29.070174	22.164198	12.870845	-1.945590	1.193150	2.894937	0.000000	0.244399	0.000000	0.000009	0.000001	0.000000	0.000000
29.619234	23.948769	11.831409	-1.285400	0.711143	3.005203	0.000000	0.156664	0.000000	0.000010	0.000000	0.000000	0.000000
30.168294	24.953907	11.290521	-0.534415	0.279789	3.066462	0.000000	0.066150	0.000000	0.000010	0.000000	0.000000	0.000000
30.717354	25.108614	11.209654	0.254317	-0.131637	3.077628	0.000000	-0.025538	0.000000	0.000010	-0.000000	0.000000	0.000000
31.015927	24.999598	11.278808	0.176404	-0.129265	3.072404	0.000000	-0.017497	0.000000	0.000010	-0.000000	0.000000	0.000000
31.349260	24.886578	11.375000	0.162655	-0.159312	3.066571	0.000000	-0.017497	0.000000	0.000010	-0.000000	0.000000	0.000000
31.682593	24.782724	11.491225	0.148907	-0.189360	3.060739	0.000000	-0.017497	0.000000	0.000009	-0.000000	0.000000	0.000000
32.017177	24.687698	11.628029	0.135107	-0.219521	3.054885	0.000000	-0.017497	0.000000	0.000009	-0.000000	0.000000	0.000000
32.314499	24.611003	11.766535	0.058545	-0.215581	3.049683	0.000000	-0.009530	0.000000	0.000009	-0.000000	0.000000	0.000000
32.863559	24.125092	12.242566	0.821204	-0.656529	3.019568	0.000000	-0.100005	0.000000	0.000009	-0.000000	0.000000	0.000000
33.412619	22.828741	13.225495	1.525857	-1.144241	2.940192	0.000000	-0.188706	0.000000	0.000009	-0.000001	0.000000	0.000000
33.961679	20.813517	14.785334	2.122731	-1.713454	2.812962	0.000000	-0.274060	0.000000	0.000008	-0.000001	0.000000	0.000000
34.510739	18.221766	17.033186	2.569667	-2.404713	2.640135	0.000000	-0.354553	0.000000	0.000008	-0.000001	0.000000	0.000000
34.956699	16.206658	19.043762	1.965107	-2.084884	2.498360	0.000000	-0.281623	0.000000	0.000007	-0.000001	0.000000	0.000000
35.397659	14.704080	20.706258	1.455334	-1.670942	2.389558	0.000000	-0.212329	0.000000	0.000007	-0.000001	0.000000	0.000000
35.838619	13.620173	21.968643	1.012052	-1.180974	2.310749	0.000000	-0.145454	0.000000	0.000006	-0.000001	0.000000	0.000000
36.279579	12.905416	22.773480	0.615007	-0.637272	2.261037	0.000000	-0.080235	0.000000	0.000006	-0.000001	0.000000	0.000000
36.721789	12.526463	23.084452	0.276672	-0.121236	2.239828	0.000000	-0.021422	0.000000	0.000006	-0.000000	0.000000	0.000000
37.019112	12.369539	23.160430	0.251119	-0.134305	2.233459	0.000000	-0.021422	0.000000	0.000006	-0.000000	0.000000	0.000000
37.352445	12.211675	23.254851	0.222472	-0.148957	2.226319	0.000000	-0.021422	0.000000	0.000006	-0.000000	0.000000	0.000000
37.685779	12.072910	23.359040	0.193825	-0.163609	2.219178	0.000000	-0.021422	0.000000	0.000005	-0.000000	0.000000	0.000000
38.020362	11.952829	23.473442	0.165070	-0.178316	2.212011	0.000000	-0.021422	0.000000	0.000005	-0.000000	0.000000	0.000000
38.317684	11.862269	23.583363	0.168606	-0.249216	2.205642	0.000000	-0.026830	0.000000	0.000005	-0.000000	0.000000	0.000000
38.758644	11.864852	23.541949	-0.174486	0.342776	2.207738	0.000000	0.036347	0.000000	0.000005	-0.000000	0.000000	0.000000
39.199604	12.172374	22.983355	-0.525551	0.919172	2.237758	0.000000	0.099938	0.000000	0.000005	-0.000000	0.000000	0.000000
39.640564	12.798884	21.932996	-0.900626	1.453746	2.296043	0.000000	0.164668	0.000000	0.000005	-0.000000	0.000000	0.000000
40.081524	13.773005	20.438662	-1.316848	1.922176	2.383257	0.000000	0.231273	0.000000	0.000005	0.000000	0.000000	0.000000
40.527484	15.156811	18.545777	-1.797058	2.304429	2.501865	0.000000	0.300917	0.000000	0.000005	0.000000	0.000000	0.000000
41.076544	16.922866	16.418716	-1.400408	1.592443	2.646557	0.000000	0.225360	0.000000	0.000005	0.000000	0.000000	0.000000
41.625604	18.196124	15.007001	-0.904841	0.993883	2.748603	0.000000	0.145806	0.000000	0.000005	-0.000000	0.000000	0.000000
42.174664	18.886647	14.210078	-0.345360	0.466116	2.806194	0.000000	0.063665	0.000000	0.000005	-0.000000	0.000000	0.000000
42.723724	18.945660	13.971184	0.238515	-0.028452	2.818308	0.000000	-0.019605	0.000000	0.000005	-0.000000	0.000000	0.000000
43.022297	18.837664	13.972757	0.172693	-0.013321	2.814653	0.000000	-0.012242	0.000000	0.000004	-0.000000	0.000000	0.000000
43.502297	18.684474	14.002037	0.146452	-0.047679	2.808777	0.000000	-0.012242	0.000000	0.000004	-0.000000	0.000000	0.000000
43.982297	18.556476	14.064302	0.120211	-0.082038	2.802902	0.000000	-0.012242	0.000000	0.000004	-0.000000	0.000000	0.000000
44.462297	18.453668	14.159550	0.093971	-0.116397	2.797026	0.000000	-0.012242	0.000000	0.000004	-0.000000	0.000000	0.000000
44.942297	18.376052	14.287783	0.067730	-0.150755	2.791150	0.000000	-0.012242	0.000000	0.000004	-0.000000	0.000000	0.000000
45.423547	18.323750	14.449285	-0.049365	-0.113613	2.785276	0.000000	0.001558	0.000000	0.000003	-0.000000	0.000000	0.000000
45.720870	18.357941	14.523041	-0.113595	-0.096511	2.785740	0.000000	0.008837	0.000000	0.000003	-0.000000	0.000000	0.000000
46.269930	18.173566	14.909961	0.447409	-0.612345	2.768020	0.000000	-0.073287	0.000000	0.000003	-0.000001	0.000000	0.000000
46.818990	17.386928	15.883812	0.976810	-1.171795	2.705501	0.000000	-0.154111	0.000000	0.000003	-0.000001	0.000000	0.000000
47.368050	16.053590	17.513959	1.437215	-1.814709	2.599291	0.000000	-0.232201	0.000000	0.000002	-0.000001	0.000000	0.000000
47.917110	14.267734	19.916514	1.796101	-2.586881	2.451273	0.000000	-0.306173	0.000000	0.000002	-0.000001	0.000000	0.000000
48.363070	12.877905	22.052664	1.331426	-2.182984	2.330024	0.000000	-0.237876	0.000000	0.000002	-0.000001	0.000000	0.000000
48.804030	11.883884	23.763050	0.931347	-1.681035	2.239590	0.000000	-0.172684	0.000000	0.000001	-0.000001	0.000000	0.000000
49.244990	11.222674	24.995210	0.573819	-1.102599	2.177442	0.000000	-0.109460	0.000000	0.000001	-0.000001	0.000000	0.000000
49.685950	10.864067	25.693081	0.242507	-0.473996	2.142873	0.000000	-0.047482	0.000000	0.000001	-0.000001	0.000000	0.000000
50.128160	10.791807	25.824629	-0.051377	0.112794	2.135499	0.000000	0.008718	0.000000	0.000001	-0.000001	0.000000	0.000000
50.425482	10.830571	25.761023	-0.079000	0.101135	2.138091	0.000000	0.008718	0.000000	0.000000	-0.000001	0.000000	0.000000
50.758816	10.893561	25.697957	-0.109970	0.088063	2.140997	0.000000	0.008718	0.000000	0.000000	-0.000001	0.000000	0.000000
51.092149	10.977197	25.643605	-0.140939	0.074991	2.143903	0.000000	0.008718	0.000000	-0.000000	-0.000001	0.000000	0.000000
51.426732	11.081685	25.598333	-0.082122	-0.145796	2.146798	0.000000	-0.008698	0.000000	-0.000000	-0.000001	0.000000	0.000000
51.724055	11.138549	25.688556	-0.081818	-0.220654	2.144212	0.000000	-0.013957	0.000000	-0.000000	-0.000001	0.000000	0.000000
52.165015	11.356117	25.597382	-0.413450	0.426630	2.151647	0.000000	0.047706	0.000000	-0.000001	-0.000001	0.000000	0.000000
52.605975	11.873350	24.941767	-0.763971	1.054503	2.186365	0.000000	0.109912	0.000000	-0.000001	-0.000001	0.000000	0.000000
53.046935	12.713879	23.751541	-1.149396	1.634396	2.248764	0.000000	0.173369	0.000000	-0.000001	-0.000001	0.000000	0.000000
53.487895	13.916106	22.080859	-1.587333	2.139926	2.339553	0.000000	0.238801	0.000000	-0.000002	-0.000001	0.000000	0.000000
53.933855	15.555563	19.980753	-2.102026	2.549426	2.461272	0.000000	0.307352	0.000000	-0.000002	-0.000001	0.000000	0.000000
54.482915	17.666278	17.617663	-1.719452	1.779863	2.609847	0.000000	0.233048	0.000000	-0.000002	-0.000001	0.000000	0.000000
55.031975	19.287296	16.025486	-1.215424	1.137076	2.716427	0.000000	0.154609	0.000000	-0.000003	-0.000001	0.000000	0.000000
55.581035	20.304118	15.090816	-0.625545	0.575281	2.779123	0.000000	0.073428	0.000000	-0.000003	-0.000001	0.000000	0.000000
56.130095	20.644919	14.747079	0.008519	0.054461	2.796822	0.000000	-0.009055	0.000000	-0.000003	-0.000000	0.000000	0.000000
56.428668	20.676370	14.697646	-0.059915	0.072572	2.796300	0.000000	-0.001747	0.000000	-0.000003	-0.000000	0.000000	0.000000
56.762001	20.721707	14.656864	-0.076095	0.049774	2.795718	0.000000	-0.001747	0.000000	-0.000003	-0.000000	0.000000	0.000000
57.095334	20.777830	14.631281	-0.092274	0.026975	2.795136	0.000000	-0.001747	0.000000	-0.000004	-0.000000	0.000000	0.000000
57.429918	20.845010	14.620887	-0.108514	0.004091	2.794551	0.000000	-0.001747	0.000000	-0.000004	-0.000000	0.000000	0.000000
57.727240	20.913828	14.624501	-0.177591	0.021967	2.794032	0.000000	0.005553	0.000000	-0.000004	-0.000000	0.000000	0.000000
58.276300	20.752011	14.881256	0.470563	-0.492354	2.774442	0.000000	-0.076809	0.000000	-0.000004	-0.000000	0.000000	0.000000
58.825360	19.892562	15.718625	1.085480	-1.041745	2.709937	0.000000	-0.157809	0.000000	-0.000004	-0.000000	0.000000	0.000000
59.374420	18.396190	17.196253	1.623723	-1.665336	2.601663	0.000000	-0.236009	0.000000	-0.000004	-0.000000	0.000000	0.000000
59.923480	16.368589	19.419387	2.047275	-2.407546	2.451540	0.000000	-0.310024	0.000000	-0.000004	0.000000	0.000000	0.000000
60.369440	14.781541	21.395376	1.524050	-2.004619	2.328572	0.000000	-0.241742	0.000000	-0.000004	-0.000000	0.000000	0.000000
60.810400	13.639943	22.951923	1.074663	-1.511855	2.236421	0.000000	-0.176610	0.000000	-0.000004	-0.000000	0.000000	0.000000
61.251360	12.871603	24.041784	0.674374	-0.950303	2.172521	0.000000	-0.113490	0.000000	-0.000004	-0.000000	0.000000	0.000000
61.692320	12.441416	24.615369	0.304896	-0.345513	2.136143	0.000000	-0.051663	0.000000	-0.000004	-0.000000	0.000000	0.000000
62.134530	12.329779	24.646046	-0.020516	0.214502	2.126878	0.000000	0.004361	0.000000	-0.000005	-0.000000	0.000000	0.000000
62.431853	12.349152	24.522245	-0.044641	0.201883	2.128175	0.000000	0.004361	0.000000	-0.000005	-0.000000	0.000000	0.000000
62.765186	12.387928	24.392372	-0.071687	0.187736	2.129628	0.000000	0.004361	0.000000	-0.000005	-0.000000	0.000000	0.000000
63.098520	12.444734	24.271931	-0.098733	0.173589	2.131082	0.000000	0.004361	0.000000	-0.000005	-0.000000	0.000000	0.000000
63.433103	12.519886	24.160522	-0.125881	0.159388	2.132541	0.000000	0.004361	0.000000	-0.000005	-0.000000	0.000000	0.000000
63.730426	12.601913	24.069495	-0.119100	0.087741	2.133838	0.000000	-0.000872	0.000000	-0.000005	-0.000000	0.000000	0.000000
64.171386	12.867392	23.727026	-0.485232	0.685947	2.146993	0.000000	0.060596	0.000000	-0.000005	-0.000001	0.000000	0.000000
64.612346	13.464289	22.868787	-0.873534	1.252943	2.187381	0.000000	0.122755	0.000000	-0.000006	-0.000001	0.000000	0.000000
65.053306	14.419874	21.533828	-1.301744	1.762931	2.255459	0.000000	0.186312	0.000000	-0.000006	-0.000001	0.000000	0.000000
65.494266	15.777805	19.782887	-1.789428	2.192707	2.352005	0.000000	0.251991	0.000000	-0.000007	-0.000001	0.000000	0.000000
65.940226	17.623289	17.670849	-2.363558	2.523472	2.479690	0.000000	0.320942	0.000000	-0.000007	-0.000001	0.000000	0.000000
66.489286	19.988904	15.308082	-1.919421	1.805223	2.635541	0.000000	0.245923	0.000000	-0.000008	-0.000001	0.000000	0.000000
67.038346	21.789015	13.659226	-1.339705	1.215556	2.748942	0.000000	0.166541	0.000000	-0.000008	-0.000001	0.000000	0.000000
67.587406	22.896471	12.606835	-0.665360	0.712471	2.817882	0.000000	0.084206	0.000000	-0.000008	-0.000000	0.000000	0.000000
68.136466	23.233048	12.075952	0.055984	0.260133	2.841137	0.000000	0.000377	0.000000	-0.000009	-0.000000	0.000000	0.000000
68.435038	23.239706	11.909782	-0.017576	0.264859	2.843466	0.000000	0.007801	0.000000	-0.000009	-0.000000	0.000000	0.000000
68.768372	23.256206	11.743193	-0.031924	0.234907	2.846066	0.000000	0.007801	0.000000	-0.000009	-0.000000	0.000000	0.000000
69.101705	23.282271	11.596572	-0.046271	0.204956	2.848667	0.000000	0.007801	0.000000	-0.000009	-0.000000	0.000000	0.000000
69.436288	23.318052	11.469482	-0.060673	0.174892	2.851277	0.000000	0.007801	0.000000	-0.000009	-0.000000	0.000000	0.000000
69.733611	23.357936	11.373426	-0.134505	0.177895	2.853596	0.000000	0.015257	0.000000	-0.000009	-0.000000	0.000000	0.000000
70.282671	23.104485	11.405797	0.593382	-0.237199	2.838790	0.000000	-0.069112	0.000000	-0.000009	0.000000	0.000000	0.000000
