#ParticleID	Turn	x[m]	xp	y[m]	yp	z[m]	dE[GeV]# s	beta_x	beta_y	alpha_x	alpha_y	D_x	D_y	D_px	D_py	orbit_x	orbit_px	orbit_y	orbit_py
0.300000	11.818682	24.998166	-0.011631	-0.027457	2.618103	0.000000	0.000016	0.000000	0.000000	0.000001	0.000000	0.000000
0.601250	11.833370	25.018342	-0.037124	-0.039517	2.618108	0.000000	0.000016	0.000000	0.000000	0.000001	0.000000	0.000000
0.898573	11.862926	25.045379	-0.033193	-0.112837	2.618112	0.000000	-0.006404	0.000000	0.000001	0.000001	0.000000	0.000000
1.339533	12.044390	24.867083	-0.379887	0.515635	2.631581	0.000000	0.067553	0.000000	0.000001	0.000001	0.000000	0.000000
1.780493	12.538078	24.142792	-0.743937	1.120647	2.677801	0.000000	0.142280	0.000000	0.000001	0.000001	0.000000	0.000000
2.221453	13.366547	22.905460	-1.141974	1.674670	2.757297	0.000000	0.218627	0.000000	0.000001	0.000001	0.000000	0.000000
2.662413	14.567646	21.211386	-1.592186	2.152497	2.870976	0.000000	0.297464	0.000000	0.000002	0.000001	0.000000	0.000000
3.108373	16.217013	19.112803	-2.119433	2.533519	3.021994	0.000000	0.380178	0.000000	0.000002	0.000001	0.000000	0.000000
3.657433	18.332036	16.755818	-1.709846	1.784586	3.205463	0.000000	0.287140	0.000000	0.000003	0.000001	0.000000	0.000000
4.206493	19.927899	15.147042	-1.179484	1.162764	3.336372	0.000000	0.189009	0.000000	0.000003	0.000001	0.000000	0.000000
4.755553	20.891876	14.171886	-0.565809	0.623765	3.412401	0.000000	0.087525	0.000000	0.000003	0.000001	0.000000	0.000000
5.304613	21.155878	13.760893	0.087831	0.129194	3.432200	0.000000	-0.015511	0.000000	0.000004	0.000000	0.000000	0.000000
5.603185	21.140655	13.668931	0.018429	0.142858	3.430246	0.000000	-0.006543	0.000000	0.000004	0.000000	0.000000	0.000000
5.936519	21.133627	13.581986	0.002656	0.117975	3.428065	0.000000	-0.006543	0.000000	0.000004	0.000000	0.000000	0.000000
6.269852	21.137114	13.511631	-0.013117	0.093091	3.425884	0.000000	-0.006543	0.000000	0.000004	0.000000	0.000000	0.000000
6.604435	21.151189	13.457695	-0.028949	0.068113	3.423694	0.000000	-0.006543	0.000000	0.000004	0.000000	0.000000	0.000000
6.901758	21.172586	13.423791	-0.098336	0.080991	3.421749	0.000000	0.002397	0.000000	0.000004	0.000000	0.000000	0.000000
7.450818	20.919705	13.595576	0.556180	-0.395709	3.394863	0.000000	-0.100186	0.000000	0.000005	0.000000	0.000000	0.000000
7.999878	19.965506	14.303147	1.171411	-0.900593	3.312058	0.000000	-0.200992	0.000000	0.000005	0.000000	0.000000	0.000000
8.548938	18.377388	15.596903	1.703898	-1.469625	3.174804	0.000000	-0.298232	0.000000	0.000005	0.000000	0.000000	0.000000
9.097998	16.267528	17.568994	2.116031	-2.143335	2.985535	0.000000	-0.390183	0.000000	0.000005	-0.000000	0.000000	0.000000
9.543958	14.621417	19.326246	1.588254	-1.780390	2.829836	0.000000	-0.308475	0.000000	0.000005	-0.000000	0.000000	0.000000
9.984918	13.424085	20.706438	1.137331	-1.337670	2.711058	0.000000	-0.230764	0.000000	0.000005	0.000000	0.000000	0.000000
10.425878	12.600102	21.667755	0.738370	-0.834088	2.625935	0.000000	-0.155682	0.000000	0.000005	0.000000	0.000000	0.000000
10.866838	12.111822	22.166457	0.373142	-0.292555	2.573498	0.000000	-0.082372	0.000000	0.000005	0.000000	0.000000	0.000000
11.309048	11.936801	22.179335	0.054129	0.207841	2.553131	0.000000	-0.016262	0.000000	0.000005	0.000000	0.000000	0.000000
11.606371	11.912041	22.059901	0.029148	0.193856	2.548296	0.000000	-0.016262	0.000000	0.000005	0.000000	0.000000	0.000000
12.086371	11.903417	21.884636	-0.011181	0.171280	2.540490	0.000000	-0.016262	0.000000	0.000006	0.000000	0.000000	0.000000
12.566371	11.933510	21.731044	-0.051511	0.148703	2.532684	0.000000	-0.016262	0.000000	0.000006	0.000000	0.000000	0.000000
13.046371	12.002318	21.599126	-0.091841	0.126126	2.524878	0.000000	-0.016262	0.000000	0.000006	0.000000	0.000000	0.000000
13.526371	12.109844	21.488881	-0.132170	0.103550	2.517072	0.000000	-0.016262	0.000000	0.000006	0.000000	0.000000	0.000000
14.007621	12.256517	21.400108	-0.172605	0.080914	2.509246	0.000000	-0.016262	0.000000	0.000006	0.000000	0.000000	0.000000
14.304943	12.366583	21.356150	-0.167261	0.014562	2.504411	0.000000	-0.022403	0.000000	0.000007	0.000000	0.000000	0.000000
14.745903	12.672688	21.109556	-0.529551	0.542532	2.510164	0.000000	0.048524	0.000000	0.000007	0.000001	0.000000	0.000000
15.186863	13.307725	20.406481	-0.916035	1.045818	2.547285	0.000000	0.120003	0.000000	0.000007	0.000001	0.000000	0.000000
15.627823	14.300706	19.278916	-1.344370	1.501520	2.616197	0.000000	0.192849	0.000000	0.000008	0.000001	0.000000	0.000000
16.068783	15.696999	17.778163	-1.834125	1.888904	2.717684	0.000000	0.267891	0.000000	0.000008	0.000001	0.000000	0.000000
16.514743	17.584050	15.951004	-2.412434	2.191090	2.854597	0.000000	0.346447	0.000000	0.000009	0.000001	0.000000	0.000000
17.063803	20.007625	13.910768	-1.975480	1.546713	3.021085	0.000000	0.259108	0.000000	0.000009	0.000001	0.000000	0.000000
17.612863	21.871444	12.513849	-1.398988	1.012505	3.138284	0.000000	0.167173	0.000000	0.000010	0.000001	0.000000	0.000000
18.161923	23.043856	11.660748	-0.723678	0.550415	3.204116	0.000000	0.072273	0.000000	0.000010	0.000000	0.000000	0.000000
18.710983	23.442046	11.290700	0.002749	0.127530	3.217412	0.000000	-0.023909	0.000000	0.000010	0.000000	0.000000	0.000000
19.009556	23.480793	11.205022	-0.071276	0.129932	3.212783	0.000000	-0.015504	0.000000	0.000011	0.000000	0.000000	0.000000
19.342889	23.533066	11.128484	-0.085544	0.099681	3.207615	0.000000	-0.015504	0.000000	0.000011	0.000000	0.000000	0.000000
19.676223	23.594852	11.072114	-0.099812	0.069430	3.202447	0.000000	-0.015504	0.000000	0.000011	0.000000	0.000000	0.000000
20.010806	23.666728	11.035676	-0.231392	0.093743	3.197280	0.000000	0.000338	0.000000	0.000011	0.000000	0.000000	0.000000
20.308129	23.808259	10.988013	-0.306829	0.095272	3.197380	0.000000	0.008691	0.000000	0.000011	0.000000	0.000000	0.000000
20.857189	23.734563	11.105666	0.440257	-0.310818	3.175930	0.000000	-0.086710	0.000000	0.000011	-0.000000	0.000000	0.000000
21.406249	22.852768	11.678722	1.156244	-0.739047	3.102445	0.000000	-0.180573	0.000000	0.000011	-0.000000	0.000000	0.000000
21.955309	21.225161	12.747999	1.790560	-1.219916	2.978228	0.000000	-0.271233	0.000000	0.000010	-0.000001	0.000000	0.000000
22.504369	18.966706	14.389658	2.298400	-1.787677	2.805483	0.000000	-0.357082	0.000000	0.000010	-0.000001	0.000000	0.000000
22.950329	17.186875	15.863518	1.706698	-1.503297	2.663534	0.000000	-0.279866	0.000000	0.000009	-0.000001	0.000000	0.000000
23.391289	15.911006	17.038594	1.197667	-1.151374	2.556448	0.000000	-0.206292	0.000000	0.000009	-0.000001	0.000000	0.000000
23.832249	15.058329	17.878927	0.743354	-0.747065	2.481257	0.000000	-0.135067	0.000000	0.000009	-0.000000	0.000000	0.000000
24.273209	14.589885	18.346284	0.323002	-0.308764	2.437105	0.000000	-0.065380	0.000000	0.000009	-0.000000	0.000000	0.000000
24.715418	14.484393	18.419154	-0.047162	0.098350	2.423485	0.000000	-0.002381	0.000000	0.000009	0.000000	0.000000	0.000000
25.012741	14.518554	18.365516	-0.067735	0.082052	2.422777	0.000000	-0.002381	0.000000	0.000009	0.000000	0.000000	0.000000
25.346075	14.571399	18.316905	-0.090799	0.063780	2.421983	0.000000	-0.002381	0.000000	0.000009	0.000000	0.000000	0.000000
25.679408	14.639620	18.280476	-0.113864	0.045508	2.421189	0.000000	-0.002381	0.000000	0.000009	0.000000	0.000000	0.000000
26.013991	14.723261	18.256530	-0.017570	-0.120939	2.420368	0.000000	-0.022017	0.000000	0.000009	-0.000000	0.000000	0.000000
26.311314	14.739715	18.333359	-0.001627	-0.182418	2.413822	0.000000	-0.027936	0.000000	0.000009	-0.000000	0.000000	0.000000
26.752274	14.922756	18.295393	-0.415046	0.268188	2.416616	0.000000	0.040618	0.000000	0.000009	0.000000	0.000000	0.000000
27.193234	15.477353	17.863913	-0.847427	0.706591	2.449711	0.000000	0.109633	0.000000	0.000009	0.000000	0.000000	0.000000
27.634194	16.428842	17.058549	-1.318525	1.112845	2.513486	0.000000	0.179898	0.000000	0.000009	0.000001	0.000000	0.000000
28.075154	17.820695	15.915947	-1.849863	1.468465	2.608666	0.000000	0.252211	0.000000	0.000010	0.000001	0.000000	0.000000
28.521114	19.740683	14.470882	-2.470679	1.758184	2.737940	0.000000	0.327840	0.000000	0.000010	0.000001	0.000000	0.000000
29.070174	22.181000	12.860752	-1.947545	1.191647	2.895276	0.000000	0.244429	0.000000	0.000011	0.000001	0.000000	0.000000
29.619234	23.967450	11.822767	-1.286847	0.709988	3.005555	0.000000	0.156683	0.000000	0.000011	0.000000	0.000000	0.000000
30.168294	24.973849	11.282994	-0.535251	0.278900	3.066821	0.000000	0.066157	0.000000	0.000011	0.000000	0.000000	0.000000
30.717354	25.129109	11.202987	0.254151	-0.132322	3.077988	0.000000	-0.025542	0.000000	0.000011	-0.000000	0.000000	0.000000
31.015927	25.020221	11.272566	0.176196	-0.129988	3.072763	0.000000	-0.017501	0.000000	0.000011	-0.000000	0.000000	0.000000
31.349260	24.907335	11.369248	0.162460	-0.160058	3.066929	0.000000	-0.017501	0.000000	0.000011	-0.000000	0.000000	0.000000
31.682593	24.803608	11.485977	0.148724	-0.190128	3.061095	0.000000	-0.017501	0.000000	0.000011	-0.000000	0.000000	0.000000
32.017177	24.708700	11.623303	0.134936	-0.220311	3.055240	0.000000	-0.017501	0.000000	0.000011	-0.000000	0.000000	0.000000
32.314499	24.632104	11.762284	0.058331	-0.216402	3.050037	0.000000	-0.009532	0.000000	0.000011	-0.000000	0.000000	0.000000
32.863559	24.146041	12.239171	0.821691	-0.657276	3.019917	0.000000	-0.100019	0.000000	0.000011	-0.000001	0.000000	0.000000
33.412619	22.848783	13.222903	1.527012	-1.144965	2.940530	0.000000	-0.188731	0.000000	0.000010	-0.000001	0.000000	0.000000
33.961679	20.831960	14.783549	2.124472	-1.714209	2.813283	0.000000	-0.274096	0.000000	0.000010	-0.000001	0.000000	0.000000
34.510739	18.238031	17.032271	2.571870	-2.405551	2.640434	0.000000	-0.354599	0.000000	0.000009	-0.000001	0.000000	0.000000
34.956699	16.221181	19.043650	1.966824	-2.085841	2.498641	0.000000	-0.281662	0.000000	0.000008	-0.000001	0.000000	0.000000
35.397659	14.717272	20.707025	1.456647	-1.671973	2.389822	0.000000	-0.212361	0.000000	0.000008	-0.000001	0.000000	0.000000
35.838619	13.632362	21.970334	1.013021	-1.182031	2.311001	0.000000	-0.145479	0.000000	0.000007	-0.000001	0.000000	0.000000
36.279579	12.916886	22.776097	0.615677	-0.638308	2.261280	0.000000	-0.080253	0.000000	0.000007	-0.000001	0.000000	0.000000
36.721789	12.537462	23.087958	0.277099	-0.122211	2.240064	0.000000	-0.021435	0.000000	0.000007	-0.000001	0.000000	0.000000
37.019112	12.380279	23.164517	0.251563	-0.135281	2.233691	0.000000	-0.021435	0.000000	0.000007	-0.000001	0.000000	0.000000
37.352445	12.222113	23.259589	0.222935	-0.149935	2.226547	0.000000	-0.021435	0.000000	0.000006	-0.000001	0.000000	0.000000
37.685779	12.083033	23.364430	0.194306	-0.164588	2.219402	0.000000	-0.021435	0.000000	0.000006	-0.000001	0.000000	0.000000
38.020362	11.962624	23.479487	0.165570	-0.179296	2.212231	0.000000	-0.021435	0.000000	0.000006	-0.000001	0.000000	0.000000
38.317684	11.871761	23.589991	0.169146	-0.250213	2.205858	0.000000	-0.026844	0.000000	0.000006	-0.000001	0.000000	0.000000
38.758644	11.873962	23.549376	-0.174157	0.341969	2.207949	0.000000	0.036339	0.000000	0.000006	-0.000000	0.000000	0.000000
39.199604	12.181280	22.991396	-0.525416	0.918591	2.237967	0.000000	0.099936	0.000000	0.000006	-0.000000	0.000000	0.000000
39.640564	12.807755	21.941440	-0.900681	1.453418	2.296252	0.000000	0.164671	0.000000	0.000005	-0.000000	0.000000	0.000000
40.081524	13.782009	20.447279	-1.317095	1.922115	2.383468	0.000000	0.231281	0.000000	0.000005	0.000000	0.000000	0.000000
40.527484	15.166125	18.554327	-1.797509	2.304640	2.502082	0.000000	0.300931	0.000000	0.000005	0.000000	0.000000	0.000000
41.076544	16.932486	16.427153	-1.400511	1.592440	2.646779	0.000000	0.225367	0.000000	0.000006	0.000000	0.000000	0.000000
41.625604	18.205660	15.015557	-0.904587	0.993667	2.748827	0.000000	0.145805	0.000000	0.000005	-0.000000	0.000000	0.000000
42.174664	18.895716	14.218995	-0.344769	0.465670	2.806416	0.000000	0.063657	0.000000	0.000005	-0.000000	0.000000	0.000000
42.723724	18.953913	13.980729	0.239403	-0.029158	2.818523	0.000000	-0.019620	0.000000	0.000005	-0.000001	0.000000	0.000000
43.022297	18.845399	13.982705	0.173561	-0.013987	2.814864	0.000000	-0.012256	0.000000	0.000005	-0.000001	0.000000	0.000000
43.502297	18.691374	14.012613	0.147324	-0.048322	2.808982	0.000000	-0.012256	0.000000	0.000005	-0.000001	0.000000	0.000000
43.982297	18.562537	14.075483	0.121086	-0.082657	2.803099	0.000000	-0.012256	0.000000	0.000004	-0.000001	0.000000	0.000000
44.462297	18.458888	14.171314	0.094848	-0.116992	2.797217	0.000000	-0.012256	0.000000	0.000004	-0.000001	0.000000	0.000000
44.942297	18.380428	14.300107	0.068611	-0.151326	2.791334	0.000000	-0.012256	0.000000	0.000004	-0.000001	0.000000	0.000000
45.423547	18.327277	14.462146	-0.048499	-0.114096	2.785453	0.000000	0.001545	0.000000	0.000004	-0.000000	0.000000	0.000000
45.720870	18.360951	14.536185	-0.112732	-0.096943	2.785913	0.000000	0.008824	0.000000	0.000004	-0.000000	0.000000	0.000000
46.269930	18.175580	14.923803	0.448348	-0.613190	2.768185	0.000000	-0.073306	0.000000	0.000003	-0.000001	0.000000	0.000000
46.818990	17.387898	15.898835	0.977760	-1.173113	2.705654	0.000000	-0.154135	0.000000	0.000003	-0.000001	0.000000	0.000000
47.368050	16.053543	17.530730	1.438107	-1.816594	2.599429	0.000000	-0.232230	0.000000	0.000003	-0.000001	0.000000	0.000000
47.917110	14.266767	19.935726	1.796874	-2.589466	2.451395	0.000000	-0.306206	0.000000	0.000002	-0.000001	0.000000	0.000000
48.363070	12.876276	22.074001	1.332145	-2.185146	2.330133	0.000000	-0.237905	0.000000	0.000002	-0.000001	0.000000	0.000000
48.804030	11.881630	23.786071	0.932047	-1.682675	2.239686	0.000000	-0.172711	0.000000	0.000001	-0.000001	0.000000	0.000000
49.244990	11.219800	25.019419	0.574532	-1.103644	2.177527	0.000000	-0.109485	0.000000	0.000001	-0.000001	0.000000	0.000000
49.685950	10.860547	25.717931	0.243265	-0.474398	2.142947	0.000000	-0.047505	0.000000	0.000001	-0.000001	0.000000	0.000000
50.128160	10.787585	25.849541	-0.050550	0.112993	2.135564	0.000000	0.008697	0.000000	0.000000	-0.000001	0.000000	0.000000
50.425482	10.825860	25.785814	-0.078182	0.101344	2.138150	0.000000	0.008697	0.000000	0.000000	-0.000001	0.000000	0.000000
50.758816	10.888307	25.722605	-0.109160	0.088284	2.141049	0.000000	0.008697	0.000000	-0.000000	-0.000001	0.000000	0.000000
51.092149	10.971407	25.668102	-0.140139	0.075224	2.143948	0.000000	0.008697	0.000000	-0.000000	-0.000001	0.000000	0.000000
51.426732	11.075362	25.622670	-0.081383	-0.145748	2.146837	0.000000	-0.008720	0.000000	-0.000000	-0.000001	0.000000	0.000000
51.724055	11.131791	25.712862	-0.081108	-0.220655	2.144244	0.000000	-0.013978	0.000000	-0.000001	-0.000001	0.000000	0.000000
52.165015	11.348660	25.621404	-0.412568	0.427271	2.151669	0.000000	0.047685	0.000000	-0.000001	-0.000001	0.000000	0.000000
52.605975	11.865024	24.964951	-0.762876	1.055756	2.186379	0.000000	0.109892	0.000000	-0.000001	-0.000001	0.000000	0.000000
53.046935	12.704477	23.773370	-1.148039	1.636204	2.248769	0.000000	0.173349	0.000000	-0.000002	-0.000001	0.000000	0.000000
53.487895	13.905369	22.100877	-1.585652	2.142207	2.339550	0.000000	0.238782	0.000000	-0.000002	-0.000001	0.000000	0.000000
53.933855	15.543151	19.998562	-2.099940	2.552078	2.461259	0.000000	0.307332	0.000000	-0.000002	-0.000001	0.000000	0.000000
54.482915	17.651735	17.632946	-1.717681	1.781838	2.609823	0.000000	0.233028	0.000000	-0.000003	-0.000001	0.000000	0.000000
55.031975	19.271041	16.038906	-1.214094	1.138516	2.716394	0.000000	0.154591	0.000000	-0.000003	-0.000001	0.000000	0.000000
55.581035	20.286688	15.102902	-0.624749	0.576287	2.779080	0.000000	0.073411	0.000000	-0.000004	-0.000001	0.000000	0.000000
56.130095	20.626936	14.758264	0.008725	0.055105	2.796769	0.000000	-0.009071	0.000000	-0.000004	-0.000000	0.000000	0.000000
56.428668	20.658240	14.708425	-0.059676	0.073259	2.796243	0.000000	-0.001763	0.000000	-0.000004	-0.000000	0.000000	0.000000
56.762001	20.703422	14.667180	-0.075869	0.050474	2.795656	0.000000	-0.001763	0.000000	-0.000004	-0.000000	0.000000	0.000000
57.095334	20.759399	14.641125	-0.092062	0.027690	2.795068	0.000000	-0.001763	0.000000	-0.000004	-0.000000	0.000000	0.000000
57.429918	20.826442	14.630248	-0.108316	0.004820	2.794478	0.000000	-0.001763	0.000000	-0.000005	-0.000000	0.000000	0.000000
57.727240	20.895146	14.633424	-0.177357	0.022733	2.793954	0.000000	0.005537	0.000000	-0.000005	-0.000000	0.000000	0.000000
58.276300	20.733416	14.889475	0.470170	-0.491830	2.774356	0.000000	-0.076822	0.000000	-0.000005	-0.000000	0.000000	0.000000
58.825360	19.874733	15.726384	1.084487	-1.041425	2.709845	0.000000	-0.157819	0.000000	-0.000005	-0.000000	0.000000	0.000000
59.374420	18.379749	17.203762	1.622201	-1.665198	2.601566	0.000000	-0.236017	0.000000	-0.000005	-0.000000	0.000000	0.000000
59.923480	16.354062	19.426839	2.045331	-2.407580	2.451439	0.000000	-0.310028	0.000000	-0.000005	0.000000	0.000000	0.000000
60.369440	14.768552	21.402748	1.522533	-2.004404	2.328469	0.000000	-0.241748	0.000000	-0.000005	0.000000	0.000000	0.000000
60.810400	13.628132	22.959000	1.073500	-1.511403	2.236315	0.000000	-0.176620	0.000000	-0.000005	-0.000000	0.000000	0.000000
61.251360	12.860681	24.048363	0.673513	-0.949634	2.172410	0.000000	-0.113502	0.000000	-0.000005	-0.000000	0.000000	0.000000
61.692320	12.431136	24.621274	0.304296	-0.344657	2.136025	0.000000	-0.051678	0.000000	-0.000005	-0.000000	0.000000	0.000000
62.134530	12.319924	24.651125	-0.020906	0.215492	2.126753	0.000000	0.004343	0.000000	-0.000005	-0.000000	0.000000	0.000000
62.431853	12.339534	24.526737	-0.045050	0.202871	2.128045	0.000000	0.004343	0.000000	-0.000006	-0.000000	0.000000	0.000000
62.765186	12.378590	24.396206	-0.072118	0.188721	2.129492	0.000000	0.004343	0.000000	-0.000006	-0.000000	0.000000	0.000000
63.098520	12.435692	24.275109	-0.099186	0.174571	2.130940	0.000000	0.004343	0.000000	-0.000006	-0.000000	0.000000	0.000000
63.433103	12.511155	24.163044	-0.126356	0.160368	2.132393	0.000000	0.004343	0.000000	-0.000006	-0.000000	0.000000	0.000000
63.730426	12.593470	24.071435	-0.119615	0.088712	2.133684	0.000000	-0.000890	0.000000	-0.000006	-0.000000	0.000000	0.000000
64.171386	12.859324	23.728095	-0.485568	0.686944	2.146831	0.000000	0.060575	0.000000	-0.000006	-0.000001	0.000000	0.000000
64.612346	13.456444	22.868982	-0.873706	1.253921	2.187208	0.000000	0.122729	0.000000	-0.000007	-0.000001	0.000000	0.000000
65.053306	14.412111	21.533185	-1.301760	1.763845	2.255274	0.000000	0.186282	0.000000	-0.000007	-0.000001	0.000000	0.000000
65.494266	15.769988	19.781481	-1.789288	2.193516	2.351805	0.000000	0.251956	0.000000	-0.000008	-0.000001	0.000000	0.000000
65.940226	17.615275	17.668782	-2.363256	2.524138	2.479473	0.000000	0.320901	0.000000	-0.000008	-0.000001	0.000000	0.000000
66.489286	19.980730	15.305312	-1.919433	1.805847	2.635304	0.000000	0.245889	0.000000	-0.000009	-0.000001	0.000000	0.000000
67.038346	21.781028	13.655773	-1.340032	1.216183	2.748689	0.000000	0.166516	0.000000	-0.000009	-0.000001	0.000000	0.000000
67.587406	22.889007	12.602673	-0.665978	0.713145	2.817616	0.000000	0.084189	0.000000	-0.000010	-0.000001	0.000000	0.000000
68.136466	23.226403	12.071001	0.055118	0.260902	2.840864	0.000000	0.000368	0.000000	-0.000010	-0.000000	0.000000	0.000000
68.435038	23.233569	11.904386	-0.018429	0.265594	2.843190	0.000000	0.007792	0.000000	-0.000010	-0.000000	0.000000	0.000000
68.768372	23.250639	11.737316	-0.032781	0.235618	2.845788	0.000000	0.007792	0.000000	-0.000010	-0.000000	0.000000	0.000000
69.101705	23.277277	11.590229	-0.047133	0.205642	2.848385	0.000000	0.007792	0.000000	-0.000010	-0.000000	0.000000	0.000000
69.436288	23.313636	11.462687	-0.061538	0.175553	2.850992	0.000000	0.007792	0.000000	-0.000010	-0.000000	0.000000	0.000000
69.733611	23.354036	11.366245	-0.135365	0.178516	2.853309	0.000000	0.015247	0.000000	-0.000010	-0.000000	0.000000	0.000000
70.282671	23.101592	11.397821	0.592418	-0.236364	2.838499	0.000000	-0.069113	0.000000	-0.000010	0.000000	0.000000	0.000000
