#ParticleID	Turn	x[m]	xp	y[m]	yp	z[m]	dE[GeV]# s	beta_x	beta_y	alpha_x	alpha_y	D_x	D_y	D_px	D_py	orbit_x	orbit_px	orbit_y	orbit_py
0.300000	11.833284	24.943270	-0.013558	-0.027778	2.618321	0.000000	-0.000067	0.000000	-0.000000	0.000000	0.000000	0.000000
0.601250	11.849124	24.963647	-0.039021	-0.039864	2.618301	0.000000	-0.000067	0.000000	-0.000000	0.000000	0.000000	0.000000
0.898573	11.879799	24.990899	-0.035018	-0.113079	2.618281	0.000000	-0.006488	0.000000	-0.000000	0.000000	0.000000	0.000000
1.339533	12.063056	24.813451	-0.382144	0.513960	2.631714	0.000000	0.067473	0.000000	-0.000000	0.000000	0.000000	0.000000
1.780493	12.558962	24.091245	-0.746728	1.117614	2.677899	0.000000	0.142203	0.000000	-0.000000	0.000000	0.000000	0.000000
2.221453	13.390174	22.857139	-1.145428	1.670417	2.757363	0.000000	0.218552	0.000000	-0.000000	0.000000	0.000000	0.000000
2.662413	14.594667	21.167284	-1.596460	2.147217	2.871010	0.000000	0.297390	0.000000	-0.000000	0.000000	0.000000	0.000000
3.108373	16.248287	19.073783	-2.124731	2.527451	3.021995	0.000000	0.380105	0.000000	-0.000000	0.000000	0.000000	0.000000
3.657433	18.368727	16.722597	-1.714354	1.780028	3.205424	0.000000	0.287068	0.000000	-0.000000	0.000000	0.000000	0.000000
4.206493	19.968958	15.118149	-1.182884	1.159393	3.336295	0.000000	0.188939	0.000000	-0.000000	0.000000	0.000000	0.000000
4.755553	20.935946	14.146159	-0.567861	0.621338	3.412286	0.000000	0.087458	0.000000	-0.000000	0.000000	0.000000	0.000000
5.304613	21.201390	13.737393	0.087273	0.127540	3.432049	0.000000	-0.015574	0.000000	0.000000	0.000000	0.000000	0.000000
5.603185	21.186563	13.646462	0.017780	0.141118	3.430077	0.000000	-0.006607	0.000000	0.000000	0.000000	0.000000	0.000000
5.936519	21.179956	13.560687	0.002042	0.116206	3.427875	0.000000	-0.006607	0.000000	0.000000	0.000000	0.000000	0.000000
6.269852	21.183841	13.491521	-0.013696	0.091293	3.425672	0.000000	-0.006607	0.000000	0.000000	0.000000	0.000000	0.000000
6.604435	21.198291	13.438798	-0.029493	0.066287	3.423462	0.000000	-0.006607	0.000000	0.000000	0.000000	0.000000	0.000000
6.901758	21.220003	13.405988	-0.098975	0.079092	3.421498	0.000000	0.002333	0.000000	0.000000	0.000000	0.000000	0.000000
7.450818	20.966949	13.579588	0.557134	-0.397136	3.394579	0.000000	-0.100241	0.000000	0.000000	0.000000	0.000000	0.000000
7.999878	20.010853	14.288516	1.173890	-0.901652	3.311748	0.000000	-0.201037	0.000000	0.000000	0.000000	0.000000	0.000000
8.548938	18.419251	15.583267	1.707728	-1.470391	3.174472	0.000000	-0.298267	0.000000	0.000000	0.000000	0.000000	0.000000
9.097998	16.304563	17.556064	2.120941	-2.143862	2.985186	0.000000	-0.390207	0.000000	0.000000	0.000000	0.000000	0.000000
9.543958	14.654571	19.314003	1.592080	-1.781399	2.829474	0.000000	-0.308508	0.000000	0.000000	0.000000	0.000000	0.000000
9.984918	13.454274	20.695280	1.140256	-1.339113	2.710679	0.000000	-0.230807	0.000000	0.000000	0.000000	0.000000	0.000000
10.425878	12.628059	21.658036	0.740526	-0.835898	2.625536	0.000000	-0.155734	0.000000	0.000000	0.000000	0.000000	0.000000
10.866838	12.138178	22.158467	0.374630	-0.294650	2.573074	0.000000	-0.082435	0.000000	0.000000	0.000000	0.000000	0.000000
11.309048	11.962113	22.173289	0.055079	0.205569	2.552676	0.000000	-0.016335	0.000000	0.000000	0.000000	0.000000	0.000000
11.606371	11.936773	22.055203	0.030148	0.191593	2.547819	0.000000	-0.016335	0.000000	0.000000	0.000000	0.000000	0.000000
12.086371	11.927150	21.882104	-0.010100	0.169031	2.539978	0.000000	-0.016335	0.000000	0.000001	0.000000	0.000000	0.000000
12.566371	11.956165	21.730664	-0.050349	0.146468	2.532137	0.000000	-0.016335	0.000000	0.000001	0.000000	0.000000	0.000000
13.046371	12.023819	21.600884	-0.090597	0.123906	2.524296	0.000000	-0.016335	0.000000	0.000001	0.000000	0.000000	0.000000
13.526371	12.130112	21.492765	-0.130846	0.101343	2.516455	0.000000	-0.016335	0.000000	0.000001	0.000000	0.000000	0.000000
14.007621	12.275470	21.406108	-0.171199	0.078722	2.508594	0.000000	-0.016335	0.000000	0.000001	0.000000	0.000000	0.000000
14.304943	12.384685	21.363452	-0.165759	0.012357	2.503737	0.000000	-0.022475	0.000000	0.000001	0.000000	0.000000	0.000000
14.745903	12.689631	21.118700	-0.528413	0.540574	2.509454	0.000000	0.048434	0.000000	0.000001	0.000000	0.000000	0.000000
15.186863	13.323805	20.417210	-0.915209	1.044195	2.546532	0.000000	0.119894	0.000000	0.000001	0.000000	0.000000	0.000000
15.627823	14.316181	19.290902	-1.343819	1.500306	2.615391	0.000000	0.192720	0.000000	0.000001	0.000000	0.000000	0.000000
16.068783	15.712098	17.791019	-1.833823	1.888154	2.716817	0.000000	0.267741	0.000000	0.000001	0.000000	0.000000	0.000000
16.514743	17.598986	15.964306	-2.412368	2.190842	2.853658	0.000000	0.346273	0.000000	0.000001	0.000000	0.000000	0.000000
17.063803	20.022122	13.924470	-1.974751	1.546229	3.020060	0.000000	0.258966	0.000000	0.000001	0.000000	0.000000	0.000000
17.612863	21.884797	12.528229	-1.397647	1.011749	3.137190	0.000000	0.167065	0.000000	0.000001	0.000000	0.000000	0.000000
18.161923	23.055441	11.676130	-0.721820	0.549334	3.202973	0.000000	0.072201	0.000000	0.000001	0.000000	0.000000	0.000000
18.710983	23.451366	11.307481	0.004992	0.126047	3.216240	0.000000	-0.023943	0.000000	0.000001	0.000000	0.000000	0.000000
19.009556	23.488787	11.222645	-0.069053	0.128547	3.211601	0.000000	-0.015540	0.000000	0.000001	0.000000	0.000000	0.000000
19.342889	23.539575	11.147011	-0.083312	0.098355	3.206421	0.000000	-0.015540	0.000000	0.000001	0.000000	0.000000	0.000000
19.676223	23.599869	11.091505	-0.097570	0.068162	3.201240	0.000000	-0.015540	0.000000	0.000001	0.000000	0.000000	0.000000
20.010806	23.670242	11.055897	-0.229158	0.092634	3.196061	0.000000	0.000295	0.000000	0.000001	0.000000	0.000000	0.000000
20.308129	23.810441	11.008877	-0.304590	0.094274	3.196148	0.000000	0.008646	0.000000	0.000001	0.000000	0.000000	0.000000
20.857189	23.734259	11.127952	0.442519	-0.312425	3.174685	0.000000	-0.086715	0.000000	0.000001	0.000000	0.000000	0.000000
21.406249	22.850041	11.703158	1.158370	-0.741378	3.101207	0.000000	-0.180538	0.000000	0.000001	-0.000000	0.000000	0.000000
21.955309	21.220243	12.775466	1.792401	-1.223138	2.977021	0.000000	-0.271158	0.000000	0.000001	-0.000000	0.000000	0.000000
22.504369	18.959986	14.421253	2.299825	-1.792019	2.804327	0.000000	-0.356969	0.000000	0.000001	-0.000000	0.000000	0.000000
22.950329	17.178889	15.898679	1.708124	-1.506917	2.662421	0.000000	-0.279782	0.000000	0.000001	-0.000000	0.000000	0.000000
23.391289	15.901738	17.076567	1.199160	-1.154109	2.555366	0.000000	-0.206236	0.000000	0.000001	-0.000000	0.000000	0.000000
23.832249	15.047690	17.918875	0.744982	-0.748790	2.480193	0.000000	-0.135039	0.000000	0.000001	-0.000000	0.000000	0.000000
24.273209	14.577723	18.387277	0.324841	-0.309401	2.436046	0.000000	-0.065380	0.000000	0.000001	0.000000	0.000000	0.000000
24.715418	14.470481	18.460216	-0.045061	0.098726	2.422421	0.000000	-0.002406	0.000000	0.000001	0.000000	0.000000	0.000000
25.012741	14.503398	18.406344	-0.065650	0.082463	2.421705	0.000000	-0.002406	0.000000	0.000001	0.000000	0.000000	0.000000
25.346075	14.554858	18.357447	-0.088732	0.064230	2.420903	0.000000	-0.002406	0.000000	0.000001	0.000000	0.000000	0.000000
25.679408	14.621707	18.320704	-0.111814	0.045997	2.420101	0.000000	-0.002406	0.000000	0.000001	0.000000	0.000000	0.000000
26.013991	14.703983	18.296419	-0.015694	-0.120734	2.419272	0.000000	-0.022033	0.000000	0.000001	0.000000	0.000000	0.000000
26.311314	14.719329	18.373115	0.000176	-0.182276	2.412721	0.000000	-0.027949	0.000000	0.000001	0.000000	0.000000	0.000000
26.752274	14.900554	18.334549	-0.412714	0.269402	2.415502	0.000000	0.040575	0.000000	0.000001	0.000000	0.000000	0.000000
27.193234	15.452822	17.901543	-0.844459	0.708823	2.448573	0.000000	0.109562	0.000000	0.000001	0.000000	0.000000	0.000000
27.634194	16.401363	17.093799	-1.314785	1.115993	2.512310	0.000000	0.179796	0.000000	0.000001	0.000000	0.000000	0.000000
28.075154	17.789515	15.948067	-1.845180	1.472386	2.607439	0.000000	0.252079	0.000000	0.000002	0.000000	0.000000	0.000000
28.521114	19.704823	14.499223	-2.464829	1.762701	2.736647	0.000000	0.327675	0.000000	0.000002	0.000000	0.000000	0.000000
29.070174	22.139181	12.884744	-1.942609	1.195098	2.893904	0.000000	0.244307	0.000000	0.000002	0.000000	0.000000	0.000000
29.619234	23.920876	11.843439	-1.283173	0.712619	3.004130	0.000000	0.156606	0.000000	0.000002	0.000000	0.000000	0.000000
30.168294	24.924056	11.301140	-0.533099	0.280898	3.065367	0.000000	0.066127	0.000000	0.000002	0.000000	0.000000	0.000000
30.717354	25.077863	11.219219	0.254630	-0.130815	3.076530	0.000000	-0.025525	0.000000	0.000002	-0.000000	0.000000	0.000000
31.015927	24.968621	11.287857	0.176775	-0.128388	3.071309	0.000000	-0.017487	0.000000	0.000002	-0.000000	0.000000	0.000000
31.349260	24.855360	11.383455	0.163008	-0.158405	3.065480	0.000000	-0.017487	0.000000	0.000002	-0.000000	0.000000	0.000000
31.682593	24.751277	11.499064	0.149241	-0.188422	3.059651	0.000000	-0.017487	0.000000	0.000002	-0.000000	0.000000	0.000000
32.017177	24.656034	11.635231	0.135422	-0.218552	3.053800	0.000000	-0.017487	0.000000	0.000002	-0.000000	0.000000	0.000000
32.314499	24.579157	11.773153	0.058922	-0.214565	3.048601	0.000000	-0.009521	0.000000	0.000002	-0.000000	0.000000	0.000000
32.863559	24.093415	12.248147	0.820520	-0.655645	3.018500	0.000000	-0.099961	0.000000	0.000002	-0.000000	0.000000	0.000000
33.412619	22.798379	13.230147	1.524160	-1.143425	2.939157	0.000000	-0.188629	0.000000	0.000002	-0.000000	0.000000	0.000000
33.961679	20.785524	14.789101	2.120141	-1.712648	2.811978	0.000000	-0.273950	0.000000	0.000002	-0.000000	0.000000	0.000000
34.510739	18.197027	17.036048	2.566366	-2.403860	2.639220	0.000000	-0.354412	0.000000	0.000002	-0.000000	0.000000	0.000000
34.956699	16.184526	19.045775	1.962541	-2.083841	2.497502	0.000000	-0.281506	0.000000	0.000001	-0.000000	0.000000	0.000000
35.397659	14.683934	20.707284	1.453380	-1.669758	2.388746	0.000000	-0.212233	0.000000	0.000001	-0.000000	0.000000	0.000000
35.838619	13.601515	21.968582	1.010620	-1.179703	2.309975	0.000000	-0.145378	0.000000	0.000001	-0.000000	0.000000	0.000000
36.279579	12.887816	22.772281	0.614031	-0.635972	2.260292	0.000000	-0.080178	0.000000	0.000001	-0.000000	0.000000	0.000000
36.721789	12.509541	23.082112	0.276067	-0.119963	2.239104	0.000000	-0.021383	0.000000	0.000001	-0.000000	0.000000	0.000000
37.019112	12.352984	23.157333	0.250488	-0.133029	2.232746	0.000000	-0.021383	0.000000	0.000001	-0.000000	0.000000	0.000000
37.352445	12.195551	23.250902	0.221811	-0.147678	2.225619	0.000000	-0.021383	0.000000	0.000001	-0.000000	0.000000	0.000000
37.685779	12.057236	23.354237	0.193134	-0.162327	2.218491	0.000000	-0.021383	0.000000	0.000001	-0.000000	0.000000	0.000000
38.020362	11.937627	23.467781	0.164349	-0.177031	2.211337	0.000000	-0.021383	0.000000	0.000001	-0.000000	0.000000	0.000000
38.317684	11.847503	23.576937	0.167824	-0.247915	2.204979	0.000000	-0.026790	0.000000	0.000001	-0.000000	0.000000	0.000000
38.758644	11.850630	23.534454	-0.174941	0.343889	2.207089	0.000000	0.036370	0.000000	0.000001	-0.000000	0.000000	0.000000
39.199604	12.158416	22.974981	-0.525698	0.920046	2.237116	0.000000	0.099945	0.000000	0.000001	0.000000	0.000000	0.000000
39.640564	12.784923	21.923971	-0.900472	1.454342	2.295400	0.000000	0.164658	0.000000	0.000001	0.000000	0.000000	0.000000
40.081524	13.758774	20.429245	-1.316387	1.922466	2.382606	0.000000	0.231246	0.000000	0.000001	0.000000	0.000000	0.000000
40.527484	15.142024	18.536245	-1.796266	2.304398	2.501198	0.000000	0.300873	0.000000	0.000001	0.000000	0.000000	0.000000
41.076544	16.907507	16.409100	-1.400164	1.592629	2.645872	0.000000	0.225338	0.000000	0.000001	0.000000	0.000000	0.000000
41.625604	18.180805	14.997056	-0.905160	0.994299	2.747912	0.000000	0.145806	0.000000	0.000001	0.000000	0.000000	0.000000
42.174664	18.871980	14.199537	-0.346221	0.466791	2.805509	0.000000	0.063688	0.000000	0.000001	-0.000000	0.000000	0.000000
42.723724	18.932210	13.959737	0.237174	-0.027468	2.817642	0.000000	-0.019560	0.000000	0.000001	-0.000000	0.000000	0.000000
43.022297	18.824996	13.960746	0.171381	-0.012384	2.813999	0.000000	-0.012198	0.000000	0.000001	-0.000000	0.000000	0.000000
43.502297	18.673069	13.989140	0.145134	-0.046771	2.808144	0.000000	-0.012198	0.000000	0.000001	-0.000000	0.000000	0.000000
43.982297	18.546338	14.050547	0.118888	-0.081159	2.802289	0.000000	-0.012198	0.000000	0.000001	-0.000000	0.000000	0.000000
44.462297	18.444804	14.144965	0.092641	-0.115546	2.796434	0.000000	-0.012198	0.000000	0.000001	-0.000000	0.000000	0.000000
44.942297	18.368468	14.272395	0.066394	-0.149933	2.790579	0.000000	-0.012198	0.000000	0.000001	-0.000000	0.000000	0.000000
45.423547	18.317455	14.433119	-0.050676	-0.112900	2.784725	0.000000	0.001599	0.000000	0.000001	-0.000000	0.000000	0.000000
45.720870	18.352428	14.506457	-0.114901	-0.095860	2.785201	0.000000	0.008876	0.000000	0.000001	-0.000000	0.000000	0.000000
46.269930	18.169577	14.892381	0.445955	-0.611169	2.767507	0.000000	-0.073231	0.000000	0.000001	-0.000000	0.000000	0.000000
46.818990	17.384569	15.864616	0.975311	-1.170011	2.705023	0.000000	-0.154039	0.000000	0.000001	-0.000000	0.000000	0.000000
47.368050	16.052854	17.492414	1.435776	-1.812189	2.598856	0.000000	-0.232114	0.000000	0.000001	-0.000000	0.000000	0.000000
47.917110	14.268497	19.891719	1.794825	-2.583446	2.450890	0.000000	-0.306073	0.000000	0.000001	-0.000000	0.000000	0.000000
48.363070	12.879757	22.025034	1.330252	-2.180088	2.329683	0.000000	-0.237785	0.000000	0.000001	-0.000000	0.000000	0.000000
48.804030	11.886747	23.733152	0.930220	-1.678807	2.239287	0.000000	-0.172602	0.000000	0.000001	-0.000000	0.000000	0.000000
49.244990	11.226530	24.963680	0.572687	-1.101141	2.177174	0.000000	-0.109385	0.000000	0.000001	-0.000000	0.000000	0.000000
49.685950	10.868943	25.660631	0.241318	-0.473374	2.142636	0.000000	-0.047414	0.000000	0.000001	-0.000000	0.000000	0.000000
50.128160	10.797780	25.792011	-0.052662	0.112632	2.135291	0.000000	0.008781	0.000000	0.000000	-0.000000	0.000000	0.000000
50.425482	10.837305	25.728506	-0.080274	0.100958	2.137902	0.000000	0.008781	0.000000	0.000000	-0.000000	0.000000	0.000000
50.758816	10.901140	25.665563	-0.111230	0.087870	2.140829	0.000000	0.008781	0.000000	0.000000	-0.000000	0.000000	0.000000
51.092149	10.985613	25.611346	-0.142187	0.074782	2.143756	0.000000	0.008781	0.000000	0.000000	-0.000000	0.000000	0.000000
51.426732	11.090930	25.566218	-0.083282	-0.145760	2.146672	0.000000	-0.008634	0.000000	0.000000	-0.000000	0.000000	0.000000
51.724055	11.148479	25.656425	-0.082936	-0.220554	2.144105	0.000000	-0.013892	0.000000	0.000000	-0.000000	0.000000	0.000000
52.165015	11.367142	25.565538	-0.414823	0.425880	2.151567	0.000000	0.047768	0.000000	0.000000	-0.000000	0.000000	0.000000
52.605975	11.885722	24.910948	-0.765663	1.052937	2.186313	0.000000	0.109972	0.000000	0.000000	-0.000000	0.000000	0.000000
53.046935	12.727911	23.722437	-1.151483	1.632087	2.248738	0.000000	0.173429	0.000000	0.000000	-0.000000	0.000000	0.000000
53.487895	13.932188	22.054082	-1.589911	2.136977	2.339553	0.000000	0.238861	0.000000	0.000000	-0.000000	0.000000	0.000000
53.933855	15.574208	19.956844	-2.105218	2.545971	2.461298	0.000000	0.307412	0.000000	0.000000	-0.000000	0.000000	0.000000
54.482915	17.688190	17.597036	-1.722176	1.777305	2.609905	0.000000	0.233106	0.000000	0.000000	-0.000000	0.000000	0.000000
55.031975	19.311854	16.007261	-1.217489	1.135233	2.716517	0.000000	0.154665	0.000000	0.000000	-0.000000	0.000000	0.000000
55.581035	20.330511	15.074285	-0.626804	0.574022	2.779242	0.000000	0.073481	0.000000	-0.000000	-0.000000	0.000000	0.000000
56.130095	20.672209	14.731653	0.008155	0.053696	2.796968	0.000000	-0.009007	0.000000	-0.000000	-0.000000	0.000000	0.000000
56.428668	20.703914	14.682706	-0.060331	0.071747	2.796461	0.000000	-0.001699	0.000000	-0.000000	-0.000000	0.000000	0.000000
56.762001	20.749521	14.642481	-0.076490	0.048928	2.795895	0.000000	-0.001699	0.000000	-0.000000	-0.000000	0.000000	0.000000
57.095334	20.805900	14.617469	-0.092648	0.026109	2.795329	0.000000	-0.001699	0.000000	-0.000000	-0.000000	0.000000	0.000000
57.429918	20.873324	14.607661	-0.108868	0.003204	2.794760	0.000000	-0.001699	0.000000	-0.000000	-0.000000	0.000000	0.000000
57.727240	20.942347	14.611808	-0.177999	0.021028	2.794255	0.000000	0.005602	0.000000	-0.000000	-0.000000	0.000000	0.000000
58.276300	20.780451	14.869398	0.471115	-0.492944	2.774690	0.000000	-0.076768	0.000000	-0.000000	-0.000000	0.000000	0.000000
58.825360	19.919885	15.707243	1.086951	-1.042027	2.710205	0.000000	-0.157776	0.000000	-0.000000	-0.000000	0.000000	0.000000
59.374420	18.421436	17.185023	1.626011	-1.665332	2.601947	0.000000	-0.235985	0.000000	-0.000000	-0.000000	0.000000	0.000000
59.923480	16.390947	19.407996	2.050217	-2.407254	2.451834	0.000000	-0.310009	0.000000	-0.000000	-0.000000	0.000000	0.000000
60.369440	14.801575	21.383885	1.526339	-2.004687	2.328874	0.000000	-0.241719	0.000000	-0.000000	-0.000000	0.000000	0.000000
60.810400	13.658205	22.940650	1.076409	-1.512278	2.236735	0.000000	-0.176580	0.000000	-0.000000	-0.000000	0.000000	0.000000
61.251360	12.888534	24.031034	0.675657	-0.951061	2.172850	0.000000	-0.113452	0.000000	-0.000000	-0.000000	0.000000	0.000000
61.692320	12.457397	24.605424	0.305774	-0.346572	2.136490	0.000000	-0.051615	0.000000	-0.000000	-0.000000	0.000000	0.000000
62.134530	12.345148	24.637153	-0.019966	0.213214	2.127249	0.000000	0.004416	0.000000	-0.000000	-0.000000	0.000000	0.000000
62.431853	12.364185	24.514118	-0.044060	0.200597	2.128562	0.000000	0.004416	0.000000	-0.000001	-0.000000	0.000000	0.000000
62.765186	12.402562	24.385101	-0.071072	0.186453	2.130034	0.000000	0.004416	0.000000	-0.000001	-0.000000	0.000000	0.000000
63.098520	12.458947	24.265514	-0.098084	0.172308	2.131506	0.000000	0.004416	0.000000	-0.000001	-0.000000	0.000000	0.000000
63.433103	12.533654	24.154962	-0.125197	0.158110	2.132984	0.000000	0.004416	0.000000	-0.000001	-0.000000	0.000000	0.000000
63.730426	12.615265	24.064694	-0.118354	0.086479	2.134297	0.000000	-0.000818	0.000000	-0.000001	-0.000000	0.000000	0.000000
64.171386	12.880215	23.723384	-0.484773	0.684591	2.147479	0.000000	0.060663	0.000000	-0.000001	-0.000000	0.000000	0.000000
64.612346	13.476825	22.866360	-0.873339	1.251554	2.187899	0.000000	0.122835	0.000000	-0.000001	-0.000000	0.000000	0.000000
65.053306	14.432352	21.532616	-1.301806	1.761573	2.256015	0.000000	0.186406	0.000000	-0.000001	-0.000000	0.000000	0.000000
65.494266	15.790451	19.782837	-1.789749	2.191441	2.352605	0.000000	0.252100	0.000000	-0.000001	-0.000000	0.000000	0.000000
65.940226	17.636343	17.671864	-2.364154	2.522359	2.480342	0.000000	0.321067	0.000000	-0.000001	-0.000000	0.000000	0.000000
66.489286	20.002340	15.310249	-1.919515	1.804227	2.636255	0.000000	0.246026	0.000000	-0.000001	-0.000000	0.000000	0.000000
67.038346	21.802276	13.662455	-1.339291	1.214606	2.749706	0.000000	0.166620	0.000000	-0.000001	-0.000000	0.000000	0.000000
67.587406	22.909010	12.611114	-0.664466	0.711499	2.818682	0.000000	0.084260	0.000000	-0.000001	-0.000000	0.000000	0.000000
68.136466	23.244369	12.081341	0.057293	0.259070	2.841959	0.000000	0.000404	0.000000	-0.000001	-0.000000	0.000000	0.000000
68.435038	23.250259	11.915791	-0.016286	0.263835	2.844296	0.000000	0.007830	0.000000	-0.000001	-0.000000	0.000000	0.000000
68.768372	23.265896	11.749874	-0.030626	0.233914	2.846906	0.000000	0.007830	0.000000	-0.000001	-0.000000	0.000000	0.000000
69.101705	23.291094	11.603905	-0.044967	0.203993	2.849516	0.000000	0.007830	0.000000	-0.000001	-0.000000	0.000000	0.000000
69.436288	23.326000	11.477449	-0.059361	0.173959	2.852136	0.000000	0.007830	0.000000	-0.000001	-0.000000	0.000000	0.000000
69.733611	23.365102	11.381940	-0.133202	0.177010	2.854464	0.000000	0.015288	0.000000	-0.000001	-0.000000	0.000000	0.000000
70.282671	23.110102	11.415417	0.594884	-0.238341	2.839667	0.000000	-0.069110	0.000000	-0.000001	-0.000000	0.000000	0.000000
