#ParticleID	Turn	x[m]	xp	y[m]	yp	z[m]	dE[GeV]# s	beta_x	beta_y	alpha_x	alpha_y	D_x	D_y	D_px	D_py	orbit_x	orbit_px	orbit_y	orbit_py
0.300000	11.800902	25.067276	-0.009930	-0.026631	2.618451	0.000000	-0.000119	0.000000	-0.000002	0.000002	0.000000	0.000000
0.601250	11.814575	25.086944	-0.035460	-0.038657	2.618415	0.000000	-0.000119	0.000000	-0.000001	0.000002	0.000000	0.000000
0.898573	11.843153	25.113460	-0.031614	-0.112111	2.618379	0.000000	-0.006540	0.000000	-0.000000	0.000002	0.000000	0.000000
1.339533	12.023014	24.933731	-0.377817	0.518145	2.631789	0.000000	0.067423	0.000000	0.000001	0.000002	0.000000	0.000000
1.780493	12.514626	24.206479	-0.741280	1.124826	2.677952	0.000000	0.142155	0.000000	0.000001	0.000002	0.000000	0.000000
2.221453	13.340450	22.964793	-1.138611	1.680329	2.757394	0.000000	0.218505	0.000000	0.000002	0.000002	0.000000	0.000000
2.662413	14.538216	21.265168	-1.587961	2.159378	2.871019	0.000000	0.297344	0.000000	0.000003	0.000002	0.000000	0.000000
3.108373	16.183356	19.160014	-2.114145	2.541311	3.021983	0.000000	0.380059	0.000000	0.000004	0.000002	0.000000	0.000000
3.657433	18.293033	16.795547	-1.705452	1.790500	3.205386	0.000000	0.287022	0.000000	0.000005	0.000002	0.000000	0.000000
4.206493	19.884708	15.181110	-1.176295	1.167222	3.336231	0.000000	0.188895	0.000000	0.000006	0.000002	0.000000	0.000000
4.755553	20.845953	14.201710	-0.564051	0.627083	3.412197	0.000000	0.087416	0.000000	0.000007	0.000002	0.000000	0.000000
5.304613	21.108871	13.787587	0.088036	0.131609	3.431938	0.000000	-0.015612	0.000000	0.000008	0.000001	0.000000	0.000000
5.603185	21.093461	13.694135	0.018726	0.145367	3.429953	0.000000	-0.006646	0.000000	0.000009	0.000001	0.000000	0.000000
5.936519	21.086246	13.605508	0.002918	0.120512	3.427737	0.000000	-0.006646	0.000000	0.000009	0.000001	0.000000	0.000000
6.269852	21.089570	13.533452	-0.012890	0.095656	3.425522	0.000000	-0.006646	0.000000	0.000010	0.000001	0.000000	0.000000
6.604435	21.103504	13.477790	-0.028758	0.070707	3.423298	0.000000	-0.006646	0.000000	0.000010	0.000001	0.000000	0.000000
6.901758	21.124797	13.442336	-0.098048	0.083656	3.421321	0.000000	0.002293	0.000000	0.000011	0.000001	0.000000	0.000000
7.450818	20.872480	13.611469	0.554873	-0.393514	3.394382	0.000000	-0.100275	0.000000	0.000011	0.000001	0.000000	0.000000
7.999878	19.920555	14.316816	1.168600	-0.898713	3.311532	0.000000	-0.201065	0.000000	0.000012	0.000001	0.000000	0.000000
8.548938	18.336261	15.608617	1.699784	-1.467926	3.174243	0.000000	-0.298288	0.000000	0.000012	0.000000	0.000000	0.000000
9.097998	16.231506	17.578886	2.110903	-2.141695	2.984948	0.000000	-0.390220	0.000000	0.000012	-0.000000	0.000000	0.000000
9.543958	14.589469	19.334458	1.584214	-1.778276	2.829229	0.000000	-0.308527	0.000000	0.000012	0.000000	0.000000	0.000000
9.984918	13.395294	20.712613	1.134185	-1.335183	2.710424	0.000000	-0.230833	0.000000	0.000012	0.000001	0.000000	0.000000
10.425878	12.573746	21.671613	0.735974	-0.831340	2.625267	0.000000	-0.155767	0.000000	0.000013	0.000001	0.000000	0.000000
10.866838	12.087289	22.167822	0.371388	-0.289672	2.572789	0.000000	-0.082475	0.000000	0.000013	0.000001	0.000000	0.000000
11.309048	11.913567	22.178139	0.052876	0.210735	2.552371	0.000000	-0.016381	0.000000	0.000014	0.000002	0.000000	0.000000
11.606371	11.889565	22.056989	0.027849	0.196733	2.547500	0.000000	-0.016381	0.000000	0.000014	0.000002	0.000000	0.000000
12.086371	11.882223	21.878975	-0.012553	0.174129	2.539637	0.000000	-0.016381	0.000000	0.000015	0.000002	0.000000	0.000000
12.566371	11.913668	21.722661	-0.052956	0.151525	2.531773	0.000000	-0.016381	0.000000	0.000016	0.000002	0.000000	0.000000
13.046371	11.983899	21.588047	-0.093359	0.128921	2.523909	0.000000	-0.016381	0.000000	0.000017	0.000002	0.000000	0.000000
13.526371	12.092917	21.475132	-0.133762	0.106317	2.516046	0.000000	-0.016381	0.000000	0.000017	0.000002	0.000000	0.000000
14.007621	12.241158	21.383709	-0.174270	0.083654	2.508162	0.000000	-0.016381	0.000000	0.000018	0.000002	0.000000	0.000000
14.304943	12.352227	21.338127	-0.169010	0.017335	2.503291	0.000000	-0.022519	0.000000	0.000018	0.000002	0.000000	0.000000
14.745903	12.659752	21.089319	-0.531031	0.544760	2.508986	0.000000	0.048378	0.000000	0.000019	0.000002	0.000000	0.000000
15.186863	13.296001	20.384558	-0.917314	1.047399	2.546035	0.000000	0.119826	0.000000	0.000020	0.000002	0.000000	0.000000
15.627823	14.290043	19.255911	-1.345505	1.502383	2.614861	0.000000	0.192639	0.000000	0.000021	0.000003	0.000000	0.000000
16.068783	15.687294	17.754730	-1.835170	1.889009	2.716247	0.000000	0.267646	0.000000	0.000023	0.000004	0.000000	0.000000
16.514743	17.575255	15.927821	-2.413436	2.190427	2.853041	0.000000	0.346163	0.000000	0.000025	0.000004	0.000000	0.000000
17.063803	20.000215	13.888014	-1.976982	1.546590	3.019385	0.000000	0.258876	0.000000	0.000027	0.000003	0.000000	0.000000
17.612863	21.865913	12.490939	-1.400884	1.012913	3.136471	0.000000	0.166998	0.000000	0.000028	0.000002	0.000000	0.000000
18.161923	23.040563	11.637087	-0.725834	0.551383	3.202223	0.000000	0.072158	0.000000	0.000029	0.000002	0.000000	0.000000
18.710983	23.441196	11.265639	0.000485	0.129127	3.215473	0.000000	-0.023962	0.000000	0.000030	0.000001	0.000000	0.000000
19.009556	23.481288	11.179070	-0.073531	0.131385	3.210826	0.000000	-0.015563	0.000000	0.000030	0.000001	0.000000	0.000000
19.342889	23.535066	11.101591	-0.087804	0.101053	3.205638	0.000000	-0.015563	0.000000	0.000030	0.000001	0.000000	0.000000
19.676223	23.598360	11.044333	-0.102076	0.070721	3.200450	0.000000	-0.015563	0.000000	0.000031	0.000001	0.000000	0.000000
20.010806	23.671752	11.007060	-0.233685	0.094810	3.195263	0.000000	0.000268	0.000000	0.000031	0.000001	0.000000	0.000000
20.308129	23.814651	10.958785	-0.309138	0.096181	3.195342	0.000000	0.008615	0.000000	0.000031	0.000001	0.000000	0.000000
20.857189	23.743362	11.074986	0.438207	-0.309067	3.173868	0.000000	-0.086720	0.000000	0.000031	-0.000000	0.000000	0.000000
21.406249	22.863607	11.645604	1.154600	-0.736330	3.100396	0.000000	-0.180516	0.000000	0.000031	-0.000001	0.000000	0.000000
21.955309	21.237527	12.711283	1.789438	-1.216041	2.976229	0.000000	-0.271111	0.000000	0.000030	-0.000002	0.000000	0.000000
22.504369	18.979979	14.347928	2.297878	-1.782367	2.803569	0.000000	-0.356897	0.000000	0.000029	-0.000003	0.000000	0.000000
22.950329	17.200699	15.817477	1.705977	-1.498979	2.661693	0.000000	-0.279729	0.000000	0.000028	-0.000002	0.000000	0.000000
23.391289	15.925565	16.989255	1.196714	-1.148240	2.554657	0.000000	-0.206201	0.000000	0.000027	-0.000002	0.000000	0.000000
23.832249	15.073844	17.827401	0.742126	-0.745258	2.479497	0.000000	-0.135022	0.000000	0.000026	-0.000001	0.000000	0.000000
24.273209	14.606624	18.293782	0.321444	-0.308366	2.435354	0.000000	-0.065381	0.000000	0.000026	-0.000000	0.000000	0.000000
24.715418	14.502682	18.366933	-0.049083	0.097456	2.421724	0.000000	-0.002422	0.000000	0.000026	0.000000	0.000000	0.000000
25.012741	14.537979	18.313840	-0.069633	0.081114	2.421004	0.000000	-0.002422	0.000000	0.000026	0.000000	0.000000	0.000000
25.346075	14.592081	18.265871	-0.092673	0.062794	2.420196	0.000000	-0.002422	0.000000	0.000026	0.000000	0.000000	0.000000
25.679408	14.661543	18.230116	-0.115712	0.044473	2.419389	0.000000	-0.002422	0.000000	0.000026	0.000000	0.000000	0.000000
26.013991	14.746412	18.206878	-0.019206	-0.121620	2.418554	0.000000	-0.022043	0.000000	0.000026	0.000000	0.000000	0.000000
26.311314	14.763830	18.284126	-0.003180	-0.183019	2.412000	0.000000	-0.027956	0.000000	0.000026	0.000000	0.000000	0.000000
26.752274	14.948505	18.247278	-0.417212	0.266264	2.414774	0.000000	0.040550	0.000000	0.000026	0.000001	0.000000	0.000000
27.193234	15.505318	17.818048	-0.850306	0.703431	2.447829	0.000000	0.109518	0.000000	0.000027	0.000001	0.000000	0.000000
27.634194	16.459708	17.015965	-1.322248	1.108593	2.511541	0.000000	0.179733	0.000000	0.000028	0.000002	0.000000	0.000000
28.075154	17.855277	15.877524	-1.854600	1.463315	2.606637	0.000000	0.251995	0.000000	0.000029	0.000003	0.000000	0.000000
28.521114	19.780028	14.437368	-2.476658	1.752369	2.735801	0.000000	0.327570	0.000000	0.000030	0.000004	0.000000	0.000000
29.070174	22.226373	12.832872	-1.952478	1.187139	2.893008	0.000000	0.244230	0.000000	0.000032	0.000003	0.000000	0.000000
29.619234	24.017503	11.799270	-1.290384	0.706466	3.003197	0.000000	0.156559	0.000000	0.000033	0.000002	0.000000	0.000000
30.168294	25.026901	11.262941	-0.537144	0.276113	3.064416	0.000000	0.066110	0.000000	0.000034	0.000000	0.000000	0.000000
30.717354	25.183269	11.185683	0.254038	-0.134573	3.075578	0.000000	-0.025511	0.000000	0.000034	-0.000001	0.000000	0.000000
31.015927	25.074517	11.256653	0.175981	-0.132343	3.070360	0.000000	-0.017478	0.000000	0.000033	-0.000001	0.000000	0.000000
31.349260	24.961765	11.354925	0.162276	-0.162474	3.064534	0.000000	-0.017478	0.000000	0.000033	-0.000001	0.000000	0.000000
31.682593	24.858150	11.473285	0.148570	-0.192605	3.058709	0.000000	-0.017478	0.000000	0.000033	-0.000001	0.000000	0.000000
32.017177	24.763334	11.612289	0.134813	-0.222849	3.052861	0.000000	-0.017478	0.000000	0.000033	-0.000001	0.000000	0.000000
32.314499	24.686803	11.752795	0.058104	-0.219025	3.047665	0.000000	-0.009517	0.000000	0.000033	-0.000000	0.000000	0.000000
32.863559	24.199992	12.232479	0.823272	-0.659776	3.017575	0.000000	-0.099927	0.000000	0.000032	-0.000002	0.000000	0.000000
33.412619	22.900050	13.218971	1.530288	-1.147522	2.938260	0.000000	-0.188565	0.000000	0.000031	-0.000003	0.000000	0.000000
33.961679	20.878799	14.782539	2.129211	-1.717004	2.811126	0.000000	-0.273858	0.000000	0.000029	-0.000004	0.000000	0.000000
34.510739	18.279009	17.034552	2.577738	-2.408783	2.638427	0.000000	-0.354294	0.000000	0.000027	-0.000004	0.000000	0.000000
34.956699	16.257503	19.048936	1.971433	-2.089319	2.496760	0.000000	-0.281407	0.000000	0.000025	-0.000004	0.000000	0.000000
35.397659	14.749999	20.715429	1.460219	-1.675536	2.388045	0.000000	-0.212153	0.000000	0.000024	-0.000003	0.000000	0.000000
35.838619	13.662335	21.981858	1.015718	-1.185516	2.309306	0.000000	-0.145315	0.000000	0.000023	-0.000003	0.000000	0.000000
36.279579	12.944818	22.790602	0.617623	-0.641557	2.259648	0.000000	-0.080132	0.000000	0.000022	-0.000002	0.000000	0.000000
36.721789	12.563971	23.105177	0.278444	-0.125110	2.238477	0.000000	-0.021351	0.000000	0.000021	-0.000001	0.000000	0.000000
37.019112	12.405977	23.183459	0.252945	-0.138180	2.232129	0.000000	-0.021351	0.000000	0.000021	-0.000001	0.000000	0.000000
37.352445	12.246876	23.280463	0.224357	-0.152833	2.225013	0.000000	-0.021351	0.000000	0.000020	-0.000001	0.000000	0.000000
37.685779	12.106834	23.387236	0.195769	-0.167485	2.217897	0.000000	-0.021351	0.000000	0.000020	-0.000001	0.000000	0.000000
38.020362	11.985433	23.504232	0.167074	-0.182193	2.210753	0.000000	-0.021351	0.000000	0.000019	-0.000001	0.000000	0.000000
38.317684	11.893665	23.616458	0.170736	-0.253167	2.204406	0.000000	-0.026756	0.000000	0.000019	-0.000001	0.000000	0.000000
38.758644	11.894681	23.578130	-0.173049	0.339756	2.206529	0.000000	0.036390	0.000000	0.000018	-0.000001	0.000000	0.000000
39.199604	12.201216	23.021737	-0.524741	0.917221	2.236561	0.000000	0.099950	0.000000	0.000018	-0.000001	0.000000	0.000000
39.640564	12.827274	21.972592	-0.900406	1.452953	2.294844	0.000000	0.164649	0.000000	0.000018	-0.000000	0.000000	0.000000
40.081524	13.801458	20.478433	-1.317209	1.922576	2.382043	0.000000	0.231223	0.000000	0.000018	0.000000	0.000000	0.000000
40.527484	15.185852	18.584659	-1.798019	2.306012	2.500622	0.000000	0.300835	0.000000	0.000018	0.000001	0.000000	0.000000
41.076544	16.952347	16.456434	-1.400241	1.592991	2.645280	0.000000	0.225319	0.000000	0.000018	0.000000	0.000000	0.000000
41.625604	18.224803	15.044663	-0.903557	0.993436	2.747315	0.000000	0.145806	0.000000	0.000018	-0.000000	0.000000	0.000000
42.174664	18.913341	14.248789	-0.343050	0.464641	2.804918	0.000000	0.063707	0.000000	0.000018	-0.000001	0.000000	0.000000
42.723724	18.969325	14.012124	0.241688	-0.031059	2.817067	0.000000	-0.019522	0.000000	0.000017	-0.000002	0.000000	0.000000
43.022297	18.859467	14.015174	0.175812	-0.015762	2.813436	0.000000	-0.012163	0.000000	0.000017	-0.000001	0.000000	0.000000
43.502297	18.703282	14.046749	0.149573	-0.050019	2.807598	0.000000	-0.012163	0.000000	0.000016	-0.000001	0.000000	0.000000
43.982297	18.572286	14.111211	0.123335	-0.084276	2.801761	0.000000	-0.012163	0.000000	0.000015	-0.000001	0.000000	0.000000
44.462297	18.466479	14.208560	0.097097	-0.118533	2.795923	0.000000	-0.012163	0.000000	0.000015	-0.000001	0.000000	0.000000
44.942297	18.385860	14.338795	0.070859	-0.152790	2.790086	0.000000	-0.012163	0.000000	0.000014	-0.000001	0.000000	0.000000
45.423547	18.330545	14.502205	-0.046267	-0.115284	2.784251	0.000000	0.001632	0.000000	0.000013	-0.000001	0.000000	0.000000
45.720870	18.362890	14.576935	-0.110495	-0.097976	2.784736	0.000000	0.008907	0.000000	0.000013	-0.000001	0.000000	0.000000
46.269930	18.175047	14.966371	0.450586	-0.615488	2.767065	0.000000	-0.073185	0.000000	0.000012	-0.000002	0.000000	0.000000
46.818990	17.384980	15.944693	0.979841	-1.176841	2.704611	0.000000	-0.153979	0.000000	0.000011	-0.000002	0.000000	0.000000
47.368050	16.048493	17.581584	1.439884	-1.822017	2.598482	0.000000	-0.232042	0.000000	0.000010	-0.000002	0.000000	0.000000
47.917110	14.259991	19.993637	1.798221	-2.596972	2.450560	0.000000	-0.305989	0.000000	0.000008	-0.000003	0.000000	0.000000
48.363070	12.868306	22.138050	1.333485	-2.191346	2.329390	0.000000	-0.237709	0.000000	0.000007	-0.000003	0.000000	0.000000
48.804030	11.872460	23.854908	0.933442	-1.687294	2.239027	0.000000	-0.172533	0.000000	0.000006	-0.000002	0.000000	0.000000
49.244990	11.209351	25.091553	0.576045	-1.106471	2.176944	0.000000	-0.109322	0.000000	0.000005	-0.000002	0.000000	0.000000
49.685950	10.848686	25.791716	0.244967	-0.475304	2.142433	0.000000	-0.047357	0.000000	0.000004	-0.000002	0.000000	0.000000
50.128160	10.774106	25.923258	-0.048616	0.113870	2.135113	0.000000	0.008834	0.000000	0.000003	-0.000002	0.000000	0.000000
50.425482	10.811240	25.859000	-0.076277	0.102252	2.137740	0.000000	0.008834	0.000000	0.000002	-0.000002	0.000000	0.000000
50.758816	10.872429	25.795174	-0.107289	0.089227	2.140685	0.000000	0.008834	0.000000	0.000002	-0.000002	0.000000	0.000000
51.092149	10.954292	25.740031	-0.138300	0.076202	2.143630	0.000000	0.008834	0.000000	0.000001	-0.000002	0.000000	0.000000
51.426732	11.057028	25.693935	-0.079726	-0.145314	2.146565	0.000000	-0.008580	0.000000	0.000000	-0.000002	0.000000	0.000000
51.724055	11.112483	25.783858	-0.079536	-0.220361	2.144015	0.000000	-0.013838	0.000000	-0.000000	-0.000002	0.000000	0.000000
52.165015	11.327760	25.691313	-0.410517	0.429434	2.151501	0.000000	0.047820	0.000000	-0.000001	-0.000002	0.000000	0.000000
52.605975	11.842072	25.032161	-0.760254	1.059689	2.186270	0.000000	0.110023	0.000000	-0.000002	-0.000002	0.000000	0.000000
53.046935	12.678916	23.836393	-1.144725	1.641730	2.248717	0.000000	0.173478	0.000000	-0.000003	-0.000002	0.000000	0.000000
53.487895	13.876526	22.158415	-1.581495	2.149073	2.339555	0.000000	0.238910	0.000000	-0.000004	-0.000002	0.000000	0.000000
53.933855	15.510151	20.049490	-2.094741	2.559974	2.461323	0.000000	0.307462	0.000000	-0.000005	-0.000002	0.000000	0.000000
54.482915	17.613477	17.676328	-1.713360	1.787766	2.609958	0.000000	0.233154	0.000000	-0.000006	-0.000002	0.000000	0.000000
55.031975	19.228662	16.076661	-1.210956	1.142897	2.716597	0.000000	0.154711	0.000000	-0.000007	-0.000002	0.000000	0.000000
55.581035	20.241617	15.136547	-0.623015	0.579434	2.779348	0.000000	0.073524	0.000000	-0.000008	-0.000002	0.000000	0.000000
56.130095	20.580794	14.789025	0.008931	0.057242	2.797098	0.000000	-0.008967	0.000000	-0.000009	-0.000001	0.000000	0.000000
56.428668	20.611914	14.737850	-0.059383	0.075512	2.796603	0.000000	-0.001658	0.000000	-0.000010	-0.000001	0.000000	0.000000
56.762001	20.656913	14.695091	-0.075612	0.052766	2.796050	0.000000	-0.001658	0.000000	-0.000010	-0.000001	0.000000	0.000000
57.095334	20.712730	14.667496	-0.091841	0.030019	2.795498	0.000000	-0.001658	0.000000	-0.000011	-0.000001	0.000000	0.000000
57.429918	20.779638	14.655047	-0.108131	0.007187	2.794944	0.000000	-0.001658	0.000000	-0.000011	-0.000001	0.000000	0.000000
57.727240	20.848241	14.656806	-0.177084	0.025197	2.794451	0.000000	0.005644	0.000000	-0.000012	-0.000001	0.000000	0.000000
58.276300	20.687076	14.910504	0.468876	-0.489985	2.774907	0.000000	-0.076733	0.000000	-0.000012	-0.000001	0.000000	0.000000
58.825360	19.830638	15.745665	1.081717	-1.040067	2.710441	0.000000	-0.157748	0.000000	-0.000013	-0.000001	0.000000	0.000000
59.374420	18.339421	17.221773	1.618151	-1.664231	2.602195	0.000000	-0.235966	0.000000	-0.000013	-0.000000	0.000000	0.000000
59.923480	16.318758	19.443970	2.040287	-2.406934	2.452091	0.000000	-0.309998	0.000000	-0.000013	0.000000	0.000000	0.000000
60.369440	14.737257	21.419016	1.518555	-2.003124	2.329138	0.000000	-0.241701	0.000000	-0.000013	-0.000000	0.000000	0.000000
60.810400	13.599948	22.973882	1.070398	-1.509551	2.237008	0.000000	-0.176555	0.000000	-0.000013	-0.000001	0.000000	0.000000
61.251360	12.834900	24.061390	0.671144	-0.947294	2.173136	0.000000	-0.113419	0.000000	-0.000014	-0.000001	0.000000	0.000000
61.692320	12.407161	24.632061	0.302553	-0.341937	2.136793	0.000000	-0.051575	0.000000	-0.000014	-0.000001	0.000000	0.000000
62.134530	12.297244	24.659383	-0.022156	0.218444	2.127571	0.000000	0.004463	0.000000	-0.000015	-0.000002	0.000000	0.000000
62.431853	12.317611	24.533242	-0.046346	0.205812	2.128899	0.000000	0.004463	0.000000	-0.000015	-0.000002	0.000000	0.000000
62.765186	12.357548	24.400755	-0.073465	0.191649	2.130387	0.000000	0.004463	0.000000	-0.000016	-0.000002	0.000000	0.000000
63.098520	12.415564	24.277710	-0.100585	0.177486	2.131875	0.000000	0.004463	0.000000	-0.000016	-0.000002	0.000000	0.000000
63.433103	12.491980	24.163699	-0.127806	0.163271	2.133369	0.000000	0.004463	0.000000	-0.000017	-0.000002	0.000000	0.000000
63.730426	12.575172	24.070366	-0.121153	0.091601	2.134696	0.000000	-0.000773	0.000000	-0.000017	-0.000002	0.000000	0.000000
64.171386	12.842211	23.724515	-0.486731	0.689729	2.147901	0.000000	0.060719	0.000000	-0.000018	-0.000002	0.000000	0.000000
64.612346	13.440210	22.863039	-0.874545	1.256475	2.188348	0.000000	0.122902	0.000000	-0.000019	-0.000002	0.000000	0.000000
65.053306	14.396490	21.525134	-1.302315	1.766053	2.256498	0.000000	0.186485	0.000000	-0.000020	-0.000003	0.000000	0.000000
65.494266	15.754740	19.771674	-1.789584	2.195277	2.353126	0.000000	0.252191	0.000000	-0.000022	-0.000004	0.000000	0.000000
65.940226	17.600180	17.657638	-2.363306	2.525367	2.480908	0.000000	0.321173	0.000000	-0.000023	-0.000004	0.000000	0.000000
66.489286	19.966055	15.292790	-1.920146	1.807142	2.636876	0.000000	0.246112	0.000000	-0.000025	-0.000003	0.000000	0.000000
67.038346	21.767477	13.641752	-1.341357	1.217636	2.750370	0.000000	0.166686	0.000000	-0.000027	-0.000002	0.000000	0.000000
67.587406	22.877204	12.586923	-0.667821	0.714859	2.819377	0.000000	0.084303	0.000000	-0.000028	-0.000002	0.000000	0.000000
68.136466	23.216851	12.053170	0.052886	0.263000	2.842672	0.000000	0.000425	0.000000	-0.000029	-0.000001	0.000000	0.000000
68.435038	23.225342	11.885348	-0.020651	0.267581	2.845017	0.000000	0.007854	0.000000	-0.000029	-0.000001	0.000000	0.000000
68.768372	23.243895	11.716979	-0.035009	0.237527	2.847635	0.000000	0.007854	0.000000	-0.000029	-0.000001	0.000000	0.000000
69.101705	23.272021	11.568645	-0.049367	0.207473	2.850254	0.000000	0.007854	0.000000	-0.000029	-0.000001	0.000000	0.000000
69.436288	23.309878	11.439904	-0.063779	0.177307	2.852882	0.000000	0.007854	0.000000	-0.000030	-0.000001	0.000000	0.000000
69.733611	23.351612	11.342439	-0.137615	0.180143	2.855217	0.000000	0.015316	0.000000	-0.000030	-0.000001	0.000000	0.000000
70.282671	23.101662	11.371857	0.590153	-0.234037	2.840429	0.000000	-0.069106	0.000000	-0.000030	0.000000	0.000000	0.000000
