#ParticleID	Turn	x[m]	xp	y[m]	yp	z[m]	dE[GeV]# s	beta_x	beta_y	alpha_x	alpha_y	D_x	D_y	D_px	D_py	orbit_x	orbit_px	orbit_y	orbit_py
0.300000	11.818291	24.999767	-0.011584	-0.027443	2.618102	0.000000	0.000016	0.000000	-0.000000	0.000001	0.000000	0.000000
0.601250	11.832950	25.019934	-0.037078	-0.039502	2.618107	0.000000	0.000016	0.000000	0.000000	0.000001	0.000000	0.000000
0.898573	11.862480	25.046963	-0.033149	-0.112826	2.618111	0.000000	-0.006404	0.000000	0.000000	0.000001	0.000000	0.000000
1.339533	12.043899	24.868638	-0.379831	0.515688	2.631580	0.000000	0.067553	0.000000	0.000001	0.000001	0.000000	0.000000
1.780493	12.537533	24.144282	-0.743867	1.120739	2.677800	0.000000	0.142280	0.000000	0.000001	0.000001	0.000000	0.000000
2.221453	13.365932	22.906853	-1.141888	1.674797	2.757297	0.000000	0.218627	0.000000	0.000001	0.000001	0.000000	0.000000
2.662413	14.566946	21.212654	-1.592078	2.152653	2.870976	0.000000	0.297464	0.000000	0.000002	0.000001	0.000000	0.000000
3.108373	16.216205	19.113921	-2.119299	2.533697	3.021994	0.000000	0.380179	0.000000	0.000002	0.000001	0.000000	0.000000
3.657433	18.331093	16.756764	-1.709732	1.784720	3.205463	0.000000	0.287141	0.000000	0.000003	0.000001	0.000000	0.000000
4.206493	19.926846	15.147860	-1.179399	1.162865	3.336372	0.000000	0.189009	0.000000	0.000003	0.000001	0.000000	0.000000
4.755553	20.890749	14.172609	-0.565760	0.623838	3.412401	0.000000	0.087526	0.000000	0.000003	0.000001	0.000000	0.000000
5.304613	21.154717	13.761547	0.087843	0.129246	3.432200	0.000000	-0.015511	0.000000	0.000004	0.000000	0.000000	0.000000
5.603185	21.139485	13.669553	0.018442	0.142913	3.430247	0.000000	-0.006543	0.000000	0.000004	0.000001	0.000000	0.000000
5.936519	21.132448	13.582572	0.002669	0.118030	3.428065	0.000000	-0.006543	0.000000	0.000004	0.000001	0.000000	0.000000
6.269852	21.135927	13.512180	-0.013105	0.093146	3.425884	0.000000	-0.006543	0.000000	0.000004	0.000001	0.000000	0.000000
6.604435	21.149994	13.458206	-0.028938	0.068170	3.423695	0.000000	-0.006543	0.000000	0.000004	0.000001	0.000000	0.000000
6.901758	21.171384	13.424268	-0.098322	0.081049	3.421749	0.000000	0.002397	0.000000	0.000005	0.000001	0.000000	0.000000
7.450818	20.918511	13.595996	0.556154	-0.395663	3.394863	0.000000	-0.100186	0.000000	0.000005	0.000000	0.000000	0.000000
7.999878	19.964362	14.303522	1.171346	-0.900556	3.312059	0.000000	-0.200992	0.000000	0.000005	0.000000	0.000000	0.000000
8.548938	18.376334	15.597241	1.703799	-1.469595	3.174805	0.000000	-0.298232	0.000000	0.000005	0.000000	0.000000	0.000000
9.097998	16.266598	17.569302	2.115905	-2.143309	2.985536	0.000000	-0.390183	0.000000	0.000005	-0.000000	0.000000	0.000000
9.543958	14.620587	19.326525	1.588156	-1.780351	2.829837	0.000000	-0.308475	0.000000	0.000005	0.000000	0.000000	0.000000
9.984918	13.423331	20.706678	1.137256	-1.337621	2.711058	0.000000	-0.230764	0.000000	0.000005	0.000000	0.000000	0.000000
10.425878	12.599406	21.667947	0.738314	-0.834030	2.625936	0.000000	-0.155682	0.000000	0.000005	0.000000	0.000000	0.000000
10.866838	12.111168	22.166596	0.373103	-0.292491	2.573499	0.000000	-0.082372	0.000000	0.000005	0.000000	0.000000	0.000000
11.309048	11.936176	22.179415	0.054103	0.207908	2.553132	0.000000	-0.016262	0.000000	0.000005	0.000001	0.000000	0.000000
11.606371	11.911431	22.059942	0.029121	0.193923	2.548297	0.000000	-0.016262	0.000000	0.000006	0.000001	0.000000	0.000000
12.086371	11.902835	21.884613	-0.011211	0.171346	2.540491	0.000000	-0.016262	0.000000	0.000006	0.000001	0.000000	0.000000
12.566371	11.932956	21.730958	-0.051542	0.148768	2.532685	0.000000	-0.016262	0.000000	0.000006	0.000001	0.000000	0.000000
13.046371	12.001796	21.598978	-0.091874	0.126191	2.524879	0.000000	-0.016262	0.000000	0.000006	0.000001	0.000000	0.000000
13.526371	12.109355	21.488671	-0.132206	0.103614	2.517074	0.000000	-0.016262	0.000000	0.000007	0.000001	0.000000	0.000000
14.007621	12.256063	21.399836	-0.172642	0.080978	2.509247	0.000000	-0.016262	0.000000	0.000007	0.000001	0.000000	0.000000
14.304943	12.366151	21.355841	-0.167301	0.014626	2.504412	0.000000	-0.022403	0.000000	0.000007	0.000001	0.000000	0.000000
14.745903	12.672288	21.109193	-0.529583	0.542587	2.510166	0.000000	0.048524	0.000000	0.000007	0.000001	0.000000	0.000000
15.186863	13.307349	20.406076	-0.916059	1.045861	2.547287	0.000000	0.120003	0.000000	0.000008	0.000001	0.000000	0.000000
15.627823	14.300349	19.278479	-1.344388	1.501548	2.616199	0.000000	0.192849	0.000000	0.000008	0.000001	0.000000	0.000000
16.068783	15.696655	17.777709	-1.834138	1.888917	2.717686	0.000000	0.267892	0.000000	0.000009	0.000001	0.000000	0.000000
16.514743	17.583716	15.950545	-2.412442	2.191087	2.854599	0.000000	0.346448	0.000000	0.000009	0.000002	0.000000	0.000000
17.063803	20.007310	13.910307	-1.975504	1.546719	3.021087	0.000000	0.259109	0.000000	0.000010	0.000001	0.000000	0.000000
17.612863	21.871163	12.513376	-1.399026	1.012521	3.138286	0.000000	0.167174	0.000000	0.000011	0.000001	0.000000	0.000000
18.161923	23.043622	11.660251	-0.723727	0.550442	3.204118	0.000000	0.072273	0.000000	0.000011	0.000001	0.000000	0.000000
18.710983	23.441872	11.290166	0.002692	0.127570	3.217415	0.000000	-0.023909	0.000000	0.000011	0.000000	0.000000	0.000000
19.009556	23.480652	11.204465	-0.071332	0.129969	3.212786	0.000000	-0.015503	0.000000	0.000011	0.000000	0.000000	0.000000
19.342889	23.532963	11.127904	-0.085601	0.099716	3.207618	0.000000	-0.015503	0.000000	0.000011	0.000000	0.000000	0.000000
19.676223	23.594786	11.071510	-0.099869	0.069464	3.202450	0.000000	-0.015503	0.000000	0.000011	0.000000	0.000000	0.000000
20.010806	23.666700	11.035051	-0.231449	0.093772	3.197283	0.000000	0.000338	0.000000	0.000011	0.000000	0.000000	0.000000
20.308129	23.808265	10.987371	-0.306885	0.095297	3.197383	0.000000	0.008691	0.000000	0.000012	0.000000	0.000000	0.000000
20.857189	23.734631	11.104986	0.440201	-0.310774	3.175933	0.000000	-0.086710	0.000000	0.000012	-0.000000	0.000000	0.000000
21.406249	22.852895	11.677983	1.156194	-0.738981	3.102448	0.000000	-0.180573	0.000000	0.000011	-0.000000	0.000000	0.000000
21.955309	21.225337	12.747173	1.790519	-1.219824	2.978231	0.000000	-0.271233	0.000000	0.000011	-0.000001	0.000000	0.000000
22.504369	18.966922	14.388713	2.298371	-1.787552	2.805486	0.000000	-0.357083	0.000000	0.000011	-0.000001	0.000000	0.000000
22.950329	17.187117	15.862472	1.706667	-1.503194	2.663537	0.000000	-0.279866	0.000000	0.000010	-0.000001	0.000000	0.000000
23.391289	15.911277	17.037468	1.197633	-1.151298	2.556451	0.000000	-0.206292	0.000000	0.000010	-0.000001	0.000000	0.000000
23.832249	15.058631	17.877748	0.743316	-0.747018	2.481260	0.000000	-0.135067	0.000000	0.000010	-0.000000	0.000000	0.000000
24.273209	14.590223	18.345078	0.322958	-0.308750	2.437107	0.000000	-0.065380	0.000000	0.000009	-0.000000	0.000000	0.000000
24.715418	14.484773	18.417949	-0.047214	0.098335	2.423487	0.000000	-0.002381	0.000000	0.000009	0.000000	0.000000	0.000000
25.012741	14.518965	18.364321	-0.067786	0.082036	2.422780	0.000000	-0.002381	0.000000	0.000009	0.000000	0.000000	0.000000
25.346075	14.571844	18.315722	-0.090850	0.063762	2.421986	0.000000	-0.002381	0.000000	0.000009	0.000000	0.000000	0.000000
25.679408	14.640098	18.279305	-0.113914	0.045489	2.421192	0.000000	-0.002381	0.000000	0.000010	0.000000	0.000000	0.000000
26.013991	14.723773	18.255372	-0.017615	-0.120949	2.420371	0.000000	-0.022017	0.000000	0.000010	-0.000000	0.000000	0.000000
26.311314	14.740254	18.332207	-0.001671	-0.182426	2.413825	0.000000	-0.027936	0.000000	0.000010	-0.000000	0.000000	0.000000
26.752274	14.923340	18.294263	-0.415104	0.268148	2.416618	0.000000	0.040618	0.000000	0.000010	0.000000	0.000000	0.000000
27.193234	15.477995	17.862830	-0.847502	0.706522	2.449714	0.000000	0.109634	0.000000	0.000010	0.000000	0.000000	0.000000
27.634194	16.429558	17.057539	-1.318620	1.112750	2.513489	0.000000	0.179898	0.000000	0.000010	0.000001	0.000000	0.000000
28.075154	17.821504	15.915031	-1.849981	1.468348	2.608670	0.000000	0.252211	0.000000	0.000010	0.000001	0.000000	0.000000
28.521114	19.741611	14.470077	-2.470828	1.758051	2.737943	0.000000	0.327841	0.000000	0.000011	0.000001	0.000000	0.000000
29.070174	22.182078	12.860076	-1.947670	1.191544	2.895280	0.000000	0.244430	0.000000	0.000011	0.000001	0.000000	0.000000
29.619234	23.968649	11.822190	-1.286938	0.709909	3.005559	0.000000	0.156683	0.000000	0.000012	0.000001	0.000000	0.000000
30.168294	24.975127	11.282494	-0.535304	0.278839	3.066825	0.000000	0.066157	0.000000	0.000012	0.000000	0.000000	0.000000
30.717354	25.130422	11.202545	0.254142	-0.132370	3.077992	0.000000	-0.025542	0.000000	0.000012	-0.000000	0.000000	0.000000
31.015927	25.021541	11.272155	0.176184	-0.130038	3.072766	0.000000	-0.017501	0.000000	0.000012	-0.000000	0.000000	0.000000
31.349260	24.908663	11.368871	0.162449	-0.160110	3.066933	0.000000	-0.017501	0.000000	0.000012	-0.000000	0.000000	0.000000
31.682593	24.804942	11.485635	0.148713	-0.190181	3.061099	0.000000	-0.017501	0.000000	0.000012	-0.000000	0.000000	0.000000
32.017177	24.710041	11.622997	0.134927	-0.220365	3.055244	0.000000	-0.017501	0.000000	0.000012	-0.000000	0.000000	0.000000
32.314499	24.633450	11.762011	0.058319	-0.216459	3.050040	0.000000	-0.009533	0.000000	0.000012	-0.000000	0.000000	0.000000
32.863559	24.147376	12.238957	0.821724	-0.657328	3.019921	0.000000	-0.100019	0.000000	0.000011	-0.000001	0.000000	0.000000
33.412619	22.850058	13.222746	1.527087	-1.145017	2.940534	0.000000	-0.188732	0.000000	0.000011	-0.000001	0.000000	0.000000
33.961679	20.833131	14.783450	2.124584	-1.714263	2.813287	0.000000	-0.274097	0.000000	0.000010	-0.000001	0.000000	0.000000
34.510739	18.239062	17.032236	2.572011	-2.405612	2.640437	0.000000	-0.354600	0.000000	0.000010	-0.000002	0.000000	0.000000
34.956699	16.222100	19.043674	1.966934	-2.085910	2.498644	0.000000	-0.281663	0.000000	0.000009	-0.000001	0.000000	0.000000
35.397659	14.718105	20.707112	1.456732	-1.672046	2.389825	0.000000	-0.212361	0.000000	0.000008	-0.000001	0.000000	0.000000
35.838619	13.633131	21.970486	1.013084	-1.182105	2.311004	0.000000	-0.145479	0.000000	0.000008	-0.000001	0.000000	0.000000
36.279579	12.917608	22.776313	0.615720	-0.638380	2.261282	0.000000	-0.080253	0.000000	0.000008	-0.000001	0.000000	0.000000
36.721789	12.538152	23.088235	0.277127	-0.122278	2.240067	0.000000	-0.021435	0.000000	0.000007	-0.000001	0.000000	0.000000
37.019112	12.380952	23.164833	0.251592	-0.135348	2.233694	0.000000	-0.021435	0.000000	0.000007	-0.000001	0.000000	0.000000
37.352445	12.222766	23.259950	0.222965	-0.150001	2.226549	0.000000	-0.021435	0.000000	0.000007	-0.000001	0.000000	0.000000
37.685779	12.083665	23.364835	0.194338	-0.164654	2.219404	0.000000	-0.021435	0.000000	0.000007	-0.000001	0.000000	0.000000
38.020362	11.963235	23.479937	0.165603	-0.179363	2.212233	0.000000	-0.021435	0.000000	0.000007	-0.000001	0.000000	0.000000
38.317684	11.872352	23.590480	0.169181	-0.250280	2.205860	0.000000	-0.026844	0.000000	0.000006	-0.000001	0.000000	0.000000
38.758644	11.874527	23.549919	-0.174135	0.341915	2.207952	0.000000	0.036339	0.000000	0.000006	-0.000000	0.000000	0.000000
39.199604	12.181831	22.991979	-0.525406	0.918553	2.237969	0.000000	0.099936	0.000000	0.000006	-0.000000	0.000000	0.000000
39.640564	12.808302	21.942048	-0.900682	1.453398	2.296254	0.000000	0.164671	0.000000	0.000006	-0.000000	0.000000	0.000000
40.081524	13.782563	20.447896	-1.317108	1.922115	2.383471	0.000000	0.231281	0.000000	0.000006	0.000000	0.000000	0.000000
40.527484	15.166696	18.554936	-1.797534	2.304658	2.502084	0.000000	0.300931	0.000000	0.000006	0.000000	0.000000	0.000000
41.076544	16.933074	16.427749	-1.400515	1.592444	2.646781	0.000000	0.225367	0.000000	0.000006	0.000000	0.000000	0.000000
41.625604	18.206240	15.016158	-0.904569	0.993655	2.748829	0.000000	0.145805	0.000000	0.000006	-0.000000	0.000000	0.000000
42.174664	18.896265	14.219618	-0.344730	0.465642	2.806418	0.000000	0.063657	0.000000	0.000006	-0.000000	0.000000	0.000000
42.723724	18.954409	13.981394	0.239459	-0.029204	2.818526	0.000000	-0.019620	0.000000	0.000006	-0.000001	0.000000	0.000000
43.022297	18.845862	13.983396	0.173617	-0.014031	2.814866	0.000000	-0.012256	0.000000	0.000006	-0.000001	0.000000	0.000000
43.502297	18.691783	14.013346	0.147379	-0.048364	2.808984	0.000000	-0.012256	0.000000	0.000005	-0.000001	0.000000	0.000000
43.982297	18.562893	14.076256	0.121142	-0.082698	2.803101	0.000000	-0.012256	0.000000	0.000005	-0.000001	0.000000	0.000000
44.462297	18.459191	14.172125	0.094904	-0.117031	2.797219	0.000000	-0.012256	0.000000	0.000005	-0.000001	0.000000	0.000000
44.942297	18.380677	14.300955	0.068667	-0.151364	2.791336	0.000000	-0.012256	0.000000	0.000004	-0.000001	0.000000	0.000000
45.423547	18.327472	14.463029	-0.048443	-0.114128	2.785455	0.000000	0.001545	0.000000	0.000004	-0.000001	0.000000	0.000000
45.720870	18.361113	14.537086	-0.112677	-0.096972	2.785915	0.000000	0.008824	0.000000	0.000004	-0.000001	0.000000	0.000000
46.269930	18.175679	14.924750	0.448408	-0.613246	2.768187	0.000000	-0.073306	0.000000	0.000004	-0.000001	0.000000	0.000000
46.818990	17.387932	15.899862	0.977819	-1.173201	2.705656	0.000000	-0.154135	0.000000	0.000003	-0.000001	0.000000	0.000000
47.368050	16.053514	17.531875	1.438162	-1.816721	2.599431	0.000000	-0.232230	0.000000	0.000003	-0.000001	0.000000	0.000000
47.917110	14.266682	19.937035	1.796920	-2.589641	2.451397	0.000000	-0.306206	0.000000	0.000002	-0.000001	0.000000	0.000000
48.363070	12.876151	22.075454	1.332189	-2.185292	2.330134	0.000000	-0.237906	0.000000	0.000002	-0.000001	0.000000	0.000000
48.804030	11.881468	23.787637	0.932090	-1.682785	2.239687	0.000000	-0.172712	0.000000	0.000002	-0.000001	0.000000	0.000000
49.244990	11.219600	25.021065	0.574576	-1.103714	2.177528	0.000000	-0.109485	0.000000	0.000001	-0.000001	0.000000	0.000000
49.685950	10.860307	25.719619	0.243312	-0.474424	2.142948	0.000000	-0.047505	0.000000	0.000001	-0.000001	0.000000	0.000000
50.128160	10.787301	25.851232	-0.050498	0.113008	2.135565	0.000000	0.008697	0.000000	0.000001	-0.000001	0.000000	0.000000
50.425482	10.825545	25.787496	-0.078131	0.101360	2.138150	0.000000	0.008697	0.000000	0.000000	-0.000001	0.000000	0.000000
50.758816	10.887958	25.724275	-0.109110	0.088301	2.141050	0.000000	0.008697	0.000000	0.000000	-0.000001	0.000000	0.000000
51.092149	10.971025	25.669761	-0.140089	0.075242	2.143949	0.000000	0.008697	0.000000	-0.000000	-0.000001	0.000000	0.000000
51.426732	11.074947	25.624317	-0.081338	-0.145743	2.146837	0.000000	-0.008720	0.000000	-0.000000	-0.000001	0.000000	0.000000
51.724055	11.131349	25.714506	-0.081064	-0.220653	2.144245	0.000000	-0.013978	0.000000	-0.000001	-0.000001	0.000000	0.000000
52.165015	11.348174	25.623028	-0.412512	0.427316	2.151669	0.000000	0.047685	0.000000	-0.000001	-0.000001	0.000000	0.000000
52.605975	11.864484	24.966516	-0.762807	1.055842	2.186379	0.000000	0.109891	0.000000	-0.000001	-0.000001	0.000000	0.000000
53.046935	12.703868	23.774842	-1.147953	1.636328	2.248769	0.000000	0.173349	0.000000	-0.000002	-0.000001	0.000000	0.000000
53.487895	13.904676	22.102226	-1.585545	2.142363	2.339549	0.000000	0.238781	0.000000	-0.000002	-0.000001	0.000000	0.000000
53.933855	15.542352	19.999761	-2.099807	2.552258	2.461259	0.000000	0.307332	0.000000	-0.000002	-0.000001	0.000000	0.000000
54.482915	17.650801	17.633973	-1.717569	1.781973	2.609823	0.000000	0.233028	0.000000	-0.000003	-0.000001	0.000000	0.000000
55.031975	19.269999	16.039805	-1.214010	1.138614	2.716393	0.000000	0.154590	0.000000	-0.000003	-0.000001	0.000000	0.000000
55.581035	20.285573	15.103710	-0.624700	0.576356	2.779079	0.000000	0.073411	0.000000	-0.000004	-0.000001	0.000000	0.000000
56.130095	20.625787	14.759010	0.008736	0.055150	2.796769	0.000000	-0.009071	0.000000	-0.000004	-0.000001	0.000000	0.000000
56.428668	20.657084	14.709142	-0.059662	0.073307	2.796242	0.000000	-0.001763	0.000000	-0.000004	-0.000001	0.000000	0.000000
56.762001	20.702257	14.667865	-0.075856	0.050523	2.795655	0.000000	-0.001763	0.000000	-0.000004	-0.000001	0.000000	0.000000
57.095334	20.758225	14.641777	-0.092050	0.027740	2.795067	0.000000	-0.001763	0.000000	-0.000005	-0.000001	0.000000	0.000000
57.429918	20.825261	14.630866	-0.108305	0.004871	2.794478	0.000000	-0.001763	0.000000	-0.000005	-0.000001	0.000000	0.000000
57.727240	20.893959	14.634012	-0.177344	0.022786	2.793954	0.000000	0.005537	0.000000	-0.000005	-0.000001	0.000000	0.000000
58.276300	20.732236	14.890014	0.470144	-0.491793	2.774355	0.000000	-0.076822	0.000000	-0.000005	-0.000000	0.000000	0.000000
58.825360	19.873603	15.726889	1.084423	-1.041401	2.709844	0.000000	-0.157819	0.000000	-0.000005	-0.000000	0.000000	0.000000
59.374420	18.378709	17.204247	1.622103	-1.665186	2.601565	0.000000	-0.236017	0.000000	-0.000005	-0.000000	0.000000	0.000000
59.923480	16.353145	19.427316	2.045207	-2.407578	2.451438	0.000000	-0.310028	0.000000	-0.000005	0.000000	0.000000	0.000000
60.369440	14.767734	21.403215	1.522435	-2.004386	2.328468	0.000000	-0.241749	0.000000	-0.000005	0.000000	0.000000	0.000000
60.810400	13.627390	22.959444	1.073425	-1.511369	2.236314	0.000000	-0.176620	0.000000	-0.000005	-0.000000	0.000000	0.000000
61.251360	12.859996	24.048772	0.673457	-0.949586	2.172408	0.000000	-0.113502	0.000000	-0.000005	-0.000000	0.000000	0.000000
61.692320	12.430493	24.621635	0.304257	-0.344598	2.136024	0.000000	-0.051678	0.000000	-0.000006	-0.000000	0.000000	0.000000
62.134530	12.319310	24.651430	-0.020932	0.215559	2.126752	0.000000	0.004342	0.000000	-0.000006	-0.000001	0.000000	0.000000
62.431853	12.338936	24.527002	-0.045077	0.202938	2.128043	0.000000	0.004342	0.000000	-0.000006	-0.000001	0.000000	0.000000
62.765186	12.378010	24.396427	-0.072147	0.188787	2.129491	0.000000	0.004342	0.000000	-0.000006	-0.000001	0.000000	0.000000
63.098520	12.435132	24.275285	-0.099217	0.174637	2.130939	0.000000	0.004342	0.000000	-0.000006	-0.000001	0.000000	0.000000
63.433103	12.510615	24.163176	-0.126388	0.160434	2.132392	0.000000	0.004342	0.000000	-0.000006	-0.000001	0.000000	0.000000
63.730426	12.592950	24.071527	-0.119649	0.088778	2.133683	0.000000	-0.000890	0.000000	-0.000007	-0.000001	0.000000	0.000000
64.171386	12.858828	23.728128	-0.485591	0.687011	2.146830	0.000000	0.060574	0.000000	-0.000007	-0.000001	0.000000	0.000000
64.612346	13.455964	22.868957	-0.873719	1.253985	2.187206	0.000000	0.122729	0.000000	-0.000007	-0.000001	0.000000	0.000000
65.053306	14.411639	21.533106	-1.301764	1.763904	2.255272	0.000000	0.186281	0.000000	-0.000008	-0.000001	0.000000	0.000000
65.494266	15.769515	19.781353	-1.789283	2.193567	2.351803	0.000000	0.251955	0.000000	-0.000008	-0.000001	0.000000	0.000000
65.940226	17.614793	17.668614	-2.363241	2.524179	2.479471	0.000000	0.320901	0.000000	-0.000009	-0.000001	0.000000	0.000000
66.489286	19.980242	15.305100	-1.919438	1.805886	2.635301	0.000000	0.245889	0.000000	-0.000010	-0.000001	0.000000	0.000000
67.038346	21.780556	13.655518	-1.340056	1.216223	2.748686	0.000000	0.166515	0.000000	-0.000010	-0.000001	0.000000	0.000000
67.587406	22.888570	12.602372	-0.666019	0.713189	2.817614	0.000000	0.084188	0.000000	-0.000011	-0.000001	0.000000	0.000000
68.136466	23.226018	12.070648	0.055063	0.260953	2.840861	0.000000	0.000368	0.000000	-0.000011	-0.000000	0.000000	0.000000
68.435038	23.233218	11.904004	-0.018484	0.265643	2.843188	0.000000	0.007791	0.000000	-0.000011	-0.000000	0.000000	0.000000
68.768372	23.250324	11.736901	-0.032836	0.235665	2.845785	0.000000	0.007791	0.000000	-0.000011	-0.000000	0.000000	0.000000
69.101705	23.276999	11.589784	-0.047188	0.205687	2.848382	0.000000	0.007791	0.000000	-0.000011	-0.000000	0.000000	0.000000
69.436288	23.313395	11.462212	-0.061594	0.175597	2.850989	0.000000	0.007791	0.000000	-0.000011	-0.000000	0.000000	0.000000
69.733611	23.353828	11.365745	-0.135421	0.178557	2.853306	0.000000	0.015247	0.000000	-0.000011	-0.000000	0.000000	0.000000
70.282671	23.101448	11.397267	0.592357	-0.236308	2.838496	0.000000	-0.069113	0.000000	-0.000011	0.000000	0.000000	0.000000
