#ParticleID	Turn	x[m]	xp	y[m]	yp	z[m]	dE[GeV]# s	beta_x	beta_y	alpha_x	alpha_y	D_x	D_y	D_px	D_py	orbit_x	orbit_px	orbit_y	orbit_py
0.300000	11.825209	24.972389	-0.012453	-0.027650	2.618164	0.000000	-0.000008	0.000000	-0.000000	0.000001	0.000000	0.000000
0.601250	11.840388	24.992686	-0.037933	-0.039723	2.618161	0.000000	-0.000008	0.000000	-0.000000	0.000001	0.000000	0.000000
0.898573	11.870421	25.019849	-0.033970	-0.112994	2.618159	0.000000	-0.006428	0.000000	-0.000000	0.000001	0.000000	0.000000
1.339533	12.052650	24.841989	-0.380854	0.514807	2.631618	0.000000	0.067530	0.000000	0.000000	0.000001	0.000000	0.000000
1.780493	12.547292	24.118711	-0.745139	1.119186	2.677827	0.000000	0.142258	0.000000	0.000000	0.000001	0.000000	0.000000
2.221453	13.376944	22.882924	-1.143467	1.672642	2.757315	0.000000	0.218605	0.000000	0.000001	0.000001	0.000000	0.000000
2.662413	14.579511	21.190856	-1.594036	2.149994	2.870984	0.000000	0.297443	0.000000	0.000001	0.000001	0.000000	0.000000
3.108373	16.230721	19.094677	-2.121729	2.530654	3.021993	0.000000	0.380158	0.000000	0.000001	0.000001	0.000000	0.000000
3.657433	18.348089	16.740433	-1.711794	1.782427	3.205450	0.000000	0.287120	0.000000	0.000001	0.000001	0.000000	0.000000
4.206493	19.945835	15.133712	-1.180945	1.161159	3.336349	0.000000	0.188989	0.000000	0.000002	0.000001	0.000000	0.000000
4.755553	20.911101	14.160069	-0.566681	0.622598	3.412367	0.000000	0.087506	0.000000	0.000002	0.000000	0.000000	0.000000
5.304613	21.175706	13.750155	0.087611	0.128383	3.432155	0.000000	-0.015529	0.000000	0.000002	0.000000	0.000000	0.000000
5.603185	21.160642	13.658697	0.018169	0.142009	3.430196	0.000000	-0.006561	0.000000	0.000002	0.000000	0.000000	0.000000
5.936519	21.153782	13.572323	0.002411	0.117112	3.428009	0.000000	-0.006561	0.000000	0.000002	0.000000	0.000000	0.000000
6.269852	21.157427	13.502547	-0.013346	0.092215	3.425822	0.000000	-0.006561	0.000000	0.000003	0.000000	0.000000	0.000000
6.604435	21.171650	13.449201	-0.029163	0.067225	3.423626	0.000000	-0.006561	0.000000	0.000003	0.000000	0.000000	0.000000
6.901758	21.193170	13.415829	-0.098591	0.080071	3.421676	0.000000	0.002379	0.000000	0.000003	0.000000	0.000000	0.000000
7.450818	20.940190	13.588504	0.556616	-0.396420	3.394780	0.000000	-0.100202	0.000000	0.000003	0.000000	0.000000	0.000000
7.999878	19.985144	14.296766	1.172506	-0.901147	3.311968	0.000000	-0.201004	0.000000	0.000003	0.000000	0.000000	0.000000
8.548938	18.395494	15.591061	1.705577	-1.470061	3.174708	0.000000	-0.298242	0.000000	0.000003	0.000000	0.000000	0.000000
9.097998	16.283523	17.563581	2.118174	-2.143684	2.985434	0.000000	-0.390190	0.000000	0.000003	-0.000000	0.000000	0.000000
9.543958	14.635717	19.321239	1.589927	-1.780951	2.829732	0.000000	-0.308484	0.000000	0.000003	0.000000	0.000000	0.000000
9.984918	13.437088	20.702010	1.138613	-1.338417	2.710949	0.000000	-0.230776	0.000000	0.000003	0.000000	0.000000	0.000000
10.425878	12.612124	21.664055	0.739320	-0.834986	2.625820	0.000000	-0.155696	0.000000	0.000003	0.000000	0.000000	0.000000
10.866838	12.123136	22.163602	0.373804	-0.293564	2.573377	0.000000	-0.082390	0.000000	0.000004	0.000000	0.000000	0.000000
11.309048	11.947646	22.177404	0.054560	0.206771	2.553000	0.000000	-0.016283	0.000000	0.000004	0.000000	0.000000	0.000000
11.606371	11.922623	22.058606	0.029600	0.192791	2.548159	0.000000	-0.016283	0.000000	0.000004	0.000000	0.000000	0.000000
12.086371	11.913549	21.884359	-0.010695	0.170222	2.540343	0.000000	-0.016283	0.000000	0.000004	0.000000	0.000000	0.000000
12.566371	11.943157	21.731779	-0.050989	0.147653	2.532527	0.000000	-0.016283	0.000000	0.000004	0.000000	0.000000	0.000000
13.046371	12.011448	21.600865	-0.091284	0.125084	2.524711	0.000000	-0.016283	0.000000	0.000005	0.000000	0.000000	0.000000
13.526371	12.118423	21.491617	-0.131579	0.102515	2.516896	0.000000	-0.016283	0.000000	0.000005	0.000000	0.000000	0.000000
14.007621	12.264510	21.403836	-0.171979	0.079887	2.509059	0.000000	-0.016283	0.000000	0.000005	0.000000	0.000000	0.000000
14.304943	12.374197	21.360488	-0.166595	0.013528	2.504218	0.000000	-0.022423	0.000000	0.000005	0.000000	0.000000	0.000000
14.745903	12.679784	21.114747	-0.529037	0.541638	2.509961	0.000000	0.048498	0.000000	0.000005	0.000001	0.000000	0.000000
15.186863	13.314425	20.412384	-0.915649	1.045105	2.547070	0.000000	0.119972	0.000000	0.000006	0.000001	0.000000	0.000000
15.627823	14.307116	19.285356	-1.344095	1.501019	2.615967	0.000000	0.192812	0.000000	0.000006	0.000001	0.000000	0.000000
16.068783	15.703209	17.784943	-1.833948	1.888639	2.717436	0.000000	0.267849	0.000000	0.000006	0.000001	0.000000	0.000000
16.514743	17.590144	15.957908	-2.412347	2.191075	2.854329	0.000000	0.346398	0.000000	0.000007	0.000001	0.000000	0.000000
17.063803	20.013470	13.917764	-1.975116	1.546562	3.020792	0.000000	0.259068	0.000000	0.000007	0.000001	0.000000	0.000000
17.612863	21.876747	12.521091	-1.398372	1.012207	3.137972	0.000000	0.167143	0.000000	0.000008	0.000001	0.000000	0.000000
18.161923	23.048364	11.668407	-0.722854	0.549949	3.203789	0.000000	0.072253	0.000000	0.000008	0.000000	0.000000	0.000000
18.710983	23.445561	11.298978	0.003723	0.126862	3.217078	0.000000	-0.023919	0.000000	0.000008	0.000000	0.000000	0.000000
19.009556	23.483731	11.213677	-0.070309	0.129311	3.212446	0.000000	-0.015514	0.000000	0.000008	0.000000	0.000000	0.000000
19.342889	23.535358	11.137544	-0.084573	0.099089	3.207274	0.000000	-0.015514	0.000000	0.000008	0.000000	0.000000	0.000000
19.676223	23.596495	11.081559	-0.098838	0.068866	3.202103	0.000000	-0.015514	0.000000	0.000008	0.000000	0.000000	0.000000
20.010806	23.667718	11.045489	-0.230418	0.093256	3.196932	0.000000	0.000326	0.000000	0.000009	0.000000	0.000000	0.000000
20.308129	23.808668	10.998108	-0.305851	0.094838	3.197029	0.000000	0.008678	0.000000	0.000009	0.000000	0.000000	0.000000
20.857189	23.733896	11.116395	0.441227	-0.311545	3.175575	0.000000	-0.086711	0.000000	0.000009	-0.000000	0.000000	0.000000
21.406249	22.851072	11.690433	1.157138	-0.740119	3.102092	0.000000	-0.180563	0.000000	0.000009	-0.000000	0.000000	0.000000
21.955309	21.222553	12.761111	1.791315	-1.221411	2.977884	0.000000	-0.271212	0.000000	0.000008	-0.000001	0.000000	0.000000
22.504369	18.963371	14.404690	2.298963	-1.789700	2.805153	0.000000	-0.357050	0.000000	0.000008	-0.000001	0.000000	0.000000
22.950329	17.183035	15.880208	1.707274	-1.504973	2.663217	0.000000	-0.279842	0.000000	0.000008	-0.000001	0.000000	0.000000
23.391289	15.906643	17.056580	1.198282	-1.152627	2.556139	0.000000	-0.206276	0.000000	0.000007	-0.000000	0.000000	0.000000
23.832249	15.053395	17.897810	0.744037	-0.747838	2.480954	0.000000	-0.135059	0.000000	0.000007	-0.000000	0.000000	0.000000
24.273209	14.584308	18.365624	0.323784	-0.309023	2.436803	0.000000	-0.065380	0.000000	0.000007	-0.000000	0.000000	0.000000
24.715418	14.478067	18.438489	-0.046260	0.098570	2.423182	0.000000	-0.002388	0.000000	0.000007	0.000000	0.000000	0.000000
25.012741	14.511695	18.384715	-0.066841	0.082289	2.422472	0.000000	-0.002388	0.000000	0.000007	0.000000	0.000000	0.000000
25.346075	14.563946	18.335941	-0.089913	0.064035	2.421676	0.000000	-0.002388	0.000000	0.000007	0.000000	0.000000	0.000000
25.679408	14.631579	18.299336	-0.112986	0.045781	2.420879	0.000000	-0.002388	0.000000	0.000007	0.000000	0.000000	0.000000
26.013991	14.714635	18.275202	-0.016770	-0.120799	2.420056	0.000000	-0.022021	0.000000	0.000007	0.000000	0.000000	0.000000
26.311314	14.730617	18.351942	-0.000860	-0.182306	2.413509	0.000000	-0.027939	0.000000	0.000007	0.000000	0.000000	0.000000
26.752274	14.912882	18.313656	-0.414044	0.268800	2.416298	0.000000	0.040606	0.000000	0.000007	0.000000	0.000000	0.000000
27.193234	15.466474	17.881424	-0.846144	0.707676	2.449387	0.000000	0.109613	0.000000	0.000007	0.000000	0.000000	0.000000
27.634194	16.416686	17.074913	-1.316902	1.114354	2.513151	0.000000	0.179869	0.000000	0.000008	0.000001	0.000000	0.000000
28.075154	17.806930	15.930817	-1.847825	1.470329	2.608317	0.000000	0.252174	0.000000	0.000008	0.000001	0.000000	0.000000
28.521114	19.724880	14.483961	-2.468130	1.760319	2.737572	0.000000	0.327793	0.000000	0.000008	0.000001	0.000000	0.000000
29.070174	22.162605	12.871772	-1.945402	1.193285	2.894886	0.000000	0.244395	0.000000	0.000009	0.000001	0.000000	0.000000
29.619234	23.946995	11.832207	-1.285260	0.711246	3.005150	0.000000	0.156661	0.000000	0.000009	0.000000	0.000000	0.000000
30.168294	24.952011	11.291219	-0.534333	0.279867	3.066408	0.000000	0.066149	0.000000	0.000009	0.000000	0.000000	0.000000
30.717354	25.106662	11.210277	0.254336	-0.131577	3.077573	0.000000	-0.025537	0.000000	0.000009	-0.000000	0.000000	0.000000
31.015927	24.997633	11.279394	0.176426	-0.129201	3.072349	0.000000	-0.017497	0.000000	0.000009	-0.000000	0.000000	0.000000
31.349260	24.884599	11.375543	0.162676	-0.159247	3.066517	0.000000	-0.017497	0.000000	0.000009	-0.000000	0.000000	0.000000
31.682593	24.780731	11.491723	0.148927	-0.189293	3.060685	0.000000	-0.017497	0.000000	0.000009	-0.000000	0.000000	0.000000
32.017177	24.685692	11.628482	0.135125	-0.219451	3.054831	0.000000	-0.017497	0.000000	0.000009	-0.000000	0.000000	0.000000
32.314499	24.608987	11.766946	0.058567	-0.215509	3.049628	0.000000	-0.009529	0.000000	0.000009	-0.000000	0.000000	0.000000
32.863559	24.123088	12.242902	0.821159	-0.656465	3.019514	0.000000	-0.100003	0.000000	0.000009	-0.000000	0.000000	0.000000
33.412619	22.826821	13.225762	1.525748	-1.144179	2.940140	0.000000	-0.188702	0.000000	0.000009	-0.000001	0.000000	0.000000
33.961679	20.811748	14.785533	2.122567	-1.713391	2.812912	0.000000	-0.274055	0.000000	0.000008	-0.000001	0.000000	0.000000
34.510739	18.220204	17.033314	2.569457	-2.404644	2.640089	0.000000	-0.354546	0.000000	0.000008	-0.000001	0.000000	0.000000
34.956699	16.205262	19.043823	1.964944	-2.084804	2.498317	0.000000	-0.281618	0.000000	0.000007	-0.000001	0.000000	0.000000
35.397659	14.702810	20.706244	1.455210	-1.670854	2.389517	0.000000	-0.212325	0.000000	0.000007	-0.000001	0.000000	0.000000
35.838619	13.618998	21.968549	1.011961	-1.180882	2.310710	0.000000	-0.145450	0.000000	0.000006	-0.000001	0.000000	0.000000
36.279579	12.904309	22.773304	0.614945	-0.637181	2.260999	0.000000	-0.080232	0.000000	0.000006	-0.000001	0.000000	0.000000
36.721789	12.525400	23.084197	0.276632	-0.121148	2.239791	0.000000	-0.021420	0.000000	0.000006	-0.000000	0.000000	0.000000
37.019112	12.368499	23.160123	0.251078	-0.134217	2.233423	0.000000	-0.021420	0.000000	0.000006	-0.000000	0.000000	0.000000
37.352445	12.210664	23.254485	0.222429	-0.148869	2.226283	0.000000	-0.021420	0.000000	0.000006	-0.000000	0.000000	0.000000
37.685779	12.071927	23.358615	0.193780	-0.163521	2.219143	0.000000	-0.021420	0.000000	0.000005	-0.000000	0.000000	0.000000
38.020362	11.951878	23.472959	0.165023	-0.178228	2.211977	0.000000	-0.021420	0.000000	0.000005	-0.000000	0.000000	0.000000
38.317684	11.861345	23.582827	0.168555	-0.249126	2.205608	0.000000	-0.026828	0.000000	0.000005	-0.000000	0.000000	0.000000
38.758644	11.863964	23.541340	-0.174516	0.342850	2.207705	0.000000	0.036348	0.000000	0.000005	-0.000000	0.000000	0.000000
39.199604	12.171503	22.982689	-0.525561	0.919228	2.237725	0.000000	0.099939	0.000000	0.000005	-0.000000	0.000000	0.000000
39.640564	12.798014	21.932290	-0.900618	1.453781	2.296010	0.000000	0.164667	0.000000	0.000005	-0.000000	0.000000	0.000000
40.081524	13.772121	20.437936	-1.316821	1.922188	2.383224	0.000000	0.231271	0.000000	0.000005	0.000000	0.000000	0.000000
40.527484	15.155894	18.545052	-1.797011	2.304417	2.501831	0.000000	0.300915	0.000000	0.000005	0.000000	0.000000	0.000000
41.076544	16.921916	16.417994	-1.400395	1.592448	2.646522	0.000000	0.225359	0.000000	0.000005	0.000000	0.000000	0.000000
41.625604	18.195178	15.006263	-0.904863	0.993906	2.748568	0.000000	0.145805	0.000000	0.000005	-0.000000	0.000000	0.000000
42.174664	18.885744	14.209304	-0.345416	0.466158	2.806159	0.000000	0.063666	0.000000	0.000005	-0.000000	0.000000	0.000000
42.723724	18.944835	13.970352	0.238430	-0.028386	2.818273	0.000000	-0.019603	0.000000	0.000005	-0.000000	0.000000	0.000000
43.022297	18.836888	13.971888	0.172610	-0.013259	2.814619	0.000000	-0.012239	0.000000	0.000005	-0.000000	0.000000	0.000000
43.502297	18.683778	14.001110	0.146369	-0.047620	2.808744	0.000000	-0.012239	0.000000	0.000005	-0.000000	0.000000	0.000000
43.982297	18.555860	14.063318	0.120128	-0.081980	2.802870	0.000000	-0.012239	0.000000	0.000004	-0.000000	0.000000	0.000000
44.462297	18.453133	14.158512	0.093887	-0.116341	2.796995	0.000000	-0.012239	0.000000	0.000004	-0.000000	0.000000	0.000000
44.942297	18.375597	14.286693	0.067646	-0.150702	2.791120	0.000000	-0.012239	0.000000	0.000004	-0.000000	0.000000	0.000000
45.423547	18.323377	14.448144	-0.049448	-0.113567	2.785247	0.000000	0.001560	0.000000	0.000004	-0.000000	0.000000	0.000000
45.720870	18.357617	14.521873	-0.113678	-0.096469	2.785711	0.000000	0.008839	0.000000	0.000004	-0.000000	0.000000	0.000000
46.269930	18.173338	14.908728	0.447318	-0.612267	2.767993	0.000000	-0.073284	0.000000	0.000003	-0.000000	0.000000	0.000000
46.818990	17.386801	15.882471	0.976717	-1.171674	2.705476	0.000000	-0.154107	0.000000	0.000003	-0.000001	0.000000	0.000000
47.368050	16.053563	17.512460	1.437126	-1.814538	2.599267	0.000000	-0.232197	0.000000	0.000003	-0.000001	0.000000	0.000000
47.917110	14.267799	19.914794	1.796024	-2.586647	2.451253	0.000000	-0.306168	0.000000	0.000002	-0.000001	0.000000	0.000000
48.363070	12.878037	22.050750	1.331354	-2.182788	2.330006	0.000000	-0.237871	0.000000	0.000002	-0.000001	0.000000	0.000000
48.804030	11.884077	23.760984	0.931278	-1.680885	2.239574	0.000000	-0.172680	0.000000	0.000002	-0.000001	0.000000	0.000000
49.244990	11.222929	24.993035	0.573749	-1.102503	2.177428	0.000000	-0.109456	0.000000	0.000001	-0.000001	0.000000	0.000000
49.685950	10.864385	25.690846	0.242434	-0.473957	2.142860	0.000000	-0.047479	0.000000	0.000001	-0.000001	0.000000	0.000000
50.128160	10.792193	25.822386	-0.051457	0.112779	2.135487	0.000000	0.008721	0.000000	0.000001	-0.000001	0.000000	0.000000
50.425482	10.831005	25.758789	-0.079080	0.101119	2.138080	0.000000	0.008721	0.000000	0.000001	-0.000001	0.000000	0.000000
50.758816	10.894048	25.695734	-0.110048	0.088046	2.140987	0.000000	0.008721	0.000000	0.000001	-0.000001	0.000000	0.000000
51.092149	10.977736	25.641394	-0.141016	0.074973	2.143895	0.000000	0.008721	0.000000	0.000000	-0.000001	0.000000	0.000000
51.426732	11.082275	25.596135	-0.082194	-0.145797	2.146791	0.000000	-0.008695	0.000000	0.000000	-0.000001	0.000000	0.000000
51.724055	11.139182	25.686359	-0.081888	-0.220651	2.144206	0.000000	-0.013953	0.000000	0.000000	-0.000001	0.000000	0.000000
52.165015	11.356818	25.595208	-0.413536	0.426575	2.151641	0.000000	0.047709	0.000000	-0.000000	-0.000001	0.000000	0.000000
52.605975	11.874136	24.939666	-0.764077	1.054392	2.186361	0.000000	0.109915	0.000000	-0.000000	-0.000001	0.000000	0.000000
53.046935	12.714769	23.749561	-1.149527	1.634235	2.248761	0.000000	0.173372	0.000000	-0.000001	-0.000001	0.000000	0.000000
53.487895	13.917125	22.079040	-1.587495	2.139722	2.339552	0.000000	0.238804	0.000000	-0.000001	-0.000001	0.000000	0.000000
53.933855	15.556742	19.979132	-2.102227	2.549188	2.461272	0.000000	0.307355	0.000000	-0.000001	-0.000001	0.000000	0.000000
54.482915	17.667662	17.616268	-1.719623	1.779686	2.609848	0.000000	0.233050	0.000000	-0.000002	-0.000001	0.000000	0.000000
55.031975	19.288847	16.024258	-1.215553	1.136948	2.716430	0.000000	0.154612	0.000000	-0.000002	-0.000001	0.000000	0.000000
55.581035	20.305782	15.089707	-0.625623	0.575192	2.779127	0.000000	0.073431	0.000000	-0.000002	-0.000000	0.000000	0.000000
56.130095	20.646639	14.746049	0.008498	0.054406	2.796827	0.000000	-0.009052	0.000000	-0.000002	-0.000000	0.000000	0.000000
56.428668	20.678105	14.696650	-0.059940	0.072513	2.796307	0.000000	-0.001745	0.000000	-0.000003	-0.000000	0.000000	0.000000
56.762001	20.723458	14.655909	-0.076118	0.049713	2.795725	0.000000	-0.001745	0.000000	-0.000003	-0.000000	0.000000	0.000000
57.095334	20.779596	14.630367	-0.092296	0.026912	2.795144	0.000000	-0.001745	0.000000	-0.000003	-0.000000	0.000000	0.000000
57.429918	20.846791	14.620015	-0.108535	0.004027	2.794560	0.000000	-0.001745	0.000000	-0.000003	-0.000000	0.000000	0.000000
57.727240	20.915621	14.623667	-0.177615	0.021900	2.794041	0.000000	0.005556	0.000000	-0.000003	-0.000000	0.000000	0.000000
58.276300	20.753797	14.880484	0.470600	-0.492399	2.774452	0.000000	-0.076807	0.000000	-0.000003	-0.000000	0.000000	0.000000
58.825360	19.894277	15.717891	1.085574	-1.041770	2.709949	0.000000	-0.157807	0.000000	-0.000003	-0.000000	0.000000	0.000000
59.374420	18.397772	17.195536	1.623868	-1.665343	2.601676	0.000000	-0.236008	0.000000	-0.000004	-0.000000	0.000000	0.000000
59.923480	16.369988	19.418669	2.047461	-2.407536	2.451553	0.000000	-0.310023	0.000000	-0.000004	0.000000	0.000000	0.000000
60.369440	14.782793	21.394660	1.524194	-2.004632	2.328585	0.000000	-0.241740	0.000000	-0.000004	-0.000000	0.000000	0.000000
60.810400	13.641084	22.951229	1.074774	-1.511891	2.236435	0.000000	-0.176609	0.000000	-0.000004	-0.000000	0.000000	0.000000
61.251360	12.872659	24.041131	0.674456	-0.950360	2.172536	0.000000	-0.113488	0.000000	-0.000004	-0.000000	0.000000	0.000000
61.692320	12.442411	24.614775	0.304953	-0.345588	2.136159	0.000000	-0.051660	0.000000	-0.000004	-0.000000	0.000000	0.000000
62.134530	12.330735	24.645525	-0.020480	0.214413	2.126895	0.000000	0.004363	0.000000	-0.000004	-0.000000	0.000000	0.000000
62.431853	12.350085	24.521777	-0.044603	0.201794	2.128193	0.000000	0.004363	0.000000	-0.000004	-0.000000	0.000000	0.000000
62.765186	12.388835	24.391964	-0.071647	0.187647	2.129647	0.000000	0.004363	0.000000	-0.000004	-0.000000	0.000000	0.000000
63.098520	12.445615	24.271581	-0.098691	0.173500	2.131102	0.000000	0.004363	0.000000	-0.000004	-0.000000	0.000000	0.000000
63.433103	12.520738	24.160232	-0.125836	0.159300	2.132562	0.000000	0.004363	0.000000	-0.000005	-0.000000	0.000000	0.000000
63.730426	12.602738	24.069256	-0.119052	0.087654	2.133860	0.000000	-0.000870	0.000000	-0.000005	-0.000000	0.000000	0.000000
64.171386	12.868182	23.726866	-0.485202	0.685856	2.147017	0.000000	0.060600	0.000000	-0.000005	-0.000001	0.000000	0.000000
64.612346	13.465060	22.868708	-0.873519	1.252852	2.187405	0.000000	0.122759	0.000000	-0.000005	-0.000001	0.000000	0.000000
65.053306	14.420639	21.533827	-1.301746	1.762844	2.255486	0.000000	0.186317	0.000000	-0.000006	-0.000001	0.000000	0.000000
65.494266	15.778578	19.782960	-1.789445	2.192628	2.352034	0.000000	0.251997	0.000000	-0.000006	-0.000001	0.000000	0.000000
65.940226	17.624084	17.670986	-2.363592	2.523406	2.479721	0.000000	0.320948	0.000000	-0.000006	-0.000001	0.000000	0.000000
66.489286	19.989720	15.308289	-1.919423	1.805162	2.635575	0.000000	0.245928	0.000000	-0.000007	-0.000001	0.000000	0.000000
67.038346	21.789816	13.659499	-1.339677	1.215496	2.748979	0.000000	0.166545	0.000000	-0.000007	-0.000001	0.000000	0.000000
67.587406	22.897225	12.607176	-0.665302	0.712408	2.817920	0.000000	0.084209	0.000000	-0.000008	-0.000000	0.000000	0.000000
68.136466	23.233724	12.076365	0.056066	0.260062	2.841176	0.000000	0.000378	0.000000	-0.000008	-0.000000	0.000000	0.000000
68.435038	23.240334	11.910236	-0.017494	0.264791	2.843506	0.000000	0.007802	0.000000	-0.000008	-0.000000	0.000000	0.000000
68.768372	23.256779	11.743692	-0.031842	0.234842	2.846107	0.000000	0.007802	0.000000	-0.000008	-0.000000	0.000000	0.000000
69.101705	23.282789	11.597114	-0.046189	0.204892	2.848708	0.000000	0.007802	0.000000	-0.000008	-0.000000	0.000000	0.000000
69.436288	23.318516	11.470065	-0.060590	0.174830	2.851318	0.000000	0.007802	0.000000	-0.000008	-0.000000	0.000000	0.000000
69.733611	23.358350	11.374046	-0.134423	0.177837	2.853638	0.000000	0.015259	0.000000	-0.000008	-0.000000	0.000000	0.000000
70.282671	23.104802	11.406490	0.593476	-0.237276	2.838832	0.000000	-0.069112	0.000000	-0.000008	0.000000	0.000000	0.000000
