#ParticleID	Turn	x[m]	xp	y[m]	yp	z[m]	dE[GeV]# s	beta_x	beta_y	alpha_x	alpha_y	D_x	D_y	D_px	D_py	orbit_x	orbit_px	orbit_y	orbit_py
0.300000	11.804978	25.052885	-0.010223	-0.026848	2.618285	0.000000	-0.000054	0.000000	-0.000002	0.000002	0.000000	0.000000
0.601250	11.818826	25.072686	-0.035744	-0.038881	2.618268	0.000000	-0.000054	0.000000	-0.000001	0.000002	0.000000	0.000000
0.898573	11.847570	25.099337	-0.031879	-0.112308	2.618252	0.000000	-0.006475	0.000000	-0.000001	0.000002	0.000000	0.000000
1.339533	12.027711	24.919946	-0.378189	0.517579	2.631690	0.000000	0.067485	0.000000	-0.000000	0.000002	0.000000	0.000000
1.780493	12.519704	24.193347	-0.741777	1.123917	2.677880	0.000000	0.142214	0.000000	0.000001	0.000002	0.000000	0.000000
2.221453	13.346030	22.952600	-1.139255	1.679118	2.757347	0.000000	0.218563	0.000000	0.000001	0.000002	0.000000	0.000000
2.662413	14.544439	21.254157	-1.588782	2.157919	2.870998	0.000000	0.297401	0.000000	0.000002	0.000002	0.000000	0.000000
3.108373	16.190404	19.150390	-2.115181	2.539671	3.021988	0.000000	0.380116	0.000000	0.000003	0.000002	0.000000	0.000000
3.657433	18.301118	16.787501	-1.706294	1.789249	3.205422	0.000000	0.287079	0.000000	0.000004	0.000002	0.000000	0.000000
4.206493	19.893583	15.174265	-1.176883	1.166271	3.336298	0.000000	0.188949	0.000000	0.000005	0.000002	0.000000	0.000000
4.755553	20.855314	14.195778	-0.564342	0.626363	3.412294	0.000000	0.087469	0.000000	0.000006	0.000001	0.000000	0.000000
5.304613	21.118378	13.782342	0.088061	0.131070	3.432062	0.000000	-0.015564	0.000000	0.000007	0.000001	0.000000	0.000000
5.603185	21.102967	13.689220	0.018732	0.144811	3.430092	0.000000	-0.006597	0.000000	0.000007	0.000001	0.000000	0.000000
5.936519	21.095746	13.600966	0.002931	0.119950	3.427893	0.000000	-0.006597	0.000000	0.000007	0.000001	0.000000	0.000000
6.269852	21.099059	13.529287	-0.012870	0.095089	3.425693	0.000000	-0.006597	0.000000	0.000008	0.000001	0.000000	0.000000
6.604435	21.112978	13.474005	-0.028731	0.070135	3.423486	0.000000	-0.006597	0.000000	0.000008	0.000001	0.000000	0.000000
6.901758	21.134253	13.438893	-0.098041	0.083071	3.421524	0.000000	0.002342	0.000000	0.000009	0.000001	0.000000	0.000000
7.450818	20.881754	13.608617	0.555194	-0.394014	3.394610	0.000000	-0.100233	0.000000	0.000009	0.000001	0.000000	0.000000
7.999878	19.929314	14.314482	1.169213	-0.899164	3.311782	0.000000	-0.201030	0.000000	0.000010	0.000001	0.000000	0.000000
8.548938	18.344207	15.606767	1.700644	-1.468359	3.174509	0.000000	-0.298261	0.000000	0.000010	0.000000	0.000000	0.000000
9.097998	16.238399	17.577516	2.111950	-2.142142	2.985227	0.000000	-0.390202	0.000000	0.000010	0.000000	0.000000	0.000000
9.543958	14.595527	19.333525	1.585047	-1.778807	2.829517	0.000000	-0.308502	0.000000	0.000010	0.000000	0.000000	0.000000
9.984918	13.400697	20.712176	1.134843	-1.335773	2.710725	0.000000	-0.230800	0.000000	0.000010	0.000001	0.000000	0.000000
10.425878	12.578633	21.671713	0.736488	-0.831963	2.625584	0.000000	-0.155726	0.000000	0.000011	0.000001	0.000000	0.000000
10.866838	12.091778	22.168476	0.371781	-0.290299	2.573126	0.000000	-0.082426	0.000000	0.000011	0.000001	0.000000	0.000000
11.309048	11.917755	22.179337	0.053177	0.210129	2.552732	0.000000	-0.016324	0.000000	0.000012	0.000001	0.000000	0.000000
11.606371	11.893572	22.058547	0.028158	0.196131	2.547878	0.000000	-0.016324	0.000000	0.000012	0.000001	0.000000	0.000000
12.086371	11.885927	21.881108	-0.012231	0.173534	2.540042	0.000000	-0.016324	0.000000	0.000013	0.000001	0.000000	0.000000
12.566371	11.917057	21.725362	-0.052621	0.150937	2.532206	0.000000	-0.016324	0.000000	0.000013	0.000001	0.000000	0.000000
13.046371	11.986960	21.591309	-0.093011	0.128339	2.524370	0.000000	-0.016324	0.000000	0.000014	0.000001	0.000000	0.000000
13.526371	12.095639	21.478950	-0.133401	0.105742	2.516533	0.000000	-0.016324	0.000000	0.000015	0.000001	0.000000	0.000000
14.007621	12.243526	21.388076	-0.173896	0.083086	2.508677	0.000000	-0.016324	0.000000	0.000015	0.000001	0.000000	0.000000
14.304943	12.354371	21.342831	-0.168623	0.016758	2.503823	0.000000	-0.022463	0.000000	0.000016	0.000001	0.000000	0.000000
14.745903	12.661570	21.094472	-0.530679	0.544322	2.509546	0.000000	0.048448	0.000000	0.000017	0.000002	0.000000	0.000000
15.186863	13.297518	20.390029	-0.916981	1.047120	2.546629	0.000000	0.119911	0.000000	0.000017	0.000002	0.000000	0.000000
15.627823	14.291271	19.261553	-1.345178	1.502275	2.615496	0.000000	0.192739	0.000000	0.000019	0.000003	0.000000	0.000000
16.068783	15.688229	17.760389	-1.834831	1.889078	2.716930	0.000000	0.267763	0.000000	0.000020	0.000003	0.000000	0.000000
16.514743	17.575878	15.933340	-2.413071	2.190671	2.853780	0.000000	0.346299	0.000000	0.000021	0.000004	0.000000	0.000000
17.063803	20.000396	13.893343	-1.976549	1.546695	3.020193	0.000000	0.258987	0.000000	0.000023	0.000003	0.000000	0.000000
17.612863	21.865593	12.496226	-1.400412	1.012886	3.137333	0.000000	0.167082	0.000000	0.000025	0.000002	0.000000	0.000000
18.161923	23.039720	11.642475	-0.725358	0.551224	3.203122	0.000000	0.072213	0.000000	0.000026	0.000001	0.000000	0.000000
18.710983	23.439842	11.271279	0.000932	0.128824	3.216395	0.000000	-0.023937	0.000000	0.000026	0.000001	0.000000	0.000000
19.009556	23.479666	11.184878	-0.073082	0.131114	3.211756	0.000000	-0.015535	0.000000	0.000026	0.000001	0.000000	0.000000
19.342889	23.533145	11.107573	-0.087355	0.100799	3.206578	0.000000	-0.015535	0.000000	0.000027	0.000001	0.000000	0.000000
19.676223	23.596139	11.050479	-0.101627	0.070485	3.201400	0.000000	-0.015535	0.000000	0.000027	0.000001	0.000000	0.000000
20.010806	23.669231	11.013357	-0.233224	0.094624	3.196222	0.000000	0.000301	0.000000	0.000027	0.000001	0.000000	0.000000
20.308129	23.811855	10.965188	-0.308670	0.096029	3.196311	0.000000	0.008651	0.000000	0.000027	0.000001	0.000000	0.000000
20.857189	23.740106	11.081656	0.438573	-0.309403	3.174848	0.000000	-0.086715	0.000000	0.000027	-0.000000	0.000000	0.000000
21.406249	22.860017	11.652753	1.154838	-0.736873	3.101370	0.000000	-0.180543	0.000000	0.000027	-0.000001	0.000000	0.000000
21.955309	21.233755	12.719158	1.789530	-1.216828	2.977179	0.000000	-0.271169	0.000000	0.000026	-0.000002	0.000000	0.000000
22.504369	18.976189	14.356828	2.297819	-1.783456	2.804478	0.000000	-0.356985	0.000000	0.000025	-0.000003	0.000000	0.000000
22.950329	17.196929	15.827256	1.705993	-1.499853	2.662568	0.000000	-0.279794	0.000000	0.000024	-0.000002	0.000000	0.000000
23.391289	15.921748	16.999695	1.196805	-1.148860	2.555508	0.000000	-0.206244	0.000000	0.000023	-0.000001	0.000000	0.000000
23.832249	15.069913	17.838265	0.742296	-0.745595	2.480333	0.000000	-0.135044	0.000000	0.000023	-0.000001	0.000000	0.000000
24.273209	14.602506	18.304813	0.321701	-0.308406	2.436186	0.000000	-0.065381	0.000000	0.000023	-0.000000	0.000000	0.000000
24.715418	14.498294	18.377866	-0.048737	0.097688	2.422560	0.000000	-0.002402	0.000000	0.000023	0.000000	0.000000	0.000000
25.012741	14.533387	18.324632	-0.069293	0.081355	2.421846	0.000000	-0.002402	0.000000	0.000023	0.000000	0.000000	0.000000
25.346075	14.587264	18.276499	-0.092339	0.063044	2.421045	0.000000	-0.002402	0.000000	0.000023	0.000000	0.000000	0.000000
25.679408	14.656506	18.240573	-0.115385	0.044734	2.420244	0.000000	-0.002402	0.000000	0.000023	0.000000	0.000000	0.000000
26.013991	14.741158	18.217158	-0.018927	-0.121432	2.419416	0.000000	-0.022030	0.000000	0.000023	0.000000	0.000000	0.000000
26.311314	14.758413	18.294291	-0.002920	-0.182847	2.412866	0.000000	-0.027946	0.000000	0.000023	0.000000	0.000000	0.000000
26.752274	14.942801	18.257171	-0.416817	0.266708	2.415649	0.000000	0.040582	0.000000	0.000023	0.000001	0.000000	0.000000
27.193234	15.499199	17.827436	-0.849757	0.704128	2.448723	0.000000	0.109573	0.000000	0.000024	0.000001	0.000000	0.000000
27.634194	16.453027	17.024639	-1.321520	1.109510	2.512465	0.000000	0.179811	0.000000	0.000025	0.000002	0.000000	0.000000
28.075154	17.847864	15.885306	-1.853660	1.464411	2.607601	0.000000	0.252098	0.000000	0.000026	0.000003	0.000000	0.000000
28.521114	19.771665	14.444112	-2.475461	1.753594	2.736817	0.000000	0.327699	0.000000	0.000027	0.000003	0.000000	0.000000
29.070174	22.216814	12.838425	-1.951510	1.188096	2.894085	0.000000	0.244325	0.000000	0.000028	0.000002	0.000000	0.000000
29.619234	24.007039	11.803888	-1.289714	0.707223	3.004317	0.000000	0.156618	0.000000	0.000029	0.000001	0.000000	0.000000
30.168294	25.015889	11.266812	-0.536819	0.276723	3.065559	0.000000	0.066133	0.000000	0.000030	0.000000	0.000000	0.000000
30.717354	25.172102	11.188944	0.253994	-0.134065	3.076723	0.000000	-0.025526	0.000000	0.000030	-0.000001	0.000000	0.000000
31.015927	25.063362	11.259603	0.175959	-0.131816	3.071501	0.000000	-0.017489	0.000000	0.000030	-0.000000	0.000000	0.000000
31.349260	24.950627	11.357520	0.162247	-0.161935	3.065672	0.000000	-0.017489	0.000000	0.000030	-0.000000	0.000000	0.000000
31.682593	24.847032	11.475516	0.148536	-0.192053	3.059843	0.000000	-0.017489	0.000000	0.000029	-0.000000	0.000000	0.000000
32.017177	24.752242	11.614146	0.134773	-0.222285	3.053991	0.000000	-0.017489	0.000000	0.000029	-0.000000	0.000000	0.000000
32.314499	24.675736	11.754315	0.058085	-0.218446	3.048792	0.000000	-0.009525	0.000000	0.000029	-0.000000	0.000000	0.000000
32.863559	24.189147	12.233371	0.822890	-0.659208	3.018688	0.000000	-0.099971	0.000000	0.000029	-0.000001	0.000000	0.000000
33.412619	22.889813	13.219227	1.529569	-1.146924	2.939338	0.000000	-0.188644	0.000000	0.000028	-0.000002	0.000000	0.000000
33.961679	20.869513	14.782102	2.128208	-1.716332	2.812150	0.000000	-0.273972	0.000000	0.000026	-0.000003	0.000000	0.000000
34.510739	18.270951	17.033316	2.576520	-2.407992	2.639380	0.000000	-0.354439	0.000000	0.000024	-0.000004	0.000000	0.000000
34.956699	16.250413	19.046975	1.970470	-2.088492	2.497653	0.000000	-0.281529	0.000000	0.000023	-0.000003	0.000000	0.000000
35.397659	14.743665	20.712736	1.459463	-1.674711	2.388889	0.000000	-0.212252	0.000000	0.000021	-0.000003	0.000000	0.000000
35.838619	13.656589	21.978453	1.015136	-1.184731	2.310111	0.000000	-0.145393	0.000000	0.000020	-0.000002	0.000000	0.000000
36.279579	12.939519	22.786536	0.617188	-0.640848	2.260423	0.000000	-0.080190	0.000000	0.000019	-0.000002	0.000000	0.000000
36.721789	12.559000	23.100529	0.278124	-0.124499	2.239231	0.000000	-0.021391	0.000000	0.000019	-0.000001	0.000000	0.000000
37.019112	12.401198	23.178448	0.252619	-0.137569	2.232871	0.000000	-0.021391	0.000000	0.000018	-0.000001	0.000000	0.000000
37.352445	12.242317	23.275045	0.224024	-0.152223	2.225741	0.000000	-0.021391	0.000000	0.000018	-0.000001	0.000000	0.000000
37.685779	12.102499	23.381411	0.195430	-0.166876	2.218611	0.000000	-0.021391	0.000000	0.000018	-0.000001	0.000000	0.000000
38.020362	11.981327	23.498000	0.166728	-0.181584	2.211455	0.000000	-0.021391	0.000000	0.000017	-0.000001	0.000000	0.000000
38.317684	11.889766	23.609865	0.170375	-0.252544	2.205095	0.000000	-0.026798	0.000000	0.000017	-0.000001	0.000000	0.000000
38.758644	11.891062	23.571066	-0.173325	0.340196	2.207203	0.000000	0.036366	0.000000	0.000016	-0.000001	0.000000	0.000000
39.199604	12.197807	23.014373	-0.524944	0.917457	2.237228	0.000000	0.099943	0.000000	0.000016	-0.000000	0.000000	0.000000
39.640564	12.824015	21.965115	-0.900546	1.452975	2.295512	0.000000	0.164659	0.000000	0.000016	-0.000000	0.000000	0.000000
40.081524	13.798297	20.471031	-1.317292	1.922383	2.382719	0.000000	0.231250	0.000000	0.000016	0.000000	0.000000	0.000000
40.527484	15.182742	18.577522	-1.798049	2.305612	2.501314	0.000000	0.300881	0.000000	0.000016	0.000001	0.000000	0.000000
41.076544	16.949343	16.449625	-1.400404	1.592792	2.645991	0.000000	0.225342	0.000000	0.000017	0.000000	0.000000	0.000000
41.625604	18.222046	15.037969	-0.903841	0.993424	2.748032	0.000000	0.145806	0.000000	0.000017	-0.000000	0.000000	0.000000
42.174664	18.910954	14.242007	-0.343436	0.464815	2.805628	0.000000	0.063683	0.000000	0.000016	-0.000001	0.000000	0.000000
42.723724	18.967407	14.005043	0.241228	-0.030687	2.817757	0.000000	-0.019569	0.000000	0.000016	-0.000001	0.000000	0.000000
43.022297	18.857821	14.007885	0.175357	-0.015418	2.814113	0.000000	-0.012207	0.000000	0.000015	-0.000001	0.000000	0.000000
43.502297	18.702072	14.039138	0.149120	-0.049693	2.808254	0.000000	-0.012207	0.000000	0.000015	-0.000001	0.000000	0.000000
43.982297	18.571510	14.103295	0.122884	-0.083967	2.802395	0.000000	-0.012207	0.000000	0.000014	-0.000001	0.000000	0.000000
44.462297	18.466135	14.200356	0.096648	-0.118242	2.796536	0.000000	-0.012207	0.000000	0.000014	-0.000001	0.000000	0.000000
44.942297	18.385947	14.330320	0.070411	-0.152517	2.790678	0.000000	-0.012207	0.000000	0.000013	-0.000001	0.000000	0.000000
45.423547	18.331062	14.493475	-0.046716	-0.115071	2.784821	0.000000	0.001590	0.000000	0.000012	-0.000001	0.000000	0.000000
45.720870	18.363674	14.568081	-0.110947	-0.097797	2.785294	0.000000	0.008867	0.000000	0.000012	-0.000001	0.000000	0.000000
46.269930	18.176309	14.957173	0.450174	-0.615036	2.767596	0.000000	-0.073243	0.000000	0.000011	-0.000002	0.000000	0.000000
46.818990	17.386658	15.934835	0.979497	-1.176084	2.705105	0.000000	-0.154053	0.000000	0.000010	-0.000002	0.000000	0.000000
47.368050	16.050500	17.570703	1.439633	-1.820901	2.598931	0.000000	-0.232131	0.000000	0.000009	-0.000002	0.000000	0.000000
47.917110	14.262214	19.981297	1.798081	-2.595416	2.450955	0.000000	-0.306092	0.000000	0.000008	-0.000003	0.000000	0.000000
48.363070	12.870665	22.124444	1.333320	-2.190073	2.329742	0.000000	-0.237802	0.000000	0.000007	-0.000002	0.000000	0.000000
48.804030	11.874978	23.840325	0.933245	-1.686359	2.239339	0.000000	-0.172618	0.000000	0.000006	-0.000002	0.000000	0.000000
49.244990	11.212061	25.076310	0.575807	-1.105917	2.177220	0.000000	-0.109400	0.000000	0.000005	-0.000002	0.000000	0.000000
49.685950	10.851628	25.776164	0.244676	-0.475157	2.142676	0.000000	-0.047428	0.000000	0.000004	-0.000002	0.000000	0.000000
50.128160	10.777334	25.907759	-0.048965	0.113642	2.135326	0.000000	0.008768	0.000000	0.000003	-0.000002	0.000000	0.000000
50.425482	10.814673	25.843639	-0.076619	0.102017	2.137933	0.000000	0.008768	0.000000	0.000003	-0.000002	0.000000	0.000000
50.758816	10.876087	25.779971	-0.107622	0.088985	2.140857	0.000000	0.008768	0.000000	0.000002	-0.000002	0.000000	0.000000
51.092149	10.958169	25.724992	-0.138625	0.075953	2.143780	0.000000	0.008768	0.000000	0.000002	-0.000002	0.000000	0.000000
51.426732	11.061120	25.679065	-0.080010	-0.145450	2.146693	0.000000	-0.008647	0.000000	0.000001	-0.000002	0.000000	0.000000
51.724055	11.116741	25.769071	-0.079800	-0.220467	2.144122	0.000000	-0.013905	0.000000	0.000000	-0.000002	0.000000	0.000000
52.165015	11.332295	25.676792	-0.410885	0.428939	2.151579	0.000000	0.047756	0.000000	-0.000000	-0.000002	0.000000	0.000000
52.605975	11.846983	25.018240	-0.760741	1.058829	2.186320	0.000000	0.109960	0.000000	-0.000001	-0.000002	0.000000	0.000000
53.046935	12.684318	23.823378	-1.145354	1.640542	2.248740	0.000000	0.173417	0.000000	-0.000002	-0.000002	0.000000	0.000000
53.487895	13.882555	22.146573	-1.582295	2.147612	2.339551	0.000000	0.238849	0.000000	-0.000003	-0.000002	0.000000	0.000000
53.933855	15.516984	20.039048	-2.095750	2.558307	2.461291	0.000000	0.307400	0.000000	-0.000004	-0.000002	0.000000	0.000000
54.482915	17.621320	17.667483	-1.714180	1.786508	2.609892	0.000000	0.233094	0.000000	-0.000005	-0.000002	0.000000	0.000000
55.031975	19.237274	16.069016	-1.211528	1.141957	2.716499	0.000000	0.154653	0.000000	-0.000006	-0.000002	0.000000	0.000000
55.581035	20.250704	15.129790	-0.623301	0.578746	2.779218	0.000000	0.073470	0.000000	-0.000007	-0.000002	0.000000	0.000000
56.130095	20.590025	14.782908	0.008954	0.056758	2.796940	0.000000	-0.009017	0.000000	-0.000007	-0.000001	0.000000	0.000000
56.428668	20.621144	14.732033	-0.059377	0.075005	2.796430	0.000000	-0.001708	0.000000	-0.000008	-0.000001	0.000000	0.000000
56.762001	20.666136	14.689615	-0.075599	0.052251	2.795861	0.000000	-0.001708	0.000000	-0.000008	-0.000001	0.000000	0.000000
57.095334	20.721943	14.662365	-0.091821	0.029498	2.795292	0.000000	-0.001708	0.000000	-0.000009	-0.000001	0.000000	0.000000
57.429918	20.788834	14.650268	-0.108103	0.006659	2.794721	0.000000	-0.001708	0.000000	-0.000009	-0.000001	0.000000	0.000000
57.727240	20.857419	14.652343	-0.177073	0.024650	2.794213	0.000000	0.005593	0.000000	-0.000010	-0.000001	0.000000	0.000000
58.276300	20.696072	14.906576	0.469192	-0.490417	2.774643	0.000000	-0.076775	0.000000	-0.000010	-0.000001	0.000000	0.000000
58.825360	19.839129	15.742162	1.082316	-1.040414	2.710156	0.000000	-0.157782	0.000000	-0.000011	-0.000001	0.000000	0.000000
59.374420	18.347118	17.218616	1.618990	-1.664518	2.601894	0.000000	-0.235990	0.000000	-0.000011	-0.000000	0.000000	0.000000
59.923480	16.325427	19.441105	2.041307	-2.407182	2.451780	0.000000	-0.310012	0.000000	-0.000011	0.000000	0.000000	0.000000
60.369440	14.743112	21.416427	1.519367	-2.003489	2.328818	0.000000	-0.241724	0.000000	-0.000011	-0.000000	0.000000	0.000000
60.810400	13.605163	22.971660	1.071042	-1.510017	2.236677	0.000000	-0.176586	0.000000	-0.000011	-0.000001	0.000000	0.000000
61.251360	12.839610	24.059617	0.671649	-0.947840	2.172789	0.000000	-0.113459	0.000000	-0.000011	-0.000001	0.000000	0.000000
61.692320	12.411478	24.630795	0.302943	-0.342537	2.136427	0.000000	-0.051624	0.000000	-0.000012	-0.000001	0.000000	0.000000
62.134530	12.301261	24.658662	-0.021856	0.217820	2.127181	0.000000	0.004405	0.000000	-0.000012	-0.000001	0.000000	0.000000
62.431853	12.321447	24.532892	-0.046037	0.205190	2.128491	0.000000	0.004405	0.000000	-0.000013	-0.000001	0.000000	0.000000
62.765186	12.361175	24.400818	-0.073148	0.191031	2.129960	0.000000	0.004405	0.000000	-0.000013	-0.000001	0.000000	0.000000
63.098520	12.418977	24.278184	-0.100258	0.176872	2.131429	0.000000	0.004405	0.000000	-0.000014	-0.000001	0.000000	0.000000
63.433103	12.495171	24.164583	-0.127470	0.162659	2.132904	0.000000	0.004405	0.000000	-0.000014	-0.000001	0.000000	0.000000
63.730426	12.578161	24.071613	-0.120802	0.090990	2.134214	0.000000	-0.000829	0.000000	-0.000015	-0.000001	0.000000	0.000000
64.171386	12.844917	23.726281	-0.486438	0.689168	2.147391	0.000000	0.060650	0.000000	-0.000015	-0.000002	0.000000	0.000000
64.612346	13.442678	22.865269	-0.874297	1.255988	2.187805	0.000000	0.122819	0.000000	-0.000016	-0.000002	0.000000	0.000000
65.053306	14.398755	21.527752	-1.302101	1.765663	2.255915	0.000000	0.186388	0.000000	-0.000017	-0.000003	0.000000	0.000000
65.494266	15.756827	19.774587	-1.789394	2.195001	2.352497	0.000000	0.252079	0.000000	-0.000019	-0.000003	0.000000	0.000000
65.940226	17.602104	17.660740	-2.363130	2.525219	2.480225	0.000000	0.321043	0.000000	-0.000020	-0.000004	0.000000	0.000000
66.489286	19.967728	15.296077	-1.919867	1.806952	2.636128	0.000000	0.246005	0.000000	-0.000022	-0.000003	0.000000	0.000000
67.038346	21.768796	13.645277	-1.340994	1.217390	2.749570	0.000000	0.166604	0.000000	-0.000023	-0.000002	0.000000	0.000000
67.587406	22.878091	12.590756	-0.667401	0.714540	2.818539	0.000000	0.084248	0.000000	-0.000024	-0.000001	0.000000	0.000000
68.136466	23.217257	12.057404	0.053335	0.262585	2.841811	0.000000	0.000398	0.000000	-0.000025	-0.000001	0.000000	0.000000
68.435038	23.225480	11.889820	-0.020201	0.267191	2.844148	0.000000	0.007824	0.000000	-0.000025	-0.000001	0.000000	0.000000
68.768372	23.243734	11.721704	-0.034559	0.237155	2.846756	0.000000	0.007824	0.000000	-0.000025	-0.000001	0.000000	0.000000
69.101705	23.271559	11.573613	-0.048917	0.207118	2.849364	0.000000	0.007824	0.000000	-0.000025	-0.000001	0.000000	0.000000
69.436288	23.309114	11.445104	-0.063329	0.176969	2.851983	0.000000	0.007824	0.000000	-0.000026	-0.000001	0.000000	0.000000
69.733611	23.350580	11.347837	-0.137159	0.179833	2.854309	0.000000	0.015284	0.000000	-0.000026	-0.000001	0.000000	0.000000
70.282671	23.100152	11.377678	0.590562	-0.234505	2.839511	0.000000	-0.069109	0.000000	-0.000026	0.000000	0.000000	0.000000
