#ParticleID	Turn	x[m]	xp	y[m]	yp	z[m]	dE[GeV]# s	beta_x	beta_y	alpha_x	alpha_y	D_x	D_y	D_px	D_py	orbit_x	orbit_px	orbit_y	orbit_py
0.300000	11.808670	25.038613	-0.010551	-0.027032	2.618183	0.000000	-0.000017	0.000000	-0.000001	0.000002	0.000000	0.000000
0.601250	11.822713	25.058527	-0.036064	-0.039072	2.618178	0.000000	-0.000017	0.000000	-0.000000	0.000002	0.000000	0.000000
0.898573	11.851646	25.085295	-0.032182	-0.112471	2.618172	0.000000	-0.006438	0.000000	0.000000	0.000002	0.000000	0.000000
1.339533	12.032096	24.906211	-0.378592	0.517048	2.631626	0.000000	0.067521	0.000000	0.000001	0.000002	0.000000	0.000000
1.780493	12.524497	24.180234	-0.742300	1.123043	2.677832	0.000000	0.142249	0.000000	0.000002	0.000002	0.000000	0.000000
2.221453	13.351344	22.940394	-1.139920	1.677939	2.757315	0.000000	0.218596	0.000000	0.000003	0.000002	0.000000	0.000000
2.662413	14.550414	21.243105	-1.589621	2.156491	2.870980	0.000000	0.297434	0.000000	0.000003	0.000002	0.000000	0.000000
3.108373	16.197220	19.140701	-2.116234	2.538058	3.021984	0.000000	0.380148	0.000000	0.000004	0.000002	0.000000	0.000000
3.657433	18.308996	16.779362	-1.707164	1.788022	3.205436	0.000000	0.287111	0.000000	0.000005	0.000002	0.000000	0.000000
4.206493	19.902286	15.167302	-1.177508	1.165344	3.336329	0.000000	0.188981	0.000000	0.000006	0.000002	0.000000	0.000000
4.755553	20.864548	14.189699	-0.564679	0.625670	3.412342	0.000000	0.087499	0.000000	0.000007	0.000001	0.000000	0.000000
5.304613	21.127812	13.776919	0.088037	0.130561	3.432127	0.000000	-0.015535	0.000000	0.000007	0.000001	0.000000	0.000000
5.603185	21.112427	13.684112	0.018690	0.144282	3.430165	0.000000	-0.006568	0.000000	0.000008	0.000001	0.000000	0.000000
5.936519	21.105232	13.596212	0.002896	0.119416	3.427976	0.000000	-0.006568	0.000000	0.000008	0.000001	0.000000	0.000000
6.269852	21.108566	13.524890	-0.012898	0.094550	3.425786	0.000000	-0.006568	0.000000	0.000008	0.000001	0.000000	0.000000
6.604435	21.122501	13.469972	-0.028751	0.069590	3.423588	0.000000	-0.006568	0.000000	0.000009	0.000001	0.000000	0.000000
6.901758	21.143786	13.435185	-0.098079	0.082511	3.421634	0.000000	0.002371	0.000000	0.000009	0.000001	0.000000	0.000000
7.450818	20.891155	13.605470	0.555473	-0.394480	3.394735	0.000000	-0.100208	0.000000	0.000010	0.000001	0.000000	0.000000
7.999878	19.938241	14.311812	1.169789	-0.899570	3.311920	0.000000	-0.201009	0.000000	0.000010	0.000001	0.000000	0.000000
8.548938	18.352355	15.604523	1.701478	-1.468734	3.174657	0.000000	-0.298245	0.000000	0.000010	0.000000	0.000000	0.000000
9.097998	16.245516	17.575679	2.112982	-2.142513	2.985382	0.000000	-0.390191	0.000000	0.000010	-0.000000	0.000000	0.000000
9.543958	14.601823	19.332062	1.585862	-1.779271	2.829679	0.000000	-0.308487	0.000000	0.000010	0.000000	0.000000	0.000000
9.984918	13.406354	20.711157	1.135481	-1.336309	2.710894	0.000000	-0.230780	0.000000	0.000010	0.000000	0.000000	0.000000
10.425878	12.583795	21.671189	0.736978	-0.832546	2.625763	0.000000	-0.155702	0.000000	0.000011	0.000001	0.000000	0.000000
10.866838	12.096566	22.168477	0.372144	-0.290903	2.573316	0.000000	-0.082397	0.000000	0.000011	0.000001	0.000000	0.000000
11.309048	11.922271	22.179872	0.053442	0.209530	2.552936	0.000000	-0.016291	0.000000	0.000011	0.000001	0.000000	0.000000
11.606371	11.897928	22.059436	0.028432	0.195537	2.548092	0.000000	-0.016291	0.000000	0.000012	0.000001	0.000000	0.000000
12.086371	11.890014	21.882565	-0.011944	0.172945	2.540272	0.000000	-0.016291	0.000000	0.000012	0.000001	0.000000	0.000000
12.566371	11.920860	21.727381	-0.052319	0.150354	2.532452	0.000000	-0.016291	0.000000	0.000013	0.000001	0.000000	0.000000
13.046371	11.990467	21.593885	-0.092695	0.127763	2.524632	0.000000	-0.016291	0.000000	0.000013	0.000001	0.000000	0.000000
13.526371	12.098834	21.482077	-0.133071	0.105171	2.516812	0.000000	-0.016291	0.000000	0.000014	0.000001	0.000000	0.000000
14.007621	12.246397	21.391750	-0.173552	0.082521	2.508971	0.000000	-0.016291	0.000000	0.000015	0.000001	0.000000	0.000000
14.304943	12.357034	21.346840	-0.168263	0.016186	2.504127	0.000000	-0.022431	0.000000	0.000015	0.000001	0.000000	0.000000
14.745903	12.663938	21.098934	-0.530368	0.543871	2.509867	0.000000	0.048488	0.000000	0.000015	0.000002	0.000000	0.000000
15.186863	13.299628	20.394828	-0.916704	1.046810	2.546970	0.000000	0.119960	0.000000	0.000016	0.000002	0.000000	0.000000
15.627823	14.293147	19.266558	-1.344922	1.502119	2.615860	0.000000	0.192797	0.000000	0.000017	0.000002	0.000000	0.000000
16.068783	15.689885	17.765461	-1.834586	1.889084	2.717322	0.000000	0.267831	0.000000	0.000018	0.000003	0.000000	0.000000
16.514743	17.577315	15.938333	-2.412825	2.190840	2.854205	0.000000	0.346377	0.000000	0.000020	0.000003	0.000000	0.000000
17.063803	20.001511	13.898216	-1.976211	1.546745	3.020657	0.000000	0.259051	0.000000	0.000021	0.000003	0.000000	0.000000
17.612863	21.866298	12.501108	-1.400008	1.012821	3.137828	0.000000	0.167130	0.000000	0.000023	0.000002	0.000000	0.000000
18.161923	23.039956	11.647494	-0.724914	0.551037	3.203640	0.000000	0.072245	0.000000	0.000023	0.000001	0.000000	0.000000
18.710983	23.439584	11.276575	0.001383	0.128504	3.216925	0.000000	-0.023921	0.000000	0.000024	0.000000	0.000000	0.000000
19.009556	23.479139	11.190352	-0.072631	0.130823	3.212292	0.000000	-0.015518	0.000000	0.000024	0.000000	0.000000	0.000000
19.342889	23.532317	11.113235	-0.086903	0.100526	3.207119	0.000000	-0.015518	0.000000	0.000024	0.000000	0.000000	0.000000
19.676223	23.595009	11.056317	-0.101175	0.070229	3.201946	0.000000	-0.015518	0.000000	0.000024	0.000000	0.000000	0.000000
20.010806	23.667798	11.019361	-0.232764	0.094414	3.196774	0.000000	0.000321	0.000000	0.000025	0.000001	0.000000	0.000000
20.308129	23.810148	10.971312	-0.308205	0.095852	3.196869	0.000000	0.008672	0.000000	0.000025	0.000001	0.000000	0.000000
20.857189	23.737922	11.088069	0.438972	-0.309756	3.175413	0.000000	-0.086712	0.000000	0.000025	-0.000000	0.000000	0.000000
21.406249	22.857445	11.659661	1.155142	-0.737426	3.101931	0.000000	-0.180559	0.000000	0.000025	-0.000001	0.000000	0.000000
21.955309	21.230910	12.726801	1.789719	-1.217622	2.977727	0.000000	-0.271203	0.000000	0.000024	-0.000002	0.000000	0.000000
22.504369	18.973208	14.365500	2.297878	-1.784547	2.805003	0.000000	-0.357036	0.000000	0.000023	-0.000002	0.000000	0.000000
22.950329	17.193873	15.836812	1.706101	-1.500737	2.663073	0.000000	-0.279832	0.000000	0.000022	-0.000002	0.000000	0.000000
23.391289	15.918573	17.009924	1.196968	-1.149497	2.556000	0.000000	-0.206269	0.000000	0.000021	-0.000001	0.000000	0.000000
23.832249	15.066568	17.848936	0.742521	-0.745956	2.480817	0.000000	-0.135056	0.000000	0.000021	-0.000001	0.000000	0.000000
24.273209	14.598931	18.315674	0.321998	-0.308475	2.436667	0.000000	-0.065380	0.000000	0.000020	-0.000000	0.000000	0.000000
24.715418	14.494419	18.388658	-0.048363	0.097886	2.423044	0.000000	-0.002391	0.000000	0.000020	0.000000	0.000000	0.000000
25.012741	14.529291	18.335304	-0.068924	0.081563	2.422333	0.000000	-0.002391	0.000000	0.000020	0.000000	0.000000	0.000000
25.346075	14.582924	18.287029	-0.091975	0.063262	2.421536	0.000000	-0.002391	0.000000	0.000020	0.000000	0.000000	0.000000
25.679408	14.651925	18.250955	-0.115026	0.044961	2.420739	0.000000	-0.002391	0.000000	0.000021	0.000000	0.000000	0.000000
26.013991	14.736339	18.227384	-0.018613	-0.121278	2.419915	0.000000	-0.022023	0.000000	0.000021	0.000000	0.000000	0.000000
26.311314	14.753408	18.304423	-0.002624	-0.182709	2.413367	0.000000	-0.027940	0.000000	0.000021	-0.000000	0.000000	0.000000
26.752274	14.937480	18.267059	-0.416394	0.267118	2.416156	0.000000	0.040601	0.000000	0.000021	0.000001	0.000000	0.000000
27.193234	15.493442	17.836849	-0.849188	0.704792	2.449241	0.000000	0.109605	0.000000	0.000021	0.000001	0.000000	0.000000
27.634194	16.446695	17.033365	-1.320779	1.110398	2.513001	0.000000	0.179857	0.000000	0.000022	0.000002	0.000000	0.000000
28.075154	17.840789	15.893166	-1.852712	1.465481	2.608160	0.000000	0.252158	0.000000	0.000022	0.000002	0.000000	0.000000
28.521114	19.763636	14.450953	-2.474262	1.754799	2.737406	0.000000	0.327774	0.000000	0.000024	0.000003	0.000000	0.000000
29.070174	22.207579	12.844098	-1.950527	1.189031	2.894710	0.000000	0.244380	0.000000	0.000025	0.000002	0.000000	0.000000
29.619234	23.996876	11.808650	-1.289016	0.707957	3.004967	0.000000	0.156652	0.000000	0.000026	0.000001	0.000000	0.000000
30.168294	25.005138	11.270855	-0.536456	0.277308	3.066222	0.000000	0.066146	0.000000	0.000026	0.000000	0.000000	0.000000
30.717354	25.161148	11.192407	0.253997	-0.133589	3.077388	0.000000	-0.025534	0.000000	0.000026	-0.000001	0.000000	0.000000
31.015927	25.052392	11.262772	0.175983	-0.131318	3.072164	0.000000	-0.017495	0.000000	0.000026	-0.000000	0.000000	0.000000
31.349260	24.939643	11.360353	0.162266	-0.161425	3.066333	0.000000	-0.017495	0.000000	0.000026	-0.000000	0.000000	0.000000
31.682593	24.836038	11.478005	0.148548	-0.191531	3.060501	0.000000	-0.017495	0.000000	0.000026	-0.000000	0.000000	0.000000
32.017177	24.741241	11.616282	0.134779	-0.221751	3.054648	0.000000	-0.017495	0.000000	0.000026	-0.000000	0.000000	0.000000
32.314499	24.664733	11.756129	0.058113	-0.217894	3.049446	0.000000	-0.009529	0.000000	0.000025	-0.000000	0.000000	0.000000
32.863559	24.178314	12.234596	0.822555	-0.658677	3.019334	0.000000	-0.099997	0.000000	0.000025	-0.000001	0.000000	0.000000
33.412619	22.879538	13.219862	1.528895	-1.146376	2.939965	0.000000	-0.188690	0.000000	0.000024	-0.000002	0.000000	0.000000
33.961679	20.860144	14.782108	2.127242	-1.715728	2.812746	0.000000	-0.274037	0.000000	0.000023	-0.000003	0.000000	0.000000
34.510739	18.262772	17.032607	2.575331	-2.407288	2.639935	0.000000	-0.354524	0.000000	0.000021	-0.000003	0.000000	0.000000
34.956699	16.243179	19.045616	1.969534	-2.087742	2.498173	0.000000	-0.281599	0.000000	0.000020	-0.000003	0.000000	0.000000
35.397659	14.737161	20.710709	1.458736	-1.673950	2.389381	0.000000	-0.212310	0.000000	0.000018	-0.000002	0.000000	0.000000
35.838619	13.650648	21.975762	1.014583	-1.183994	2.310580	0.000000	-0.145438	0.000000	0.000017	-0.000002	0.000000	0.000000
36.279579	12.933998	22.783217	0.616785	-0.640167	2.260874	0.000000	-0.080224	0.000000	0.000017	-0.000002	0.000000	0.000000
36.721789	12.553776	23.096645	0.277840	-0.123899	2.239670	0.000000	-0.021414	0.000000	0.000016	-0.000001	0.000000	0.000000
37.019112	12.396145	23.174207	0.252328	-0.136969	2.233304	0.000000	-0.021414	0.000000	0.000016	-0.000001	0.000000	0.000000
37.352445	12.237460	23.270404	0.223726	-0.151623	2.226166	0.000000	-0.021414	0.000000	0.000015	-0.000001	0.000000	0.000000
37.685779	12.097844	23.376371	0.195124	-0.166277	2.219028	0.000000	-0.021414	0.000000	0.000015	-0.000001	0.000000	0.000000
38.020362	11.976879	23.492559	0.166414	-0.180985	2.211864	0.000000	-0.021414	0.000000	0.000015	-0.000001	0.000000	0.000000
38.317684	11.885507	23.604067	0.170045	-0.251933	2.205498	0.000000	-0.026822	0.000000	0.000014	-0.000001	0.000000	0.000000
38.758644	11.887052	23.564799	-0.173562	0.340645	2.207597	0.000000	0.036352	0.000000	0.000014	-0.000001	0.000000	0.000000
39.199604	12.193969	23.007788	-0.525098	0.917724	2.237619	0.000000	0.099940	0.000000	0.000013	-0.000000	0.000000	0.000000
39.640564	12.820279	21.958379	-0.900624	1.453047	2.295903	0.000000	0.164666	0.000000	0.000013	-0.000000	0.000000	0.000000
40.081524	13.794598	20.464319	-1.317298	1.922258	2.383116	0.000000	0.231267	0.000000	0.000013	0.000000	0.000000	0.000000
40.527484	15.179016	18.571010	-1.797983	2.305293	2.501720	0.000000	0.300908	0.000000	0.000014	0.000001	0.000000	0.000000
41.076544	16.945626	16.443363	-1.400488	1.592652	2.646408	0.000000	0.225355	0.000000	0.000014	0.000000	0.000000	0.000000
41.625604	18.218502	15.031768	-0.904070	0.993453	2.748453	0.000000	0.145806	0.000000	0.000014	-0.000000	0.000000	0.000000
42.174664	18.907733	14.235681	-0.343792	0.465014	2.806045	0.000000	0.063670	0.000000	0.000013	-0.000001	0.000000	0.000000
42.723724	18.964635	13.998398	0.240769	-0.030302	2.818164	0.000000	-0.019595	0.000000	0.000013	-0.000001	0.000000	0.000000
43.022297	18.855320	14.001023	0.174904	-0.015060	2.814511	0.000000	-0.012233	0.000000	0.000012	-0.000001	0.000000	0.000000
43.502297	18.700005	14.031940	0.148668	-0.049351	2.808640	0.000000	-0.012233	0.000000	0.000012	-0.000001	0.000000	0.000000
43.982297	18.569877	14.095777	0.122432	-0.083642	2.802769	0.000000	-0.012233	0.000000	0.000011	-0.000001	0.000000	0.000000
44.462297	18.464936	14.192533	0.096196	-0.117933	2.796898	0.000000	-0.012233	0.000000	0.000011	-0.000001	0.000000	0.000000
44.942297	18.385180	14.322208	0.069961	-0.152224	2.791027	0.000000	-0.012233	0.000000	0.000010	-0.000001	0.000000	0.000000
45.423547	18.330729	14.485090	-0.047164	-0.114836	2.785157	0.000000	0.001566	0.000000	0.000010	-0.000001	0.000000	0.000000
45.720870	18.363608	14.559560	-0.111397	-0.097595	2.785623	0.000000	0.008844	0.000000	0.000009	-0.000001	0.000000	0.000000
46.269930	18.176734	14.948287	0.449735	-0.614570	2.767909	0.000000	-0.073276	0.000000	0.000009	-0.000001	0.000000	0.000000
46.818990	17.387546	15.925277	0.979099	-1.175320	2.705398	0.000000	-0.154096	0.000000	0.000008	-0.000002	0.000000	0.000000
47.368050	16.051789	17.560119	1.439305	-1.819785	2.599197	0.000000	-0.232184	0.000000	0.000007	-0.000002	0.000000	0.000000
47.917110	14.263815	19.969260	1.797846	-2.593869	2.451191	0.000000	-0.306153	0.000000	0.000006	-0.000002	0.000000	0.000000
48.363070	12.872477	22.111142	1.333079	-2.188798	2.329951	0.000000	-0.237857	0.000000	0.000005	-0.000002	0.000000	0.000000
48.804030	11.877008	23.826041	0.932987	-1.685414	2.239525	0.000000	-0.172668	0.000000	0.000004	-0.000002	0.000000	0.000000
49.244990	11.214331	25.061354	0.575520	-1.105344	2.177385	0.000000	-0.109445	0.000000	0.000003	-0.000002	0.000000	0.000000
49.685950	10.854168	25.760877	0.244348	-0.474983	2.142822	0.000000	-0.047469	0.000000	0.000003	-0.000002	0.000000	0.000000
50.128160	10.780188	25.892498	-0.049342	0.113446	2.135455	0.000000	0.008731	0.000000	0.000002	-0.000002	0.000000	0.000000
50.425482	10.817750	25.828496	-0.076990	0.101816	2.138051	0.000000	0.008731	0.000000	0.000001	-0.000002	0.000000	0.000000
50.758816	10.879408	25.764966	-0.107986	0.088776	2.140962	0.000000	0.008731	0.000000	0.000001	-0.000002	0.000000	0.000000
51.092149	10.961731	25.710128	-0.138982	0.075737	2.143872	0.000000	0.008731	0.000000	0.000000	-0.000002	0.000000	0.000000
51.426732	11.064919	25.664347	-0.080329	-0.145553	2.146772	0.000000	-0.008685	0.000000	-0.000000	-0.000002	0.000000	0.000000
51.724055	11.120727	25.754417	-0.080102	-0.220542	2.144190	0.000000	-0.013944	0.000000	-0.000001	-0.000002	0.000000	0.000000
52.165015	11.336589	25.662376	-0.411284	0.428478	2.151631	0.000000	0.047718	0.000000	-0.000002	-0.000002	0.000000	0.000000
52.605975	11.851678	25.004393	-0.761257	1.058003	2.186355	0.000000	0.109924	0.000000	-0.000002	-0.000002	0.000000	0.000000
53.046935	12.689527	23.810408	-1.146009	1.639389	2.248760	0.000000	0.173381	0.000000	-0.000003	-0.000002	0.000000	0.000000
53.487895	13.888415	22.134744	-1.583120	2.146185	2.339555	0.000000	0.238813	0.000000	-0.000004	-0.000002	0.000000	0.000000
53.933855	15.523670	20.028592	-2.096784	2.556669	2.461279	0.000000	0.307364	0.000000	-0.000005	-0.000002	0.000000	0.000000
54.482915	17.629049	17.658593	-1.715034	1.785276	2.609861	0.000000	0.233059	0.000000	-0.000006	-0.000002	0.000000	0.000000
55.031975	19.245814	16.061296	-1.212142	1.141044	2.716449	0.000000	0.154620	0.000000	-0.000007	-0.000002	0.000000	0.000000
55.581035	20.259765	15.122930	-0.623631	0.578086	2.779151	0.000000	0.073439	0.000000	-0.000007	-0.000001	0.000000	0.000000
56.130095	20.599282	14.776655	0.008931	0.056304	2.796856	0.000000	-0.009045	0.000000	-0.000008	-0.000001	0.000000	0.000000
56.428668	20.630427	14.726064	-0.059419	0.074528	2.796337	0.000000	-0.001737	0.000000	-0.000008	-0.000001	0.000000	0.000000
56.762001	20.675444	14.683966	-0.075633	0.051767	2.795758	0.000000	-0.001737	0.000000	-0.000009	-0.000001	0.000000	0.000000
57.095334	20.731271	14.657042	-0.091848	0.029005	2.795180	0.000000	-0.001737	0.000000	-0.000009	-0.000001	0.000000	0.000000
57.429918	20.798178	14.645276	-0.108123	0.006159	2.794599	0.000000	-0.001737	0.000000	-0.000010	-0.000001	0.000000	0.000000
57.727240	20.866773	14.647651	-0.177111	0.024131	2.794083	0.000000	0.005564	0.000000	-0.000010	-0.000001	0.000000	0.000000
58.276300	20.705296	14.902383	0.469466	-0.490812	2.774498	0.000000	-0.076800	0.000000	-0.000010	-0.000001	0.000000	0.000000
58.825360	19.847888	15.738348	1.082883	-1.040714	2.709998	0.000000	-0.157802	0.000000	-0.000011	-0.000000	0.000000	0.000000
59.374420	18.355111	17.215090	1.619810	-1.664745	2.601727	0.000000	-0.236005	0.000000	-0.000011	-0.000000	0.000000	0.000000
59.923480	16.332408	19.437795	2.042322	-2.407351	2.451606	0.000000	-0.310021	0.000000	-0.000011	0.000000	0.000000	0.000000
60.369440	14.749285	21.413323	1.520169	-2.003785	2.328639	0.000000	-0.241737	0.000000	-0.000011	-0.000000	0.000000	0.000000
60.810400	13.610707	22.968868	1.071670	-1.510424	2.236491	0.000000	-0.176604	0.000000	-0.000011	-0.000000	0.000000	0.000000
61.251360	12.844666	24.057226	0.672132	-0.948341	2.172594	0.000000	-0.113482	0.000000	-0.000011	-0.000001	0.000000	0.000000
61.692320	12.416164	24.628879	0.303303	-0.343108	2.136220	0.000000	-0.051653	0.000000	-0.000012	-0.000001	0.000000	0.000000
62.134530	12.305677	24.657273	-0.021592	0.217207	2.126960	0.000000	0.004372	0.000000	-0.000012	-0.000001	0.000000	0.000000
62.431853	12.325704	24.531866	-0.045764	0.204580	2.128260	0.000000	0.004372	0.000000	-0.000012	-0.000001	0.000000	0.000000
62.765186	12.365247	24.400198	-0.072865	0.190424	2.129718	0.000000	0.004372	0.000000	-0.000013	-0.000001	0.000000	0.000000
63.098520	12.422857	24.277968	-0.099965	0.176267	2.131176	0.000000	0.004372	0.000000	-0.000013	-0.000001	0.000000	0.000000
63.433103	12.498851	24.164770	-0.127167	0.162058	2.132639	0.000000	0.004372	0.000000	-0.000014	-0.000001	0.000000	0.000000
63.730426	12.581658	24.072158	-0.120482	0.090390	2.133939	0.000000	-0.000862	0.000000	-0.000014	-0.000001	0.000000	0.000000
64.171386	12.848163	23.727343	-0.486188	0.688598	2.147101	0.000000	0.060610	0.000000	-0.000015	-0.000002	0.000000	0.000000
64.612346	13.445732	22.866810	-0.874107	1.255474	2.187495	0.000000	0.122771	0.000000	-0.000015	-0.000002	0.000000	0.000000
65.053306	14.401664	21.529714	-1.301962	1.765228	2.255582	0.000000	0.186331	0.000000	-0.000016	-0.000002	0.000000	0.000000
65.494266	15.759634	19.776889	-1.789299	2.194665	2.352137	0.000000	0.252014	0.000000	-0.000017	-0.000003	0.000000	0.000000
65.940226	17.604845	17.663291	-2.363075	2.524999	2.479833	0.000000	0.320968	0.000000	-0.000019	-0.000003	0.000000	0.000000
66.489286	19.970340	15.298881	-1.919687	1.806709	2.635699	0.000000	0.245944	0.000000	-0.000020	-0.000003	0.000000	0.000000
67.038346	21.771148	13.648367	-1.340702	1.217107	2.749111	0.000000	0.166557	0.000000	-0.000022	-0.000002	0.000000	0.000000
67.587406	22.880069	12.594187	-0.667017	0.714198	2.818058	0.000000	0.084216	0.000000	-0.000022	-0.000001	0.000000	0.000000
68.136466	23.218775	12.061255	0.053784	0.262158	2.841317	0.000000	0.000382	0.000000	-0.000023	-0.000000	0.000000	0.000000
68.435038	23.226732	11.893915	-0.019754	0.266789	2.843648	0.000000	0.007807	0.000000	-0.000023	-0.000001	0.000000	0.000000
68.768372	23.244687	11.726063	-0.034111	0.236768	2.846251	0.000000	0.007807	0.000000	-0.000023	-0.000001	0.000000	0.000000
69.101705	23.272213	11.578224	-0.048468	0.206748	2.848853	0.000000	0.007807	0.000000	-0.000023	-0.000001	0.000000	0.000000
69.436288	23.309468	11.449957	-0.062879	0.176615	2.851466	0.000000	0.007807	0.000000	-0.000024	-0.000001	0.000000	0.000000
69.733611	23.350666	11.352895	-0.136708	0.179507	2.853787	0.000000	0.015265	0.000000	-0.000024	-0.000001	0.000000	0.000000
70.282671	23.099745	11.383174	0.591003	-0.234979	2.838983	0.000000	-0.069111	0.000000	-0.000024	0.000000	0.000000	0.000000
