#ParticleID	Turn	x[m]	xp	y[m]	yp	z[m]	dE[GeV]# s	beta_x	beta_y	alpha_x	alpha_y	D_x	D_y	D_px	D_py	orbit_x	orbit_px	orbit_y	orbit_py
0.300000	11.807893	25.041661	-0.010479	-0.026994	2.618203	0.000000	-0.000023	0.000000	-0.000001	0.000001	0.000000	0.000000
0.601250	11.821893	25.061552	-0.035994	-0.039033	2.618196	0.000000	-0.000023	0.000000	-0.000000	0.000001	0.000000	0.000000
0.898573	11.850784	25.088296	-0.032115	-0.112438	2.618189	0.000000	-0.006444	0.000000	0.000000	0.000001	0.000000	0.000000
1.339533	12.031167	24.909148	-0.378504	0.517160	2.631640	0.000000	0.067515	0.000000	0.000001	0.000001	0.000000	0.000000
1.780493	12.523479	24.183039	-0.742186	1.123228	2.677843	0.000000	0.142243	0.000000	0.000001	0.000001	0.000000	0.000000
2.221453	13.350213	22.943007	-1.139776	1.678190	2.757324	0.000000	0.218591	0.000000	0.000002	0.000002	0.000000	0.000000
2.662413	14.549140	21.245472	-1.589440	2.156795	2.870987	0.000000	0.297429	0.000000	0.000003	0.000002	0.000000	0.000000
3.108373	16.195765	19.142777	-2.116007	2.538402	3.021989	0.000000	0.380144	0.000000	0.000003	0.000002	0.000000	0.000000
3.657433	18.307312	16.781108	-1.706976	1.788284	3.205438	0.000000	0.287106	0.000000	0.000004	0.000002	0.000000	0.000000
4.206493	19.900423	15.168798	-1.177372	1.165541	3.336329	0.000000	0.188976	0.000000	0.000005	0.000001	0.000000	0.000000
4.755553	20.862568	14.191007	-0.564604	0.625817	3.412339	0.000000	0.087494	0.000000	0.000006	0.000001	0.000000	0.000000
5.304613	21.125787	13.778088	0.088044	0.130669	3.432121	0.000000	-0.015540	0.000000	0.000006	0.000001	0.000000	0.000000
5.603185	21.110396	13.685214	0.018701	0.144394	3.430158	0.000000	-0.006573	0.000000	0.000007	0.000001	0.000000	0.000000
5.936519	21.103194	13.597240	0.002905	0.119529	3.427967	0.000000	-0.006573	0.000000	0.000007	0.000001	0.000000	0.000000
6.269852	21.106522	13.525842	-0.012890	0.094664	3.425775	0.000000	-0.006573	0.000000	0.000007	0.000001	0.000000	0.000000
6.604435	21.120453	13.470847	-0.028745	0.069706	3.423576	0.000000	-0.006573	0.000000	0.000008	0.000001	0.000000	0.000000
6.901758	21.141735	13.435991	-0.098070	0.082631	3.421621	0.000000	0.002366	0.000000	0.000008	0.000001	0.000000	0.000000
7.450818	20.889131	13.606157	0.555414	-0.394382	3.394720	0.000000	-0.100212	0.000000	0.000009	0.000001	0.000000	0.000000
7.999878	19.936318	14.312398	1.169666	-0.899485	3.311902	0.000000	-0.201013	0.000000	0.000009	0.000001	0.000000	0.000000
8.548938	18.350599	15.605020	1.701299	-1.468656	3.174638	0.000000	-0.298248	0.000000	0.000009	0.000000	0.000000	0.000000
9.097998	16.243981	17.576092	2.112761	-2.142437	2.985361	0.000000	-0.390194	0.000000	0.000009	-0.000000	0.000000	0.000000
9.543958	14.600464	19.332397	1.585687	-1.779174	2.829656	0.000000	-0.308490	0.000000	0.000009	0.000000	0.000000	0.000000
9.984918	13.405132	20.711399	1.135345	-1.336196	2.710870	0.000000	-0.230784	0.000000	0.000009	0.000000	0.000000	0.000000
10.425878	12.582679	21.671326	0.736873	-0.832423	2.625737	0.000000	-0.155706	0.000000	0.000009	0.000001	0.000000	0.000000
10.866838	12.095529	22.168503	0.372067	-0.290774	2.573289	0.000000	-0.082402	0.000000	0.000010	0.000001	0.000000	0.000000
11.309048	11.921292	22.179784	0.053386	0.209658	2.552907	0.000000	-0.016296	0.000000	0.000010	0.000001	0.000000	0.000000
11.606371	11.896983	22.059273	0.028375	0.195663	2.548061	0.000000	-0.016296	0.000000	0.000011	0.000001	0.000000	0.000000
12.086371	11.889125	21.882280	-0.012004	0.173071	2.540238	0.000000	-0.016296	0.000000	0.000011	0.000001	0.000000	0.000000
12.566371	11.920031	21.726977	-0.052383	0.150478	2.532415	0.000000	-0.016296	0.000000	0.000012	0.000001	0.000000	0.000000
13.046371	11.989701	21.593362	-0.092762	0.127886	2.524593	0.000000	-0.016296	0.000000	0.000012	0.000001	0.000000	0.000000
13.526371	12.098134	21.481437	-0.133141	0.105293	2.516770	0.000000	-0.016296	0.000000	0.000013	0.000001	0.000000	0.000000
14.007621	12.245765	21.390993	-0.173625	0.082642	2.508927	0.000000	-0.016296	0.000000	0.000013	0.000001	0.000000	0.000000
14.304943	12.356447	21.346012	-0.168339	0.016307	2.504081	0.000000	-0.022436	0.000000	0.000014	0.000001	0.000000	0.000000
14.745903	12.663413	21.098009	-0.530433	0.543967	2.509817	0.000000	0.048482	0.000000	0.000014	0.000001	0.000000	0.000000
15.186863	13.299157	20.393831	-0.916762	1.046877	2.546918	0.000000	0.119952	0.000000	0.000015	0.000002	0.000000	0.000000
15.627823	14.292723	19.265517	-1.344974	1.502154	2.615804	0.000000	0.192788	0.000000	0.000016	0.000002	0.000000	0.000000
16.068783	15.689505	17.764404	-1.834635	1.889085	2.717261	0.000000	0.267820	0.000000	0.000017	0.000003	0.000000	0.000000
16.514743	17.576979	15.937291	-2.412873	2.190806	2.854139	0.000000	0.346364	0.000000	0.000018	0.000003	0.000000	0.000000
17.063803	20.001239	13.897197	-1.976280	1.546736	3.020585	0.000000	0.259041	0.000000	0.000020	0.000002	0.000000	0.000000
17.612863	21.866110	12.500086	-1.400092	1.012836	3.137751	0.000000	0.167122	0.000000	0.000021	0.000002	0.000000	0.000000
18.161923	23.039866	11.646442	-0.725008	0.551078	3.203559	0.000000	0.072240	0.000000	0.000022	0.000001	0.000000	0.000000
18.710983	23.439599	11.275463	0.001287	0.128572	3.216842	0.000000	-0.023924	0.000000	0.000022	0.000000	0.000000	0.000000
19.009556	23.479212	11.189202	-0.072729	0.130886	3.212208	0.000000	-0.015521	0.000000	0.000022	0.000000	0.000000	0.000000
19.342889	23.532456	11.112045	-0.087001	0.100585	3.207034	0.000000	-0.015521	0.000000	0.000022	0.000000	0.000000	0.000000
19.676223	23.595214	11.055088	-0.101273	0.070284	3.201861	0.000000	-0.015521	0.000000	0.000022	0.000000	0.000000	0.000000
20.010806	23.668068	11.018096	-0.232863	0.094460	3.196687	0.000000	0.000318	0.000000	0.000023	0.000001	0.000000	0.000000
20.308129	23.810477	10.970021	-0.308307	0.095891	3.196782	0.000000	0.008669	0.000000	0.000023	0.000001	0.000000	0.000000
20.857189	23.738356	11.086714	0.438883	-0.309679	3.175324	0.000000	-0.086713	0.000000	0.000023	-0.000000	0.000000	0.000000
21.406249	22.857967	11.658199	1.155072	-0.737307	3.101843	0.000000	-0.180557	0.000000	0.000023	-0.000001	0.000000	0.000000
21.955309	21.231496	12.725182	1.789673	-1.217452	2.977641	0.000000	-0.271197	0.000000	0.000022	-0.000002	0.000000	0.000000
22.504369	18.973829	14.363660	2.297860	-1.784314	2.804921	0.000000	-0.357028	0.000000	0.000021	-0.000002	0.000000	0.000000
22.950329	17.194514	15.834783	1.706074	-1.500547	2.662993	0.000000	-0.279826	0.000000	0.000020	-0.000002	0.000000	0.000000
23.391289	15.919244	17.007750	1.196929	-1.149360	2.555922	0.000000	-0.206265	0.000000	0.000019	-0.000001	0.000000	0.000000
23.832249	15.067278	17.846666	0.742470	-0.745878	2.480740	0.000000	-0.135054	0.000000	0.000019	-0.000001	0.000000	0.000000
24.273209	14.599693	18.313363	0.321931	-0.308459	2.436590	0.000000	-0.065381	0.000000	0.000019	-0.000000	0.000000	0.000000
24.715418	14.495249	18.386359	-0.048446	0.097845	2.422967	0.000000	-0.002393	0.000000	0.000019	0.000000	0.000000	0.000000
25.012741	14.530170	18.333030	-0.069006	0.081520	2.422256	0.000000	-0.002393	0.000000	0.000019	0.000000	0.000000	0.000000
25.346075	14.583857	18.284785	-0.092056	0.063217	2.421458	0.000000	-0.002393	0.000000	0.000019	0.000000	0.000000	0.000000
25.679408	14.652910	18.248741	-0.115106	0.044914	2.420660	0.000000	-0.002393	0.000000	0.000019	0.000000	0.000000	0.000000
26.013991	14.737377	18.225203	-0.018683	-0.121310	2.419835	0.000000	-0.022024	0.000000	0.000019	0.000000	0.000000	0.000000
26.311314	14.754488	18.302261	-0.002689	-0.182738	2.413287	0.000000	-0.027941	0.000000	0.000019	0.000000	0.000000	0.000000
26.752274	14.938629	18.264949	-0.416486	0.267031	2.416075	0.000000	0.040598	0.000000	0.000019	0.000001	0.000000	0.000000
27.193234	15.494686	17.834840	-0.849312	0.704650	2.449159	0.000000	0.109600	0.000000	0.000020	0.000001	0.000000	0.000000
27.634194	16.448064	17.031503	-1.320940	1.110209	2.512915	0.000000	0.179850	0.000000	0.000020	0.000002	0.000000	0.000000
28.075154	17.842320	15.891489	-1.852918	1.465253	2.608071	0.000000	0.252148	0.000000	0.000021	0.000002	0.000000	0.000000
28.521114	19.765374	14.449493	-2.474522	1.754542	2.737312	0.000000	0.327761	0.000000	0.000022	0.000003	0.000000	0.000000
29.070174	22.209579	12.842887	-1.950740	1.188832	2.894610	0.000000	0.244371	0.000000	0.000023	0.000002	0.000000	0.000000
29.619234	23.999077	11.807633	-1.289168	0.707800	3.004863	0.000000	0.156647	0.000000	0.000024	0.000001	0.000000	0.000000
30.168294	25.007468	11.269991	-0.536536	0.277183	3.066115	0.000000	0.066143	0.000000	0.000024	0.000000	0.000000	0.000000
30.717354	25.163523	11.191667	0.253995	-0.133690	3.077281	0.000000	-0.025533	0.000000	0.000024	-0.000000	0.000000	0.000000
31.015927	25.054772	11.262094	0.175975	-0.131424	3.072057	0.000000	-0.017494	0.000000	0.000024	-0.000000	0.000000	0.000000
31.349260	24.942027	11.359746	0.162259	-0.161533	3.066226	0.000000	-0.017494	0.000000	0.000024	-0.000000	0.000000	0.000000
31.682593	24.838426	11.477471	0.148543	-0.191642	3.060395	0.000000	-0.017494	0.000000	0.000024	-0.000000	0.000000	0.000000
32.017177	24.743633	11.615823	0.134775	-0.221864	3.054542	0.000000	-0.017494	0.000000	0.000024	-0.000000	0.000000	0.000000
32.314499	24.667127	11.755738	0.058103	-0.218011	3.049340	0.000000	-0.009528	0.000000	0.000024	-0.000000	0.000000	0.000000
32.863559	24.180675	12.234328	0.822624	-0.658788	3.019230	0.000000	-0.099992	0.000000	0.000023	-0.000001	0.000000	0.000000
33.412619	22.881781	13.219719	1.529039	-1.146490	2.939864	0.000000	-0.188683	0.000000	0.000023	-0.000002	0.000000	0.000000
33.961679	20.862193	14.782096	2.127449	-1.715854	2.812650	0.000000	-0.274027	0.000000	0.000021	-0.000003	0.000000	0.000000
34.510739	18.264565	17.032745	2.575588	-2.407435	2.639845	0.000000	-0.354510	0.000000	0.000020	-0.000003	0.000000	0.000000
34.956699	16.244769	19.045889	1.969735	-2.087899	2.498089	0.000000	-0.281588	0.000000	0.000018	-0.000003	0.000000	0.000000
35.397659	14.738594	20.711122	1.458892	-1.674109	2.389301	0.000000	-0.212300	0.000000	0.000017	-0.000002	0.000000	0.000000
35.838619	13.651960	21.976314	1.014702	-1.184149	2.310504	0.000000	-0.145431	0.000000	0.000016	-0.000002	0.000000	0.000000
36.279579	12.935221	22.783901	0.616870	-0.640311	2.260801	0.000000	-0.080218	0.000000	0.000016	-0.000001	0.000000	0.000000
36.721789	12.554936	23.097449	0.277900	-0.124027	2.239598	0.000000	-0.021410	0.000000	0.000015	-0.000001	0.000000	0.000000
37.019112	12.397269	23.175087	0.252389	-0.137097	2.233233	0.000000	-0.021410	0.000000	0.000015	-0.000001	0.000000	0.000000
37.352445	12.238544	23.271369	0.223788	-0.151751	2.226096	0.000000	-0.021410	0.000000	0.000014	-0.000001	0.000000	0.000000
37.685779	12.098885	23.377421	0.195188	-0.166404	2.218960	0.000000	-0.021410	0.000000	0.000014	-0.000001	0.000000	0.000000
38.020362	11.977877	23.493694	0.166480	-0.181113	2.211797	0.000000	-0.021410	0.000000	0.000014	-0.000001	0.000000	0.000000
38.317684	11.886465	23.605278	0.170115	-0.252064	2.205431	0.000000	-0.026818	0.000000	0.000013	-0.000001	0.000000	0.000000
38.758644	11.887957	23.566111	-0.173512	0.340548	2.207532	0.000000	0.036354	0.000000	0.000013	-0.000001	0.000000	0.000000
39.199604	12.194838	23.009170	-0.525068	0.917666	2.237554	0.000000	0.099940	0.000000	0.000013	-0.000000	0.000000	0.000000
39.640564	12.821130	21.959794	-0.900611	1.453030	2.295839	0.000000	0.164664	0.000000	0.000013	-0.000000	0.000000	0.000000
40.081524	13.795445	20.465731	-1.317302	1.922282	2.383050	0.000000	0.231264	0.000000	0.000013	0.000000	0.000000	0.000000
40.527484	15.179873	18.572382	-1.798003	2.305358	2.501653	0.000000	0.300903	0.000000	0.000013	0.000001	0.000000	0.000000
41.076544	16.946488	16.444685	-1.400475	1.592680	2.646339	0.000000	0.225353	0.000000	0.000013	0.000000	0.000000	0.000000
41.625604	18.219331	15.033080	-0.904023	0.993445	2.748383	0.000000	0.145805	0.000000	0.000013	-0.000000	0.000000	0.000000
42.174664	18.908494	14.237021	-0.343716	0.464970	2.805976	0.000000	0.063672	0.000000	0.000013	-0.000001	0.000000	0.000000
42.723724	18.965299	13.999808	0.240869	-0.030385	2.818096	0.000000	-0.019591	0.000000	0.000012	-0.000001	0.000000	0.000000
43.022297	18.855925	14.002479	0.175002	-0.015137	2.814445	0.000000	-0.012229	0.000000	0.000012	-0.000001	0.000000	0.000000
43.502297	18.700516	14.033469	0.148766	-0.049425	2.808575	0.000000	-0.012229	0.000000	0.000011	-0.000001	0.000000	0.000000
43.982297	18.570293	14.097375	0.122531	-0.083712	2.802706	0.000000	-0.012229	0.000000	0.000011	-0.000001	0.000000	0.000000
44.462297	18.465257	14.194197	0.096295	-0.118000	2.796837	0.000000	-0.012229	0.000000	0.000010	-0.000001	0.000000	0.000000
44.942297	18.385407	14.323934	0.070059	-0.152287	2.790968	0.000000	-0.012229	0.000000	0.000010	-0.000001	0.000000	0.000000
45.423547	18.330861	14.486875	-0.047066	-0.114887	2.785100	0.000000	0.001570	0.000000	0.000009	-0.000001	0.000000	0.000000
45.720870	18.363682	14.561375	-0.111299	-0.097639	2.785567	0.000000	0.008848	0.000000	0.000009	-0.000001	0.000000	0.000000
46.269930	18.176700	14.950180	0.449832	-0.614670	2.767856	0.000000	-0.073271	0.000000	0.000008	-0.000001	0.000000	0.000000
46.818990	17.387409	15.927314	0.979189	-1.175483	2.705348	0.000000	-0.154089	0.000000	0.000008	-0.000002	0.000000	0.000000
47.368050	16.051560	17.562376	1.439382	-1.820023	2.599151	0.000000	-0.232175	0.000000	0.000007	-0.000002	0.000000	0.000000
47.917110	14.263511	19.971828	1.797903	-2.594200	2.451150	0.000000	-0.306142	0.000000	0.000006	-0.000002	0.000000	0.000000
48.363070	12.872122	22.113981	1.333137	-2.189071	2.329915	0.000000	-0.237848	0.000000	0.000005	-0.000002	0.000000	0.000000
48.804030	11.876602	23.829089	0.933047	-1.685616	2.239493	0.000000	-0.172659	0.000000	0.000004	-0.000002	0.000000	0.000000
49.244990	11.213869	25.064547	0.575586	-1.105467	2.177356	0.000000	-0.109437	0.000000	0.000003	-0.000002	0.000000	0.000000
49.685950	10.853645	25.764141	0.244421	-0.475021	2.142796	0.000000	-0.047462	0.000000	0.000003	-0.000002	0.000000	0.000000
50.128160	10.779595	25.895757	-0.049258	0.113487	2.135431	0.000000	0.008737	0.000000	0.000002	-0.000001	0.000000	0.000000
50.425482	10.817107	25.831730	-0.076907	0.101858	2.138029	0.000000	0.008737	0.000000	0.000002	-0.000001	0.000000	0.000000
50.758816	10.878711	25.768171	-0.107905	0.088820	2.140942	0.000000	0.008737	0.000000	0.000001	-0.000001	0.000000	0.000000
51.092149	10.960980	25.713304	-0.138902	0.075782	2.143855	0.000000	0.008737	0.000000	0.000001	-0.000001	0.000000	0.000000
51.426732	11.064115	25.667492	-0.080257	-0.145532	2.146757	0.000000	-0.008679	0.000000	0.000000	-0.000001	0.000000	0.000000
51.724055	11.119881	25.757549	-0.080033	-0.220527	2.144177	0.000000	-0.013937	0.000000	-0.000000	-0.000001	0.000000	0.000000
52.165015	11.335674	25.665458	-0.411195	0.428576	2.151620	0.000000	0.047724	0.000000	-0.000001	-0.000002	0.000000	0.000000
52.605975	11.850674	25.007354	-0.761143	1.058179	2.186347	0.000000	0.109930	0.000000	-0.000002	-0.000002	0.000000	0.000000
53.046935	12.688410	23.813182	-1.145865	1.639635	2.248754	0.000000	0.173387	0.000000	-0.000002	-0.000002	0.000000	0.000000
53.487895	13.887155	22.137275	-1.582939	2.146490	2.339551	0.000000	0.238819	0.000000	-0.000003	-0.000002	0.000000	0.000000
53.933855	15.522229	20.030830	-2.096558	2.557019	2.461278	0.000000	0.307370	0.000000	-0.000004	-0.000002	0.000000	0.000000
54.482915	17.627380	17.660496	-1.714846	1.785539	2.609863	0.000000	0.233065	0.000000	-0.000005	-0.000002	0.000000	0.000000
55.031975	19.243966	16.062950	-1.212006	1.141239	2.716453	0.000000	0.154626	0.000000	-0.000006	-0.000001	0.000000	0.000000
55.581035	20.257800	15.124400	-0.623556	0.578227	2.779158	0.000000	0.073444	0.000000	-0.000006	-0.000001	0.000000	0.000000
56.130095	20.597271	14.777996	0.008939	0.056401	2.796865	0.000000	-0.009041	0.000000	-0.000007	-0.000001	0.000000	0.000000
56.428668	20.628408	14.727345	-0.059406	0.074629	2.796348	0.000000	-0.001733	0.000000	-0.000007	-0.000001	0.000000	0.000000
56.762001	20.673418	14.685179	-0.075622	0.051869	2.795771	0.000000	-0.001733	0.000000	-0.000008	-0.000001	0.000000	0.000000
57.095334	20.729237	14.658186	-0.091838	0.029110	2.795194	0.000000	-0.001733	0.000000	-0.000008	-0.000001	0.000000	0.000000
57.429918	20.796138	14.646350	-0.108115	0.006265	2.794615	0.000000	-0.001733	0.000000	-0.000008	-0.000001	0.000000	0.000000
57.727240	20.864729	14.648661	-0.177098	0.024241	2.794100	0.000000	0.005568	0.000000	-0.000009	-0.000001	0.000000	0.000000
58.276300	20.703276	14.903288	0.469410	-0.490729	2.774518	0.000000	-0.076796	0.000000	-0.000009	-0.000001	0.000000	0.000000
58.825360	19.845965	15.739174	1.082763	-1.040652	2.710020	0.000000	-0.157798	0.000000	-0.000010	-0.000000	0.000000	0.000000
59.374420	18.353351	17.215857	1.619634	-1.664698	2.601751	0.000000	-0.236002	0.000000	-0.000010	-0.000000	0.000000	0.000000
59.923480	16.330867	19.438518	2.042102	-2.407318	2.451630	0.000000	-0.310019	0.000000	-0.000010	0.000000	0.000000	0.000000
60.369440	14.747919	21.414005	1.519997	-2.003724	2.328665	0.000000	-0.241735	0.000000	-0.000010	-0.000000	0.000000	0.000000
60.810400	13.609476	22.969485	1.071535	-1.510339	2.236518	0.000000	-0.176601	0.000000	-0.000010	-0.000000	0.000000	0.000000
61.251360	12.843539	24.057759	0.672030	-0.948235	2.172623	0.000000	-0.113478	0.000000	-0.000010	-0.000001	0.000000	0.000000
61.692320	12.415115	24.629312	0.303227	-0.342987	2.136250	0.000000	-0.051648	0.000000	-0.000010	-0.000001	0.000000	0.000000
62.134530	12.304684	24.657594	-0.021646	0.217338	2.126993	0.000000	0.004378	0.000000	-0.000011	-0.000001	0.000000	0.000000
62.431853	12.324744	24.532109	-0.045821	0.204711	2.128295	0.000000	0.004378	0.000000	-0.000011	-0.000001	0.000000	0.000000
62.765186	12.364325	24.400355	-0.072923	0.190554	2.129755	0.000000	0.004378	0.000000	-0.000012	-0.000001	0.000000	0.000000
63.098520	12.421975	24.278038	-0.100026	0.176397	2.131214	0.000000	0.004378	0.000000	-0.000012	-0.000001	0.000000	0.000000
63.433103	12.498011	24.164754	-0.127230	0.162186	2.132679	0.000000	0.004378	0.000000	-0.000012	-0.000001	0.000000	0.000000
63.730426	12.580856	24.072065	-0.120549	0.090519	2.133981	0.000000	-0.000856	0.000000	-0.000013	-0.000001	0.000000	0.000000
64.171386	12.847414	23.727138	-0.486239	0.688721	2.147145	0.000000	0.060616	0.000000	-0.000013	-0.000001	0.000000	0.000000
64.612346	13.445021	22.866502	-0.874144	1.255586	2.187542	0.000000	0.122779	0.000000	-0.000014	-0.000002	0.000000	0.000000
65.053306	14.400980	21.529313	-1.301986	1.765324	2.255633	0.000000	0.186341	0.000000	-0.000015	-0.000002	0.000000	0.000000
65.494266	15.758967	19.776413	-1.789312	2.194740	2.352193	0.000000	0.252024	0.000000	-0.000016	-0.000003	0.000000	0.000000
65.940226	17.604184	17.662759	-2.363078	2.525049	2.479894	0.000000	0.320980	0.000000	-0.000017	-0.000003	0.000000	0.000000
66.489286	19.969698	15.298292	-1.919719	1.806763	2.635765	0.000000	0.245954	0.000000	-0.000019	-0.000002	0.000000	0.000000
67.038346	21.770556	13.647714	-1.340760	1.217170	2.749182	0.000000	0.166565	0.000000	-0.000020	-0.000002	0.000000	0.000000
67.587406	22.879554	12.593460	-0.667097	0.714272	2.818133	0.000000	0.084222	0.000000	-0.000021	-0.000001	0.000000	0.000000
68.136466	23.218359	12.060436	0.053686	0.262251	2.841394	0.000000	0.000384	0.000000	-0.000021	-0.000000	0.000000	0.000000
68.435038	23.226373	11.893044	-0.019850	0.266875	2.843726	0.000000	0.007810	0.000000	-0.000021	-0.000001	0.000000	0.000000
68.768372	23.244392	11.725135	-0.034207	0.236852	2.846330	0.000000	0.007810	0.000000	-0.000021	-0.000001	0.000000	0.000000
69.101705	23.271983	11.577241	-0.048564	0.206828	2.848933	0.000000	0.007810	0.000000	-0.000021	-0.000001	0.000000	0.000000
69.436288	23.309302	11.448922	-0.062975	0.176692	2.851546	0.000000	0.007810	0.000000	-0.000022	-0.000001	0.000000	0.000000
69.733611	23.350558	11.351816	-0.136803	0.179577	2.853869	0.000000	0.015268	0.000000	-0.000022	-0.000001	0.000000	0.000000
70.282671	23.099743	11.382001	0.590907	-0.234878	2.839065	0.000000	-0.069111	0.000000	-0.000022	0.000000	0.000000	0.000000
