#ParticleID	Turn	x[m]	xp	y[m]	yp	z[m]	dE[GeV]# s	beta_x	beta_y	alpha_x	alpha_y	D_x	D_y	D_px	D_py	orbit_x	orbit_px	orbit_y	orbit_py
0.300000	11.833366	24.943008	-0.013569	-0.027778	2.618324	0.000000	-0.000068	0.000000	-0.000001	0.000000	0.000000	0.000000
0.601250	11.849212	24.963385	-0.039031	-0.039865	2.618303	0.000000	-0.000068	0.000000	-0.000001	0.000000	0.000000	0.000000
0.898573	11.879894	24.990638	-0.035029	-0.113079	2.618283	0.000000	-0.006489	0.000000	-0.000000	0.000000	0.000000	0.000000
1.339533	12.063160	24.813194	-0.382157	0.513952	2.631716	0.000000	0.067472	0.000000	-0.000000	0.000000	0.000000	0.000000
1.780493	12.559079	24.090996	-0.746744	1.117600	2.677901	0.000000	0.142202	0.000000	-0.000000	0.000000	0.000000	0.000000
2.221453	13.390307	22.856905	-1.145448	1.670397	2.757364	0.000000	0.218551	0.000000	-0.000000	0.000000	0.000000	0.000000
2.662413	14.594820	21.167070	-1.596484	2.147193	2.871010	0.000000	0.297390	0.000000	-0.000000	0.000000	0.000000	0.000000
3.108373	16.248464	19.073593	-2.124761	2.527422	3.021996	0.000000	0.380105	0.000000	-0.000000	0.000000	0.000000	0.000000
3.657433	18.368935	16.722435	-1.714380	1.780007	3.205424	0.000000	0.287067	0.000000	-0.000000	0.000000	0.000000	0.000000
4.206493	19.969190	15.118007	-1.182904	1.159377	3.336295	0.000000	0.188938	0.000000	-0.000000	0.000000	0.000000	0.000000
4.755553	20.936196	14.146031	-0.567873	0.621327	3.412286	0.000000	0.087457	0.000000	-0.000000	0.000000	0.000000	0.000000
5.304613	21.201647	13.737276	0.087269	0.127533	3.432049	0.000000	-0.015574	0.000000	-0.000000	0.000000	0.000000	0.000000
5.603185	21.186824	13.646349	0.017776	0.141111	3.430076	0.000000	-0.006607	0.000000	-0.000000	0.000000	0.000000	0.000000
5.936519	21.180219	13.560580	0.002038	0.116198	3.427874	0.000000	-0.006607	0.000000	-0.000000	0.000000	0.000000	0.000000
6.269852	21.184106	13.491419	-0.013700	0.091285	3.425671	0.000000	-0.006607	0.000000	-0.000000	0.000000	0.000000	0.000000
6.604435	21.198559	13.438701	-0.029497	0.066278	3.423461	0.000000	-0.006607	0.000000	-0.000000	0.000000	0.000000	0.000000
6.901758	21.220273	13.405896	-0.098979	0.079084	3.421496	0.000000	0.002333	0.000000	-0.000000	0.000000	0.000000	0.000000
7.450818	20.967217	13.579504	0.557139	-0.397142	3.394578	0.000000	-0.100241	0.000000	-0.000000	0.000000	0.000000	0.000000
7.999878	20.011112	14.288438	1.173904	-0.901656	3.311746	0.000000	-0.201037	0.000000	0.000000	0.000000	0.000000	0.000000
8.548938	18.419489	15.583193	1.707750	-1.470393	3.174469	0.000000	-0.298267	0.000000	0.000000	0.000000	0.000000	0.000000
9.097998	16.304775	17.555991	2.120969	-2.143863	2.985184	0.000000	-0.390207	0.000000	0.000000	0.000000	0.000000	0.000000
9.543958	14.654761	19.313931	1.592101	-1.781403	2.829472	0.000000	-0.308508	0.000000	0.000000	0.000000	0.000000	0.000000
9.984918	13.454447	20.695213	1.140272	-1.339118	2.710677	0.000000	-0.230807	0.000000	0.000000	0.000000	0.000000	0.000000
10.425878	12.628219	21.657975	0.740538	-0.835905	2.625533	0.000000	-0.155735	0.000000	0.000000	0.000000	0.000000	0.000000
10.866838	12.138330	22.158413	0.374638	-0.294659	2.573071	0.000000	-0.082436	0.000000	0.000000	0.000000	0.000000	0.000000
11.309048	11.962258	22.173244	0.055084	0.205558	2.552673	0.000000	-0.016336	0.000000	0.000000	0.000000	0.000000	0.000000
11.606371	11.936915	22.055165	0.030154	0.191583	2.547816	0.000000	-0.016336	0.000000	0.000000	0.000000	0.000000	0.000000
12.086371	11.927287	21.882075	-0.010094	0.169020	2.539974	0.000000	-0.016336	0.000000	0.000000	0.000000	0.000000	0.000000
12.566371	11.956296	21.730646	-0.050342	0.146458	2.532133	0.000000	-0.016336	0.000000	0.000000	0.000000	0.000000	0.000000
13.046371	12.023944	21.600877	-0.090590	0.123895	2.524291	0.000000	-0.016336	0.000000	0.000001	0.000000	0.000000	0.000000
13.526371	12.130230	21.492767	-0.130838	0.101333	2.516450	0.000000	-0.016336	0.000000	0.000001	0.000000	0.000000	0.000000
14.007621	12.275581	21.406121	-0.171191	0.078712	2.508588	0.000000	-0.016336	0.000000	0.000001	0.000000	0.000000	0.000000
14.304943	12.384792	21.363470	-0.165750	0.012347	2.503731	0.000000	-0.022476	0.000000	0.000001	0.000000	0.000000	0.000000
14.745903	12.689730	21.118727	-0.528407	0.540564	2.509449	0.000000	0.048433	0.000000	0.000001	0.000000	0.000000	0.000000
15.186863	13.323900	20.417246	-0.915205	1.044186	2.546526	0.000000	0.119893	0.000000	0.000001	0.000000	0.000000	0.000000
15.627823	14.316273	19.290944	-1.343816	1.500299	2.615385	0.000000	0.192719	0.000000	0.000001	0.000000	0.000000	0.000000
16.068783	15.712188	17.791067	-1.833822	1.888149	2.716810	0.000000	0.267739	0.000000	0.000001	0.000000	0.000000	0.000000
16.514743	17.599077	15.964358	-2.412368	2.190839	2.853651	0.000000	0.346272	0.000000	0.000001	0.000000	0.000000	0.000000
17.063803	20.022210	13.924526	-1.974747	1.546225	3.020051	0.000000	0.258965	0.000000	0.000001	0.000000	0.000000	0.000000
17.612863	21.884879	12.528289	-1.397639	1.011744	3.137181	0.000000	0.167064	0.000000	0.000001	0.000000	0.000000	0.000000
18.161923	23.055514	11.676196	-0.721810	0.549328	3.202963	0.000000	0.072201	0.000000	0.000001	0.000000	0.000000	0.000000
18.710983	23.451426	11.307554	0.005005	0.126040	3.216231	0.000000	-0.023944	0.000000	0.000001	0.000000	0.000000	0.000000
19.009556	23.488840	11.222722	-0.069040	0.128540	3.211591	0.000000	-0.015540	0.000000	0.000001	0.000000	0.000000	0.000000
19.342889	23.539619	11.147093	-0.083299	0.098348	3.206411	0.000000	-0.015540	0.000000	0.000001	0.000000	0.000000	0.000000
19.676223	23.599905	11.091592	-0.097558	0.068155	3.201231	0.000000	-0.015540	0.000000	0.000001	0.000000	0.000000	0.000000
20.010806	23.670269	11.055988	-0.229146	0.092628	3.196051	0.000000	0.000295	0.000000	0.000001	0.000000	0.000000	0.000000
20.308129	23.810460	11.008971	-0.304578	0.094269	3.196138	0.000000	0.008645	0.000000	0.000001	0.000000	0.000000	0.000000
20.857189	23.734264	11.128054	0.442532	-0.312434	3.174674	0.000000	-0.086715	0.000000	0.000001	0.000000	0.000000	0.000000
21.406249	22.850032	11.703271	1.158383	-0.741390	3.101197	0.000000	-0.180538	0.000000	0.000001	-0.000000	0.000000	0.000000
21.955309	21.220221	12.775593	1.792412	-1.223154	2.977011	0.000000	-0.271158	0.000000	0.000001	-0.000000	0.000000	0.000000
22.504369	18.959953	14.421401	2.299833	-1.792040	2.804317	0.000000	-0.356968	0.000000	0.000001	-0.000000	0.000000	0.000000
22.950329	17.178849	15.898844	1.708132	-1.506934	2.662412	0.000000	-0.279782	0.000000	0.000001	-0.000000	0.000000	0.000000
23.391289	15.901690	17.076746	1.199169	-1.154122	2.555357	0.000000	-0.206236	0.000000	0.000001	-0.000000	0.000000	0.000000
23.832249	15.047633	17.919064	0.744992	-0.748799	2.480184	0.000000	-0.135039	0.000000	0.000001	-0.000000	0.000000	0.000000
24.273209	14.577658	18.387472	0.324851	-0.309405	2.436038	0.000000	-0.065380	0.000000	0.000001	0.000000	0.000000	0.000000
24.715418	14.470405	18.460411	-0.045049	0.098727	2.422412	0.000000	-0.002406	0.000000	0.000001	0.000000	0.000000	0.000000
25.012741	14.503315	18.406539	-0.065638	0.082464	2.421696	0.000000	-0.002406	0.000000	0.000001	0.000000	0.000000	0.000000
25.346075	14.554768	18.357641	-0.088720	0.064231	2.420894	0.000000	-0.002406	0.000000	0.000001	0.000000	0.000000	0.000000
25.679408	14.621608	18.320897	-0.111802	0.045999	2.420092	0.000000	-0.002406	0.000000	0.000001	0.000000	0.000000	0.000000
26.013991	14.703876	18.296611	-0.015684	-0.120733	2.419263	0.000000	-0.022033	0.000000	0.000001	0.000000	0.000000	0.000000
26.311314	14.719216	18.373306	0.000186	-0.182276	2.412712	0.000000	-0.027949	0.000000	0.000001	0.000000	0.000000	0.000000
26.752274	14.900431	18.334738	-0.412700	0.269407	2.415493	0.000000	0.040575	0.000000	0.000001	0.000000	0.000000	0.000000
27.193234	15.452685	17.901726	-0.844442	0.708833	2.448563	0.000000	0.109561	0.000000	0.000001	0.000000	0.000000	0.000000
27.634194	16.401210	17.093970	-1.314764	1.116007	2.512300	0.000000	0.179796	0.000000	0.000001	0.000000	0.000000	0.000000
28.075154	17.789341	15.948224	-1.845153	1.472404	2.607429	0.000000	0.252078	0.000000	0.000002	0.000000	0.000000	0.000000
28.521114	19.704622	14.499363	-2.464796	1.762723	2.736636	0.000000	0.327674	0.000000	0.000002	0.000000	0.000000	0.000000
29.070174	22.138947	12.884863	-1.942581	1.195114	2.893893	0.000000	0.244306	0.000000	0.000002	0.000000	0.000000	0.000000
29.619234	23.920614	11.843543	-1.283152	0.712631	3.004117	0.000000	0.156606	0.000000	0.000002	0.000000	0.000000	0.000000
30.168294	24.923777	11.301232	-0.533087	0.280907	3.065354	0.000000	0.066127	0.000000	0.000002	0.000000	0.000000	0.000000
30.717354	25.077575	11.219302	0.254633	-0.130808	3.076517	0.000000	-0.025525	0.000000	0.000002	-0.000000	0.000000	0.000000
31.015927	24.968331	11.287936	0.176779	-0.128381	3.071296	0.000000	-0.017486	0.000000	0.000002	-0.000000	0.000000	0.000000
31.349260	24.855067	11.383529	0.163011	-0.158398	3.065467	0.000000	-0.017486	0.000000	0.000002	-0.000000	0.000000	0.000000
31.682593	24.750982	11.499134	0.149244	-0.188415	3.059639	0.000000	-0.017486	0.000000	0.000002	-0.000000	0.000000	0.000000
32.017177	24.655737	11.635295	0.135425	-0.218544	3.053788	0.000000	-0.017486	0.000000	0.000002	-0.000000	0.000000	0.000000
32.314499	24.578858	11.773212	0.058926	-0.214557	3.048589	0.000000	-0.009521	0.000000	0.000002	0.000000	0.000000	0.000000
32.863559	24.093118	12.248198	0.820514	-0.655638	3.018488	0.000000	-0.099961	0.000000	0.000002	-0.000000	0.000000	0.000000
33.412619	22.798094	13.230191	1.524144	-1.143419	2.939145	0.000000	-0.188628	0.000000	0.000002	-0.000000	0.000000	0.000000
33.961679	20.785260	14.789138	2.120117	-1.712642	2.811967	0.000000	-0.273949	0.000000	0.000002	-0.000000	0.000000	0.000000
34.510739	18.196794	17.036078	2.566336	-2.403854	2.639209	0.000000	-0.354411	0.000000	0.000002	-0.000000	0.000000	0.000000
34.956699	16.184317	19.045799	1.962517	-2.083833	2.497493	0.000000	-0.281504	0.000000	0.000002	-0.000000	0.000000	0.000000
35.397659	14.683744	20.707301	1.453362	-1.669749	2.388737	0.000000	-0.212232	0.000000	0.000001	-0.000000	0.000000	0.000000
35.838619	13.601338	21.968591	1.010606	-1.179693	2.309967	0.000000	-0.145377	0.000000	0.000001	-0.000000	0.000000	0.000000
36.279579	12.887650	22.772280	0.614022	-0.635962	2.260284	0.000000	-0.080178	0.000000	0.000001	-0.000000	0.000000	0.000000
36.721789	12.509381	23.082102	0.276062	-0.119952	2.239096	0.000000	-0.021382	0.000000	0.000001	-0.000000	0.000000	0.000000
37.019112	12.352827	23.157316	0.250483	-0.133019	2.232738	0.000000	-0.021382	0.000000	0.000001	-0.000000	0.000000	0.000000
37.352445	12.195398	23.250878	0.221805	-0.147668	2.225611	0.000000	-0.021382	0.000000	0.000001	-0.000000	0.000000	0.000000
37.685779	12.057087	23.354206	0.193128	-0.162317	2.218483	0.000000	-0.021382	0.000000	0.000001	-0.000000	0.000000	0.000000
38.020362	11.937483	23.467743	0.164343	-0.177021	2.211329	0.000000	-0.021382	0.000000	0.000001	-0.000000	0.000000	0.000000
38.317684	11.847363	23.576892	0.167816	-0.247904	2.204971	0.000000	-0.026790	0.000000	0.000001	-0.000000	0.000000	0.000000
38.758644	11.850494	23.534401	-0.174945	0.343899	2.207082	0.000000	0.036371	0.000000	0.000001	-0.000000	0.000000	0.000000
39.199604	12.158283	22.974919	-0.525699	0.920054	2.237108	0.000000	0.099945	0.000000	0.000001	0.000000	0.000000	0.000000
39.640564	12.784790	21.923904	-0.900471	1.454348	2.295392	0.000000	0.164658	0.000000	0.000001	0.000000	0.000000	0.000000
40.081524	13.758639	20.429174	-1.316382	1.922470	2.382598	0.000000	0.231246	0.000000	0.000001	0.000000	0.000000	0.000000
40.527484	15.141882	18.536172	-1.796259	2.304399	2.501190	0.000000	0.300873	0.000000	0.000001	0.000000	0.000000	0.000000
41.076544	16.907360	16.409025	-1.400161	1.592631	2.645864	0.000000	0.225338	0.000000	0.000001	0.000000	0.000000	0.000000
41.625604	18.180658	14.996978	-0.905163	0.994303	2.747904	0.000000	0.145806	0.000000	0.000001	0.000000	0.000000	0.000000
42.174664	18.871839	14.199453	-0.346229	0.466798	2.805501	0.000000	0.063688	0.000000	0.000001	-0.000000	0.000000	0.000000
42.723724	18.932081	13.959645	0.237161	-0.027459	2.817634	0.000000	-0.019560	0.000000	0.000001	-0.000000	0.000000	0.000000
43.022297	18.824874	13.960649	0.171369	-0.012376	2.813992	0.000000	-0.012198	0.000000	0.000001	-0.000000	0.000000	0.000000
43.502297	18.672958	13.989036	0.145122	-0.046763	2.808137	0.000000	-0.012198	0.000000	0.000001	-0.000000	0.000000	0.000000
43.982297	18.546240	14.050435	0.118875	-0.081151	2.802282	0.000000	-0.012198	0.000000	0.000001	-0.000000	0.000000	0.000000
44.462297	18.444718	14.144845	0.092628	-0.115539	2.796427	0.000000	-0.012198	0.000000	0.000001	-0.000000	0.000000	0.000000
44.942297	18.368394	14.272268	0.066381	-0.149926	2.790572	0.000000	-0.012198	0.000000	0.000001	-0.000000	0.000000	0.000000
45.423547	18.317393	14.432986	-0.050689	-0.112893	2.784719	0.000000	0.001599	0.000000	0.000001	-0.000000	0.000000	0.000000
45.720870	18.352373	14.506320	-0.114913	-0.095854	2.785194	0.000000	0.008876	0.000000	0.000001	-0.000000	0.000000	0.000000
46.269930	18.169536	14.892235	0.445942	-0.611159	2.767501	0.000000	-0.073230	0.000000	0.000001	-0.000000	0.000000	0.000000
46.818990	17.384544	15.864457	0.975297	-1.169995	2.705017	0.000000	-0.154038	0.000000	0.000001	-0.000000	0.000000	0.000000
47.368050	16.052844	17.492235	1.435763	-1.812168	2.598851	0.000000	-0.232113	0.000000	0.000001	-0.000000	0.000000	0.000000
47.917110	14.268502	19.891513	1.794813	-2.583417	2.450885	0.000000	-0.306072	0.000000	0.000001	-0.000000	0.000000	0.000000
48.363070	12.879772	22.024803	1.330240	-2.180064	2.329679	0.000000	-0.237784	0.000000	0.000001	-0.000000	0.000000	0.000000
48.804030	11.886772	23.732902	0.930209	-1.678788	2.239284	0.000000	-0.172601	0.000000	0.000001	-0.000000	0.000000	0.000000
49.244990	11.226564	24.963417	0.572676	-1.101128	2.177171	0.000000	-0.109384	0.000000	0.000001	-0.000000	0.000000	0.000000
49.685950	10.868987	25.660359	0.241307	-0.473369	2.142633	0.000000	-0.047413	0.000000	0.000001	-0.000000	0.000000	0.000000
50.128160	10.797834	25.791737	-0.052674	0.112631	2.135288	0.000000	0.008782	0.000000	0.000001	-0.000000	0.000000	0.000000
50.425482	10.837367	25.728233	-0.080286	0.100957	2.137899	0.000000	0.008782	0.000000	0.000001	-0.000000	0.000000	0.000000
50.758816	10.901209	25.665291	-0.111242	0.087869	2.140827	0.000000	0.008782	0.000000	0.000001	-0.000000	0.000000	0.000000
51.092149	10.985690	25.611074	-0.142198	0.074781	2.143754	0.000000	0.008782	0.000000	0.000001	-0.000000	0.000000	0.000000
51.426732	11.091015	25.565947	-0.083293	-0.145760	2.146670	0.000000	-0.008633	0.000000	0.000000	-0.000000	0.000000	0.000000
51.724055	11.148571	25.656154	-0.082947	-0.220553	2.144104	0.000000	-0.013891	0.000000	0.000000	-0.000000	0.000000	0.000000
52.165015	11.367244	25.565269	-0.414836	0.425874	2.151566	0.000000	0.047769	0.000000	0.000000	-0.000000	0.000000	0.000000
52.605975	11.885836	24.910687	-0.765679	1.052925	2.186312	0.000000	0.109973	0.000000	0.000000	-0.000000	0.000000	0.000000
53.046935	12.728041	23.722190	-1.151502	1.632068	2.248737	0.000000	0.173430	0.000000	0.000000	-0.000000	0.000000	0.000000
53.487895	13.932337	22.053855	-1.589935	2.136953	2.339553	0.000000	0.238861	0.000000	0.000000	-0.000000	0.000000	0.000000
53.933855	15.574381	19.956641	-2.105248	2.545942	2.461298	0.000000	0.307413	0.000000	0.000000	-0.000000	0.000000	0.000000
54.482915	17.688395	17.596860	-1.722202	1.777284	2.609905	0.000000	0.233106	0.000000	0.000000	-0.000000	0.000000	0.000000
55.031975	19.312083	16.007105	-1.217508	1.135218	2.716517	0.000000	0.154666	0.000000	0.000000	-0.000000	0.000000	0.000000
55.581035	20.330758	15.074143	-0.626816	0.574011	2.779243	0.000000	0.073481	0.000000	0.000000	-0.000000	0.000000	0.000000
56.130095	20.672464	14.731519	0.008152	0.053690	2.796969	0.000000	-0.009006	0.000000	0.000000	-0.000000	0.000000	0.000000
56.428668	20.704172	14.682577	-0.060335	0.071741	2.796462	0.000000	-0.001698	0.000000	0.000000	-0.000000	0.000000	0.000000
56.762001	20.749781	14.642356	-0.076494	0.048921	2.795896	0.000000	-0.001698	0.000000	0.000000	-0.000000	0.000000	0.000000
57.095334	20.806163	14.617348	-0.092652	0.026102	2.795330	0.000000	-0.001698	0.000000	0.000000	-0.000000	0.000000	0.000000
57.429918	20.873590	14.607546	-0.108871	0.003197	2.794762	0.000000	-0.001698	0.000000	0.000000	-0.000000	0.000000	0.000000
57.727240	20.942614	14.611696	-0.178003	0.021020	2.794257	0.000000	0.005603	0.000000	-0.000000	-0.000000	0.000000	0.000000
58.276300	20.780717	14.869293	0.471120	-0.492949	2.774692	0.000000	-0.076767	0.000000	-0.000000	-0.000000	0.000000	0.000000
58.825360	19.920141	15.707142	1.086965	-1.042029	2.710208	0.000000	-0.157775	0.000000	-0.000000	-0.000000	0.000000	0.000000
59.374420	18.421673	17.184922	1.626032	-1.665331	2.601950	0.000000	-0.235985	0.000000	-0.000000	-0.000000	0.000000	0.000000
59.923480	16.391157	19.407892	2.050245	-2.407251	2.451837	0.000000	-0.310009	0.000000	-0.000000	-0.000000	0.000000	0.000000
60.369440	14.801763	21.383780	1.526360	-2.004687	2.328877	0.000000	-0.241719	0.000000	-0.000000	-0.000000	0.000000	0.000000
60.810400	13.658376	22.940546	1.076425	-1.512281	2.236738	0.000000	-0.176580	0.000000	-0.000000	-0.000000	0.000000	0.000000
61.251360	12.888693	24.030933	0.675669	-0.951067	2.172853	0.000000	-0.113451	0.000000	-0.000000	-0.000000	0.000000	0.000000
61.692320	12.457548	24.605330	0.305782	-0.346581	2.136494	0.000000	-0.051615	0.000000	-0.000000	-0.000000	0.000000	0.000000
62.134530	12.345293	24.637068	-0.019961	0.213203	2.127252	0.000000	0.004417	0.000000	-0.000000	-0.000000	0.000000	0.000000
62.431853	12.364326	24.514039	-0.044055	0.200587	2.128566	0.000000	0.004417	0.000000	-0.000000	-0.000000	0.000000	0.000000
62.765186	12.402700	24.385029	-0.071066	0.186442	2.130038	0.000000	0.004417	0.000000	-0.000000	-0.000000	0.000000	0.000000
63.098520	12.459082	24.265450	-0.098078	0.172297	2.131510	0.000000	0.004417	0.000000	-0.000000	-0.000000	0.000000	0.000000
63.433103	12.533783	24.154905	-0.125191	0.158099	2.132988	0.000000	0.004417	0.000000	-0.000001	-0.000000	0.000000	0.000000
63.730426	12.615391	24.064643	-0.118347	0.086469	2.134302	0.000000	-0.000817	0.000000	-0.000001	-0.000000	0.000000	0.000000
64.171386	12.880336	23.723343	-0.484769	0.684579	2.147484	0.000000	0.060664	0.000000	-0.000001	-0.000000	0.000000	0.000000
64.612346	13.476943	22.866330	-0.873338	1.251542	2.187904	0.000000	0.122836	0.000000	-0.000001	-0.000000	0.000000	0.000000
65.053306	14.432470	21.532597	-1.301807	1.761560	2.256021	0.000000	0.186407	0.000000	-0.000001	-0.000000	0.000000	0.000000
65.494266	15.790572	19.782828	-1.789752	2.191429	2.352612	0.000000	0.252101	0.000000	-0.000001	-0.000000	0.000000	0.000000
65.940226	17.636467	17.671864	-2.364160	2.522348	2.480348	0.000000	0.321069	0.000000	-0.000001	-0.000000	0.000000	0.000000
66.489286	20.002469	15.310260	-1.919516	1.804218	2.636263	0.000000	0.246027	0.000000	-0.000001	-0.000000	0.000000	0.000000
67.038346	21.802402	13.662476	-1.339287	1.214597	2.749714	0.000000	0.166621	0.000000	-0.000001	-0.000000	0.000000	0.000000
67.587406	22.909130	12.611144	-0.664458	0.711490	2.818690	0.000000	0.084260	0.000000	-0.000001	-0.000000	0.000000	0.000000
68.136466	23.244478	12.081381	0.057306	0.259061	2.841968	0.000000	0.000405	0.000000	-0.000001	-0.000000	0.000000	0.000000
68.435038	23.250361	11.915836	-0.016274	0.263827	2.844305	0.000000	0.007830	0.000000	-0.000001	-0.000000	0.000000	0.000000
68.768372	23.265990	11.749925	-0.030614	0.233905	2.846916	0.000000	0.007830	0.000000	-0.000001	-0.000000	0.000000	0.000000
69.101705	23.291180	11.603962	-0.044955	0.203984	2.849526	0.000000	0.007830	0.000000	-0.000001	-0.000000	0.000000	0.000000
69.436288	23.326078	11.477511	-0.059349	0.173951	2.852145	0.000000	0.007830	0.000000	-0.000001	-0.000000	0.000000	0.000000
69.733611	23.365172	11.382007	-0.133190	0.177002	2.854474	0.000000	0.015288	0.000000	-0.000001	-0.000000	0.000000	0.000000
70.282671	23.110157	11.415494	0.594898	-0.238351	2.839676	0.000000	-0.069110	0.000000	-0.000001	-0.000000	0.000000	0.000000
