#ParticleID	Turn	x[m]	xp	y[m]	yp	z[m]	dE[GeV]# s	beta_x	beta_y	alpha_x	alpha_y	D_x	D_y	D_px	D_py	orbit_x	orbit_px	orbit_y	orbit_py
0.300000	11.823298	24.979785	-0.012205	-0.027602	2.618139	0.000000	0.000002	0.000000	-0.000000	0.000001	0.000000	0.000000
0.601250	11.838328	25.000051	-0.037688	-0.039671	2.618140	0.000000	0.000002	0.000000	-0.000000	0.000001	0.000000	0.000000
0.898573	11.868217	25.027183	-0.033734	-0.112956	2.618140	0.000000	-0.006418	0.000000	-0.000000	0.000001	0.000000	0.000000
1.339533	12.050215	24.849203	-0.380563	0.515038	2.631603	0.000000	0.067540	0.000000	0.000000	0.000001	0.000000	0.000000
1.780493	12.544570	24.125641	-0.744778	1.119599	2.677817	0.000000	0.142267	0.000000	0.000000	0.000001	0.000000	0.000000
2.221453	13.373867	22.889416	-1.143019	1.673218	2.757308	0.000000	0.218614	0.000000	0.000001	0.000001	0.000000	0.000000
2.662413	14.575994	21.196776	-1.593482	2.150708	2.870982	0.000000	0.297452	0.000000	0.000001	0.000001	0.000000	0.000000
3.108373	16.226652	19.099910	-2.121042	2.531473	3.021995	0.000000	0.380167	0.000000	0.000001	0.000001	0.000000	0.000000
3.657433	18.343319	16.744883	-1.711210	1.783044	3.205457	0.000000	0.287128	0.000000	0.000002	0.000001	0.000000	0.000000
4.206493	19.940499	15.137575	-1.180506	1.161616	3.336360	0.000000	0.188998	0.000000	0.000002	0.000001	0.000000	0.000000
4.755553	20.905376	14.163503	-0.566417	0.622928	3.412383	0.000000	0.087514	0.000000	0.000002	0.000000	0.000000	0.000000
5.304613	21.169795	13.753285	0.087681	0.128610	3.432176	0.000000	-0.015521	0.000000	0.000002	0.000000	0.000000	0.000000
5.603185	21.154681	13.661685	0.018251	0.142247	3.430219	0.000000	-0.006554	0.000000	0.000002	0.000000	0.000000	0.000000
5.936519	21.147768	13.575151	0.002489	0.117354	3.428034	0.000000	-0.006554	0.000000	0.000003	0.000000	0.000000	0.000000
6.269852	21.151363	13.505213	-0.013273	0.092461	3.425850	0.000000	-0.006554	0.000000	0.000003	0.000000	0.000000	0.000000
6.604435	21.165539	13.451701	-0.029095	0.067475	3.423657	0.000000	-0.006554	0.000000	0.000003	0.000000	0.000000	0.000000
6.901758	21.187020	13.418179	-0.098510	0.080330	3.421708	0.000000	0.002386	0.000000	0.000003	0.000000	0.000000	0.000000
7.450818	20.934064	13.590605	0.556490	-0.396223	3.394817	0.000000	-0.100195	0.000000	0.000003	0.000000	0.000000	0.000000
7.999878	19.979267	14.298677	1.172183	-0.900997	3.312008	0.000000	-0.200999	0.000000	0.000003	0.000000	0.000000	0.000000
8.548938	18.390071	15.592829	1.705078	-1.469948	3.174750	0.000000	-0.298238	0.000000	0.000003	0.000000	0.000000	0.000000
9.097998	16.278728	17.565241	2.117536	-2.143600	2.985478	0.000000	-0.390187	0.000000	0.000003	-0.000000	0.000000	0.000000
9.543958	14.631427	19.322796	1.589429	-1.780804	2.829777	0.000000	-0.308480	0.000000	0.000003	0.000000	0.000000	0.000000
9.984918	13.433183	20.703413	1.138233	-1.338214	2.710996	0.000000	-0.230771	0.000000	0.000003	0.000000	0.000000	0.000000
10.425878	12.608510	21.665257	0.739039	-0.834736	2.625870	0.000000	-0.155690	0.000000	0.000004	0.000000	0.000000	0.000000
10.866838	12.119730	22.164567	0.373610	-0.293279	2.573429	0.000000	-0.082383	0.000000	0.000004	0.000000	0.000000	0.000000
11.309048	11.944378	22.178105	0.054435	0.207077	2.553057	0.000000	-0.016274	0.000000	0.000004	0.000000	0.000000	0.000000
11.606371	11.919432	22.059125	0.029469	0.193096	2.548218	0.000000	-0.016274	0.000000	0.000004	0.000000	0.000000	0.000000
12.086371	11.910488	21.884586	-0.010836	0.170525	2.540406	0.000000	-0.016274	0.000000	0.000004	0.000000	0.000000	0.000000
12.566371	11.940238	21.731716	-0.051142	0.147954	2.532595	0.000000	-0.016274	0.000000	0.000004	0.000000	0.000000	0.000000
13.046371	12.008680	21.600514	-0.091447	0.125383	2.524783	0.000000	-0.016274	0.000000	0.000005	0.000000	0.000000	0.000000
13.526371	12.115816	21.490980	-0.131753	0.102812	2.516971	0.000000	-0.016274	0.000000	0.000005	0.000000	0.000000	0.000000
14.007621	12.262075	21.402914	-0.172163	0.080182	2.509139	0.000000	-0.016274	0.000000	0.000005	0.000000	0.000000	0.000000
14.304943	12.371874	21.359391	-0.166791	0.013824	2.504301	0.000000	-0.022415	0.000000	0.000005	0.000000	0.000000	0.000000
14.745903	12.677612	21.113404	-0.529186	0.541899	2.510048	0.000000	0.048509	0.000000	0.000005	0.000001	0.000000	0.000000
15.186863	13.312367	20.410831	-0.915759	1.045317	2.547162	0.000000	0.119985	0.000000	0.000006	0.000001	0.000000	0.000000
15.627823	14.305139	19.283641	-1.344169	1.501174	2.616065	0.000000	0.192828	0.000000	0.000006	0.000001	0.000000	0.000000
16.068783	15.701285	17.783120	-1.833992	1.888729	2.717542	0.000000	0.267867	0.000000	0.000006	0.000001	0.000000	0.000000
16.514743	17.588245	15.956036	-2.412361	2.191096	2.854444	0.000000	0.346419	0.000000	0.000007	0.000001	0.000000	0.000000
17.063803	20.011633	13.915850	-1.975215	1.546617	3.020917	0.000000	0.259085	0.000000	0.000007	0.000001	0.000000	0.000000
17.612863	21.875063	12.519095	-1.398549	1.012301	3.138105	0.000000	0.167155	0.000000	0.000008	0.000001	0.000000	0.000000
18.161923	23.046911	11.666283	-0.723096	0.550089	3.203929	0.000000	0.072261	0.000000	0.000008	0.000000	0.000000	0.000000
18.710983	23.444403	11.296670	0.003432	0.127058	3.217221	0.000000	-0.023915	0.000000	0.000008	0.000000	0.000000	0.000000
19.009556	23.482745	11.211258	-0.070598	0.129494	3.212590	0.000000	-0.015509	0.000000	0.000008	0.000000	0.000000	0.000000
19.342889	23.534566	11.135006	-0.084863	0.099264	3.207420	0.000000	-0.015509	0.000000	0.000008	0.000000	0.000000	0.000000
19.676223	23.595896	11.078907	-0.099129	0.069033	3.202250	0.000000	-0.015509	0.000000	0.000008	0.000000	0.000000	0.000000
20.010806	23.667314	11.042728	-0.230709	0.093402	3.197081	0.000000	0.000331	0.000000	0.000009	0.000000	0.000000	0.000000
20.308129	23.808438	10.995263	-0.306143	0.094968	3.197179	0.000000	0.008684	0.000000	0.000009	0.000000	0.000000	0.000000
20.857189	23.733989	11.113362	0.440934	-0.311332	3.175727	0.000000	-0.086711	0.000000	0.000009	-0.000000	0.000000	0.000000
21.406249	22.851478	11.687114	1.156864	-0.739808	3.102243	0.000000	-0.180567	0.000000	0.000009	-0.000000	0.000000	0.000000
21.955309	21.223241	12.757386	1.791080	-1.220979	2.978031	0.000000	-0.271221	0.000000	0.000008	-0.000001	0.000000	0.000000
22.504369	18.964288	14.400412	2.298783	-1.789117	2.805294	0.000000	-0.357064	0.000000	0.000008	-0.000001	0.000000	0.000000
22.950329	17.184111	15.875451	1.707092	-1.504488	2.663352	0.000000	-0.279852	0.000000	0.000008	-0.000001	0.000000	0.000000
23.391289	15.907883	17.051447	1.198091	-1.152263	2.556271	0.000000	-0.206282	0.000000	0.000007	-0.000000	0.000000	0.000000
23.832249	15.054811	17.892415	0.743827	-0.747610	2.481083	0.000000	-0.135062	0.000000	0.000007	-0.000000	0.000000	0.000000
24.273209	14.585921	18.360092	0.323546	-0.308942	2.436932	0.000000	-0.065380	0.000000	0.000007	-0.000000	0.000000	0.000000
24.715418	14.479906	18.432952	-0.046533	0.098514	2.423311	0.000000	-0.002385	0.000000	0.000007	0.000000	0.000000	0.000000
25.012741	14.513695	18.379213	-0.067110	0.082228	2.422602	0.000000	-0.002385	0.000000	0.000007	0.000000	0.000000	0.000000
25.346075	14.566125	18.330481	-0.090181	0.063969	2.421807	0.000000	-0.002385	0.000000	0.000007	0.000000	0.000000	0.000000
25.679408	14.633936	18.293921	-0.113251	0.045710	2.421012	0.000000	-0.002385	0.000000	0.000007	0.000000	0.000000	0.000000
26.013991	14.717169	18.269837	-0.017012	-0.120832	2.420189	0.000000	-0.022019	0.000000	0.000007	0.000000	0.000000	0.000000
26.311314	14.733294	18.346598	-0.001093	-0.182331	2.413642	0.000000	-0.027938	0.000000	0.000007	0.000000	0.000000	0.000000
26.752274	14.915793	18.308398	-0.414346	0.268631	2.416434	0.000000	0.040611	0.000000	0.000007	0.000000	0.000000	0.000000
27.193234	15.469687	17.876376	-0.846529	0.707371	2.449525	0.000000	0.109622	0.000000	0.000007	0.000000	0.000000	0.000000
27.634194	16.420282	17.070190	-1.317388	1.113926	2.513294	0.000000	0.179881	0.000000	0.000008	0.000001	0.000000	0.000000
28.075154	17.811007	15.926519	-1.848434	1.469798	2.608466	0.000000	0.252189	0.000000	0.000008	0.000001	0.000000	0.000000
28.521114	19.729566	14.480174	-2.468891	1.759709	2.737729	0.000000	0.327813	0.000000	0.000008	0.000001	0.000000	0.000000
29.070174	22.168065	12.868573	-1.946043	1.192818	2.895052	0.000000	0.244409	0.000000	0.000009	0.000001	0.000000	0.000000
29.619234	23.953073	11.829458	-1.285736	0.710888	3.005322	0.000000	0.156670	0.000000	0.000009	0.000000	0.000000	0.000000
30.168294	24.958505	11.288814	-0.534611	0.279594	3.066584	0.000000	0.066152	0.000000	0.000009	0.000000	0.000000	0.000000
30.717354	25.113342	11.208135	0.254276	-0.131785	3.077749	0.000000	-0.025540	0.000000	0.000009	-0.000000	0.000000	0.000000
31.015927	25.004358	11.277381	0.176352	-0.129421	3.072525	0.000000	-0.017499	0.000000	0.000009	-0.000000	0.000000	0.000000
31.349260	24.891371	11.373679	0.162607	-0.159474	3.066692	0.000000	-0.017499	0.000000	0.000009	-0.000000	0.000000	0.000000
31.682593	24.787549	11.490013	0.148861	-0.189527	3.060859	0.000000	-0.017499	0.000000	0.000009	-0.000000	0.000000	0.000000
32.017177	24.692552	11.626931	0.135064	-0.219692	3.055005	0.000000	-0.017499	0.000000	0.000009	-0.000000	0.000000	0.000000
32.314499	24.615882	11.765540	0.058492	-0.215760	3.049802	0.000000	-0.009531	0.000000	0.000009	-0.000000	0.000000	0.000000
32.863559	24.129940	12.241756	0.821313	-0.656690	3.019686	0.000000	-0.100010	0.000000	0.000009	-0.000000	0.000000	0.000000
33.412619	22.833382	13.224857	1.526121	-1.144394	2.940306	0.000000	-0.188715	0.000000	0.000009	-0.000001	0.000000	0.000000
33.961679	20.817792	14.784865	2.123131	-1.713612	2.813070	0.000000	-0.274072	0.000000	0.000008	-0.000001	0.000000	0.000000
34.510739	18.225540	17.032898	2.570174	-2.404886	2.640235	0.000000	-0.354569	0.000000	0.000008	-0.000001	0.000000	0.000000
34.956699	16.210031	19.043642	1.965502	-2.085085	2.498455	0.000000	-0.281637	0.000000	0.000007	-0.000001	0.000000	0.000000
35.397659	14.707147	20.706324	1.455636	-1.671162	2.389647	0.000000	-0.212340	0.000000	0.000007	-0.000001	0.000000	0.000000
35.838619	13.623010	21.968907	1.012274	-1.181202	2.310834	0.000000	-0.145462	0.000000	0.000006	-0.000001	0.000000	0.000000
36.279579	12.908088	22.773945	0.615160	-0.637499	2.261118	0.000000	-0.080241	0.000000	0.000006	-0.000001	0.000000	0.000000
36.721789	12.529028	23.085113	0.276768	-0.121452	2.239907	0.000000	-0.021426	0.000000	0.000006	-0.000000	0.000000	0.000000
37.019112	12.372046	23.161220	0.251219	-0.134522	2.233537	0.000000	-0.021426	0.000000	0.000006	-0.000000	0.000000	0.000000
37.352445	12.214114	23.255785	0.222576	-0.149174	2.226395	0.000000	-0.021426	0.000000	0.000006	-0.000000	0.000000	0.000000
37.685779	12.075277	23.360118	0.193934	-0.163826	2.219253	0.000000	-0.021426	0.000000	0.000005	-0.000000	0.000000	0.000000
38.020362	11.955123	23.474666	0.165183	-0.178533	2.212084	0.000000	-0.021426	0.000000	0.000005	-0.000000	0.000000	0.000000
38.317684	11.864493	23.584716	0.168729	-0.249437	2.205714	0.000000	-0.026835	0.000000	0.000005	-0.000000	0.000000	0.000000
38.758644	11.866990	23.543480	-0.174413	0.342594	2.207809	0.000000	0.036344	0.000000	0.000005	-0.000000	0.000000	0.000000
39.199604	12.174468	22.985026	-0.525523	0.919037	2.237828	0.000000	0.099937	0.000000	0.000005	-0.000000	0.000000	0.000000
39.640564	12.800973	21.934763	-0.900643	1.453665	2.296113	0.000000	0.164669	0.000000	0.000005	-0.000000	0.000000	0.000000
40.081524	13.775130	20.440476	-1.316910	1.922152	2.383327	0.000000	0.231275	0.000000	0.000005	0.000000	0.000000	0.000000
40.527484	15.159013	18.547587	-1.797169	2.304463	2.501937	0.000000	0.300922	0.000000	0.000005	0.000000	0.000000	0.000000
41.076544	16.925146	16.420513	-1.400438	1.592433	2.646631	0.000000	0.225362	0.000000	0.000005	0.000000	0.000000	0.000000
41.625604	18.198390	15.008833	-0.904786	0.993828	2.748678	0.000000	0.145805	0.000000	0.000005	-0.000000	0.000000	0.000000
42.174664	18.888808	14.211997	-0.345225	0.466012	2.806267	0.000000	0.063662	0.000000	0.000005	-0.000000	0.000000	0.000000
42.723724	18.947634	13.973247	0.238721	-0.028611	2.818379	0.000000	-0.019610	0.000000	0.000005	-0.000000	0.000000	0.000000
43.022297	18.839518	13.974911	0.172894	-0.013472	2.814723	0.000000	-0.012246	0.000000	0.000005	-0.000000	0.000000	0.000000
43.502297	18.686134	14.004334	0.146654	-0.047825	2.808845	0.000000	-0.012246	0.000000	0.000004	-0.000000	0.000000	0.000000
43.982297	18.557942	14.066736	0.120414	-0.082179	2.802967	0.000000	-0.012246	0.000000	0.000004	-0.000000	0.000000	0.000000
44.462297	18.454939	14.162117	0.094174	-0.116532	2.797089	0.000000	-0.012246	0.000000	0.000004	-0.000000	0.000000	0.000000
44.942297	18.377128	14.290478	0.067934	-0.150886	2.791210	0.000000	-0.012246	0.000000	0.000004	-0.000000	0.000000	0.000000
45.423547	18.324629	14.452103	-0.049165	-0.113724	2.785334	0.000000	0.001554	0.000000	0.000004	-0.000000	0.000000	0.000000
45.720870	18.358700	14.525924	-0.113396	-0.096611	2.785796	0.000000	0.008832	0.000000	0.000004	-0.000000	0.000000	0.000000
46.269930	18.174093	14.913003	0.447628	-0.612536	2.768074	0.000000	-0.073293	0.000000	0.000003	-0.000000	0.000000	0.000000
46.818990	17.387210	15.887120	0.977034	-1.172090	2.705551	0.000000	-0.154119	0.000000	0.000003	-0.000001	0.000000	0.000000
47.368050	16.053631	17.517658	1.437427	-1.815130	2.599336	0.000000	-0.232211	0.000000	0.000003	-0.000001	0.000000	0.000000
47.917110	14.267555	19.920757	1.796287	-2.587457	2.451313	0.000000	-0.306184	0.000000	0.000002	-0.000001	0.000000	0.000000
48.363070	12.877567	22.057381	1.331598	-2.183467	2.330059	0.000000	-0.237885	0.000000	0.000002	-0.000001	0.000000	0.000000
48.804030	11.883397	23.768144	0.931514	-1.681403	2.239621	0.000000	-0.172693	0.000000	0.000002	-0.000001	0.000000	0.000000
49.244990	11.222040	25.000572	0.573988	-1.102836	2.177469	0.000000	-0.109468	0.000000	0.000001	-0.000001	0.000000	0.000000
49.685950	10.863281	25.698589	0.242686	-0.474090	2.142896	0.000000	-0.047490	0.000000	0.000001	-0.000001	0.000000	0.000000
50.128160	10.790856	25.830155	-0.051183	0.112834	2.135519	0.000000	0.008711	0.000000	0.000001	-0.000001	0.000000	0.000000
50.425482	10.829506	25.766525	-0.078809	0.101176	2.138109	0.000000	0.008711	0.000000	0.000001	-0.000001	0.000000	0.000000
50.758816	10.892368	25.703431	-0.109780	0.088107	2.141013	0.000000	0.008711	0.000000	0.000000	-0.000001	0.000000	0.000000
51.092149	10.975879	25.649049	-0.140751	0.075038	2.143917	0.000000	0.008711	0.000000	0.000000	-0.000001	0.000000	0.000000
51.426732	11.080241	25.603744	-0.081948	-0.145790	2.146810	0.000000	-0.008706	0.000000	0.000000	-0.000001	0.000000	0.000000
51.724055	11.137003	25.693964	-0.081651	-0.220659	2.144221	0.000000	-0.013964	0.000000	-0.000000	-0.000001	0.000000	0.000000
52.165015	11.354407	25.602731	-0.413243	0.426768	2.151652	0.000000	0.047699	0.000000	-0.000000	-0.000001	0.000000	0.000000
52.605975	11.871437	24.946933	-0.763715	1.054777	2.186368	0.000000	0.109905	0.000000	-0.000001	-0.000001	0.000000	0.000000
53.046935	12.711716	23.756409	-1.149080	1.634795	2.248764	0.000000	0.173362	0.000000	-0.000001	-0.000001	0.000000	0.000000
53.487895	13.913632	22.085327	-1.586942	2.140430	2.339550	0.000000	0.238795	0.000000	-0.000001	-0.000001	0.000000	0.000000
53.933855	15.552699	19.984733	-2.101541	2.550014	2.461265	0.000000	0.307345	0.000000	-0.000001	-0.000001	0.000000	0.000000
54.482915	17.662918	17.621083	-1.719039	1.780300	2.609837	0.000000	0.233041	0.000000	-0.000002	-0.000001	0.000000	0.000000
55.031975	19.283537	16.028494	-1.215113	1.137394	2.716414	0.000000	0.154603	0.000000	-0.000002	-0.000001	0.000000	0.000000
55.581035	20.300083	15.093531	-0.625357	0.575501	2.779106	0.000000	0.073423	0.000000	-0.000002	-0.000000	0.000000	0.000000
56.130095	20.640752	14.749597	0.008570	0.054600	2.796802	0.000000	-0.009060	0.000000	-0.000003	-0.000000	0.000000	0.000000
56.428668	20.672168	14.700076	-0.059856	0.072721	2.796279	0.000000	-0.001752	0.000000	-0.000003	-0.000000	0.000000	0.000000
56.762001	20.717466	14.659194	-0.076039	0.049925	2.795695	0.000000	-0.001752	0.000000	-0.000003	-0.000000	0.000000	0.000000
57.095334	20.773553	14.633509	-0.092221	0.027130	2.795111	0.000000	-0.001752	0.000000	-0.000003	-0.000000	0.000000	0.000000
57.429918	20.840699	14.623010	-0.108464	0.004249	2.794524	0.000000	-0.001752	0.000000	-0.000003	-0.000000	0.000000	0.000000
57.727240	20.909488	14.626529	-0.177533	0.022133	2.794003	0.000000	0.005548	0.000000	-0.000003	-0.000000	0.000000	0.000000
58.276300	20.747687	14.883133	0.470476	-0.492243	2.774410	0.000000	-0.076813	0.000000	-0.000003	-0.000000	0.000000	0.000000
58.825360	19.888412	15.720406	1.085253	-1.041681	2.709904	0.000000	-0.157812	0.000000	-0.000004	-0.000000	0.000000	0.000000
59.374420	18.392358	17.197988	1.623373	-1.665315	2.601628	0.000000	-0.236012	0.000000	-0.000004	-0.000000	0.000000	0.000000
59.923480	16.365199	19.421121	2.046826	-2.407566	2.451504	0.000000	-0.310025	0.000000	-0.000004	0.000000	0.000000	0.000000
60.369440	14.778507	21.397103	1.523699	-2.004582	2.328535	0.000000	-0.241744	0.000000	-0.000004	-0.000000	0.000000	0.000000
60.810400	13.637181	22.953594	1.074395	-1.511763	2.236383	0.000000	-0.176613	0.000000	-0.000004	-0.000000	0.000000	0.000000
61.251360	12.869045	24.043350	0.674177	-0.950161	2.172481	0.000000	-0.113494	0.000000	-0.000004	-0.000000	0.000000	0.000000
61.692320	12.439004	24.616791	0.304760	-0.345326	2.136101	0.000000	-0.051668	0.000000	-0.000004	-0.000000	0.000000	0.000000
62.134530	12.327463	24.647286	-0.020604	0.214721	2.126834	0.000000	0.004355	0.000000	-0.000004	-0.000000	0.000000	0.000000
62.431853	12.346889	24.523355	-0.044733	0.202102	2.128129	0.000000	0.004355	0.000000	-0.000004	-0.000000	0.000000	0.000000
62.765186	12.385728	24.393336	-0.071784	0.187954	2.129581	0.000000	0.004355	0.000000	-0.000004	-0.000000	0.000000	0.000000
63.098520	12.442601	24.272750	-0.098835	0.173806	2.131032	0.000000	0.004355	0.000000	-0.000004	-0.000000	0.000000	0.000000
63.433103	12.517823	24.161195	-0.125988	0.159606	2.132490	0.000000	0.004355	0.000000	-0.000005	-0.000000	0.000000	0.000000
63.730426	12.599916	24.070039	-0.119217	0.087957	2.133784	0.000000	-0.000878	0.000000	-0.000005	-0.000000	0.000000	0.000000
64.171386	12.865479	23.727375	-0.485307	0.686171	2.146937	0.000000	0.060589	0.000000	-0.000005	-0.000001	0.000000	0.000000
64.612346	13.462424	22.868938	-0.873569	1.253166	2.187321	0.000000	0.122746	0.000000	-0.000005	-0.000001	0.000000	0.000000
65.053306	14.418023	21.533787	-1.301742	1.763142	2.255395	0.000000	0.186302	0.000000	-0.000006	-0.000001	0.000000	0.000000
65.494266	15.775936	19.782668	-1.789388	2.192897	2.351936	0.000000	0.251979	0.000000	-0.000006	-0.000001	0.000000	0.000000
65.940226	17.621366	17.670473	-2.363478	2.523633	2.479615	0.000000	0.320928	0.000000	-0.000006	-0.000001	0.000000	0.000000
66.489286	19.986934	15.307538	-1.919416	1.805371	2.635459	0.000000	0.245911	0.000000	-0.000007	-0.000001	0.000000	0.000000
67.038346	21.787082	13.658521	-1.339775	1.215702	2.748855	0.000000	0.166533	0.000000	-0.000007	-0.000001	0.000000	0.000000
67.587406	22.894654	12.605967	-0.665500	0.712625	2.817790	0.000000	0.084200	0.000000	-0.000008	-0.000000	0.000000	0.000000
68.136466	23.231419	12.074904	0.055783	0.260307	2.841043	0.000000	0.000374	0.000000	-0.000008	-0.000000	0.000000	0.000000
68.435038	23.238194	11.908634	-0.017773	0.265025	2.843371	0.000000	0.007798	0.000000	-0.000008	-0.000000	0.000000	0.000000
68.768372	23.254826	11.741936	-0.032122	0.235068	2.845970	0.000000	0.007798	0.000000	-0.000008	-0.000000	0.000000	0.000000
69.101705	23.281023	11.595209	-0.046470	0.205111	2.848570	0.000000	0.007798	0.000000	-0.000008	-0.000000	0.000000	0.000000
69.436288	23.316938	11.468016	-0.060873	0.175042	2.851179	0.000000	0.007798	0.000000	-0.000008	-0.000000	0.000000	0.000000
69.733611	23.356942	11.371873	-0.134703	0.178036	2.853497	0.000000	0.015254	0.000000	-0.000008	-0.000000	0.000000	0.000000
70.282671	23.103724	11.404064	0.593157	-0.237012	2.838690	0.000000	-0.069112	0.000000	-0.000008	0.000000	0.000000	0.000000
