#ParticleID	Turn	x[m]	xp	y[m]	yp	z[m]	dE[GeV]# s	beta_x	beta_y	alpha_x	alpha_y	D_x	D_y	D_px	D_py	orbit_x	orbit_px	orbit_y	orbit_py
0.300000	11.829954	24.954743	-0.013096	-0.027740	2.618248	0.000000	-0.000040	0.000000	0.000000	0.000000	0.000000	0.000000
0.601250	11.845517	24.975096	-0.038566	-0.039821	2.618236	0.000000	-0.000040	0.000000	0.000000	0.000000	0.000000	0.000000
0.898573	11.875924	25.002320	-0.034580	-0.113058	2.618224	0.000000	-0.006461	0.000000	0.000000	0.000000	0.000000	0.000000
1.339533	12.058752	24.824720	-0.381606	0.514282	2.631669	0.000000	0.067499	0.000000	0.000000	0.000000	0.000000	0.000000
1.780493	12.554131	24.102101	-0.746066	1.118222	2.677865	0.000000	0.142228	0.000000	0.000000	0.000000	0.000000	0.000000
2.221453	13.384693	22.867342	-1.144612	1.671285	2.757339	0.000000	0.218576	0.000000	0.000001	0.000000	0.000000	0.000000
2.662413	14.588385	21.176622	-1.595452	2.148305	2.870997	0.000000	0.297414	0.000000	0.000001	0.000000	0.000000	0.000000
3.108373	16.241002	19.082071	-2.123482	2.528708	3.021992	0.000000	0.380129	0.000000	0.000001	0.000000	0.000000	0.000000
3.657433	18.360164	16.729685	-1.713288	1.780968	3.205434	0.000000	0.287091	0.000000	0.000001	0.000000	0.000000	0.000000
4.206493	19.959359	15.124348	-1.182076	1.160082	3.336318	0.000000	0.188962	0.000000	0.000001	0.000000	0.000000	0.000000
4.755553	20.925629	14.151714	-0.567368	0.621827	3.412321	0.000000	0.087480	0.000000	0.000001	0.000000	0.000000	0.000000
5.304613	21.190720	13.742505	0.087416	0.127862	3.432096	0.000000	-0.015553	0.000000	0.000001	0.000000	0.000000	0.000000
5.603185	21.175793	13.651372	0.017945	0.141460	3.430129	0.000000	-0.006586	0.000000	0.000002	0.000000	0.000000	0.000000
5.936519	21.169078	13.565368	0.002199	0.116553	3.427934	0.000000	-0.006586	0.000000	0.000002	0.000000	0.000000	0.000000
6.269852	21.172861	13.495967	-0.013547	0.091647	3.425739	0.000000	-0.006586	0.000000	0.000002	0.000000	0.000000	0.000000
6.604435	21.187214	13.443004	-0.029353	0.066648	3.423535	0.000000	-0.006586	0.000000	0.000002	0.000000	0.000000	0.000000
6.901758	21.208845	13.409978	-0.098812	0.079469	3.421577	0.000000	0.002354	0.000000	0.000002	0.000000	0.000000	0.000000
7.450818	20.955817	13.583225	0.556922	-0.396866	3.394669	0.000000	-0.100223	0.000000	0.000002	0.000000	0.000000	0.000000
7.999878	20.000154	14.291906	1.173318	-0.901469	3.311847	0.000000	-0.201022	0.000000	0.000002	0.000000	0.000000	0.000000
8.548938	18.409360	15.586499	1.706836	-1.470283	3.174578	0.000000	-0.298256	0.000000	0.000002	0.000000	0.000000	0.000000
9.097998	16.295800	17.559214	2.119792	-2.143821	2.985298	0.000000	-0.390199	0.000000	0.000002	-0.000000	0.000000	0.000000
9.543958	14.646715	19.317066	1.591186	-1.781248	2.829590	0.000000	-0.308497	0.000000	0.000002	0.000000	0.000000	0.000000
9.984918	13.447109	20.698164	1.139575	-1.338859	2.710801	0.000000	-0.230793	0.000000	0.000002	0.000000	0.000000	0.000000
10.425878	12.621412	21.660655	0.740027	-0.835553	2.625664	0.000000	-0.155717	0.000000	0.000002	0.000000	0.000000	0.000000
10.866838	12.131900	22.160747	0.374289	-0.294230	2.573211	0.000000	-0.082415	0.000000	0.000002	0.000000	0.000000	0.000000
11.309048	11.956072	22.175171	0.054866	0.206042	2.552823	0.000000	-0.016311	0.000000	0.000002	0.000000	0.000000	0.000000
11.606371	11.930862	22.056805	0.029923	0.192064	2.547973	0.000000	-0.016311	0.000000	0.000002	0.000000	0.000000	0.000000
12.086371	11.921464	21.883254	-0.010344	0.169500	2.540143	0.000000	-0.016311	0.000000	0.000002	0.000000	0.000000	0.000000
12.566371	11.950723	21.731366	-0.050612	0.146935	2.532314	0.000000	-0.016311	0.000000	0.000002	0.000000	0.000000	0.000000
13.046371	12.018639	21.601139	-0.090880	0.124370	2.524484	0.000000	-0.016311	0.000000	0.000003	0.000000	0.000000	0.000000
13.526371	12.125213	21.492575	-0.131148	0.101805	2.516655	0.000000	-0.016311	0.000000	0.000003	0.000000	0.000000	0.000000
14.007621	12.270872	21.405475	-0.171521	0.079182	2.508805	0.000000	-0.016311	0.000000	0.000003	0.000000	0.000000	0.000000
14.304943	12.380282	21.362545	-0.166104	0.012819	2.503955	0.000000	-0.022452	0.000000	0.000003	0.000000	0.000000	0.000000
14.745903	12.685491	21.117400	-0.528669	0.541001	2.509685	0.000000	0.048463	0.000000	0.000003	0.000000	0.000000	0.000000
15.186863	13.319855	20.415558	-0.915387	1.044567	2.546776	0.000000	0.119930	0.000000	0.000003	0.000000	0.000000	0.000000
15.627823	14.312358	19.288951	-1.343927	1.500607	2.615653	0.000000	0.192762	0.000000	0.000003	0.000000	0.000000	0.000000
16.068783	15.708342	17.788839	-1.833867	1.888370	2.717099	0.000000	0.267790	0.000000	0.000003	0.000001	0.000000	0.000000
16.514743	17.595242	15.961975	-2.412349	2.190963	2.853963	0.000000	0.346330	0.000000	0.000004	0.000001	0.000000	0.000000
17.063803	20.018446	13.921990	-1.974894	1.546382	3.020393	0.000000	0.259012	0.000000	0.000004	0.000000	0.000000	0.000000
17.612863	21.881364	12.525558	-1.397942	1.011946	3.137546	0.000000	0.167100	0.000000	0.000004	0.000000	0.000000	0.000000
18.161923	23.052407	11.673213	-0.722247	0.549588	3.203344	0.000000	0.072225	0.000000	0.000004	0.000000	0.000000	0.000000
18.710983	23.448860	11.304246	0.004464	0.126377	3.216621	0.000000	-0.023932	0.000000	0.000004	0.000000	0.000000	0.000000
19.009556	23.486592	11.219222	-0.069575	0.128857	3.211985	0.000000	-0.015528	0.000000	0.000004	0.000000	0.000000	0.000000
19.342889	23.537729	11.143385	-0.083836	0.098653	3.206809	0.000000	-0.015528	0.000000	0.000005	0.000000	0.000000	0.000000
19.676223	23.598374	11.087685	-0.098097	0.068448	3.201633	0.000000	-0.015528	0.000000	0.000005	0.000000	0.000000	0.000000
20.010806	23.669100	11.051888	-0.229682	0.092889	3.196457	0.000000	0.000309	0.000000	0.000005	0.000000	0.000000	0.000000
20.308129	23.809611	11.004720	-0.305114	0.094506	3.196549	0.000000	0.008661	0.000000	0.000005	0.000000	0.000000	0.000000
20.857189	23.734016	11.123475	0.441979	-0.312071	3.175090	0.000000	-0.086713	0.000000	0.000005	-0.000000	0.000000	0.000000
21.406249	22.850381	11.698213	1.157853	-0.740876	3.101610	0.000000	-0.180549	0.000000	0.000005	-0.000000	0.000000	0.000000
21.955309	21.221122	12.769873	1.791942	-1.222452	2.977413	0.000000	-0.271183	0.000000	0.000004	-0.000000	0.000000	0.000000
22.504369	18.961322	14.414785	2.299457	-1.791101	2.804703	0.000000	-0.357006	0.000000	0.000004	-0.000000	0.000000	0.000000
22.950329	17.180549	15.891454	1.707763	-1.506144	2.662783	0.000000	-0.279809	0.000000	0.000004	-0.000000	0.000000	0.000000
23.391289	15.903720	17.068737	1.198789	-1.153516	2.555718	0.000000	-0.206254	0.000000	0.000004	-0.000000	0.000000	0.000000
23.832249	15.050008	17.910612	0.744585	-0.748404	2.480539	0.000000	-0.135048	0.000000	0.000004	-0.000000	0.000000	0.000000
24.273209	14.580411	18.378772	0.324398	-0.309240	2.436391	0.000000	-0.065380	0.000000	0.000004	-0.000000	0.000000	0.000000
24.715418	14.473587	18.451671	-0.045562	0.098677	2.422767	0.000000	-0.002398	0.000000	0.000004	0.000000	0.000000	0.000000
25.012741	14.506800	18.397831	-0.066147	0.082407	2.422054	0.000000	-0.002398	0.000000	0.000004	0.000000	0.000000	0.000000
25.346075	14.558591	18.348974	-0.089225	0.064165	2.421255	0.000000	-0.002398	0.000000	0.000004	0.000000	0.000000	0.000000
25.679408	14.625767	18.312277	-0.112303	0.045924	2.420456	0.000000	-0.002398	0.000000	0.000004	0.000000	0.000000	0.000000
26.013991	14.708369	18.288043	-0.016144	-0.120747	2.419629	0.000000	-0.022027	0.000000	0.000004	-0.000000	0.000000	0.000000
26.311314	14.723981	18.364749	-0.000258	-0.182276	2.413080	0.000000	-0.027945	0.000000	0.000004	-0.000000	0.000000	0.000000
26.752274	14.905640	18.326282	-0.413268	0.269177	2.415865	0.000000	0.040589	0.000000	0.000004	0.000000	0.000000	0.000000
27.193234	15.458460	17.893572	-0.845160	0.708382	2.448944	0.000000	0.109585	0.000000	0.000004	0.000000	0.000000	0.000000
27.634194	16.407696	17.086305	-1.315665	1.115356	2.512694	0.000000	0.179830	0.000000	0.000004	0.000000	0.000000	0.000000
28.075154	17.796717	15.941211	-1.846279	1.471582	2.607840	0.000000	0.252122	0.000000	0.000004	0.000000	0.000000	0.000000
28.521114	19.713122	14.493146	-2.466200	1.761766	2.737069	0.000000	0.327729	0.000000	0.000004	0.000000	0.000000	0.000000
29.070174	22.148879	12.879564	-1.943770	1.194388	2.894352	0.000000	0.244347	0.000000	0.000005	0.000000	0.000000	0.000000
29.619234	23.931695	11.838939	-1.284042	0.712084	3.004595	0.000000	0.156631	0.000000	0.000005	0.000000	0.000000	0.000000
30.168294	24.935641	11.297148	-0.533615	0.280500	3.065842	0.000000	0.066137	0.000000	0.000005	0.000000	0.000000	0.000000
30.717354	25.089803	11.215603	0.254503	-0.131105	3.077006	0.000000	-0.025530	0.000000	0.000005	-0.000000	0.000000	0.000000
31.015927	24.980651	11.284424	0.176626	-0.128699	3.071783	0.000000	-0.017491	0.000000	0.000005	-0.000000	0.000000	0.000000
31.349260	24.867487	11.380232	0.162866	-0.158727	3.065953	0.000000	-0.017491	0.000000	0.000005	-0.000000	0.000000	0.000000
31.682593	24.763496	11.496060	0.149106	-0.188756	3.060123	0.000000	-0.017491	0.000000	0.000005	-0.000000	0.000000	0.000000
32.017177	24.668341	11.632454	0.135295	-0.218897	3.054270	0.000000	-0.017491	0.000000	0.000005	-0.000000	0.000000	0.000000
32.314499	24.591538	11.770583	0.058771	-0.214928	3.049070	0.000000	-0.009525	0.000000	0.000005	-0.000000	0.000000	0.000000
32.863559	24.105735	12.245944	0.820781	-0.655955	3.018963	0.000000	-0.099980	0.000000	0.000005	-0.000000	0.000000	0.000000
33.412619	22.810193	13.228266	1.524816	-1.143704	2.939606	0.000000	-0.188662	0.000000	0.000004	-0.000000	0.000000	0.000000
33.961679	20.796420	14.787519	2.121145	-1.712916	2.812405	0.000000	-0.273998	0.000000	0.000004	-0.000001	0.000000	0.000000
34.510739	18.206662	17.034763	2.567647	-2.404136	2.639616	0.000000	-0.354473	0.000000	0.000004	-0.000001	0.000000	0.000000
34.956699	16.193149	19.044771	1.963537	-2.084192	2.497875	0.000000	-0.281557	0.000000	0.000004	-0.000001	0.000000	0.000000
35.397659	14.691787	20.706617	1.454137	-1.670167	2.389098	0.000000	-0.212275	0.000000	0.000003	-0.000000	0.000000	0.000000
35.838619	13.608792	21.968295	1.011174	-1.180151	2.310311	0.000000	-0.145411	0.000000	0.000003	-0.000000	0.000000	0.000000
36.279579	12.894684	22.772398	0.614408	-0.636439	2.260615	0.000000	-0.080203	0.000000	0.000003	-0.000000	0.000000	0.000000
36.721789	12.516148	23.082643	0.276299	-0.120428	2.239418	0.000000	-0.021400	0.000000	0.000003	-0.000000	0.000000	0.000000
37.019112	12.359451	23.158141	0.250730	-0.133496	2.233056	0.000000	-0.021400	0.000000	0.000003	-0.000000	0.000000	0.000000
37.352445	12.201852	23.252021	0.222065	-0.148146	2.225922	0.000000	-0.021400	0.000000	0.000003	-0.000000	0.000000	0.000000
37.685779	12.063364	23.355669	0.193400	-0.162796	2.218789	0.000000	-0.021400	0.000000	0.000003	-0.000000	0.000000	0.000000
38.020362	11.943574	23.469527	0.164627	-0.177502	2.211629	0.000000	-0.021400	0.000000	0.000003	-0.000000	0.000000	0.000000
38.317684	11.853282	23.578962	0.168125	-0.248390	2.205267	0.000000	-0.026807	0.000000	0.000003	-0.000000	0.000000	0.000000
38.758644	11.856200	23.536874	-0.174768	0.343474	2.207371	0.000000	0.036360	0.000000	0.000002	-0.000000	0.000000	0.000000
39.199604	12.163887	22.977733	-0.525645	0.919710	2.237395	0.000000	0.099942	0.000000	0.000002	-0.000000	0.000000	0.000000
39.640564	12.790400	21.926979	-0.900538	1.454100	2.295679	0.000000	0.164662	0.000000	0.000002	-0.000000	0.000000	0.000000
40.081524	13.764362	20.432421	-1.316573	1.922330	2.382889	0.000000	0.231258	0.000000	0.000002	0.000000	0.000000	0.000000
40.527484	15.147835	18.539493	-1.796583	2.304374	2.501488	0.000000	0.300892	0.000000	0.000002	0.000000	0.000000	0.000000
41.076544	16.913550	16.412412	-1.400266	1.592534	2.646170	0.000000	0.225348	0.000000	0.000002	0.000000	0.000000	0.000000
41.625604	18.186839	15.000513	-0.905041	0.994128	2.748213	0.000000	0.145806	0.000000	0.000002	-0.000000	0.000000	0.000000
42.174664	18.877765	14.203230	-0.345889	0.466531	2.805807	0.000000	0.063678	0.000000	0.000002	-0.000000	0.000000	0.000000
42.723724	18.937523	13.963774	0.237695	-0.027836	2.817931	0.000000	-0.019580	0.000000	0.000002	-0.000000	0.000000	0.000000
43.022297	18.830005	13.964995	0.171891	-0.012736	2.814284	0.000000	-0.012217	0.000000	0.000002	-0.000000	0.000000	0.000000
43.502297	18.677587	13.993722	0.145647	-0.047113	2.808419	0.000000	-0.012217	0.000000	0.000002	-0.000000	0.000000	0.000000
43.982297	18.550363	14.055452	0.119403	-0.081490	2.802555	0.000000	-0.012217	0.000000	0.000002	-0.000000	0.000000	0.000000
44.462297	18.448334	14.150184	0.093158	-0.115868	2.796691	0.000000	-0.012217	0.000000	0.000002	-0.000000	0.000000	0.000000
44.942297	18.371499	14.277918	0.066914	-0.150245	2.790827	0.000000	-0.012217	0.000000	0.000002	-0.000000	0.000000	0.000000
45.423547	18.319985	14.438936	-0.050166	-0.113172	2.784965	0.000000	0.001581	0.000000	0.000002	-0.000000	0.000000	0.000000
45.720870	18.354653	14.512435	-0.114393	-0.096110	2.785435	0.000000	0.008859	0.000000	0.000002	-0.000000	0.000000	0.000000
46.269930	18.171208	14.898734	0.446523	-0.611609	2.767731	0.000000	-0.073255	0.000000	0.000001	-0.000000	0.000000	0.000000
46.818990	17.385562	15.871571	0.975900	-1.170671	2.705231	0.000000	-0.154070	0.000000	0.000001	-0.000000	0.000000	0.000000
47.368050	16.053209	17.500237	1.436343	-1.813118	2.599045	0.000000	-0.232152	0.000000	0.000001	-0.000000	0.000000	0.000000
47.917110	14.268260	19.900738	1.795331	-2.584709	2.451057	0.000000	-0.306116	0.000000	0.000001	-0.000000	0.000000	0.000000
48.363070	12.879089	22.035097	1.330716	-2.181157	2.329832	0.000000	-0.237824	0.000000	0.000001	-0.000000	0.000000	0.000000
48.804030	11.885680	23.744054	0.930664	-1.679633	2.239419	0.000000	-0.172638	0.000000	0.000001	-0.000000	0.000000	0.000000
49.244990	11.225072	24.975190	0.573132	-1.101687	2.177291	0.000000	-0.109417	0.000000	0.000000	-0.000000	0.000000	0.000000
49.685950	10.867085	25.672489	0.241784	-0.473615	2.142739	0.000000	-0.047443	0.000000	0.000000	-0.000000	0.000000	0.000000
50.128160	10.795493	25.803942	-0.052159	0.112677	2.135382	0.000000	0.008754	0.000000	0.000000	-0.000000	0.000000	0.000000
50.425482	10.834720	25.740408	-0.079776	0.101009	2.137985	0.000000	0.008754	0.000000	0.000000	-0.000000	0.000000	0.000000
50.758816	10.898224	25.677430	-0.110737	0.087927	2.140903	0.000000	0.008754	0.000000	0.000000	-0.000000	0.000000	0.000000
51.092149	10.982369	25.623173	-0.141698	0.074845	2.143821	0.000000	0.008754	0.000000	-0.000000	-0.000000	0.000000	0.000000
51.426732	11.087362	25.578001	-0.082827	-0.145787	2.146728	0.000000	-0.008662	0.000000	-0.000000	-0.000000	0.000000	0.000000
51.724055	11.144643	25.668223	-0.082498	-0.220605	2.144153	0.000000	-0.013920	0.000000	-0.000000	-0.000000	0.000000	0.000000
52.165015	11.362876	25.577243	-0.414286	0.426141	2.151602	0.000000	0.047741	0.000000	-0.000000	-0.000000	0.000000	0.000000
52.605975	11.880929	24.922289	-0.765002	1.053499	2.186336	0.000000	0.109946	0.000000	-0.000001	-0.000000	0.000000	0.000000
53.046935	12.722470	23.733159	-1.150668	1.632923	2.248750	0.000000	0.173403	0.000000	-0.000001	-0.000000	0.000000	0.000000
53.487895	13.925947	22.063959	-1.588905	2.138050	2.339554	0.000000	0.238835	0.000000	-0.000001	-0.000000	0.000000	0.000000
53.933855	15.566967	19.965676	-2.103973	2.547232	2.461288	0.000000	0.307386	0.000000	-0.000001	-0.000000	0.000000	0.000000
54.482915	17.679675	17.604670	-1.721112	1.778237	2.609881	0.000000	0.233081	0.000000	-0.000001	-0.000000	0.000000	0.000000
55.031975	19.302305	16.014023	-1.216681	1.135901	2.716479	0.000000	0.154641	0.000000	-0.000001	-0.000000	0.000000	0.000000
55.581035	20.320243	15.080435	-0.626309	0.574474	2.779192	0.000000	0.073458	0.000000	-0.000001	-0.000000	0.000000	0.000000
56.130095	20.661587	14.737409	0.008302	0.053965	2.796906	0.000000	-0.009028	0.000000	-0.000002	-0.000000	0.000000	0.000000
56.428668	20.693190	14.688291	-0.060165	0.072039	2.796393	0.000000	-0.001720	0.000000	-0.000002	-0.000000	0.000000	0.000000
56.762001	20.738689	14.647869	-0.076331	0.049227	2.795819	0.000000	-0.001720	0.000000	-0.000002	-0.000000	0.000000	0.000000
57.095334	20.794966	14.622655	-0.092498	0.026415	2.795246	0.000000	-0.001720	0.000000	-0.000002	-0.000000	0.000000	0.000000
57.429918	20.862292	14.612640	-0.108725	0.003518	2.794671	0.000000	-0.001720	0.000000	-0.000002	-0.000000	0.000000	0.000000
57.727240	20.931232	14.616598	-0.177836	0.021362	2.794160	0.000000	0.005581	0.000000	-0.000002	-0.000000	0.000000	0.000000
58.276300	20.769362	14.873895	0.470904	-0.492742	2.774583	0.000000	-0.076785	0.000000	-0.000002	-0.000000	0.000000	0.000000
58.825360	19.909227	15.711585	1.086381	-1.041944	2.710090	0.000000	-0.157790	0.000000	-0.000002	-0.000000	0.000000	0.000000
59.374420	18.411584	17.189334	1.625122	-1.665360	2.601825	0.000000	-0.235996	0.000000	-0.000002	-0.000000	0.000000	0.000000
59.923480	16.382217	19.412400	2.049073	-2.407397	2.451707	0.000000	-0.310016	0.000000	-0.000002	0.000000	0.000000	0.000000
60.369440	14.793749	21.388356	1.525449	-2.004693	2.328744	0.000000	-0.241729	0.000000	-0.000002	0.000000	0.000000	0.000000
60.810400	13.651068	22.945066	1.075731	-1.512148	2.236600	0.000000	-0.176593	0.000000	-0.000002	-0.000000	0.000000	0.000000
61.251360	12.881913	24.035276	0.675160	-0.950801	2.172708	0.000000	-0.113468	0.000000	-0.000002	-0.000000	0.000000	0.000000
61.692320	12.451144	24.609384	0.305435	-0.346193	2.136340	0.000000	-0.051636	0.000000	-0.000002	-0.000000	0.000000	0.000000
62.134530	12.339131	24.640732	-0.020177	0.213684	2.127089	0.000000	0.004392	0.000000	-0.000002	-0.000000	0.000000	0.000000
62.431853	12.358296	24.517417	-0.044283	0.201066	2.128395	0.000000	0.004392	0.000000	-0.000002	-0.000000	0.000000	0.000000
62.765186	12.396826	24.388088	-0.071308	0.186921	2.129859	0.000000	0.004392	0.000000	-0.000002	-0.000000	0.000000	0.000000
63.098520	12.453373	24.268189	-0.098333	0.172776	2.131323	0.000000	0.004392	0.000000	-0.000003	-0.000000	0.000000	0.000000
63.433103	12.528251	24.157324	-0.125460	0.158577	2.132793	0.000000	0.004392	0.000000	-0.000003	-0.000000	0.000000	0.000000
63.730426	12.610022	24.066778	-0.118641	0.086940	2.134099	0.000000	-0.000841	0.000000	-0.000003	-0.000000	0.000000	0.000000
64.171386	12.875174	23.725042	-0.484947	0.685094	2.147269	0.000000	0.060634	0.000000	-0.000003	-0.000000	0.000000	0.000000
64.612346	13.471891	22.867563	-0.873409	1.252078	2.187675	0.000000	0.122801	0.000000	-0.000003	-0.000000	0.000000	0.000000
65.053306	14.427435	21.533357	-1.301775	1.762093	2.255775	0.000000	0.186366	0.000000	-0.000003	-0.000000	0.000000	0.000000
65.494266	15.785462	19.783130	-1.789614	2.191934	2.352346	0.000000	0.252053	0.000000	-0.000003	-0.000001	0.000000	0.000000
65.940226	17.631185	17.671737	-2.363910	2.522801	2.480060	0.000000	0.321013	0.000000	-0.000004	-0.000001	0.000000	0.000000
66.489286	19.997022	15.309667	-1.919469	1.804618	2.635946	0.000000	0.245981	0.000000	-0.000004	-0.000000	0.000000	0.000000
67.038346	21.797016	13.661460	-1.339445	1.214972	2.749376	0.000000	0.166586	0.000000	-0.000004	-0.000000	0.000000	0.000000
67.587406	22.904025	12.609718	-0.664810	0.711867	2.818336	0.000000	0.084236	0.000000	-0.000004	-0.000000	0.000000	0.000000
68.136466	23.239856	12.079527	0.056784	0.259467	2.841603	0.000000	0.000392	0.000000	-0.000004	-0.000000	0.000000	0.000000
68.435038	23.246045	11.913745	-0.016787	0.264219	2.843937	0.000000	0.007817	0.000000	-0.000004	-0.000000	0.000000	0.000000
68.768372	23.262017	11.747577	-0.031131	0.234287	2.846543	0.000000	0.007817	0.000000	-0.000004	-0.000000	0.000000	0.000000
69.101705	23.287552	11.601363	-0.045474	0.204354	2.849149	0.000000	0.007817	0.000000	-0.000004	-0.000000	0.000000	0.000000
69.436288	23.322799	11.474668	-0.059871	0.174310	2.851764	0.000000	0.007817	0.000000	-0.000004	-0.000000	0.000000	0.000000
69.733611	23.362205	11.378954	-0.133709	0.177344	2.854089	0.000000	0.015275	0.000000	-0.000004	-0.000000	0.000000	0.000000
70.282671	23.107809	11.412017	0.594296	-0.237916	2.839287	0.000000	-0.069111	0.000000	-0.000004	0.000000	0.000000	0.000000
