#ParticleID	Turn	x[m]	xp	y[m]	yp	z[m]	dE[GeV]# s	beta_x	beta_y	alpha_x	alpha_y	D_x	D_y	D_px	D_py	orbit_x	orbit_px	orbit_y	orbit_py
0.300000	11.802802	25.060842	-0.010054	-0.026733	2.618367	0.000000	-0.000085	0.000000	-0.000002	0.000002	0.000000	0.000000
0.601250	11.816550	25.080572	-0.035581	-0.038763	2.618341	0.000000	-0.000085	0.000000	-0.000002	0.000002	0.000000	0.000000
0.898573	11.845198	25.107152	-0.031726	-0.112205	2.618315	0.000000	-0.006506	0.000000	-0.000001	0.000002	0.000000	0.000000
1.339533	12.025178	24.927580	-0.377977	0.517886	2.631740	0.000000	0.067456	0.000000	-0.000000	0.000002	0.000000	0.000000
1.780493	12.516957	24.200625	-0.741498	1.124414	2.677917	0.000000	0.142186	0.000000	0.000000	0.000002	0.000000	0.000000
2.221453	13.343001	22.959363	-1.138895	1.679783	2.757373	0.000000	0.218536	0.000000	0.000001	0.000002	0.000000	0.000000
2.662413	14.541052	21.260270	-1.588325	2.158722	2.871012	0.000000	0.297375	0.000000	0.000002	0.000002	0.000000	0.000000
3.108373	16.186559	19.155739	-2.114606	2.540575	3.021989	0.000000	0.380090	0.000000	0.000003	0.000002	0.000000	0.000000
3.657433	18.296696	16.791980	-1.705824	1.789938	3.205409	0.000000	0.287052	0.000000	0.000004	0.000002	0.000000	0.000000
4.206493	19.888718	15.178084	-1.176551	1.166793	3.336270	0.000000	0.188924	0.000000	0.000005	0.000002	0.000000	0.000000
4.755553	20.850172	14.199096	-0.564173	0.626757	3.412253	0.000000	0.087444	0.000000	0.000006	0.000001	0.000000	0.000000
5.304613	21.113146	13.785285	0.088056	0.131363	3.432008	0.000000	-0.015587	0.000000	0.000006	0.000001	0.000000	0.000000
5.603185	21.097730	13.691983	0.018738	0.145114	3.430031	0.000000	-0.006620	0.000000	0.000007	0.000001	0.000000	0.000000
5.936519	21.090507	13.603526	0.002932	0.120256	3.427824	0.000000	-0.006620	0.000000	0.000007	0.000001	0.000000	0.000000
6.269852	21.093820	13.531641	-0.012873	0.095398	3.425617	0.000000	-0.006620	0.000000	0.000008	0.000001	0.000000	0.000000
6.604435	21.107742	13.476152	-0.028737	0.070447	3.423402	0.000000	-0.006620	0.000000	0.000008	0.000001	0.000000	0.000000
6.901758	21.129022	13.440853	-0.098037	0.083391	3.421433	0.000000	0.002319	0.000000	0.000008	0.000001	0.000000	0.000000
7.450818	20.876614	13.610255	0.555024	-0.393743	3.394507	0.000000	-0.100253	0.000000	0.000009	0.000001	0.000000	0.000000
7.999878	19.924451	14.315840	1.168881	-0.898922	3.311669	0.000000	-0.201047	0.000000	0.000010	0.000001	0.000000	0.000000
8.548938	18.339787	15.607867	1.700174	-1.468129	3.174388	0.000000	-0.298274	0.000000	0.000010	0.000000	0.000000	0.000000
9.097998	16.234556	17.578363	2.111375	-2.141908	2.985099	0.000000	-0.390211	0.000000	0.000010	0.000000	0.000000	0.000000
9.543958	14.592142	19.334142	1.584590	-1.778525	2.829385	0.000000	-0.308514	0.000000	0.000010	0.000000	0.000000	0.000000
9.984918	13.397671	20.712528	1.134484	-1.335456	2.710586	0.000000	-0.230816	0.000000	0.000010	0.000001	0.000000	0.000000
10.425878	12.575888	21.671774	0.736209	-0.831625	2.625438	0.000000	-0.155745	0.000000	0.000011	0.000001	0.000000	0.000000
10.866838	12.089249	22.168235	0.371569	-0.289955	2.572970	0.000000	-0.082449	0.000000	0.000011	0.000001	0.000000	0.000000
11.309048	11.915387	22.178797	0.053017	0.210463	2.552565	0.000000	-0.016351	0.000000	0.000012	0.000001	0.000000	0.000000
11.606371	11.891300	22.057808	0.027994	0.196464	2.547703	0.000000	-0.016351	0.000000	0.000012	0.000001	0.000000	0.000000
12.086371	11.883816	21.880051	-0.012403	0.173863	2.539854	0.000000	-0.016351	0.000000	0.000013	0.000001	0.000000	0.000000
12.566371	11.915114	21.723992	-0.052800	0.151262	2.532005	0.000000	-0.016351	0.000000	0.000014	0.000001	0.000000	0.000000
13.046371	11.985193	21.589629	-0.093198	0.128661	2.524156	0.000000	-0.016351	0.000000	0.000014	0.000001	0.000000	0.000000
13.526371	12.094053	21.476963	-0.133595	0.106060	2.516307	0.000000	-0.016351	0.000000	0.000015	0.000001	0.000000	0.000000
14.007621	12.242130	21.385785	-0.174097	0.083400	2.508437	0.000000	-0.016351	0.000000	0.000016	0.000001	0.000000	0.000000
14.304943	12.353096	21.340354	-0.168831	0.017076	2.503575	0.000000	-0.022490	0.000000	0.000016	0.000001	0.000000	0.000000
14.745903	12.660469	21.091745	-0.530866	0.544567	2.509285	0.000000	0.048415	0.000000	0.000017	0.000002	0.000000	0.000000
15.186863	13.296575	20.387123	-0.917154	1.047280	2.546352	0.000000	0.119871	0.000000	0.000018	0.000002	0.000000	0.000000
15.627823	14.290477	19.258546	-1.345345	1.502343	2.615200	0.000000	0.192692	0.000000	0.000019	0.000003	0.000000	0.000000
16.068783	15.687583	17.757364	-1.835001	1.889051	2.716611	0.000000	0.267708	0.000000	0.000020	0.000003	0.000000	0.000000
16.514743	17.575387	15.930381	-2.413251	2.190549	2.853435	0.000000	0.346235	0.000000	0.000022	0.000004	0.000000	0.000000
17.063803	20.000128	13.890477	-1.976770	1.546647	3.019815	0.000000	0.258935	0.000000	0.000024	0.000003	0.000000	0.000000
17.612863	21.865584	12.493374	-1.400660	1.012908	3.136930	0.000000	0.167042	0.000000	0.000025	0.000002	0.000000	0.000000
18.161923	23.039990	11.639560	-0.725615	0.551317	3.202702	0.000000	0.072187	0.000000	0.000026	0.000001	0.000000	0.000000
18.710983	23.440391	11.268220	0.000685	0.128995	3.215963	0.000000	-0.023949	0.000000	0.000027	0.000001	0.000000	0.000000
19.009556	23.480363	11.181724	-0.073331	0.131268	3.211321	0.000000	-0.015548	0.000000	0.000027	0.000001	0.000000	0.000000
19.342889	23.534007	11.104320	-0.087603	0.100943	3.206138	0.000000	-0.015548	0.000000	0.000027	0.000001	0.000000	0.000000
19.676223	23.597167	11.047133	-0.101876	0.070619	3.200955	0.000000	-0.015548	0.000000	0.000028	0.000001	0.000000	0.000000
20.010806	23.670426	11.009924	-0.233478	0.094731	3.195773	0.000000	0.000286	0.000000	0.000028	0.000001	0.000000	0.000000
20.308129	23.813201	10.961694	-0.308929	0.096118	3.195857	0.000000	0.008634	0.000000	0.000028	0.000001	0.000000	0.000000
20.857189	23.741710	11.078010	0.438364	-0.309214	3.174389	0.000000	-0.086718	0.000000	0.000028	-0.000000	0.000000	0.000000
21.406249	22.861816	11.648838	1.154694	-0.736570	3.100914	0.000000	-0.180531	0.000000	0.000028	-0.000001	0.000000	0.000000
21.955309	21.235671	12.714839	1.789461	-1.216391	2.976734	0.000000	-0.271142	0.000000	0.000027	-0.000002	0.000000	0.000000
22.504369	18.978138	14.351940	2.297830	-1.782852	2.804052	0.000000	-0.356944	0.000000	0.000026	-0.000003	0.000000	0.000000
22.950329	17.198884	15.821880	1.705967	-1.499367	2.662157	0.000000	-0.279764	0.000000	0.000025	-0.000002	0.000000	0.000000
23.391289	15.923743	16.993950	1.196741	-1.148513	2.555109	0.000000	-0.206224	0.000000	0.000024	-0.000001	0.000000	0.000000
23.832249	15.071982	17.832282	0.742192	-0.745403	2.479941	0.000000	-0.135034	0.000000	0.000024	-0.000001	0.000000	0.000000
24.273209	14.604686	18.298732	0.321551	-0.308378	2.435795	0.000000	-0.065381	0.000000	0.000023	-0.000000	0.000000	0.000000
24.715418	14.500629	18.371835	-0.048934	0.097566	2.422168	0.000000	-0.002412	0.000000	0.000024	0.000000	0.000000	0.000000
25.012741	14.535838	18.318675	-0.069487	0.081228	2.421451	0.000000	-0.002412	0.000000	0.000024	0.000000	0.000000	0.000000
25.346075	14.589843	18.270629	-0.092529	0.062912	2.420647	0.000000	-0.002412	0.000000	0.000024	0.000000	0.000000	0.000000
25.679408	14.659210	18.234793	-0.115572	0.044595	2.419843	0.000000	-0.002412	0.000000	0.000024	0.000000	0.000000	0.000000
26.013991	14.743987	18.211472	-0.019088	-0.121530	2.419011	0.000000	-0.022036	0.000000	0.000024	0.000000	0.000000	0.000000
26.311314	14.761335	18.288666	-0.003070	-0.182937	2.412459	0.000000	-0.027951	0.000000	0.000024	0.000000	0.000000	0.000000
26.752274	14.945887	18.251691	-0.417041	0.266468	2.415238	0.000000	0.040567	0.000000	0.000024	0.000001	0.000000	0.000000
27.193234	15.502519	17.822231	-0.850064	0.703748	2.448303	0.000000	0.109547	0.000000	0.000025	0.000001	0.000000	0.000000
27.634194	16.456660	17.019824	-1.321925	1.109008	2.512031	0.000000	0.179774	0.000000	0.000025	0.000002	0.000000	0.000000
28.075154	17.851904	15.880981	-1.854181	1.463809	2.607148	0.000000	0.252049	0.000000	0.000026	0.000003	0.000000	0.000000
28.521114	19.776231	14.440359	-2.476123	1.752919	2.736339	0.000000	0.327638	0.000000	0.000028	0.000003	0.000000	0.000000
29.070174	22.222042	12.835328	-1.952048	1.187569	2.893578	0.000000	0.244280	0.000000	0.000029	0.000002	0.000000	0.000000
29.619234	24.012772	11.801305	-1.290090	0.706807	3.003790	0.000000	0.156590	0.000000	0.000031	0.000001	0.000000	0.000000
30.168294	25.021932	11.264638	-0.537006	0.276390	3.065021	0.000000	0.066122	0.000000	0.000031	0.000000	0.000000	0.000000
30.717354	25.178239	11.187103	0.254010	-0.134341	3.076184	0.000000	-0.025519	0.000000	0.000031	-0.000001	0.000000	0.000000
31.015927	25.069498	11.257930	0.175962	-0.132103	3.070964	0.000000	-0.017484	0.000000	0.000031	-0.000000	0.000000	0.000000
31.349260	24.956759	11.356041	0.162254	-0.162228	3.065136	0.000000	-0.017484	0.000000	0.000031	-0.000000	0.000000	0.000000
31.682593	24.853159	11.474235	0.148546	-0.192354	3.059309	0.000000	-0.017484	0.000000	0.000031	-0.000000	0.000000	0.000000
32.017177	24.758361	11.613069	0.134787	-0.222592	3.053459	0.000000	-0.017484	0.000000	0.000031	-0.000000	0.000000	0.000000
32.314499	24.681846	11.753421	0.058087	-0.218761	3.048261	0.000000	-0.009521	0.000000	0.000030	-0.000000	0.000000	0.000000
32.863559	24.195144	12.232819	0.823092	-0.659516	3.018164	0.000000	-0.099950	0.000000	0.000030	-0.000001	0.000000	0.000000
33.412619	22.895484	13.219018	1.529958	-1.147246	2.938830	0.000000	-0.188607	0.000000	0.000029	-0.000002	0.000000	0.000000
33.961679	20.874667	14.782265	2.128755	-1.716692	2.811667	0.000000	-0.273918	0.000000	0.000027	-0.000003	0.000000	0.000000
34.510739	18.275433	17.033906	2.577188	-2.408414	2.638931	0.000000	-0.354371	0.000000	0.000025	-0.000004	0.000000	0.000000
34.956699	16.254365	19.047954	1.970997	-2.088936	2.497232	0.000000	-0.281471	0.000000	0.000024	-0.000003	0.000000	0.000000
35.397659	14.747203	20.714109	1.459876	-1.675156	2.388491	0.000000	-0.212206	0.000000	0.000022	-0.000003	0.000000	0.000000
35.838619	13.659807	21.980211	1.015452	-1.185158	2.309732	0.000000	-0.145357	0.000000	0.000021	-0.000002	0.000000	0.000000
36.279579	12.942495	22.788654	0.617422	-0.641235	2.260057	0.000000	-0.080163	0.000000	0.000020	-0.000002	0.000000	0.000000
36.721789	12.561801	23.102965	0.278294	-0.124836	2.238875	0.000000	-0.021372	0.000000	0.000020	-0.000001	0.000000	0.000000
37.019112	12.403896	23.181085	0.252792	-0.137906	2.232521	0.000000	-0.021372	0.000000	0.000019	-0.000001	0.000000	0.000000
37.352445	12.244899	23.277906	0.224202	-0.152559	2.225397	0.000000	-0.021372	0.000000	0.000019	-0.000001	0.000000	0.000000
37.685779	12.104961	23.384496	0.195611	-0.167212	2.218274	0.000000	-0.021372	0.000000	0.000019	-0.000001	0.000000	0.000000
38.020362	11.983666	23.501310	0.166913	-0.181920	2.211123	0.000000	-0.021372	0.000000	0.000018	-0.000001	0.000000	0.000000
38.317684	11.891994	23.613374	0.170569	-0.252888	2.204769	0.000000	-0.026778	0.000000	0.000018	-0.000001	0.000000	0.000000
38.758644	11.893141	23.574836	-0.173180	0.339950	2.206884	0.000000	0.036377	0.000000	0.000017	-0.000001	0.000000	0.000000
39.199604	12.199777	23.018312	-0.524841	0.917320	2.236912	0.000000	0.099946	0.000000	0.000017	-0.000000	0.000000	0.000000
39.640564	12.825912	21.969124	-0.900481	1.452953	2.295196	0.000000	0.164654	0.000000	0.000017	0.000000	0.000000	0.000000
40.081524	13.800152	20.475007	-1.317261	1.922478	2.382399	0.000000	0.231237	0.000000	0.000017	0.000000	0.000000	0.000000
40.527484	15.184584	18.581364	-1.798051	2.305819	2.500986	0.000000	0.300859	0.000000	0.000017	0.000001	0.000000	0.000000
41.076544	16.951144	16.453299	-1.400329	1.592892	2.645654	0.000000	0.225331	0.000000	0.000018	0.000000	0.000000	0.000000
41.625604	18.223725	15.041589	-0.903695	0.993423	2.747692	0.000000	0.145806	0.000000	0.000018	-0.000000	0.000000	0.000000
42.174664	18.912438	14.245683	-0.343228	0.464713	2.805291	0.000000	0.063694	0.000000	0.000017	-0.000001	0.000000	0.000000
42.723724	18.968635	14.008889	0.241483	-0.030895	2.817430	0.000000	-0.019547	0.000000	0.000017	-0.000001	0.000000	0.000000
43.022297	18.858898	14.011847	0.175608	-0.015612	2.813791	0.000000	-0.012186	0.000000	0.000016	-0.000001	0.000000	0.000000
43.502297	18.702909	14.043281	0.149371	-0.049877	2.807943	0.000000	-0.012186	0.000000	0.000016	-0.000001	0.000000	0.000000
43.982297	18.572106	14.107610	0.123134	-0.084142	2.802094	0.000000	-0.012186	0.000000	0.000015	-0.000001	0.000000	0.000000
44.462297	18.466492	14.204833	0.096897	-0.118407	2.796245	0.000000	-0.012186	0.000000	0.000015	-0.000001	0.000000	0.000000
44.942297	18.386065	14.334951	0.070660	-0.152672	2.790396	0.000000	-0.012186	0.000000	0.000014	-0.000001	0.000000	0.000000
45.423547	18.330941	14.498251	-0.046467	-0.115193	2.784549	0.000000	0.001610	0.000000	0.000013	-0.000001	0.000000	0.000000
45.720870	18.363406	14.572928	-0.110697	-0.097900	2.785028	0.000000	0.008886	0.000000	0.000013	-0.000001	0.000000	0.000000
46.269930	18.175773	14.962215	0.450408	-0.615290	2.767343	0.000000	-0.073215	0.000000	0.000012	-0.000002	0.000000	0.000000
46.818990	17.385883	15.940244	0.979698	-1.176505	2.704869	0.000000	-0.154018	0.000000	0.000011	-0.000002	0.000000	0.000000
47.368050	16.049529	17.576680	1.439787	-1.821519	2.598716	0.000000	-0.232089	0.000000	0.000010	-0.000002	0.000000	0.000000
47.917110	14.261105	19.988082	1.798177	-2.596277	2.450766	0.000000	-0.306043	0.000000	0.000009	-0.000003	0.000000	0.000000
48.363070	12.869466	22.131930	1.333426	-2.190779	2.329573	0.000000	-0.237758	0.000000	0.000007	-0.000002	0.000000	0.000000
48.804030	11.873679	23.848354	0.933366	-1.686879	2.239189	0.000000	-0.172578	0.000000	0.000006	-0.000002	0.000000	0.000000
49.244990	11.210647	25.084707	0.575948	-1.106228	2.177087	0.000000	-0.109363	0.000000	0.000005	-0.000002	0.000000	0.000000
49.685950	10.850079	25.784736	0.244844	-0.475244	2.142559	0.000000	-0.047394	0.000000	0.000005	-0.000002	0.000000	0.000000
50.128160	10.775621	25.916307	-0.048766	0.113762	2.135223	0.000000	0.008799	0.000000	0.000004	-0.000002	0.000000	0.000000
50.425482	10.812843	25.852114	-0.076424	0.102142	2.137839	0.000000	0.008799	0.000000	0.000003	-0.000002	0.000000	0.000000
50.758816	10.874128	25.788362	-0.107432	0.089113	2.140773	0.000000	0.008799	0.000000	0.000003	-0.000002	0.000000	0.000000
51.092149	10.956085	25.733296	-0.138439	0.076085	2.143707	0.000000	0.008799	0.000000	0.000002	-0.000002	0.000000	0.000000
51.426732	11.058913	25.687279	-0.079846	-0.145380	2.146630	0.000000	-0.008616	0.000000	0.000001	-0.000002	0.000000	0.000000
51.724055	11.114438	25.777243	-0.079647	-0.220413	2.144069	0.000000	-0.013873	0.000000	0.000001	-0.000002	0.000000	0.000000
52.165015	11.329833	25.684821	-0.410675	0.429208	2.151539	0.000000	0.047786	0.000000	-0.000000	-0.000002	0.000000	0.000000
52.605975	11.844308	25.025942	-0.760466	1.059300	2.186293	0.000000	0.109989	0.000000	-0.000001	-0.000002	0.000000	0.000000
53.046935	12.681367	23.830583	-1.145001	1.641194	2.248726	0.000000	0.173445	0.000000	-0.000002	-0.000002	0.000000	0.000000
53.487895	13.879253	22.153133	-1.581847	2.148416	2.339550	0.000000	0.238877	0.000000	-0.000003	-0.000002	0.000000	0.000000
53.933855	15.513233	20.044837	-2.095187	2.559226	2.461302	0.000000	0.307428	0.000000	-0.000003	-0.000002	0.000000	0.000000
54.482915	17.617004	17.672393	-1.713720	1.787201	2.609920	0.000000	0.233122	0.000000	-0.000005	-0.000002	0.000000	0.000000
55.031975	19.232525	16.073265	-1.211204	1.142474	2.716541	0.000000	0.154680	0.000000	-0.000006	-0.000002	0.000000	0.000000
55.581035	20.245683	15.133552	-0.623134	0.579123	2.779275	0.000000	0.073495	0.000000	-0.000006	-0.000002	0.000000	0.000000
56.130095	20.584914	14.786321	0.008950	0.057021	2.797010	0.000000	-0.008993	0.000000	-0.000007	-0.000001	0.000000	0.000000
56.428668	20.616028	14.735283	-0.059371	0.075281	2.796507	0.000000	-0.001685	0.000000	-0.000008	-0.000001	0.000000	0.000000
56.762001	20.661018	14.692679	-0.075597	0.052531	2.795946	0.000000	-0.001685	0.000000	-0.000008	-0.000001	0.000000	0.000000
57.095334	20.716824	14.665242	-0.091823	0.029781	2.795385	0.000000	-0.001685	0.000000	-0.000009	-0.000001	0.000000	0.000000
57.429918	20.783718	14.652953	-0.108109	0.006946	2.794822	0.000000	-0.001685	0.000000	-0.000009	-0.000001	0.000000	0.000000
57.727240	20.852308	14.654856	-0.177069	0.024948	2.794321	0.000000	0.005617	0.000000	-0.000009	-0.000001	0.000000	0.000000
58.276300	20.691051	14.908799	0.469026	-0.490184	2.774763	0.000000	-0.076755	0.000000	-0.000010	-0.000001	0.000000	0.000000
58.825360	19.834378	15.744158	1.081991	-1.040230	2.710286	0.000000	-0.157766	0.000000	-0.000011	-0.000001	0.000000	0.000000
59.374420	18.342801	17.220431	1.618530	-1.664370	2.602032	0.000000	-0.235978	0.000000	-0.000011	-0.000000	0.000000	0.000000
59.923480	16.321675	19.442772	2.040744	-2.407059	2.451923	0.000000	-0.310005	0.000000	-0.000011	-0.000000	0.000000	0.000000
60.369440	14.739809	21.417954	1.518920	-2.003300	2.328965	0.000000	-0.241713	0.000000	-0.000011	-0.000000	0.000000	0.000000
60.810400	13.602211	22.972994	1.070689	-1.509769	2.236830	0.000000	-0.176571	0.000000	-0.000011	-0.000001	0.000000	0.000000
61.251360	12.836934	24.060711	0.671375	-0.947546	2.172950	0.000000	-0.113440	0.000000	-0.000012	-0.000001	0.000000	0.000000
61.692320	12.409014	24.631614	0.302733	-0.342210	2.136596	0.000000	-0.051601	0.000000	-0.000012	-0.000001	0.000000	0.000000
62.134530	12.298957	24.659182	-0.022014	0.218164	2.127362	0.000000	0.004433	0.000000	-0.000013	-0.000001	0.000000	0.000000
62.431853	12.319239	24.533208	-0.046201	0.205533	2.128680	0.000000	0.004433	0.000000	-0.000013	-0.000001	0.000000	0.000000
62.765186	12.359078	24.400906	-0.073316	0.191372	2.130158	0.000000	0.004433	0.000000	-0.000014	-0.000001	0.000000	0.000000
63.098520	12.416994	24.278046	-0.100432	0.177211	2.131636	0.000000	0.004433	0.000000	-0.000014	-0.000001	0.000000	0.000000
63.433103	12.493306	24.164218	-0.127649	0.162996	2.133120	0.000000	0.004433	0.000000	-0.000015	-0.000001	0.000000	0.000000
63.730426	12.576404	24.071048	-0.120990	0.091327	2.134438	0.000000	-0.000802	0.000000	-0.000015	-0.000001	0.000000	0.000000
64.171386	12.843310	23.725428	-0.486591	0.689481	2.147629	0.000000	0.060682	0.000000	-0.000016	-0.000002	0.000000	0.000000
64.612346	13.441194	22.864155	-0.874423	1.256264	2.188058	0.000000	0.122858	0.000000	-0.000017	-0.000002	0.000000	0.000000
65.053306	14.397371	21.526417	-1.302204	1.765887	2.256187	0.000000	0.186433	0.000000	-0.000018	-0.000003	0.000000	0.000000
65.494266	15.755527	19.773080	-1.789480	2.195165	2.352791	0.000000	0.252132	0.000000	-0.000019	-0.000003	0.000000	0.000000
65.940226	17.600875	17.659117	-2.363203	2.525314	2.480544	0.000000	0.321104	0.000000	-0.000021	-0.000004	0.000000	0.000000
66.489286	19.966613	15.294340	-1.920001	1.807067	2.636477	0.000000	0.246055	0.000000	-0.000022	-0.000003	0.000000	0.000000
67.038346	21.767859	13.643399	-1.341181	1.217533	2.749944	0.000000	0.166643	0.000000	-0.000024	-0.000002	0.000000	0.000000
67.587406	22.877381	12.588701	-0.667626	0.714722	2.818930	0.000000	0.084274	0.000000	-0.000025	-0.000001	0.000000	0.000000
68.136466	23.216809	12.055123	0.053086	0.262818	2.842214	0.000000	0.000411	0.000000	-0.000025	-0.000001	0.000000	0.000000
68.435038	23.225180	11.887405	-0.020449	0.267410	2.844554	0.000000	0.007838	0.000000	-0.000026	-0.000001	0.000000	0.000000
68.768372	23.243599	11.719147	-0.034807	0.237364	2.847167	0.000000	0.007838	0.000000	-0.000026	-0.000001	0.000000	0.000000
69.101705	23.271590	11.570920	-0.049165	0.207318	2.849780	0.000000	0.007838	0.000000	-0.000026	-0.000001	0.000000	0.000000
69.436288	23.309312	11.442280	-0.063577	0.177159	2.852403	0.000000	0.007838	0.000000	-0.000026	-0.000001	0.000000	0.000000
69.733611	23.350925	11.344902	-0.137410	0.180008	2.854734	0.000000	0.015299	0.000000	-0.000027	-0.000001	0.000000	0.000000
70.282671	23.100764	11.374506	0.590330	-0.234244	2.839940	0.000000	-0.069108	0.000000	-0.000027	0.000000	0.000000	0.000000
