#ParticleID	Turn	x[m]	xp	y[m]	yp	z[m]	dE[GeV]# s	beta_x	beta_y	alpha_x	alpha_y	D_x	D_y	D_px	D_py	orbit_x	orbit_px	orbit_y	orbit_py
0.300000	11.802521	25.061786	-0.010035	-0.026718	2.618376	0.000000	-0.000089	0.000000	-0.000002	0.000002	0.000000	0.000000
0.601250	11.816257	25.081507	-0.035562	-0.038747	2.618349	0.000000	-0.000089	0.000000	-0.000001	0.000002	0.000000	0.000000
0.898573	11.844895	25.108078	-0.031709	-0.112192	2.618322	0.000000	-0.006510	0.000000	-0.000001	0.000002	0.000000	0.000000
1.339533	12.024857	24.928483	-0.377953	0.517924	2.631745	0.000000	0.067452	0.000000	0.000000	0.000002	0.000000	0.000000
1.780493	12.516610	24.201484	-0.741465	1.124475	2.677921	0.000000	0.142183	0.000000	0.000001	0.000002	0.000000	0.000000
2.221453	13.342622	22.960159	-1.138852	1.679863	2.757375	0.000000	0.218532	0.000000	0.000002	0.000002	0.000000	0.000000
2.662413	14.540629	21.260988	-1.588271	2.158819	2.871012	0.000000	0.297371	0.000000	0.000003	0.000002	0.000000	0.000000
3.108373	16.186081	19.156366	-2.114537	2.540683	3.021988	0.000000	0.380086	0.000000	0.000003	0.000002	0.000000	0.000000
3.657433	18.296150	16.792503	-1.705769	1.790020	3.205405	0.000000	0.287049	0.000000	0.000004	0.000002	0.000000	0.000000
4.206493	19.888120	15.178527	-1.176513	1.166856	3.336265	0.000000	0.188920	0.000000	0.000005	0.000002	0.000000	0.000000
4.755553	20.849542	14.199479	-0.564154	0.626805	3.412245	0.000000	0.087441	0.000000	0.000006	0.000001	0.000000	0.000000
5.304613	21.112507	13.785622	0.088054	0.131400	3.431999	0.000000	-0.015590	0.000000	0.000007	0.000001	0.000000	0.000000
5.603185	21.097092	13.692298	0.018736	0.145151	3.430021	0.000000	-0.006623	0.000000	0.000007	0.000001	0.000000	0.000000
5.936519	21.089869	13.603816	0.002931	0.120294	3.427813	0.000000	-0.006623	0.000000	0.000008	0.000001	0.000000	0.000000
6.269852	21.093184	13.531906	-0.012875	0.095436	3.425605	0.000000	-0.006623	0.000000	0.000008	0.000001	0.000000	0.000000
6.604435	21.107107	13.476391	-0.028739	0.070485	3.423388	0.000000	-0.006623	0.000000	0.000009	0.000001	0.000000	0.000000
6.901758	21.128388	13.441070	-0.098038	0.083430	3.421419	0.000000	0.002316	0.000000	0.000009	0.000001	0.000000	0.000000
7.450818	20.875994	13.610432	0.555002	-0.393709	3.394491	0.000000	-0.100256	0.000000	0.000010	0.000001	0.000000	0.000000
7.999878	19.923865	14.315983	1.168840	-0.898891	3.311652	0.000000	-0.201049	0.000000	0.000010	0.000001	0.000000	0.000000
8.548938	18.339256	15.607976	1.700116	-1.468099	3.174370	0.000000	-0.298276	0.000000	0.000010	0.000000	0.000000	0.000000
9.097998	16.234096	17.578439	2.111305	-2.141877	2.985081	0.000000	-0.390212	0.000000	0.000011	0.000000	0.000000	0.000000
9.543958	14.591739	19.334187	1.584534	-1.778488	2.829366	0.000000	-0.308516	0.000000	0.000011	0.000000	0.000000	0.000000
9.984918	13.397311	20.712540	1.134439	-1.335416	2.710566	0.000000	-0.230818	0.000000	0.000011	0.000001	0.000000	0.000000
10.425878	12.575563	21.671750	0.736174	-0.831583	2.625417	0.000000	-0.155748	0.000000	0.000011	0.000001	0.000000	0.000000
10.866838	12.088951	22.168174	0.371542	-0.289914	2.572948	0.000000	-0.082452	0.000000	0.000011	0.000001	0.000000	0.000000
11.309048	11.915109	22.178700	0.052997	0.210503	2.552542	0.000000	-0.016355	0.000000	0.000012	0.000001	0.000000	0.000000
11.606371	11.891035	22.057687	0.027973	0.196503	2.547679	0.000000	-0.016355	0.000000	0.000012	0.000001	0.000000	0.000000
12.086371	11.883572	21.879893	-0.012425	0.173902	2.539828	0.000000	-0.016355	0.000000	0.000013	0.000001	0.000000	0.000000
12.566371	11.914891	21.723796	-0.052823	0.151300	2.531977	0.000000	-0.016355	0.000000	0.000014	0.000001	0.000000	0.000000
13.046371	11.984992	21.589396	-0.093221	0.128699	2.524126	0.000000	-0.016355	0.000000	0.000014	0.000001	0.000000	0.000000
13.526371	12.093875	21.476694	-0.133619	0.106098	2.516275	0.000000	-0.016355	0.000000	0.000015	0.000001	0.000000	0.000000
14.007621	12.241976	21.385480	-0.174123	0.083437	2.508404	0.000000	-0.016355	0.000000	0.000016	0.000001	0.000000	0.000000
14.304943	12.352958	21.340027	-0.168858	0.017114	2.503541	0.000000	-0.022493	0.000000	0.000016	0.000001	0.000000	0.000000
14.745903	12.660352	21.091390	-0.530890	0.544595	2.509249	0.000000	0.048411	0.000000	0.000017	0.000002	0.000000	0.000000
15.186863	13.296479	20.386747	-0.917177	1.047298	2.546314	0.000000	0.119866	0.000000	0.000018	0.000002	0.000000	0.000000
15.627823	14.290401	19.258160	-1.345368	1.502349	2.615159	0.000000	0.192686	0.000000	0.000019	0.000003	0.000000	0.000000
16.068783	15.687528	17.756978	-1.835024	1.889044	2.716567	0.000000	0.267700	0.000000	0.000020	0.000003	0.000000	0.000000
16.514743	17.575354	15.930007	-2.413277	2.190531	2.853388	0.000000	0.346226	0.000000	0.000022	0.000004	0.000000	0.000000
17.063803	20.000125	13.890117	-1.976800	1.546638	3.019764	0.000000	0.258928	0.000000	0.000024	0.000003	0.000000	0.000000
17.612863	21.865616	12.493018	-1.400693	1.012909	3.136875	0.000000	0.167037	0.000000	0.000025	0.000002	0.000000	0.000000
18.161923	23.040057	11.639199	-0.725647	0.551326	3.202644	0.000000	0.072183	0.000000	0.000026	0.000001	0.000000	0.000000
18.710983	23.440492	11.267843	0.000655	0.129014	3.215905	0.000000	-0.023950	0.000000	0.000027	0.000001	0.000000	0.000000
19.009556	23.480482	11.181337	-0.073361	0.131285	3.211262	0.000000	-0.015550	0.000000	0.000027	0.000001	0.000000	0.000000
19.342889	23.534147	11.103922	-0.087634	0.100960	3.206078	0.000000	-0.015550	0.000000	0.000027	0.000001	0.000000	0.000000
19.676223	23.597327	11.046724	-0.101906	0.070634	3.200895	0.000000	-0.015550	0.000000	0.000027	0.000001	0.000000	0.000000
20.010806	23.670606	11.009506	-0.233510	0.094743	3.195712	0.000000	0.000284	0.000000	0.000027	0.000001	0.000000	0.000000
20.308129	23.813400	10.961269	-0.308961	0.096128	3.195796	0.000000	0.008632	0.000000	0.000028	0.000001	0.000000	0.000000
20.857189	23.741941	11.077568	0.438339	-0.309192	3.174327	0.000000	-0.086718	0.000000	0.000028	-0.000000	0.000000	0.000000
21.406249	22.862069	11.648365	1.154678	-0.736535	3.100852	0.000000	-0.180529	0.000000	0.000028	-0.000001	0.000000	0.000000
21.955309	21.235936	12.714319	1.789455	-1.216339	2.976673	0.000000	-0.271138	0.000000	0.000027	-0.000002	0.000000	0.000000
22.504369	18.978404	14.351353	2.297835	-1.782781	2.803995	0.000000	-0.356938	0.000000	0.000026	-0.000003	0.000000	0.000000
22.950329	17.199148	15.821235	1.705966	-1.499310	2.662102	0.000000	-0.279760	0.000000	0.000024	-0.000002	0.000000	0.000000
23.391289	15.924009	16.993262	1.196736	-1.148473	2.555055	0.000000	-0.206222	0.000000	0.000024	-0.000001	0.000000	0.000000
23.832249	15.072255	17.831566	0.742181	-0.745382	2.479888	0.000000	-0.135032	0.000000	0.000023	-0.000001	0.000000	0.000000
24.273209	14.604972	18.298007	0.321534	-0.308376	2.435743	0.000000	-0.065381	0.000000	0.000023	-0.000000	0.000000	0.000000
24.715418	14.500933	18.371116	-0.048957	0.097549	2.422115	0.000000	-0.002413	0.000000	0.000023	0.000000	0.000000	0.000000
25.012741	14.536156	18.317966	-0.069510	0.081211	2.421397	0.000000	-0.002413	0.000000	0.000023	0.000000	0.000000	0.000000
25.346075	14.590176	18.269931	-0.092552	0.062894	2.420593	0.000000	-0.002413	0.000000	0.000023	0.000000	0.000000	0.000000
25.679408	14.659558	18.234107	-0.115594	0.044577	2.419789	0.000000	-0.002413	0.000000	0.000023	0.000000	0.000000	0.000000
26.013991	14.744349	18.210799	-0.019107	-0.121544	2.418957	0.000000	-0.022037	0.000000	0.000023	0.000000	0.000000	0.000000
26.311314	14.761709	18.288000	-0.003087	-0.182949	2.412404	0.000000	-0.027952	0.000000	0.000023	0.000000	0.000000	0.000000
26.752274	14.946280	18.251045	-0.417067	0.266437	2.415183	0.000000	0.040565	0.000000	0.000024	0.000001	0.000000	0.000000
27.193234	15.502939	17.821618	-0.850101	0.703701	2.448246	0.000000	0.109543	0.000000	0.000024	0.000001	0.000000	0.000000
27.634194	16.457118	17.019260	-1.321974	1.108946	2.511973	0.000000	0.179769	0.000000	0.000025	0.000002	0.000000	0.000000
28.075154	17.852411	15.880476	-1.854245	1.463736	2.607087	0.000000	0.252043	0.000000	0.000026	0.000003	0.000000	0.000000
28.521114	19.776802	14.439923	-2.476204	1.752838	2.736275	0.000000	0.327630	0.000000	0.000027	0.000003	0.000000	0.000000
29.070174	22.222694	12.834970	-1.952113	1.187506	2.893510	0.000000	0.244274	0.000000	0.000029	0.000002	0.000000	0.000000
29.619234	24.013485	11.801009	-1.290134	0.706757	3.003720	0.000000	0.156586	0.000000	0.000030	0.000001	0.000000	0.000000
30.168294	25.022681	11.264393	-0.537027	0.276349	3.064949	0.000000	0.066120	0.000000	0.000030	0.000000	0.000000	0.000000
30.717354	25.178998	11.186898	0.254013	-0.134376	3.076112	0.000000	-0.025518	0.000000	0.000030	-0.000001	0.000000	0.000000
31.015927	25.070256	11.257747	0.175964	-0.132138	3.070892	0.000000	-0.017483	0.000000	0.000030	-0.000000	0.000000	0.000000
31.349260	24.957516	11.355881	0.162256	-0.162264	3.065065	0.000000	-0.017483	0.000000	0.000030	-0.000000	0.000000	0.000000
31.682593	24.853915	11.474099	0.148548	-0.192391	3.059237	0.000000	-0.017483	0.000000	0.000030	-0.000000	0.000000	0.000000
32.017177	24.759115	11.612958	0.134789	-0.222630	3.053388	0.000000	-0.017483	0.000000	0.000029	-0.000000	0.000000	0.000000
32.314499	24.682598	11.753334	0.058087	-0.218800	3.048190	0.000000	-0.009520	0.000000	0.000029	-0.000000	0.000000	0.000000
32.863559	24.195882	12.232773	0.823117	-0.659554	3.018094	0.000000	-0.099948	0.000000	0.000029	-0.000001	0.000000	0.000000
33.412619	22.896181	13.219015	1.530006	-1.147286	2.938763	0.000000	-0.188602	0.000000	0.000028	-0.000002	0.000000	0.000000
33.961679	20.875300	14.782309	2.128823	-1.716738	2.811603	0.000000	-0.273911	0.000000	0.000026	-0.000003	0.000000	0.000000
34.510739	18.275984	17.034004	2.577270	-2.408468	2.638871	0.000000	-0.354362	0.000000	0.000024	-0.000004	0.000000	0.000000
34.956699	16.254850	19.048101	1.971062	-2.088992	2.497176	0.000000	-0.281464	0.000000	0.000023	-0.000003	0.000000	0.000000
35.397659	14.747637	20.714305	1.459927	-1.675211	2.388438	0.000000	-0.212199	0.000000	0.000021	-0.000003	0.000000	0.000000
35.838619	13.660201	21.980455	1.015492	-1.185210	2.309681	0.000000	-0.145352	0.000000	0.000020	-0.000002	0.000000	0.000000
36.279579	12.942860	22.788942	0.617451	-0.641282	2.260009	0.000000	-0.080159	0.000000	0.000020	-0.000002	0.000000	0.000000
36.721789	12.562143	23.103292	0.278316	-0.124876	2.238828	0.000000	-0.021370	0.000000	0.000019	-0.000001	0.000000	0.000000
37.019112	12.404226	23.181435	0.252814	-0.137946	2.232475	0.000000	-0.021370	0.000000	0.000019	-0.000001	0.000000	0.000000
37.352445	12.245213	23.278284	0.224224	-0.152599	2.225352	0.000000	-0.021370	0.000000	0.000018	-0.000001	0.000000	0.000000
37.685779	12.105261	23.384901	0.195634	-0.167252	2.218229	0.000000	-0.021370	0.000000	0.000018	-0.000001	0.000000	0.000000
38.020362	11.983951	23.501741	0.166937	-0.181960	2.211080	0.000000	-0.021370	0.000000	0.000017	-0.000001	0.000000	0.000000
38.317684	11.892265	23.613829	0.170594	-0.252929	2.204726	0.000000	-0.026775	0.000000	0.000017	-0.000001	0.000000	0.000000
38.758644	11.893393	23.575322	-0.173161	0.339921	2.206842	0.000000	0.036379	0.000000	0.000016	-0.000001	0.000000	0.000000
39.199604	12.200014	23.018818	-0.524827	0.917305	2.236871	0.000000	0.099947	0.000000	0.000016	-0.000000	0.000000	0.000000
39.640564	12.826139	21.969636	-0.900471	1.452953	2.295155	0.000000	0.164654	0.000000	0.000016	-0.000000	0.000000	0.000000
40.081524	13.800372	20.475514	-1.317256	1.922492	2.382357	0.000000	0.231236	0.000000	0.000016	0.000000	0.000000	0.000000
40.527484	15.184801	18.581852	-1.798050	2.305847	2.500944	0.000000	0.300856	0.000000	0.000016	0.000001	0.000000	0.000000
41.076544	16.951355	16.453763	-1.400318	1.592906	2.645610	0.000000	0.225329	0.000000	0.000017	0.000000	0.000000	0.000000
41.625604	18.223919	15.042045	-0.903676	0.993425	2.747648	0.000000	0.145806	0.000000	0.000017	-0.000000	0.000000	0.000000
42.174664	18.912607	14.246144	-0.343202	0.464702	2.805248	0.000000	0.063696	0.000000	0.000016	-0.000001	0.000000	0.000000
42.723724	18.968771	14.009369	0.241514	-0.030920	2.817387	0.000000	-0.019544	0.000000	0.000016	-0.000001	0.000000	0.000000
43.022297	18.859017	14.012341	0.175639	-0.015634	2.813750	0.000000	-0.012183	0.000000	0.000015	-0.000001	0.000000	0.000000
43.502297	18.702997	14.043796	0.149401	-0.049898	2.807903	0.000000	-0.012183	0.000000	0.000015	-0.000001	0.000000	0.000000
43.982297	18.572166	14.108145	0.123164	-0.084162	2.802055	0.000000	-0.012183	0.000000	0.000014	-0.000001	0.000000	0.000000
44.462297	18.466522	14.205386	0.096927	-0.118425	2.796208	0.000000	-0.012183	0.000000	0.000013	-0.000001	0.000000	0.000000
44.942297	18.386066	14.335521	0.070690	-0.152689	2.790360	0.000000	-0.012183	0.000000	0.000013	-0.000001	0.000000	0.000000
45.423547	18.330913	14.498838	-0.046437	-0.115206	2.784515	0.000000	0.001613	0.000000	0.000012	-0.000001	0.000000	0.000000
45.720870	18.363360	14.573523	-0.110667	-0.097911	2.784995	0.000000	0.008889	0.000000	0.000012	-0.000001	0.000000	0.000000
46.269930	18.175695	14.962831	0.450435	-0.615319	2.767311	0.000000	-0.073212	0.000000	0.000011	-0.000002	0.000000	0.000000
46.818990	17.385777	15.940903	0.979721	-1.176554	2.704840	0.000000	-0.154013	0.000000	0.000010	-0.000002	0.000000	0.000000
47.368050	16.049401	17.577406	1.439804	-1.821593	2.598689	0.000000	-0.232083	0.000000	0.000009	-0.000002	0.000000	0.000000
47.917110	14.260962	19.988903	1.798187	-2.596379	2.450743	0.000000	-0.306037	0.000000	0.000008	-0.000002	0.000000	0.000000
48.363070	12.869314	22.132835	1.333437	-2.190862	2.329552	0.000000	-0.237752	0.000000	0.000007	-0.000002	0.000000	0.000000
48.804030	11.873515	23.849322	0.933379	-1.686940	2.239171	0.000000	-0.172573	0.000000	0.000006	-0.000002	0.000000	0.000000
49.244990	11.210470	25.085718	0.575964	-1.106263	2.177071	0.000000	-0.109358	0.000000	0.000005	-0.000002	0.000000	0.000000
49.685950	10.849886	25.785767	0.244864	-0.475252	2.142545	0.000000	-0.047390	0.000000	0.000004	-0.000002	0.000000	0.000000
50.128160	10.775409	25.917333	-0.048743	0.113778	2.135210	0.000000	0.008803	0.000000	0.000003	-0.000002	0.000000	0.000000
50.425482	10.812617	25.853130	-0.076401	0.102158	2.137828	0.000000	0.008803	0.000000	0.000003	-0.000002	0.000000	0.000000
50.758816	10.873887	25.789367	-0.107409	0.089130	2.140763	0.000000	0.008803	0.000000	0.000002	-0.000002	0.000000	0.000000
51.092149	10.955829	25.734290	-0.138417	0.076102	2.143699	0.000000	0.008803	0.000000	0.000001	-0.000002	0.000000	0.000000
51.426732	11.058643	25.688261	-0.079827	-0.145370	2.146623	0.000000	-0.008611	0.000000	0.000001	-0.000002	0.000000	0.000000
51.724055	11.114156	25.778219	-0.079629	-0.220406	2.144063	0.000000	-0.013869	0.000000	0.000000	-0.000002	0.000000	0.000000
52.165015	11.329532	25.685779	-0.410650	0.429241	2.151536	0.000000	0.047790	0.000000	-0.000001	-0.000002	0.000000	0.000000
52.605975	11.843981	25.026860	-0.760433	1.059357	2.186291	0.000000	0.109993	0.000000	-0.000001	-0.000002	0.000000	0.000000
53.046935	12.681007	23.831441	-1.144958	1.641273	2.248726	0.000000	0.173450	0.000000	-0.000002	-0.000002	0.000000	0.000000
53.487895	13.878851	22.153914	-1.581793	2.148513	2.339551	0.000000	0.238881	0.000000	-0.000003	-0.000002	0.000000	0.000000
53.933855	15.512776	20.045525	-2.095119	2.559336	2.461306	0.000000	0.307432	0.000000	-0.000004	-0.000002	0.000000	0.000000
54.482915	17.616479	17.672974	-1.713664	1.787284	2.609925	0.000000	0.233126	0.000000	-0.000005	-0.000002	0.000000	0.000000
55.031975	19.231948	16.073767	-1.211165	1.142536	2.716549	0.000000	0.154684	0.000000	-0.000006	-0.000002	0.000000	0.000000
55.581035	20.245074	15.133996	-0.623114	0.579168	2.779285	0.000000	0.073499	0.000000	-0.000007	-0.000002	0.000000	0.000000
56.130095	20.584295	14.786721	0.008949	0.057054	2.797021	0.000000	-0.008990	0.000000	-0.000008	-0.000001	0.000000	0.000000
56.428668	20.615409	14.735664	-0.059371	0.075315	2.796520	0.000000	-0.001682	0.000000	-0.000008	-0.000001	0.000000	0.000000
56.762001	20.660398	14.693037	-0.075597	0.052566	2.795960	0.000000	-0.001682	0.000000	-0.000009	-0.000001	0.000000	0.000000
57.095334	20.716205	14.665576	-0.091824	0.029816	2.795400	0.000000	-0.001682	0.000000	-0.000009	-0.000001	0.000000	0.000000
57.429918	20.783100	14.653264	-0.108111	0.006982	2.794837	0.000000	-0.001682	0.000000	-0.000010	-0.000001	0.000000	0.000000
57.727240	20.851691	14.655145	-0.177070	0.024985	2.794338	0.000000	0.005620	0.000000	-0.000010	-0.000001	0.000000	0.000000
58.276300	20.690446	14.909053	0.469005	-0.490155	2.774782	0.000000	-0.076753	0.000000	-0.000011	-0.000001	0.000000	0.000000
58.825360	19.833807	15.744382	1.081951	-1.040207	2.710305	0.000000	-0.157764	0.000000	-0.000011	-0.000001	0.000000	0.000000
59.374420	18.342283	17.220632	1.618474	-1.664350	2.602053	0.000000	-0.235977	0.000000	-0.000011	-0.000000	0.000000	0.000000
59.923480	16.321226	19.442952	2.040676	-2.407041	2.451944	0.000000	-0.310004	0.000000	-0.000011	0.000000	0.000000	0.000000
60.369440	14.739415	21.418114	1.518866	-2.003274	2.328987	0.000000	-0.241711	0.000000	-0.000011	-0.000000	0.000000	0.000000
60.810400	13.601859	22.973128	1.070646	-1.509737	2.236852	0.000000	-0.176569	0.000000	-0.000012	-0.000001	0.000000	0.000000
61.251360	12.836616	24.060814	0.671341	-0.947509	2.172973	0.000000	-0.113437	0.000000	-0.000012	-0.000001	0.000000	0.000000
61.692320	12.408723	24.631683	0.302707	-0.342170	2.136621	0.000000	-0.051598	0.000000	-0.000012	-0.000001	0.000000	0.000000
62.134530	12.298686	24.659215	-0.022034	0.218205	2.127388	0.000000	0.004436	0.000000	-0.000013	-0.000001	0.000000	0.000000
62.431853	12.318980	24.533216	-0.046221	0.205574	2.128707	0.000000	0.004436	0.000000	-0.000013	-0.000001	0.000000	0.000000
62.765186	12.358833	24.400887	-0.073338	0.191413	2.130186	0.000000	0.004436	0.000000	-0.000014	-0.000001	0.000000	0.000000
63.098520	12.416763	24.277999	-0.100454	0.177251	2.131665	0.000000	0.004436	0.000000	-0.000014	-0.000001	0.000000	0.000000
63.433103	12.493090	24.164144	-0.127672	0.163037	2.133150	0.000000	0.004436	0.000000	-0.000015	-0.000001	0.000000	0.000000
63.730426	12.576201	24.070951	-0.121014	0.091368	2.134470	0.000000	-0.000799	0.000000	-0.000015	-0.000001	0.000000	0.000000
64.171386	12.843126	23.725296	-0.486611	0.689518	2.147662	0.000000	0.060687	0.000000	-0.000016	-0.000002	0.000000	0.000000
64.612346	13.441026	22.863993	-0.874439	1.256295	2.188093	0.000000	0.122863	0.000000	-0.000017	-0.000002	0.000000	0.000000
65.053306	14.397217	21.526230	-1.302219	1.765912	2.256224	0.000000	0.186439	0.000000	-0.000018	-0.000003	0.000000	0.000000
65.494266	15.755385	19.772874	-1.789492	2.195182	2.352831	0.000000	0.252139	0.000000	-0.000019	-0.000003	0.000000	0.000000
65.940226	17.600743	17.658900	-2.363214	2.525322	2.480588	0.000000	0.321112	0.000000	-0.000021	-0.000004	0.000000	0.000000
66.489286	19.966498	15.294112	-1.920020	1.807078	2.636525	0.000000	0.246062	0.000000	-0.000022	-0.000003	0.000000	0.000000
67.038346	21.767767	13.643156	-1.341205	1.217549	2.749995	0.000000	0.166648	0.000000	-0.000024	-0.000002	0.000000	0.000000
67.587406	22.877318	12.588438	-0.667654	0.714742	2.818984	0.000000	0.084278	0.000000	-0.000025	-0.000001	0.000000	0.000000
68.136466	23.216778	12.054834	0.053056	0.262845	2.842269	0.000000	0.000412	0.000000	-0.000025	-0.000001	0.000000	0.000000
68.435038	23.225167	11.887101	-0.020479	0.267435	2.844610	0.000000	0.007840	0.000000	-0.000025	-0.000001	0.000000	0.000000
68.768372	23.243606	11.718827	-0.034837	0.237388	2.847224	0.000000	0.007840	0.000000	-0.000026	-0.000001	0.000000	0.000000
69.101705	23.271617	11.570584	-0.049195	0.207341	2.849837	0.000000	0.007840	0.000000	-0.000026	-0.000001	0.000000	0.000000
69.436288	23.309359	11.441929	-0.063607	0.177181	2.852461	0.000000	0.007840	0.000000	-0.000026	-0.000001	0.000000	0.000000
69.733611	23.350990	11.344538	-0.137440	0.180027	2.854792	0.000000	0.015301	0.000000	-0.000026	-0.000001	0.000000	0.000000
70.282671	23.100861	11.374115	0.590303	-0.234214	2.839999	0.000000	-0.069108	0.000000	-0.000026	0.000000	0.000000	0.000000
