#ParticleID	Turn	x[m]	xp	y[m]	yp	z[m]	dE[GeV]# s	beta_x	beta_y	alpha_x	alpha_y	D_x	D_y	D_px	D_py	orbit_x	orbit_px	orbit_y	orbit_py
0.300000	11.801769	25.064474	-0.009982	-0.026678	2.618413	0.000000	-0.000103	0.000000	-0.000003	0.000002	0.000000	0.000000
0.601250	11.815474	25.084170	-0.035511	-0.038705	2.618382	0.000000	-0.000103	0.000000	-0.000002	0.000002	0.000000	0.000000
0.898573	11.844082	25.110716	-0.031661	-0.112155	2.618351	0.000000	-0.006524	0.000000	-0.000002	0.000002	0.000000	0.000000
1.339533	12.023993	24.931058	-0.377885	0.518030	2.631767	0.000000	0.067439	0.000000	-0.000001	0.000002	0.000000	0.000000
1.780493	12.515676	24.203937	-0.741374	1.124644	2.677937	0.000000	0.142170	0.000000	0.000000	0.000002	0.000000	0.000000
2.221453	13.341596	22.962438	-1.138734	1.680089	2.757385	0.000000	0.218520	0.000000	0.000001	0.000002	0.000000	0.000000
2.662413	14.539486	21.263046	-1.588120	2.159091	2.871017	0.000000	0.297358	0.000000	0.000002	0.000002	0.000000	0.000000
3.108373	16.184786	19.158165	-2.114347	2.540989	3.021988	0.000000	0.380074	0.000000	0.000003	0.000002	0.000000	0.000000
3.657433	18.294665	16.794008	-1.705614	1.790254	3.205398	0.000000	0.287037	0.000000	0.000004	0.000002	0.000000	0.000000
4.206493	19.886490	15.179808	-1.176405	1.167034	3.336251	0.000000	0.188908	0.000000	0.000005	0.000002	0.000000	0.000000
4.755553	20.847824	14.200589	-0.564101	0.626939	3.412225	0.000000	0.087429	0.000000	0.000006	0.000002	0.000000	0.000000
5.304613	21.110762	13.786605	0.088049	0.131500	3.431972	0.000000	-0.015600	0.000000	0.000007	0.000001	0.000000	0.000000
5.603185	21.095348	13.693219	0.018735	0.145255	3.429991	0.000000	-0.006634	0.000000	0.000007	0.000001	0.000000	0.000000
5.936519	21.088127	13.604668	0.002928	0.120398	3.427780	0.000000	-0.006634	0.000000	0.000008	0.000001	0.000000	0.000000
6.269852	21.091444	13.532688	-0.012879	0.095542	3.425568	0.000000	-0.006634	0.000000	0.000008	0.000001	0.000000	0.000000
6.604435	21.105370	13.477102	-0.028745	0.070592	3.423348	0.000000	-0.006634	0.000000	0.000009	0.000001	0.000000	0.000000
6.901758	21.126656	13.441717	-0.098040	0.083539	3.421375	0.000000	0.002305	0.000000	0.000009	0.000001	0.000000	0.000000
7.450818	20.874295	13.610968	0.554942	-0.393616	3.394442	0.000000	-0.100265	0.000000	0.000010	0.000001	0.000000	0.000000
7.999878	19.922262	14.316422	1.168727	-0.898807	3.311598	0.000000	-0.201056	0.000000	0.000010	0.000001	0.000000	0.000000
8.548938	18.337803	15.608327	1.699958	-1.468019	3.174312	0.000000	-0.298281	0.000000	0.000011	0.000001	0.000000	0.000000
9.097998	16.232836	17.578700	2.111112	-2.141794	2.985020	0.000000	-0.390216	0.000000	0.000011	0.000000	0.000000	0.000000
9.543958	14.590633	19.334367	1.584381	-1.778389	2.829303	0.000000	-0.308521	0.000000	0.000011	0.000000	0.000000	0.000000
9.984918	13.396326	20.712627	1.134318	-1.335306	2.710501	0.000000	-0.230825	0.000000	0.000011	0.000001	0.000000	0.000000
10.425878	12.574673	21.671737	0.736079	-0.831467	2.625348	0.000000	-0.155757	0.000000	0.000012	0.000001	0.000000	0.000000
10.866838	12.088134	22.168058	0.371470	-0.289797	2.572875	0.000000	-0.082463	0.000000	0.000012	0.000001	0.000000	0.000000
11.309048	11.914348	22.178482	0.052941	0.210616	2.552463	0.000000	-0.016367	0.000000	0.000013	0.000002	0.000000	0.000000
11.606371	11.890308	22.057402	0.027916	0.196616	2.547596	0.000000	-0.016367	0.000000	0.000013	0.000002	0.000000	0.000000
12.086371	11.882901	21.879500	-0.012485	0.174013	2.539739	0.000000	-0.016367	0.000000	0.000014	0.000002	0.000000	0.000000
12.566371	11.914279	21.723297	-0.052885	0.151411	2.531882	0.000000	-0.016367	0.000000	0.000015	0.000002	0.000000	0.000000
13.046371	11.984441	21.588792	-0.093286	0.128808	2.524026	0.000000	-0.016367	0.000000	0.000016	0.000002	0.000000	0.000000
13.526371	12.093387	21.475985	-0.133686	0.106205	2.516169	0.000000	-0.016367	0.000000	0.000016	0.000002	0.000000	0.000000
14.007621	12.241554	21.384669	-0.174192	0.083544	2.508291	0.000000	-0.016367	0.000000	0.000017	0.000002	0.000000	0.000000
14.304943	12.352577	21.339152	-0.168930	0.017223	2.503424	0.000000	-0.022505	0.000000	0.000018	0.000002	0.000000	0.000000
14.745903	12.660032	21.090430	-0.530956	0.544678	2.509127	0.000000	0.048395	0.000000	0.000019	0.000002	0.000000	0.000000
15.186863	13.296216	20.385728	-0.917240	1.047351	2.546184	0.000000	0.119847	0.000000	0.000020	0.000003	0.000000	0.000000
15.627823	14.290192	19.257108	-1.345430	1.502370	2.615020	0.000000	0.192664	0.000000	0.000021	0.000003	0.000000	0.000000
16.068783	15.687375	17.755922	-1.835089	1.889033	2.716418	0.000000	0.267675	0.000000	0.000022	0.000004	0.000000	0.000000
16.514743	17.575261	15.928975	-2.413347	2.190487	2.853226	0.000000	0.346197	0.000000	0.000024	0.000004	0.000000	0.000000
17.063803	20.000117	13.889120	-1.976883	1.546619	3.019587	0.000000	0.258904	0.000000	0.000026	0.000003	0.000000	0.000000
17.612863	21.865703	12.492028	-1.400781	1.012914	3.136687	0.000000	0.167019	0.000000	0.000028	0.000003	0.000000	0.000000
18.161923	23.040242	11.638189	-0.725735	0.551357	3.202447	0.000000	0.072172	0.000000	0.000029	0.000002	0.000000	0.000000
18.710983	23.440771	11.266786	0.000573	0.129071	3.215703	0.000000	-0.023956	0.000000	0.000030	0.000001	0.000000	0.000000
19.009556	23.480810	11.180248	-0.073443	0.131336	3.211058	0.000000	-0.015556	0.000000	0.000030	0.000001	0.000000	0.000000
19.342889	23.534529	11.102800	-0.087715	0.101007	3.205872	0.000000	-0.015556	0.000000	0.000030	0.000001	0.000000	0.000000
19.676223	23.597764	11.045572	-0.101988	0.070678	3.200687	0.000000	-0.015556	0.000000	0.000030	0.000001	0.000000	0.000000
20.010806	23.671097	11.008325	-0.233593	0.094778	3.195502	0.000000	0.000276	0.000000	0.000031	0.000001	0.000000	0.000000
20.308129	23.813940	10.960069	-0.309045	0.096156	3.195584	0.000000	0.008624	0.000000	0.000031	0.000001	0.000000	0.000000
20.857189	23.742563	11.076318	0.438275	-0.309130	3.174112	0.000000	-0.086719	0.000000	0.000031	-0.000000	0.000000	0.000000
21.406249	22.862749	11.647026	1.154638	-0.736434	3.100638	0.000000	-0.180523	0.000000	0.000031	-0.000001	0.000000	0.000000
21.955309	21.236645	12.712844	1.789443	-1.216192	2.976465	0.000000	-0.271126	0.000000	0.000030	-0.000002	0.000000	0.000000
22.504369	18.979110	14.349687	2.297850	-1.782577	2.803795	0.000000	-0.356919	0.000000	0.000029	-0.000003	0.000000	0.000000
22.950329	17.199847	15.819406	1.705967	-1.499147	2.661910	0.000000	-0.279745	0.000000	0.000027	-0.000002	0.000000	0.000000
23.391289	15.924714	16.991309	1.196722	-1.148358	2.554869	0.000000	-0.206212	0.000000	0.000027	-0.000002	0.000000	0.000000
23.832249	15.072979	17.829535	0.742152	-0.745319	2.479704	0.000000	-0.135028	0.000000	0.000026	-0.000001	0.000000	0.000000
24.273209	14.605727	18.295945	0.321490	-0.308369	2.435560	0.000000	-0.065381	0.000000	0.000026	-0.000000	0.000000	0.000000
24.715418	14.501735	18.369072	-0.049018	0.097507	2.421931	0.000000	-0.002417	0.000000	0.000026	0.000000	0.000000	0.000000
25.012741	14.536994	18.315949	-0.069570	0.081167	2.421212	0.000000	-0.002417	0.000000	0.000026	0.000000	0.000000	0.000000
25.346075	14.591055	18.267944	-0.092611	0.062848	2.420407	0.000000	-0.002417	0.000000	0.000026	0.000000	0.000000	0.000000
25.679408	14.660476	18.232152	-0.115652	0.044529	2.419601	0.000000	-0.002417	0.000000	0.000026	0.000000	0.000000	0.000000
26.013991	14.745305	18.208876	-0.019156	-0.121578	2.418767	0.000000	-0.022040	0.000000	0.000027	0.000000	0.000000	0.000000
26.311314	14.762693	18.286099	-0.003134	-0.182980	2.412214	0.000000	-0.027954	0.000000	0.000027	0.000000	0.000000	0.000000
26.752274	14.947316	18.249193	-0.417138	0.266356	2.414991	0.000000	0.040558	0.000000	0.000027	0.000001	0.000000	0.000000
27.193234	15.504050	17.819859	-0.850200	0.703572	2.448050	0.000000	0.109531	0.000000	0.000027	0.000002	0.000000	0.000000
27.634194	16.458331	17.017633	-1.322106	1.108776	2.511770	0.000000	0.179752	0.000000	0.000028	0.000002	0.000000	0.000000
28.075154	17.853757	15.879015	-1.854415	1.463532	2.606876	0.000000	0.252020	0.000000	0.000029	0.000003	0.000000	0.000000
28.521114	19.778320	14.438655	-2.476421	1.752610	2.736052	0.000000	0.327602	0.000000	0.000031	0.000004	0.000000	0.000000
29.070174	22.224429	12.833924	-1.952288	1.187328	2.893274	0.000000	0.244254	0.000000	0.000033	0.000003	0.000000	0.000000
29.619234	24.015384	11.800137	-1.290255	0.706616	3.003474	0.000000	0.156573	0.000000	0.000034	0.000002	0.000000	0.000000
30.168294	25.024679	11.263659	-0.537085	0.276236	3.064698	0.000000	0.066116	0.000000	0.000034	0.000001	0.000000	0.000000
30.717354	25.181023	11.186277	0.254022	-0.134469	3.075861	0.000000	-0.025515	0.000000	0.000034	-0.000001	0.000000	0.000000
31.015927	25.072278	11.257183	0.175970	-0.132236	3.070642	0.000000	-0.017480	0.000000	0.000034	-0.000000	0.000000	0.000000
31.349260	24.959533	11.355384	0.162264	-0.162365	3.064815	0.000000	-0.017480	0.000000	0.000034	-0.000000	0.000000	0.000000
31.682593	24.855926	11.473670	0.148557	-0.192493	3.058988	0.000000	-0.017480	0.000000	0.000034	-0.000000	0.000000	0.000000
32.017177	24.761120	11.612598	0.134799	-0.222735	3.053140	0.000000	-0.017480	0.000000	0.000034	-0.000000	0.000000	0.000000
32.314499	24.684597	11.753036	0.058095	-0.218909	3.047943	0.000000	-0.009519	0.000000	0.000034	-0.000000	0.000000	0.000000
32.863559	24.197836	12.232593	0.823191	-0.659660	3.017850	0.000000	-0.099938	0.000000	0.000033	-0.000001	0.000000	0.000000
33.412619	22.898021	13.218955	1.530140	-1.147398	2.938526	0.000000	-0.188585	0.000000	0.000032	-0.000003	0.000000	0.000000
33.961679	20.876963	14.782378	2.129008	-1.716863	2.811378	0.000000	-0.273886	0.000000	0.000030	-0.000004	0.000000	0.000000
34.510739	18.277422	17.034222	2.577493	-2.408616	2.638662	0.000000	-0.354330	0.000000	0.000028	-0.000004	0.000000	0.000000
34.956699	16.256110	19.048455	1.971239	-2.089147	2.496980	0.000000	-0.281437	0.000000	0.000026	-0.000004	0.000000	0.000000
35.397659	14.748760	20.714796	1.460066	-1.675366	2.388252	0.000000	-0.212178	0.000000	0.000025	-0.000003	0.000000	0.000000
35.838619	13.661215	21.981079	1.015599	-1.185357	2.309504	0.000000	-0.145335	0.000000	0.000024	-0.000002	0.000000	0.000000
36.279579	12.943790	22.789690	0.617533	-0.641416	2.259838	0.000000	-0.080147	0.000000	0.000023	-0.000002	0.000000	0.000000
36.721789	12.563011	23.104150	0.278376	-0.124990	2.238662	0.000000	-0.021361	0.000000	0.000022	-0.000001	0.000000	0.000000
37.019112	12.405058	23.182360	0.252876	-0.138060	2.232311	0.000000	-0.021361	0.000000	0.000022	-0.000001	0.000000	0.000000
37.352445	12.246004	23.279285	0.224287	-0.152713	2.225192	0.000000	-0.021361	0.000000	0.000021	-0.000001	0.000000	0.000000
37.685779	12.106009	23.385978	0.195698	-0.167366	2.218072	0.000000	-0.021361	0.000000	0.000021	-0.000001	0.000000	0.000000
38.020362	11.984656	23.502894	0.167001	-0.182073	2.210925	0.000000	-0.021361	0.000000	0.000020	-0.000001	0.000000	0.000000
38.317684	11.892932	23.615049	0.170660	-0.253044	2.204575	0.000000	-0.026766	0.000000	0.000020	-0.000001	0.000000	0.000000
38.758644	11.894007	23.576629	-0.173109	0.339840	2.206694	0.000000	0.036384	0.000000	0.000019	-0.000001	0.000000	0.000000
39.199604	12.200589	23.020180	-0.524788	0.917262	2.236724	0.000000	0.099948	0.000000	0.000019	-0.000000	0.000000	0.000000
39.640564	12.826683	21.971019	-0.900442	1.452949	2.295007	0.000000	0.164651	0.000000	0.000019	0.000000	0.000000	0.000000
40.081524	13.800894	20.476882	-1.317235	1.922528	2.382208	0.000000	0.231229	0.000000	0.000019	0.000001	0.000000	0.000000
40.527484	15.185309	18.583170	-1.798037	2.305922	2.500791	0.000000	0.300846	0.000000	0.000019	0.000001	0.000000	0.000000
41.076544	16.951837	16.455021	-1.400284	1.592943	2.645453	0.000000	0.225324	0.000000	0.000020	0.000000	0.000000	0.000000
41.625604	18.224352	15.043281	-0.903621	0.993427	2.747489	0.000000	0.145806	0.000000	0.000020	-0.000000	0.000000	0.000000
42.174664	18.912969	14.247395	-0.343131	0.464671	2.805091	0.000000	0.063701	0.000000	0.000020	-0.000001	0.000000	0.000000
42.723724	18.969049	14.010675	0.241596	-0.030988	2.817234	0.000000	-0.019534	0.000000	0.000019	-0.000001	0.000000	0.000000
43.022297	18.859245	14.013686	0.175721	-0.015698	2.813600	0.000000	-0.012174	0.000000	0.000018	-0.000001	0.000000	0.000000
43.502297	18.703147	14.045201	0.149484	-0.049958	2.807757	0.000000	-0.012174	0.000000	0.000018	-0.000001	0.000000	0.000000
43.982297	18.572237	14.109606	0.123246	-0.084219	2.801915	0.000000	-0.012174	0.000000	0.000017	-0.000001	0.000000	0.000000
44.462297	18.466515	14.206902	0.097008	-0.118480	2.796072	0.000000	-0.012174	0.000000	0.000016	-0.000001	0.000000	0.000000
44.942297	18.385981	14.337087	0.070771	-0.152740	2.790229	0.000000	-0.012174	0.000000	0.000016	-0.000001	0.000000	0.000000
45.423547	18.330751	14.500451	-0.046356	-0.115246	2.784388	0.000000	0.001622	0.000000	0.000015	-0.000001	0.000000	0.000000
45.720870	18.363149	14.575159	-0.110584	-0.097946	2.784871	0.000000	0.008897	0.000000	0.000015	-0.000001	0.000000	0.000000
46.269930	18.175398	14.964532	0.450509	-0.615404	2.767193	0.000000	-0.073199	0.000000	0.000014	-0.000002	0.000000	0.000000
46.818990	17.385407	15.942728	0.979780	-1.176696	2.704730	0.000000	-0.153997	0.000000	0.000013	-0.000002	0.000000	0.000000
47.368050	16.048976	17.579422	1.439844	-1.821801	2.598589	0.000000	-0.232064	0.000000	0.000011	-0.000003	0.000000	0.000000
47.917110	14.260505	19.991191	1.798205	-2.596669	2.450654	0.000000	-0.306014	0.000000	0.000010	-0.000003	0.000000	0.000000
48.363070	12.868837	22.135359	1.333462	-2.191100	2.329474	0.000000	-0.237732	0.000000	0.000009	-0.000003	0.000000	0.000000
48.804030	11.873014	23.852029	0.933411	-1.687115	2.239101	0.000000	-0.172554	0.000000	0.000007	-0.000002	0.000000	0.000000
49.244990	11.209938	25.088548	0.576004	-1.106367	2.177009	0.000000	-0.109342	0.000000	0.000006	-0.000002	0.000000	0.000000
49.685950	10.849313	25.788656	0.244914	-0.475281	2.142490	0.000000	-0.047374	0.000000	0.000005	-0.000002	0.000000	0.000000
50.128160	10.774787	25.920213	-0.048681	0.113820	2.135162	0.000000	0.008818	0.000000	0.000004	-0.000002	0.000000	0.000000
50.425482	10.811959	25.855985	-0.076341	0.102201	2.137785	0.000000	0.008818	0.000000	0.000004	-0.000002	0.000000	0.000000
50.758816	10.873189	25.792193	-0.107351	0.089175	2.140725	0.000000	0.008818	0.000000	0.000003	-0.000002	0.000000	0.000000
51.092149	10.955093	25.737085	-0.138360	0.076148	2.143664	0.000000	0.008818	0.000000	0.000002	-0.000002	0.000000	0.000000
51.426732	11.057869	25.691026	-0.079778	-0.145346	2.146593	0.000000	-0.008597	0.000000	0.000002	-0.000002	0.000000	0.000000
51.724055	11.113354	25.780968	-0.079584	-0.220386	2.144038	0.000000	-0.013855	0.000000	0.000001	-0.000002	0.000000	0.000000
52.165015	11.328682	25.688479	-0.410586	0.429333	2.151517	0.000000	0.047804	0.000000	0.000000	-0.000002	0.000000	0.000000
52.605975	11.843065	25.029448	-0.760347	1.059517	2.186279	0.000000	0.110007	0.000000	-0.000001	-0.000002	0.000000	0.000000
53.046935	12.680004	23.833860	-1.144846	1.641494	2.248720	0.000000	0.173463	0.000000	-0.000002	-0.000002	0.000000	0.000000
53.487895	13.877735	22.156114	-1.581650	2.148785	2.339551	0.000000	0.238894	0.000000	-0.000003	-0.000002	0.000000	0.000000
53.933855	15.511516	20.047465	-2.094937	2.559646	2.461311	0.000000	0.307446	0.000000	-0.000003	-0.000002	0.000000	0.000000
54.482915	17.615037	17.674618	-1.713518	1.787518	2.609938	0.000000	0.233139	0.000000	-0.000005	-0.000002	0.000000	0.000000
55.031975	19.230369	16.075187	-1.211064	1.142711	2.716569	0.000000	0.154697	0.000000	-0.000006	-0.000002	0.000000	0.000000
55.581035	20.243413	15.135250	-0.623067	0.579296	2.779312	0.000000	0.073511	0.000000	-0.000007	-0.000002	0.000000	0.000000
56.130095	20.582612	14.787857	0.008941	0.057144	2.797054	0.000000	-0.008979	0.000000	-0.000008	-0.000001	0.000000	0.000000
56.428668	20.613729	14.736743	-0.059376	0.075409	2.796556	0.000000	-0.001671	0.000000	-0.000008	-0.000002	0.000000	0.000000
56.762001	20.658722	14.694053	-0.075604	0.052661	2.795999	0.000000	-0.001671	0.000000	-0.000009	-0.000002	0.000000	0.000000
57.095334	20.714534	14.666528	-0.091831	0.029913	2.795443	0.000000	-0.001671	0.000000	-0.000009	-0.000002	0.000000	0.000000
57.429918	20.781434	14.654151	-0.108120	0.007080	2.794884	0.000000	-0.001671	0.000000	-0.000010	-0.000002	0.000000	0.000000
57.727240	20.850030	14.655973	-0.177076	0.025086	2.794388	0.000000	0.005631	0.000000	-0.000010	-0.000002	0.000000	0.000000
58.276300	20.688823	14.909781	0.468944	-0.490074	2.774838	0.000000	-0.076743	0.000000	-0.000011	-0.000001	0.000000	0.000000
58.825360	19.832279	15.745032	1.081839	-1.040142	2.710366	0.000000	-0.157756	0.000000	-0.000011	-0.000001	0.000000	0.000000
59.374420	18.340902	17.221217	1.618319	-1.664296	2.602117	0.000000	-0.235971	0.000000	-0.000012	-0.000000	0.000000	0.000000
59.923480	16.320034	19.443482	2.040489	-2.406995	2.452010	0.000000	-0.310001	0.000000	-0.000012	-0.000000	0.000000	0.000000
60.369440	14.738371	21.418593	1.518716	-2.003206	2.329055	0.000000	-0.241706	0.000000	-0.000012	-0.000000	0.000000	0.000000
60.810400	13.600934	22.973539	1.070527	-1.509651	2.236923	0.000000	-0.176562	0.000000	-0.000012	-0.000001	0.000000	0.000000
61.251360	12.835784	24.061142	0.671247	-0.947408	2.173047	0.000000	-0.113429	0.000000	-0.000013	-0.000001	0.000000	0.000000
61.692320	12.407964	24.631916	0.302634	-0.342058	2.136700	0.000000	-0.051587	0.000000	-0.000013	-0.000001	0.000000	0.000000
62.134530	12.297984	24.659347	-0.022092	0.218321	2.127472	0.000000	0.004449	0.000000	-0.000014	-0.000002	0.000000	0.000000
62.431853	12.318313	24.533279	-0.046280	0.205689	2.128795	0.000000	0.004449	0.000000	-0.000014	-0.000002	0.000000	0.000000
62.765186	12.358205	24.400874	-0.073398	0.191527	2.130279	0.000000	0.004449	0.000000	-0.000015	-0.000002	0.000000	0.000000
63.098520	12.416177	24.277910	-0.100516	0.177365	2.131762	0.000000	0.004449	0.000000	-0.000015	-0.000002	0.000000	0.000000
63.433103	12.492546	24.163979	-0.127736	0.163150	2.133251	0.000000	0.004449	0.000000	-0.000016	-0.000002	0.000000	0.000000
63.730426	12.575695	24.070718	-0.121080	0.091480	2.134574	0.000000	-0.000787	0.000000	-0.000016	-0.000002	0.000000	0.000000
64.171386	12.842674	23.724968	-0.486667	0.689621	2.147772	0.000000	0.060702	0.000000	-0.000017	-0.000002	0.000000	0.000000
64.612346	13.440620	22.863579	-0.874489	1.256385	2.188211	0.000000	0.122881	0.000000	-0.000018	-0.000003	0.000000	0.000000
65.053306	14.396853	21.525745	-1.302263	1.765984	2.256351	0.000000	0.186460	0.000000	-0.000019	-0.000003	0.000000	0.000000
65.494266	15.755058	19.772335	-1.789534	2.195232	2.352968	0.000000	0.252163	0.000000	-0.000021	-0.000004	0.000000	0.000000
65.940226	17.600453	17.658326	-2.363255	2.525349	2.480736	0.000000	0.321140	0.000000	-0.000023	-0.000004	0.000000	0.000000
66.489286	19.966262	15.293504	-1.920078	1.807113	2.636688	0.000000	0.246085	0.000000	-0.000025	-0.000003	0.000000	0.000000
67.038346	21.767602	13.642505	-1.341276	1.217594	2.750169	0.000000	0.166666	0.000000	-0.000026	-0.000002	0.000000	0.000000
67.587406	22.877237	12.587731	-0.667733	0.714801	2.819167	0.000000	0.084289	0.000000	-0.000027	-0.000002	0.000000	0.000000
68.136466	23.216786	12.054053	0.052974	0.262922	2.842456	0.000000	0.000418	0.000000	-0.000028	-0.000001	0.000000	0.000000
68.435038	23.225224	11.886275	-0.020562	0.267507	2.844800	0.000000	0.007847	0.000000	-0.000028	-0.000001	0.000000	0.000000
68.768372	23.243718	11.717954	-0.034920	0.237457	2.847415	0.000000	0.007847	0.000000	-0.000028	-0.000001	0.000000	0.000000
69.101705	23.271784	11.569666	-0.049278	0.207407	2.850031	0.000000	0.007847	0.000000	-0.000029	-0.000001	0.000000	0.000000
69.436288	23.309582	11.440968	-0.063691	0.177244	2.852657	0.000000	0.007847	0.000000	-0.000029	-0.000001	0.000000	0.000000
69.733611	23.351263	11.343540	-0.137525	0.180085	2.854990	0.000000	0.015308	0.000000	-0.000029	-0.000001	0.000000	0.000000
70.282671	23.101221	11.373038	0.590229	-0.234127	2.840199	0.000000	-0.069107	0.000000	-0.000029	0.000000	0.000000	0.000000
