#ParticleID	Turn	x[m]	xp	y[m]	yp	z[m]	dE[GeV]# s	beta_x	beta_y	alpha_x	alpha_y	D_x	D_y	D_px	D_py	orbit_x	orbit_px	orbit_y	orbit_py
0.300000	11.818923	24.997204	-0.011660	-0.027465	2.618104	0.000000	0.000016	0.000000	-0.000000	0.000001	0.000000	0.000000
0.601250	11.833628	25.017385	-0.037152	-0.039526	2.618109	0.000000	0.000016	0.000000	0.000000	0.000001	0.000000	0.000000
0.898573	11.863201	25.044428	-0.033220	-0.112845	2.618113	0.000000	-0.006405	0.000000	0.000000	0.000001	0.000000	0.000000
1.339533	12.044691	24.866149	-0.379921	0.515603	2.631582	0.000000	0.067552	0.000000	0.000001	0.000001	0.000000	0.000000
1.780493	12.538413	24.141897	-0.743979	1.120591	2.677801	0.000000	0.142279	0.000000	0.000001	0.000001	0.000000	0.000000
2.221453	13.366923	22.904624	-1.142027	1.674593	2.757298	0.000000	0.218626	0.000000	0.000001	0.000001	0.000000	0.000000
2.662413	14.568074	21.210626	-1.592252	2.152403	2.870976	0.000000	0.297463	0.000000	0.000002	0.000001	0.000000	0.000000
3.108373	16.217506	19.112133	-2.119514	2.533411	3.021994	0.000000	0.380178	0.000000	0.000002	0.000001	0.000000	0.000000
3.657433	18.332613	16.755250	-1.709915	1.784504	3.205463	0.000000	0.287140	0.000000	0.000002	0.000001	0.000000	0.000000
4.206493	19.928542	15.146552	-1.179535	1.162704	3.336372	0.000000	0.189009	0.000000	0.000003	0.000001	0.000000	0.000000
4.755553	20.892564	14.171454	-0.565839	0.623720	3.412400	0.000000	0.087525	0.000000	0.000003	0.000001	0.000000	0.000000
5.304613	21.156586	13.760502	0.087824	0.129163	3.432199	0.000000	-0.015511	0.000000	0.000004	0.000000	0.000000	0.000000
5.603185	21.141369	13.668559	0.018420	0.142826	3.430245	0.000000	-0.006544	0.000000	0.000004	0.000000	0.000000	0.000000
5.936519	21.134346	13.581637	0.002648	0.117941	3.428064	0.000000	-0.006544	0.000000	0.000004	0.000000	0.000000	0.000000
6.269852	21.137838	13.511304	-0.013124	0.093057	3.425883	0.000000	-0.006544	0.000000	0.000004	0.000000	0.000000	0.000000
6.604435	21.151917	13.457390	-0.028956	0.068079	3.423693	0.000000	-0.006544	0.000000	0.000004	0.000000	0.000000	0.000000
6.901758	21.173318	13.423506	-0.098344	0.080955	3.421747	0.000000	0.002396	0.000000	0.000004	0.000000	0.000000	0.000000
7.450818	20.920432	13.595326	0.556197	-0.395737	3.394861	0.000000	-0.100186	0.000000	0.000005	0.000000	0.000000	0.000000
7.999878	19.966202	14.302924	1.171450	-0.900616	3.312057	0.000000	-0.200992	0.000000	0.000005	0.000000	0.000000	0.000000
8.548938	18.378028	15.596703	1.703959	-1.469644	3.174803	0.000000	-0.298233	0.000000	0.000005	0.000000	0.000000	0.000000
9.097998	16.268093	17.568813	2.116108	-2.143352	2.985533	0.000000	-0.390183	0.000000	0.000005	-0.000000	0.000000	0.000000
9.543958	14.621921	19.326083	1.588314	-1.780414	2.829834	0.000000	-0.308475	0.000000	0.000005	0.000000	0.000000	0.000000
9.984918	13.424543	20.706299	1.137377	-1.337701	2.711055	0.000000	-0.230764	0.000000	0.000005	0.000000	0.000000	0.000000
10.425878	12.600524	21.667644	0.738404	-0.834123	2.625933	0.000000	-0.155682	0.000000	0.000005	0.000000	0.000000	0.000000
10.866838	12.112218	22.166379	0.373167	-0.292594	2.573496	0.000000	-0.082373	0.000000	0.000005	0.000000	0.000000	0.000000
11.309048	11.937181	22.179292	0.054145	0.207801	2.553128	0.000000	-0.016262	0.000000	0.000005	0.000001	0.000000	0.000000
11.606371	11.912410	22.059882	0.029165	0.193817	2.548293	0.000000	-0.016262	0.000000	0.000005	0.000001	0.000000	0.000000
12.086371	11.903770	21.884654	-0.011163	0.171240	2.540487	0.000000	-0.016262	0.000000	0.000006	0.000001	0.000000	0.000000
12.566371	11.933844	21.731100	-0.051492	0.148664	2.532681	0.000000	-0.016262	0.000000	0.000006	0.000001	0.000000	0.000000
13.046371	12.002634	21.599219	-0.091820	0.126088	2.524875	0.000000	-0.016262	0.000000	0.000006	0.000001	0.000000	0.000000
13.526371	12.110139	21.489012	-0.132149	0.103511	2.517069	0.000000	-0.016262	0.000000	0.000006	0.000001	0.000000	0.000000
14.007621	12.256790	21.400275	-0.172582	0.080876	2.509242	0.000000	-0.016262	0.000000	0.000007	0.000001	0.000000	0.000000
14.304943	12.366843	21.356341	-0.167237	0.014523	2.504407	0.000000	-0.022403	0.000000	0.000007	0.000000	0.000000	0.000000
14.745903	12.672929	21.109777	-0.529532	0.542500	2.510160	0.000000	0.048523	0.000000	0.000007	0.000001	0.000000	0.000000
15.186863	13.307951	20.406728	-0.916020	1.045793	2.547281	0.000000	0.120002	0.000000	0.000007	0.000001	0.000000	0.000000
15.627823	14.300921	19.279181	-1.344358	1.501504	2.616193	0.000000	0.192848	0.000000	0.000008	0.000001	0.000000	0.000000
16.068783	15.697204	17.778439	-1.834117	1.888897	2.717679	0.000000	0.267891	0.000000	0.000008	0.000001	0.000000	0.000000
16.514743	17.584250	15.951282	-2.412428	2.191093	2.854592	0.000000	0.346447	0.000000	0.000009	0.000001	0.000000	0.000000
17.063803	20.007813	13.911046	-1.975465	1.546710	3.021079	0.000000	0.259108	0.000000	0.000010	0.000001	0.000000	0.000000
17.612863	21.871611	12.514134	-1.398964	1.012496	3.138278	0.000000	0.167173	0.000000	0.000010	0.000001	0.000000	0.000000
18.161923	23.043993	11.661047	-0.723648	0.550399	3.204109	0.000000	0.072273	0.000000	0.000011	0.000001	0.000000	0.000000
18.710983	23.442148	11.291021	0.002783	0.127506	3.217406	0.000000	-0.023909	0.000000	0.000011	0.000000	0.000000	0.000000
19.009556	23.480874	11.205356	-0.071241	0.129909	3.212777	0.000000	-0.015504	0.000000	0.000011	0.000000	0.000000	0.000000
19.342889	23.533124	11.128833	-0.085509	0.099660	3.207609	0.000000	-0.015504	0.000000	0.000011	0.000000	0.000000	0.000000
19.676223	23.594887	11.072476	-0.099777	0.069410	3.202441	0.000000	-0.015504	0.000000	0.000011	0.000000	0.000000	0.000000
20.010806	23.666739	11.036052	-0.231357	0.093726	3.197273	0.000000	0.000337	0.000000	0.000011	0.000000	0.000000	0.000000
20.308129	23.808250	10.988398	-0.306793	0.095257	3.197374	0.000000	0.008691	0.000000	0.000011	0.000000	0.000000	0.000000
20.857189	23.734515	11.106074	0.440291	-0.310844	3.175924	0.000000	-0.086710	0.000000	0.000011	-0.000000	0.000000	0.000000
21.406249	22.852685	11.679166	1.156275	-0.739086	3.102438	0.000000	-0.180573	0.000000	0.000011	-0.000000	0.000000	0.000000
21.955309	21.225046	12.748494	1.790585	-1.219971	2.978222	0.000000	-0.271233	0.000000	0.000011	-0.000001	0.000000	0.000000
22.504369	18.966568	14.390224	2.298418	-1.787752	2.805477	0.000000	-0.357082	0.000000	0.000010	-0.000001	0.000000	0.000000
22.950329	17.186721	15.864146	1.706717	-1.503359	2.663528	0.000000	-0.279865	0.000000	0.000010	-0.000001	0.000000	0.000000
23.391289	15.910835	17.039270	1.197687	-1.151420	2.556442	0.000000	-0.206291	0.000000	0.000009	-0.000001	0.000000	0.000000
23.832249	15.058138	17.879636	0.743377	-0.747092	2.481251	0.000000	-0.135067	0.000000	0.000009	-0.000000	0.000000	0.000000
24.273209	14.589673	18.347008	0.323029	-0.308772	2.437099	0.000000	-0.065380	0.000000	0.000009	-0.000000	0.000000	0.000000
24.715418	14.484154	18.419877	-0.047130	0.098360	2.423479	0.000000	-0.002381	0.000000	0.000009	0.000000	0.000000	0.000000
25.012741	14.518296	18.366233	-0.067703	0.082062	2.422771	0.000000	-0.002381	0.000000	0.000009	0.000000	0.000000	0.000000
25.346075	14.571120	18.317615	-0.090768	0.063791	2.421977	0.000000	-0.002381	0.000000	0.000009	0.000000	0.000000	0.000000
25.679408	14.639320	18.281178	-0.113833	0.045520	2.421184	0.000000	-0.002381	0.000000	0.000009	0.000000	0.000000	0.000000
26.013991	14.722941	18.257225	-0.017542	-0.120932	2.420362	0.000000	-0.022017	0.000000	0.000009	-0.000000	0.000000	0.000000
26.311314	14.739378	18.334049	-0.001601	-0.182412	2.413816	0.000000	-0.027936	0.000000	0.000009	-0.000000	0.000000	0.000000
26.752274	14.922393	18.296070	-0.415011	0.268212	2.416610	0.000000	0.040617	0.000000	0.000009	0.000000	0.000000	0.000000
27.193234	15.476954	17.864560	-0.847382	0.706633	2.449705	0.000000	0.109633	0.000000	0.000009	0.000000	0.000000	0.000000
27.634194	16.428398	17.059153	-1.318467	1.112902	2.513480	0.000000	0.179897	0.000000	0.000010	0.000001	0.000000	0.000000
28.075154	17.820193	15.916494	-1.849790	1.468535	2.608660	0.000000	0.252210	0.000000	0.000010	0.000001	0.000000	0.000000
28.521114	19.740108	14.471362	-2.470588	1.758264	2.737933	0.000000	0.327839	0.000000	0.000010	0.000001	0.000000	0.000000
29.070174	22.180332	12.861154	-1.947469	1.191708	2.895269	0.000000	0.244429	0.000000	0.000011	0.000001	0.000000	0.000000
29.619234	23.966710	11.823110	-1.286790	0.710036	3.005548	0.000000	0.156682	0.000000	0.000011	0.000000	0.000000	0.000000
30.168294	24.973060	11.283291	-0.535219	0.278937	3.066814	0.000000	0.066157	0.000000	0.000012	0.000000	0.000000	0.000000
30.717354	25.128300	11.203247	0.254157	-0.132293	3.077980	0.000000	-0.025542	0.000000	0.000011	-0.000000	0.000000	0.000000
31.015927	25.019407	11.272809	0.176203	-0.129957	3.072755	0.000000	-0.017501	0.000000	0.000011	-0.000000	0.000000	0.000000
31.349260	24.906517	11.369470	0.162467	-0.160027	3.066921	0.000000	-0.017501	0.000000	0.000011	-0.000000	0.000000	0.000000
31.682593	24.802784	11.486178	0.148730	-0.190096	3.061088	0.000000	-0.017501	0.000000	0.000011	-0.000000	0.000000	0.000000
32.017177	24.707872	11.623482	0.134942	-0.220277	3.055232	0.000000	-0.017501	0.000000	0.000011	-0.000000	0.000000	0.000000
32.314499	24.631273	11.762443	0.058338	-0.216368	3.050029	0.000000	-0.009532	0.000000	0.000011	-0.000000	0.000000	0.000000
32.863559	24.145217	12.239294	0.821672	-0.657244	3.019910	0.000000	-0.100019	0.000000	0.000011	-0.000001	0.000000	0.000000
33.412619	22.847995	13.222991	1.526966	-1.144934	2.940523	0.000000	-0.188731	0.000000	0.000011	-0.000001	0.000000	0.000000
33.961679	20.831235	14.783602	2.124403	-1.714175	2.813276	0.000000	-0.274095	0.000000	0.000010	-0.000001	0.000000	0.000000
34.510739	18.237392	17.032286	2.571783	-2.405514	2.640427	0.000000	-0.354598	0.000000	0.000009	-0.000002	0.000000	0.000000
34.956699	16.220611	19.043630	1.966756	-2.085799	2.498635	0.000000	-0.281661	0.000000	0.000009	-0.000001	0.000000	0.000000
35.397659	14.716755	20.706967	1.456595	-1.671929	2.389817	0.000000	-0.212360	0.000000	0.000008	-0.000001	0.000000	0.000000
35.838619	13.631885	21.970237	1.012982	-1.181987	2.310996	0.000000	-0.145478	0.000000	0.000008	-0.000001	0.000000	0.000000
36.279579	12.916437	22.775961	0.615650	-0.638265	2.261274	0.000000	-0.080253	0.000000	0.000007	-0.000001	0.000000	0.000000
36.721789	12.537032	23.087785	0.277081	-0.122171	2.240059	0.000000	-0.021434	0.000000	0.000007	-0.000001	0.000000	0.000000
37.019112	12.379859	23.164320	0.251545	-0.135242	2.233686	0.000000	-0.021434	0.000000	0.000007	-0.000001	0.000000	0.000000
37.352445	12.221706	23.259365	0.222916	-0.149895	2.226542	0.000000	-0.021434	0.000000	0.000007	-0.000001	0.000000	0.000000
37.685779	12.082638	23.364180	0.194287	-0.164548	2.219397	0.000000	-0.021434	0.000000	0.000006	-0.000001	0.000000	0.000000
38.020362	11.962243	23.479211	0.165550	-0.179256	2.212226	0.000000	-0.021434	0.000000	0.000006	-0.000001	0.000000	0.000000
38.317684	11.871392	23.589690	0.169124	-0.250172	2.205853	0.000000	-0.026843	0.000000	0.000006	-0.000001	0.000000	0.000000
38.758644	11.873608	23.549043	-0.174170	0.342001	2.207945	0.000000	0.036339	0.000000	0.000006	-0.000000	0.000000	0.000000
39.199604	12.180935	22.991039	-0.525422	0.918613	2.237962	0.000000	0.099936	0.000000	0.000006	-0.000000	0.000000	0.000000
39.640564	12.807412	21.941068	-0.900679	1.453429	2.296247	0.000000	0.164671	0.000000	0.000006	-0.000000	0.000000	0.000000
40.081524	13.781662	20.446902	-1.317086	1.922115	2.383464	0.000000	0.231281	0.000000	0.000006	0.000000	0.000000	0.000000
40.527484	15.165767	18.553955	-1.797493	2.304628	2.502077	0.000000	0.300931	0.000000	0.000006	0.000000	0.000000	0.000000
41.076544	16.932118	16.426788	-1.400508	1.592438	2.646774	0.000000	0.225367	0.000000	0.000006	0.000000	0.000000	0.000000
41.625604	18.205296	15.015190	-0.904598	0.993674	2.748822	0.000000	0.145805	0.000000	0.000006	-0.000000	0.000000	0.000000
42.174664	18.895371	14.218614	-0.344792	0.465688	2.806411	0.000000	0.063657	0.000000	0.000006	-0.000000	0.000000	0.000000
42.723724	18.953600	13.980324	0.239368	-0.029129	2.818519	0.000000	-0.019619	0.000000	0.000005	-0.000001	0.000000	0.000000
43.022297	18.845106	13.982284	0.173527	-0.013961	2.814860	0.000000	-0.012256	0.000000	0.000005	-0.000001	0.000000	0.000000
43.502297	18.691114	14.012167	0.147290	-0.048296	2.808977	0.000000	-0.012256	0.000000	0.000005	-0.000001	0.000000	0.000000
43.982297	18.562310	14.075013	0.121052	-0.082632	2.803095	0.000000	-0.012256	0.000000	0.000005	-0.000001	0.000000	0.000000
44.462297	18.458695	14.170821	0.094814	-0.116968	2.797212	0.000000	-0.012256	0.000000	0.000005	-0.000001	0.000000	0.000000
44.942297	18.380268	14.299592	0.068576	-0.151304	2.791330	0.000000	-0.012256	0.000000	0.000004	-0.000001	0.000000	0.000000
45.423547	18.327150	14.461610	-0.048533	-0.114078	2.785449	0.000000	0.001545	0.000000	0.000004	-0.000000	0.000000	0.000000
45.720870	18.360844	14.535638	-0.112766	-0.096927	2.785909	0.000000	0.008824	0.000000	0.000004	-0.000000	0.000000	0.000000
46.269930	18.175512	14.923229	0.448312	-0.613156	2.768181	0.000000	-0.073305	0.000000	0.000004	-0.000001	0.000000	0.000000
46.818990	17.387870	15.898213	0.977724	-1.173060	2.705651	0.000000	-0.154134	0.000000	0.000003	-0.000001	0.000000	0.000000
47.368050	16.053554	17.530038	1.438073	-1.816517	2.599426	0.000000	-0.232229	0.000000	0.000003	-0.000001	0.000000	0.000000
47.917110	14.266813	19.934935	1.796845	-2.589361	2.451393	0.000000	-0.306205	0.000000	0.000002	-0.000001	0.000000	0.000000
48.363070	12.876346	22.073124	1.332118	-2.185058	2.330130	0.000000	-0.237905	0.000000	0.000002	-0.000001	0.000000	0.000000
48.804030	11.881725	23.785125	0.932021	-1.682609	2.239684	0.000000	-0.172711	0.000000	0.000002	-0.000001	0.000000	0.000000
49.244990	11.219918	25.018427	0.574505	-1.103603	2.177525	0.000000	-0.109484	0.000000	0.000001	-0.000001	0.000000	0.000000
49.685950	10.860690	25.716913	0.243236	-0.474383	2.142946	0.000000	-0.047504	0.000000	0.000001	-0.000001	0.000000	0.000000
50.128160	10.787755	25.848522	-0.050582	0.112983	2.135562	0.000000	0.008697	0.000000	0.000001	-0.000001	0.000000	0.000000
50.425482	10.826048	25.784801	-0.078213	0.101334	2.138149	0.000000	0.008697	0.000000	0.000000	-0.000001	0.000000	0.000000
50.758816	10.888517	25.721598	-0.109192	0.088274	2.141048	0.000000	0.008697	0.000000	0.000000	-0.000001	0.000000	0.000000
51.092149	10.971637	25.667102	-0.140170	0.075214	2.143947	0.000000	0.008697	0.000000	-0.000000	-0.000001	0.000000	0.000000
51.426732	11.075614	25.621678	-0.081412	-0.145751	2.146836	0.000000	-0.008719	0.000000	-0.000000	-0.000001	0.000000	0.000000
51.724055	11.132059	25.711871	-0.081135	-0.220656	2.144243	0.000000	-0.013978	0.000000	-0.000001	-0.000001	0.000000	0.000000
52.165015	11.348955	25.620427	-0.412602	0.427243	2.151669	0.000000	0.047686	0.000000	-0.000001	-0.000001	0.000000	0.000000
52.605975	11.865353	24.964008	-0.762919	1.055703	2.186379	0.000000	0.109892	0.000000	-0.000001	-0.000001	0.000000	0.000000
53.046935	12.704847	23.772484	-1.148091	1.636130	2.248769	0.000000	0.173350	0.000000	-0.000002	-0.000001	0.000000	0.000000
53.487895	13.905791	22.100065	-1.585717	2.142114	2.339549	0.000000	0.238782	0.000000	-0.000002	-0.000001	0.000000	0.000000
53.933855	15.543639	19.997841	-2.100021	2.551969	2.461259	0.000000	0.307333	0.000000	-0.000002	-0.000001	0.000000	0.000000
54.482915	17.652306	17.632329	-1.717750	1.781757	2.609824	0.000000	0.233028	0.000000	-0.000003	-0.000001	0.000000	0.000000
55.031975	19.271678	16.038365	-1.214145	1.138456	2.716394	0.000000	0.154591	0.000000	-0.000003	-0.000001	0.000000	0.000000
55.581035	20.287370	15.102416	-0.624780	0.576245	2.779080	0.000000	0.073411	0.000000	-0.000004	-0.000001	0.000000	0.000000
56.130095	20.627640	14.757816	0.008717	0.055078	2.796770	0.000000	-0.009070	0.000000	-0.000004	-0.000000	0.000000	0.000000
56.428668	20.658950	14.707994	-0.059685	0.073230	2.796244	0.000000	-0.001763	0.000000	-0.000004	-0.000000	0.000000	0.000000
56.762001	20.704137	14.666769	-0.075877	0.050445	2.795657	0.000000	-0.001763	0.000000	-0.000004	-0.000000	0.000000	0.000000
57.095334	20.760119	14.640734	-0.092070	0.027660	2.795069	0.000000	-0.001763	0.000000	-0.000004	-0.000000	0.000000	0.000000
57.429918	20.827167	14.629877	-0.108323	0.004789	2.794480	0.000000	-0.001763	0.000000	-0.000004	-0.000000	0.000000	0.000000
57.727240	20.895875	14.633072	-0.177365	0.022701	2.793956	0.000000	0.005538	0.000000	-0.000005	-0.000001	0.000000	0.000000
58.276300	20.734142	14.889152	0.470186	-0.491853	2.774358	0.000000	-0.076822	0.000000	-0.000005	-0.000000	0.000000	0.000000
58.825360	19.875428	15.726082	1.084527	-1.041440	2.709847	0.000000	-0.157819	0.000000	-0.000005	-0.000000	0.000000	0.000000
59.374420	18.380389	17.203472	1.622261	-1.665206	2.601568	0.000000	-0.236016	0.000000	-0.000005	-0.000000	0.000000	0.000000
59.923480	16.354627	19.426555	2.045407	-2.407582	2.451442	0.000000	-0.310028	0.000000	-0.000005	0.000000	0.000000	0.000000
60.369440	14.769057	21.402469	1.522592	-2.004415	2.328471	0.000000	-0.241748	0.000000	-0.000005	0.000000	0.000000	0.000000
60.810400	13.628591	22.958735	1.073546	-1.511423	2.236317	0.000000	-0.176619	0.000000	-0.000005	-0.000000	0.000000	0.000000
61.251360	12.861104	24.048121	0.673547	-0.949663	2.172412	0.000000	-0.113502	0.000000	-0.000005	-0.000000	0.000000	0.000000
61.692320	12.431534	24.621060	0.304320	-0.344693	2.136028	0.000000	-0.051677	0.000000	-0.000005	-0.000000	0.000000	0.000000
62.134530	12.320305	24.650946	-0.020890	0.215451	2.126756	0.000000	0.004343	0.000000	-0.000005	-0.000001	0.000000	0.000000
62.431853	12.339906	24.526581	-0.045033	0.202830	2.128047	0.000000	0.004343	0.000000	-0.000006	-0.000001	0.000000	0.000000
62.765186	12.378950	24.396078	-0.072101	0.188680	2.129495	0.000000	0.004343	0.000000	-0.000006	-0.000001	0.000000	0.000000
63.098520	12.436040	24.275008	-0.099168	0.174530	2.130943	0.000000	0.004343	0.000000	-0.000006	-0.000001	0.000000	0.000000
63.433103	12.511490	24.162970	-0.126337	0.160328	2.132396	0.000000	0.004343	0.000000	-0.000006	-0.000001	0.000000	0.000000
63.730426	12.593794	24.071384	-0.119595	0.088673	2.133688	0.000000	-0.000890	0.000000	-0.000006	-0.000001	0.000000	0.000000
64.171386	12.859632	23.728080	-0.485555	0.686904	2.146835	0.000000	0.060575	0.000000	-0.000007	-0.000001	0.000000	0.000000
64.612346	13.456743	22.869001	-0.873698	1.253882	2.187212	0.000000	0.122730	0.000000	-0.000007	-0.000001	0.000000	0.000000
65.053306	14.412407	21.533237	-1.301758	1.763810	2.255278	0.000000	0.186282	0.000000	-0.000007	-0.000001	0.000000	0.000000
65.494266	15.770284	19.781563	-1.789292	2.193485	2.351810	0.000000	0.251956	0.000000	-0.000008	-0.000001	0.000000	0.000000
65.940226	17.615578	17.668889	-2.363266	2.524114	2.479477	0.000000	0.320902	0.000000	-0.000008	-0.000001	0.000000	0.000000
66.489286	19.981037	15.305444	-1.919431	1.805824	2.635309	0.000000	0.245890	0.000000	-0.000009	-0.000001	0.000000	0.000000
67.038346	21.781327	13.655931	-1.340018	1.216159	2.748694	0.000000	0.166516	0.000000	-0.000010	-0.000001	0.000000	0.000000
67.587406	22.889284	12.602859	-0.665953	0.713118	2.817622	0.000000	0.084189	0.000000	-0.000010	-0.000001	0.000000	0.000000
68.136466	23.226647	12.071218	0.055152	0.260871	2.840870	0.000000	0.000368	0.000000	-0.000010	-0.000000	0.000000	0.000000
68.435038	23.233794	11.904621	-0.018395	0.265565	2.843196	0.000000	0.007792	0.000000	-0.000010	-0.000000	0.000000	0.000000
68.768372	23.250842	11.737570	-0.032747	0.235590	2.845794	0.000000	0.007792	0.000000	-0.000010	-0.000000	0.000000	0.000000
69.101705	23.277457	11.590501	-0.047099	0.205615	2.848391	0.000000	0.007792	0.000000	-0.000010	-0.000000	0.000000	0.000000
69.436288	23.313794	11.462978	-0.061505	0.175527	2.850998	0.000000	0.007792	0.000000	-0.000011	-0.000000	0.000000	0.000000
69.733611	23.354174	11.366551	-0.135332	0.178492	2.853315	0.000000	0.015248	0.000000	-0.000011	-0.000000	0.000000	0.000000
70.282671	23.101691	11.398158	0.592455	-0.236398	2.838505	0.000000	-0.069113	0.000000	-0.000011	0.000000	0.000000	0.000000
