#ParticleID	Turn	x[m]	xp	y[m]	yp	z[m]	dE[GeV]# s	beta_x	beta_y	alpha_x	alpha_y	D_x	D_y	D_px	D_py	orbit_x	orbit_px	orbit_y	orbit_py
0.300000	11.800564	25.068378	-0.009911	-0.026612	2.618473	0.000000	-0.000126	0.000000	-0.000002	0.000002	0.000000	0.000000
0.601250	11.814226	25.088035	-0.035442	-0.038637	2.618435	0.000000	-0.000126	0.000000	-0.000001	0.000002	0.000000	0.000000
0.898573	11.842793	25.114539	-0.031598	-0.112094	2.618397	0.000000	-0.006547	0.000000	-0.000001	0.000002	0.000000	0.000000
1.339533	12.022635	24.934783	-0.377791	0.518190	2.631803	0.000000	0.067416	0.000000	-0.000000	0.000002	0.000000	0.000000
1.780493	12.514221	24.207479	-0.741245	1.124898	2.677963	0.000000	0.142148	0.000000	0.000001	0.000002	0.000000	0.000000
2.221453	13.340009	22.965720	-1.138564	1.680423	2.757402	0.000000	0.218499	0.000000	0.000002	0.000002	0.000000	0.000000
2.662413	14.537727	21.266003	-1.587901	2.159490	2.871025	0.000000	0.297338	0.000000	0.000003	0.000002	0.000000	0.000000
3.108373	16.182807	19.160743	-2.114068	2.541437	3.021986	0.000000	0.380053	0.000000	0.000003	0.000002	0.000000	0.000000
3.657433	18.292408	16.796154	-1.705391	1.790596	3.205386	0.000000	0.287016	0.000000	0.000005	0.000002	0.000000	0.000000
4.206493	19.884026	15.181624	-1.176254	1.167296	3.336227	0.000000	0.188889	0.000000	0.000006	0.000002	0.000000	0.000000
4.755553	20.845239	14.202153	-0.564032	0.627139	3.412191	0.000000	0.087411	0.000000	0.000007	0.000002	0.000000	0.000000
5.304613	21.108149	13.787976	0.088030	0.131652	3.431928	0.000000	-0.015618	0.000000	0.000007	0.000001	0.000000	0.000000
5.603185	21.092742	13.694497	0.018722	0.145412	3.429942	0.000000	-0.006651	0.000000	0.000008	0.000001	0.000000	0.000000
5.936519	21.085531	13.605841	0.002913	0.120556	3.427724	0.000000	-0.006651	0.000000	0.000008	0.000001	0.000000	0.000000
6.269852	21.088858	13.533756	-0.012896	0.095701	3.425507	0.000000	-0.006651	0.000000	0.000009	0.000001	0.000000	0.000000
6.604435	21.102797	13.478063	-0.028764	0.070752	3.423281	0.000000	-0.006651	0.000000	0.000009	0.000001	0.000000	0.000000
6.901758	21.124094	13.442582	-0.098054	0.083703	3.421303	0.000000	0.002287	0.000000	0.000010	0.000001	0.000000	0.000000
7.450818	20.871796	13.611667	0.554844	-0.393473	3.394360	0.000000	-0.100280	0.000000	0.000010	0.000001	0.000000	0.000000
7.999878	19.919914	14.316971	1.168551	-0.898676	3.311509	0.000000	-0.201069	0.000000	0.000011	0.000001	0.000000	0.000000
8.548938	18.335685	15.608732	1.699716	-1.467888	3.174217	0.000000	-0.298291	0.000000	0.000011	0.000000	0.000000	0.000000
9.097998	16.231012	17.578959	2.110823	-2.141656	2.984920	0.000000	-0.390222	0.000000	0.000011	0.000000	0.000000	0.000000
9.543958	14.589040	19.334492	1.584149	-1.778230	2.829200	0.000000	-0.308531	0.000000	0.000011	0.000000	0.000000	0.000000
9.984918	13.394916	20.712606	1.134133	-1.335134	2.710393	0.000000	-0.230837	0.000000	0.000012	0.000001	0.000000	0.000000
10.425878	12.573408	21.671561	0.735933	-0.831290	2.625235	0.000000	-0.155772	0.000000	0.000012	0.000001	0.000000	0.000000
10.866838	12.086984	22.167726	0.371355	-0.289622	2.572754	0.000000	-0.082481	0.000000	0.000012	0.000001	0.000000	0.000000
11.309048	11.913287	22.178000	0.052850	0.210781	2.552334	0.000000	-0.016388	0.000000	0.000013	0.000002	0.000000	0.000000
11.606371	11.889302	22.056823	0.027823	0.196780	2.547461	0.000000	-0.016388	0.000000	0.000014	0.000002	0.000000	0.000000
12.086371	11.881986	21.878765	-0.012581	0.174175	2.539594	0.000000	-0.016388	0.000000	0.000014	0.000002	0.000000	0.000000
12.566371	11.913457	21.722407	-0.052985	0.151570	2.531727	0.000000	-0.016388	0.000000	0.000015	0.000002	0.000000	0.000000
13.046371	11.983716	21.587750	-0.093388	0.128966	2.523861	0.000000	-0.016388	0.000000	0.000016	0.000002	0.000000	0.000000
13.526371	12.092763	21.474793	-0.133792	0.106361	2.515994	0.000000	-0.016388	0.000000	0.000017	0.000002	0.000000	0.000000
14.007621	12.241033	21.383328	-0.174301	0.083697	2.508106	0.000000	-0.016388	0.000000	0.000017	0.000002	0.000000	0.000000
14.304943	12.352121	21.337720	-0.169042	0.017378	2.503234	0.000000	-0.022525	0.000000	0.000018	0.000002	0.000000	0.000000
14.745903	12.659672	21.088879	-0.531061	0.544792	2.508926	0.000000	0.048370	0.000000	0.000018	0.000002	0.000000	0.000000
15.186863	13.295948	20.384096	-0.917344	1.047418	2.545971	0.000000	0.119817	0.000000	0.000019	0.000002	0.000000	0.000000
15.627823	14.290017	19.255439	-1.345537	1.502387	2.614792	0.000000	0.192628	0.000000	0.000021	0.000003	0.000000	0.000000
16.068783	15.687297	17.754260	-1.835204	1.888999	2.716173	0.000000	0.267633	0.000000	0.000022	0.000004	0.000000	0.000000
16.514743	17.575291	15.927366	-2.413475	2.190403	2.852961	0.000000	0.346148	0.000000	0.000024	0.000004	0.000000	0.000000
17.063803	20.000295	13.887579	-1.977024	1.546578	3.019297	0.000000	0.258864	0.000000	0.000026	0.000003	0.000000	0.000000
17.612863	21.866039	12.490512	-1.400926	1.012911	3.136378	0.000000	0.166989	0.000000	0.000027	0.000002	0.000000	0.000000
18.161923	23.040734	11.636655	-0.725873	0.551393	3.202125	0.000000	0.072152	0.000000	0.000029	0.000002	0.000000	0.000000
18.710983	23.441406	11.265190	0.000452	0.129148	3.215372	0.000000	-0.023965	0.000000	0.000029	0.000001	0.000000	0.000000
19.009556	23.481518	11.178610	-0.073565	0.131404	3.210724	0.000000	-0.015566	0.000000	0.000029	0.000001	0.000000	0.000000
19.342889	23.535319	11.101118	-0.087838	0.101071	3.205535	0.000000	-0.015566	0.000000	0.000030	0.000001	0.000000	0.000000
19.676223	23.598635	11.043849	-0.102110	0.070737	3.200346	0.000000	-0.015566	0.000000	0.000030	0.000001	0.000000	0.000000
20.010806	23.672050	11.006565	-0.233720	0.094823	3.195158	0.000000	0.000264	0.000000	0.000030	0.000001	0.000000	0.000000
20.308129	23.814969	10.958283	-0.309175	0.096192	3.195236	0.000000	0.008611	0.000000	0.000030	0.000001	0.000000	0.000000
20.857189	23.743715	11.074465	0.438182	-0.309043	3.173761	0.000000	-0.086720	0.000000	0.000031	-0.000000	0.000000	0.000000
21.406249	22.863980	11.645048	1.154588	-0.736290	3.100289	0.000000	-0.180513	0.000000	0.000030	-0.000001	0.000000	0.000000
21.955309	21.237906	12.710672	1.789440	-1.215981	2.976124	0.000000	-0.271105	0.000000	0.000029	-0.000002	0.000000	0.000000
22.504369	18.980349	14.347240	2.297894	-1.782284	2.803469	0.000000	-0.356887	0.000000	0.000028	-0.000003	0.000000	0.000000
22.950329	17.201059	15.816723	1.705984	-1.498913	2.661596	0.000000	-0.279722	0.000000	0.000027	-0.000002	0.000000	0.000000
23.391289	15.925921	16.988451	1.196714	-1.148194	2.554564	0.000000	-0.206197	0.000000	0.000026	-0.000002	0.000000	0.000000
23.832249	15.074204	17.826566	0.742119	-0.745233	2.479404	0.000000	-0.135020	0.000000	0.000025	-0.000001	0.000000	0.000000
24.273209	14.606995	18.292936	0.321428	-0.308365	2.435262	0.000000	-0.065381	0.000000	0.000025	-0.000000	0.000000	0.000000
24.715418	14.503070	18.366096	-0.049106	0.097436	2.421631	0.000000	-0.002424	0.000000	0.000025	0.000000	0.000000	0.000000
25.012741	14.538381	18.313015	-0.069656	0.081094	2.420910	0.000000	-0.002424	0.000000	0.000025	0.000000	0.000000	0.000000
25.346075	14.592498	18.265060	-0.092695	0.062772	2.420102	0.000000	-0.002424	0.000000	0.000026	0.000000	0.000000	0.000000
25.679408	14.661975	18.229319	-0.115735	0.044450	2.419294	0.000000	-0.002424	0.000000	0.000026	0.000000	0.000000	0.000000
26.013991	14.746859	18.206096	-0.019224	-0.121637	2.418458	0.000000	-0.022044	0.000000	0.000026	0.000000	0.000000	0.000000
26.311314	14.764287	18.283355	-0.003195	-0.183034	2.411904	0.000000	-0.027958	0.000000	0.000026	0.000000	0.000000	0.000000
26.752274	14.948981	18.246530	-0.417239	0.266227	2.414677	0.000000	0.040546	0.000000	0.000026	0.000001	0.000000	0.000000
27.193234	15.505824	17.817340	-0.850346	0.703376	2.447729	0.000000	0.109511	0.000000	0.000026	0.000001	0.000000	0.000000
27.634194	16.460255	17.015313	-1.322302	1.108522	2.511438	0.000000	0.179724	0.000000	0.000027	0.000002	0.000000	0.000000
28.075154	17.855880	15.876941	-1.854671	1.463230	2.606530	0.000000	0.251983	0.000000	0.000028	0.000003	0.000000	0.000000
28.521114	19.780703	14.436866	-2.476749	1.752275	2.735688	0.000000	0.327556	0.000000	0.000030	0.000004	0.000000	0.000000
29.070174	22.227138	12.832462	-1.952550	1.187065	2.892887	0.000000	0.244220	0.000000	0.000031	0.000003	0.000000	0.000000
29.619234	24.018334	11.798933	-1.290432	0.706407	3.003072	0.000000	0.156552	0.000000	0.000033	0.000002	0.000000	0.000000
30.168294	25.027771	11.262662	-0.537164	0.276065	3.064288	0.000000	0.066107	0.000000	0.000033	0.000000	0.000000	0.000000
30.717354	25.184145	11.185453	0.254046	-0.134614	3.075450	0.000000	-0.025510	0.000000	0.000033	-0.000001	0.000000	0.000000
31.015927	25.075390	11.256448	0.175987	-0.132385	3.070232	0.000000	-0.017476	0.000000	0.000033	-0.000000	0.000000	0.000000
31.349260	24.962633	11.354749	0.162282	-0.162517	3.064407	0.000000	-0.017476	0.000000	0.000033	-0.000000	0.000000	0.000000
31.682593	24.859013	11.473137	0.148577	-0.192649	3.058582	0.000000	-0.017476	0.000000	0.000033	-0.000000	0.000000	0.000000
32.017177	24.764193	11.612171	0.134821	-0.222893	3.052734	0.000000	-0.017476	0.000000	0.000033	-0.000000	0.000000	0.000000
32.314499	24.687657	11.752704	0.058110	-0.219071	3.047538	0.000000	-0.009516	0.000000	0.000032	-0.000000	0.000000	0.000000
32.863559	24.200825	12.232438	0.823305	-0.659822	3.017451	0.000000	-0.099922	0.000000	0.000032	-0.000001	0.000000	0.000000
33.412619	22.900832	13.218982	1.530346	-1.147571	2.938139	0.000000	-0.188556	0.000000	0.000031	-0.000002	0.000000	0.000000
33.961679	20.879504	14.782607	2.129291	-1.717059	2.811010	0.000000	-0.273845	0.000000	0.000029	-0.000003	0.000000	0.000000
34.510739	18.279617	17.034686	2.577834	-2.408850	2.638320	0.000000	-0.354277	0.000000	0.000027	-0.000004	0.000000	0.000000
34.956699	16.258034	19.049131	1.971509	-2.089388	2.496659	0.000000	-0.281393	0.000000	0.000025	-0.000004	0.000000	0.000000
35.397659	14.750470	20.715683	1.460280	-1.675603	2.387950	0.000000	-0.212142	0.000000	0.000024	-0.000003	0.000000	0.000000
35.838619	13.662759	21.982170	1.015766	-1.185579	2.309215	0.000000	-0.145306	0.000000	0.000023	-0.000002	0.000000	0.000000
36.279579	12.945206	22.790966	0.617659	-0.641613	2.259560	0.000000	-0.080126	0.000000	0.000022	-0.000002	0.000000	0.000000
36.721789	12.564331	23.105586	0.278472	-0.125157	2.238392	0.000000	-0.021346	0.000000	0.000021	-0.000001	0.000000	0.000000
37.019112	12.406320	23.183896	0.252973	-0.138227	2.232045	0.000000	-0.021346	0.000000	0.000020	-0.000001	0.000000	0.000000
37.352445	12.247200	23.280931	0.224385	-0.152880	2.224930	0.000000	-0.021346	0.000000	0.000020	-0.000001	0.000000	0.000000
37.685779	12.107139	23.387735	0.195798	-0.167532	2.217815	0.000000	-0.021346	0.000000	0.000020	-0.000001	0.000000	0.000000
38.020362	11.985719	23.504763	0.167103	-0.182239	2.210674	0.000000	-0.021346	0.000000	0.000019	-0.000001	0.000000	0.000000
38.317684	11.893933	23.617017	0.170767	-0.253215	2.204327	0.000000	-0.026751	0.000000	0.000019	-0.000001	0.000000	0.000000
38.758644	11.894925	23.578724	-0.173025	0.339724	2.206452	0.000000	0.036393	0.000000	0.000018	-0.000001	0.000000	0.000000
39.199604	12.201440	23.022352	-0.524721	0.917205	2.236484	0.000000	0.099951	0.000000	0.000018	-0.000000	0.000000	0.000000
39.640564	12.827482	21.973213	-0.900390	1.452955	2.294768	0.000000	0.164648	0.000000	0.000018	-0.000000	0.000000	0.000000
40.081524	13.801653	20.479044	-1.317196	1.922596	2.381966	0.000000	0.231220	0.000000	0.000018	0.000000	0.000000	0.000000
40.527484	15.186037	18.585245	-1.798009	2.306049	2.500542	0.000000	0.300830	0.000000	0.000018	0.000001	0.000000	0.000000
41.076544	16.952515	16.456989	-1.400222	1.593011	2.645198	0.000000	0.225316	0.000000	0.000018	0.000000	0.000000	0.000000
41.625604	18.224945	15.045206	-0.903530	0.993440	2.747232	0.000000	0.145806	0.000000	0.000019	-0.000000	0.000000	0.000000
42.174664	18.913451	14.249336	-0.343018	0.464629	2.804836	0.000000	0.063710	0.000000	0.000018	-0.000001	0.000000	0.000000
42.723724	18.969398	14.012692	0.241724	-0.031087	2.816987	0.000000	-0.019517	0.000000	0.000018	-0.000001	0.000000	0.000000
43.022297	18.859518	14.015757	0.175847	-0.015787	2.813357	0.000000	-0.012158	0.000000	0.000017	-0.000001	0.000000	0.000000
43.502297	18.703300	14.047355	0.149608	-0.050043	2.807522	0.000000	-0.012158	0.000000	0.000016	-0.000001	0.000000	0.000000
43.982297	18.572270	14.111839	0.123370	-0.084298	2.801687	0.000000	-0.012158	0.000000	0.000016	-0.000001	0.000000	0.000000
44.462297	18.466429	14.209208	0.097132	-0.118554	2.795852	0.000000	-0.012158	0.000000	0.000015	-0.000001	0.000000	0.000000
44.942297	18.385777	14.339463	0.070893	-0.152810	2.790017	0.000000	-0.012158	0.000000	0.000014	-0.000001	0.000000	0.000000
45.423547	18.330429	14.502891	-0.046232	-0.115298	2.784184	0.000000	0.001637	0.000000	0.000014	-0.000001	0.000000	0.000000
45.720870	18.362754	14.577629	-0.110460	-0.097988	2.784671	0.000000	0.008912	0.000000	0.000013	-0.000001	0.000000	0.000000
46.269930	18.174876	14.967090	0.450616	-0.615522	2.767003	0.000000	-0.073178	0.000000	0.000012	-0.000002	0.000000	0.000000
46.818990	17.384780	15.945461	0.979863	-1.176898	2.704553	0.000000	-0.153970	0.000000	0.000011	-0.000002	0.000000	0.000000
47.368050	16.048274	17.582429	1.439897	-1.822102	2.598429	0.000000	-0.232031	0.000000	0.000010	-0.000002	0.000000	0.000000
47.917110	14.259764	19.994593	1.798224	-2.597090	2.450513	0.000000	-0.305977	0.000000	0.000009	-0.000003	0.000000	0.000000
48.363070	12.868075	22.139103	1.333491	-2.191443	2.329348	0.000000	-0.237698	0.000000	0.000008	-0.000003	0.000000	0.000000
48.804030	11.872221	23.856035	0.933452	-1.687364	2.238990	0.000000	-0.172523	0.000000	0.000006	-0.000002	0.000000	0.000000
49.244990	11.209102	25.092728	0.576060	-1.106511	2.176910	0.000000	-0.109314	0.000000	0.000005	-0.000002	0.000000	0.000000
49.685950	10.848422	25.792914	0.244986	-0.475313	2.142403	0.000000	-0.047349	0.000000	0.000004	-0.000002	0.000000	0.000000
50.128160	10.773823	25.924449	-0.048592	0.113890	2.135086	0.000000	0.008841	0.000000	0.000004	-0.000002	0.000000	0.000000
50.425482	10.810942	25.860179	-0.076254	0.102272	2.137716	0.000000	0.008841	0.000000	0.000003	-0.000002	0.000000	0.000000
50.758816	10.872115	25.796339	-0.107266	0.089248	2.140663	0.000000	0.008841	0.000000	0.000002	-0.000002	0.000000	0.000000
51.092149	10.953963	25.741182	-0.138278	0.076223	2.143611	0.000000	0.008841	0.000000	0.000002	-0.000002	0.000000	0.000000
51.426732	11.056685	25.695071	-0.079708	-0.145301	2.146548	0.000000	-0.008573	0.000000	0.000001	-0.000002	0.000000	0.000000
51.724055	11.112129	25.784987	-0.079519	-0.220350	2.144000	0.000000	-0.013831	0.000000	0.000000	-0.000002	0.000000	0.000000
52.165015	11.327387	25.692419	-0.410492	0.429474	2.151489	0.000000	0.047827	0.000000	-0.000001	-0.000002	0.000000	0.000000
52.605975	11.841673	25.033219	-0.760219	1.059758	2.186261	0.000000	0.110030	0.000000	-0.000001	-0.000002	0.000000	0.000000
53.046935	12.678482	23.837379	-1.144679	1.641823	2.248712	0.000000	0.173485	0.000000	-0.000002	-0.000002	0.000000	0.000000
53.487895	13.876045	22.159310	-1.581435	2.149186	2.339553	0.000000	0.238917	0.000000	-0.000003	-0.000002	0.000000	0.000000
53.933855	15.509610	20.050276	-2.094666	2.560103	2.461323	0.000000	0.307468	0.000000	-0.000004	-0.000002	0.000000	0.000000
54.482915	17.612861	17.676991	-1.713300	1.787864	2.609962	0.000000	0.233161	0.000000	-0.000005	-0.000002	0.000000	0.000000
55.031975	19.227991	16.077230	-1.210915	1.142970	2.716604	0.000000	0.154718	0.000000	-0.000007	-0.000002	0.000000	0.000000
55.581035	20.240915	15.137047	-0.622998	0.579488	2.779358	0.000000	0.073530	0.000000	-0.000008	-0.000002	0.000000	0.000000
56.130095	20.580085	14.789473	0.008925	0.057282	2.797111	0.000000	-0.008962	0.000000	-0.000008	-0.000001	0.000000	0.000000
56.428668	20.611207	14.738274	-0.059388	0.075553	2.796618	0.000000	-0.001653	0.000000	-0.000009	-0.000001	0.000000	0.000000
56.762001	20.656209	14.695487	-0.075617	0.052807	2.796068	0.000000	-0.001653	0.000000	-0.000009	-0.000001	0.000000	0.000000
57.095334	20.712030	14.667865	-0.091847	0.030061	2.795517	0.000000	-0.001653	0.000000	-0.000010	-0.000001	0.000000	0.000000
57.429918	20.778941	14.655388	-0.108137	0.007230	2.794965	0.000000	-0.001653	0.000000	-0.000010	-0.000001	0.000000	0.000000
57.727240	20.847548	14.657121	-0.177089	0.025241	2.794474	0.000000	0.005649	0.000000	-0.000011	-0.000001	0.000000	0.000000
58.276300	20.686401	14.910776	0.468849	-0.489949	2.774933	0.000000	-0.076728	0.000000	-0.000011	-0.000001	0.000000	0.000000
58.825360	19.830004	15.745901	1.081669	-1.040037	2.710469	0.000000	-0.157744	0.000000	-0.000012	-0.000001	0.000000	0.000000
59.374420	18.338850	17.221979	1.618085	-1.664205	2.602225	0.000000	-0.235963	0.000000	-0.000012	-0.000000	0.000000	0.000000
59.923480	16.318267	19.444147	2.040208	-2.406909	2.452122	0.000000	-0.309996	0.000000	-0.000012	0.000000	0.000000	0.000000
60.369440	14.736829	21.419168	1.518491	-2.003090	2.329170	0.000000	-0.241698	0.000000	-0.000012	-0.000000	0.000000	0.000000
60.810400	13.599569	22.974001	1.070347	-1.509511	2.237043	0.000000	-0.176551	0.000000	-0.000013	-0.000001	0.000000	0.000000
61.251360	12.834561	24.061472	0.671104	-0.947250	2.173172	0.000000	-0.113415	0.000000	-0.000013	-0.000001	0.000000	0.000000
61.692320	12.406854	24.632102	0.302521	-0.341890	2.136831	0.000000	-0.051570	0.000000	-0.000013	-0.000001	0.000000	0.000000
62.134530	12.296962	24.659382	-0.022182	0.218492	2.127612	0.000000	0.004469	0.000000	-0.000014	-0.000002	0.000000	0.000000
62.431853	12.317345	24.533213	-0.046372	0.205860	2.128941	0.000000	0.004469	0.000000	-0.000014	-0.000002	0.000000	0.000000
62.765186	12.357300	24.400694	-0.073492	0.191697	2.130432	0.000000	0.004469	0.000000	-0.000015	-0.000002	0.000000	0.000000
63.098520	12.415335	24.277617	-0.100613	0.177534	2.131922	0.000000	0.004469	0.000000	-0.000015	-0.000002	0.000000	0.000000
63.433103	12.491769	24.163573	-0.127835	0.163318	2.133418	0.000000	0.004469	0.000000	-0.000016	-0.000002	0.000000	0.000000
63.730426	12.574978	24.070213	-0.121183	0.091648	2.134747	0.000000	-0.000766	0.000000	-0.000016	-0.000002	0.000000	0.000000
64.171386	12.842042	23.724322	-0.486757	0.689772	2.147956	0.000000	0.060726	0.000000	-0.000017	-0.000002	0.000000	0.000000
64.612346	13.440062	22.862811	-0.874569	1.256511	2.188406	0.000000	0.122911	0.000000	-0.000018	-0.000002	0.000000	0.000000
65.053306	14.396363	21.524879	-1.302338	1.766080	2.256561	0.000000	0.186495	0.000000	-0.000019	-0.000003	0.000000	0.000000
65.494266	15.754633	19.771400	-1.789607	2.195293	2.353194	0.000000	0.252204	0.000000	-0.000021	-0.000003	0.000000	0.000000
65.940226	17.600092	17.657354	-2.363329	2.525372	2.480982	0.000000	0.321187	0.000000	-0.000022	-0.000004	0.000000	0.000000
66.489286	19.965996	15.292498	-1.920175	1.807152	2.636957	0.000000	0.246124	0.000000	-0.000024	-0.000003	0.000000	0.000000
67.038346	21.767454	13.641445	-1.341390	1.217652	2.750457	0.000000	0.166695	0.000000	-0.000026	-0.000002	0.000000	0.000000
67.587406	22.877219	12.586595	-0.667857	0.714882	2.819468	0.000000	0.084309	0.000000	-0.000027	-0.000002	0.000000	0.000000
68.136466	23.216904	12.052813	0.052851	0.263031	2.842766	0.000000	0.000428	0.000000	-0.000028	-0.000001	0.000000	0.000000
68.435038	23.225416	11.884973	-0.020685	0.267610	2.845112	0.000000	0.007858	0.000000	-0.000028	-0.000001	0.000000	0.000000
68.768372	23.243993	11.716585	-0.035044	0.237554	2.847731	0.000000	0.007858	0.000000	-0.000028	-0.000001	0.000000	0.000000
69.101705	23.272141	11.568234	-0.049402	0.207499	2.850351	0.000000	0.007858	0.000000	-0.000028	-0.000001	0.000000	0.000000
69.436288	23.310021	11.439476	-0.063814	0.177331	2.852980	0.000000	0.007858	0.000000	-0.000029	-0.000001	0.000000	0.000000
69.733611	23.351776	11.341998	-0.137650	0.180165	2.855316	0.000000	0.015320	0.000000	-0.000029	-0.000001	0.000000	0.000000
70.282671	23.101860	11.371384	0.590125	-0.234002	2.840529	0.000000	-0.069106	0.000000	-0.000029	0.000000	0.000000	0.000000
