#ParticleID	Turn	x[m]	xp	y[m]	yp	z[m]	dE[GeV]# s	beta_x	beta_y	alpha_x	alpha_y	D_x	D_y	D_px	D_py	orbit_x	orbit_px	orbit_y	orbit_py
0.300000	11.814235	25.016368	-0.011117	-0.027284	2.618112	0.000000	0.000012	0.000000	-0.000001	0.000001	0.000000	0.000000
0.601250	11.828616	25.036437	-0.036619	-0.039335	2.618116	0.000000	0.000012	0.000000	-0.000001	0.000001	0.000000	0.000000
0.898573	11.857875	25.063364	-0.032710	-0.112692	2.618119	0.000000	-0.006409	0.000000	-0.000001	0.000001	0.000000	0.000000
1.339533	12.038857	24.884730	-0.379276	0.516253	2.631585	0.000000	0.067549	0.000000	-0.000000	0.000001	0.000000	0.000000
1.780493	12.531941	24.159696	-0.743170	1.121709	2.677803	0.000000	0.142275	0.000000	0.000000	0.000001	0.000000	0.000000
2.221453	13.359652	22.921249	-1.141017	1.676127	2.757297	0.000000	0.218623	0.000000	0.000001	0.000001	0.000000	0.000000
2.662413	14.559807	21.225739	-1.590994	2.154284	2.870975	0.000000	0.297460	0.000000	0.000001	0.000001	0.000000	0.000000
3.108373	16.207985	19.125445	-2.117950	2.535554	3.021990	0.000000	0.380174	0.000000	0.000002	0.000001	0.000000	0.000000
3.657433	18.321500	16.766508	-1.708596	1.786124	3.205456	0.000000	0.287136	0.000000	0.000003	0.000001	0.000000	0.000000
4.206493	19.916160	15.156264	-1.178555	1.163915	3.336364	0.000000	0.189005	0.000000	0.000003	0.000001	0.000000	0.000000
4.755553	20.879325	14.180019	-0.565268	0.624610	3.412390	0.000000	0.087522	0.000000	0.000004	0.000001	0.000000	0.000000
5.304613	21.142963	13.768237	0.087948	0.129794	3.432187	0.000000	-0.015514	0.000000	0.000005	0.000001	0.000000	0.000000
5.603185	21.127653	13.675903	0.018571	0.143485	3.430232	0.000000	-0.006547	0.000000	0.000005	0.000001	0.000000	0.000000
5.936519	21.120534	13.588538	0.002788	0.118609	3.428050	0.000000	-0.006547	0.000000	0.000005	0.000001	0.000000	0.000000
6.269852	21.123936	13.517757	-0.012995	0.093734	3.425867	0.000000	-0.006547	0.000000	0.000005	0.000001	0.000000	0.000000
6.604435	21.137932	13.463388	-0.028836	0.068765	3.423676	0.000000	-0.006547	0.000000	0.000006	0.000001	0.000000	0.000000
6.901758	21.159264	13.429094	-0.098196	0.081663	3.421730	0.000000	0.002393	0.000000	0.000006	0.000001	0.000000	0.000000
7.450818	20.906476	13.600220	0.555873	-0.395174	3.394842	0.000000	-0.100189	0.000000	0.000007	0.000001	0.000000	0.000000
7.999878	19.952850	14.307261	1.170679	-0.900157	3.312036	0.000000	-0.200994	0.000000	0.000007	0.000001	0.000000	0.000000
8.548938	18.365746	15.600578	1.702794	-1.469257	3.174781	0.000000	-0.298234	0.000000	0.000007	0.000000	0.000000	0.000000
9.097998	16.257269	17.572291	2.114631	-2.143009	2.985511	0.000000	-0.390184	0.000000	0.000007	0.000000	0.000000	0.000000
9.543958	14.612268	19.329189	1.587159	-1.779924	2.829811	0.000000	-0.308476	0.000000	0.000007	0.000000	0.000000	0.000000
9.984918	13.415788	20.708917	1.136487	-1.337088	2.711032	0.000000	-0.230766	0.000000	0.000007	0.000000	0.000000	0.000000
10.425878	12.592453	21.669678	0.737739	-0.833415	2.625908	0.000000	-0.155684	0.000000	0.000008	0.000001	0.000000	0.000000
10.866838	12.104646	22.167758	0.372696	-0.291822	2.573470	0.000000	-0.082375	0.000000	0.000008	0.000001	0.000000	0.000000
11.309048	11.929947	22.179973	0.053828	0.208600	2.553101	0.000000	-0.016265	0.000000	0.000008	0.000001	0.000000	0.000000
11.606371	11.905370	22.060089	0.028834	0.194612	2.548265	0.000000	-0.016265	0.000000	0.000009	0.000001	0.000000	0.000000
12.086371	11.897058	21.884102	-0.011518	0.172029	2.540457	0.000000	-0.016265	0.000000	0.000009	0.000001	0.000000	0.000000
12.566371	11.927484	21.729794	-0.051869	0.149446	2.532649	0.000000	-0.016265	0.000000	0.000010	0.000001	0.000000	0.000000
13.046371	11.996647	21.597165	-0.092221	0.126863	2.524841	0.000000	-0.016265	0.000000	0.000010	0.000001	0.000000	0.000000
13.526371	12.104547	21.486217	-0.132572	0.104280	2.517033	0.000000	-0.016265	0.000000	0.000011	0.000001	0.000000	0.000000
14.007621	12.251617	21.396743	-0.173029	0.081639	2.509205	0.000000	-0.016265	0.000000	0.000011	0.000001	0.000000	0.000000
14.304943	12.361940	21.352356	-0.167711	0.015294	2.504369	0.000000	-0.022406	0.000000	0.000011	0.000001	0.000000	0.000000
14.745903	12.668400	21.105165	-0.529910	0.543146	2.510120	0.000000	0.048519	0.000000	0.000012	0.000001	0.000000	0.000000
15.186863	13.303720	20.401612	-0.916319	1.046286	2.547239	0.000000	0.119997	0.000000	0.000013	0.000002	0.000000	0.000000
15.627823	14.296924	19.273706	-1.344592	1.501821	2.616147	0.000000	0.192842	0.000000	0.000013	0.000002	0.000000	0.000000
16.068783	15.693389	17.772768	-1.834296	1.889023	2.717631	0.000000	0.267883	0.000000	0.000014	0.000002	0.000000	0.000000
16.514743	17.580574	15.945586	-2.412561	2.191022	2.854539	0.000000	0.346438	0.000000	0.000015	0.000003	0.000000	0.000000
17.063803	20.004383	13.905361	-1.975774	1.546761	3.021022	0.000000	0.259101	0.000000	0.000017	0.000002	0.000000	0.000000
17.612863	21.868608	12.508325	-1.399429	1.012672	3.138217	0.000000	0.167168	0.000000	0.000018	0.000002	0.000000	0.000000
18.161923	23.041570	11.654970	-0.724234	0.550713	3.204046	0.000000	0.072270	0.000000	0.000018	0.000001	0.000000	0.000000
18.710983	23.440417	11.284512	0.002117	0.127981	3.217341	0.000000	-0.023910	0.000000	0.000019	0.000000	0.000000	0.000000
19.009556	23.479536	11.198581	-0.071901	0.130346	3.212711	0.000000	-0.015505	0.000000	0.000019	0.000000	0.000000	0.000000
19.342889	23.532227	11.121774	-0.086171	0.100075	3.207543	0.000000	-0.015505	0.000000	0.000019	0.000000	0.000000	0.000000
19.676223	23.594431	11.065148	-0.100441	0.069803	3.202374	0.000000	-0.015505	0.000000	0.000019	0.000000	0.000000	0.000000
20.010806	23.666729	11.028468	-0.232023	0.094060	3.197206	0.000000	0.000336	0.000000	0.000019	0.000001	0.000000	0.000000
20.308129	23.808636	10.980622	-0.307460	0.095548	3.197306	0.000000	0.008688	0.000000	0.000020	0.000001	0.000000	0.000000
20.857189	23.735623	11.097858	0.439651	-0.310328	3.175854	0.000000	-0.086710	0.000000	0.000020	-0.000000	0.000000	0.000000
21.406249	22.854459	11.670243	1.155708	-0.738308	3.102370	0.000000	-0.180571	0.000000	0.000019	-0.000001	0.000000	0.000000
21.955309	21.227384	12.738549	1.790131	-1.218876	2.978155	0.000000	-0.271229	0.000000	0.000019	-0.000001	0.000000	0.000000
22.504369	18.969328	14.378867	2.298108	-1.786261	2.805413	0.000000	-0.357076	0.000000	0.000018	-0.000002	0.000000	0.000000
22.950329	17.189767	15.851573	1.706382	-1.502135	2.663466	0.000000	-0.279861	0.000000	0.000017	-0.000001	0.000000	0.000000
23.391289	15.914192	17.025755	1.197313	-1.150516	2.556383	0.000000	-0.206288	0.000000	0.000017	-0.000001	0.000000	0.000000
23.832249	15.061848	17.865481	0.742946	-0.746550	2.481193	0.000000	-0.135065	0.000000	0.000016	-0.000001	0.000000	0.000000
24.273209	14.593794	18.332544	0.322523	-0.308617	2.437041	0.000000	-0.065380	0.000000	0.000016	-0.000000	0.000000	0.000000
24.715418	14.488766	18.405450	-0.047728	0.098161	2.423420	0.000000	-0.002382	0.000000	0.000016	0.000000	0.000000	0.000000
25.012741	14.523262	18.351928	-0.068295	0.081851	2.422712	0.000000	-0.002382	0.000000	0.000016	0.000000	0.000000	0.000000
25.346075	14.576478	18.303456	-0.091354	0.063566	2.421918	0.000000	-0.002382	0.000000	0.000016	0.000000	0.000000	0.000000
25.679408	14.645067	18.267173	-0.114413	0.045281	2.421124	0.000000	-0.002382	0.000000	0.000017	0.000000	0.000000	0.000000
26.013991	14.729074	18.243384	-0.018066	-0.121072	2.420302	0.000000	-0.022017	0.000000	0.000017	0.000000	0.000000	0.000000
26.311314	14.745820	18.320295	-0.002103	-0.182528	2.413756	0.000000	-0.027936	0.000000	0.000017	0.000000	0.000000	0.000000
26.752274	14.929350	18.282583	-0.415680	0.267726	2.416549	0.000000	0.040616	0.000000	0.000017	0.000000	0.000000	0.000000
27.193234	15.484585	17.851658	-0.848247	0.705798	2.449643	0.000000	0.109630	0.000000	0.000017	0.000001	0.000000	0.000000
27.634194	16.436892	17.047127	-1.319569	1.111757	2.513416	0.000000	0.179892	0.000000	0.000018	0.000001	0.000000	0.000000
28.075154	17.829781	15.905595	-1.851178	1.467133	2.608593	0.000000	0.252204	0.000000	0.000018	0.000002	0.000000	0.000000
28.521114	19.751087	14.461806	-2.472329	1.756667	2.737862	0.000000	0.327831	0.000000	0.000019	0.000002	0.000000	0.000000
29.070174	22.193078	12.853143	-1.948925	1.190478	2.895194	0.000000	0.244423	0.000000	0.000020	0.000002	0.000000	0.000000
29.619234	23.980850	11.816289	-1.287859	0.709084	3.005470	0.000000	0.156679	0.000000	0.000021	0.000001	0.000000	0.000000
30.168294	24.988124	11.277394	-0.535824	0.278197	3.066734	0.000000	0.066156	0.000000	0.000021	0.000000	0.000000	0.000000
30.717354	25.143752	11.198072	0.254058	-0.132875	3.077901	0.000000	-0.025541	0.000000	0.000021	-0.000000	0.000000	0.000000
31.015927	25.034937	11.267995	0.176078	-0.130571	3.072676	0.000000	-0.017500	0.000000	0.000021	-0.000000	0.000000	0.000000
31.349260	24.922128	11.365072	0.162350	-0.160658	3.066843	0.000000	-0.017500	0.000000	0.000021	-0.000000	0.000000	0.000000
31.682593	24.818470	11.482206	0.148623	-0.190744	3.061009	0.000000	-0.017500	0.000000	0.000021	-0.000000	0.000000	0.000000
32.017177	24.723627	11.619950	0.134844	-0.220944	3.055154	0.000000	-0.017500	0.000000	0.000021	-0.000000	0.000000	0.000000
32.314499	24.647083	11.759312	0.058212	-0.217061	3.049951	0.000000	-0.009533	0.000000	0.000021	-0.000000	0.000000	0.000000
32.863559	24.160877	12.236892	0.822070	-0.657887	3.019833	0.000000	-0.100016	0.000000	0.000021	-0.000001	0.000000	0.000000
33.412619	22.862940	13.221289	1.527861	-1.145573	2.940448	0.000000	-0.188726	0.000000	0.000020	-0.000002	0.000000	0.000000
33.961679	20.844951	14.782620	2.125731	-1.714855	2.813205	0.000000	-0.274088	0.000000	0.000019	-0.000002	0.000000	0.000000
34.510739	18.249453	17.032094	2.573450	-2.406283	2.640361	0.000000	-0.354589	0.000000	0.000018	-0.000003	0.000000	0.000000
34.956699	16.231352	19.044166	1.968059	-2.086654	2.498573	0.000000	-0.281654	0.000000	0.000016	-0.000002	0.000000	0.000000
35.397659	14.726482	20.708280	1.457597	-1.672828	2.389759	0.000000	-0.212354	0.000000	0.000015	-0.000002	0.000000	0.000000
35.838619	13.640845	21.972348	1.013728	-1.182891	2.310940	0.000000	-0.145473	0.000000	0.000015	-0.000002	0.000000	0.000000
36.279579	12.924840	22.778857	0.616173	-0.639132	2.261221	0.000000	-0.080249	0.000000	0.000014	-0.000001	0.000000	0.000000
36.721789	12.545060	23.091417	0.277425	-0.122967	2.240007	0.000000	-0.021432	0.000000	0.000014	-0.000001	0.000000	0.000000
37.019112	12.387680	23.168425	0.251900	-0.136038	2.233635	0.000000	-0.021432	0.000000	0.000013	-0.000001	0.000000	0.000000
37.352445	12.229285	23.264002	0.223284	-0.150692	2.226492	0.000000	-0.021432	0.000000	0.000013	-0.000001	0.000000	0.000000
37.685779	12.089967	23.369347	0.194669	-0.165345	2.219348	0.000000	-0.021432	0.000000	0.000013	-0.000001	0.000000	0.000000
38.020362	11.969312	23.484912	0.165945	-0.180054	2.212177	0.000000	-0.021432	0.000000	0.000012	-0.000001	0.000000	0.000000
38.317684	11.878222	23.595867	0.169546	-0.250982	2.205806	0.000000	-0.026841	0.000000	0.000012	-0.000001	0.000000	0.000000
38.758644	11.880134	23.555859	-0.173899	0.341365	2.207898	0.000000	0.036341	0.000000	0.000012	-0.000001	0.000000	0.000000
39.199604	12.187284	22.998328	-0.525290	0.918181	2.237917	0.000000	0.099936	0.000000	0.000012	-0.000000	0.000000	0.000000
39.640564	12.813703	21.948640	-0.900680	1.453220	2.296202	0.000000	0.164670	0.000000	0.000012	0.000000	0.000000	0.000000
40.081524	13.788012	20.454556	-1.317220	1.922139	2.383417	0.000000	0.231279	0.000000	0.000012	0.000000	0.000000	0.000000
40.527484	15.172299	18.561482	-1.797766	2.304886	2.502029	0.000000	0.300928	0.000000	0.000012	0.000001	0.000000	0.000000
41.076544	16.938814	16.434140	-1.400533	1.592501	2.646725	0.000000	0.225365	0.000000	0.000012	0.000000	0.000000	0.000000
41.625604	18.211882	15.022577	-0.904373	0.993546	2.748773	0.000000	0.145805	0.000000	0.000012	-0.000000	0.000000	0.000000
42.174664	18.901579	14.226251	-0.344332	0.465359	2.806362	0.000000	0.063659	0.000000	0.000012	-0.000001	0.000000	0.000000
42.723724	18.959188	13.988442	0.240030	-0.029681	2.818471	0.000000	-0.019616	0.000000	0.000011	-0.000001	0.000000	0.000000
43.022297	18.850306	13.990716	0.174178	-0.014481	2.814813	0.000000	-0.012253	0.000000	0.000011	-0.000001	0.000000	0.000000
43.502297	18.695688	14.021088	0.147942	-0.048796	2.808932	0.000000	-0.012253	0.000000	0.000011	-0.000001	0.000000	0.000000
43.982297	18.566258	14.084404	0.121705	-0.083112	2.803051	0.000000	-0.012253	0.000000	0.000010	-0.000001	0.000000	0.000000
44.462297	18.462014	14.180663	0.095469	-0.117428	2.797170	0.000000	-0.012253	0.000000	0.000010	-0.000001	0.000000	0.000000
44.942297	18.382957	14.309865	0.069233	-0.151743	2.791290	0.000000	-0.012253	0.000000	0.000009	-0.000001	0.000000	0.000000
45.423547	18.329206	14.472296	-0.047885	-0.114444	2.785411	0.000000	0.001548	0.000000	0.000009	-0.000001	0.000000	0.000000
45.720870	18.362515	14.546538	-0.112118	-0.097252	2.785871	0.000000	0.008826	0.000000	0.000009	-0.000001	0.000000	0.000000
46.269930	18.176446	14.934670	0.448998	-0.613823	2.768145	0.000000	-0.073302	0.000000	0.000008	-0.000001	0.000000	0.000000
46.818990	17.388052	15.910593	0.978399	-1.174114	2.705617	0.000000	-0.154130	0.000000	0.000008	-0.000001	0.000000	0.000000
47.368050	16.053022	17.543822	1.438690	-1.818035	2.599396	0.000000	-0.232224	0.000000	0.000007	-0.000002	0.000000	0.000000
47.917110	14.265655	19.950687	1.797360	-2.591450	2.451366	0.000000	-0.306199	0.000000	0.000006	-0.000002	0.000000	0.000000
48.363070	12.874744	22.090591	1.332606	-2.186797	2.330106	0.000000	-0.237899	0.000000	0.000005	-0.000002	0.000000	0.000000
48.804030	11.879696	23.803941	0.932504	-1.683919	2.239663	0.000000	-0.172706	0.000000	0.000004	-0.000002	0.000000	0.000000
49.244990	11.217456	25.038186	0.575006	-1.104425	2.177507	0.000000	-0.109479	0.000000	0.000004	-0.000001	0.000000	0.000000
49.685950	10.857769	25.737168	0.243779	-0.474679	2.142929	0.000000	-0.047500	0.000000	0.000003	-0.000001	0.000000	0.000000
50.128160	10.784326	25.868800	-0.049982	0.113177	2.135548	0.000000	0.008701	0.000000	0.000002	-0.000001	0.000000	0.000000
50.425482	10.822266	25.804961	-0.077621	0.101537	2.138135	0.000000	0.008701	0.000000	0.000002	-0.000001	0.000000	0.000000
50.758816	10.884342	25.741620	-0.108607	0.088486	2.141036	0.000000	0.008701	0.000000	0.000002	-0.000001	0.000000	0.000000
51.092149	10.967075	25.686979	-0.139593	0.075436	2.143937	0.000000	0.008701	0.000000	0.000001	-0.000001	0.000000	0.000000
51.426732	11.070668	25.641403	-0.080883	-0.145680	2.146827	0.000000	-0.008715	0.000000	0.000001	-0.000001	0.000000	0.000000
51.724055	11.126803	25.731551	-0.080630	-0.220623	2.144236	0.000000	-0.013973	0.000000	0.000000	-0.000001	0.000000	0.000000
52.165015	11.343196	25.639848	-0.411964	0.427795	2.151664	0.000000	0.047690	0.000000	-0.000000	-0.000001	0.000000	0.000000
52.605975	11.858962	24.982722	-0.762119	1.056749	2.186375	0.000000	0.109896	0.000000	-0.000001	-0.000001	0.000000	0.000000
53.046935	12.697667	23.790074	-1.147094	1.637622	2.248767	0.000000	0.173354	0.000000	-0.000001	-0.000001	0.000000	0.000000
53.487895	13.897627	22.116167	-1.584475	2.143984	2.339550	0.000000	0.238786	0.000000	-0.000002	-0.000001	0.000000	0.000000
53.933855	15.534236	20.012137	-2.098476	2.554133	2.461262	0.000000	0.307336	0.000000	-0.000003	-0.000001	0.000000	0.000000
54.482915	17.641331	17.644560	-1.716448	1.783375	2.609829	0.000000	0.233032	0.000000	-0.000003	-0.000001	0.000000	0.000000
55.031975	19.259450	16.049066	-1.213178	1.139642	2.716402	0.000000	0.154594	0.000000	-0.000004	-0.000001	0.000000	0.000000
55.581035	20.274297	15.112013	-0.624216	0.577083	2.779090	0.000000	0.073415	0.000000	-0.000005	-0.000001	0.000000	0.000000
56.130095	20.614188	14.766655	0.008838	0.055628	2.796782	0.000000	-0.009067	0.000000	-0.000005	-0.000001	0.000000	0.000000
56.428668	20.645408	14.716487	-0.059539	0.073814	2.796257	0.000000	-0.001760	0.000000	-0.000006	-0.000001	0.000000	0.000000
56.762001	20.690501	14.674869	-0.075742	0.051040	2.795670	0.000000	-0.001760	0.000000	-0.000006	-0.000001	0.000000	0.000000
57.095334	20.746397	14.648433	-0.091945	0.028267	2.795084	0.000000	-0.001760	0.000000	-0.000006	-0.000001	0.000000	0.000000
57.429918	20.813365	14.637166	-0.108208	0.005407	2.794496	0.000000	-0.001760	0.000000	-0.000006	-0.000001	0.000000	0.000000
57.727240	20.882007	14.639990	-0.177225	0.023347	2.793973	0.000000	0.005541	0.000000	-0.000007	-0.000001	0.000000	0.000000
58.276300	20.720374	14.895467	0.469862	-0.491392	2.774376	0.000000	-0.076819	0.000000	-0.000007	-0.000001	0.000000	0.000000
58.825360	19.862262	15.731977	1.083760	-1.041132	2.709867	0.000000	-0.157817	0.000000	-0.000008	-0.000000	0.000000	0.000000
59.374420	18.368284	17.209103	1.621107	-1.665030	2.601589	0.000000	-0.236015	0.000000	-0.000008	-0.000000	0.000000	0.000000
59.923480	16.343966	19.432057	2.043947	-2.407524	2.451463	0.000000	-0.310027	0.000000	-0.000008	0.000000	0.000000	0.000000
60.369440	14.759554	21.407834	1.521448	-2.004166	2.328493	0.000000	-0.241747	0.000000	-0.000008	-0.000000	0.000000	0.000000
60.810400	13.619977	22.963801	1.072663	-1.510996	2.236340	0.000000	-0.176618	0.000000	-0.000008	-0.000000	0.000000	0.000000
61.251360	12.853169	24.052738	0.672886	-0.949076	2.172436	0.000000	-0.113500	0.000000	-0.000008	-0.000001	0.000000	0.000000
61.692320	12.424096	24.625100	0.303850	-0.343975	2.136053	0.000000	-0.051674	0.000000	-0.000008	-0.000001	0.000000	0.000000
62.134530	12.313206	24.654303	-0.021207	0.216259	2.126783	0.000000	0.004346	0.000000	-0.000009	-0.000001	0.000000	0.000000
62.431853	12.333000	24.529459	-0.045365	0.203635	2.128076	0.000000	0.004346	0.000000	-0.000009	-0.000001	0.000000	0.000000
62.765186	12.372271	24.398420	-0.072448	0.189483	2.129525	0.000000	0.004346	0.000000	-0.000010	-0.000001	0.000000	0.000000
63.098520	12.429597	24.276815	-0.099531	0.175330	2.130974	0.000000	0.004346	0.000000	-0.000010	-0.000001	0.000000	0.000000
63.433103	12.505296	24.164243	-0.126716	0.161125	2.132429	0.000000	0.004346	0.000000	-0.000010	-0.000001	0.000000	0.000000
63.730426	12.587830	24.072185	-0.120002	0.089463	2.133721	0.000000	-0.000887	0.000000	-0.000011	-0.000001	0.000000	0.000000
64.171386	12.853970	23.728180	-0.485836	0.687695	2.146870	0.000000	0.060579	0.000000	-0.000011	-0.000001	0.000000	0.000000
64.612346	13.451279	22.868418	-0.873867	1.254638	2.187249	0.000000	0.122735	0.000000	-0.000012	-0.000002	0.000000	0.000000
65.053306	14.407044	21.532016	-1.301822	1.764495	2.255319	0.000000	0.186288	0.000000	-0.000012	-0.000002	0.000000	0.000000
65.494266	15.764934	19.779779	-1.789254	2.194070	2.351853	0.000000	0.251963	0.000000	-0.000013	-0.000002	0.000000	0.000000
65.940226	17.610146	17.666640	-2.363124	2.524569	2.479525	0.000000	0.320910	0.000000	-0.000014	-0.000003	0.000000	0.000000
66.489286	19.975570	15.302705	-1.919510	1.806267	2.635361	0.000000	0.245896	0.000000	-0.000016	-0.000002	0.000000	0.000000
67.038346	21.776065	13.652697	-1.340312	1.216622	2.748750	0.000000	0.166521	0.000000	-0.000017	-0.000002	0.000000	0.000000
67.587406	22.884453	12.599091	-0.666441	0.713633	2.817680	0.000000	0.084192	0.000000	-0.000017	-0.000001	0.000000	0.000000
68.136466	23.222444	12.066839	0.054504	0.261476	2.840929	0.000000	0.000370	0.000000	-0.000018	-0.000000	0.000000	0.000000
68.435038	23.229974	11.899892	-0.019039	0.266141	2.843257	0.000000	0.007794	0.000000	-0.000018	-0.000000	0.000000	0.000000
68.768372	23.247451	11.732463	-0.033393	0.236146	2.845855	0.000000	0.007794	0.000000	-0.000018	-0.000000	0.000000	0.000000
69.101705	23.274499	11.585032	-0.047748	0.206150	2.848453	0.000000	0.007794	0.000000	-0.000018	-0.000000	0.000000	0.000000
69.436288	23.311271	11.457156	-0.062156	0.176042	2.851060	0.000000	0.007794	0.000000	-0.000018	-0.000000	0.000000	0.000000
69.733611	23.352038	11.360429	-0.135984	0.178974	2.853378	0.000000	0.015250	0.000000	-0.000019	-0.000001	0.000000	0.000000
70.282671	23.100304	11.391410	0.591751	-0.235734	2.838569	0.000000	-0.069112	0.000000	-0.000019	0.000000	0.000000	0.000000
