#ParticleID	Turn	x[m]	xp	y[m]	yp	z[m]	dE[GeV]# s	beta_x	beta_y	alpha_x	alpha_y	D_x	D_y	D_px	D_py	orbit_x	orbit_px	orbit_y	orbit_py
0.300000	11.807407	25.043550	-0.010434	-0.026970	2.618215	0.000000	-0.000028	0.000000	-0.000001	0.000001	0.000000	0.000000
0.601250	11.821381	25.063426	-0.035951	-0.039008	2.618206	0.000000	-0.000028	0.000000	-0.000000	0.000001	0.000000	0.000000
0.898573	11.850247	25.090154	-0.032074	-0.112417	2.618197	0.000000	-0.006448	0.000000	0.000000	0.000001	0.000000	0.000000
1.339533	12.030587	24.910966	-0.378450	0.517230	2.631647	0.000000	0.067511	0.000000	0.000001	0.000002	0.000000	0.000000
1.780493	12.522845	24.184775	-0.742116	1.123343	2.677848	0.000000	0.142239	0.000000	0.000001	0.000002	0.000000	0.000000
2.221453	13.349509	22.944623	-1.139687	1.678345	2.757327	0.000000	0.218587	0.000000	0.000002	0.000002	0.000000	0.000000
2.662413	14.548348	21.246936	-1.589328	2.156984	2.870988	0.000000	0.297425	0.000000	0.000003	0.000002	0.000000	0.000000
3.108373	16.194860	19.144062	-2.115867	2.538615	3.021988	0.000000	0.380140	0.000000	0.000003	0.000002	0.000000	0.000000
3.657433	18.306265	16.782187	-1.706859	1.788446	3.205435	0.000000	0.287102	0.000000	0.000004	0.000002	0.000000	0.000000
4.206493	19.899265	15.169722	-1.177288	1.165663	3.336324	0.000000	0.188972	0.000000	0.000005	0.000001	0.000000	0.000000
4.755553	20.861339	14.191814	-0.564559	0.625908	3.412332	0.000000	0.087490	0.000000	0.000006	0.000001	0.000000	0.000000
5.304613	21.124531	13.778809	0.088048	0.130736	3.432112	0.000000	-0.015543	0.000000	0.000007	0.000001	0.000000	0.000000
5.603185	21.109135	13.685893	0.018707	0.144464	3.430148	0.000000	-0.006576	0.000000	0.000007	0.000001	0.000000	0.000000
5.936519	21.101929	13.597873	0.002911	0.119599	3.427956	0.000000	-0.006576	0.000000	0.000007	0.000001	0.000000	0.000000
6.269852	21.105254	13.526428	-0.012886	0.094735	3.425763	0.000000	-0.006576	0.000000	0.000008	0.000001	0.000000	0.000000
6.604435	21.119182	13.471385	-0.028741	0.069777	3.423562	0.000000	-0.006576	0.000000	0.000008	0.000001	0.000000	0.000000
6.901758	21.140462	13.436486	-0.098064	0.082704	3.421607	0.000000	0.002363	0.000000	0.000008	0.000001	0.000000	0.000000
7.450818	20.887874	13.606578	0.555378	-0.394321	3.394703	0.000000	-0.100215	0.000000	0.000009	0.000001	0.000000	0.000000
7.999878	19.935124	14.312757	1.169590	-0.899432	3.311884	0.000000	-0.201015	0.000000	0.000009	0.000001	0.000000	0.000000
8.548938	18.349507	15.605323	1.701189	-1.468607	3.174619	0.000000	-0.298250	0.000000	0.000009	0.000000	0.000000	0.000000
9.097998	16.243026	17.576343	2.112624	-2.142389	2.985341	0.000000	-0.390195	0.000000	0.000009	-0.000000	0.000000	0.000000
9.543958	14.599618	19.332600	1.585579	-1.779114	2.829636	0.000000	-0.308492	0.000000	0.000009	0.000000	0.000000	0.000000
9.984918	13.404371	20.711544	1.135260	-1.336127	2.710849	0.000000	-0.230786	0.000000	0.000010	0.000000	0.000000	0.000000
10.425878	12.581984	21.671407	0.736808	-0.832346	2.625715	0.000000	-0.155709	0.000000	0.000010	0.000001	0.000000	0.000000
10.866838	12.094883	22.168515	0.372019	-0.290695	2.573265	0.000000	-0.082406	0.000000	0.000010	0.000001	0.000000	0.000000
11.309048	11.920682	22.179725	0.053352	0.209737	2.552881	0.000000	-0.016300	0.000000	0.000011	0.000001	0.000000	0.000000
11.606371	11.896394	22.059167	0.028339	0.195742	2.548034	0.000000	-0.016300	0.000000	0.000011	0.000001	0.000000	0.000000
12.086371	11.888571	21.882100	-0.012042	0.173149	2.540210	0.000000	-0.016300	0.000000	0.000011	0.000001	0.000000	0.000000
12.566371	11.919514	21.726722	-0.052423	0.150555	2.532385	0.000000	-0.016300	0.000000	0.000012	0.000001	0.000000	0.000000
13.046371	11.989223	21.593033	-0.092803	0.127962	2.524560	0.000000	-0.016300	0.000000	0.000013	0.000001	0.000000	0.000000
13.526371	12.097697	21.481035	-0.133184	0.105369	2.516736	0.000000	-0.016300	0.000000	0.000013	0.000001	0.000000	0.000000
14.007621	12.245370	21.390519	-0.173670	0.082716	2.508891	0.000000	-0.016300	0.000000	0.000014	0.000001	0.000000	0.000000
14.304943	12.356079	21.345493	-0.168386	0.016383	2.504044	0.000000	-0.022440	0.000000	0.000014	0.000001	0.000000	0.000000
14.745903	12.663084	21.097431	-0.530474	0.544027	2.509778	0.000000	0.048477	0.000000	0.000015	0.000001	0.000000	0.000000
15.186863	13.298861	20.393207	-0.916797	1.046918	2.546876	0.000000	0.119946	0.000000	0.000015	0.000002	0.000000	0.000000
15.627823	14.292458	19.264865	-1.345007	1.502176	2.615760	0.000000	0.192781	0.000000	0.000016	0.000002	0.000000	0.000000
16.068783	15.689268	17.763742	-1.834666	1.889085	2.717214	0.000000	0.267812	0.000000	0.000017	0.000003	0.000000	0.000000
16.514743	17.576768	15.936638	-2.412904	2.190785	2.854088	0.000000	0.346355	0.000000	0.000019	0.000003	0.000000	0.000000
17.063803	20.001069	13.896559	-1.976323	1.546730	3.020529	0.000000	0.259033	0.000000	0.000020	0.000003	0.000000	0.000000
17.612863	21.865993	12.499445	-1.400144	1.012845	3.137691	0.000000	0.167117	0.000000	0.000021	0.000002	0.000000	0.000000
18.161923	23.039811	11.645782	-0.725066	0.551103	3.203496	0.000000	0.072236	0.000000	0.000022	0.000001	0.000000	0.000000
18.710983	23.439610	11.274766	0.001227	0.128615	3.216778	0.000000	-0.023926	0.000000	0.000023	0.000000	0.000000	0.000000
19.009556	23.479258	11.188481	-0.072789	0.130925	3.212143	0.000000	-0.015523	0.000000	0.000023	0.000000	0.000000	0.000000
19.342889	23.532542	11.111299	-0.087061	0.100622	3.206969	0.000000	-0.015523	0.000000	0.000023	0.000000	0.000000	0.000000
19.676223	23.595340	11.054319	-0.101333	0.070318	3.201795	0.000000	-0.015523	0.000000	0.000023	0.000000	0.000000	0.000000
20.010806	23.668235	11.017305	-0.232925	0.094488	3.196621	0.000000	0.000315	0.000000	0.000023	0.000001	0.000000	0.000000
20.308129	23.810680	10.969213	-0.308369	0.095915	3.196714	0.000000	0.008666	0.000000	0.000024	0.000001	0.000000	0.000000
20.857189	23.738623	11.085868	0.438829	-0.309632	3.175256	0.000000	-0.086713	0.000000	0.000024	-0.000000	0.000000	0.000000
21.406249	22.858286	11.657287	1.155031	-0.737234	3.101775	0.000000	-0.180555	0.000000	0.000023	-0.000001	0.000000	0.000000
21.955309	21.231853	12.724172	1.789646	-1.217347	2.977574	0.000000	-0.271193	0.000000	0.000023	-0.000002	0.000000	0.000000
22.504369	18.974207	14.362514	2.297850	-1.784169	2.804857	0.000000	-0.357022	0.000000	0.000022	-0.000002	0.000000	0.000000
22.950329	17.194904	15.833520	1.706057	-1.500430	2.662932	0.000000	-0.279821	0.000000	0.000021	-0.000002	0.000000	0.000000
23.391289	15.919651	17.006397	1.196906	-1.149275	2.555863	0.000000	-0.206262	0.000000	0.000020	-0.000001	0.000000	0.000000
23.832249	15.067709	17.845255	0.742439	-0.745829	2.480682	0.000000	-0.135052	0.000000	0.000020	-0.000001	0.000000	0.000000
24.273209	14.600155	18.311925	0.321891	-0.308449	2.436532	0.000000	-0.065381	0.000000	0.000019	-0.000000	0.000000	0.000000
24.715418	14.495751	18.384931	-0.048496	0.097819	2.422909	0.000000	-0.002394	0.000000	0.000019	0.000000	0.000000	0.000000
25.012741	14.530702	18.331617	-0.069055	0.081493	2.422197	0.000000	-0.002394	0.000000	0.000020	0.000000	0.000000	0.000000
25.346075	14.584422	18.283390	-0.092105	0.063188	2.421399	0.000000	-0.002394	0.000000	0.000020	0.000000	0.000000	0.000000
25.679408	14.653508	18.247366	-0.115154	0.044884	2.420601	0.000000	-0.002394	0.000000	0.000020	0.000000	0.000000	0.000000
26.013991	14.738007	18.223848	-0.018725	-0.121330	2.419775	0.000000	-0.022025	0.000000	0.000020	0.000000	0.000000	0.000000
26.311314	14.755142	18.300918	-0.002729	-0.182756	2.413227	0.000000	-0.027942	0.000000	0.000020	0.000000	0.000000	0.000000
26.752274	14.939326	18.263638	-0.416543	0.266977	2.416014	0.000000	0.040596	0.000000	0.000020	0.000001	0.000000	0.000000
27.193234	15.495442	17.833591	-0.849388	0.704563	2.449096	0.000000	0.109596	0.000000	0.000020	0.000001	0.000000	0.000000
27.634194	16.448897	17.030344	-1.321039	1.110092	2.512851	0.000000	0.179844	0.000000	0.000021	0.000002	0.000000	0.000000
28.075154	17.843251	15.890444	-1.853044	1.465112	2.608004	0.000000	0.252141	0.000000	0.000022	0.000002	0.000000	0.000000
28.521114	19.766432	14.448583	-2.474681	1.754382	2.737241	0.000000	0.327752	0.000000	0.000023	0.000003	0.000000	0.000000
29.070174	22.210798	12.842132	-1.950872	1.188708	2.894535	0.000000	0.244365	0.000000	0.000024	0.000002	0.000000	0.000000
29.619234	24.000420	11.806998	-1.289262	0.707703	3.004785	0.000000	0.156643	0.000000	0.000025	0.000001	0.000000	0.000000
30.168294	25.008890	11.269451	-0.536585	0.277106	3.066036	0.000000	0.066142	0.000000	0.000025	0.000000	0.000000	0.000000
30.717354	25.164973	11.191203	0.253994	-0.133753	3.077201	0.000000	-0.025532	0.000000	0.000025	-0.000000	0.000000	0.000000
31.015927	25.056225	11.261669	0.175971	-0.131489	3.071978	0.000000	-0.017493	0.000000	0.000025	-0.000000	0.000000	0.000000
31.349260	24.943483	11.359365	0.162256	-0.161600	3.066147	0.000000	-0.017493	0.000000	0.000025	-0.000000	0.000000	0.000000
31.682593	24.839884	11.477135	0.148540	-0.191710	3.060316	0.000000	-0.017493	0.000000	0.000025	-0.000000	0.000000	0.000000
32.017177	24.745092	11.615533	0.134774	-0.221934	3.054463	0.000000	-0.017493	0.000000	0.000025	-0.000000	0.000000	0.000000
32.314499	24.668587	11.755491	0.058099	-0.218083	3.049262	0.000000	-0.009528	0.000000	0.000025	-0.000000	0.000000	0.000000
32.863559	24.182113	12.234159	0.822668	-0.658858	3.019152	0.000000	-0.099989	0.000000	0.000024	-0.000001	0.000000	0.000000
33.412619	22.883146	13.219626	1.529127	-1.146562	2.939789	0.000000	-0.188677	0.000000	0.000023	-0.000002	0.000000	0.000000
33.961679	20.863439	14.782086	2.127577	-1.715933	2.812579	0.000000	-0.274019	0.000000	0.000022	-0.000003	0.000000	0.000000
34.510739	18.265653	17.032827	2.575745	-2.407526	2.639778	0.000000	-0.354500	0.000000	0.000020	-0.000003	0.000000	0.000000
34.956699	16.245732	19.046057	1.969859	-2.087997	2.498027	0.000000	-0.281579	0.000000	0.000019	-0.000003	0.000000	0.000000
35.397659	14.739460	20.711377	1.458988	-1.674209	2.389242	0.000000	-0.212294	0.000000	0.000018	-0.000002	0.000000	0.000000
35.838619	13.652752	21.976656	1.014774	-1.184246	2.310448	0.000000	-0.145426	0.000000	0.000017	-0.000002	0.000000	0.000000
36.279579	12.935958	22.784326	0.616923	-0.640401	2.260747	0.000000	-0.080214	0.000000	0.000016	-0.000001	0.000000	0.000000
36.721789	12.555634	23.097948	0.277937	-0.124106	2.239546	0.000000	-0.021407	0.000000	0.000016	-0.000001	0.000000	0.000000
37.019112	12.397945	23.175634	0.252427	-0.137176	2.233181	0.000000	-0.021407	0.000000	0.000015	-0.000001	0.000000	0.000000
37.352445	12.239194	23.271969	0.223827	-0.151830	2.226046	0.000000	-0.021407	0.000000	0.000015	-0.000001	0.000000	0.000000
37.685779	12.099509	23.378074	0.195228	-0.166484	2.218910	0.000000	-0.021407	0.000000	0.000015	-0.000001	0.000000	0.000000
38.020362	11.978473	23.494400	0.166522	-0.181192	2.211748	0.000000	-0.021407	0.000000	0.000014	-0.000001	0.000000	0.000000
38.317684	11.887036	23.606031	0.170159	-0.252144	2.205384	0.000000	-0.026815	0.000000	0.000014	-0.000001	0.000000	0.000000
38.758644	11.888496	23.566926	-0.173482	0.340489	2.207486	0.000000	0.036356	0.000000	0.000013	-0.000001	0.000000	0.000000
39.199604	12.195356	23.010027	-0.525048	0.917630	2.237508	0.000000	0.099941	0.000000	0.000013	-0.000000	0.000000	0.000000
39.640564	12.821635	21.960673	-0.900602	1.453019	2.295792	0.000000	0.164664	0.000000	0.000013	-0.000000	0.000000	0.000000
40.081524	13.795946	20.466608	-1.317302	1.922297	2.383003	0.000000	0.231262	0.000000	0.000013	0.000000	0.000000	0.000000
40.527484	15.180379	18.573233	-1.798014	2.305398	2.501605	0.000000	0.300900	0.000000	0.000013	0.000001	0.000000	0.000000
41.076544	16.946994	16.445504	-1.400465	1.592697	2.646289	0.000000	0.225351	0.000000	0.000014	0.000000	0.000000	0.000000
41.625604	18.219815	15.033892	-0.903994	0.993440	2.748333	0.000000	0.145805	0.000000	0.000013	-0.000000	0.000000	0.000000
42.174664	18.908937	14.237851	-0.343669	0.464943	2.805927	0.000000	0.063673	0.000000	0.000013	-0.000001	0.000000	0.000000
42.723724	18.965682	14.000680	0.240930	-0.030436	2.818048	0.000000	-0.019588	0.000000	0.000013	-0.000001	0.000000	0.000000
43.022297	18.856272	14.003380	0.175062	-0.015185	2.814398	0.000000	-0.012226	0.000000	0.000012	-0.000001	0.000000	0.000000
43.502297	18.700806	14.034415	0.148826	-0.049470	2.808530	0.000000	-0.012226	0.000000	0.000012	-0.000001	0.000000	0.000000
43.982297	18.570526	14.098364	0.122591	-0.083756	2.802662	0.000000	-0.012226	0.000000	0.000011	-0.000001	0.000000	0.000000
44.462297	18.465432	14.195226	0.096355	-0.118041	2.796794	0.000000	-0.012226	0.000000	0.000011	-0.000001	0.000000	0.000000
44.942297	18.385525	14.325003	0.070119	-0.152326	2.790927	0.000000	-0.012226	0.000000	0.000010	-0.000001	0.000000	0.000000
45.423547	18.330921	14.487980	-0.047007	-0.114919	2.785061	0.000000	0.001573	0.000000	0.000010	-0.000001	0.000000	0.000000
45.720870	18.363707	14.562498	-0.111240	-0.097666	2.785529	0.000000	0.008851	0.000000	0.000009	-0.000001	0.000000	0.000000
46.269930	18.176659	14.951352	0.449891	-0.614732	2.767819	0.000000	-0.073267	0.000000	0.000009	-0.000001	0.000000	0.000000
46.818990	17.387306	15.928575	0.979243	-1.175585	2.705314	0.000000	-0.154084	0.000000	0.000008	-0.000002	0.000000	0.000000
47.368050	16.051402	17.563773	1.439427	-1.820171	2.599120	0.000000	-0.232169	0.000000	0.000007	-0.000002	0.000000	0.000000
47.917110	14.263310	19.973417	1.797936	-2.594405	2.451123	0.000000	-0.306135	0.000000	0.000006	-0.000002	0.000000	0.000000
48.363070	12.871892	22.115738	1.333170	-2.189240	2.329890	0.000000	-0.237841	0.000000	0.000005	-0.000002	0.000000	0.000000
48.804030	11.876342	23.830977	0.933082	-1.685742	2.239471	0.000000	-0.172654	0.000000	0.000004	-0.000002	0.000000	0.000000
49.244990	11.213577	25.066524	0.575625	-1.105544	2.177337	0.000000	-0.109432	0.000000	0.000003	-0.000002	0.000000	0.000000
49.685950	10.853316	25.766162	0.244466	-0.475044	2.142780	0.000000	-0.047457	0.000000	0.000003	-0.000002	0.000000	0.000000
50.128160	10.779224	25.897775	-0.049208	0.113512	2.135417	0.000000	0.008741	0.000000	0.000002	-0.000002	0.000000	0.000000
50.425482	10.816706	25.833733	-0.076857	0.101884	2.138016	0.000000	0.008741	0.000000	0.000002	-0.000002	0.000000	0.000000
50.758816	10.878277	25.770156	-0.107856	0.088847	2.140930	0.000000	0.008741	0.000000	0.000001	-0.000002	0.000000	0.000000
51.092149	10.960514	25.715271	-0.138854	0.075810	2.143845	0.000000	0.008741	0.000000	0.000001	-0.000002	0.000000	0.000000
51.426732	11.063617	25.669440	-0.080214	-0.145519	2.146748	0.000000	-0.008675	0.000000	0.000000	-0.000002	0.000000	0.000000
51.724055	11.119357	25.759489	-0.079993	-0.220518	2.144169	0.000000	-0.013933	0.000000	-0.000000	-0.000002	0.000000	0.000000
52.165015	11.335109	25.667367	-0.411141	0.428636	2.151614	0.000000	0.047729	0.000000	-0.000001	-0.000002	0.000000	0.000000
52.605975	11.850055	25.009188	-0.761074	1.058287	2.186343	0.000000	0.109934	0.000000	-0.000002	-0.000002	0.000000	0.000000
53.046935	12.687722	23.814901	-1.145778	1.639787	2.248752	0.000000	0.173391	0.000000	-0.000003	-0.000002	0.000000	0.000000
53.487895	13.886381	22.138843	-1.582829	2.146678	2.339552	0.000000	0.238823	0.000000	-0.000003	-0.000002	0.000000	0.000000
53.933855	15.521345	20.032217	-2.096420	2.557235	2.461280	0.000000	0.307374	0.000000	-0.000004	-0.000002	0.000000	0.000000
54.482915	17.626356	17.661677	-1.714732	1.785702	2.609868	0.000000	0.233069	0.000000	-0.000005	-0.000002	0.000000	0.000000
55.031975	19.242834	16.063976	-1.211924	1.141359	2.716460	0.000000	0.154630	0.000000	-0.000006	-0.000002	0.000000	0.000000
55.581035	20.256598	15.125313	-0.623511	0.578314	2.779167	0.000000	0.073448	0.000000	-0.000007	-0.000001	0.000000	0.000000
56.130095	20.596042	14.778829	0.008943	0.056460	2.796877	0.000000	-0.009037	0.000000	-0.000007	-0.000001	0.000000	0.000000
56.428668	20.627175	14.728141	-0.059400	0.074692	2.796361	0.000000	-0.001729	0.000000	-0.000008	-0.000001	0.000000	0.000000
56.762001	20.672180	14.685932	-0.075617	0.051933	2.795785	0.000000	-0.001729	0.000000	-0.000008	-0.000001	0.000000	0.000000
57.095334	20.727997	14.658897	-0.091834	0.029174	2.795209	0.000000	-0.001729	0.000000	-0.000008	-0.000001	0.000000	0.000000
57.429918	20.794895	14.647017	-0.108111	0.006330	2.794630	0.000000	-0.001729	0.000000	-0.000009	-0.000001	0.000000	0.000000
57.727240	20.863484	14.649289	-0.177093	0.024309	2.794117	0.000000	0.005572	0.000000	-0.000009	-0.000001	0.000000	0.000000
58.276300	20.702048	14.903850	0.469375	-0.490677	2.774536	0.000000	-0.076793	0.000000	-0.000010	-0.000001	0.000000	0.000000
58.825360	19.844798	15.739687	1.082688	-1.040613	2.710040	0.000000	-0.157796	0.000000	-0.000010	-0.000000	0.000000	0.000000
59.374420	18.352286	17.216333	1.619525	-1.664670	2.601772	0.000000	-0.236000	0.000000	-0.000010	-0.000000	0.000000	0.000000
59.923480	16.329936	19.438967	2.041968	-2.407297	2.451652	0.000000	-0.310018	0.000000	-0.000010	0.000000	0.000000	0.000000
60.369440	14.747095	21.414428	1.519890	-2.003686	2.328687	0.000000	-0.241733	0.000000	-0.000010	-0.000000	0.000000	0.000000
60.810400	13.608735	22.969868	1.071452	-1.510287	2.236541	0.000000	-0.176599	0.000000	-0.000010	-0.000000	0.000000	0.000000
61.251360	12.842863	24.058090	0.671966	-0.948170	2.172647	0.000000	-0.113475	0.000000	-0.000010	-0.000001	0.000000	0.000000
61.692320	12.414488	24.629580	0.303180	-0.342912	2.136276	0.000000	-0.051645	0.000000	-0.000011	-0.000001	0.000000	0.000000
62.134530	12.304093	24.657793	-0.021680	0.217419	2.127020	0.000000	0.004382	0.000000	-0.000011	-0.000001	0.000000	0.000000
62.431853	12.324173	24.532260	-0.045856	0.204791	2.128324	0.000000	0.004382	0.000000	-0.000012	-0.000001	0.000000	0.000000
62.765186	12.363779	24.400452	-0.072960	0.190634	2.129784	0.000000	0.004382	0.000000	-0.000012	-0.000001	0.000000	0.000000
63.098520	12.421454	24.278082	-0.100064	0.176476	2.131245	0.000000	0.004382	0.000000	-0.000012	-0.000001	0.000000	0.000000
63.433103	12.497516	24.164744	-0.127270	0.162266	2.132712	0.000000	0.004382	0.000000	-0.000013	-0.000001	0.000000	0.000000
63.730426	12.580385	24.072008	-0.120591	0.090599	2.134015	0.000000	-0.000852	0.000000	-0.000013	-0.000001	0.000000	0.000000
64.171386	12.846975	23.727013	-0.486272	0.688797	2.147181	0.000000	0.060621	0.000000	-0.000014	-0.000001	0.000000	0.000000
64.612346	13.444607	22.866313	-0.874169	1.255655	2.187580	0.000000	0.122785	0.000000	-0.000014	-0.000002	0.000000	0.000000
65.053306	14.400585	21.529068	-1.302004	1.765382	2.255674	0.000000	0.186347	0.000000	-0.000015	-0.000002	0.000000	0.000000
65.494266	15.758584	19.776122	-1.789323	2.194786	2.352237	0.000000	0.252032	0.000000	-0.000016	-0.000003	0.000000	0.000000
65.940226	17.603809	17.662434	-2.363083	2.525079	2.479942	0.000000	0.320989	0.000000	-0.000018	-0.000003	0.000000	0.000000
66.489286	19.969338	15.297932	-1.919741	1.806797	2.635817	0.000000	0.245961	0.000000	-0.000019	-0.000002	0.000000	0.000000
67.038346	21.770229	13.647316	-1.340798	1.217208	2.749238	0.000000	0.166571	0.000000	-0.000020	-0.000002	0.000000	0.000000
67.587406	22.879276	12.593015	-0.667148	0.714318	2.818191	0.000000	0.084225	0.000000	-0.000021	-0.000001	0.000000	0.000000
68.136466	23.218141	12.059936	0.053626	0.262308	2.841454	0.000000	0.000386	0.000000	-0.000022	-0.000000	0.000000	0.000000
68.435038	23.226190	11.892511	-0.019910	0.266929	2.843787	0.000000	0.007812	0.000000	-0.000022	-0.000001	0.000000	0.000000
68.768372	23.244249	11.724566	-0.034267	0.236903	2.846391	0.000000	0.007812	0.000000	-0.000022	-0.000001	0.000000	0.000000
69.101705	23.271880	11.576640	-0.048624	0.206877	2.848995	0.000000	0.007812	0.000000	-0.000022	-0.000001	0.000000	0.000000
69.436288	23.309239	11.448288	-0.063035	0.176739	2.851609	0.000000	0.007812	0.000000	-0.000022	-0.000001	0.000000	0.000000
69.733611	23.350530	11.351154	-0.136864	0.179620	2.853932	0.000000	0.015270	0.000000	-0.000022	-0.000001	0.000000	0.000000
70.282671	23.099782	11.381281	0.590847	-0.234814	2.839129	0.000000	-0.069110	0.000000	-0.000023	0.000000	0.000000	0.000000
