#ParticleID	Turn	x[m]	xp	y[m]	yp	z[m]	dE[GeV]# s	beta_x	beta_y	alpha_x	alpha_y	D_x	D_y	D_px	D_py	orbit_x	orbit_px	orbit_y	orbit_py
0.300000	11.825364	24.971777	-0.012475	-0.027654	2.618166	0.000000	-0.000008	0.000000	-0.000000	0.000000	0.000000	0.000000
0.601250	11.840555	24.992075	-0.037953	-0.039727	2.618164	0.000000	-0.000008	0.000000	-0.000000	0.000000	0.000000	0.000000
0.898573	11.870601	25.019241	-0.033990	-0.112997	2.618161	0.000000	-0.006429	0.000000	-0.000000	0.000000	0.000000	0.000000
1.339533	12.052850	24.841390	-0.380879	0.514789	2.631620	0.000000	0.067529	0.000000	0.000000	0.000000	0.000000	0.000000
1.780493	12.547516	24.118135	-0.745169	1.119152	2.677829	0.000000	0.142257	0.000000	0.000000	0.000000	0.000000	0.000000
2.221453	13.377198	22.882385	-1.143504	1.672594	2.757316	0.000000	0.218605	0.000000	0.000001	0.000001	0.000000	0.000000
2.662413	14.579802	21.190363	-1.594083	2.149935	2.870986	0.000000	0.297442	0.000000	0.000001	0.000001	0.000000	0.000000
3.108373	16.231058	19.094241	-2.121787	2.530586	3.021994	0.000000	0.380157	0.000000	0.000001	0.000001	0.000000	0.000000
3.657433	18.348485	16.740062	-1.711843	1.782377	3.205451	0.000000	0.287119	0.000000	0.000001	0.000001	0.000000	0.000000
4.206493	19.946279	15.133388	-1.180983	1.161122	3.336349	0.000000	0.188988	0.000000	0.000002	0.000000	0.000000	0.000000
4.755553	20.911578	14.159781	-0.566704	0.622571	3.412367	0.000000	0.087506	0.000000	0.000002	0.000000	0.000000	0.000000
5.304613	21.176199	13.749892	0.087604	0.128365	3.432155	0.000000	-0.015529	0.000000	0.000002	0.000000	0.000000	0.000000
5.603185	21.161140	13.658445	0.018162	0.141989	3.430196	0.000000	-0.006562	0.000000	0.000002	0.000000	0.000000	0.000000
5.936519	21.154284	13.572085	0.002404	0.117092	3.428009	0.000000	-0.006562	0.000000	0.000002	0.000000	0.000000	0.000000
6.269852	21.157934	13.502322	-0.013353	0.092195	3.425821	0.000000	-0.006562	0.000000	0.000002	0.000000	0.000000	0.000000
6.604435	21.172161	13.448989	-0.029170	0.067205	3.423626	0.000000	-0.006562	0.000000	0.000002	0.000000	0.000000	0.000000
6.901758	21.193686	13.415629	-0.098599	0.080050	3.421675	0.000000	0.002378	0.000000	0.000003	0.000000	0.000000	0.000000
7.450818	20.940704	13.588324	0.556626	-0.396436	3.394779	0.000000	-0.100202	0.000000	0.000003	0.000000	0.000000	0.000000
7.999878	19.985639	14.296601	1.172533	-0.901159	3.311967	0.000000	-0.201005	0.000000	0.000003	0.000000	0.000000	0.000000
8.548938	18.395951	15.590907	1.705618	-1.470069	3.174706	0.000000	-0.298242	0.000000	0.000003	0.000000	0.000000	0.000000
9.097998	16.283928	17.563434	2.118227	-2.143689	2.985432	0.000000	-0.390190	0.000000	0.000003	-0.000000	0.000000	0.000000
9.543958	14.636080	19.321100	1.589968	-1.780962	2.829730	0.000000	-0.308485	0.000000	0.000003	0.000000	0.000000	0.000000
9.984918	13.437419	20.701883	1.138645	-1.338433	2.710946	0.000000	-0.230777	0.000000	0.000003	0.000000	0.000000	0.000000
10.425878	12.612431	21.663944	0.739343	-0.835006	2.625818	0.000000	-0.155697	0.000000	0.000003	0.000000	0.000000	0.000000
10.866838	12.123426	22.163509	0.373820	-0.293588	2.573374	0.000000	-0.082391	0.000000	0.000003	0.000000	0.000000	0.000000
11.309048	11.947925	22.177333	0.054570	0.206745	2.552997	0.000000	-0.016283	0.000000	0.000003	0.000000	0.000000	0.000000
11.606371	11.922896	22.058550	0.029611	0.192766	2.548156	0.000000	-0.016283	0.000000	0.000003	0.000000	0.000000	0.000000
12.086371	11.913811	21.884327	-0.010683	0.170197	2.540340	0.000000	-0.016283	0.000000	0.000004	0.000000	0.000000	0.000000
12.566371	11.943408	21.731771	-0.050977	0.147628	2.532524	0.000000	-0.016283	0.000000	0.000004	0.000000	0.000000	0.000000
13.046371	12.011687	21.600881	-0.091271	0.125059	2.524707	0.000000	-0.016283	0.000000	0.000004	0.000000	0.000000	0.000000
13.526371	12.118648	21.491658	-0.131565	0.102490	2.516891	0.000000	-0.016283	0.000000	0.000004	0.000000	0.000000	0.000000
14.007621	12.264722	21.403900	-0.171964	0.079863	2.509055	0.000000	-0.016283	0.000000	0.000004	0.000000	0.000000	0.000000
14.304943	12.374400	21.360567	-0.166579	0.013503	2.504213	0.000000	-0.022424	0.000000	0.000004	0.000000	0.000000	0.000000
14.745903	12.679974	21.114846	-0.529025	0.541616	2.509956	0.000000	0.048497	0.000000	0.000005	0.000000	0.000000	0.000000
15.186863	13.314606	20.412501	-0.915640	1.045086	2.547064	0.000000	0.119971	0.000000	0.000005	0.000001	0.000000	0.000000
15.627823	14.307291	19.285488	-1.344089	1.501005	2.615961	0.000000	0.192811	0.000000	0.000005	0.000001	0.000000	0.000000
16.068783	15.703381	17.785085	-1.833946	1.888630	2.717430	0.000000	0.267847	0.000000	0.000006	0.000001	0.000000	0.000000
16.514743	17.590314	15.958056	-2.412347	2.191072	2.854322	0.000000	0.346396	0.000000	0.000006	0.000001	0.000000	0.000000
17.063803	20.013636	13.917917	-1.975108	1.546556	3.020784	0.000000	0.259067	0.000000	0.000006	0.000001	0.000000	0.000000
17.612863	21.876902	12.521252	-1.398358	1.012198	3.137963	0.000000	0.167142	0.000000	0.000007	0.000001	0.000000	0.000000
18.161923	23.048499	11.668579	-0.722834	0.549936	3.203781	0.000000	0.072252	0.000000	0.000007	0.000000	0.000000	0.000000
18.710983	23.445672	11.299166	0.003747	0.126845	3.217069	0.000000	-0.023919	0.000000	0.000007	0.000000	0.000000	0.000000
19.009556	23.483828	11.213875	-0.070285	0.129296	3.212437	0.000000	-0.015514	0.000000	0.000007	0.000000	0.000000	0.000000
19.342889	23.535439	11.137752	-0.084549	0.099074	3.207265	0.000000	-0.015514	0.000000	0.000007	0.000000	0.000000	0.000000
19.676223	23.596560	11.081777	-0.098814	0.068852	3.202094	0.000000	-0.015514	0.000000	0.000007	0.000000	0.000000	0.000000
20.010806	23.667766	11.045717	-0.230395	0.093244	3.196923	0.000000	0.000325	0.000000	0.000007	0.000000	0.000000	0.000000
20.308129	23.808703	10.998342	-0.305828	0.094827	3.197019	0.000000	0.008678	0.000000	0.000008	0.000000	0.000000	0.000000
20.857189	23.733904	11.116645	0.441251	-0.311563	3.175565	0.000000	-0.086711	0.000000	0.000008	-0.000000	0.000000	0.000000
21.406249	22.851054	11.690708	1.157161	-0.740145	3.102083	0.000000	-0.180563	0.000000	0.000007	-0.000000	0.000000	0.000000
21.955309	21.222512	12.761420	1.791336	-1.221447	2.977874	0.000000	-0.271211	0.000000	0.000007	-0.000001	0.000000	0.000000
22.504369	18.963310	14.405045	2.298979	-1.789749	2.805144	0.000000	-0.357049	0.000000	0.000007	-0.000001	0.000000	0.000000
22.950329	17.182959	15.880602	1.707290	-1.505013	2.663208	0.000000	-0.279841	0.000000	0.000007	-0.000001	0.000000	0.000000
23.391289	15.906553	17.057005	1.198298	-1.152658	2.556131	0.000000	-0.206275	0.000000	0.000006	-0.000000	0.000000	0.000000
23.832249	15.053290	17.898258	0.744054	-0.747857	2.480945	0.000000	-0.135059	0.000000	0.000006	-0.000000	0.000000	0.000000
24.273209	14.584187	18.366083	0.323804	-0.309030	2.436795	0.000000	-0.065380	0.000000	0.000006	-0.000000	0.000000	0.000000
24.715418	14.477927	18.438948	-0.046238	0.098574	2.423173	0.000000	-0.002388	0.000000	0.000006	0.000000	0.000000	0.000000
25.012741	14.511542	18.385173	-0.066818	0.082293	2.422463	0.000000	-0.002388	0.000000	0.000006	0.000000	0.000000	0.000000
25.346075	14.563778	18.336395	-0.089891	0.064040	2.421667	0.000000	-0.002388	0.000000	0.000006	0.000000	0.000000	0.000000
25.679408	14.631396	18.299787	-0.112964	0.045786	2.420871	0.000000	-0.002388	0.000000	0.000006	0.000000	0.000000	0.000000
26.013991	14.714438	18.275649	-0.016750	-0.120797	2.420047	0.000000	-0.022021	0.000000	0.000006	0.000000	0.000000	0.000000
26.311314	14.730407	18.352387	-0.000841	-0.182306	2.413500	0.000000	-0.027940	0.000000	0.000006	0.000000	0.000000	0.000000
26.752274	14.912652	18.314095	-0.414019	0.268813	2.416290	0.000000	0.040605	0.000000	0.000006	0.000000	0.000000	0.000000
27.193234	15.466219	17.881847	-0.846112	0.707701	2.449378	0.000000	0.109612	0.000000	0.000006	0.000000	0.000000	0.000000
27.634194	16.416400	17.075309	-1.316862	1.114388	2.513142	0.000000	0.179868	0.000000	0.000007	0.000001	0.000000	0.000000
28.075154	17.806604	15.931179	-1.847775	1.470373	2.608307	0.000000	0.252172	0.000000	0.000007	0.000001	0.000000	0.000000
28.521114	19.724504	14.484282	-2.468068	1.760369	2.737562	0.000000	0.327792	0.000000	0.000007	0.000001	0.000000	0.000000
29.070174	22.162165	12.872044	-1.945349	1.193323	2.894875	0.000000	0.244394	0.000000	0.000008	0.000001	0.000000	0.000000
29.619234	23.946504	11.832442	-1.285220	0.711275	3.005138	0.000000	0.156660	0.000000	0.000008	0.000000	0.000000	0.000000
30.168294	24.951485	11.291426	-0.534310	0.279889	3.066396	0.000000	0.066148	0.000000	0.000008	0.000000	0.000000	0.000000
30.717354	25.106119	11.210463	0.254341	-0.131561	3.077561	0.000000	-0.025537	0.000000	0.000008	-0.000000	0.000000	0.000000
31.015927	24.997086	11.279569	0.176432	-0.129184	3.072337	0.000000	-0.017497	0.000000	0.000008	-0.000000	0.000000	0.000000
31.349260	24.884048	11.375707	0.162682	-0.159229	3.066505	0.000000	-0.017497	0.000000	0.000008	-0.000000	0.000000	0.000000
31.682593	24.780177	11.491875	0.148932	-0.189274	3.060673	0.000000	-0.017497	0.000000	0.000008	-0.000000	0.000000	0.000000
32.017177	24.685134	11.628621	0.135131	-0.219432	3.054819	0.000000	-0.017497	0.000000	0.000008	-0.000000	0.000000	0.000000
32.314499	24.608426	11.767073	0.058573	-0.215488	3.049617	0.000000	-0.009529	0.000000	0.000008	-0.000000	0.000000	0.000000
32.863559	24.122531	12.243008	0.821146	-0.656446	3.019503	0.000000	-0.100002	0.000000	0.000008	-0.000000	0.000000	0.000000
33.412619	22.826288	13.225849	1.525718	-1.144162	2.940129	0.000000	-0.188701	0.000000	0.000007	-0.000001	0.000000	0.000000
33.961679	20.811258	14.785601	2.122520	-1.713374	2.812902	0.000000	-0.274053	0.000000	0.000007	-0.000001	0.000000	0.000000
34.510739	18.219772	17.033362	2.569398	-2.404625	2.640079	0.000000	-0.354545	0.000000	0.000007	-0.000001	0.000000	0.000000
34.956699	16.204876	19.043852	1.964898	-2.084781	2.498308	0.000000	-0.281616	0.000000	0.000006	-0.000001	0.000000	0.000000
35.397659	14.702459	20.706253	1.455175	-1.670829	2.389508	0.000000	-0.212324	0.000000	0.000006	-0.000001	0.000000	0.000000
35.838619	13.618674	21.968535	1.011935	-1.180856	2.310701	0.000000	-0.145449	0.000000	0.000005	-0.000001	0.000000	0.000000
36.279579	12.904004	22.773268	0.614927	-0.637154	2.260991	0.000000	-0.080231	0.000000	0.000005	-0.000000	0.000000	0.000000
36.721789	12.525107	23.084137	0.276621	-0.121123	2.239784	0.000000	-0.021419	0.000000	0.000005	-0.000000	0.000000	0.000000
37.019112	12.368213	23.160049	0.251067	-0.134192	2.233415	0.000000	-0.021419	0.000000	0.000005	-0.000000	0.000000	0.000000
37.352445	12.210385	23.254394	0.222417	-0.148844	2.226276	0.000000	-0.021419	0.000000	0.000005	-0.000000	0.000000	0.000000
37.685779	12.071657	23.358507	0.193767	-0.163496	2.219136	0.000000	-0.021419	0.000000	0.000005	-0.000000	0.000000	0.000000
38.020362	11.951616	23.472834	0.165010	-0.178203	2.211969	0.000000	-0.021419	0.000000	0.000005	-0.000000	0.000000	0.000000
38.317684	11.861091	23.582687	0.168542	-0.249101	2.205601	0.000000	-0.026828	0.000000	0.000004	-0.000000	0.000000	0.000000
38.758644	11.863720	23.541180	-0.174525	0.342872	2.207698	0.000000	0.036348	0.000000	0.000004	-0.000000	0.000000	0.000000
39.199604	12.171264	22.982511	-0.525564	0.919244	2.237718	0.000000	0.099939	0.000000	0.000004	-0.000000	0.000000	0.000000
39.640564	12.797776	21.932101	-0.900616	1.453791	2.296003	0.000000	0.164667	0.000000	0.000004	-0.000000	0.000000	0.000000
40.081524	13.771878	20.437741	-1.316814	1.922192	2.383216	0.000000	0.231271	0.000000	0.000004	0.000000	0.000000	0.000000
40.527484	15.155642	18.544856	-1.796998	2.304414	2.501824	0.000000	0.300914	0.000000	0.000004	0.000000	0.000000	0.000000
41.076544	16.921655	16.417798	-1.400392	1.592451	2.646514	0.000000	0.225358	0.000000	0.000004	0.000000	0.000000	0.000000
41.625604	18.194919	15.006062	-0.904869	0.993914	2.748560	0.000000	0.145805	0.000000	0.000004	-0.000000	0.000000	0.000000
42.174664	18.885496	14.209092	-0.345431	0.466171	2.806151	0.000000	0.063666	0.000000	0.000004	-0.000000	0.000000	0.000000
42.723724	18.944609	13.970123	0.238407	-0.028368	2.818266	0.000000	-0.019602	0.000000	0.000004	-0.000000	0.000000	0.000000
43.022297	18.836675	13.971648	0.172587	-0.013241	2.814612	0.000000	-0.012239	0.000000	0.000004	-0.000000	0.000000	0.000000
43.502297	18.683588	14.000853	0.146346	-0.047602	2.808737	0.000000	-0.012239	0.000000	0.000004	-0.000000	0.000000	0.000000
43.982297	18.555692	14.063044	0.120105	-0.081964	2.802863	0.000000	-0.012239	0.000000	0.000004	-0.000000	0.000000	0.000000
44.462297	18.452987	14.158223	0.093863	-0.116325	2.796988	0.000000	-0.012239	0.000000	0.000004	-0.000000	0.000000	0.000000
44.942297	18.375474	14.286388	0.067622	-0.150686	2.791114	0.000000	-0.012239	0.000000	0.000003	-0.000000	0.000000	0.000000
45.423547	18.323276	14.447824	-0.049471	-0.113554	2.785241	0.000000	0.001561	0.000000	0.000003	-0.000000	0.000000	0.000000
45.720870	18.357530	14.521546	-0.113701	-0.096457	2.785705	0.000000	0.008839	0.000000	0.000003	-0.000000	0.000000	0.000000
46.269930	18.173278	14.908382	0.447292	-0.612244	2.767987	0.000000	-0.073284	0.000000	0.000003	-0.000000	0.000000	0.000000
46.818990	17.386769	15.882094	0.976691	-1.171640	2.705470	0.000000	-0.154107	0.000000	0.000003	-0.000001	0.000000	0.000000
47.368050	16.053560	17.512036	1.437102	-1.814489	2.599262	0.000000	-0.232196	0.000000	0.000002	-0.000001	0.000000	0.000000
47.917110	14.267821	19.914307	1.796002	-2.586580	2.451248	0.000000	-0.306167	0.000000	0.000002	-0.000001	0.000000	0.000000
48.363070	12.878077	22.050208	1.331334	-2.182732	2.330002	0.000000	-0.237870	0.000000	0.000002	-0.000001	0.000000	0.000000
48.804030	11.884135	23.760397	0.931259	-1.680841	2.239570	0.000000	-0.172679	0.000000	0.000001	-0.000001	0.000000	0.000000
49.244990	11.223003	24.992416	0.573730	-1.102474	2.177424	0.000000	-0.109455	0.000000	0.000001	-0.000001	0.000000	0.000000
49.685950	10.864477	25.690210	0.242413	-0.473946	2.142857	0.000000	-0.047478	0.000000	0.000001	-0.000001	0.000000	0.000000
50.128160	10.792305	25.821747	-0.051480	0.112776	2.135485	0.000000	0.008722	0.000000	0.000001	-0.000000	0.000000	0.000000
50.425482	10.831130	25.758152	-0.079102	0.101115	2.138078	0.000000	0.008722	0.000000	0.000001	-0.000000	0.000000	0.000000
50.758816	10.894187	25.695100	-0.110070	0.088042	2.140985	0.000000	0.008722	0.000000	0.000000	-0.000000	0.000000	0.000000
51.092149	10.977890	25.640764	-0.141038	0.074968	2.143893	0.000000	0.008722	0.000000	0.000000	-0.000000	0.000000	0.000000
51.426732	11.082444	25.595507	-0.082214	-0.145797	2.146789	0.000000	-0.008694	0.000000	0.000000	-0.000000	0.000000	0.000000
51.724055	11.139362	25.685732	-0.081907	-0.220650	2.144204	0.000000	-0.013953	0.000000	-0.000000	-0.000000	0.000000	0.000000
52.165015	11.357018	25.594587	-0.413560	0.426560	2.151640	0.000000	0.047710	0.000000	-0.000000	-0.000001	0.000000	0.000000
52.605975	11.874358	24.939065	-0.764107	1.054361	2.186360	0.000000	0.109915	0.000000	-0.000001	-0.000001	0.000000	0.000000
53.046935	12.715021	23.748994	-1.149563	1.634189	2.248760	0.000000	0.173373	0.000000	-0.000001	-0.000001	0.000000	0.000000
53.487895	13.917413	22.078519	-1.587540	2.139664	2.339551	0.000000	0.238805	0.000000	-0.000001	-0.000001	0.000000	0.000000
53.933855	15.557075	19.978667	-2.102283	2.549120	2.461271	0.000000	0.307356	0.000000	-0.000001	-0.000001	0.000000	0.000000
54.482915	17.668053	17.615868	-1.719671	1.779636	2.609848	0.000000	0.233051	0.000000	-0.000002	-0.000001	0.000000	0.000000
55.031975	19.289284	16.023905	-1.215589	1.136912	2.716430	0.000000	0.154612	0.000000	-0.000002	-0.000000	0.000000	0.000000
55.581035	20.306252	15.089387	-0.625645	0.575167	2.779128	0.000000	0.073432	0.000000	-0.000002	-0.000000	0.000000	0.000000
56.130095	20.647123	14.745751	0.008492	0.054390	2.796828	0.000000	-0.009052	0.000000	-0.000002	-0.000000	0.000000	0.000000
56.428668	20.678594	14.696363	-0.059947	0.072496	2.796308	0.000000	-0.001744	0.000000	-0.000002	-0.000000	0.000000	0.000000
56.762001	20.723951	14.655632	-0.076124	0.049696	2.795726	0.000000	-0.001744	0.000000	-0.000003	-0.000000	0.000000	0.000000
57.095334	20.780093	14.630102	-0.092302	0.026895	2.795145	0.000000	-0.001744	0.000000	-0.000003	-0.000000	0.000000	0.000000
57.429918	20.847292	14.619762	-0.108540	0.004009	2.794562	0.000000	-0.001744	0.000000	-0.000003	-0.000000	0.000000	0.000000
57.727240	20.916125	14.623425	-0.177622	0.021881	2.794043	0.000000	0.005556	0.000000	-0.000003	-0.000000	0.000000	0.000000
58.276300	20.754299	14.880258	0.470610	-0.492411	2.774454	0.000000	-0.076806	0.000000	-0.000003	-0.000000	0.000000	0.000000
58.825360	19.894757	15.717676	1.085600	-1.041776	2.709951	0.000000	-0.157806	0.000000	-0.000003	-0.000000	0.000000	0.000000
59.374420	18.398215	17.195325	1.623909	-1.665345	2.601678	0.000000	-0.236008	0.000000	-0.000003	-0.000000	0.000000	0.000000
59.923480	16.370380	19.418456	2.047513	-2.407532	2.451556	0.000000	-0.310023	0.000000	-0.000003	0.000000	0.000000	0.000000
60.369440	14.783144	21.394446	1.524235	-2.004635	2.328588	0.000000	-0.241740	0.000000	-0.000003	-0.000000	0.000000	0.000000
60.810400	13.641402	22.951021	1.074805	-1.511901	2.236438	0.000000	-0.176608	0.000000	-0.000003	-0.000000	0.000000	0.000000
61.251360	12.872953	24.040934	0.674479	-0.950376	2.172539	0.000000	-0.113488	0.000000	-0.000003	-0.000000	0.000000	0.000000
61.692320	12.442688	24.614594	0.304969	-0.345610	2.136162	0.000000	-0.051660	0.000000	-0.000003	-0.000000	0.000000	0.000000
62.134530	12.331000	24.645366	-0.020470	0.214388	2.126899	0.000000	0.004364	0.000000	-0.000004	-0.000000	0.000000	0.000000
62.431853	12.350345	24.521633	-0.044592	0.201769	2.128196	0.000000	0.004364	0.000000	-0.000004	-0.000000	0.000000	0.000000
62.765186	12.389087	24.391836	-0.071635	0.187622	2.129651	0.000000	0.004364	0.000000	-0.000004	-0.000000	0.000000	0.000000
63.098520	12.445859	24.271470	-0.098679	0.173475	2.131106	0.000000	0.004364	0.000000	-0.000004	-0.000000	0.000000	0.000000
63.433103	12.520974	24.160137	-0.125824	0.159275	2.132566	0.000000	0.004364	0.000000	-0.000004	-0.000000	0.000000	0.000000
63.730426	12.602966	24.069176	-0.119038	0.087630	2.133864	0.000000	-0.000869	0.000000	-0.000004	-0.000000	0.000000	0.000000
64.171386	12.868401	23.726809	-0.485193	0.685830	2.147021	0.000000	0.060601	0.000000	-0.000004	-0.000000	0.000000	0.000000
64.612346	13.465273	22.868674	-0.873515	1.252826	2.187410	0.000000	0.122760	0.000000	-0.000005	-0.000001	0.000000	0.000000
65.053306	14.420850	21.533815	-1.301746	1.762819	2.255492	0.000000	0.186318	0.000000	-0.000005	-0.000001	0.000000	0.000000
65.494266	15.778791	19.782969	-1.789449	2.192605	2.352040	0.000000	0.251998	0.000000	-0.000005	-0.000001	0.000000	0.000000
65.940226	17.624303	17.671015	-2.363600	2.523386	2.479727	0.000000	0.320950	0.000000	-0.000006	-0.000001	0.000000	0.000000
66.489286	19.989944	15.308339	-1.919424	1.805144	2.635583	0.000000	0.245929	0.000000	-0.000006	-0.000001	0.000000	0.000000
67.038346	21.790036	13.659568	-1.339668	1.215479	2.748987	0.000000	0.166546	0.000000	-0.000006	-0.000001	0.000000	0.000000
67.587406	22.897431	12.607264	-0.665286	0.712389	2.817928	0.000000	0.084209	0.000000	-0.000007	-0.000000	0.000000	0.000000
68.136466	23.233908	12.076475	0.056089	0.260042	2.841185	0.000000	0.000379	0.000000	-0.000007	-0.000000	0.000000	0.000000
68.435038	23.240504	11.910358	-0.017471	0.264771	2.843515	0.000000	0.007803	0.000000	-0.000007	-0.000000	0.000000	0.000000
68.768372	23.256934	11.743827	-0.031818	0.234823	2.846115	0.000000	0.007803	0.000000	-0.000007	-0.000000	0.000000	0.000000
69.101705	23.282929	11.597261	-0.046165	0.204874	2.848716	0.000000	0.007803	0.000000	-0.000007	-0.000000	0.000000	0.000000
69.436288	23.318640	11.470224	-0.060566	0.174813	2.851327	0.000000	0.007803	0.000000	-0.000007	-0.000000	0.000000	0.000000
69.733611	23.358460	11.374215	-0.134399	0.177820	2.853647	0.000000	0.015259	0.000000	-0.000007	-0.000000	0.000000	0.000000
70.282671	23.104883	11.406681	0.593503	-0.237298	2.838841	0.000000	-0.069112	0.000000	-0.000007	0.000000	0.000000	0.000000
