#ParticleID	Turn	x[m]	xp	y[m]	yp	z[m]	dE[GeV]# s	beta_x	beta_y	alpha_x	alpha_y	D_x	D_y	D_px	D_py	orbit_x	orbit_px	orbit_y	orbit_py
0.300000	11.824401	24.975438	-0.012349	-0.027630	2.618150	0.000000	-0.000003	0.000000	0.000000	0.000001	0.000000	0.000000
0.601250	11.839518	24.995722	-0.037830	-0.039702	2.618149	0.000000	-0.000003	0.000000	0.000001	0.000001	0.000000	0.000000
0.898573	11.869490	25.022872	-0.033871	-0.112978	2.618148	0.000000	-0.006423	0.000000	0.000001	0.000001	0.000000	0.000000
1.339533	12.051623	24.844962	-0.380732	0.514903	2.631608	0.000000	0.067535	0.000000	0.000001	0.000001	0.000000	0.000000
1.780493	12.546145	24.121567	-0.744987	1.119356	2.677820	0.000000	0.142262	0.000000	0.000001	0.000001	0.000000	0.000000
2.221453	13.375648	22.885599	-1.143279	1.672880	2.757309	0.000000	0.218609	0.000000	0.000002	0.000001	0.000000	0.000000
2.662413	14.578031	21.193295	-1.593804	2.150288	2.870981	0.000000	0.297447	0.000000	0.000002	0.000001	0.000000	0.000000
3.108373	16.229009	19.096833	-2.121441	2.530992	3.021991	0.000000	0.380161	0.000000	0.000002	0.000001	0.000000	0.000000
3.657433	18.346083	16.742265	-1.711549	1.782682	3.205450	0.000000	0.287124	0.000000	0.000002	0.000001	0.000000	0.000000
4.206493	19.943591	15.135302	-1.180761	1.161348	3.336351	0.000000	0.188993	0.000000	0.000003	0.000001	0.000000	0.000000
4.755553	20.908694	14.161482	-0.566571	0.622734	3.412371	0.000000	0.087510	0.000000	0.000003	0.000000	0.000000	0.000000
5.304613	21.173222	13.751442	0.087640	0.128477	3.432162	0.000000	-0.015525	0.000000	0.000003	0.000000	0.000000	0.000000
5.603185	21.158137	13.659926	0.018203	0.142107	3.430204	0.000000	-0.006558	0.000000	0.000003	0.000000	0.000000	0.000000
5.936519	21.151255	13.573486	0.002444	0.117212	3.428018	0.000000	-0.006558	0.000000	0.000003	0.000000	0.000000	0.000000
6.269852	21.154879	13.503643	-0.013316	0.092317	3.425832	0.000000	-0.006558	0.000000	0.000004	0.000000	0.000000	0.000000
6.604435	21.169082	13.450228	-0.029135	0.067328	3.423637	0.000000	-0.006558	0.000000	0.000004	0.000000	0.000000	0.000000
6.901758	21.190586	13.416794	-0.098557	0.080177	3.421687	0.000000	0.002382	0.000000	0.000004	0.000000	0.000000	0.000000
7.450818	20.937616	13.589367	0.556563	-0.396339	3.394794	0.000000	-0.100198	0.000000	0.000004	0.000000	0.000000	0.000000
7.999878	19.982675	14.297551	1.172371	-0.901085	3.311984	0.000000	-0.201002	0.000000	0.000004	0.000000	0.000000	0.000000
8.548938	18.393215	15.591787	1.705368	-1.470014	3.174725	0.000000	-0.298240	0.000000	0.000004	-0.000000	0.000000	0.000000
9.097998	16.281507	17.564262	2.117906	-2.143649	2.985452	0.000000	-0.390188	0.000000	0.000004	-0.000000	0.000000	0.000000
9.543958	14.633913	19.321878	1.589718	-1.780891	2.829750	0.000000	-0.308482	0.000000	0.000004	-0.000000	0.000000	0.000000
9.984918	13.435445	20.702586	1.138454	-1.338334	2.710968	0.000000	-0.230774	0.000000	0.000004	0.000000	0.000000	0.000000
10.425878	12.610604	21.664548	0.739202	-0.834884	2.625841	0.000000	-0.155693	0.000000	0.000004	0.000000	0.000000	0.000000
10.866838	12.121703	22.163997	0.373723	-0.293447	2.573399	0.000000	-0.082387	0.000000	0.000004	0.000000	0.000000	0.000000
11.309048	11.946271	22.177691	0.054508	0.206897	2.553024	0.000000	-0.016278	0.000000	0.000004	0.000000	0.000000	0.000000
11.606371	11.921280	22.058817	0.029545	0.192917	2.548184	0.000000	-0.016278	0.000000	0.000004	0.000000	0.000000	0.000000
12.086371	11.912260	21.884451	-0.010754	0.170347	2.540371	0.000000	-0.016278	0.000000	0.000005	0.000000	0.000000	0.000000
12.566371	11.941928	21.731751	-0.051053	0.147777	2.532557	0.000000	-0.016278	0.000000	0.000005	0.000000	0.000000	0.000000
13.046371	12.010283	21.600718	-0.091353	0.125207	2.524743	0.000000	-0.016278	0.000000	0.000005	0.000000	0.000000	0.000000
13.526371	12.117325	21.491353	-0.131652	0.102638	2.516929	0.000000	-0.016278	0.000000	0.000005	0.000000	0.000000	0.000000
14.007621	12.263484	21.403454	-0.172056	0.080009	2.509095	0.000000	-0.016278	0.000000	0.000005	0.000000	0.000000	0.000000
14.304943	12.373218	21.360034	-0.166677	0.013650	2.504255	0.000000	-0.022419	0.000000	0.000005	0.000000	0.000000	0.000000
14.745903	12.678869	21.114191	-0.529099	0.541746	2.510000	0.000000	0.048503	0.000000	0.000006	0.000000	0.000000	0.000000
15.186863	13.313557	20.411742	-0.915695	1.045192	2.547111	0.000000	0.119978	0.000000	0.000006	0.000001	0.000000	0.000000
15.627823	14.306282	19.284647	-1.344126	1.501083	2.616011	0.000000	0.192819	0.000000	0.000006	0.000001	0.000000	0.000000
16.068783	15.702397	17.784189	-1.833966	1.888676	2.717484	0.000000	0.267857	0.000000	0.000006	0.000001	0.000000	0.000000
16.514743	17.589342	15.957135	-2.412353	2.191083	2.854381	0.000000	0.346407	0.000000	0.000007	0.000001	0.000000	0.000000
17.063803	20.012694	13.916973	-1.975157	1.546585	3.020849	0.000000	0.259076	0.000000	0.000007	0.000001	0.000000	0.000000
17.612863	21.876035	12.520266	-1.398446	1.012245	3.138032	0.000000	0.167149	0.000000	0.000008	0.000001	0.000000	0.000000
18.161923	23.047749	11.667530	-0.722956	0.550006	3.203852	0.000000	0.072257	0.000000	0.000008	0.000000	0.000000	0.000000
18.710983	23.445070	11.298025	0.003600	0.126943	3.217143	0.000000	-0.023917	0.000000	0.000008	0.000000	0.000000	0.000000
19.009556	23.483312	11.212679	-0.070430	0.129387	3.212511	0.000000	-0.015512	0.000000	0.000008	0.000000	0.000000	0.000000
19.342889	23.535021	11.136496	-0.084695	0.099161	3.207341	0.000000	-0.015512	0.000000	0.000008	0.000000	0.000000	0.000000
19.676223	23.596239	11.080464	-0.098960	0.068935	3.202170	0.000000	-0.015512	0.000000	0.000008	0.000000	0.000000	0.000000
20.010806	23.667544	11.044350	-0.230541	0.093316	3.197000	0.000000	0.000328	0.000000	0.000008	0.000000	0.000000	0.000000
20.308129	23.808568	10.996933	-0.305974	0.094892	3.197097	0.000000	0.008681	0.000000	0.000009	0.000000	0.000000	0.000000
20.857189	23.733932	11.115143	0.441103	-0.311457	3.175644	0.000000	-0.086711	0.000000	0.000009	-0.000000	0.000000	0.000000
21.406249	22.851239	11.689064	1.157023	-0.739991	3.102161	0.000000	-0.180565	0.000000	0.000008	-0.000000	0.000000	0.000000
21.955309	21.222839	12.759574	1.791216	-1.221232	2.977951	0.000000	-0.271216	0.000000	0.000008	-0.000001	0.000000	0.000000
22.504369	18.963754	14.402925	2.298887	-1.789460	2.805218	0.000000	-0.357056	0.000000	0.000008	-0.000001	0.000000	0.000000
22.950329	17.183485	15.878245	1.707197	-1.504773	2.663279	0.000000	-0.279846	0.000000	0.000007	-0.000001	0.000000	0.000000
23.391289	15.907163	17.054462	1.198201	-1.152477	2.556200	0.000000	-0.206279	0.000000	0.000007	-0.000001	0.000000	0.000000
23.832249	15.053989	17.895584	0.743948	-0.747744	2.481013	0.000000	-0.135060	0.000000	0.000007	-0.000000	0.000000	0.000000
24.273209	14.584985	18.363341	0.323684	-0.308989	2.436862	0.000000	-0.065380	0.000000	0.000007	-0.000000	0.000000	0.000000
24.715418	14.478839	18.436204	-0.046375	0.098547	2.423241	0.000000	-0.002387	0.000000	0.000007	0.000000	0.000000	0.000000
25.012741	14.512535	18.382445	-0.066954	0.082263	2.422532	0.000000	-0.002387	0.000000	0.000007	0.000000	0.000000	0.000000
25.346075	14.564861	18.333688	-0.090026	0.064007	2.421736	0.000000	-0.002387	0.000000	0.000007	0.000000	0.000000	0.000000
25.679408	14.632569	18.297102	-0.113097	0.045751	2.420941	0.000000	-0.002387	0.000000	0.000007	0.000000	0.000000	0.000000
26.013991	14.715700	18.272988	-0.016872	-0.120812	2.420118	0.000000	-0.022020	0.000000	0.000007	-0.000000	0.000000	0.000000
26.311314	14.731741	18.349737	-0.000958	-0.182317	2.413570	0.000000	-0.027939	0.000000	0.000007	-0.000000	0.000000	0.000000
26.752274	14.914105	18.311487	-0.414171	0.268730	2.416361	0.000000	0.040608	0.000000	0.000007	0.000000	0.000000	0.000000
27.193234	15.467824	17.879343	-0.846306	0.707550	2.449451	0.000000	0.109617	0.000000	0.000007	0.000000	0.000000	0.000000
27.634194	16.418197	17.072965	-1.317106	1.114177	2.513218	0.000000	0.179875	0.000000	0.000007	0.000000	0.000000	0.000000
28.075154	17.808643	15.929045	-1.848081	1.470110	2.608386	0.000000	0.252181	0.000000	0.000007	0.000001	0.000000	0.000000
28.521114	19.726849	14.482401	-2.468450	1.760067	2.737645	0.000000	0.327803	0.000000	0.000008	0.000001	0.000000	0.000000
29.070174	22.164899	12.870454	-1.945671	1.193092	2.894963	0.000000	0.244402	0.000000	0.000008	0.000001	0.000000	0.000000
29.619234	23.949548	11.831075	-1.285460	0.711098	3.005230	0.000000	0.156665	0.000000	0.000008	0.000000	0.000000	0.000000
30.168294	24.954738	11.290230	-0.534450	0.279754	3.066490	0.000000	0.066150	0.000000	0.000008	0.000000	0.000000	0.000000
30.717354	25.109468	11.209396	0.254311	-0.131663	3.077656	0.000000	-0.025538	0.000000	0.000008	-0.000000	0.000000	0.000000
31.015927	25.000458	11.278566	0.176394	-0.129292	3.072431	0.000000	-0.017497	0.000000	0.000008	-0.000000	0.000000	0.000000
31.349260	24.887444	11.374777	0.162647	-0.159341	3.066599	0.000000	-0.017497	0.000000	0.000008	-0.000000	0.000000	0.000000
31.682593	24.783596	11.491021	0.148899	-0.189390	3.060767	0.000000	-0.017497	0.000000	0.000008	-0.000000	0.000000	0.000000
32.017177	24.688575	11.627845	0.135099	-0.219551	3.054912	0.000000	-0.017497	0.000000	0.000008	-0.000000	0.000000	0.000000
32.314499	24.611885	11.766369	0.058534	-0.215612	3.049710	0.000000	-0.009530	0.000000	0.000008	-0.000000	0.000000	0.000000
32.863559	24.125969	12.242433	0.821223	-0.656557	3.019595	0.000000	-0.100006	0.000000	0.000008	-0.000000	0.000000	0.000000
33.412619	22.829581	13.225392	1.525904	-1.144268	2.940218	0.000000	-0.188708	0.000000	0.000008	-0.000001	0.000000	0.000000
33.961679	20.814291	14.785261	2.122803	-1.713482	2.812987	0.000000	-0.274063	0.000000	0.000007	-0.000001	0.000000	0.000000
34.510739	18.222451	17.033145	2.569758	-2.404744	2.640158	0.000000	-0.354557	0.000000	0.000007	-0.000001	0.000000	0.000000
34.956699	16.207271	19.043751	1.965178	-2.084920	2.498382	0.000000	-0.281626	0.000000	0.000006	-0.000001	0.000000	0.000000
35.397659	14.704638	20.706280	1.455389	-1.670981	2.389578	0.000000	-0.212332	0.000000	0.000006	-0.000001	0.000000	0.000000
35.838619	13.620690	21.968699	1.012092	-1.181014	2.310768	0.000000	-0.145455	0.000000	0.000005	-0.000001	0.000000	0.000000
36.279579	12.905904	22.773571	0.615034	-0.637312	2.261056	0.000000	-0.080236	0.000000	0.000005	-0.000001	0.000000	0.000000
36.721789	12.526931	23.084577	0.276689	-0.121274	2.239847	0.000000	-0.021423	0.000000	0.000005	-0.000000	0.000000	0.000000
37.019112	12.369997	23.160578	0.251137	-0.134343	2.233477	0.000000	-0.021423	0.000000	0.000005	-0.000000	0.000000	0.000000
37.352445	12.212121	23.255024	0.222491	-0.148995	2.226336	0.000000	-0.021423	0.000000	0.000005	-0.000000	0.000000	0.000000
37.685779	12.073343	23.359238	0.193844	-0.163647	2.219196	0.000000	-0.021423	0.000000	0.000005	-0.000000	0.000000	0.000000
38.020362	11.953249	23.473666	0.165090	-0.178354	2.212028	0.000000	-0.021423	0.000000	0.000004	-0.000000	0.000000	0.000000
38.317684	11.862676	23.583609	0.168628	-0.249255	2.205659	0.000000	-0.026831	0.000000	0.000004	-0.000000	0.000000	0.000000
38.758644	11.865244	23.542227	-0.174473	0.342744	2.207755	0.000000	0.036346	0.000000	0.000004	-0.000000	0.000000	0.000000
39.199604	12.172758	22.983657	-0.525546	0.919149	2.237775	0.000000	0.099938	0.000000	0.000004	-0.000000	0.000000	0.000000
39.640564	12.799267	21.933314	-0.900629	1.453732	2.296060	0.000000	0.164668	0.000000	0.000004	-0.000000	0.000000	0.000000
40.081524	13.773395	20.438989	-1.316860	1.922173	2.383274	0.000000	0.231274	0.000000	0.000004	-0.000000	0.000000	0.000000
40.527484	15.157216	18.546102	-1.797078	2.304436	2.501882	0.000000	0.300918	0.000000	0.000004	0.000000	0.000000	0.000000
41.076544	16.923285	16.419038	-1.400414	1.592442	2.646575	0.000000	0.225361	0.000000	0.000004	-0.000000	0.000000	0.000000
41.625604	18.196540	15.007329	-0.904831	0.993874	2.748621	0.000000	0.145806	0.000000	0.000004	-0.000000	0.000000	0.000000
42.174664	18.887045	14.210421	-0.345336	0.466098	2.806212	0.000000	0.063664	0.000000	0.000004	-0.000000	0.000000	0.000000
42.723724	18.946024	13.971552	0.238553	-0.028480	2.818325	0.000000	-0.019606	0.000000	0.000004	-0.000000	0.000000	0.000000
43.022297	18.838006	13.973141	0.172729	-0.013347	2.814670	0.000000	-0.012243	0.000000	0.000003	-0.000000	0.000000	0.000000
43.502297	18.684782	14.002446	0.146489	-0.047705	2.808794	0.000000	-0.012243	0.000000	0.000003	-0.000000	0.000000	0.000000
43.982297	18.556748	14.064734	0.120248	-0.082062	2.802917	0.000000	-0.012243	0.000000	0.000003	-0.000000	0.000000	0.000000
44.462297	18.453906	14.160006	0.094007	-0.116420	2.797041	0.000000	-0.012243	0.000000	0.000003	-0.000000	0.000000	0.000000
44.942297	18.376254	14.288261	0.067767	-0.150778	2.791165	0.000000	-0.012243	0.000000	0.000003	-0.000000	0.000000	0.000000
45.423547	18.323917	14.449783	-0.049329	-0.113632	2.785291	0.000000	0.001557	0.000000	0.000002	-0.000000	0.000000	0.000000
45.720870	18.358086	14.523551	-0.113560	-0.096527	2.785754	0.000000	0.008836	0.000000	0.000002	-0.000000	0.000000	0.000000
46.269930	18.173670	14.910498	0.447448	-0.612377	2.768034	0.000000	-0.073288	0.000000	0.000002	-0.000000	0.000000	0.000000
46.818990	17.386987	15.884395	0.976851	-1.171846	2.705513	0.000000	-0.154113	0.000000	0.000002	-0.000001	0.000000	0.000000
47.368050	16.053606	17.514610	1.437253	-1.814782	2.599302	0.000000	-0.232204	0.000000	0.000002	-0.000001	0.000000	0.000000
47.917110	14.267709	19.917260	1.796136	-2.586981	2.451283	0.000000	-0.306176	0.000000	0.000001	-0.000001	0.000000	0.000000
48.363070	12.877852	22.053492	1.331457	-2.183068	2.330033	0.000000	-0.237878	0.000000	0.000001	-0.000001	0.000000	0.000000
48.804030	11.883803	23.763944	0.931378	-1.681098	2.239598	0.000000	-0.172686	0.000000	0.000001	-0.000001	0.000000	0.000000
49.244990	11.222566	24.996150	0.573850	-1.102640	2.177450	0.000000	-0.109462	0.000000	0.000000	-0.000001	0.000000	0.000000
49.685950	10.863932	25.694046	0.242540	-0.474012	2.142879	0.000000	-0.047484	0.000000	0.000000	-0.000001	0.000000	0.000000
50.128160	10.791643	25.825596	-0.051342	0.112802	2.135505	0.000000	0.008716	0.000000	-0.000000	-0.000001	0.000000	0.000000
50.425482	10.830386	25.761985	-0.078966	0.101143	2.138096	0.000000	0.008716	0.000000	-0.000000	-0.000001	0.000000	0.000000
50.758816	10.893353	25.698914	-0.109935	0.088071	2.141002	0.000000	0.008716	0.000000	-0.000000	-0.000001	0.000000	0.000000
51.092149	10.976966	25.644557	-0.140905	0.075000	2.143907	0.000000	0.008716	0.000000	-0.000001	-0.000001	0.000000	0.000000
51.426732	11.081431	25.599279	-0.082091	-0.145794	2.146802	0.000000	-0.008700	0.000000	-0.000001	-0.000001	0.000000	0.000000
51.724055	11.138277	25.689501	-0.081788	-0.220655	2.144216	0.000000	-0.013958	0.000000	-0.000001	-0.000001	0.000000	0.000000
52.165015	11.355815	25.598317	-0.413412	0.426654	2.151649	0.000000	0.047704	0.000000	-0.000001	-0.000001	0.000000	0.000000
52.605975	11.873011	24.942670	-0.763925	1.054551	2.186367	0.000000	0.109910	0.000000	-0.000001	-0.000001	0.000000	0.000000
53.046935	12.713495	23.752392	-1.149339	1.634466	2.248765	0.000000	0.173368	0.000000	-0.000002	-0.000001	0.000000	0.000000
53.487895	13.915666	22.081639	-1.587263	2.140014	2.339554	0.000000	0.238800	0.000000	-0.000002	-0.000001	0.000000	0.000000
53.933855	15.555053	19.981448	-2.101939	2.549529	2.461272	0.000000	0.307351	0.000000	-0.000002	-0.000001	0.000000	0.000000
54.482915	17.665678	17.618260	-1.719377	1.779940	2.609846	0.000000	0.233046	0.000000	-0.000003	-0.000001	0.000000	0.000000
55.031975	19.286625	16.026011	-1.215368	1.137132	2.716426	0.000000	0.154608	0.000000	-0.000003	-0.000001	0.000000	0.000000
55.581035	20.303396	15.091290	-0.625511	0.575319	2.779121	0.000000	0.073427	0.000000	-0.000003	-0.000000	0.000000	0.000000
56.130095	20.644173	14.747519	0.008529	0.054486	2.796819	0.000000	-0.009056	0.000000	-0.000003	-0.000000	0.000000	0.000000
56.428668	20.675617	14.698070	-0.059904	0.072599	2.796297	0.000000	-0.001748	0.000000	-0.000004	-0.000000	0.000000	0.000000
56.762001	20.720947	14.657270	-0.076084	0.049800	2.795714	0.000000	-0.001748	0.000000	-0.000004	-0.000000	0.000000	0.000000
57.095334	20.777063	14.631669	-0.092264	0.027002	2.795132	0.000000	-0.001748	0.000000	-0.000004	-0.000000	0.000000	0.000000
57.429918	20.844237	14.621257	-0.108505	0.004118	2.794547	0.000000	-0.001748	0.000000	-0.000004	-0.000000	0.000000	0.000000
57.727240	20.913050	14.624854	-0.177580	0.021996	2.794027	0.000000	0.005552	0.000000	-0.000004	-0.000000	0.000000	0.000000
58.276300	20.751235	14.881582	0.470548	-0.492334	2.774436	0.000000	-0.076810	0.000000	-0.000004	-0.000000	0.000000	0.000000
58.825360	19.891817	15.718934	1.085439	-1.041733	2.709931	0.000000	-0.157809	0.000000	-0.000004	-0.000000	0.000000	0.000000
59.374420	18.395501	17.196553	1.623661	-1.665332	2.601657	0.000000	-0.236010	0.000000	-0.000004	0.000000	0.000000	0.000000
59.923480	16.367979	19.419686	2.047195	-2.407549	2.451533	0.000000	-0.310024	0.000000	-0.000004	0.000000	0.000000	0.000000
60.369440	14.780995	21.395674	1.523987	-2.004612	2.328565	0.000000	-0.241742	0.000000	-0.000004	0.000000	0.000000	0.000000
60.810400	13.639446	22.952210	1.074615	-1.511838	2.236414	0.000000	-0.176611	0.000000	-0.000004	-0.000000	0.000000	0.000000
61.251360	12.871142	24.042052	0.674339	-0.950278	2.172513	0.000000	-0.113491	0.000000	-0.000004	-0.000000	0.000000	0.000000
61.692320	12.440981	24.615612	0.304872	-0.345480	2.136134	0.000000	-0.051664	0.000000	-0.000004	-0.000000	0.000000	0.000000
62.134530	12.329361	24.646257	-0.020532	0.214540	2.126869	0.000000	0.004359	0.000000	-0.000005	-0.000000	0.000000	0.000000
62.431853	12.348743	24.522433	-0.044657	0.201921	2.128165	0.000000	0.004359	0.000000	-0.000005	-0.000000	0.000000	0.000000
62.765186	12.387530	24.392535	-0.071704	0.187774	2.129619	0.000000	0.004359	0.000000	-0.000005	-0.000000	0.000000	0.000000
63.098520	12.444349	24.272068	-0.098751	0.173627	2.131072	0.000000	0.004359	0.000000	-0.000005	-0.000000	0.000000	0.000000
63.433103	12.519513	24.160634	-0.125900	0.159427	2.132530	0.000000	0.004359	0.000000	-0.000005	-0.000000	0.000000	0.000000
63.730426	12.601552	24.069584	-0.119121	0.087779	2.133827	0.000000	-0.000874	0.000000	-0.000005	-0.000000	0.000000	0.000000
64.171386	12.867046	23.727081	-0.485245	0.685986	2.146982	0.000000	0.060595	0.000000	-0.000005	-0.000000	0.000000	0.000000
64.612346	13.463951	22.868807	-0.873539	1.252982	2.187368	0.000000	0.122753	0.000000	-0.000006	-0.000001	0.000000	0.000000
65.053306	14.419538	21.533814	-1.301743	1.762967	2.255446	0.000000	0.186310	0.000000	-0.000006	-0.000001	0.000000	0.000000
65.494266	15.777465	19.782843	-1.789420	2.192740	2.351990	0.000000	0.251989	0.000000	-0.000006	-0.000001	0.000000	0.000000
65.940226	17.622939	17.670777	-2.363543	2.523500	2.479674	0.000000	0.320939	0.000000	-0.000007	-0.000001	0.000000	0.000000
66.489286	19.988545	15.307982	-1.919419	1.805249	2.635524	0.000000	0.245920	0.000000	-0.000007	-0.000001	0.000000	0.000000
67.038346	21.788662	13.659098	-1.339717	1.215582	2.748923	0.000000	0.166540	0.000000	-0.000008	-0.000001	0.000000	0.000000
67.587406	22.896138	12.606679	-0.665384	0.712497	2.817862	0.000000	0.084205	0.000000	-0.000008	-0.000000	0.000000	0.000000
68.136466	23.232748	12.075764	0.055948	0.260163	2.841116	0.000000	0.000376	0.000000	-0.000008	-0.000000	0.000000	0.000000
68.435038	23.239427	11.909577	-0.017611	0.264888	2.843445	0.000000	0.007800	0.000000	-0.000008	-0.000000	0.000000	0.000000
68.768372	23.255951	11.742969	-0.031959	0.234935	2.846045	0.000000	0.007800	0.000000	-0.000008	-0.000000	0.000000	0.000000
69.101705	23.282039	11.596330	-0.046307	0.204983	2.848646	0.000000	0.007800	0.000000	-0.000008	-0.000000	0.000000	0.000000
69.436288	23.317845	11.469222	-0.060708	0.174918	2.851255	0.000000	0.007800	0.000000	-0.000008	-0.000000	0.000000	0.000000
69.733611	23.357750	11.373151	-0.134540	0.177919	2.853575	0.000000	0.015257	0.000000	-0.000008	-0.000000	0.000000	0.000000
70.282671	23.104340	11.405490	0.593342	-0.237167	2.838768	0.000000	-0.069112	0.000000	-0.000008	0.000000	0.000000	0.000000
