#ParticleID	Turn	x[m]	xp	y[m]	yp	z[m]	dE[GeV]# s	beta_x	beta_y	alpha_x	alpha_y	D_x	D_y	D_px	D_py	orbit_x	orbit_px	orbit_y	orbit_py
0.300000	11.805674	25.050234	-0.010281	-0.026883	2.618261	0.000000	-0.000046	0.000000	-0.000001	0.000002	0.000000	0.000000
0.601250	11.819557	25.070057	-0.035801	-0.038918	2.618247	0.000000	-0.000046	0.000000	-0.000001	0.000002	0.000000	0.000000
0.898573	11.848335	25.096731	-0.031933	-0.112340	2.618233	0.000000	-0.006467	0.000000	-0.000000	0.000002	0.000000	0.000000
1.339533	12.028531	24.917398	-0.378262	0.517479	2.631674	0.000000	0.067493	0.000000	0.000000	0.000002	0.000000	0.000000
1.780493	12.520598	24.190915	-0.741872	1.123753	2.677868	0.000000	0.142222	0.000000	0.000001	0.000002	0.000000	0.000000
2.221453	13.347018	22.950337	-1.139376	1.678898	2.757339	0.000000	0.218570	0.000000	0.000002	0.000002	0.000000	0.000000
2.662413	14.545548	21.252109	-1.588935	2.157653	2.870993	0.000000	0.297408	0.000000	0.000003	0.000002	0.000000	0.000000
3.108373	16.191667	19.148596	-2.115374	2.539371	3.021986	0.000000	0.380123	0.000000	0.000004	0.000002	0.000000	0.000000
3.657433	18.302575	16.785995	-1.706453	1.789021	3.205424	0.000000	0.287086	0.000000	0.000005	0.000002	0.000000	0.000000
4.206493	19.895190	15.172979	-1.176996	1.166098	3.336303	0.000000	0.188956	0.000000	0.000006	0.000002	0.000000	0.000000
4.755553	20.857016	14.194657	-0.564402	0.626234	3.412303	0.000000	0.087475	0.000000	0.000006	0.000001	0.000000	0.000000
5.304613	21.120115	13.781343	0.088058	0.130975	3.432075	0.000000	-0.015557	0.000000	0.000007	0.000001	0.000000	0.000000
5.603185	21.104707	13.688281	0.018727	0.144711	3.430107	0.000000	-0.006590	0.000000	0.000008	0.000001	0.000000	0.000000
5.936519	21.097489	13.600094	0.002927	0.119850	3.427910	0.000000	-0.006590	0.000000	0.000008	0.000001	0.000000	0.000000
6.269852	21.100805	13.528481	-0.012873	0.094988	3.425713	0.000000	-0.006590	0.000000	0.000008	0.000001	0.000000	0.000000
6.604435	21.114725	13.473268	-0.028732	0.070033	3.423507	0.000000	-0.006590	0.000000	0.000009	0.000001	0.000000	0.000000
6.901758	21.136000	13.438217	-0.098045	0.082966	3.421547	0.000000	0.002349	0.000000	0.000009	0.000001	0.000000	0.000000
7.450818	20.883474	13.608046	0.555248	-0.394102	3.394636	0.000000	-0.100227	0.000000	0.000010	0.000001	0.000000	0.000000
7.999878	19.930944	14.314002	1.169321	-0.899241	3.311811	0.000000	-0.201025	0.000000	0.000010	0.000001	0.000000	0.000000
8.548938	18.345692	15.606368	1.700799	-1.468431	3.174541	0.000000	-0.298258	0.000000	0.000010	0.000000	0.000000	0.000000
9.097998	16.239693	17.577196	2.112141	-2.142215	2.985260	0.000000	-0.390200	0.000000	0.000011	-0.000000	0.000000	0.000000
9.543958	14.596670	19.333278	1.585197	-1.778896	2.829552	0.000000	-0.308499	0.000000	0.000011	0.000000	0.000000	0.000000
9.984918	13.401721	20.712014	1.134962	-1.335875	2.710761	0.000000	-0.230795	0.000000	0.000011	0.000001	0.000000	0.000000
10.425878	12.579565	21.671644	0.736579	-0.832073	2.625623	0.000000	-0.155721	0.000000	0.000011	0.000001	0.000000	0.000000
10.866838	12.092640	22.168506	0.371849	-0.290412	2.573167	0.000000	-0.082419	0.000000	0.000011	0.000001	0.000000	0.000000
11.309048	11.918566	22.179467	0.053228	0.210017	2.552777	0.000000	-0.016317	0.000000	0.000012	0.000001	0.000000	0.000000
11.606371	11.894352	22.058743	0.028211	0.196021	2.547925	0.000000	-0.016317	0.000000	0.000012	0.000001	0.000000	0.000000
12.086371	11.886656	21.881409	-0.012177	0.173425	2.540092	0.000000	-0.016317	0.000000	0.000013	0.000001	0.000000	0.000000
12.566371	11.917731	21.725768	-0.052564	0.150829	2.532260	0.000000	-0.016317	0.000000	0.000014	0.000001	0.000000	0.000000
13.046371	11.987579	21.591818	-0.092952	0.128232	2.524427	0.000000	-0.016317	0.000000	0.000014	0.000001	0.000000	0.000000
13.526371	12.096198	21.479562	-0.133339	0.105636	2.516595	0.000000	-0.016317	0.000000	0.000015	0.000001	0.000000	0.000000
14.007621	12.244024	21.388790	-0.173831	0.082981	2.508742	0.000000	-0.016317	0.000000	0.000016	0.000001	0.000000	0.000000
14.304943	12.354830	21.343607	-0.168555	0.016652	2.503890	0.000000	-0.022456	0.000000	0.000016	0.000001	0.000000	0.000000
14.745903	12.661974	21.095331	-0.530620	0.544239	2.509617	0.000000	0.048457	0.000000	0.000017	0.000002	0.000000	0.000000
15.186863	13.297872	20.390949	-0.916927	1.047064	2.546705	0.000000	0.119922	0.000000	0.000018	0.000002	0.000000	0.000000
15.627823	14.291579	19.262510	-1.345127	1.502249	2.615576	0.000000	0.192752	0.000000	0.000019	0.000003	0.000000	0.000000
16.068783	15.688492	17.761356	-1.834781	1.889082	2.717017	0.000000	0.267778	0.000000	0.000020	0.000003	0.000000	0.000000
16.514743	17.576096	15.934289	-2.413020	2.190706	2.853874	0.000000	0.346316	0.000000	0.000021	0.000004	0.000000	0.000000
17.063803	20.000549	13.894267	-1.976482	1.546707	3.020296	0.000000	0.259001	0.000000	0.000023	0.000003	0.000000	0.000000
17.612863	21.865666	12.497149	-1.400335	1.012876	3.137442	0.000000	0.167093	0.000000	0.000025	0.000002	0.000000	0.000000
18.161923	23.039704	11.643421	-0.725275	0.551191	3.203237	0.000000	0.072220	0.000000	0.000026	0.000001	0.000000	0.000000
18.710983	23.439734	11.272275	0.001015	0.128765	3.216512	0.000000	-0.023933	0.000000	0.000026	0.000001	0.000000	0.000000
19.009556	23.479509	11.185906	-0.072999	0.131061	3.211875	0.000000	-0.015531	0.000000	0.000026	0.000001	0.000000	0.000000
19.342889	23.532932	11.108636	-0.087272	0.100750	3.206698	0.000000	-0.015531	0.000000	0.000026	0.000001	0.000000	0.000000
19.676223	23.595871	11.051574	-0.101544	0.070438	3.201521	0.000000	-0.015531	0.000000	0.000027	0.000001	0.000000	0.000000
20.010806	23.668908	11.014482	-0.233139	0.094586	3.196344	0.000000	0.000306	0.000000	0.000027	0.000001	0.000000	0.000000
20.308129	23.811481	10.966335	-0.308585	0.095997	3.196435	0.000000	0.008656	0.000000	0.000027	0.000001	0.000000	0.000000
20.857189	23.739645	11.082855	0.438645	-0.309467	3.174973	0.000000	-0.086715	0.000000	0.000027	-0.000000	0.000000	0.000000
21.406249	22.859488	11.654043	1.154890	-0.736975	3.101494	0.000000	-0.180547	0.000000	0.000027	-0.000001	0.000000	0.000000
21.955309	21.233180	12.720583	1.789560	-1.216975	2.977300	0.000000	-0.271177	0.000000	0.000026	-0.000002	0.000000	0.000000
22.504369	18.975595	14.358444	2.297824	-1.783658	2.804595	0.000000	-0.356996	0.000000	0.000025	-0.000003	0.000000	0.000000
22.950329	17.196326	15.829036	1.706008	-1.500016	2.662680	0.000000	-0.279802	0.000000	0.000024	-0.000002	0.000000	0.000000
23.391289	15.921127	17.001598	1.196831	-1.148977	2.555618	0.000000	-0.206250	0.000000	0.000023	-0.000001	0.000000	0.000000
23.832249	15.069264	17.840250	0.742335	-0.745661	2.480441	0.000000	-0.135046	0.000000	0.000023	-0.000001	0.000000	0.000000
24.273209	14.601817	18.306832	0.321753	-0.308417	2.436293	0.000000	-0.065381	0.000000	0.000022	-0.000000	0.000000	0.000000
24.715418	14.497551	18.379871	-0.048670	0.097726	2.422668	0.000000	-0.002400	0.000000	0.000022	0.000000	0.000000	0.000000
25.012741	14.532605	18.326614	-0.069227	0.081395	2.421954	0.000000	-0.002400	0.000000	0.000023	0.000000	0.000000	0.000000
25.346075	14.586438	18.278454	-0.092274	0.063086	2.421154	0.000000	-0.002400	0.000000	0.000023	0.000000	0.000000	0.000000
25.679408	14.655637	18.242499	-0.115321	0.044777	2.420354	0.000000	-0.002400	0.000000	0.000023	0.000000	0.000000	0.000000
26.013991	14.740246	18.219054	-0.018872	-0.121402	2.419527	0.000000	-0.022029	0.000000	0.000023	0.000000	0.000000	0.000000
26.311314	14.757468	18.296169	-0.002868	-0.182820	2.412977	0.000000	-0.027945	0.000000	0.000023	0.000000	0.000000	0.000000
26.752274	14.941799	18.259002	-0.416741	0.266785	2.415762	0.000000	0.040587	0.000000	0.000023	0.000001	0.000000	0.000000
27.193234	15.498118	17.829178	-0.849653	0.704252	2.448839	0.000000	0.109580	0.000000	0.000023	0.000001	0.000000	0.000000
27.634194	16.451841	17.026252	-1.321384	1.109676	2.512585	0.000000	0.179822	0.000000	0.000024	0.000002	0.000000	0.000000
28.075154	17.846542	15.886758	-1.853486	1.464611	2.607726	0.000000	0.252111	0.000000	0.000025	0.000002	0.000000	0.000000
28.521114	19.770168	14.445374	-2.475240	1.753818	2.736949	0.000000	0.327716	0.000000	0.000026	0.000003	0.000000	0.000000
29.070174	22.215095	12.839470	-1.951330	1.188270	2.894224	0.000000	0.244338	0.000000	0.000028	0.000002	0.000000	0.000000
29.619234	24.005150	11.804762	-1.289587	0.707360	3.004462	0.000000	0.156626	0.000000	0.000029	0.000001	0.000000	0.000000
30.168294	25.013894	11.267552	-0.536755	0.276833	3.065707	0.000000	0.066136	0.000000	0.000029	0.000000	0.000000	0.000000
30.717354	25.170072	11.189576	0.253992	-0.133976	3.076871	0.000000	-0.025527	0.000000	0.000029	-0.000001	0.000000	0.000000
31.015927	25.061331	11.260179	0.175960	-0.131722	3.071649	0.000000	-0.017490	0.000000	0.000029	-0.000000	0.000000	0.000000
31.349260	24.948595	11.358032	0.162248	-0.161839	3.065820	0.000000	-0.017490	0.000000	0.000029	-0.000000	0.000000	0.000000
31.682593	24.845001	11.475964	0.148535	-0.191955	3.059990	0.000000	-0.017490	0.000000	0.000029	-0.000000	0.000000	0.000000
32.017177	24.750211	11.614528	0.134771	-0.222185	3.054138	0.000000	-0.017490	0.000000	0.000029	-0.000000	0.000000	0.000000
32.314499	24.673706	11.754636	0.058088	-0.218342	3.048938	0.000000	-0.009526	0.000000	0.000029	-0.000000	0.000000	0.000000
32.863559	24.187151	12.233582	0.822826	-0.659108	3.018832	0.000000	-0.099977	0.000000	0.000028	-0.000001	0.000000	0.000000
33.412619	22.887923	13.219326	1.529443	-1.146820	2.939478	0.000000	-0.188655	0.000000	0.000027	-0.000002	0.000000	0.000000
33.961679	20.867792	14.782081	2.128028	-1.716217	2.812283	0.000000	-0.273986	0.000000	0.000026	-0.000003	0.000000	0.000000
34.510739	18.269451	17.033159	2.576299	-2.407857	2.639504	0.000000	-0.354458	0.000000	0.000024	-0.000004	0.000000	0.000000
34.956699	16.249089	19.046694	1.970296	-2.088349	2.497769	0.000000	-0.281544	0.000000	0.000022	-0.000003	0.000000	0.000000
35.397659	14.742477	20.712328	1.459328	-1.674567	2.388999	0.000000	-0.212265	0.000000	0.000021	-0.000003	0.000000	0.000000
35.838619	13.655506	21.977920	1.015033	-1.184593	2.310216	0.000000	-0.145403	0.000000	0.000020	-0.000002	0.000000	0.000000
36.279579	12.938515	22.785885	0.617112	-0.640720	2.260524	0.000000	-0.080198	0.000000	0.000019	-0.000002	0.000000	0.000000
36.721789	12.558052	23.099772	0.278070	-0.124387	2.239329	0.000000	-0.021396	0.000000	0.000018	-0.000001	0.000000	0.000000
37.019112	12.400282	23.177625	0.252563	-0.137458	2.232968	0.000000	-0.021396	0.000000	0.000018	-0.000001	0.000000	0.000000
37.352445	12.241439	23.274148	0.223967	-0.152111	2.225836	0.000000	-0.021396	0.000000	0.000018	-0.000001	0.000000	0.000000
37.685779	12.101659	23.380440	0.195372	-0.166765	2.218705	0.000000	-0.021396	0.000000	0.000017	-0.000001	0.000000	0.000000
38.020362	11.980527	23.496954	0.166669	-0.181473	2.211546	0.000000	-0.021396	0.000000	0.000017	-0.000001	0.000000	0.000000
38.317684	11.889002	23.608753	0.170313	-0.252431	2.205185	0.000000	-0.026803	0.000000	0.000016	-0.000001	0.000000	0.000000
38.758644	11.890345	23.569867	-0.173371	0.340278	2.207291	0.000000	0.036363	0.000000	0.000016	-0.000001	0.000000	0.000000
39.199604	12.197123	23.013116	-0.524975	0.917505	2.237316	0.000000	0.099943	0.000000	0.000016	-0.000000	0.000000	0.000000
39.640564	12.823353	21.963832	-0.900564	1.452986	2.295600	0.000000	0.164661	0.000000	0.000015	-0.000000	0.000000	0.000000
40.081524	13.797645	20.469755	-1.317297	1.922357	2.382808	0.000000	0.231254	0.000000	0.000015	0.000000	0.000000	0.000000
40.527484	15.182089	18.576287	-1.798042	2.305549	2.501406	0.000000	0.300887	0.000000	0.000016	0.000001	0.000000	0.000000
41.076544	16.948697	16.448439	-1.400424	1.592763	2.646085	0.000000	0.225345	0.000000	0.000016	0.000000	0.000000	0.000000
41.625604	18.221436	15.036798	-0.903887	0.993427	2.748127	0.000000	0.145806	0.000000	0.000016	-0.000000	0.000000	0.000000
42.174664	18.910406	14.240814	-0.343503	0.464850	2.805722	0.000000	0.063680	0.000000	0.000016	-0.000001	0.000000	0.000000
42.723724	18.966942	14.003792	0.241143	-0.030616	2.817849	0.000000	-0.019575	0.000000	0.000015	-0.000001	0.000000	0.000000
43.022297	18.857406	14.006594	0.175273	-0.015353	2.814203	0.000000	-0.012213	0.000000	0.000015	-0.000001	0.000000	0.000000
43.502297	18.701738	14.037786	0.149037	-0.049630	2.808341	0.000000	-0.012213	0.000000	0.000014	-0.000001	0.000000	0.000000
43.982297	18.571256	14.101885	0.122801	-0.083908	2.802480	0.000000	-0.012213	0.000000	0.000013	-0.000001	0.000000	0.000000
44.462297	18.465960	14.198889	0.096564	-0.118186	2.796618	0.000000	-0.012213	0.000000	0.000013	-0.000001	0.000000	0.000000
44.942297	18.385852	14.328801	0.070328	-0.152463	2.790756	0.000000	-0.012213	0.000000	0.000012	-0.000001	0.000000	0.000000
45.423547	18.331047	14.491907	-0.046798	-0.115028	2.784897	0.000000	0.001585	0.000000	0.000012	-0.000001	0.000000	0.000000
45.720870	18.363709	14.566488	-0.111030	-0.097761	2.785369	0.000000	0.008862	0.000000	0.000011	-0.000001	0.000000	0.000000
46.269930	18.176433	14.955513	0.450095	-0.614951	2.767667	0.000000	-0.073250	0.000000	0.000011	-0.000002	0.000000	0.000000
46.818990	17.386865	15.933051	0.979427	-1.175942	2.705171	0.000000	-0.154063	0.000000	0.000010	-0.000002	0.000000	0.000000
47.368050	16.050778	17.568729	1.439577	-1.820694	2.598991	0.000000	-0.232143	0.000000	0.000009	-0.000002	0.000000	0.000000
47.917110	14.262544	19.979054	1.798042	-2.595129	2.451009	0.000000	-0.306106	0.000000	0.000007	-0.000002	0.000000	0.000000
48.363070	12.871030	22.121966	1.333279	-2.189837	2.329789	0.000000	-0.237815	0.000000	0.000006	-0.000002	0.000000	0.000000
48.804030	11.875380	23.837665	0.933200	-1.686184	2.239382	0.000000	-0.172629	0.000000	0.000005	-0.000002	0.000000	0.000000
49.244990	11.212505	25.073527	0.575756	-1.105812	2.177257	0.000000	-0.109410	0.000000	0.000004	-0.000002	0.000000	0.000000
49.685950	10.852120	25.773321	0.244617	-0.475126	2.142710	0.000000	-0.047437	0.000000	0.000004	-0.000002	0.000000	0.000000
50.128160	10.777882	25.904922	-0.049033	0.113604	2.135355	0.000000	0.008760	0.000000	0.000003	-0.000002	0.000000	0.000000
50.425482	10.815261	25.840824	-0.076686	0.101978	2.137960	0.000000	0.008760	0.000000	0.000002	-0.000002	0.000000	0.000000
50.758816	10.876719	25.777183	-0.107687	0.088945	2.140881	0.000000	0.008760	0.000000	0.000002	-0.000002	0.000000	0.000000
51.092149	10.958844	25.722231	-0.138689	0.075911	2.143802	0.000000	0.008760	0.000000	0.000001	-0.000002	0.000000	0.000000
51.426732	11.061838	25.676332	-0.080067	-0.145470	2.146711	0.000000	-0.008656	0.000000	0.000000	-0.000002	0.000000	0.000000
51.724055	11.117492	25.766351	-0.079854	-0.220483	2.144138	0.000000	-0.013914	0.000000	-0.000000	-0.000002	0.000000	0.000000
52.165015	11.333101	25.674118	-0.410957	0.428852	2.151592	0.000000	0.047747	0.000000	-0.000001	-0.000002	0.000000	0.000000
52.605975	11.847861	25.015673	-0.760835	1.058674	2.186329	0.000000	0.109952	0.000000	-0.000002	-0.000002	0.000000	0.000000
53.046935	12.685290	23.820975	-1.145473	1.640327	2.248746	0.000000	0.173409	0.000000	-0.000003	-0.000002	0.000000	0.000000
53.487895	13.883646	22.144383	-1.582445	2.147346	2.339553	0.000000	0.238841	0.000000	-0.000003	-0.000002	0.000000	0.000000
53.933855	15.518226	20.037114	-2.095939	2.558002	2.461290	0.000000	0.307392	0.000000	-0.000004	-0.000002	0.000000	0.000000
54.482915	17.622752	17.665841	-1.714335	1.786278	2.609887	0.000000	0.233086	0.000000	-0.000005	-0.000002	0.000000	0.000000
55.031975	19.238854	16.067592	-1.211639	1.141787	2.716489	0.000000	0.154646	0.000000	-0.000006	-0.000002	0.000000	0.000000
55.581035	20.252377	15.128527	-0.623359	0.578623	2.779205	0.000000	0.073463	0.000000	-0.000007	-0.000001	0.000000	0.000000
56.130095	20.591731	14.781759	0.008952	0.056673	2.796922	0.000000	-0.009023	0.000000	-0.000008	-0.000001	0.000000	0.000000
56.428668	20.622853	14.730938	-0.059383	0.074915	2.796411	0.000000	-0.001715	0.000000	-0.000008	-0.000001	0.000000	0.000000
56.762001	20.667848	14.688579	-0.075603	0.052160	2.795839	0.000000	-0.001715	0.000000	-0.000009	-0.000001	0.000000	0.000000
57.095334	20.723657	14.661391	-0.091823	0.029405	2.795268	0.000000	-0.001715	0.000000	-0.000009	-0.000001	0.000000	0.000000
57.429918	20.790549	14.649356	-0.108104	0.006565	2.794695	0.000000	-0.001715	0.000000	-0.000010	-0.000001	0.000000	0.000000
57.727240	20.859135	14.651487	-0.177078	0.024552	2.794185	0.000000	0.005586	0.000000	-0.000010	-0.000001	0.000000	0.000000
58.276300	20.697762	14.905815	0.469244	-0.490492	2.774612	0.000000	-0.076781	0.000000	-0.000011	-0.000001	0.000000	0.000000
58.825360	19.840731	15.741473	1.082422	-1.040472	2.710122	0.000000	-0.157786	0.000000	-0.000011	-0.000001	0.000000	0.000000
59.374420	18.348577	17.217984	1.619142	-1.664563	2.601858	0.000000	-0.235993	0.000000	-0.000011	-0.000000	0.000000	0.000000
59.923480	16.326700	19.440516	2.041495	-2.407217	2.451742	0.000000	-0.310014	0.000000	-0.000011	0.000000	0.000000	0.000000
60.369440	14.744236	21.415879	1.519516	-2.003548	2.328779	0.000000	-0.241727	0.000000	-0.000011	-0.000000	0.000000	0.000000
60.810400	13.606169	22.971174	1.071159	-1.510095	2.236637	0.000000	-0.176590	0.000000	-0.000012	-0.000000	0.000000	0.000000
61.251360	12.840526	24.059207	0.671739	-0.947935	2.172747	0.000000	-0.113464	0.000000	-0.000012	-0.000001	0.000000	0.000000
61.692320	12.412325	24.630474	0.303010	-0.342644	2.136382	0.000000	-0.051631	0.000000	-0.000012	-0.000001	0.000000	0.000000
62.134530	12.302057	24.658440	-0.021805	0.217706	2.127133	0.000000	0.004398	0.000000	-0.000013	-0.000001	0.000000	0.000000
62.431853	12.322212	24.532737	-0.045985	0.205076	2.128441	0.000000	0.004398	0.000000	-0.000013	-0.000001	0.000000	0.000000
62.765186	12.361905	24.400739	-0.073094	0.190918	2.129907	0.000000	0.004398	0.000000	-0.000014	-0.000001	0.000000	0.000000
63.098520	12.419671	24.278180	-0.100202	0.176759	2.131374	0.000000	0.004398	0.000000	-0.000014	-0.000001	0.000000	0.000000
63.433103	12.495827	24.164654	-0.127413	0.162547	2.132846	0.000000	0.004398	0.000000	-0.000015	-0.000001	0.000000	0.000000
63.730426	12.578781	24.071751	-0.120741	0.090878	2.134154	0.000000	-0.000836	0.000000	-0.000015	-0.000001	0.000000	0.000000
64.171386	12.845490	23.726514	-0.486389	0.689062	2.147327	0.000000	0.060641	0.000000	-0.000016	-0.000002	0.000000	0.000000
64.612346	13.443213	22.865590	-0.874259	1.255894	2.187737	0.000000	0.122809	0.000000	-0.000016	-0.000002	0.000000	0.000000
65.053306	14.399261	21.528150	-1.302071	1.765584	2.255842	0.000000	0.186375	0.000000	-0.000017	-0.000003	0.000000	0.000000
65.494266	15.757310	19.775046	-1.789371	2.194942	2.352418	0.000000	0.252064	0.000000	-0.000019	-0.000003	0.000000	0.000000
65.940226	17.602570	17.661242	-2.363114	2.525182	2.480138	0.000000	0.321026	0.000000	-0.000020	-0.000004	0.000000	0.000000
66.489286	19.968164	15.296623	-1.919829	1.806909	2.636033	0.000000	0.245992	0.000000	-0.000022	-0.000003	0.000000	0.000000
67.038346	21.769179	13.645873	-1.340937	1.217339	2.749468	0.000000	0.166594	0.000000	-0.000023	-0.000002	0.000000	0.000000
67.587406	22.878402	12.591414	-0.667328	0.714478	2.818433	0.000000	0.084241	0.000000	-0.000024	-0.000001	0.000000	0.000000
68.136466	23.217482	12.058139	0.053418	0.262507	2.841702	0.000000	0.000394	0.000000	-0.000025	-0.000001	0.000000	0.000000
68.435038	23.225656	11.890599	-0.020118	0.267117	2.844037	0.000000	0.007820	0.000000	-0.000025	-0.000001	0.000000	0.000000
68.768372	23.243855	11.722532	-0.034476	0.237084	2.846644	0.000000	0.007820	0.000000	-0.000025	-0.000001	0.000000	0.000000
69.101705	23.271625	11.574487	-0.048834	0.207050	2.849251	0.000000	0.007820	0.000000	-0.000025	-0.000001	0.000000	0.000000
69.436288	23.309125	11.446023	-0.063246	0.176904	2.851868	0.000000	0.007820	0.000000	-0.000026	-0.000001	0.000000	0.000000
69.733611	23.350541	11.348793	-0.137076	0.179774	2.854193	0.000000	0.015279	0.000000	-0.000026	-0.000001	0.000000	0.000000
70.282671	23.100024	11.378715	0.590641	-0.234592	2.839394	0.000000	-0.069110	0.000000	-0.000026	0.000000	0.000000	0.000000
