#ParticleID	Turn	x[m]	xp	y[m]	yp	z[m]	dE[GeV]# s	beta_x	beta_y	alpha_x	alpha_y	D_x	D_y	D_px	D_py	orbit_x	orbit_px	orbit_y	orbit_py
0.300000	11.826146	24.968743	-0.012580	-0.027671	2.618179	0.000000	-0.000013	0.000000	0.000000	0.000000	0.000000	0.000000
0.601250	11.841401	24.989053	-0.038058	-0.039746	2.618175	0.000000	-0.000013	0.000000	0.000000	0.000000	0.000000	0.000000
0.898573	11.871508	25.016230	-0.034090	-0.113009	2.618171	0.000000	-0.006433	0.000000	0.000000	0.000000	0.000000	0.000000
1.339533	12.053856	24.838426	-0.381003	0.514697	2.631628	0.000000	0.067525	0.000000	0.000000	0.000000	0.000000	0.000000
1.780493	12.548643	24.115286	-0.745322	1.118985	2.677836	0.000000	0.142253	0.000000	0.000001	0.000000	0.000000	0.000000
2.221453	13.378475	22.879713	-1.143693	1.672360	2.757321	0.000000	0.218601	0.000000	0.000001	0.000000	0.000000	0.000000
2.662413	14.581265	21.187925	-1.594316	2.149644	2.870989	0.000000	0.297439	0.000000	0.000001	0.000000	0.000000	0.000000
3.108373	16.232753	19.092083	-2.122076	2.530251	3.021996	0.000000	0.380153	0.000000	0.000001	0.000000	0.000000	0.000000
3.657433	18.350475	16.738224	-1.712089	1.782125	3.205451	0.000000	0.287116	0.000000	0.000001	0.000000	0.000000	0.000000
4.206493	19.948507	15.131789	-1.181169	1.160936	3.336348	0.000000	0.188985	0.000000	0.000001	0.000000	0.000000	0.000000
4.755553	20.913972	14.158356	-0.566817	0.622437	3.412364	0.000000	0.087502	0.000000	0.000001	0.000000	0.000000	0.000000
5.304613	21.178673	13.748590	0.087572	0.128274	3.432150	0.000000	-0.015533	0.000000	0.000002	0.000000	0.000000	0.000000
5.603185	21.163636	13.657200	0.018125	0.141894	3.430190	0.000000	-0.006565	0.000000	0.000002	0.000000	0.000000	0.000000
5.936519	21.156805	13.570904	0.002369	0.116995	3.428002	0.000000	-0.006565	0.000000	0.000002	0.000000	0.000000	0.000000
6.269852	21.160478	13.501206	-0.013386	0.092097	3.425813	0.000000	-0.006565	0.000000	0.000002	0.000000	0.000000	0.000000
6.604435	21.174727	13.447940	-0.029201	0.067105	3.423617	0.000000	-0.006565	0.000000	0.000002	0.000000	0.000000	0.000000
6.901758	21.196269	13.414640	-0.098635	0.079945	3.421665	0.000000	0.002375	0.000000	0.000002	0.000000	0.000000	0.000000
7.450818	20.943280	13.587435	0.556676	-0.396514	3.394768	0.000000	-0.100205	0.000000	0.000002	0.000000	0.000000	0.000000
7.999878	19.988113	14.295786	1.172666	-0.901216	3.311954	0.000000	-0.201007	0.000000	0.000002	0.000000	0.000000	0.000000
8.548938	18.398237	15.590146	1.705825	-1.470110	3.174692	0.000000	-0.298245	0.000000	0.000002	0.000000	0.000000	0.000000
9.097998	16.285953	17.562710	2.118493	-2.143716	2.985417	0.000000	-0.390192	0.000000	0.000002	-0.000000	0.000000	0.000000
9.543958	14.637895	19.320412	1.590175	-1.781016	2.829714	0.000000	-0.308487	0.000000	0.000002	-0.000000	0.000000	0.000000
9.984918	13.439072	20.701254	1.138803	-1.338512	2.710929	0.000000	-0.230779	0.000000	0.000002	0.000000	0.000000	0.000000
10.425878	12.613964	21.663394	0.739459	-0.835105	2.625800	0.000000	-0.155700	0.000000	0.000002	0.000000	0.000000	0.000000
10.866838	12.124873	22.163054	0.373900	-0.293703	2.573354	0.000000	-0.082394	0.000000	0.000002	0.000000	0.000000	0.000000
11.309048	11.949316	22.176985	0.054620	0.206620	2.552976	0.000000	-0.016287	0.000000	0.000002	0.000000	0.000000	0.000000
11.606371	11.924257	22.058276	0.029664	0.192641	2.548134	0.000000	-0.016287	0.000000	0.000002	0.000000	0.000000	0.000000
12.086371	11.915118	21.884174	-0.010625	0.170072	2.540316	0.000000	-0.016287	0.000000	0.000002	0.000000	0.000000	0.000000
12.566371	11.944658	21.731737	-0.050915	0.147504	2.532498	0.000000	-0.016287	0.000000	0.000002	0.000000	0.000000	0.000000
13.046371	12.012875	21.600966	-0.091204	0.124936	2.524680	0.000000	-0.016287	0.000000	0.000003	0.000000	0.000000	0.000000
13.526371	12.119770	21.491860	-0.131494	0.102368	2.516862	0.000000	-0.016287	0.000000	0.000003	0.000000	0.000000	0.000000
14.007621	12.265773	21.404219	-0.171888	0.079741	2.509024	0.000000	-0.016287	0.000000	0.000003	0.000000	0.000000	0.000000
14.304943	12.375405	21.360958	-0.166497	0.013380	2.504181	0.000000	-0.022428	0.000000	0.000003	0.000000	0.000000	0.000000
14.745903	12.680917	21.115340	-0.528964	0.541507	2.509922	0.000000	0.048492	0.000000	0.000003	0.000000	0.000000	0.000000
15.186863	13.315503	20.413084	-0.915597	1.044995	2.547028	0.000000	0.119965	0.000000	0.000003	0.000000	0.000000	0.000000
15.627823	14.308156	19.286142	-1.344061	1.500936	2.615922	0.000000	0.192805	0.000000	0.000003	0.000000	0.000000	0.000000
16.068783	15.704228	17.785789	-1.833932	1.888587	2.717388	0.000000	0.267840	0.000000	0.000003	0.000001	0.000000	0.000000
16.514743	17.591155	15.958786	-2.412347	2.191056	2.854277	0.000000	0.346388	0.000000	0.000004	0.000001	0.000000	0.000000
17.063803	20.014456	13.918671	-1.975071	1.546528	3.020735	0.000000	0.259059	0.000000	0.000004	0.000000	0.000000	0.000000
17.612863	21.877662	12.522045	-1.398286	1.012155	3.137910	0.000000	0.167136	0.000000	0.000004	0.000000	0.000000	0.000000
18.161923	23.049164	11.669429	-0.722733	0.549875	3.203725	0.000000	0.072248	0.000000	0.000004	0.000000	0.000000	0.000000
18.710983	23.446214	11.300095	0.003870	0.126762	3.217012	0.000000	-0.023921	0.000000	0.000004	0.000000	0.000000	0.000000
19.009556	23.484297	11.214851	-0.070165	0.129219	3.212379	0.000000	-0.015516	0.000000	0.000004	0.000000	0.000000	0.000000
19.342889	23.535828	11.138778	-0.084428	0.099000	3.207207	0.000000	-0.015516	0.000000	0.000004	0.000000	0.000000	0.000000
19.676223	23.596869	11.082851	-0.098692	0.068781	3.202035	0.000000	-0.015516	0.000000	0.000004	0.000000	0.000000	0.000000
20.010806	23.667994	11.046836	-0.230274	0.093182	3.196863	0.000000	0.000323	0.000000	0.000005	0.000000	0.000000	0.000000
20.308129	23.808858	10.999498	-0.305708	0.094772	3.196959	0.000000	0.008676	0.000000	0.000005	0.000000	0.000000	0.000000
20.857189	23.733926	11.117879	0.441373	-0.311652	3.175504	0.000000	-0.086712	0.000000	0.000005	-0.000000	0.000000	0.000000
21.406249	22.850945	11.692061	1.157277	-0.740274	3.102022	0.000000	-0.180561	0.000000	0.000005	-0.000000	0.000000	0.000000
21.955309	21.222282	12.762940	1.791437	-1.221625	2.977815	0.000000	-0.271207	0.000000	0.000004	-0.000000	0.000000	0.000000
22.504369	18.962980	14.406794	2.299059	-1.789989	2.805088	0.000000	-0.357044	0.000000	0.000004	-0.000000	0.000000	0.000000
22.950329	17.182558	15.882548	1.707369	-1.505214	2.663153	0.000000	-0.279837	0.000000	0.000004	-0.000000	0.000000	0.000000
23.391289	15.906081	17.059107	1.198381	-1.152809	2.556078	0.000000	-0.206273	0.000000	0.000004	-0.000000	0.000000	0.000000
23.832249	15.052743	17.900468	0.744143	-0.747953	2.480893	0.000000	-0.135057	0.000000	0.000004	-0.000000	0.000000	0.000000
24.273209	14.583557	18.368351	0.323903	-0.309065	2.436743	0.000000	-0.065380	0.000000	0.000004	-0.000000	0.000000	0.000000
24.715418	14.477203	18.441221	-0.046124	0.098594	2.423121	0.000000	-0.002390	0.000000	0.000004	0.000000	0.000000	0.000000
25.012741	14.510749	18.387432	-0.066705	0.082315	2.422410	0.000000	-0.002390	0.000000	0.000004	0.000000	0.000000	0.000000
25.346075	14.562911	18.338639	-0.089779	0.064064	2.421614	0.000000	-0.002390	0.000000	0.000004	0.000000	0.000000	0.000000
25.679408	14.630454	18.302014	-0.112852	0.045812	2.420817	0.000000	-0.002390	0.000000	0.000004	0.000000	0.000000	0.000000
26.013991	14.713422	18.277858	-0.016648	-0.120786	2.419993	0.000000	-0.022022	0.000000	0.000004	-0.000000	0.000000	0.000000
26.311314	14.729331	18.354590	-0.000741	-0.182299	2.413446	0.000000	-0.027941	0.000000	0.000004	-0.000000	0.000000	0.000000
26.752274	14.911476	18.316266	-0.413891	0.268878	2.416235	0.000000	0.040603	0.000000	0.000004	0.000000	0.000000	0.000000
27.193234	15.464917	17.883935	-0.845951	0.707823	2.449322	0.000000	0.109609	0.000000	0.000004	0.000000	0.000000	0.000000
27.634194	16.414937	17.077267	-1.316659	1.114561	2.513084	0.000000	0.179863	0.000000	0.000004	0.000000	0.000000	0.000000
28.075154	17.804941	15.932964	-1.847522	1.470588	2.608247	0.000000	0.252165	0.000000	0.000004	0.000000	0.000000	0.000000
28.521114	19.722589	14.485858	-2.467752	1.760618	2.737497	0.000000	0.327784	0.000000	0.000004	0.000000	0.000000	0.000000
29.070174	22.159927	12.873381	-1.945082	1.193513	2.894807	0.000000	0.244387	0.000000	0.000004	0.000000	0.000000	0.000000
29.619234	23.944008	11.833596	-1.285020	0.711419	3.005067	0.000000	0.156656	0.000000	0.000005	0.000000	0.000000	0.000000
30.168294	24.948813	11.292442	-0.534192	0.279998	3.066324	0.000000	0.066146	0.000000	0.000005	0.000000	0.000000	0.000000
30.717354	25.103367	11.211374	0.254370	-0.131479	3.077489	0.000000	-0.025537	0.000000	0.000005	-0.000000	0.000000	0.000000
31.015927	24.994314	11.280429	0.176464	-0.129096	3.072265	0.000000	-0.017496	0.000000	0.000005	-0.000000	0.000000	0.000000
31.349260	24.881255	11.376507	0.162713	-0.159138	3.066433	0.000000	-0.017496	0.000000	0.000005	-0.000000	0.000000	0.000000
31.682593	24.777364	11.492613	0.148961	-0.189180	3.060601	0.000000	-0.017496	0.000000	0.000005	-0.000000	0.000000	0.000000
32.017177	24.682303	11.629296	0.135158	-0.219335	3.054747	0.000000	-0.017496	0.000000	0.000004	-0.000000	0.000000	0.000000
32.314499	24.605579	11.767690	0.058604	-0.215386	3.049545	0.000000	-0.009528	0.000000	0.000004	-0.000000	0.000000	0.000000
32.863559	24.119702	12.243520	0.821083	-0.656356	3.019432	0.000000	-0.099999	0.000000	0.000004	-0.000000	0.000000	0.000000
33.412619	22.823579	13.226266	1.525564	-1.144077	2.940060	0.000000	-0.188696	0.000000	0.000004	-0.000000	0.000000	0.000000
33.961679	20.808763	14.785925	2.122287	-1.713289	2.812837	0.000000	-0.274046	0.000000	0.000004	-0.000000	0.000000	0.000000
34.510739	18.217570	17.033589	2.569102	-2.404533	2.640018	0.000000	-0.354535	0.000000	0.000004	-0.000001	0.000000	0.000000
34.956699	16.202908	19.043990	1.964668	-2.084672	2.498251	0.000000	-0.281608	0.000000	0.000003	-0.000001	0.000000	0.000000
35.397659	14.700671	20.706287	1.454999	-1.670708	2.389454	0.000000	-0.212317	0.000000	0.000003	-0.000000	0.000000	0.000000
35.838619	13.617020	21.968459	1.011805	-1.180727	2.310650	0.000000	-0.145444	0.000000	0.000003	-0.000000	0.000000	0.000000
36.279579	12.902446	22.773077	0.614838	-0.637025	2.260941	0.000000	-0.080227	0.000000	0.000003	-0.000000	0.000000	0.000000
36.721789	12.523611	23.083834	0.276566	-0.120999	2.239735	0.000000	-0.021417	0.000000	0.000003	-0.000000	0.000000	0.000000
37.019112	12.366751	23.159671	0.251009	-0.134068	2.233368	0.000000	-0.021417	0.000000	0.000003	-0.000000	0.000000	0.000000
37.352445	12.208962	23.253934	0.222357	-0.148719	2.226229	0.000000	-0.021417	0.000000	0.000003	-0.000000	0.000000	0.000000
37.685779	12.070275	23.357964	0.193705	-0.163371	2.219090	0.000000	-0.021417	0.000000	0.000003	-0.000000	0.000000	0.000000
38.020362	11.950277	23.472207	0.164945	-0.178077	2.211924	0.000000	-0.021417	0.000000	0.000002	-0.000000	0.000000	0.000000
38.317684	11.859792	23.581985	0.168471	-0.248975	2.205557	0.000000	-0.026825	0.000000	0.000002	-0.000000	0.000000	0.000000
38.758644	11.862470	23.540376	-0.174566	0.342977	2.207655	0.000000	0.036350	0.000000	0.000002	-0.000000	0.000000	0.000000
39.199604	12.170039	22.981625	-0.525579	0.919324	2.237675	0.000000	0.099939	0.000000	0.000002	-0.000000	0.000000	0.000000
39.640564	12.796552	21.931156	-0.900604	1.453843	2.295960	0.000000	0.164666	0.000000	0.000002	-0.000000	0.000000	0.000000
40.081524	13.770632	20.436764	-1.316775	1.922212	2.383173	0.000000	0.231269	0.000000	0.000002	0.000000	0.000000	0.000000
40.527484	15.154349	18.543875	-1.796930	2.304403	2.501779	0.000000	0.300911	0.000000	0.000002	0.000000	0.000000	0.000000
41.076544	16.920314	16.416818	-1.400372	1.592462	2.646468	0.000000	0.225357	0.000000	0.000002	-0.000000	0.000000	0.000000
41.625604	18.193584	15.005056	-0.904899	0.993949	2.748514	0.000000	0.145805	0.000000	0.000002	-0.000000	0.000000	0.000000
42.174664	18.884221	14.208033	-0.345508	0.466233	2.806105	0.000000	0.063668	0.000000	0.000002	-0.000000	0.000000	0.000000
42.723724	18.943442	13.968979	0.238288	-0.028275	2.818221	0.000000	-0.019599	0.000000	0.000002	-0.000000	0.000000	0.000000
43.022297	18.835579	13.970450	0.172470	-0.013152	2.814568	0.000000	-0.012236	0.000000	0.000002	-0.000000	0.000000	0.000000
43.502297	18.682604	13.999571	0.146228	-0.047516	2.808694	0.000000	-0.012236	0.000000	0.000002	-0.000000	0.000000	0.000000
43.982297	18.554821	14.061682	0.119986	-0.081881	2.802821	0.000000	-0.012236	0.000000	0.000002	-0.000000	0.000000	0.000000
44.462297	18.452231	14.156782	0.093745	-0.116245	2.796948	0.000000	-0.012236	0.000000	0.000002	-0.000000	0.000000	0.000000
44.942297	18.374832	14.284872	0.067503	-0.150609	2.791075	0.000000	-0.012236	0.000000	0.000002	-0.000000	0.000000	0.000000
45.423547	18.322749	14.446235	-0.049588	-0.113487	2.785204	0.000000	0.001563	0.000000	0.000002	-0.000000	0.000000	0.000000
45.720870	18.357073	14.519918	-0.113818	-0.096396	2.785668	0.000000	0.008842	0.000000	0.000001	-0.000000	0.000000	0.000000
46.269930	18.172957	14.906659	0.447163	-0.612132	2.767952	0.000000	-0.073280	0.000000	0.000001	-0.000000	0.000000	0.000000
46.818990	17.386593	15.880215	0.976559	-1.171468	2.705437	0.000000	-0.154102	0.000000	0.000001	-0.000000	0.000000	0.000000
47.368050	16.053526	17.509931	1.436976	-1.814245	2.599233	0.000000	-0.232190	0.000000	0.000001	-0.000000	0.000000	0.000000
47.917110	14.267917	19.911887	1.795892	-2.586247	2.451222	0.000000	-0.306160	0.000000	0.000001	-0.000000	0.000000	0.000000
48.363070	12.878268	22.047515	1.331232	-2.182452	2.329978	0.000000	-0.237864	0.000000	0.000001	-0.000000	0.000000	0.000000
48.804030	11.884414	23.757485	0.931160	-1.680627	2.239549	0.000000	-0.172674	0.000000	0.000001	-0.000000	0.000000	0.000000
49.244990	11.223370	24.989348	0.573630	-1.102335	2.177406	0.000000	-0.109450	0.000000	0.000000	-0.000000	0.000000	0.000000
49.685950	10.864934	25.687054	0.242308	-0.473888	2.142840	0.000000	-0.047473	0.000000	0.000000	-0.000000	0.000000	0.000000
50.128160	10.792859	25.818577	-0.051594	0.112757	2.135470	0.000000	0.008726	0.000000	0.000000	-0.000000	0.000000	0.000000
50.425482	10.831751	25.754994	-0.079215	0.101094	2.138064	0.000000	0.008726	0.000000	0.000000	-0.000000	0.000000	0.000000
50.758816	10.894883	25.691956	-0.110182	0.088020	2.140973	0.000000	0.008726	0.000000	-0.000000	-0.000000	0.000000	0.000000
51.092149	10.978660	25.637635	-0.141149	0.074945	2.143882	0.000000	0.008726	0.000000	-0.000000	-0.000000	0.000000	0.000000
51.426732	11.083287	25.592394	-0.082317	-0.145797	2.146780	0.000000	-0.008690	0.000000	-0.000000	-0.000000	0.000000	0.000000
51.724055	11.140266	25.682619	-0.082005	-0.220643	2.144196	0.000000	-0.013948	0.000000	-0.000000	-0.000000	0.000000	0.000000
52.165015	11.358018	25.591505	-0.413681	0.426484	2.151634	0.000000	0.047714	0.000000	-0.000000	-0.000000	0.000000	0.000000
52.605975	11.875479	24.936086	-0.764257	1.054206	2.186356	0.000000	0.109919	0.000000	-0.000001	-0.000000	0.000000	0.000000
53.046935	12.716289	23.746182	-1.149749	1.633963	2.248758	0.000000	0.173377	0.000000	-0.000001	-0.000000	0.000000	0.000000
53.487895	13.918863	22.075935	-1.587770	2.139376	2.339550	0.000000	0.238809	0.000000	-0.000001	-0.000000	0.000000	0.000000
53.933855	15.558755	19.976363	-2.102568	2.548784	2.461272	0.000000	0.307360	0.000000	-0.000001	-0.000000	0.000000	0.000000
54.482915	17.670024	17.613884	-1.719913	1.779387	2.609851	0.000000	0.233055	0.000000	-0.000001	-0.000000	0.000000	0.000000
55.031975	19.291490	16.022156	-1.215772	1.136731	2.716435	0.000000	0.154616	0.000000	-0.000001	-0.000000	0.000000	0.000000
55.581035	20.308620	15.087804	-0.625755	0.575043	2.779134	0.000000	0.073435	0.000000	-0.000002	-0.000000	0.000000	0.000000
56.130095	20.649569	14.744278	0.008462	0.054313	2.796837	0.000000	-0.009049	0.000000	-0.000002	-0.000000	0.000000	0.000000
56.428668	20.681061	14.694938	-0.059982	0.072413	2.796317	0.000000	-0.001741	0.000000	-0.000002	-0.000000	0.000000	0.000000
56.762001	20.726441	14.654264	-0.076157	0.049611	2.795737	0.000000	-0.001741	0.000000	-0.000002	-0.000000	0.000000	0.000000
57.095334	20.782604	14.628790	-0.092333	0.026808	2.795157	0.000000	-0.001741	0.000000	-0.000002	-0.000000	0.000000	0.000000
57.429918	20.849823	14.618509	-0.108570	0.003920	2.794574	0.000000	-0.001741	0.000000	-0.000002	-0.000000	0.000000	0.000000
57.727240	20.918673	14.622225	-0.177656	0.021787	2.794057	0.000000	0.005560	0.000000	-0.000002	-0.000000	0.000000	0.000000
58.276300	20.756837	14.879143	0.470662	-0.492472	2.774469	0.000000	-0.076803	0.000000	-0.000002	-0.000000	0.000000	0.000000
58.825360	19.897194	15.716611	1.085734	-1.041808	2.709968	0.000000	-0.157804	0.000000	-0.000002	-0.000000	0.000000	0.000000
59.374420	18.400464	17.194282	1.624116	-1.665351	2.601696	0.000000	-0.236006	0.000000	-0.000002	0.000000	0.000000	0.000000
59.923480	16.372368	19.417405	2.047778	-2.407512	2.451574	0.000000	-0.310021	0.000000	-0.000002	0.000000	0.000000	0.000000
60.369440	14.784923	21.393393	1.524441	-2.004649	2.328607	0.000000	-0.241738	0.000000	-0.000002	0.000000	0.000000	0.000000
60.810400	13.643022	22.949995	1.074962	-1.511948	2.236458	0.000000	-0.176606	0.000000	-0.000002	-0.000000	0.000000	0.000000
61.251360	12.874453	24.039964	0.674596	-0.950454	2.172560	0.000000	-0.113485	0.000000	-0.000002	-0.000000	0.000000	0.000000
61.692320	12.444101	24.613705	0.305049	-0.345715	2.136184	0.000000	-0.051656	0.000000	-0.000002	-0.000000	0.000000	0.000000
62.134530	12.332357	24.644580	-0.020419	0.214262	2.126922	0.000000	0.004368	0.000000	-0.000002	-0.000000	0.000000	0.000000
62.431853	12.351670	24.520921	-0.044538	0.201644	2.128221	0.000000	0.004368	0.000000	-0.000002	-0.000000	0.000000	0.000000
62.765186	12.390376	24.391208	-0.071579	0.187498	2.129677	0.000000	0.004368	0.000000	-0.000002	-0.000000	0.000000	0.000000
63.098520	12.447108	24.270925	-0.098619	0.173351	2.131133	0.000000	0.004368	0.000000	-0.000003	-0.000000	0.000000	0.000000
63.433103	12.522182	24.159675	-0.125761	0.159151	2.132595	0.000000	0.004368	0.000000	-0.000003	-0.000000	0.000000	0.000000
63.730426	12.604136	24.068788	-0.118970	0.087508	2.133894	0.000000	-0.000865	0.000000	-0.000003	-0.000000	0.000000	0.000000
64.171386	12.869522	23.726531	-0.485150	0.685701	2.147053	0.000000	0.060605	0.000000	-0.000003	-0.000000	0.000000	0.000000
64.612346	13.466366	22.868511	-0.873495	1.252696	2.187444	0.000000	0.122766	0.000000	-0.000003	-0.000000	0.000000	0.000000
65.053306	14.421936	21.533766	-1.301748	1.762693	2.255527	0.000000	0.186324	0.000000	-0.000003	-0.000000	0.000000	0.000000
65.494266	15.779889	19.783026	-1.789473	2.192490	2.352079	0.000000	0.252005	0.000000	-0.000003	-0.000000	0.000000	0.000000
65.940226	17.625433	17.671168	-2.363648	2.523286	2.479770	0.000000	0.320958	0.000000	-0.000003	-0.000001	0.000000	0.000000
66.489286	19.991102	15.308595	-1.919428	1.805054	2.635629	0.000000	0.245936	0.000000	-0.000004	-0.000000	0.000000	0.000000
67.038346	21.791175	13.659921	-1.339628	1.215391	2.749036	0.000000	0.166552	0.000000	-0.000004	-0.000000	0.000000	0.000000
67.587406	22.898503	12.607715	-0.665204	0.712299	2.817980	0.000000	0.084213	0.000000	-0.000004	-0.000000	0.000000	0.000000
68.136466	23.234870	12.077029	0.056206	0.259941	2.841238	0.000000	0.000381	0.000000	-0.000004	-0.000000	0.000000	0.000000
68.435038	23.241396	11.910972	-0.017355	0.264674	2.843569	0.000000	0.007805	0.000000	-0.000004	-0.000000	0.000000	0.000000
68.768372	23.257748	11.744504	-0.031701	0.234728	2.846170	0.000000	0.007805	0.000000	-0.000004	-0.000000	0.000000	0.000000
69.101705	23.283664	11.598000	-0.046048	0.204783	2.848772	0.000000	0.007805	0.000000	-0.000004	-0.000000	0.000000	0.000000
69.436288	23.319296	11.471024	-0.060448	0.174724	2.851383	0.000000	0.007805	0.000000	-0.000004	-0.000000	0.000000	0.000000
69.733611	23.359046	11.375066	-0.134280	0.177736	2.853704	0.000000	0.015261	0.000000	-0.000004	-0.000000	0.000000	0.000000
70.282671	23.105329	11.407637	0.593637	-0.237407	2.838898	0.000000	-0.069112	0.000000	-0.000004	0.000000	0.000000	0.000000
