#ParticleID	Turn	x[m]	xp	y[m]	yp	z[m]	dE[GeV]# s	beta_x	beta_y	alpha_x	alpha_y	D_x	D_y	D_px	D_py	orbit_x	orbit_px	orbit_y	orbit_py
0.300000	11.826067	24.969044	-0.012570	-0.027670	2.618178	0.000000	-0.000012	0.000000	0.000000	0.000000	0.000000	0.000000
0.601250	11.841316	24.989353	-0.038047	-0.039744	2.618174	0.000000	-0.000012	0.000000	0.000000	0.000000	0.000000	0.000000
0.898573	11.871416	25.016529	-0.034080	-0.113008	2.618171	0.000000	-0.006433	0.000000	0.000000	0.000000	0.000000	0.000000
1.339533	12.053754	24.838720	-0.380990	0.514706	2.631627	0.000000	0.067526	0.000000	0.000000	0.000000	0.000000	0.000000
1.780493	12.548529	24.115569	-0.745307	1.119001	2.677835	0.000000	0.142254	0.000000	0.000001	0.000000	0.000000	0.000000
2.221453	13.378347	22.879978	-1.143674	1.672383	2.757321	0.000000	0.218601	0.000000	0.000001	0.000000	0.000000	0.000000
2.662413	14.581118	21.188167	-1.594293	2.149672	2.870989	0.000000	0.297439	0.000000	0.000001	0.000000	0.000000	0.000000
3.108373	16.232582	19.092297	-2.122047	2.530284	3.021996	0.000000	0.380154	0.000000	0.000001	0.000000	0.000000	0.000000
3.657433	18.350275	16.738406	-1.712064	1.782150	3.205452	0.000000	0.287116	0.000000	0.000001	0.000000	0.000000	0.000000
4.206493	19.948284	15.131948	-1.181150	1.160954	3.336348	0.000000	0.188985	0.000000	0.000001	0.000000	0.000000	0.000000
4.755553	20.913731	14.158498	-0.566806	0.622451	3.412364	0.000000	0.087503	0.000000	0.000001	0.000000	0.000000	0.000000
5.304613	21.178425	13.748719	0.087575	0.128283	3.432151	0.000000	-0.015532	0.000000	0.000002	0.000000	0.000000	0.000000
5.603185	21.163386	13.657323	0.018128	0.141903	3.430191	0.000000	-0.006565	0.000000	0.000002	0.000000	0.000000	0.000000
5.936519	21.156552	13.571021	0.002372	0.117005	3.428003	0.000000	-0.006565	0.000000	0.000002	0.000000	0.000000	0.000000
6.269852	21.160222	13.501317	-0.013383	0.092106	3.425815	0.000000	-0.006565	0.000000	0.000002	0.000000	0.000000	0.000000
6.604435	21.174469	13.448044	-0.029198	0.067115	3.423618	0.000000	-0.006565	0.000000	0.000002	0.000000	0.000000	0.000000
6.901758	21.196010	13.414738	-0.098632	0.079956	3.421666	0.000000	0.002375	0.000000	0.000002	0.000000	0.000000	0.000000
7.450818	20.943022	13.587523	0.556671	-0.396506	3.394769	0.000000	-0.100205	0.000000	0.000002	0.000000	0.000000	0.000000
7.999878	19.987865	14.295866	1.172653	-0.901210	3.311956	0.000000	-0.201007	0.000000	0.000002	0.000000	0.000000	0.000000
8.548938	18.398008	15.590221	1.705804	-1.470106	3.174694	0.000000	-0.298244	0.000000	0.000002	0.000000	0.000000	0.000000
9.097998	16.285750	17.562781	2.118467	-2.143714	2.985419	0.000000	-0.390191	0.000000	0.000002	-0.000000	0.000000	0.000000
9.543958	14.637713	19.320480	1.590154	-1.781011	2.829716	0.000000	-0.308486	0.000000	0.000002	-0.000000	0.000000	0.000000
9.984918	13.438907	20.701316	1.138787	-1.338504	2.710932	0.000000	-0.230779	0.000000	0.000002	0.000000	0.000000	0.000000
10.425878	12.613811	21.663447	0.739448	-0.835096	2.625802	0.000000	-0.155700	0.000000	0.000002	0.000000	0.000000	0.000000
10.866838	12.124728	22.163099	0.373892	-0.293691	2.573357	0.000000	-0.082394	0.000000	0.000002	0.000000	0.000000	0.000000
11.309048	11.949178	22.177019	0.054615	0.206632	2.552979	0.000000	-0.016287	0.000000	0.000002	0.000000	0.000000	0.000000
11.606371	11.924121	22.058303	0.029659	0.192653	2.548137	0.000000	-0.016287	0.000000	0.000002	0.000000	0.000000	0.000000
12.086371	11.914988	21.884189	-0.010631	0.170085	2.540319	0.000000	-0.016287	0.000000	0.000002	0.000000	0.000000	0.000000
12.566371	11.944533	21.731740	-0.050921	0.147517	2.532501	0.000000	-0.016287	0.000000	0.000002	0.000000	0.000000	0.000000
13.046371	12.012757	21.600957	-0.091211	0.124948	2.524683	0.000000	-0.016287	0.000000	0.000003	0.000000	0.000000	0.000000
13.526371	12.119659	21.491839	-0.131501	0.102380	2.516866	0.000000	-0.016287	0.000000	0.000003	0.000000	0.000000	0.000000
14.007621	12.265668	21.404187	-0.171896	0.079753	2.509028	0.000000	-0.016287	0.000000	0.000003	0.000000	0.000000	0.000000
14.304943	12.375306	21.360918	-0.166505	0.013392	2.504185	0.000000	-0.022428	0.000000	0.000003	0.000000	0.000000	0.000000
14.745903	12.680823	21.115291	-0.528970	0.541517	2.509926	0.000000	0.048493	0.000000	0.000003	0.000000	0.000000	0.000000
15.186863	13.315414	20.413026	-0.915601	1.045004	2.547033	0.000000	0.119966	0.000000	0.000003	0.000000	0.000000	0.000000
15.627823	14.308070	19.286077	-1.344064	1.500943	2.615927	0.000000	0.192805	0.000000	0.000003	0.000000	0.000000	0.000000
16.068783	15.704144	17.785719	-1.833933	1.888591	2.717393	0.000000	0.267840	0.000000	0.000003	0.000001	0.000000	0.000000
16.514743	17.591072	15.958714	-2.412347	2.191058	2.854282	0.000000	0.346389	0.000000	0.000004	0.000001	0.000000	0.000000
17.063803	20.014376	13.918596	-1.975075	1.546530	3.020741	0.000000	0.259060	0.000000	0.000004	0.000000	0.000000	0.000000
17.612863	21.877587	12.521966	-1.398294	1.012159	3.137917	0.000000	0.167137	0.000000	0.000004	0.000000	0.000000	0.000000
18.161923	23.049099	11.669345	-0.722743	0.549881	3.203732	0.000000	0.072248	0.000000	0.000004	0.000000	0.000000	0.000000
18.710983	23.446161	11.300003	0.003858	0.126770	3.217019	0.000000	-0.023921	0.000000	0.000004	0.000000	0.000000	0.000000
19.009556	23.484252	11.214754	-0.070177	0.129226	3.212386	0.000000	-0.015516	0.000000	0.000004	0.000000	0.000000	0.000000
19.342889	23.535791	11.138676	-0.084441	0.099007	3.207214	0.000000	-0.015516	0.000000	0.000005	0.000000	0.000000	0.000000
19.676223	23.596839	11.082745	-0.098704	0.068788	3.202042	0.000000	-0.015516	0.000000	0.000005	0.000000	0.000000	0.000000
20.010806	23.667973	11.046726	-0.230286	0.093188	3.196871	0.000000	0.000323	0.000000	0.000005	0.000000	0.000000	0.000000
20.308129	23.808844	10.999384	-0.305720	0.094778	3.196967	0.000000	0.008676	0.000000	0.000005	0.000000	0.000000	0.000000
20.857189	23.733926	11.117757	0.441360	-0.311643	3.175512	0.000000	-0.086712	0.000000	0.000005	-0.000000	0.000000	0.000000
21.406249	22.850958	11.691927	1.157265	-0.740262	3.102029	0.000000	-0.180561	0.000000	0.000005	-0.000000	0.000000	0.000000
21.955309	21.222308	12.762790	1.791427	-1.221607	2.977823	0.000000	-0.271208	0.000000	0.000004	-0.000000	0.000000	0.000000
22.504369	18.963015	14.406620	2.299051	-1.789965	2.805094	0.000000	-0.357044	0.000000	0.000004	-0.000000	0.000000	0.000000
22.950329	17.182601	15.882355	1.707361	-1.505194	2.663160	0.000000	-0.279838	0.000000	0.000004	-0.000000	0.000000	0.000000
23.391289	15.906131	17.058899	1.198373	-1.152794	2.556084	0.000000	-0.206273	0.000000	0.000004	-0.000000	0.000000	0.000000
23.832249	15.052800	17.900249	0.744134	-0.747943	2.480899	0.000000	-0.135057	0.000000	0.000004	-0.000000	0.000000	0.000000
24.273209	14.583623	18.368126	0.323893	-0.309061	2.436749	0.000000	-0.065380	0.000000	0.000004	-0.000000	0.000000	0.000000
24.715418	14.477278	18.440995	-0.046135	0.098592	2.423127	0.000000	-0.002390	0.000000	0.000004	0.000000	0.000000	0.000000
25.012741	14.510831	18.387208	-0.066716	0.082313	2.422417	0.000000	-0.002390	0.000000	0.000004	0.000000	0.000000	0.000000
25.346075	14.563000	18.338417	-0.089790	0.064061	2.421620	0.000000	-0.002390	0.000000	0.000004	0.000000	0.000000	0.000000
25.679408	14.630551	18.301793	-0.112863	0.045810	2.420824	0.000000	-0.002390	0.000000	0.000004	0.000000	0.000000	0.000000
26.013991	14.713526	18.277639	-0.016658	-0.120787	2.420000	0.000000	-0.022022	0.000000	0.000004	-0.000000	0.000000	0.000000
26.311314	14.729442	18.354372	-0.000751	-0.182300	2.413452	0.000000	-0.027940	0.000000	0.000004	-0.000000	0.000000	0.000000
26.752274	14.911597	18.316051	-0.413904	0.268872	2.416241	0.000000	0.040603	0.000000	0.000004	0.000000	0.000000	0.000000
27.193234	15.465050	17.883728	-0.845967	0.707810	2.449328	0.000000	0.109609	0.000000	0.000004	0.000000	0.000000	0.000000
27.634194	16.415087	17.077073	-1.316680	1.114544	2.513091	0.000000	0.179863	0.000000	0.000004	0.000000	0.000000	0.000000
28.075154	17.805111	15.932788	-1.847548	1.470567	2.608254	0.000000	0.252166	0.000000	0.000004	0.000000	0.000000	0.000000
28.521114	19.722784	14.485703	-2.467784	1.760594	2.737505	0.000000	0.327785	0.000000	0.000004	0.000000	0.000000	0.000000
29.070174	22.160155	12.873249	-1.945109	1.193494	2.894815	0.000000	0.244388	0.000000	0.000004	0.000000	0.000000	0.000000
29.619234	23.944262	11.833482	-1.285040	0.711405	3.005076	0.000000	0.156657	0.000000	0.000005	0.000000	0.000000	0.000000
30.168294	24.949084	11.292342	-0.534203	0.279988	3.066332	0.000000	0.066147	0.000000	0.000005	0.000000	0.000000	0.000000
30.717354	25.103646	11.211285	0.254367	-0.131487	3.077497	0.000000	-0.025537	0.000000	0.000005	-0.000000	0.000000	0.000000
31.015927	24.994596	11.280345	0.176461	-0.129105	3.072273	0.000000	-0.017496	0.000000	0.000005	-0.000000	0.000000	0.000000
31.349260	24.881539	11.376429	0.162710	-0.159147	3.066441	0.000000	-0.017496	0.000000	0.000005	-0.000000	0.000000	0.000000
31.682593	24.777650	11.492541	0.148958	-0.189190	3.060609	0.000000	-0.017496	0.000000	0.000005	-0.000000	0.000000	0.000000
32.017177	24.682590	11.629230	0.135155	-0.219345	3.054756	0.000000	-0.017496	0.000000	0.000005	-0.000000	0.000000	0.000000
32.314499	24.605868	11.767630	0.058601	-0.215396	3.049554	0.000000	-0.009528	0.000000	0.000005	-0.000000	0.000000	0.000000
32.863559	24.119989	12.243471	0.821089	-0.656365	3.019441	0.000000	-0.099999	0.000000	0.000004	-0.000000	0.000000	0.000000
33.412619	22.823855	13.226225	1.525579	-1.144086	2.940068	0.000000	-0.188697	0.000000	0.000004	-0.000000	0.000000	0.000000
33.961679	20.809017	14.785894	2.122310	-1.713297	2.812844	0.000000	-0.274047	0.000000	0.000004	-0.000001	0.000000	0.000000
34.510739	18.217794	17.033568	2.569132	-2.404543	2.640025	0.000000	-0.354536	0.000000	0.000004	-0.000001	0.000000	0.000000
34.956699	16.203109	19.043977	1.964691	-2.084683	2.498258	0.000000	-0.281609	0.000000	0.000003	-0.000001	0.000000	0.000000
35.397659	14.700853	20.706285	1.455017	-1.670720	2.389460	0.000000	-0.212318	0.000000	0.000003	-0.000000	0.000000	0.000000
35.838619	13.617189	21.968468	1.011818	-1.180740	2.310656	0.000000	-0.145445	0.000000	0.000003	-0.000000	0.000000	0.000000
36.279579	12.902605	22.773097	0.614847	-0.637038	2.260947	0.000000	-0.080228	0.000000	0.000003	-0.000000	0.000000	0.000000
36.721789	12.523764	23.083865	0.276571	-0.121012	2.239741	0.000000	-0.021417	0.000000	0.000003	-0.000000	0.000000	0.000000
37.019112	12.366901	23.159710	0.251015	-0.134080	2.233373	0.000000	-0.021417	0.000000	0.000003	-0.000000	0.000000	0.000000
37.352445	12.209108	23.253981	0.222363	-0.148732	2.226234	0.000000	-0.021417	0.000000	0.000003	-0.000000	0.000000	0.000000
37.685779	12.070417	23.358019	0.193711	-0.163383	2.219095	0.000000	-0.021417	0.000000	0.000003	-0.000000	0.000000	0.000000
38.020362	11.950414	23.472270	0.164951	-0.178090	2.211930	0.000000	-0.021417	0.000000	0.000003	-0.000000	0.000000	0.000000
38.317684	11.859925	23.582056	0.168478	-0.248987	2.205562	0.000000	-0.026826	0.000000	0.000002	-0.000000	0.000000	0.000000
38.758644	11.862598	23.540457	-0.174562	0.342967	2.207660	0.000000	0.036350	0.000000	0.000002	-0.000000	0.000000	0.000000
39.199604	12.170165	22.981714	-0.525578	0.919316	2.237680	0.000000	0.099939	0.000000	0.000002	-0.000000	0.000000	0.000000
39.640564	12.796678	21.931251	-0.900605	1.453838	2.295965	0.000000	0.164666	0.000000	0.000002	-0.000000	0.000000	0.000000
40.081524	13.770760	20.436862	-1.316779	1.922210	2.383178	0.000000	0.231269	0.000000	0.000002	0.000000	0.000000	0.000000
40.527484	15.154482	18.543973	-1.796937	2.304404	2.501784	0.000000	0.300911	0.000000	0.000002	0.000000	0.000000	0.000000
41.076544	16.920452	16.416916	-1.400374	1.592461	2.646474	0.000000	0.225357	0.000000	0.000002	-0.000000	0.000000	0.000000
41.625604	18.193721	15.005157	-0.904896	0.993946	2.748519	0.000000	0.145805	0.000000	0.000002	-0.000000	0.000000	0.000000
42.174664	18.884352	14.208139	-0.345500	0.466227	2.806110	0.000000	0.063667	0.000000	0.000002	-0.000000	0.000000	0.000000
42.723724	18.943562	13.969093	0.238300	-0.028284	2.818226	0.000000	-0.019600	0.000000	0.000002	-0.000000	0.000000	0.000000
43.022297	18.835692	13.970570	0.172482	-0.013161	2.814573	0.000000	-0.012236	0.000000	0.000002	-0.000000	0.000000	0.000000
43.502297	18.682706	13.999700	0.146240	-0.047525	2.808699	0.000000	-0.012236	0.000000	0.000002	-0.000000	0.000000	0.000000
43.982297	18.554911	14.061818	0.119998	-0.081889	2.802826	0.000000	-0.012236	0.000000	0.000002	-0.000000	0.000000	0.000000
44.462297	18.452309	14.156926	0.093757	-0.116253	2.796953	0.000000	-0.012236	0.000000	0.000002	-0.000000	0.000000	0.000000
44.942297	18.374899	14.285024	0.067515	-0.150617	2.791079	0.000000	-0.012236	0.000000	0.000002	-0.000000	0.000000	0.000000
45.423547	18.322804	14.446394	-0.049576	-0.113494	2.785208	0.000000	0.001563	0.000000	0.000002	-0.000000	0.000000	0.000000
45.720870	18.357121	14.520080	-0.113806	-0.096402	2.785673	0.000000	0.008841	0.000000	0.000001	-0.000000	0.000000	0.000000
46.269930	18.172991	14.906831	0.447176	-0.612143	2.767956	0.000000	-0.073280	0.000000	0.000001	-0.000000	0.000000	0.000000
46.818990	17.386612	15.880403	0.976573	-1.171485	2.705441	0.000000	-0.154102	0.000000	0.000001	-0.000000	0.000000	0.000000
47.368050	16.053531	17.510141	1.436989	-1.814269	2.599236	0.000000	-0.232191	0.000000	0.000001	-0.000000	0.000000	0.000000
47.917110	14.267909	19.912129	1.795903	-2.586280	2.451225	0.000000	-0.306161	0.000000	0.000001	-0.000000	0.000000	0.000000
48.363070	12.878250	22.047783	1.331242	-2.182480	2.329981	0.000000	-0.237864	0.000000	0.000001	-0.000000	0.000000	0.000000
48.804030	11.884387	23.757775	0.931170	-1.680648	2.239552	0.000000	-0.172674	0.000000	0.000001	-0.000000	0.000000	0.000000
49.244990	11.223334	24.989653	0.573640	-1.102349	2.177408	0.000000	-0.109451	0.000000	0.000000	-0.000000	0.000000	0.000000
49.685950	10.864888	25.687368	0.242318	-0.473894	2.142842	0.000000	-0.047474	0.000000	0.000000	-0.000000	0.000000	0.000000
50.128160	10.792803	25.818893	-0.051582	0.112759	2.135472	0.000000	0.008725	0.000000	0.000000	-0.000000	0.000000	0.000000
50.425482	10.831689	25.755309	-0.079203	0.101097	2.138066	0.000000	0.008725	0.000000	0.000000	-0.000000	0.000000	0.000000
50.758816	10.894814	25.692269	-0.110170	0.088022	2.140974	0.000000	0.008725	0.000000	-0.000000	-0.000000	0.000000	0.000000
51.092149	10.978583	25.637946	-0.141137	0.074947	2.143883	0.000000	0.008725	0.000000	-0.000000	-0.000000	0.000000	0.000000
51.426732	11.083202	25.592704	-0.082306	-0.145797	2.146781	0.000000	-0.008691	0.000000	-0.000000	-0.000000	0.000000	0.000000
51.724055	11.140176	25.682929	-0.081995	-0.220644	2.144197	0.000000	-0.013949	0.000000	-0.000000	-0.000000	0.000000	0.000000
52.165015	11.357918	25.591811	-0.413669	0.426492	2.151634	0.000000	0.047713	0.000000	-0.000000	-0.000000	0.000000	0.000000
52.605975	11.875366	24.936382	-0.764242	1.054222	2.186356	0.000000	0.109919	0.000000	-0.000001	-0.000000	0.000000	0.000000
53.046935	12.716161	23.746462	-1.149730	1.633986	2.248758	0.000000	0.173376	0.000000	-0.000001	-0.000000	0.000000	0.000000
53.487895	13.918717	22.076192	-1.587747	2.139404	2.339550	0.000000	0.238808	0.000000	-0.000001	-0.000000	0.000000	0.000000
53.933855	15.558585	19.976592	-2.102539	2.548817	2.461272	0.000000	0.307359	0.000000	-0.000001	-0.000000	0.000000	0.000000
54.482915	17.669825	17.614081	-1.719889	1.779411	2.609850	0.000000	0.233054	0.000000	-0.000001	-0.000000	0.000000	0.000000
55.031975	19.291267	16.022329	-1.215754	1.136749	2.716434	0.000000	0.154616	0.000000	-0.000001	-0.000000	0.000000	0.000000
55.581035	20.308380	15.087961	-0.625744	0.575055	2.779133	0.000000	0.073435	0.000000	-0.000002	-0.000000	0.000000	0.000000
56.130095	20.649322	14.744424	0.008465	0.054321	2.796836	0.000000	-0.009049	0.000000	-0.000002	-0.000000	0.000000	0.000000
56.428668	20.680812	14.695080	-0.059978	0.072422	2.796316	0.000000	-0.001741	0.000000	-0.000002	-0.000000	0.000000	0.000000
56.762001	20.726189	14.654399	-0.076154	0.049619	2.795735	0.000000	-0.001741	0.000000	-0.000002	-0.000000	0.000000	0.000000
57.095334	20.782350	14.628920	-0.092330	0.026817	2.795155	0.000000	-0.001741	0.000000	-0.000002	-0.000000	0.000000	0.000000
57.429918	20.849567	14.618633	-0.108567	0.003929	2.794573	0.000000	-0.001741	0.000000	-0.000002	-0.000000	0.000000	0.000000
57.727240	20.918415	14.622344	-0.177652	0.021796	2.794055	0.000000	0.005559	0.000000	-0.000002	-0.000000	0.000000	0.000000
58.276300	20.756580	14.879253	0.470657	-0.492466	2.774467	0.000000	-0.076804	0.000000	-0.000002	-0.000000	0.000000	0.000000
58.825360	19.896947	15.716717	1.085721	-1.041805	2.709966	0.000000	-0.157804	0.000000	-0.000002	-0.000000	0.000000	0.000000
59.374420	18.400235	17.194385	1.624095	-1.665350	2.601693	0.000000	-0.236006	0.000000	-0.000002	0.000000	0.000000	0.000000
59.923480	16.372166	19.417509	2.047751	-2.407514	2.451572	0.000000	-0.310022	0.000000	-0.000002	0.000000	0.000000	0.000000
60.369440	14.784742	21.393497	1.524421	-2.004648	2.328605	0.000000	-0.241739	0.000000	-0.000002	0.000000	0.000000	0.000000
60.810400	13.642857	22.950097	1.074947	-1.511943	2.236456	0.000000	-0.176606	0.000000	-0.000002	-0.000000	0.000000	0.000000
61.251360	12.874300	24.040059	0.674584	-0.950446	2.172557	0.000000	-0.113485	0.000000	-0.000002	-0.000000	0.000000	0.000000
61.692320	12.443957	24.613793	0.305041	-0.345704	2.136181	0.000000	-0.051657	0.000000	-0.000002	-0.000000	0.000000	0.000000
62.134530	12.332219	24.644657	-0.020424	0.214275	2.126919	0.000000	0.004368	0.000000	-0.000002	-0.000000	0.000000	0.000000
62.431853	12.351535	24.520991	-0.044543	0.201657	2.128218	0.000000	0.004368	0.000000	-0.000002	-0.000000	0.000000	0.000000
62.765186	12.390244	24.391269	-0.071584	0.187510	2.129674	0.000000	0.004368	0.000000	-0.000002	-0.000000	0.000000	0.000000
63.098520	12.446980	24.270978	-0.098625	0.173363	2.131130	0.000000	0.004368	0.000000	-0.000003	-0.000000	0.000000	0.000000
63.433103	12.522058	24.159720	-0.125767	0.159164	2.132591	0.000000	0.004368	0.000000	-0.000003	-0.000000	0.000000	0.000000
63.730426	12.604016	24.068826	-0.118977	0.087520	2.133890	0.000000	-0.000865	0.000000	-0.000003	-0.000000	0.000000	0.000000
64.171386	12.869407	23.726558	-0.485154	0.685714	2.147049	0.000000	0.060605	0.000000	-0.000003	-0.000000	0.000000	0.000000
64.612346	13.466254	22.868526	-0.873497	1.252709	2.187440	0.000000	0.122765	0.000000	-0.000003	-0.000000	0.000000	0.000000
65.053306	14.421824	21.533770	-1.301747	1.762706	2.255523	0.000000	0.186324	0.000000	-0.000003	-0.000000	0.000000	0.000000
65.494266	15.779776	19.783019	-1.789471	2.192501	2.352074	0.000000	0.252004	0.000000	-0.000003	-0.000001	0.000000	0.000000
65.940226	17.625316	17.671152	-2.363643	2.523296	2.479765	0.000000	0.320957	0.000000	-0.000004	-0.000001	0.000000	0.000000
66.489286	19.990982	15.308569	-1.919427	1.805063	2.635623	0.000000	0.245935	0.000000	-0.000004	-0.000000	0.000000	0.000000
67.038346	21.791057	13.659885	-1.339632	1.215400	2.749030	0.000000	0.166551	0.000000	-0.000004	-0.000000	0.000000	0.000000
67.587406	22.898391	12.607669	-0.665212	0.712308	2.817974	0.000000	0.084213	0.000000	-0.000004	-0.000000	0.000000	0.000000
68.136466	23.234770	12.076973	0.056195	0.259951	2.841232	0.000000	0.000381	0.000000	-0.000004	-0.000000	0.000000	0.000000
68.435038	23.241303	11.910909	-0.017366	0.264684	2.843562	0.000000	0.007805	0.000000	-0.000004	-0.000000	0.000000	0.000000
68.768372	23.257663	11.744435	-0.031713	0.234738	2.846164	0.000000	0.007805	0.000000	-0.000004	-0.000000	0.000000	0.000000
69.101705	23.283587	11.597926	-0.046059	0.204792	2.848765	0.000000	0.007805	0.000000	-0.000004	-0.000000	0.000000	0.000000
69.436288	23.319227	11.470943	-0.060460	0.174733	2.851376	0.000000	0.007805	0.000000	-0.000004	-0.000000	0.000000	0.000000
69.733611	23.358984	11.374980	-0.134292	0.177744	2.853697	0.000000	0.015261	0.000000	-0.000004	-0.000000	0.000000	0.000000
70.282671	23.105281	11.407541	0.593624	-0.237397	2.838891	0.000000	-0.069112	0.000000	-0.000004	0.000000	0.000000	0.000000
