#ParticleID	Turn	x[m]	xp	y[m]	yp	z[m]	dE[GeV]# s	beta_x	beta_y	alpha_x	alpha_y	D_x	D_y	D_px	D_py	orbit_x	orbit_px	orbit_y	orbit_py
0.300000	11.834412	24.939629	-0.013713	-0.027787	2.618347	0.000000	-0.000077	0.000000	-0.000001	0.000000	0.000000	0.000000
0.601250	11.850344	24.960012	-0.039173	-0.039875	2.618324	0.000000	-0.000077	0.000000	-0.000001	0.000000	0.000000	0.000000
0.898573	11.881109	24.987271	-0.035165	-0.113083	2.618301	0.000000	-0.006498	0.000000	-0.000001	0.000000	0.000000	0.000000
1.339533	12.064509	24.809869	-0.382324	0.513860	2.631730	0.000000	0.067464	0.000000	-0.000001	0.000000	0.000000	0.000000
1.780493	12.560592	24.087791	-0.746950	1.117423	2.677911	0.000000	0.142194	0.000000	-0.000001	0.000000	0.000000	0.000000
2.221453	13.392022	22.853890	-1.145702	1.670143	2.757371	0.000000	0.218543	0.000000	-0.000001	0.000000	0.000000	0.000000
2.662413	14.596785	21.164309	-1.596799	2.146874	2.871014	0.000000	0.297382	0.000000	-0.000001	0.000000	0.000000	0.000000
3.108373	16.250741	19.071140	-2.125150	2.527053	3.021995	0.000000	0.380097	0.000000	-0.000001	0.000000	0.000000	0.000000
3.657433	18.371610	16.720334	-1.714712	1.779731	3.205419	0.000000	0.287059	0.000000	-0.000001	0.000000	0.000000	0.000000
4.206493	19.972188	15.116167	-1.183155	1.159175	3.336285	0.000000	0.188930	0.000000	-0.000001	0.000000	0.000000	0.000000
4.755553	20.939417	14.144379	-0.568026	0.621184	3.412272	0.000000	0.087450	0.000000	-0.000001	0.000000	0.000000	0.000000
5.304613	21.204978	13.735752	0.087225	0.127440	3.432031	0.000000	-0.015581	0.000000	-0.000001	0.000000	0.000000	0.000000
5.603185	21.190185	13.644884	0.017726	0.141012	3.430056	0.000000	-0.006614	0.000000	-0.000001	0.000000	0.000000	0.000000
5.936519	21.183613	13.559181	0.001990	0.116097	3.427851	0.000000	-0.006614	0.000000	-0.000001	0.000000	0.000000	0.000000
6.269852	21.187531	13.490088	-0.013745	0.091182	3.425647	0.000000	-0.006614	0.000000	-0.000000	0.000000	0.000000	0.000000
6.604435	21.202014	13.437439	-0.029540	0.066174	3.423434	0.000000	-0.006614	0.000000	-0.000000	0.000000	0.000000	0.000000
6.901758	21.223753	13.404697	-0.099029	0.078975	3.421467	0.000000	0.002326	0.000000	-0.000000	0.000000	0.000000	0.000000
7.450818	20.970688	13.578407	0.557206	-0.397219	3.394545	0.000000	-0.100247	0.000000	-0.000000	0.000000	0.000000	0.000000
7.999878	20.014446	14.287410	1.174083	-0.901707	3.311710	0.000000	-0.201042	0.000000	-0.000000	0.000000	0.000000	0.000000
8.548938	18.422571	15.582207	1.708029	-1.470420	3.174431	0.000000	-0.298271	0.000000	-0.000000	0.000000	0.000000	0.000000
9.097998	16.307504	17.555024	2.121328	-2.143869	2.985144	0.000000	-0.390210	0.000000	0.000000	0.000000	0.000000	0.000000
9.543958	14.657207	19.312985	1.592381	-1.781442	2.829431	0.000000	-0.308512	0.000000	0.000000	0.000000	0.000000	0.000000
9.984918	13.456677	20.694315	1.140485	-1.339189	2.710634	0.000000	-0.230812	0.000000	0.000000	0.000000	0.000000	0.000000
10.425878	12.630287	21.657152	0.740695	-0.836004	2.625488	0.000000	-0.155740	0.000000	0.000000	0.000000	0.000000	0.000000
10.866838	12.140282	22.157688	0.374745	-0.294782	2.573023	0.000000	-0.082443	0.000000	0.000000	0.000000	0.000000	0.000000
11.309048	11.964136	22.172635	0.055151	0.205420	2.552621	0.000000	-0.016344	0.000000	0.000000	0.000000	0.000000	0.000000
11.606371	11.938752	22.054638	0.030224	0.191444	2.547762	0.000000	-0.016344	0.000000	0.000001	0.000000	0.000000	0.000000
12.086371	11.929053	21.881682	-0.010018	0.168882	2.539917	0.000000	-0.016344	0.000000	0.000001	0.000000	0.000000	0.000000
12.566371	11.957986	21.730384	-0.050260	0.146321	2.532071	0.000000	-0.016344	0.000000	0.000001	0.000000	0.000000	0.000000
13.046371	12.025551	21.600746	-0.090502	0.123759	2.524226	0.000000	-0.016344	0.000000	0.000001	0.000000	0.000000	0.000000
13.526371	12.131749	21.492767	-0.130743	0.101197	2.516381	0.000000	-0.016344	0.000000	0.000001	0.000000	0.000000	0.000000
14.007621	12.277006	21.406251	-0.171090	0.078576	2.508515	0.000000	-0.016344	0.000000	0.000001	0.000000	0.000000	0.000000
14.304943	12.386156	21.363681	-0.165643	0.012212	2.503655	0.000000	-0.022484	0.000000	0.000001	0.000000	0.000000	0.000000
14.745903	12.691012	21.119054	-0.528327	0.540438	2.509369	0.000000	0.048423	0.000000	0.000001	0.000000	0.000000	0.000000
15.186863	13.325122	20.417678	-0.915149	1.044074	2.546441	0.000000	0.119881	0.000000	0.000001	0.000000	0.000000	0.000000
15.627823	14.317455	19.291467	-1.343781	1.500206	2.615294	0.000000	0.192705	0.000000	0.000002	0.000000	0.000000	0.000000
16.068783	15.713349	17.791661	-1.833807	1.888080	2.716713	0.000000	0.267723	0.000000	0.000002	0.000000	0.000000	0.000000
16.514743	17.600233	15.965000	-2.412373	2.190798	2.853545	0.000000	0.346253	0.000000	0.000002	0.000000	0.000000	0.000000
17.063803	20.023344	13.925218	-1.974701	1.546176	3.019936	0.000000	0.258949	0.000000	0.000002	0.000000	0.000000	0.000000
17.612863	21.885936	12.529041	-1.397547	1.011684	3.137059	0.000000	0.167052	0.000000	0.000002	0.000000	0.000000	0.000000
18.161923	23.056446	11.677023	-0.721676	0.549252	3.202835	0.000000	0.072193	0.000000	0.000002	0.000000	0.000000	0.000000
18.710983	23.452194	11.308476	0.005170	0.125942	3.216100	0.000000	-0.023947	0.000000	0.000002	0.000000	0.000000	0.000000
19.009556	23.489510	11.223701	-0.068877	0.128447	3.211458	0.000000	-0.015544	0.000000	0.000002	0.000000	0.000000	0.000000
19.342889	23.540181	11.148133	-0.083135	0.098258	3.206277	0.000000	-0.015544	0.000000	0.000002	0.000000	0.000000	0.000000
19.676223	23.600357	11.092690	-0.097393	0.068069	3.201095	0.000000	-0.015544	0.000000	0.000003	0.000000	0.000000	0.000000
20.010806	23.670610	11.057142	-0.228982	0.092551	3.195914	0.000000	0.000290	0.000000	0.000003	0.000000	0.000000	0.000000
20.308129	23.810703	11.010171	-0.304413	0.094198	3.196000	0.000000	0.008640	0.000000	0.000003	0.000000	0.000000	0.000000
20.857189	23.734323	11.129350	0.442701	-0.312540	3.174535	0.000000	-0.086716	0.000000	0.000003	0.000000	0.000000	0.000000
21.406249	22.849907	11.704707	1.158545	-0.741539	3.101058	0.000000	-0.180534	0.000000	0.000003	-0.000000	0.000000	0.000000
21.955309	21.219927	12.777222	1.792555	-1.223357	2.976875	0.000000	-0.271149	0.000000	0.000003	-0.000000	0.000000	0.000000
22.504369	18.959517	14.423289	2.299948	-1.792312	2.804187	0.000000	-0.356956	0.000000	0.000003	-0.000000	0.000000	0.000000
22.950329	17.178312	15.900957	1.708245	-1.507164	2.662287	0.000000	-0.279772	0.000000	0.000002	-0.000000	0.000000	0.000000
23.391289	15.901053	17.079038	1.199285	-1.154299	2.555235	0.000000	-0.206230	0.000000	0.000002	-0.000000	0.000000	0.000000
23.832249	15.046890	17.921485	0.745116	-0.748915	2.480065	0.000000	-0.135036	0.000000	0.000002	-0.000000	0.000000	0.000000
24.273209	14.576800	18.389967	0.324990	-0.309456	2.435919	0.000000	-0.065380	0.000000	0.000002	0.000000	0.000000	0.000000
24.715418	14.469416	18.462921	-0.044892	0.098739	2.422292	0.000000	-0.002409	0.000000	0.000002	0.000000	0.000000	0.000000
25.012741	14.502232	18.409041	-0.065482	0.082478	2.421576	0.000000	-0.002409	0.000000	0.000003	0.000000	0.000000	0.000000
25.346075	14.553582	18.360133	-0.088566	0.064248	2.420773	0.000000	-0.002409	0.000000	0.000003	0.000000	0.000000	0.000000
25.679408	14.620320	18.323377	-0.111649	0.046018	2.419970	0.000000	-0.002409	0.000000	0.000003	0.000000	0.000000	0.000000
26.013991	14.702486	18.299077	-0.015543	-0.120732	2.419140	0.000000	-0.022035	0.000000	0.000003	0.000000	0.000000	0.000000
26.311314	14.717742	18.375771	0.000321	-0.182278	2.412588	0.000000	-0.027951	0.000000	0.000003	0.000000	0.000000	0.000000
26.752274	14.898822	18.337176	-0.412527	0.269472	2.415368	0.000000	0.040570	0.000000	0.000003	0.000000	0.000000	0.000000
27.193234	15.450904	17.904077	-0.844223	0.708962	2.448436	0.000000	0.109554	0.000000	0.000003	0.000000	0.000000	0.000000
27.634194	16.399212	17.096182	-1.314488	1.116194	2.512168	0.000000	0.179784	0.000000	0.000003	0.000000	0.000000	0.000000
28.075154	17.787070	15.950249	-1.844809	1.472640	2.607291	0.000000	0.252063	0.000000	0.000003	0.000000	0.000000	0.000000
28.521114	19.702007	14.501159	-2.464366	1.762997	2.736491	0.000000	0.327656	0.000000	0.000003	0.000000	0.000000	0.000000
29.070174	22.135894	12.886396	-1.942218	1.195322	2.893739	0.000000	0.244293	0.000000	0.000004	0.000000	0.000000	0.000000
29.619234	23.917211	11.844876	-1.282880	0.712788	3.003958	0.000000	0.156597	0.000000	0.000004	0.000000	0.000000	0.000000
30.168294	24.920135	11.302416	-0.532926	0.281024	3.065191	0.000000	0.066124	0.000000	0.000004	0.000000	0.000000	0.000000
30.717354	25.073823	11.220377	0.254671	-0.130724	3.076354	0.000000	-0.025523	0.000000	0.000004	-0.000000	0.000000	0.000000
31.015927	24.964550	11.288959	0.176826	-0.128292	3.071133	0.000000	-0.017485	0.000000	0.000004	0.000000	0.000000	0.000000
31.349260	24.851256	11.384492	0.163056	-0.158305	3.065305	0.000000	-0.017485	0.000000	0.000004	0.000000	0.000000	0.000000
31.682593	24.747143	11.500033	0.149286	-0.188319	3.059477	0.000000	-0.017485	0.000000	0.000004	0.000000	0.000000	0.000000
32.017177	24.651870	11.636129	0.135465	-0.218444	3.053627	0.000000	-0.017485	0.000000	0.000004	0.000000	0.000000	0.000000
32.314499	24.574968	11.773986	0.058975	-0.214453	3.048428	0.000000	-0.009520	0.000000	0.000004	0.000000	0.000000	0.000000
32.863559	24.089245	12.248867	0.820433	-0.655550	3.018330	0.000000	-0.099955	0.000000	0.000004	-0.000000	0.000000	0.000000
33.412619	22.794379	13.230770	1.523940	-1.143341	2.938991	0.000000	-0.188617	0.000000	0.000004	-0.000000	0.000000	0.000000
33.961679	20.781832	14.789634	2.119803	-1.712569	2.811821	0.000000	-0.273933	0.000000	0.000004	-0.000000	0.000000	0.000000
34.510739	18.193760	17.036493	2.565934	-2.403779	2.639073	0.000000	-0.354390	0.000000	0.000003	-0.000000	0.000000	0.000000
34.956699	16.181601	19.046137	1.962205	-2.083736	2.497365	0.000000	-0.281487	0.000000	0.000003	-0.000000	0.000000	0.000000
35.397659	14.681269	20.707545	1.453125	-1.669634	2.388617	0.000000	-0.212218	0.000000	0.000003	-0.000000	0.000000	0.000000
35.838619	13.599044	21.968727	1.010433	-1.179565	2.309852	0.000000	-0.145366	0.000000	0.000003	-0.000000	0.000000	0.000000
36.279579	12.885483	22.772300	0.613905	-0.635827	2.260173	0.000000	-0.080170	0.000000	0.000003	-0.000000	0.000000	0.000000
36.721789	12.507294	23.082002	0.275990	-0.119816	2.238988	0.000000	-0.021377	0.000000	0.000003	-0.000000	0.000000	0.000000
37.019112	12.350785	23.157135	0.250407	-0.132882	2.232632	0.000000	-0.021377	0.000000	0.000003	-0.000000	0.000000	0.000000
37.352445	12.193407	23.250606	0.221726	-0.147530	2.225507	0.000000	-0.021377	0.000000	0.000003	-0.000000	0.000000	0.000000
37.685779	12.055150	23.353842	0.193045	-0.162179	2.218381	0.000000	-0.021377	0.000000	0.000003	-0.000000	0.000000	0.000000
38.020362	11.935603	23.467287	0.164256	-0.176883	2.211229	0.000000	-0.021377	0.000000	0.000003	-0.000000	0.000000	0.000000
38.317684	11.845536	23.576354	0.167721	-0.247763	2.204873	0.000000	-0.026784	0.000000	0.000003	-0.000000	0.000000	0.000000
38.758644	11.848733	23.533745	-0.174999	0.344023	2.206986	0.000000	0.036374	0.000000	0.000003	-0.000000	0.000000	0.000000
39.199604	12.156552	22.974163	-0.525715	0.920157	2.237013	0.000000	0.099946	0.000000	0.000003	0.000000	0.000000	0.000000
39.640564	12.783057	21.923068	-0.900450	1.454424	2.295297	0.000000	0.164656	0.000000	0.000003	0.000000	0.000000	0.000000
40.081524	13.756870	20.428284	-1.316323	1.922516	2.382501	0.000000	0.231242	0.000000	0.000003	0.000000	0.000000	0.000000
40.527484	15.140043	18.535256	-1.796158	2.304412	2.501091	0.000000	0.300866	0.000000	0.000003	0.000000	0.000000	0.000000
41.076544	16.905447	16.408083	-1.400128	1.592664	2.645762	0.000000	0.225335	0.000000	0.000003	0.000000	0.000000	0.000000
41.625604	18.178748	14.995988	-0.905200	0.994358	2.747802	0.000000	0.145806	0.000000	0.000003	0.000000	0.000000	0.000000
42.174664	18.870007	14.198390	-0.346334	0.466877	2.805400	0.000000	0.063691	0.000000	0.000003	-0.000000	0.000000	0.000000
42.723724	18.930398	13.958479	0.236996	-0.027349	2.817535	0.000000	-0.019553	0.000000	0.000003	-0.000000	0.000000	0.000000
43.022297	18.823286	13.959419	0.171209	-0.012270	2.813895	0.000000	-0.012192	0.000000	0.000003	-0.000000	0.000000	0.000000
43.502297	18.671525	13.987706	0.144961	-0.046661	2.808043	0.000000	-0.012192	0.000000	0.000003	-0.000000	0.000000	0.000000
43.982297	18.544961	14.049008	0.118713	-0.081051	2.802191	0.000000	-0.012192	0.000000	0.000003	-0.000000	0.000000	0.000000
44.462297	18.443595	14.143325	0.092465	-0.115442	2.796339	0.000000	-0.012192	0.000000	0.000003	-0.000000	0.000000	0.000000
44.942297	18.367427	14.270656	0.066218	-0.149833	2.790487	0.000000	-0.012192	0.000000	0.000003	-0.000000	0.000000	0.000000
45.423547	18.316584	14.431285	-0.050849	-0.112811	2.784637	0.000000	0.001605	0.000000	0.000003	-0.000000	0.000000	0.000000
45.720870	18.351660	14.504571	-0.115072	-0.095779	2.785114	0.000000	0.008882	0.000000	0.000003	-0.000000	0.000000	0.000000
46.269930	18.169009	14.890374	0.445763	-0.611028	2.767425	0.000000	-0.073222	0.000000	0.000003	-0.000000	0.000000	0.000000
46.818990	17.384217	15.862417	0.975112	-1.169800	2.704946	0.000000	-0.154027	0.000000	0.000002	-0.000000	0.000000	0.000000
47.368050	16.052719	17.489939	1.435584	-1.811893	2.598786	0.000000	-0.232101	0.000000	0.000002	-0.000000	0.000000	0.000000
47.917110	14.268563	19.888863	1.794653	-2.583044	2.450828	0.000000	-0.306057	0.000000	0.000002	-0.000000	0.000000	0.000000
48.363070	12.879970	22.021845	1.330094	-2.179748	2.329629	0.000000	-0.237770	0.000000	0.000002	-0.000000	0.000000	0.000000
48.804030	11.887095	23.729696	0.930069	-1.678543	2.239239	0.000000	-0.172589	0.000000	0.000002	-0.000000	0.000000	0.000000
49.244990	11.227011	24.960030	0.572536	-1.100966	2.177131	0.000000	-0.109373	0.000000	0.000002	-0.000000	0.000000	0.000000
49.685950	10.869559	25.656868	0.241160	-0.473296	2.142598	0.000000	-0.047403	0.000000	0.000001	-0.000000	0.000000	0.000000
50.128160	10.798542	25.788223	-0.052833	0.112620	2.135257	0.000000	0.008791	0.000000	0.000001	-0.000000	0.000000	0.000000
50.425482	10.838168	25.724726	-0.080443	0.100944	2.137871	0.000000	0.008791	0.000000	0.000001	-0.000000	0.000000	0.000000
50.758816	10.902115	25.661793	-0.111398	0.087854	2.140802	0.000000	0.008791	0.000000	0.000001	-0.000000	0.000000	0.000000
51.092149	10.986698	25.607587	-0.142352	0.074765	2.143732	0.000000	0.008791	0.000000	0.000001	-0.000000	0.000000	0.000000
51.426732	11.092126	25.562471	-0.083436	-0.145749	2.146652	0.000000	-0.008624	0.000000	0.000001	-0.000000	0.000000	0.000000
51.724055	11.149766	25.652672	-0.083085	-0.220535	2.144088	0.000000	-0.013882	0.000000	0.000001	-0.000000	0.000000	0.000000
52.165015	11.368574	25.561813	-0.415006	0.425800	2.151554	0.000000	0.047778	0.000000	0.000001	-0.000000	0.000000	0.000000
52.605975	11.887332	24.907336	-0.765886	1.052761	2.186304	0.000000	0.109982	0.000000	0.000001	-0.000000	0.000000	0.000000
53.046935	12.729741	23.719020	-1.151758	1.631823	2.248733	0.000000	0.173438	0.000000	0.000001	-0.000000	0.000000	0.000000
53.487895	13.934288	22.050932	-1.590251	2.136638	2.339553	0.000000	0.238870	0.000000	0.000001	-0.000000	0.000000	0.000000
53.933855	15.576646	19.954025	-2.105638	2.545571	2.461302	0.000000	0.307421	0.000000	0.000001	-0.000000	0.000000	0.000000
54.482915	17.691059	17.594596	-1.722536	1.777010	2.609914	0.000000	0.233115	0.000000	0.000001	-0.000000	0.000000	0.000000
55.031975	19.315073	16.005097	-1.217762	1.135022	2.716531	0.000000	0.154674	0.000000	0.000001	-0.000000	0.000000	0.000000
55.581035	20.333974	15.072314	-0.626972	0.573880	2.779261	0.000000	0.073489	0.000000	0.000001	-0.000000	0.000000	0.000000
56.130095	20.675793	14.729804	0.008104	0.053613	2.796991	0.000000	-0.008999	0.000000	0.000000	-0.000000	0.000000	0.000000
56.428668	20.707533	14.680911	-0.060389	0.071657	2.796487	0.000000	-0.001691	0.000000	0.000000	-0.000000	0.000000	0.000000
56.762001	20.753177	14.640747	-0.076544	0.048835	2.795923	0.000000	-0.001691	0.000000	0.000000	-0.000000	0.000000	0.000000
57.095334	20.809592	14.615797	-0.092700	0.026014	2.795359	0.000000	-0.001691	0.000000	0.000000	-0.000000	0.000000	0.000000
57.429918	20.877050	14.606054	-0.108917	0.003106	2.794793	0.000000	-0.001691	0.000000	0.000000	-0.000000	0.000000	0.000000
57.727240	20.946101	14.610260	-0.178056	0.020924	2.794291	0.000000	0.005610	0.000000	0.000000	-0.000000	0.000000	0.000000
58.276300	20.784198	14.867940	0.471184	-0.493005	2.774729	0.000000	-0.076761	0.000000	0.000000	-0.000000	0.000000	0.000000
58.825360	19.923488	15.705832	1.087142	-1.042050	2.710248	0.000000	-0.157771	0.000000	0.000000	-0.000000	0.000000	0.000000
59.374420	18.424768	17.183616	1.626310	-1.665318	2.601992	0.000000	-0.235982	0.000000	-0.000000	-0.000000	0.000000	0.000000
59.923480	16.393901	19.406552	2.050603	-2.407202	2.451881	0.000000	-0.310007	0.000000	-0.000000	-0.000000	0.000000	0.000000
60.369440	14.804224	21.382415	1.526638	-2.004680	2.328922	0.000000	-0.241716	0.000000	-0.000000	-0.000000	0.000000	0.000000
60.810400	13.660622	22.939192	1.076637	-1.512315	2.236785	0.000000	-0.176575	0.000000	-0.000000	-0.000000	0.000000	0.000000
61.251360	12.890777	24.029627	0.675824	-0.951141	2.172902	0.000000	-0.113446	0.000000	-0.000000	-0.000000	0.000000	0.000000
61.692320	12.459518	24.604105	0.305887	-0.346690	2.136546	0.000000	-0.051608	0.000000	-0.000000	-0.000000	0.000000	0.000000
62.134530	12.347190	24.635954	-0.019896	0.213065	2.127308	0.000000	0.004425	0.000000	-0.000001	-0.000000	0.000000	0.000000
62.431853	12.366183	24.513007	-0.043986	0.200448	2.128623	0.000000	0.004425	0.000000	-0.000001	-0.000000	0.000000	0.000000
62.765186	12.404510	24.384090	-0.070993	0.186304	2.130098	0.000000	0.004425	0.000000	-0.000001	-0.000000	0.000000	0.000000
63.098520	12.460841	24.264602	-0.098001	0.172159	2.131574	0.000000	0.004425	0.000000	-0.000001	-0.000000	0.000000	0.000000
63.433103	12.535490	24.154149	-0.125109	0.157962	2.133054	0.000000	0.004425	0.000000	-0.000001	-0.000000	0.000000	0.000000
63.730426	12.617048	24.063969	-0.118258	0.086332	2.134370	0.000000	-0.000809	0.000000	-0.000001	-0.000000	0.000000	0.000000
64.171386	12.881930	23.722796	-0.484715	0.684429	2.147557	0.000000	0.060674	0.000000	-0.000001	-0.000000	0.000000	0.000000
64.612346	13.478504	22.865920	-0.873317	1.251384	2.187981	0.000000	0.122848	0.000000	-0.000001	-0.000000	0.000000	0.000000
65.053306	14.434027	21.532327	-1.301818	1.761402	2.256104	0.000000	0.186421	0.000000	-0.000001	-0.000000	0.000000	0.000000
65.494266	15.792153	19.782695	-1.789796	2.191278	2.352701	0.000000	0.252117	0.000000	-0.000001	-0.000000	0.000000	0.000000
65.940226	17.638104	17.671861	-2.364239	2.522211	2.480446	0.000000	0.321087	0.000000	-0.000002	-0.000000	0.000000	0.000000
66.489286	20.004158	15.310397	-1.919533	1.804097	2.636369	0.000000	0.246042	0.000000	-0.000002	-0.000000	0.000000	0.000000
67.038346	21.804074	13.662740	-1.339241	1.214485	2.749828	0.000000	0.166633	0.000000	-0.000002	-0.000000	0.000000	0.000000
67.587406	22.910717	12.611530	-0.664351	0.711379	2.818809	0.000000	0.084268	0.000000	-0.000002	-0.000000	0.000000	0.000000
68.136466	23.245918	12.081892	0.057465	0.258942	2.842090	0.000000	0.000408	0.000000	-0.000002	-0.000000	0.000000	0.000000
68.435038	23.251707	11.916417	-0.016117	0.263712	2.844429	0.000000	0.007834	0.000000	-0.000002	-0.000000	0.000000	0.000000
68.768372	23.267232	11.750582	-0.030457	0.233794	2.847041	0.000000	0.007834	0.000000	-0.000002	-0.000000	0.000000	0.000000
69.101705	23.292316	11.604692	-0.044796	0.203876	2.849652	0.000000	0.007834	0.000000	-0.000002	-0.000000	0.000000	0.000000
69.436288	23.327108	11.478312	-0.059190	0.173846	2.852273	0.000000	0.007834	0.000000	-0.000002	-0.000000	0.000000	0.000000
69.733611	23.366108	11.382870	-0.133033	0.176902	2.854603	0.000000	0.015293	0.000000	-0.000002	-0.000000	0.000000	0.000000
70.282671	23.110905	11.416480	0.595081	-0.238477	2.839807	0.000000	-0.069109	0.000000	-0.000002	-0.000000	0.000000	0.000000
