#ParticleID	Turn	x[m]	xp	y[m]	yp	z[m]	dE[GeV]# s	beta_x	beta_y	alpha_x	alpha_y	D_x	D_y	D_px	D_py	orbit_x	orbit_px	orbit_y	orbit_py
0.300000	11.825909	24.969649	-0.012549	-0.027666	2.618175	0.000000	-0.000011	0.000000	0.000000	0.000000	0.000000	0.000000
0.601250	11.841145	24.989955	-0.038026	-0.039740	2.618172	0.000000	-0.000011	0.000000	0.000000	0.000000	0.000000	0.000000
0.898573	11.871233	25.017129	-0.034060	-0.113006	2.618169	0.000000	-0.006432	0.000000	0.000000	0.000000	0.000000	0.000000
1.339533	12.053551	24.839310	-0.380966	0.514724	2.631626	0.000000	0.067527	0.000000	0.000000	0.000000	0.000000	0.000000
1.780493	12.548302	24.116136	-0.745276	1.119035	2.677834	0.000000	0.142254	0.000000	0.000001	0.000000	0.000000	0.000000
2.221453	13.378089	22.880510	-1.143636	1.672430	2.757320	0.000000	0.218602	0.000000	0.000001	0.000000	0.000000	0.000000
2.662413	14.580823	21.188652	-1.594246	2.149731	2.870989	0.000000	0.297440	0.000000	0.000001	0.000000	0.000000	0.000000
3.108373	16.232241	19.092727	-2.121989	2.530351	3.021996	0.000000	0.380155	0.000000	0.000001	0.000000	0.000000	0.000000
3.657433	18.349875	16.738772	-1.712015	1.782200	3.205452	0.000000	0.287117	0.000000	0.000001	0.000000	0.000000	0.000000
4.206493	19.947835	15.132266	-1.181113	1.160991	3.336349	0.000000	0.188986	0.000000	0.000001	0.000000	0.000000	0.000000
4.755553	20.913250	14.158781	-0.566783	0.622477	3.412366	0.000000	0.087503	0.000000	0.000001	0.000000	0.000000	0.000000
5.304613	21.177927	13.748978	0.087582	0.128301	3.432153	0.000000	-0.015531	0.000000	0.000002	0.000000	0.000000	0.000000
5.603185	21.162884	13.657571	0.018135	0.141922	3.430193	0.000000	-0.006564	0.000000	0.000002	0.000000	0.000000	0.000000
5.936519	21.156046	13.571255	0.002379	0.117024	3.428005	0.000000	-0.006564	0.000000	0.000002	0.000000	0.000000	0.000000
6.269852	21.159712	13.501539	-0.013377	0.092126	3.425817	0.000000	-0.006564	0.000000	0.000002	0.000000	0.000000	0.000000
6.604435	21.173954	13.448253	-0.029192	0.067135	3.423621	0.000000	-0.006564	0.000000	0.000002	0.000000	0.000000	0.000000
6.901758	21.195492	13.414934	-0.098625	0.079977	3.421669	0.000000	0.002376	0.000000	0.000002	0.000000	0.000000	0.000000
7.450818	20.942505	13.587700	0.556660	-0.396491	3.394773	0.000000	-0.100204	0.000000	0.000002	0.000000	0.000000	0.000000
7.999878	19.987369	14.296028	1.172626	-0.901199	3.311959	0.000000	-0.201007	0.000000	0.000002	0.000000	0.000000	0.000000
8.548938	18.397550	15.590372	1.705763	-1.470097	3.174698	0.000000	-0.298244	0.000000	0.000002	0.000000	0.000000	0.000000
9.097998	16.285345	17.562924	2.118413	-2.143708	2.985423	0.000000	-0.390191	0.000000	0.000002	-0.000000	0.000000	0.000000
9.543958	14.637350	19.320616	1.590113	-1.781000	2.829720	0.000000	-0.308486	0.000000	0.000002	-0.000000	0.000000	0.000000
9.984918	13.438576	20.701439	1.138755	-1.338488	2.710936	0.000000	-0.230778	0.000000	0.000002	0.000000	0.000000	0.000000
10.425878	12.613504	21.663555	0.739424	-0.835076	2.625807	0.000000	-0.155699	0.000000	0.000002	0.000000	0.000000	0.000000
10.866838	12.124439	22.163187	0.373875	-0.293668	2.573362	0.000000	-0.082393	0.000000	0.000002	0.000000	0.000000	0.000000
11.309048	11.948900	22.177087	0.054605	0.206657	2.552985	0.000000	-0.016286	0.000000	0.000002	0.000000	0.000000	0.000000
11.606371	11.923850	22.058355	0.029648	0.192678	2.548142	0.000000	-0.016286	0.000000	0.000002	0.000000	0.000000	0.000000
12.086371	11.914727	21.884217	-0.010643	0.170110	2.540325	0.000000	-0.016286	0.000000	0.000002	0.000000	0.000000	0.000000
12.566371	11.944284	21.731745	-0.050934	0.147541	2.532508	0.000000	-0.016286	0.000000	0.000003	0.000000	0.000000	0.000000
13.046371	12.012520	21.600938	-0.091225	0.124973	2.524690	0.000000	-0.016286	0.000000	0.000003	0.000000	0.000000	0.000000
13.526371	12.119435	21.491797	-0.131516	0.102405	2.516873	0.000000	-0.016286	0.000000	0.000003	0.000000	0.000000	0.000000
14.007621	12.265460	21.404122	-0.171911	0.079777	2.509035	0.000000	-0.016286	0.000000	0.000003	0.000000	0.000000	0.000000
14.304943	12.375106	21.360839	-0.166522	0.013417	2.504193	0.000000	-0.022427	0.000000	0.000003	0.000000	0.000000	0.000000
14.745903	12.680636	21.115191	-0.528982	0.541539	2.509935	0.000000	0.048494	0.000000	0.000003	0.000000	0.000000	0.000000
15.186863	13.315236	20.412909	-0.915610	1.045022	2.547042	0.000000	0.119967	0.000000	0.000003	0.000000	0.000000	0.000000
15.627823	14.307899	19.285946	-1.344070	1.500957	2.615936	0.000000	0.192807	0.000000	0.000003	0.000000	0.000000	0.000000
16.068783	15.703977	17.785578	-1.833936	1.888599	2.717403	0.000000	0.267842	0.000000	0.000004	0.000001	0.000000	0.000000
16.514743	17.590906	15.958568	-2.412348	2.191060	2.854293	0.000000	0.346391	0.000000	0.000004	0.000001	0.000000	0.000000
17.063803	20.014214	13.918446	-1.975083	1.546536	3.020753	0.000000	0.259062	0.000000	0.000004	0.000000	0.000000	0.000000
17.612863	21.877438	12.521808	-1.398308	1.012167	3.137930	0.000000	0.167138	0.000000	0.000004	0.000000	0.000000	0.000000
18.161923	23.048969	11.669176	-0.722764	0.549893	3.203746	0.000000	0.072249	0.000000	0.000004	0.000000	0.000000	0.000000
18.710983	23.446055	11.299819	0.003833	0.126787	3.217033	0.000000	-0.023921	0.000000	0.000005	0.000000	0.000000	0.000000
19.009556	23.484161	11.214561	-0.070201	0.129242	3.212400	0.000000	-0.015516	0.000000	0.000005	0.000000	0.000000	0.000000
19.342889	23.535716	11.138473	-0.084465	0.099022	3.207228	0.000000	-0.015516	0.000000	0.000005	0.000000	0.000000	0.000000
19.676223	23.596781	11.082531	-0.098729	0.068802	3.202056	0.000000	-0.015516	0.000000	0.000005	0.000000	0.000000	0.000000
20.010806	23.667931	11.046503	-0.230310	0.093200	3.196885	0.000000	0.000324	0.000000	0.000005	0.000000	0.000000	0.000000
20.308129	23.808817	10.999155	-0.305745	0.094789	3.196981	0.000000	0.008677	0.000000	0.000005	0.000000	0.000000	0.000000
20.857189	23.733926	11.117512	0.441336	-0.311625	3.175527	0.000000	-0.086712	0.000000	0.000005	-0.000000	0.000000	0.000000
21.406249	22.850984	11.691658	1.157242	-0.740236	3.102044	0.000000	-0.180561	0.000000	0.000005	-0.000000	0.000000	0.000000
21.955309	21.222358	12.762488	1.791407	-1.221572	2.977837	0.000000	-0.271209	0.000000	0.000005	-0.000000	0.000000	0.000000
22.504369	18.963086	14.406273	2.299035	-1.789917	2.805108	0.000000	-0.357046	0.000000	0.000004	-0.000000	0.000000	0.000000
22.950329	17.182686	15.881968	1.707345	-1.505154	2.663173	0.000000	-0.279839	0.000000	0.000004	-0.000000	0.000000	0.000000
23.391289	15.906230	17.058481	1.198356	-1.152764	2.556097	0.000000	-0.206274	0.000000	0.000004	-0.000000	0.000000	0.000000
23.832249	15.052915	17.899810	0.744116	-0.747924	2.480912	0.000000	-0.135058	0.000000	0.000004	-0.000000	0.000000	0.000000
24.273209	14.583754	18.367675	0.323873	-0.309054	2.436762	0.000000	-0.065380	0.000000	0.000004	-0.000000	0.000000	0.000000
24.715418	14.477428	18.440543	-0.046158	0.098588	2.423140	0.000000	-0.002389	0.000000	0.000004	0.000000	0.000000	0.000000
25.012741	14.510995	18.386759	-0.066739	0.082308	2.422429	0.000000	-0.002389	0.000000	0.000004	0.000000	0.000000	0.000000
25.346075	14.563179	18.337971	-0.089813	0.064056	2.421633	0.000000	-0.002389	0.000000	0.000004	0.000000	0.000000	0.000000
25.679408	14.630746	18.301350	-0.112886	0.045805	2.420837	0.000000	-0.002389	0.000000	0.000004	0.000000	0.000000	0.000000
26.013991	14.713736	18.277200	-0.016678	-0.120789	2.420013	0.000000	-0.022022	0.000000	0.000004	-0.000000	0.000000	0.000000
26.311314	14.729663	18.353934	-0.000771	-0.182302	2.413465	0.000000	-0.027940	0.000000	0.000004	-0.000000	0.000000	0.000000
26.752274	14.911838	18.315620	-0.413930	0.268859	2.416254	0.000000	0.040604	0.000000	0.000004	0.000000	0.000000	0.000000
27.193234	15.465317	17.883314	-0.845999	0.707786	2.449342	0.000000	0.109610	0.000000	0.000004	0.000000	0.000000	0.000000
27.634194	16.415386	17.076685	-1.316721	1.114510	2.513104	0.000000	0.179865	0.000000	0.000004	0.000000	0.000000	0.000000
28.075154	17.805451	15.932434	-1.847599	1.470524	2.608268	0.000000	0.252168	0.000000	0.000004	0.000000	0.000000	0.000000
28.521114	19.723175	14.485391	-2.467848	1.760544	2.737520	0.000000	0.327786	0.000000	0.000004	0.000000	0.000000	0.000000
29.070174	22.160611	12.872985	-1.945163	1.193456	2.894831	0.000000	0.244389	0.000000	0.000005	0.000000	0.000000	0.000000
29.619234	23.944770	11.833254	-1.285081	0.711376	3.005093	0.000000	0.156658	0.000000	0.000005	0.000000	0.000000	0.000000
30.168294	24.949628	11.292142	-0.534227	0.279966	3.066349	0.000000	0.066147	0.000000	0.000005	0.000000	0.000000	0.000000
30.717354	25.104206	11.211106	0.254362	-0.131504	3.077514	0.000000	-0.025537	0.000000	0.000005	-0.000000	0.000000	0.000000
31.015927	24.995159	11.280176	0.176455	-0.129122	3.072291	0.000000	-0.017496	0.000000	0.000005	-0.000000	0.000000	0.000000
31.349260	24.882107	11.376272	0.162703	-0.159165	3.066459	0.000000	-0.017496	0.000000	0.000005	-0.000000	0.000000	0.000000
31.682593	24.778221	11.492397	0.148952	-0.189208	3.060626	0.000000	-0.017496	0.000000	0.000005	-0.000000	0.000000	0.000000
32.017177	24.683166	11.629098	0.135150	-0.219364	3.054773	0.000000	-0.017496	0.000000	0.000005	-0.000000	0.000000	0.000000
32.314499	24.606447	11.767510	0.058594	-0.215416	3.049571	0.000000	-0.009529	0.000000	0.000005	-0.000000	0.000000	0.000000
32.863559	24.120564	12.243371	0.821102	-0.656383	3.019457	0.000000	-0.100000	0.000000	0.000005	-0.000000	0.000000	0.000000
33.412619	22.824406	13.226145	1.525610	-1.144103	2.940084	0.000000	-0.188698	0.000000	0.000004	-0.000000	0.000000	0.000000
33.961679	20.809525	14.785832	2.122358	-1.713314	2.812860	0.000000	-0.274049	0.000000	0.000004	-0.000001	0.000000	0.000000
34.510739	18.218243	17.033525	2.569192	-2.404561	2.640040	0.000000	-0.354538	0.000000	0.000004	-0.000001	0.000000	0.000000
34.956699	16.203510	19.043953	1.964738	-2.084705	2.498271	0.000000	-0.281611	0.000000	0.000004	-0.000001	0.000000	0.000000
35.397659	14.701218	20.706282	1.455053	-1.670744	2.389473	0.000000	-0.212319	0.000000	0.000003	-0.000000	0.000000	0.000000
35.838619	13.617527	21.968487	1.011845	-1.180766	2.310668	0.000000	-0.145446	0.000000	0.000003	-0.000000	0.000000	0.000000
36.279579	12.902924	22.773138	0.614865	-0.637063	2.260959	0.000000	-0.080229	0.000000	0.000003	-0.000000	0.000000	0.000000
36.721789	12.524070	23.083929	0.276583	-0.121036	2.239752	0.000000	-0.021418	0.000000	0.000003	-0.000000	0.000000	0.000000
37.019112	12.367200	23.159788	0.251026	-0.134105	2.233384	0.000000	-0.021418	0.000000	0.000003	-0.000000	0.000000	0.000000
37.352445	12.209399	23.254075	0.222375	-0.148757	2.226245	0.000000	-0.021418	0.000000	0.000003	-0.000000	0.000000	0.000000
37.685779	12.070700	23.358130	0.193724	-0.163408	2.219106	0.000000	-0.021418	0.000000	0.000003	-0.000000	0.000000	0.000000
38.020362	11.950689	23.472398	0.164965	-0.178115	2.211940	0.000000	-0.021418	0.000000	0.000003	-0.000000	0.000000	0.000000
38.317684	11.860192	23.582199	0.168493	-0.249013	2.205572	0.000000	-0.026826	0.000000	0.000003	-0.000000	0.000000	0.000000
38.758644	11.862854	23.540620	-0.174554	0.342946	2.207670	0.000000	0.036349	0.000000	0.000002	-0.000000	0.000000	0.000000
39.199604	12.170416	22.981894	-0.525575	0.919300	2.237690	0.000000	0.099939	0.000000	0.000002	-0.000000	0.000000	0.000000
39.640564	12.796929	21.931442	-0.900608	1.453827	2.295975	0.000000	0.164667	0.000000	0.000002	-0.000000	0.000000	0.000000
40.081524	13.771016	20.437060	-1.316787	1.922207	2.383188	0.000000	0.231270	0.000000	0.000002	0.000000	0.000000	0.000000
40.527484	15.154747	18.544171	-1.796951	2.304406	2.501794	0.000000	0.300912	0.000000	0.000002	0.000000	0.000000	0.000000
41.076544	16.920727	16.417114	-1.400379	1.592459	2.646484	0.000000	0.225357	0.000000	0.000002	-0.000000	0.000000	0.000000
41.625604	18.193995	15.005360	-0.904890	0.993939	2.748530	0.000000	0.145805	0.000000	0.000002	-0.000000	0.000000	0.000000
42.174664	18.884614	14.208353	-0.345485	0.466214	2.806121	0.000000	0.063667	0.000000	0.000002	-0.000000	0.000000	0.000000
42.723724	18.943802	13.969324	0.238324	-0.028302	2.818237	0.000000	-0.019600	0.000000	0.000002	-0.000000	0.000000	0.000000
43.022297	18.835918	13.970812	0.172505	-0.013179	2.814583	0.000000	-0.012237	0.000000	0.000002	-0.000000	0.000000	0.000000
43.502297	18.682908	13.999958	0.146264	-0.047542	2.808709	0.000000	-0.012237	0.000000	0.000002	-0.000000	0.000000	0.000000
43.982297	18.555091	14.062092	0.120022	-0.081905	2.802836	0.000000	-0.012237	0.000000	0.000002	-0.000000	0.000000	0.000000
44.462297	18.452466	14.157216	0.093781	-0.116269	2.796962	0.000000	-0.012237	0.000000	0.000002	-0.000000	0.000000	0.000000
44.942297	18.375032	14.285328	0.067539	-0.150632	2.791088	0.000000	-0.012237	0.000000	0.000002	-0.000000	0.000000	0.000000
45.423547	18.322914	14.446713	-0.049553	-0.113507	2.785216	0.000000	0.001562	0.000000	0.000002	-0.000000	0.000000	0.000000
45.720870	18.357217	14.520407	-0.113783	-0.096414	2.785681	0.000000	0.008841	0.000000	0.000002	-0.000000	0.000000	0.000000
46.269930	18.173059	14.907176	0.447203	-0.612165	2.767964	0.000000	-0.073281	0.000000	0.000001	-0.000000	0.000000	0.000000
46.818990	17.386651	15.880779	0.976600	-1.171519	2.705449	0.000000	-0.154103	0.000000	0.000001	-0.000000	0.000000	0.000000
47.368050	16.053540	17.510562	1.437014	-1.814318	2.599243	0.000000	-0.232192	0.000000	0.000001	-0.000000	0.000000	0.000000
47.917110	14.267892	19.912613	1.795926	-2.586346	2.451231	0.000000	-0.306162	0.000000	0.000001	-0.000000	0.000000	0.000000
48.363070	12.878214	22.048322	1.331263	-2.182535	2.329986	0.000000	-0.237866	0.000000	0.000001	-0.000000	0.000000	0.000000
48.804030	11.884333	23.758357	0.931190	-1.680691	2.239556	0.000000	-0.172676	0.000000	0.000001	-0.000000	0.000000	0.000000
49.244990	11.223261	24.990267	0.573661	-1.102377	2.177412	0.000000	-0.109452	0.000000	0.000000	-0.000000	0.000000	0.000000
49.685950	10.864798	25.687999	0.242340	-0.473905	2.142846	0.000000	-0.047475	0.000000	0.000000	-0.000000	0.000000	0.000000
50.128160	10.792693	25.819525	-0.051559	0.112763	2.135475	0.000000	0.008724	0.000000	0.000000	-0.000000	0.000000	0.000000
50.425482	10.831565	25.755939	-0.079181	0.101101	2.138069	0.000000	0.008724	0.000000	0.000000	-0.000000	0.000000	0.000000
50.758816	10.894674	25.692897	-0.110148	0.088026	2.140977	0.000000	0.008724	0.000000	-0.000000	-0.000000	0.000000	0.000000
51.092149	10.978429	25.638570	-0.141115	0.074952	2.143885	0.000000	0.008724	0.000000	-0.000000	-0.000000	0.000000	0.000000
51.426732	11.083033	25.593325	-0.082285	-0.145797	2.146783	0.000000	-0.008692	0.000000	-0.000000	-0.000000	0.000000	0.000000
51.724055	11.139994	25.683550	-0.081975	-0.220645	2.144198	0.000000	-0.013950	0.000000	-0.000000	-0.000000	0.000000	0.000000
52.165015	11.357716	25.592426	-0.413644	0.426507	2.151635	0.000000	0.047712	0.000000	-0.000000	-0.000000	0.000000	0.000000
52.605975	11.875140	24.936976	-0.764211	1.054253	2.186357	0.000000	0.109918	0.000000	-0.000001	-0.000000	0.000000	0.000000
53.046935	12.715906	23.747022	-1.149693	1.634031	2.248758	0.000000	0.173375	0.000000	-0.000001	-0.000000	0.000000	0.000000
53.487895	13.918424	22.076707	-1.587700	2.139462	2.339550	0.000000	0.238807	0.000000	-0.000001	-0.000000	0.000000	0.000000
53.933855	15.558246	19.977052	-2.102481	2.548884	2.461271	0.000000	0.307358	0.000000	-0.000001	-0.000000	0.000000	0.000000
54.482915	17.669427	17.614476	-1.719839	1.779461	2.609849	0.000000	0.233053	0.000000	-0.000001	-0.000000	0.000000	0.000000
55.031975	19.290821	16.022678	-1.215716	1.136785	2.716433	0.000000	0.154615	0.000000	-0.000001	-0.000000	0.000000	0.000000
55.581035	20.307901	15.088276	-0.625722	0.575080	2.779132	0.000000	0.073434	0.000000	-0.000002	-0.000000	0.000000	0.000000
56.130095	20.648827	14.744717	0.008471	0.054336	2.796833	0.000000	-0.009050	0.000000	-0.000002	-0.000000	0.000000	0.000000
56.428668	20.680312	14.695363	-0.059971	0.072438	2.796313	0.000000	-0.001742	0.000000	-0.000002	-0.000000	0.000000	0.000000
56.762001	20.725685	14.654671	-0.076147	0.049636	2.795732	0.000000	-0.001742	0.000000	-0.000002	-0.000000	0.000000	0.000000
57.095334	20.781841	14.629181	-0.092323	0.026834	2.795152	0.000000	-0.001742	0.000000	-0.000002	-0.000000	0.000000	0.000000
57.429918	20.849054	14.618882	-0.108560	0.003947	2.794569	0.000000	-0.001742	0.000000	-0.000002	-0.000000	0.000000	0.000000
57.727240	20.917899	14.622582	-0.177645	0.021815	2.794051	0.000000	0.005559	0.000000	-0.000002	-0.000000	0.000000	0.000000
58.276300	20.756065	14.879475	0.470647	-0.492454	2.774463	0.000000	-0.076804	0.000000	-0.000002	-0.000000	0.000000	0.000000
58.825360	19.896452	15.716928	1.085694	-1.041799	2.709961	0.000000	-0.157805	0.000000	-0.000002	-0.000000	0.000000	0.000000
59.374420	18.399779	17.194592	1.624053	-1.665349	2.601689	0.000000	-0.236006	0.000000	-0.000002	0.000000	0.000000	0.000000
59.923480	16.371762	19.417717	2.047698	-2.407518	2.451567	0.000000	-0.310022	0.000000	-0.000002	0.000000	0.000000	0.000000
60.369440	14.784380	21.393705	1.524379	-2.004645	2.328600	0.000000	-0.241739	0.000000	-0.000002	0.000000	0.000000	0.000000
60.810400	13.642527	22.950299	1.074915	-1.511933	2.236451	0.000000	-0.176607	0.000000	-0.000002	-0.000000	0.000000	0.000000
61.251360	12.873994	24.040251	0.674561	-0.950430	2.172552	0.000000	-0.113486	0.000000	-0.000002	-0.000000	0.000000	0.000000
61.692320	12.443669	24.613968	0.305025	-0.345683	2.136176	0.000000	-0.051657	0.000000	-0.000002	-0.000000	0.000000	0.000000
62.134530	12.331941	24.644812	-0.020434	0.214300	2.126914	0.000000	0.004367	0.000000	-0.000002	-0.000000	0.000000	0.000000
62.431853	12.351264	24.521131	-0.044554	0.201682	2.128212	0.000000	0.004367	0.000000	-0.000002	-0.000000	0.000000	0.000000
62.765186	12.389981	24.391392	-0.071596	0.187535	2.129668	0.000000	0.004367	0.000000	-0.000003	-0.000000	0.000000	0.000000
63.098520	12.446725	24.271084	-0.098637	0.173388	2.131123	0.000000	0.004367	0.000000	-0.000003	-0.000000	0.000000	0.000000
63.433103	12.521811	24.159810	-0.125780	0.159189	2.132584	0.000000	0.004367	0.000000	-0.000003	-0.000000	0.000000	0.000000
63.730426	12.603776	24.068900	-0.118991	0.087545	2.133883	0.000000	-0.000866	0.000000	-0.000003	-0.000000	0.000000	0.000000
64.171386	12.869177	23.726610	-0.485163	0.685740	2.147041	0.000000	0.060604	0.000000	-0.000003	-0.000000	0.000000	0.000000
64.612346	13.466029	22.868555	-0.873501	1.252735	2.187432	0.000000	0.122764	0.000000	-0.000003	-0.000000	0.000000	0.000000
65.053306	14.421601	21.533777	-1.301746	1.762731	2.255514	0.000000	0.186322	0.000000	-0.000003	-0.000000	0.000000	0.000000
65.494266	15.779550	19.783005	-1.789465	2.192524	2.352064	0.000000	0.252003	0.000000	-0.000003	-0.000001	0.000000	0.000000
65.940226	17.625084	17.671118	-2.363633	2.523316	2.479754	0.000000	0.320955	0.000000	-0.000004	-0.000001	0.000000	0.000000
66.489286	19.990743	15.308515	-1.919426	1.805081	2.635612	0.000000	0.245934	0.000000	-0.000004	-0.000000	0.000000	0.000000
67.038346	21.790821	13.659812	-1.339640	1.215418	2.749018	0.000000	0.166550	0.000000	-0.000004	-0.000000	0.000000	0.000000
67.587406	22.898169	12.607576	-0.665229	0.712326	2.817961	0.000000	0.084212	0.000000	-0.000004	-0.000000	0.000000	0.000000
68.136466	23.234570	12.076859	0.056171	0.259971	2.841219	0.000000	0.000380	0.000000	-0.000004	-0.000000	0.000000	0.000000
68.435038	23.241117	11.910784	-0.017390	0.264703	2.843549	0.000000	0.007804	0.000000	-0.000004	-0.000000	0.000000	0.000000
68.768372	23.257493	11.744298	-0.031736	0.234757	2.846150	0.000000	0.007804	0.000000	-0.000004	-0.000000	0.000000	0.000000
69.101705	23.283432	11.597775	-0.046083	0.204810	2.848752	0.000000	0.007804	0.000000	-0.000004	-0.000000	0.000000	0.000000
69.436288	23.319088	11.470781	-0.060484	0.174751	2.851363	0.000000	0.007804	0.000000	-0.000004	-0.000000	0.000000	0.000000
69.733611	23.358859	11.374808	-0.134315	0.177761	2.853683	0.000000	0.015260	0.000000	-0.000005	-0.000000	0.000000	0.000000
70.282671	23.105184	11.407348	0.593597	-0.237375	2.838878	0.000000	-0.069112	0.000000	-0.000005	0.000000	0.000000	0.000000
