#ParticleID	Turn	x[m]	xp	y[m]	yp	z[m]	dE[GeV]# s	beta_x	beta_y	alpha_x	alpha_y	D_x	D_y	D_px	D_py	orbit_x	orbit_px	orbit_y	orbit_py
0.300000	11.823689	24.978222	-0.012256	-0.027612	2.618142	0.000000	0.000001	0.000000	0.000000	0.000001	0.000000	0.000000
0.601250	11.838750	24.998494	-0.037739	-0.039682	2.618142	0.000000	0.000001	0.000000	0.000000	0.000001	0.000000	0.000000
0.898573	11.868669	25.025632	-0.033783	-0.112964	2.618142	0.000000	-0.006420	0.000000	0.000000	0.000001	0.000000	0.000000
1.339533	12.050715	24.847678	-0.380623	0.514990	2.631605	0.000000	0.067538	0.000000	0.000001	0.000001	0.000000	0.000000
1.780493	12.545129	24.124175	-0.744852	1.119512	2.677818	0.000000	0.142265	0.000000	0.000001	0.000001	0.000000	0.000000
2.221453	13.374500	22.888043	-1.143112	1.673097	2.757308	0.000000	0.218613	0.000000	0.000001	0.000001	0.000000	0.000000
2.662413	14.576718	21.195524	-1.593597	2.150557	2.870981	0.000000	0.297450	0.000000	0.000001	0.000001	0.000000	0.000000
3.108373	16.227490	19.098803	-2.121184	2.531300	3.021993	0.000000	0.380165	0.000000	0.000002	0.000001	0.000000	0.000000
3.657433	18.344301	16.743941	-1.711330	1.782913	3.205454	0.000000	0.287127	0.000000	0.000002	0.000001	0.000000	0.000000
4.206493	19.941599	15.136758	-1.180597	1.161520	3.336357	0.000000	0.188996	0.000000	0.000002	0.000001	0.000000	0.000000
4.755553	20.906556	14.162776	-0.566472	0.622859	3.412379	0.000000	0.087513	0.000000	0.000003	0.000000	0.000000	0.000000
5.304613	21.171015	13.752622	0.087666	0.128562	3.432171	0.000000	-0.015522	0.000000	0.000003	0.000000	0.000000	0.000000
5.603185	21.155911	13.661052	0.018234	0.142197	3.430214	0.000000	-0.006555	0.000000	0.000003	0.000000	0.000000	0.000000
5.936519	21.149009	13.574552	0.002473	0.117303	3.428029	0.000000	-0.006555	0.000000	0.000003	0.000000	0.000000	0.000000
6.269852	21.152614	13.504648	-0.013289	0.092409	3.425844	0.000000	-0.006555	0.000000	0.000003	0.000000	0.000000	0.000000
6.604435	21.166800	13.451171	-0.029109	0.067422	3.423650	0.000000	-0.006555	0.000000	0.000003	0.000000	0.000000	0.000000
6.901758	21.188289	13.417680	-0.098527	0.080275	3.421701	0.000000	0.002385	0.000000	0.000003	0.000000	0.000000	0.000000
7.450818	20.935329	13.590159	0.556516	-0.396264	3.394809	0.000000	-0.100196	0.000000	0.000003	0.000000	0.000000	0.000000
7.999878	19.980480	14.298271	1.172250	-0.901029	3.312000	0.000000	-0.201000	0.000000	0.000004	0.000000	0.000000	0.000000
8.548938	18.391190	15.592454	1.705181	-1.469972	3.174742	0.000000	-0.298239	0.000000	0.000004	0.000000	0.000000	0.000000
9.097998	16.279718	17.564889	2.117667	-2.143618	2.985470	0.000000	-0.390187	0.000000	0.000004	-0.000000	0.000000	0.000000
9.543958	14.632312	19.322466	1.589532	-1.780835	2.829768	0.000000	-0.308481	0.000000	0.000004	-0.000000	0.000000	0.000000
9.984918	13.433989	20.703115	1.138311	-1.338257	2.710987	0.000000	-0.230772	0.000000	0.000004	0.000000	0.000000	0.000000
10.425878	12.609255	21.665002	0.739097	-0.834789	2.625860	0.000000	-0.155691	0.000000	0.000004	0.000000	0.000000	0.000000
10.866838	12.120433	22.164362	0.373650	-0.293339	2.573419	0.000000	-0.082384	0.000000	0.000004	0.000000	0.000000	0.000000
11.309048	11.945053	22.177956	0.054461	0.207012	2.553046	0.000000	-0.016275	0.000000	0.000004	0.000000	0.000000	0.000000
11.606371	11.920090	22.059014	0.029496	0.193032	2.548207	0.000000	-0.016275	0.000000	0.000004	0.000000	0.000000	0.000000
12.086371	11.911120	21.884537	-0.010807	0.170461	2.540395	0.000000	-0.016275	0.000000	0.000004	0.000000	0.000000	0.000000
12.566371	11.940840	21.731729	-0.051110	0.147891	2.532582	0.000000	-0.016275	0.000000	0.000004	0.000000	0.000000	0.000000
13.046371	12.009252	21.600588	-0.091414	0.125320	2.524770	0.000000	-0.016275	0.000000	0.000005	0.000000	0.000000	0.000000
13.526371	12.116354	21.491114	-0.131717	0.102749	2.516958	0.000000	-0.016275	0.000000	0.000005	0.000000	0.000000	0.000000
14.007621	12.262578	21.403109	-0.172125	0.080120	2.509125	0.000000	-0.016275	0.000000	0.000005	0.000000	0.000000	0.000000
14.304943	12.372354	21.359622	-0.166750	0.013762	2.504286	0.000000	-0.022416	0.000000	0.000005	0.000000	0.000000	0.000000
14.745903	12.678061	21.113687	-0.529155	0.541843	2.510033	0.000000	0.048507	0.000000	0.000005	0.000000	0.000000	0.000000
15.186863	13.312792	20.411159	-0.915736	1.045272	2.547146	0.000000	0.119983	0.000000	0.000005	0.000001	0.000000	0.000000
15.627823	14.305547	19.284004	-1.344154	1.501141	2.616048	0.000000	0.192825	0.000000	0.000006	0.000001	0.000000	0.000000
16.068783	15.701682	17.783505	-1.833983	1.888710	2.717524	0.000000	0.267864	0.000000	0.000006	0.000001	0.000000	0.000000
16.514743	17.588637	15.956432	-2.412358	2.191091	2.854424	0.000000	0.346415	0.000000	0.000007	0.000001	0.000000	0.000000
17.063803	20.012012	13.916254	-1.975194	1.546605	3.020895	0.000000	0.259082	0.000000	0.000007	0.000001	0.000000	0.000000
17.612863	21.875411	12.519517	-1.398512	1.012281	3.138082	0.000000	0.167153	0.000000	0.000008	0.000001	0.000000	0.000000
18.161923	23.047211	11.666732	-0.723046	0.550059	3.203904	0.000000	0.072260	0.000000	0.000008	0.000000	0.000000	0.000000
18.710983	23.444642	11.297158	0.003492	0.127017	3.217196	0.000000	-0.023916	0.000000	0.000008	0.000000	0.000000	0.000000
19.009556	23.482949	11.211770	-0.070538	0.129456	3.212565	0.000000	-0.015510	0.000000	0.000008	0.000000	0.000000	0.000000
19.342889	23.534729	11.135543	-0.084804	0.099227	3.207395	0.000000	-0.015510	0.000000	0.000008	0.000000	0.000000	0.000000
19.676223	23.596020	11.079468	-0.099069	0.068998	3.202224	0.000000	-0.015510	0.000000	0.000008	0.000000	0.000000	0.000000
20.010806	23.667398	11.043312	-0.230649	0.093371	3.197055	0.000000	0.000330	0.000000	0.000008	0.000000	0.000000	0.000000
20.308129	23.808486	10.995864	-0.306083	0.094941	3.197153	0.000000	0.008683	0.000000	0.000008	0.000000	0.000000	0.000000
20.857189	23.733971	11.114003	0.440994	-0.311377	3.175700	0.000000	-0.086711	0.000000	0.000008	-0.000000	0.000000	0.000000
21.406249	22.851395	11.687816	1.156921	-0.739874	3.102217	0.000000	-0.180566	0.000000	0.000008	-0.000000	0.000000	0.000000
21.955309	21.223100	12.758174	1.791128	-1.221070	2.978005	0.000000	-0.271219	0.000000	0.000008	-0.000001	0.000000	0.000000
22.504369	18.964100	14.401316	2.298820	-1.789240	2.805269	0.000000	-0.357061	0.000000	0.000008	-0.000001	0.000000	0.000000
22.950329	17.183891	15.876456	1.707130	-1.504591	2.663328	0.000000	-0.279850	0.000000	0.000007	-0.000001	0.000000	0.000000
23.391289	15.907629	17.052532	1.198130	-1.152340	2.556248	0.000000	-0.206281	0.000000	0.000007	-0.000000	0.000000	0.000000
23.832249	15.054521	17.893555	0.743870	-0.747658	2.481061	0.000000	-0.135062	0.000000	0.000007	-0.000000	0.000000	0.000000
24.273209	14.585591	18.361261	0.323595	-0.308959	2.436910	0.000000	-0.065380	0.000000	0.000007	-0.000000	0.000000	0.000000
24.715418	14.479530	18.434122	-0.046477	0.098526	2.423289	0.000000	-0.002386	0.000000	0.000007	0.000000	0.000000	0.000000
25.012741	14.513285	18.380376	-0.067055	0.082240	2.422579	0.000000	-0.002386	0.000000	0.000007	0.000000	0.000000	0.000000
25.346075	14.565679	18.331635	-0.090126	0.063983	2.421784	0.000000	-0.002386	0.000000	0.000007	0.000000	0.000000	0.000000
25.679408	14.633453	18.295066	-0.113196	0.045725	2.420989	0.000000	-0.002386	0.000000	0.000007	0.000000	0.000000	0.000000
26.013991	14.716650	18.270971	-0.016963	-0.120825	2.420166	0.000000	-0.022020	0.000000	0.000007	-0.000000	0.000000	0.000000
26.311314	14.732745	18.347727	-0.001045	-0.182327	2.413619	0.000000	-0.027938	0.000000	0.000007	-0.000000	0.000000	0.000000
26.752274	14.915196	18.309510	-0.414283	0.268666	2.416410	0.000000	0.040610	0.000000	0.000007	0.000000	0.000000	0.000000
27.193234	15.469028	17.877444	-0.846450	0.707435	2.449502	0.000000	0.109620	0.000000	0.000007	0.000000	0.000000	0.000000
27.634194	16.419544	17.071189	-1.317288	1.114016	2.513270	0.000000	0.179879	0.000000	0.000007	0.000001	0.000000	0.000000
28.075154	17.810170	15.927429	-1.848309	1.469910	2.608441	0.000000	0.252187	0.000000	0.000007	0.000001	0.000000	0.000000
28.521114	19.728603	14.480976	-2.468734	1.759837	2.737702	0.000000	0.327810	0.000000	0.000008	0.000001	0.000000	0.000000
29.070174	22.166943	12.869251	-1.945911	1.192916	2.895024	0.000000	0.244407	0.000000	0.000008	0.000001	0.000000	0.000000
29.619234	23.951823	11.830041	-1.285638	0.710964	3.005293	0.000000	0.156669	0.000000	0.000008	0.000000	0.000000	0.000000
30.168294	24.957169	11.289325	-0.534554	0.279652	3.066554	0.000000	0.066151	0.000000	0.000008	0.000000	0.000000	0.000000
30.717354	25.111968	11.208590	0.254289	-0.131741	3.077720	0.000000	-0.025539	0.000000	0.000008	-0.000000	0.000000	0.000000
31.015927	25.002975	11.277809	0.176367	-0.129375	3.072495	0.000000	-0.017498	0.000000	0.000008	-0.000000	0.000000	0.000000
31.349260	24.889979	11.374076	0.162621	-0.159426	3.066662	0.000000	-0.017498	0.000000	0.000008	-0.000000	0.000000	0.000000
31.682593	24.786147	11.490377	0.148874	-0.189478	3.060830	0.000000	-0.017498	0.000000	0.000008	-0.000000	0.000000	0.000000
32.017177	24.691142	11.627262	0.135076	-0.219642	3.054975	0.000000	-0.017498	0.000000	0.000008	-0.000000	0.000000	0.000000
32.314499	24.614465	11.765840	0.058506	-0.215706	3.049773	0.000000	-0.009530	0.000000	0.000008	-0.000000	0.000000	0.000000
32.863559	24.128532	12.242001	0.821281	-0.656642	3.019657	0.000000	-0.100008	0.000000	0.000008	-0.000000	0.000000	0.000000
33.412619	22.832035	13.225051	1.526044	-1.144349	2.940278	0.000000	-0.188712	0.000000	0.000008	-0.000001	0.000000	0.000000
33.961679	20.816552	14.785009	2.123015	-1.713565	2.813044	0.000000	-0.274069	0.000000	0.000007	-0.000001	0.000000	0.000000
34.510739	18.224446	17.032989	2.570026	-2.404835	2.640211	0.000000	-0.354565	0.000000	0.000007	-0.000001	0.000000	0.000000
34.956699	16.209054	19.043682	1.965387	-2.085026	2.498432	0.000000	-0.281633	0.000000	0.000006	-0.000001	0.000000	0.000000
35.397659	14.706259	20.706309	1.455548	-1.671097	2.389625	0.000000	-0.212337	0.000000	0.000006	-0.000001	0.000000	0.000000
35.838619	13.622189	21.968833	1.012209	-1.181134	2.310813	0.000000	-0.145460	0.000000	0.000006	-0.000001	0.000000	0.000000
36.279579	12.907316	22.773812	0.615115	-0.637431	2.261098	0.000000	-0.080239	0.000000	0.000005	-0.000001	0.000000	0.000000
36.721789	12.528287	23.084921	0.276740	-0.121388	2.239888	0.000000	-0.021425	0.000000	0.000005	-0.000000	0.000000	0.000000
37.019112	12.371322	23.160990	0.251190	-0.134457	2.233518	0.000000	-0.021425	0.000000	0.000005	-0.000000	0.000000	0.000000
37.352445	12.213410	23.255512	0.222546	-0.149110	2.226377	0.000000	-0.021425	0.000000	0.000005	-0.000000	0.000000	0.000000
37.685779	12.074594	23.359802	0.193902	-0.163762	2.219235	0.000000	-0.021425	0.000000	0.000005	-0.000000	0.000000	0.000000
38.020362	11.954461	23.474307	0.165150	-0.178469	2.212067	0.000000	-0.021425	0.000000	0.000005	-0.000000	0.000000	0.000000
38.317684	11.863852	23.584319	0.168693	-0.249372	2.205697	0.000000	-0.026834	0.000000	0.000004	-0.000000	0.000000	0.000000
38.758644	11.866374	23.543031	-0.174434	0.342648	2.207792	0.000000	0.036345	0.000000	0.000004	-0.000000	0.000000	0.000000
39.199604	12.173864	22.984535	-0.525531	0.919077	2.237811	0.000000	0.099938	0.000000	0.000004	-0.000000	0.000000	0.000000
39.640564	12.800371	21.934243	-0.900638	1.453689	2.296096	0.000000	0.164668	0.000000	0.000004	-0.000000	0.000000	0.000000
40.081524	13.774518	20.439943	-1.316893	1.922159	2.383310	0.000000	0.231275	0.000000	0.000004	0.000000	0.000000	0.000000
40.527484	15.158379	18.547055	-1.797137	2.304453	2.501920	0.000000	0.300921	0.000000	0.000004	0.000000	0.000000	0.000000
41.076544	16.924490	16.419984	-1.400430	1.592436	2.646613	0.000000	0.225362	0.000000	0.000004	0.000000	0.000000	0.000000
41.625604	18.197738	15.008294	-0.904802	0.993845	2.748660	0.000000	0.145805	0.000000	0.000004	-0.000000	0.000000	0.000000
42.174664	18.888187	14.211432	-0.345264	0.466043	2.806250	0.000000	0.063663	0.000000	0.000004	-0.000000	0.000000	0.000000
42.723724	18.947067	13.972639	0.238661	-0.028564	2.818362	0.000000	-0.019609	0.000000	0.000004	-0.000000	0.000000	0.000000
43.022297	18.838986	13.974277	0.172836	-0.013427	2.814706	0.000000	-0.012245	0.000000	0.000004	-0.000000	0.000000	0.000000
43.502297	18.685659	14.003657	0.146595	-0.047782	2.808829	0.000000	-0.012245	0.000000	0.000004	-0.000000	0.000000	0.000000
43.982297	18.557523	14.066018	0.120355	-0.082137	2.802951	0.000000	-0.012245	0.000000	0.000003	-0.000000	0.000000	0.000000
44.462297	18.454577	14.161360	0.094115	-0.116492	2.797074	0.000000	-0.012245	0.000000	0.000003	-0.000000	0.000000	0.000000
44.942297	18.376822	14.289683	0.067875	-0.150847	2.791196	0.000000	-0.012245	0.000000	0.000003	-0.000000	0.000000	0.000000
45.423547	18.324381	14.451271	-0.049223	-0.113691	2.785321	0.000000	0.001555	0.000000	0.000003	-0.000000	0.000000	0.000000
45.720870	18.358487	14.525073	-0.113454	-0.096581	2.785783	0.000000	0.008833	0.000000	0.000003	-0.000000	0.000000	0.000000
46.269930	18.173948	14.912104	0.447564	-0.612479	2.768061	0.000000	-0.073292	0.000000	0.000003	-0.000000	0.000000	0.000000
46.818990	17.387135	15.886142	0.976969	-1.172002	2.705539	0.000000	-0.154117	0.000000	0.000002	-0.000001	0.000000	0.000000
47.368050	16.053627	17.516564	1.437366	-1.815005	2.599325	0.000000	-0.232208	0.000000	0.000002	-0.000001	0.000000	0.000000
47.917110	14.267614	19.919502	1.796234	-2.587286	2.451304	0.000000	-0.306181	0.000000	0.000002	-0.000001	0.000000	0.000000
48.363070	12.877672	22.055985	1.331548	-2.183324	2.330051	0.000000	-0.237883	0.000000	0.000001	-0.000001	0.000000	0.000000
48.804030	11.883545	23.766636	0.931466	-1.681293	2.239614	0.000000	-0.172691	0.000000	0.000001	-0.000001	0.000000	0.000000
49.244990	11.222230	24.998984	0.573939	-1.102765	2.177463	0.000000	-0.109466	0.000000	0.000001	-0.000001	0.000000	0.000000
49.685950	10.863515	25.696957	0.242634	-0.474062	2.142891	0.000000	-0.047488	0.000000	0.000001	-0.000001	0.000000	0.000000
50.128160	10.791138	25.828517	-0.051239	0.112822	2.135515	0.000000	0.008712	0.000000	0.000000	-0.000001	0.000000	0.000000
50.425482	10.829821	25.764894	-0.078864	0.101164	2.138105	0.000000	0.008712	0.000000	0.000000	-0.000001	0.000000	0.000000
50.758816	10.892721	25.701808	-0.109835	0.088094	2.141010	0.000000	0.008712	0.000000	-0.000000	-0.000001	0.000000	0.000000
51.092149	10.976268	25.647435	-0.140806	0.075024	2.143914	0.000000	0.008712	0.000000	-0.000000	-0.000001	0.000000	0.000000
51.426732	11.080666	25.602140	-0.081999	-0.145792	2.146807	0.000000	-0.008704	0.000000	-0.000000	-0.000001	0.000000	0.000000
51.724055	11.137458	25.692361	-0.081699	-0.220657	2.144220	0.000000	-0.013962	0.000000	-0.000001	-0.000001	0.000000	0.000000
52.165015	11.354909	25.601145	-0.413303	0.426727	2.151652	0.000000	0.047701	0.000000	-0.000001	-0.000001	0.000000	0.000000
52.605975	11.871998	24.945402	-0.763790	1.054696	2.186368	0.000000	0.109907	0.000000	-0.000001	-0.000001	0.000000	0.000000
53.046935	12.712350	23.754966	-1.149172	1.634676	2.248764	0.000000	0.173364	0.000000	-0.000001	-0.000001	0.000000	0.000000
53.487895	13.914356	22.084002	-1.587056	2.140281	2.339552	0.000000	0.238796	0.000000	-0.000002	-0.000001	0.000000	0.000000
53.933855	15.553537	19.983553	-2.101682	2.549839	2.461268	0.000000	0.307347	0.000000	-0.000002	-0.000001	0.000000	0.000000
54.482915	17.663900	17.620069	-1.719159	1.780171	2.609840	0.000000	0.233043	0.000000	-0.000002	-0.000001	0.000000	0.000000
55.031975	19.284635	16.027602	-1.215203	1.137300	2.716418	0.000000	0.154604	0.000000	-0.000002	-0.000001	0.000000	0.000000
55.581035	20.301261	15.092726	-0.625412	0.575436	2.779111	0.000000	0.073424	0.000000	-0.000003	-0.000000	0.000000	0.000000
56.130095	20.641968	14.748851	0.008556	0.054559	2.796808	0.000000	-0.009059	0.000000	-0.000003	-0.000000	0.000000	0.000000
56.428668	20.673393	14.699356	-0.059873	0.072677	2.796285	0.000000	-0.001751	0.000000	-0.000003	-0.000000	0.000000	0.000000
56.762001	20.718703	14.658503	-0.076055	0.049880	2.795701	0.000000	-0.001751	0.000000	-0.000003	-0.000000	0.000000	0.000000
57.095334	20.774800	14.632848	-0.092236	0.027084	2.795118	0.000000	-0.001751	0.000000	-0.000003	-0.000000	0.000000	0.000000
57.429918	20.841955	14.622381	-0.108478	0.004202	2.794532	0.000000	-0.001751	0.000000	-0.000003	-0.000000	0.000000	0.000000
57.727240	20.910753	14.625928	-0.177549	0.022084	2.794011	0.000000	0.005549	0.000000	-0.000004	-0.000000	0.000000	0.000000
58.276300	20.748947	14.882576	0.470502	-0.492276	2.774419	0.000000	-0.076812	0.000000	-0.000004	-0.000000	0.000000	0.000000
58.825360	19.889621	15.719878	1.085319	-1.041699	2.709913	0.000000	-0.157811	0.000000	-0.000004	-0.000000	0.000000	0.000000
59.374420	18.393473	17.197473	1.623475	-1.665321	2.601638	0.000000	-0.236011	0.000000	-0.000004	-0.000000	0.000000	0.000000
59.923480	16.366185	19.420606	2.046957	-2.407560	2.451513	0.000000	-0.310025	0.000000	-0.000004	0.000000	0.000000	0.000000
60.369440	14.779389	21.396590	1.523802	-2.004593	2.328545	0.000000	-0.241743	0.000000	-0.000004	0.000000	0.000000	0.000000
60.810400	13.637984	22.953097	1.074473	-1.511790	2.236393	0.000000	-0.176612	0.000000	-0.000004	-0.000000	0.000000	0.000000
61.251360	12.869788	24.042885	0.674235	-0.950203	2.172492	0.000000	-0.113493	0.000000	-0.000004	-0.000000	0.000000	0.000000
61.692320	12.439705	24.616368	0.304800	-0.345382	2.136112	0.000000	-0.051666	0.000000	-0.000004	-0.000000	0.000000	0.000000
62.134530	12.328136	24.646917	-0.020578	0.214656	2.126846	0.000000	0.004356	0.000000	-0.000004	-0.000000	0.000000	0.000000
62.431853	12.347546	24.523024	-0.044705	0.202037	2.128141	0.000000	0.004356	0.000000	-0.000004	-0.000000	0.000000	0.000000
62.765186	12.386366	24.393049	-0.071755	0.187889	2.129593	0.000000	0.004356	0.000000	-0.000004	-0.000000	0.000000	0.000000
63.098520	12.443220	24.272505	-0.098805	0.173742	2.131045	0.000000	0.004356	0.000000	-0.000005	-0.000000	0.000000	0.000000
63.433103	12.518421	24.160994	-0.125956	0.159541	2.132503	0.000000	0.004356	0.000000	-0.000005	-0.000000	0.000000	0.000000
63.730426	12.600494	24.069876	-0.119183	0.087893	2.133798	0.000000	-0.000877	0.000000	-0.000005	-0.000000	0.000000	0.000000
64.171386	12.866033	23.727270	-0.485285	0.686105	2.146952	0.000000	0.060591	0.000000	-0.000005	-0.000000	0.000000	0.000000
64.612346	13.462963	22.868891	-0.873558	1.253100	2.187336	0.000000	0.122749	0.000000	-0.000005	-0.000001	0.000000	0.000000
65.053306	14.418558	21.533797	-1.301742	1.763080	2.255412	0.000000	0.186305	0.000000	-0.000005	-0.000001	0.000000	0.000000
65.494266	15.776476	19.782731	-1.789399	2.192841	2.351954	0.000000	0.251982	0.000000	-0.000006	-0.000001	0.000000	0.000000
65.940226	17.621921	17.670582	-2.363501	2.523585	2.479634	0.000000	0.320932	0.000000	-0.000006	-0.000001	0.000000	0.000000
66.489286	19.987502	15.307697	-1.919416	1.805327	2.635480	0.000000	0.245914	0.000000	-0.000007	-0.000001	0.000000	0.000000
67.038346	21.787638	13.658728	-1.339754	1.215659	2.748877	0.000000	0.166535	0.000000	-0.000007	-0.000001	0.000000	0.000000
67.587406	22.895176	12.606222	-0.665459	0.712579	2.817813	0.000000	0.084202	0.000000	-0.000007	-0.000000	0.000000	0.000000
68.136466	23.231885	12.075212	0.055841	0.260255	2.841067	0.000000	0.000375	0.000000	-0.000008	-0.000000	0.000000	0.000000
68.435038	23.238627	11.908972	-0.017715	0.264976	2.843395	0.000000	0.007799	0.000000	-0.000008	-0.000000	0.000000	0.000000
68.768372	23.255220	11.742306	-0.032064	0.235021	2.845995	0.000000	0.007799	0.000000	-0.000008	-0.000000	0.000000	0.000000
69.101705	23.281378	11.595611	-0.046412	0.205065	2.848594	0.000000	0.007799	0.000000	-0.000008	-0.000000	0.000000	0.000000
69.436288	23.317254	11.468448	-0.060814	0.174998	2.851204	0.000000	0.007799	0.000000	-0.000008	-0.000000	0.000000	0.000000
69.733611	23.357223	11.372331	-0.134645	0.177994	2.853522	0.000000	0.015255	0.000000	-0.000008	-0.000000	0.000000	0.000000
70.282671	23.103936	11.404576	0.593223	-0.237067	2.838715	0.000000	-0.069112	0.000000	-0.000008	0.000000	0.000000	0.000000
