#ParticleID	Turn	x[m]	xp	y[m]	yp	z[m]	dE[GeV]# s	beta_x	beta_y	alpha_x	alpha_y	D_x	D_y	D_px	D_py	orbit_x	orbit_px	orbit_y	orbit_py
0.300000	11.831605	24.948899	-0.013327	-0.027761	2.618282	0.000000	-0.000053	0.000000	0.000001	0.000000	0.000000	0.000000
0.601250	11.847306	24.969265	-0.038793	-0.039845	2.618266	0.000000	-0.000053	0.000000	0.000001	0.000000	0.000000	0.000000
0.898573	11.877847	24.996505	-0.034799	-0.113070	2.618250	0.000000	-0.006474	0.000000	0.000001	0.000000	0.000000	0.000000
1.339533	12.060888	24.818984	-0.381874	0.514117	2.631689	0.000000	0.067487	0.000000	0.000001	0.000000	0.000000	0.000000
1.780493	12.556530	24.096576	-0.746396	1.117911	2.677880	0.000000	0.142216	0.000000	0.000001	0.000000	0.000000	0.000000
2.221453	13.387416	22.862150	-1.145019	1.670842	2.757350	0.000000	0.218565	0.000000	0.000001	0.000000	0.000000	0.000000
2.662413	14.591507	21.171871	-1.595954	2.147750	2.871002	0.000000	0.297403	0.000000	0.000001	0.000000	0.000000	0.000000
3.108373	16.244624	19.077855	-2.124104	2.528068	3.021993	0.000000	0.380118	0.000000	0.000001	0.000000	0.000000	0.000000
3.657433	18.364422	16.726081	-1.713819	1.780489	3.205428	0.000000	0.287080	0.000000	0.000001	0.000000	0.000000	0.000000
4.206493	19.964134	15.121197	-1.182479	1.159731	3.336306	0.000000	0.188951	0.000000	0.000001	0.000000	0.000000	0.000000
4.755553	20.930762	14.148892	-0.567614	0.621577	3.412303	0.000000	0.087469	0.000000	0.000001	0.000000	0.000000	0.000000
5.304613	21.196029	13.739909	0.087344	0.127697	3.432073	0.000000	-0.015563	0.000000	0.000001	0.000000	0.000000	0.000000
5.603185	21.181153	13.648880	0.017863	0.141285	3.430103	0.000000	-0.006596	0.000000	0.000001	0.000000	0.000000	0.000000
5.936519	21.174492	13.562993	0.002120	0.116375	3.427905	0.000000	-0.006596	0.000000	0.000001	0.000000	0.000000	0.000000
6.269852	21.178326	13.493713	-0.013622	0.091466	3.425706	0.000000	-0.006596	0.000000	0.000001	0.000000	0.000000	0.000000
6.604435	21.192728	13.440873	-0.029423	0.066463	3.423499	0.000000	-0.006596	0.000000	0.000001	0.000000	0.000000	0.000000
6.901758	21.214399	13.407957	-0.098893	0.079276	3.421538	0.000000	0.002344	0.000000	0.000001	0.000000	0.000000	0.000000
7.450818	20.961358	13.581385	0.557027	-0.397005	3.394625	0.000000	-0.100232	0.000000	0.000001	0.000000	0.000000	0.000000
7.999878	20.005480	14.290194	1.173602	-0.901564	3.311798	0.000000	-0.201029	0.000000	0.000001	-0.000000	0.000000	0.000000
8.548938	18.414284	15.584870	1.707280	-1.470340	3.174526	0.000000	-0.298261	0.000000	0.000001	-0.000000	0.000000	0.000000
9.097998	16.300163	17.557630	2.120364	-2.143845	2.985244	0.000000	-0.390203	0.000000	0.000001	-0.000000	0.000000	0.000000
9.543958	14.650627	19.315529	1.591631	-1.781328	2.829534	0.000000	-0.308502	0.000000	0.000001	-0.000000	0.000000	0.000000
9.984918	13.450677	20.696721	1.139914	-1.338991	2.710742	0.000000	-0.230799	0.000000	0.000001	-0.000000	0.000000	0.000000
10.425878	12.624722	21.659349	0.740275	-0.835730	2.625602	0.000000	-0.155725	0.000000	0.000001	-0.000000	0.000000	0.000000
10.866838	12.135027	22.159614	0.374459	-0.294445	2.573145	0.000000	-0.082425	0.000000	0.000001	0.000000	0.000000	0.000000
11.309048	11.959081	22.174241	0.054972	0.205801	2.552752	0.000000	-0.016323	0.000000	0.000001	0.000000	0.000000	0.000000
11.606371	11.933806	22.056018	0.030035	0.191824	2.547899	0.000000	-0.016323	0.000000	0.000001	0.000000	0.000000	0.000000
12.086371	11.924296	21.882698	-0.010223	0.169261	2.540064	0.000000	-0.016323	0.000000	0.000001	0.000000	0.000000	0.000000
12.566371	11.953434	21.731038	-0.050481	0.146697	2.532229	0.000000	-0.016323	0.000000	0.000001	0.000000	0.000000	0.000000
13.046371	12.021220	21.601039	-0.090739	0.124134	2.524394	0.000000	-0.016323	0.000000	0.000001	0.000000	0.000000	0.000000
13.526371	12.127654	21.492701	-0.130998	0.101570	2.516559	0.000000	-0.016323	0.000000	0.000001	0.000000	0.000000	0.000000
14.007621	12.273164	21.405827	-0.171361	0.078948	2.508704	0.000000	-0.016323	0.000000	0.000001	0.000000	0.000000	0.000000
14.304943	12.382477	21.363037	-0.165932	0.012584	2.503850	0.000000	-0.022463	0.000000	0.000001	0.000000	0.000000	0.000000
14.745903	12.687555	21.118092	-0.528542	0.540784	2.509574	0.000000	0.048449	0.000000	0.000002	0.000000	0.000000	0.000000
15.186863	13.321825	20.416428	-0.915299	1.044379	2.546659	0.000000	0.119912	0.000000	0.000002	0.000000	0.000000	0.000000
15.627823	14.314264	19.289972	-1.343873	1.500455	2.615528	0.000000	0.192742	0.000000	0.000002	0.000000	0.000000	0.000000
16.068783	15.710216	17.789975	-1.833846	1.888262	2.716964	0.000000	0.267766	0.000000	0.000002	0.000000	0.000000	0.000000
16.514743	17.597110	15.963185	-2.412359	2.190905	2.853817	0.000000	0.346303	0.000000	0.000002	0.000000	0.000000	0.000000
17.063803	20.020281	13.923273	-1.974823	1.546306	3.020233	0.000000	0.258990	0.000000	0.000002	0.000000	0.000000	0.000000
17.612863	21.883078	12.526936	-1.397795	1.011847	3.137376	0.000000	0.167084	0.000000	0.000002	0.000000	0.000000	0.000000
18.161923	23.053923	11.674715	-0.722035	0.549460	3.203167	0.000000	0.072213	0.000000	0.000002	0.000000	0.000000	0.000000
18.710983	23.450113	11.305909	0.004727	0.126210	3.216439	0.000000	-0.023938	0.000000	0.000002	-0.000000	0.000000	0.000000
19.009556	23.487690	11.220980	-0.069315	0.128700	3.211801	0.000000	-0.015534	0.000000	0.000002	0.000000	0.000000	0.000000
19.342889	23.538654	11.145246	-0.083575	0.098502	3.206623	0.000000	-0.015534	0.000000	0.000002	0.000000	0.000000	0.000000
19.676223	23.599124	11.089644	-0.097835	0.068304	3.201445	0.000000	-0.015534	0.000000	0.000002	0.000000	0.000000	0.000000
20.010806	23.669675	11.053942	-0.229422	0.092760	3.196268	0.000000	0.000302	0.000000	0.000002	0.000000	0.000000	0.000000
20.308129	23.810030	11.006849	-0.304854	0.094390	3.196358	0.000000	0.008654	0.000000	0.000002	0.000000	0.000000	0.000000
20.857189	23.734144	11.125766	0.442247	-0.312250	3.174896	0.000000	-0.086714	0.000000	0.000002	-0.000000	0.000000	0.000000
21.406249	22.850220	11.700741	1.158110	-0.741131	3.101418	0.000000	-0.180544	0.000000	0.000002	-0.000000	0.000000	0.000000
21.955309	21.220693	12.772730	1.792170	-1.222801	2.977226	0.000000	-0.271171	0.000000	0.000002	-0.000000	0.000000	0.000000
22.504369	18.960665	14.418087	2.299640	-1.791568	2.804523	0.000000	-0.356988	0.000000	0.000002	-0.000000	0.000000	0.000000
22.950329	17.179731	15.895141	1.707942	-1.506537	2.662610	0.000000	-0.279796	0.000000	0.000002	-0.000000	0.000000	0.000000
23.391289	15.902742	17.072731	1.198974	-1.153817	2.555550	0.000000	-0.206245	0.000000	0.000002	-0.000000	0.000000	0.000000
23.832249	15.048862	17.914825	0.744782	-0.748599	2.480374	0.000000	-0.135044	0.000000	0.000002	-0.000000	0.000000	0.000000
24.273209	14.579082	18.383108	0.324618	-0.309321	2.436227	0.000000	-0.065380	0.000000	0.000002	-0.000000	0.000000	0.000000
24.715418	14.472050	18.456025	-0.045313	0.098703	2.422602	0.000000	-0.002402	0.000000	0.000002	-0.000000	0.000000	0.000000
25.012741	14.505116	18.402168	-0.065900	0.082437	2.421888	0.000000	-0.002402	0.000000	0.000002	-0.000000	0.000000	0.000000
25.346075	14.556742	18.353290	-0.088980	0.064200	2.421087	0.000000	-0.002402	0.000000	0.000002	-0.000000	0.000000	0.000000
25.679408	14.623756	18.316569	-0.112060	0.045963	2.420287	0.000000	-0.002402	0.000000	0.000002	-0.000000	0.000000	0.000000
26.013991	14.706195	18.292308	-0.015920	-0.120739	2.419459	0.000000	-0.022030	0.000000	0.000002	-0.000000	0.000000	0.000000
26.311314	14.721675	18.369007	-0.000042	-0.182275	2.412909	0.000000	-0.027947	0.000000	0.000001	-0.000000	0.000000	0.000000
26.752274	14.903118	18.330490	-0.412992	0.269292	2.415692	0.000000	0.040582	0.000000	0.000001	-0.000000	0.000000	0.000000
27.193234	15.455663	17.897628	-0.844811	0.708607	2.448767	0.000000	0.109574	0.000000	0.000001	0.000000	0.000000	0.000000
27.634194	16.404554	17.090118	-1.315227	1.115681	2.512511	0.000000	0.179814	0.000000	0.000002	0.000000	0.000000	0.000000
28.075154	17.793143	15.944699	-1.845732	1.471992	2.607649	0.000000	0.252101	0.000000	0.000002	0.000000	0.000000	0.000000
28.521114	19.709002	14.496237	-2.465519	1.762243	2.736868	0.000000	0.327704	0.000000	0.000002	0.000000	0.000000	0.000000
29.070174	22.144064	12.882198	-1.943193	1.194750	2.894139	0.000000	0.244328	0.000000	0.000002	0.000000	0.000000	0.000000
29.619234	23.926322	11.841226	-1.283609	0.712357	3.004373	0.000000	0.156619	0.000000	0.000002	0.000000	0.000000	0.000000
30.168294	24.929886	11.299176	-0.533358	0.280703	3.065616	0.000000	0.066132	0.000000	0.000002	-0.000000	0.000000	0.000000
30.717354	25.083871	11.217438	0.254567	-0.130956	3.076779	0.000000	-0.025528	0.000000	0.000002	-0.000000	0.000000	0.000000
31.015927	24.974674	11.286166	0.176700	-0.128539	3.071557	0.000000	-0.017489	0.000000	0.000002	-0.000000	0.000000	0.000000
31.349260	24.861462	11.381866	0.162936	-0.158562	3.065728	0.000000	-0.017489	0.000000	0.000002	-0.000000	0.000000	0.000000
31.682593	24.757426	11.497582	0.149173	-0.188585	3.059898	0.000000	-0.017489	0.000000	0.000002	-0.000000	0.000000	0.000000
32.017177	24.662227	11.633859	0.135358	-0.218720	3.054047	0.000000	-0.017489	0.000000	0.000002	-0.000000	0.000000	0.000000
32.314499	24.585387	11.771882	0.058845	-0.214742	3.048847	0.000000	-0.009523	0.000000	0.000002	-0.000000	0.000000	0.000000
32.863559	24.099616	12.247055	0.820650	-0.655795	3.018743	0.000000	-0.099971	0.000000	0.000002	-0.000000	0.000000	0.000000
33.412619	22.804326	13.229211	1.524489	-1.143560	2.939392	0.000000	-0.188646	0.000000	0.000001	-0.000000	0.000000	0.000000
33.961679	20.791011	14.788308	2.120646	-1.712777	2.812202	0.000000	-0.273975	0.000000	0.000001	-0.000000	0.000000	0.000000
34.510739	18.201879	17.035397	2.567010	-2.403992	2.639428	0.000000	-0.354444	0.000000	0.000001	-0.000000	0.000000	0.000000
34.956699	16.188870	19.045259	1.963042	-2.084010	2.497698	0.000000	-0.281532	0.000000	0.000001	-0.000000	0.000000	0.000000
35.397659	14.687891	20.706931	1.453761	-1.669956	2.388931	0.000000	-0.212255	0.000000	0.000001	-0.000000	0.000000	0.000000
35.838619	13.605183	21.968413	1.010898	-1.179921	2.310152	0.000000	-0.145395	0.000000	0.000001	-0.000000	0.000000	0.000000
36.279579	12.891279	22.772309	0.614220	-0.636200	2.260462	0.000000	-0.080191	0.000000	0.000001	-0.000000	0.000000	0.000000
36.721789	12.512873	23.082342	0.276184	-0.120191	2.239269	0.000000	-0.021392	0.000000	0.000001	-0.000000	0.000000	0.000000
37.019112	12.356245	23.157698	0.250610	-0.133258	2.232909	0.000000	-0.021392	0.000000	0.000001	-0.000000	0.000000	0.000000
37.352445	12.198729	23.251420	0.221939	-0.147908	2.225778	0.000000	-0.021392	0.000000	0.000001	-0.000000	0.000000	0.000000
37.685779	12.060327	23.354909	0.193267	-0.162557	2.218648	0.000000	-0.021392	0.000000	0.000001	-0.000000	0.000000	0.000000
38.020362	11.940628	23.468607	0.164489	-0.177262	2.211491	0.000000	-0.021392	0.000000	0.000001	-0.000000	0.000000	0.000000
38.317684	11.850419	23.577900	0.167975	-0.248149	2.205130	0.000000	-0.026799	0.000000	0.000001	-0.000000	0.000000	0.000000
38.758644	11.853441	23.535612	-0.174854	0.343684	2.207238	0.000000	0.036365	0.000000	0.000001	-0.000000	0.000000	0.000000
39.199604	12.161177	22.976303	-0.525672	0.919879	2.237262	0.000000	0.099944	0.000000	0.000001	-0.000000	0.000000	0.000000
39.640564	12.787688	21.925421	-0.900506	1.454221	2.295547	0.000000	0.164660	0.000000	0.000001	-0.000000	0.000000	0.000000
40.081524	13.761596	20.430780	-1.316481	1.922396	2.382755	0.000000	0.231252	0.000000	0.000000	-0.000000	0.000000	0.000000
40.527484	15.144958	18.537818	-1.796427	2.304382	2.501351	0.000000	0.300883	0.000000	0.000000	-0.000000	0.000000	0.000000
41.076544	16.910558	16.410708	-1.400216	1.592580	2.646029	0.000000	0.225343	0.000000	0.000000	-0.000000	0.000000	0.000000
41.625604	18.183853	14.998739	-0.905101	0.994213	2.748071	0.000000	0.145806	0.000000	0.000000	-0.000000	0.000000	0.000000
42.174664	18.874902	14.201338	-0.346054	0.466662	2.805666	0.000000	0.063683	0.000000	0.000000	-0.000000	0.000000	0.000000
42.723724	18.934895	13.961708	0.237437	-0.027650	2.817794	0.000000	-0.019571	0.000000	0.000000	-0.000000	0.000000	0.000000
43.022297	18.827528	13.962822	0.171638	-0.012558	2.814149	0.000000	-0.012208	0.000000	0.000000	-0.000000	0.000000	0.000000
43.502297	18.675353	13.991380	0.145392	-0.046940	2.808290	0.000000	-0.012208	0.000000	0.000000	-0.000000	0.000000	0.000000
43.982297	18.548375	14.052946	0.119147	-0.081322	2.802430	0.000000	-0.012208	0.000000	0.000000	-0.000000	0.000000	0.000000
44.462297	18.446592	14.147519	0.092901	-0.115705	2.796570	0.000000	-0.012208	0.000000	0.000000	-0.000000	0.000000	0.000000
44.942297	18.370005	14.275100	0.066655	-0.150087	2.790710	0.000000	-0.012208	0.000000	0.000000	-0.000000	0.000000	0.000000
45.423547	18.318740	14.435969	-0.050420	-0.113035	2.784852	0.000000	0.001590	0.000000	-0.000000	-0.000000	0.000000	0.000000
45.720870	18.353559	14.509387	-0.114646	-0.095983	2.785325	0.000000	0.008867	0.000000	-0.000000	-0.000000	0.000000	0.000000
46.269930	18.170410	14.895496	0.446241	-0.611386	2.767626	0.000000	-0.073244	0.000000	-0.000000	-0.000000	0.000000	0.000000
46.818990	17.385081	15.868027	0.975607	-1.170335	2.705133	0.000000	-0.154055	0.000000	-0.000000	-0.000000	0.000000	0.000000
47.368050	16.053045	17.496251	1.436062	-1.812646	2.598957	0.000000	-0.232134	0.000000	-0.000000	-0.000000	0.000000	0.000000
47.917110	14.268389	19.896144	1.795081	-2.584067	2.450979	0.000000	-0.306096	0.000000	-0.000000	-0.000000	0.000000	0.000000
48.363070	12.879432	22.029971	1.330486	-2.180613	2.329762	0.000000	-0.237805	0.000000	-0.000000	-0.000000	0.000000	0.000000
48.804030	11.886220	23.738502	0.930444	-1.679213	2.239358	0.000000	-0.172621	0.000000	-0.000000	-0.000000	0.000000	0.000000
49.244990	11.225806	24.969329	0.572911	-1.101410	2.177237	0.000000	-0.109402	0.000000	-0.000000	-0.000000	0.000000	0.000000
49.685950	10.868018	25.666451	0.241553	-0.473493	2.142691	0.000000	-0.047429	0.000000	-0.000000	-0.000000	0.000000	0.000000
50.128160	10.796639	25.797868	-0.052409	0.112653	2.135340	0.000000	0.008767	0.000000	-0.000000	-0.000000	0.000000	0.000000
50.425482	10.836014	25.734350	-0.080023	0.100981	2.137946	0.000000	0.008767	0.000000	-0.000001	-0.000000	0.000000	0.000000
50.758816	10.899683	25.671390	-0.110982	0.087897	2.140869	0.000000	0.008767	0.000000	-0.000001	-0.000000	0.000000	0.000000
51.092149	10.983990	25.617154	-0.141941	0.074812	2.143791	0.000000	0.008767	0.000000	-0.000001	-0.000000	0.000000	0.000000
51.426732	11.089144	25.572006	-0.083053	-0.145775	2.146703	0.000000	-0.008648	0.000000	-0.000001	-0.000000	0.000000	0.000000
51.724055	11.146558	25.662221	-0.082715	-0.220581	2.144131	0.000000	-0.013907	0.000000	-0.000001	-0.000000	0.000000	0.000000
52.165015	11.365005	25.571290	-0.414553	0.426007	2.151587	0.000000	0.047754	0.000000	-0.000001	-0.000000	0.000000	0.000000
52.605975	11.883319	24.916522	-0.765330	1.053212	2.186326	0.000000	0.109959	0.000000	-0.000001	-0.000000	0.000000	0.000000
53.046935	12.725182	23.727709	-1.151073	1.632496	2.248746	0.000000	0.173416	0.000000	-0.000001	-0.000000	0.000000	0.000000
53.487895	13.929056	22.058940	-1.589405	2.137503	2.339555	0.000000	0.238848	0.000000	-0.000001	-0.000000	0.000000	0.000000
53.933855	15.570573	19.961189	-2.104592	2.546589	2.461294	0.000000	0.307399	0.000000	-0.000001	-0.000000	0.000000	0.000000
54.482915	17.683915	17.600794	-1.721641	1.777762	2.609894	0.000000	0.233093	0.000000	-0.000001	-0.000000	0.000000	0.000000
55.031975	19.307058	16.010592	-1.217082	1.135560	2.716499	0.000000	0.154653	0.000000	-0.000001	-0.000000	0.000000	0.000000
55.581035	20.325353	15.077316	-0.626554	0.574242	2.779217	0.000000	0.073469	0.000000	-0.000001	-0.000000	0.000000	0.000000
56.130095	20.666872	14.734492	0.008230	0.053826	2.796937	0.000000	-0.009018	0.000000	-0.000001	-0.000000	0.000000	0.000000
56.428668	20.698525	14.685462	-0.060247	0.071889	2.796427	0.000000	-0.001710	0.000000	-0.000001	-0.000000	0.000000	0.000000
56.762001	20.744077	14.645141	-0.076409	0.049074	2.795857	0.000000	-0.001710	0.000000	-0.000001	-0.000000	0.000000	0.000000
57.095334	20.800405	14.620031	-0.092572	0.026258	2.795287	0.000000	-0.001710	0.000000	-0.000001	-0.000000	0.000000	0.000000
57.429918	20.867779	14.610122	-0.108795	0.003357	2.794715	0.000000	-0.001710	0.000000	-0.000001	-0.000000	0.000000	0.000000
57.727240	20.936760	14.614176	-0.177916	0.021191	2.794207	0.000000	0.005591	0.000000	-0.000001	-0.000000	0.000000	0.000000
58.276300	20.774876	14.871624	0.471009	-0.492846	2.774636	0.000000	-0.076777	0.000000	-0.000002	-0.000000	0.000000	0.000000
58.825360	19.914526	15.709395	1.086665	-1.041988	2.710147	0.000000	-0.157783	0.000000	-0.000002	0.000000	0.000000	0.000000
59.374420	18.416482	17.187162	1.625564	-1.665349	2.601885	0.000000	-0.235991	0.000000	-0.000001	0.000000	0.000000	0.000000
59.923480	16.386557	19.410184	2.049642	-2.407328	2.451769	0.000000	-0.310013	0.000000	-0.000001	0.000000	0.000000	0.000000
60.369440	14.797638	21.386109	1.525892	-2.004694	2.328807	0.000000	-0.241725	0.000000	-0.000001	0.000000	0.000000	0.000000
60.810400	13.654614	22.942850	1.076068	-1.512217	2.236666	0.000000	-0.176587	0.000000	-0.000001	0.000000	0.000000	0.000000
61.251360	12.885203	24.033151	0.675408	-0.950935	2.172777	0.000000	-0.113460	0.000000	-0.000001	0.000000	0.000000	0.000000
61.692320	12.454251	24.607403	0.305604	-0.346387	2.136413	0.000000	-0.051626	0.000000	-0.000001	-0.000000	0.000000	0.000000
62.134530	12.342120	24.638946	-0.020072	0.213445	2.127166	0.000000	0.004404	0.000000	-0.000001	-0.000000	0.000000	0.000000
62.431853	12.361221	24.515773	-0.044171	0.200828	2.128475	0.000000	0.004404	0.000000	-0.000001	-0.000000	0.000000	0.000000
62.765186	12.399674	24.386603	-0.071190	0.186683	2.129943	0.000000	0.004404	0.000000	-0.000001	-0.000000	0.000000	0.000000
63.098520	12.456141	24.266863	-0.098209	0.172538	2.131411	0.000000	0.004404	0.000000	-0.000001	-0.000000	0.000000	0.000000
63.433103	12.530933	24.156157	-0.125329	0.158339	2.132885	0.000000	0.004404	0.000000	-0.000001	-0.000000	0.000000	0.000000
63.730426	12.612624	24.065753	-0.118498	0.086705	2.134194	0.000000	-0.000830	0.000000	-0.000001	-0.000000	0.000000	0.000000
64.171386	12.877675	23.724233	-0.484860	0.684839	2.147370	0.000000	0.060648	0.000000	-0.000001	-0.000000	0.000000	0.000000
64.612346	13.474339	22.866984	-0.873374	1.251813	2.187782	0.000000	0.122817	0.000000	-0.000002	-0.000000	0.000000	0.000000
65.053306	14.429873	21.533012	-1.301789	1.761831	2.255891	0.000000	0.186385	0.000000	-0.000002	-0.000000	0.000000	0.000000
65.494266	15.787935	19.783009	-1.789680	2.191687	2.352470	0.000000	0.252076	0.000000	-0.000002	-0.000000	0.000000	0.000000
65.940226	17.633741	17.671827	-2.364030	2.522580	2.480195	0.000000	0.321039	0.000000	-0.000002	-0.000000	0.000000	0.000000
66.489286	19.999657	15.309985	-1.919491	1.804422	2.636095	0.000000	0.246003	0.000000	-0.000002	-0.000000	0.000000	0.000000
67.038346	21.799620	13.661986	-1.339368	1.214788	2.749534	0.000000	0.166603	0.000000	-0.000002	-0.000000	0.000000	0.000000
67.587406	22.906492	12.610445	-0.664638	0.711681	2.818502	0.000000	0.084247	0.000000	-0.000002	-0.000000	0.000000	0.000000
68.136466	23.242088	12.080466	0.057037	0.259266	2.841774	0.000000	0.000398	0.000000	-0.000002	0.000000	0.000000	0.000000
68.435038	23.248128	11.914801	-0.016537	0.264025	2.844109	0.000000	0.007823	0.000000	-0.000002	-0.000000	0.000000	0.000000
68.768372	23.263933	11.748760	-0.030879	0.234098	2.846717	0.000000	0.007823	0.000000	-0.000002	-0.000000	0.000000	0.000000
69.101705	23.289300	11.602671	-0.045221	0.204171	2.849325	0.000000	0.007823	0.000000	-0.000002	-0.000000	0.000000	0.000000
69.436288	23.324377	11.476097	-0.059617	0.174132	2.851942	0.000000	0.007823	0.000000	-0.000002	-0.000000	0.000000	0.000000
69.733611	23.363632	11.380486	-0.133456	0.177174	2.854268	0.000000	0.015281	0.000000	-0.000002	-0.000000	0.000000	0.000000
70.282671	23.108934	11.413759	0.594589	-0.238132	2.839469	0.000000	-0.069110	0.000000	-0.000002	0.000000	0.000000	0.000000
