#ParticleID	Turn	x[m]	xp	y[m]	yp	z[m]	dE[GeV]# s	beta_x	beta_y	alpha_x	alpha_y	D_x	D_y	D_px	D_py	orbit_x	orbit_px	orbit_y	orbit_py
0.300000	11.806325	25.047728	-0.010338	-0.026916	2.618242	0.000000	-0.000039	0.000000	-0.000001	0.000002	0.000000	0.000000
0.601250	11.820241	25.067571	-0.035857	-0.038952	2.618230	0.000000	-0.000039	0.000000	-0.000001	0.000002	0.000000	0.000000
0.898573	11.849051	25.094266	-0.031985	-0.112369	2.618218	0.000000	-0.006459	0.000000	-0.000000	0.000002	0.000000	0.000000
1.339533	12.029301	24.914987	-0.378331	0.517386	2.631663	0.000000	0.067500	0.000000	0.000001	0.000002	0.000000	0.000000
1.780493	12.521439	24.188614	-0.741962	1.123599	2.677859	0.000000	0.142229	0.000000	0.000001	0.000002	0.000000	0.000000
2.221453	13.347950	22.948196	-1.139492	1.678690	2.757333	0.000000	0.218577	0.000000	0.000002	0.000002	0.000000	0.000000
2.662413	14.546594	21.250171	-1.589081	2.157402	2.870990	0.000000	0.297415	0.000000	0.000003	0.000002	0.000000	0.000000
3.108373	16.192860	19.146898	-2.115557	2.539088	3.021986	0.000000	0.380130	0.000000	0.000004	0.000002	0.000000	0.000000
3.657433	18.303953	16.784569	-1.706604	1.788805	3.205427	0.000000	0.287092	0.000000	0.000005	0.000002	0.000000	0.000000
4.206493	19.896711	15.171760	-1.177104	1.165935	3.336311	0.000000	0.188963	0.000000	0.000006	0.000002	0.000000	0.000000
4.755553	20.858629	14.193593	-0.564460	0.626111	3.412314	0.000000	0.087481	0.000000	0.000006	0.000001	0.000000	0.000000
5.304613	21.121762	13.780395	0.088055	0.130885	3.432089	0.000000	-0.015552	0.000000	0.000007	0.000001	0.000000	0.000000
5.603185	21.106358	13.687388	0.018720	0.144618	3.430123	0.000000	-0.006585	0.000000	0.000008	0.000001	0.000000	0.000000
5.936519	21.099144	13.599264	0.002922	0.119755	3.427927	0.000000	-0.006585	0.000000	0.000008	0.000001	0.000000	0.000000
6.269852	21.102463	13.527714	-0.012877	0.094893	3.425732	0.000000	-0.006585	0.000000	0.000008	0.000001	0.000000	0.000000
6.604435	21.116385	13.472565	-0.028735	0.069937	3.423529	0.000000	-0.006585	0.000000	0.000009	0.000001	0.000000	0.000000
6.901758	21.137662	13.437571	-0.098051	0.082868	3.421570	0.000000	0.002354	0.000000	0.000009	0.000001	0.000000	0.000000
7.450818	20.885112	13.607499	0.555297	-0.394184	3.394663	0.000000	-0.100222	0.000000	0.000010	0.000001	0.000000	0.000000
7.999878	19.932499	14.313540	1.169422	-0.899313	3.311840	0.000000	-0.201021	0.000000	0.000010	0.000001	0.000000	0.000000
8.548938	18.347111	15.605981	1.700944	-1.468498	3.174572	0.000000	-0.298254	0.000000	0.000010	0.000000	0.000000	0.000000
9.097998	16.240931	17.576882	2.112321	-2.142281	2.985292	0.000000	-0.390198	0.000000	0.000010	-0.000000	0.000000	0.000000
9.543958	14.597764	19.333030	1.585340	-1.778979	2.829585	0.000000	-0.308496	0.000000	0.000010	0.000000	0.000000	0.000000
9.984918	13.402704	20.711845	1.135073	-1.335970	2.710796	0.000000	-0.230792	0.000000	0.000010	0.000000	0.000000	0.000000
10.425878	12.580462	21.671563	0.736665	-0.832176	2.625660	0.000000	-0.155716	0.000000	0.000011	0.000001	0.000000	0.000000
10.866838	12.093471	22.168517	0.371913	-0.290518	2.573206	0.000000	-0.082414	0.000000	0.000011	0.000001	0.000000	0.000000
11.309048	11.919349	22.179572	0.053274	0.209912	2.552818	0.000000	-0.016310	0.000000	0.000012	0.000001	0.000000	0.000000
11.606371	11.895107	22.058910	0.028259	0.195916	2.547969	0.000000	-0.016310	0.000000	0.000012	0.000001	0.000000	0.000000
12.086371	11.887363	21.881676	-0.012126	0.173321	2.540139	0.000000	-0.016310	0.000000	0.000013	0.000001	0.000000	0.000000
12.566371	11.918389	21.726134	-0.052511	0.150726	2.532310	0.000000	-0.016310	0.000000	0.000013	0.000001	0.000000	0.000000
13.046371	11.988184	21.592282	-0.092896	0.128131	2.524480	0.000000	-0.016310	0.000000	0.000014	0.000001	0.000000	0.000000
13.526371	12.096748	21.480122	-0.133281	0.105536	2.516651	0.000000	-0.016310	0.000000	0.000014	0.000001	0.000000	0.000000
14.007621	12.244517	21.389446	-0.173771	0.082882	2.508801	0.000000	-0.016310	0.000000	0.000015	0.000001	0.000000	0.000000
14.304943	12.355287	21.344322	-0.168492	0.016551	2.503951	0.000000	-0.022450	0.000000	0.000015	0.000001	0.000000	0.000000
14.745903	12.662378	21.096126	-0.530565	0.544160	2.509681	0.000000	0.048465	0.000000	0.000016	0.000002	0.000000	0.000000
15.186863	13.298231	20.391804	-0.916878	1.047010	2.546773	0.000000	0.119931	0.000000	0.000017	0.000002	0.000000	0.000000
15.627823	14.291895	19.263400	-1.345081	1.502222	2.615650	0.000000	0.192764	0.000000	0.000018	0.000002	0.000000	0.000000
16.068783	15.688769	17.762257	-1.834737	1.889084	2.717095	0.000000	0.267792	0.000000	0.000019	0.000003	0.000000	0.000000
16.514743	17.576333	15.935176	-2.412974	2.190736	2.853960	0.000000	0.346332	0.000000	0.000020	0.000003	0.000000	0.000000
17.063803	20.000727	13.895131	-1.976421	1.546716	3.020389	0.000000	0.259014	0.000000	0.000022	0.000003	0.000000	0.000000
17.612863	21.865771	12.498014	-1.400263	1.012865	3.137542	0.000000	0.167102	0.000000	0.000023	0.000002	0.000000	0.000000
18.161923	23.039726	11.644310	-0.725197	0.551158	3.203341	0.000000	0.072227	0.000000	0.000024	0.000001	0.000000	0.000000
18.710983	23.439670	11.273213	0.001094	0.128709	3.216619	0.000000	-0.023930	0.000000	0.000025	0.000000	0.000000	0.000000
19.009556	23.479397	11.186875	-0.072921	0.131010	3.211983	0.000000	-0.015527	0.000000	0.000025	0.000001	0.000000	0.000000
19.342889	23.532769	11.109638	-0.087193	0.100702	3.206807	0.000000	-0.015527	0.000000	0.000025	0.000001	0.000000	0.000000
19.676223	23.595655	11.052606	-0.101466	0.070394	3.201631	0.000000	-0.015527	0.000000	0.000025	0.000001	0.000000	0.000000
20.010806	23.668639	11.015543	-0.233059	0.094550	3.196455	0.000000	0.000310	0.000000	0.000026	0.000001	0.000000	0.000000
20.308129	23.811164	10.967416	-0.308504	0.095967	3.196547	0.000000	0.008660	0.000000	0.000026	0.000001	0.000000	0.000000
20.857189	23.739246	11.083987	0.438713	-0.309529	3.175087	0.000000	-0.086714	0.000000	0.000026	-0.000000	0.000000	0.000000
21.406249	22.859023	11.655261	1.154941	-0.737072	3.101607	0.000000	-0.180550	0.000000	0.000026	-0.000001	0.000000	0.000000
21.955309	21.232670	12.721931	1.789590	-1.217114	2.977410	0.000000	-0.271183	0.000000	0.000025	-0.000002	0.000000	0.000000
22.504369	18.975065	14.359971	2.297832	-1.783849	2.804700	0.000000	-0.357007	0.000000	0.000024	-0.000003	0.000000	0.000000
22.950329	17.195785	15.830718	1.706025	-1.500171	2.662781	0.000000	-0.279810	0.000000	0.000023	-0.000002	0.000000	0.000000
23.391289	15.920567	17.003399	1.196858	-1.149089	2.555716	0.000000	-0.206255	0.000000	0.000022	-0.000001	0.000000	0.000000
23.832249	15.068675	17.842127	0.742372	-0.745724	2.480537	0.000000	-0.135049	0.000000	0.000022	-0.000001	0.000000	0.000000
24.273209	14.601189	18.308742	0.321804	-0.308429	2.436389	0.000000	-0.065381	0.000000	0.000021	-0.000000	0.000000	0.000000
24.715418	14.496872	18.381768	-0.048606	0.097762	2.422765	0.000000	-0.002398	0.000000	0.000021	0.000000	0.000000	0.000000
25.012741	14.531887	18.328490	-0.069164	0.081432	2.422052	0.000000	-0.002398	0.000000	0.000021	0.000000	0.000000	0.000000
25.346075	14.585679	18.280304	-0.092211	0.063125	2.421253	0.000000	-0.002398	0.000000	0.000021	0.000000	0.000000	0.000000
25.679408	14.654836	18.244323	-0.115259	0.044818	2.420454	0.000000	-0.002398	0.000000	0.000022	0.000000	0.000000	0.000000
26.013991	14.739405	18.220851	-0.018818	-0.121375	2.419627	0.000000	-0.022027	0.000000	0.000022	0.000000	0.000000	0.000000
26.311314	14.756594	18.297948	-0.002817	-0.182796	2.413078	0.000000	-0.027943	0.000000	0.000022	0.000000	0.000000	0.000000
26.752274	14.940871	18.260739	-0.416668	0.266858	2.415863	0.000000	0.040590	0.000000	0.000022	0.000001	0.000000	0.000000
27.193234	15.497115	17.830831	-0.849555	0.704369	2.448942	0.000000	0.109587	0.000000	0.000022	0.000001	0.000000	0.000000
27.634194	16.450738	17.027784	-1.321256	1.109832	2.512692	0.000000	0.179831	0.000000	0.000023	0.000002	0.000000	0.000000
28.075154	17.845310	15.888138	-1.853321	1.464799	2.607838	0.000000	0.252123	0.000000	0.000024	0.000002	0.000000	0.000000
28.521114	19.768770	14.446575	-2.475032	1.754030	2.737066	0.000000	0.327730	0.000000	0.000025	0.000003	0.000000	0.000000
29.070174	22.213488	12.840465	-1.951159	1.188434	2.894349	0.000000	0.244349	0.000000	0.000026	0.000002	0.000000	0.000000
29.619234	24.003383	11.805598	-1.289466	0.707489	3.004592	0.000000	0.156632	0.000000	0.000027	0.000001	0.000000	0.000000
30.168294	25.012025	11.268262	-0.536692	0.276936	3.065839	0.000000	0.066138	0.000000	0.000028	0.000000	0.000000	0.000000
30.717354	25.168168	11.190183	0.253992	-0.133892	3.077004	0.000000	-0.025529	0.000000	0.000028	-0.000001	0.000000	0.000000
31.015927	25.059425	11.260734	0.175964	-0.131635	3.071782	0.000000	-0.017491	0.000000	0.000027	-0.000000	0.000000	0.000000
31.349260	24.946687	11.358529	0.162250	-0.161749	3.065951	0.000000	-0.017491	0.000000	0.000027	-0.000000	0.000000	0.000000
31.682593	24.843092	11.476400	0.148536	-0.191863	3.060121	0.000000	-0.017491	0.000000	0.000027	-0.000000	0.000000	0.000000
32.017177	24.748302	11.614901	0.134771	-0.222090	3.054269	0.000000	-0.017491	0.000000	0.000027	-0.000000	0.000000	0.000000
32.314499	24.671797	11.754953	0.058091	-0.218245	3.049069	0.000000	-0.009527	0.000000	0.000027	-0.000000	0.000000	0.000000
32.863559	24.185274	12.233794	0.822766	-0.659014	3.018961	0.000000	-0.099982	0.000000	0.000026	-0.000001	0.000000	0.000000
33.412619	22.886144	13.219434	1.529324	-1.146723	2.939603	0.000000	-0.188664	0.000000	0.000025	-0.000002	0.000000	0.000000
33.961679	20.866171	14.782077	2.127859	-1.716110	2.812402	0.000000	-0.273999	0.000000	0.000024	-0.000003	0.000000	0.000000
34.510739	18.268038	17.033028	2.576092	-2.407732	2.639615	0.000000	-0.354475	0.000000	0.000022	-0.000004	0.000000	0.000000
34.956699	16.247841	19.046448	1.970132	-2.088216	2.497873	0.000000	-0.281558	0.000000	0.000021	-0.000003	0.000000	0.000000
35.397659	14.741356	20.711964	1.459201	-1.674432	2.389097	0.000000	-0.212277	0.000000	0.000020	-0.000003	0.000000	0.000000
35.838619	13.654484	21.977437	1.014936	-1.184462	2.310310	0.000000	-0.145412	0.000000	0.000019	-0.000002	0.000000	0.000000
36.279579	12.937567	22.785291	0.617041	-0.640600	2.260614	0.000000	-0.080204	0.000000	0.000018	-0.000002	0.000000	0.000000
36.721789	12.557156	23.099079	0.278019	-0.124282	2.239417	0.000000	-0.021401	0.000000	0.000017	-0.000001	0.000000	0.000000
37.019112	12.399417	23.176869	0.252512	-0.137352	2.233054	0.000000	-0.021401	0.000000	0.000017	-0.000001	0.000000	0.000000
37.352445	12.240608	23.273322	0.223915	-0.152006	2.225921	0.000000	-0.021401	0.000000	0.000016	-0.000001	0.000000	0.000000
37.685779	12.100864	23.379543	0.195318	-0.166659	2.218788	0.000000	-0.021401	0.000000	0.000016	-0.000001	0.000000	0.000000
38.020362	11.979768	23.495988	0.166613	-0.181368	2.211628	0.000000	-0.021401	0.000000	0.000016	-0.000001	0.000000	0.000000
38.317684	11.888277	23.607723	0.170255	-0.252323	2.205265	0.000000	-0.026808	0.000000	0.000015	-0.000001	0.000000	0.000000
38.758644	11.889664	23.568756	-0.173413	0.340357	2.207370	0.000000	0.036360	0.000000	0.000015	-0.000001	0.000000	0.000000
39.199604	12.196473	23.011950	-0.525003	0.917551	2.237393	0.000000	0.099942	0.000000	0.000014	-0.000000	0.000000	0.000000
39.640564	12.822722	21.962639	-0.900579	1.452997	2.295678	0.000000	0.164662	0.000000	0.000014	-0.000000	0.000000	0.000000
40.081524	13.797023	20.468568	-1.317300	1.922334	2.382887	0.000000	0.231257	0.000000	0.000014	0.000000	0.000000	0.000000
40.527484	15.181464	18.575136	-1.798033	2.305491	2.501486	0.000000	0.300892	0.000000	0.000015	0.000001	0.000000	0.000000
41.076544	16.948076	16.447333	-1.400441	1.592738	2.646168	0.000000	0.225347	0.000000	0.000015	0.000000	0.000000	0.000000
41.625604	18.220847	15.035704	-0.903928	0.993431	2.748211	0.000000	0.145806	0.000000	0.000015	-0.000000	0.000000	0.000000
42.174664	18.909874	14.239699	-0.343566	0.464885	2.805805	0.000000	0.063678	0.000000	0.000014	-0.000001	0.000000	0.000000
42.723724	18.966489	14.002622	0.241064	-0.030549	2.817930	0.000000	-0.019580	0.000000	0.000014	-0.000001	0.000000	0.000000
43.022297	18.857000	14.005386	0.175194	-0.015290	2.814282	0.000000	-0.012218	0.000000	0.000014	-0.000001	0.000000	0.000000
43.502297	18.701407	14.036519	0.148958	-0.049571	2.808418	0.000000	-0.012218	0.000000	0.000013	-0.000001	0.000000	0.000000
43.982297	18.571000	14.100562	0.122722	-0.083851	2.802554	0.000000	-0.012218	0.000000	0.000012	-0.000001	0.000000	0.000000
44.462297	18.465780	14.197514	0.096486	-0.118132	2.796690	0.000000	-0.012218	0.000000	0.000012	-0.000001	0.000000	0.000000
44.942297	18.385746	14.327375	0.070250	-0.152412	2.790826	0.000000	-0.012218	0.000000	0.000011	-0.000001	0.000000	0.000000
45.423547	18.331017	14.490433	-0.046876	-0.114988	2.784963	0.000000	0.001580	0.000000	0.000011	-0.000001	0.000000	0.000000
45.720870	18.363724	14.564991	-0.111108	-0.097725	2.785434	0.000000	0.008857	0.000000	0.000010	-0.000001	0.000000	0.000000
46.269930	18.176534	14.953952	0.450019	-0.614869	2.767729	0.000000	-0.073257	0.000000	0.000010	-0.000001	0.000000	0.000000
46.818990	17.387045	15.931372	0.979359	-1.175808	2.705229	0.000000	-0.154071	0.000000	0.000009	-0.000002	0.000000	0.000000
47.368050	16.051025	17.566870	1.439522	-1.820498	2.599044	0.000000	-0.232153	0.000000	0.000008	-0.000002	0.000000	0.000000
47.917110	14.262842	19.976940	1.798005	-2.594858	2.451055	0.000000	-0.306118	0.000000	0.000007	-0.000002	0.000000	0.000000
48.363070	12.871363	22.119630	1.333240	-2.189613	2.329830	0.000000	-0.237825	0.000000	0.000006	-0.000002	0.000000	0.000000
48.804030	11.875749	23.835157	0.933157	-1.686019	2.239418	0.000000	-0.172639	0.000000	0.000005	-0.000002	0.000000	0.000000
49.244990	11.212914	25.070901	0.575708	-1.105712	2.177290	0.000000	-0.109419	0.000000	0.000004	-0.000002	0.000000	0.000000
49.685950	10.852574	25.770637	0.244561	-0.475096	2.142738	0.000000	-0.047445	0.000000	0.000003	-0.000002	0.000000	0.000000
50.128160	10.778391	25.902243	-0.049098	0.113569	2.135381	0.000000	0.008752	0.000000	0.000002	-0.000002	0.000000	0.000000
50.425482	10.815808	25.838166	-0.076749	0.101942	2.137983	0.000000	0.008752	0.000000	0.000002	-0.000002	0.000000	0.000000
50.758816	10.877307	25.774550	-0.107750	0.088908	2.140901	0.000000	0.008752	0.000000	0.000001	-0.000002	0.000000	0.000000
51.092149	10.959474	25.719623	-0.138750	0.075873	2.143819	0.000000	0.008752	0.000000	0.000001	-0.000002	0.000000	0.000000
51.426732	11.062508	25.673750	-0.080121	-0.145489	2.146727	0.000000	-0.008663	0.000000	0.000000	-0.000002	0.000000	0.000000
51.724055	11.118194	25.763780	-0.079905	-0.220496	2.144151	0.000000	-0.013921	0.000000	-0.000000	-0.000002	0.000000	0.000000
52.165015	11.333856	25.671589	-0.411025	0.428770	2.151601	0.000000	0.047740	0.000000	-0.000001	-0.000002	0.000000	0.000000
52.605975	11.848685	25.013244	-0.760923	1.058528	2.186335	0.000000	0.109945	0.000000	-0.000002	-0.000002	0.000000	0.000000
53.046935	12.686202	23.818701	-1.145586	1.640124	2.248749	0.000000	0.173402	0.000000	-0.000003	-0.000002	0.000000	0.000000
53.487895	13.884670	22.142309	-1.582588	2.147096	2.339553	0.000000	0.238834	0.000000	-0.000004	-0.000002	0.000000	0.000000
53.933855	15.519393	20.035281	-2.096118	2.557714	2.461286	0.000000	0.307385	0.000000	-0.000004	-0.000002	0.000000	0.000000
54.482915	17.624099	17.664283	-1.714482	1.786062	2.609880	0.000000	0.233079	0.000000	-0.000005	-0.000002	0.000000	0.000000
55.031975	19.240340	16.066240	-1.211744	1.141626	2.716478	0.000000	0.154639	0.000000	-0.000006	-0.000002	0.000000	0.000000
55.581035	20.253952	15.127326	-0.623415	0.578507	2.779190	0.000000	0.073457	0.000000	-0.000007	-0.000001	0.000000	0.000000
56.130095	20.593339	14.780664	0.008950	0.056592	2.796905	0.000000	-0.009029	0.000000	-0.000008	-0.000001	0.000000	0.000000
56.428668	20.624465	14.729894	-0.059388	0.074831	2.796391	0.000000	-0.001721	0.000000	-0.000008	-0.000001	0.000000	0.000000
56.762001	20.669463	14.687592	-0.075607	0.052075	2.795818	0.000000	-0.001721	0.000000	-0.000009	-0.000001	0.000000	0.000000
57.095334	20.725274	14.660461	-0.091826	0.029318	2.795245	0.000000	-0.001721	0.000000	-0.000009	-0.000001	0.000000	0.000000
57.429918	20.792168	14.648484	-0.108106	0.006476	2.794670	0.000000	-0.001721	0.000000	-0.000010	-0.000001	0.000000	0.000000
57.727240	20.860754	14.650668	-0.177083	0.024461	2.794158	0.000000	0.005581	0.000000	-0.000010	-0.000001	0.000000	0.000000
58.276300	20.699357	14.905084	0.469294	-0.490562	2.774582	0.000000	-0.076786	0.000000	-0.000010	-0.000001	0.000000	0.000000
58.825360	19.842244	15.740809	1.082521	-1.040526	2.710090	0.000000	-0.157790	0.000000	-0.000011	-0.000001	0.000000	0.000000
59.374420	18.349956	17.217372	1.619285	-1.664604	2.601824	0.000000	-0.235996	0.000000	-0.000011	-0.000000	0.000000	0.000000
59.923480	16.327902	19.439943	2.041671	-2.407248	2.451707	0.000000	-0.310016	0.000000	-0.000011	0.000000	0.000000	0.000000
60.369440	14.745297	21.415344	1.519656	-2.003601	2.328743	0.000000	-0.241729	0.000000	-0.000011	-0.000000	0.000000	0.000000
60.810400	13.607121	22.970694	1.071268	-1.510168	2.236599	0.000000	-0.176593	0.000000	-0.000011	-0.000000	0.000000	0.000000
61.251360	12.841392	24.058798	0.671824	-0.948023	2.172707	0.000000	-0.113469	0.000000	-0.000011	-0.000001	0.000000	0.000000
61.692320	12.413126	24.630149	0.303074	-0.342745	2.136340	0.000000	-0.051636	0.000000	-0.000012	-0.000001	0.000000	0.000000
62.134530	12.302810	24.658208	-0.021758	0.217598	2.127088	0.000000	0.004391	0.000000	-0.000012	-0.000001	0.000000	0.000000
62.431853	12.322937	24.532569	-0.045936	0.204969	2.128394	0.000000	0.004391	0.000000	-0.000013	-0.000001	0.000000	0.000000
62.765186	12.362597	24.400642	-0.073043	0.190811	2.129858	0.000000	0.004391	0.000000	-0.000013	-0.000001	0.000000	0.000000
63.098520	12.420328	24.278154	-0.100150	0.176653	2.131322	0.000000	0.004391	0.000000	-0.000014	-0.000001	0.000000	0.000000
63.433103	12.496449	24.164698	-0.127359	0.162442	2.132792	0.000000	0.004391	0.000000	-0.000014	-0.000001	0.000000	0.000000
63.730426	12.579371	24.071858	-0.120685	0.090773	2.134098	0.000000	-0.000843	0.000000	-0.000014	-0.000001	0.000000	0.000000
64.171386	12.846035	23.726712	-0.486345	0.688963	2.147269	0.000000	0.060633	0.000000	-0.000015	-0.000002	0.000000	0.000000
64.612346	13.443724	22.865871	-0.874224	1.255805	2.187674	0.000000	0.122799	0.000000	-0.000016	-0.000002	0.000000	0.000000
65.053306	14.399744	21.528504	-1.302045	1.765509	2.255774	0.000000	0.186364	0.000000	-0.000017	-0.000002	0.000000	0.000000
65.494266	15.757773	19.775458	-1.789352	2.194884	2.352345	0.000000	0.252051	0.000000	-0.000018	-0.000003	0.000000	0.000000
65.940226	17.603018	17.661697	-2.363100	2.525144	2.480060	0.000000	0.321011	0.000000	-0.000019	-0.000003	0.000000	0.000000
66.489286	19.968586	15.297120	-1.919794	1.806868	2.635947	0.000000	0.245980	0.000000	-0.000021	-0.000003	0.000000	0.000000
67.038346	21.769553	13.646420	-1.340884	1.217291	2.749376	0.000000	0.166585	0.000000	-0.000022	-0.000002	0.000000	0.000000
67.587406	22.878710	12.592020	-0.667260	0.714418	2.818336	0.000000	0.084235	0.000000	-0.000023	-0.000001	0.000000	0.000000
68.136466	23.217709	12.058818	0.053496	0.262432	2.841603	0.000000	0.000391	0.000000	-0.000024	-0.000001	0.000000	0.000000
68.435038	23.225837	11.891321	-0.020040	0.267047	2.843937	0.000000	0.007817	0.000000	-0.000024	-0.000001	0.000000	0.000000
68.768372	23.243983	11.723300	-0.034398	0.237016	2.846543	0.000000	0.007817	0.000000	-0.000024	-0.000001	0.000000	0.000000
69.101705	23.271701	11.575299	-0.048756	0.206986	2.849149	0.000000	0.007817	0.000000	-0.000024	-0.000001	0.000000	0.000000
69.436288	23.309148	11.446877	-0.063167	0.176842	2.851764	0.000000	0.007817	0.000000	-0.000024	-0.000001	0.000000	0.000000
69.733611	23.350518	11.349682	-0.136997	0.179717	2.854088	0.000000	0.015276	0.000000	-0.000025	-0.000001	0.000000	0.000000
70.282671	23.099914	11.379681	0.590718	-0.234675	2.839288	0.000000	-0.069110	0.000000	-0.000025	0.000000	0.000000	0.000000
