#ParticleID	Turn	x[m]	xp	y[m]	yp	z[m]	dE[GeV]# s	beta_x	beta_y	alpha_x	alpha_y	D_x	D_y	D_px	D_py	orbit_x	orbit_px	orbit_y	orbit_py
0.300000	11.833852	24.941442	-0.013635	-0.027783	2.618336	0.000000	-0.000072	0.000000	-0.000001	0.000000	0.000000	0.000000
0.601250	11.849738	24.961822	-0.039097	-0.039870	2.618314	0.000000	-0.000072	0.000000	-0.000001	0.000000	0.000000	0.000000
0.898573	11.880458	24.989078	-0.035091	-0.113081	2.618293	0.000000	-0.006493	0.000000	-0.000001	0.000000	0.000000	0.000000
1.339533	12.063786	24.811654	-0.382234	0.513909	2.631724	0.000000	0.067468	0.000000	-0.000001	0.000000	0.000000	0.000000
1.780493	12.559781	24.089512	-0.746839	1.117517	2.677907	0.000000	0.142198	0.000000	-0.000001	0.000000	0.000000	0.000000
2.221453	13.391102	22.855510	-1.145566	1.670279	2.757369	0.000000	0.218548	0.000000	-0.000001	0.000000	0.000000	0.000000
2.662413	14.595731	21.165793	-1.596630	2.147045	2.871014	0.000000	0.297386	0.000000	-0.000001	0.000000	0.000000	0.000000
3.108373	16.249519	19.072458	-2.124941	2.527251	3.021997	0.000000	0.380101	0.000000	-0.000001	-0.000000	0.000000	0.000000
3.657433	18.370174	16.721463	-1.714533	1.779878	3.205424	0.000000	0.287064	0.000000	-0.000001	0.000000	0.000000	0.000000
4.206493	19.970579	15.117157	-1.183020	1.159283	3.336292	0.000000	0.188935	0.000000	-0.000001	0.000000	0.000000	0.000000
4.755553	20.937688	14.145269	-0.567944	0.621260	3.412281	0.000000	0.087454	0.000000	-0.000001	0.000000	0.000000	0.000000
5.304613	21.203189	13.736573	0.087249	0.127489	3.432043	0.000000	-0.015578	0.000000	-0.000001	0.000000	0.000000	0.000000
5.603185	21.188380	13.645674	0.017753	0.141065	3.430069	0.000000	-0.006610	0.000000	-0.000001	0.000000	0.000000	0.000000
5.936519	21.181790	13.559935	0.002016	0.116151	3.427865	0.000000	-0.006610	0.000000	-0.000001	0.000000	0.000000	0.000000
6.269852	21.185692	13.490806	-0.013721	0.091237	3.425662	0.000000	-0.006610	0.000000	-0.000001	0.000000	0.000000	0.000000
6.604435	21.200158	13.438120	-0.029517	0.066230	3.423450	0.000000	-0.006610	0.000000	-0.000001	0.000000	0.000000	0.000000
6.901758	21.221884	13.405345	-0.099003	0.079033	3.421485	0.000000	0.002329	0.000000	-0.000001	0.000000	0.000000	0.000000
7.450818	20.968825	13.579000	0.557170	-0.397178	3.394565	0.000000	-0.100244	0.000000	-0.000001	0.000000	0.000000	0.000000
7.999878	20.012656	14.287966	1.173986	-0.901680	3.311731	0.000000	-0.201040	0.000000	-0.000001	0.000000	0.000000	0.000000
8.548938	18.420917	15.582741	1.707879	-1.470406	3.174454	0.000000	-0.298269	0.000000	-0.000000	0.000000	0.000000	0.000000
9.097998	16.306040	17.555548	2.121135	-2.143866	2.985167	0.000000	-0.390208	0.000000	-0.000000	0.000000	0.000000	0.000000
9.543958	14.655894	19.313499	1.592230	-1.781421	2.829455	0.000000	-0.308510	0.000000	-0.000000	0.000000	0.000000	0.000000
9.984918	13.455481	20.694803	1.140370	-1.339152	2.710658	0.000000	-0.230809	0.000000	-0.000000	0.000000	0.000000	0.000000
10.425878	12.629178	21.657600	0.740611	-0.835951	2.625514	0.000000	-0.155737	0.000000	-0.000000	0.000000	0.000000	0.000000
10.866838	12.139235	22.158084	0.374687	-0.294716	2.573050	0.000000	-0.082439	0.000000	-0.000000	0.000000	0.000000	0.000000
11.309048	11.963129	22.172969	0.055115	0.205494	2.552650	0.000000	-0.016340	0.000000	-0.000000	0.000000	0.000000	0.000000
11.606371	11.937767	22.054928	0.030186	0.191518	2.547792	0.000000	-0.016340	0.000000	0.000000	0.000000	0.000000	0.000000
12.086371	11.928106	21.881900	-0.010059	0.168956	2.539949	0.000000	-0.016340	0.000000	0.000000	0.000000	0.000000	0.000000
12.566371	11.957080	21.730532	-0.050304	0.146394	2.532106	0.000000	-0.016340	0.000000	0.000000	0.000000	0.000000	0.000000
13.046371	12.024690	21.600823	-0.090549	0.123832	2.524263	0.000000	-0.016340	0.000000	0.000000	0.000000	0.000000	0.000000
13.526371	12.130935	21.492774	-0.130794	0.101270	2.516420	0.000000	-0.016340	0.000000	0.000000	0.000000	0.000000	0.000000
14.007621	12.276243	21.406189	-0.171144	0.078649	2.508556	0.000000	-0.016340	0.000000	0.000000	0.000000	0.000000	0.000000
14.304943	12.385425	21.363575	-0.165701	0.012284	2.503698	0.000000	-0.022480	0.000000	0.000000	0.000000	0.000000	0.000000
14.745903	12.690326	21.118886	-0.528370	0.540506	2.509413	0.000000	0.048428	0.000000	0.000001	0.000000	0.000000	0.000000
15.186863	13.324467	20.417454	-0.915179	1.044135	2.546488	0.000000	0.119887	0.000000	0.000001	0.000000	0.000000	0.000000
15.627823	14.316822	19.291194	-1.343800	1.500256	2.615345	0.000000	0.192712	0.000000	0.000001	0.000000	0.000000	0.000000
16.068783	15.712728	17.791349	-1.833815	1.888117	2.716767	0.000000	0.267732	0.000000	0.000001	0.000000	0.000000	0.000000
16.514743	17.599614	15.964662	-2.412371	2.190821	2.853604	0.000000	0.346263	0.000000	0.000001	0.000000	0.000000	0.000000
17.063803	20.022737	13.924852	-1.974726	1.546203	3.020000	0.000000	0.258958	0.000000	0.000001	0.000000	0.000000	0.000000
17.612863	21.885371	12.528643	-1.397597	1.011717	3.137126	0.000000	0.167059	0.000000	0.000001	0.000000	0.000000	0.000000
18.161923	23.055947	11.676584	-0.721748	0.549293	3.202906	0.000000	0.072197	0.000000	0.000001	0.000000	0.000000	0.000000
18.710983	23.451783	11.307987	0.005081	0.125994	3.216172	0.000000	-0.023946	0.000000	0.000001	0.000000	0.000000	0.000000
19.009556	23.489152	11.223181	-0.068965	0.128497	3.211531	0.000000	-0.015542	0.000000	0.000001	0.000000	0.000000	0.000000
19.342889	23.539881	11.147580	-0.083223	0.098306	3.206350	0.000000	-0.015542	0.000000	0.000001	0.000000	0.000000	0.000000
19.676223	23.600116	11.092106	-0.097481	0.068116	3.201170	0.000000	-0.015542	0.000000	0.000001	0.000000	0.000000	0.000000
20.010806	23.670429	11.056527	-0.229070	0.092592	3.195989	0.000000	0.000292	0.000000	0.000001	0.000000	0.000000	0.000000
20.308129	23.810575	11.009531	-0.304502	0.094236	3.196076	0.000000	0.008643	0.000000	0.000001	0.000000	0.000000	0.000000
20.857189	23.734294	11.128659	0.442610	-0.312483	3.174611	0.000000	-0.086715	0.000000	0.000002	0.000000	0.000000	0.000000
21.406249	22.849977	11.703940	1.158458	-0.741459	3.101135	0.000000	-0.180536	0.000000	0.000002	0.000000	0.000000	0.000000
21.955309	21.220088	12.776352	1.792478	-1.223248	2.976949	0.000000	-0.271154	0.000000	0.000002	-0.000000	0.000000	0.000000
22.504369	18.959754	14.422279	2.299886	-1.792166	2.804258	0.000000	-0.356963	0.000000	0.000002	-0.000000	0.000000	0.000000
22.950329	17.178603	15.899827	1.708184	-1.507040	2.662355	0.000000	-0.279777	0.000000	0.000001	-0.000000	0.000000	0.000000
23.391289	15.901398	17.077812	1.199222	-1.154204	2.555302	0.000000	-0.206233	0.000000	0.000001	-0.000000	0.000000	0.000000
23.832249	15.047293	17.920189	0.745049	-0.748852	2.480130	0.000000	-0.135038	0.000000	0.000001	0.000000	0.000000	0.000000
24.273209	14.577264	18.388631	0.324915	-0.309428	2.435984	0.000000	-0.065380	0.000000	0.000001	0.000000	0.000000	0.000000
24.715418	14.469951	18.461577	-0.044977	0.098733	2.422358	0.000000	-0.002408	0.000000	0.000002	0.000000	0.000000	0.000000
25.012741	14.502818	18.407701	-0.065566	0.082471	2.421642	0.000000	-0.002408	0.000000	0.000002	0.000000	0.000000	0.000000
25.346075	14.554222	18.358797	-0.088649	0.064239	2.420839	0.000000	-0.002408	0.000000	0.000002	0.000000	0.000000	0.000000
25.679408	14.621016	18.322048	-0.111731	0.046008	2.420037	0.000000	-0.002408	0.000000	0.000002	0.000000	0.000000	0.000000
26.013991	14.703237	18.297755	-0.015619	-0.120732	2.419207	0.000000	-0.022034	0.000000	0.000002	0.000000	0.000000	0.000000
26.311314	14.718538	18.374450	0.000248	-0.182277	2.412655	0.000000	-0.027950	0.000000	0.000002	0.000000	0.000000	0.000000
26.752274	14.899690	18.335869	-0.412620	0.269437	2.415436	0.000000	0.040573	0.000000	0.000002	0.000000	0.000000	0.000000
27.193234	15.451865	17.902816	-0.844341	0.708893	2.448505	0.000000	0.109558	0.000000	0.000002	0.000000	0.000000	0.000000
27.634194	16.400290	17.094996	-1.314636	1.116094	2.512240	0.000000	0.179790	0.000000	0.000002	0.000000	0.000000	0.000000
28.075154	17.788295	15.949163	-1.844994	1.472514	2.607366	0.000000	0.252071	0.000000	0.000002	0.000000	0.000000	0.000000
28.521114	19.703417	14.500195	-2.464598	1.762850	2.736569	0.000000	0.327666	0.000000	0.000002	0.000000	0.000000	0.000000
29.070174	22.137539	12.885573	-1.942413	1.195211	2.893823	0.000000	0.244300	0.000000	0.000002	0.000000	0.000000	0.000000
29.619234	23.919045	11.844160	-1.283026	0.712704	3.004044	0.000000	0.156602	0.000000	0.000002	0.000000	0.000000	0.000000
30.168294	24.922097	11.301780	-0.533013	0.280961	3.065280	0.000000	0.066125	0.000000	0.000002	0.000000	0.000000	0.000000
30.717354	25.075845	11.219799	0.254650	-0.130769	3.076442	0.000000	-0.025524	0.000000	0.000003	0.000000	0.000000	0.000000
31.015927	24.966587	11.288409	0.176801	-0.128339	3.071222	0.000000	-0.017486	0.000000	0.000003	0.000000	0.000000	0.000000
31.349260	24.853309	11.383974	0.163032	-0.158355	3.065393	0.000000	-0.017486	0.000000	0.000003	0.000000	0.000000	0.000000
31.682593	24.749211	11.499549	0.149263	-0.188370	3.059564	0.000000	-0.017486	0.000000	0.000003	0.000000	0.000000	0.000000
32.017177	24.653953	11.635680	0.135443	-0.218498	3.053714	0.000000	-0.017486	0.000000	0.000003	0.000000	0.000000	0.000000
32.314499	24.577063	11.773569	0.058948	-0.214509	3.048515	0.000000	-0.009521	0.000000	0.000003	0.000000	0.000000	0.000000
32.863559	24.091331	12.248505	0.820476	-0.655597	3.018415	0.000000	-0.099958	0.000000	0.000003	-0.000000	0.000000	0.000000
33.412619	22.796380	13.230456	1.524050	-1.143382	2.939075	0.000000	-0.188623	0.000000	0.000003	-0.000000	0.000000	0.000000
33.961679	20.783679	14.789364	2.119972	-1.712607	2.811900	0.000000	-0.273942	0.000000	0.000002	-0.000000	0.000000	0.000000
34.510739	18.195394	17.036266	2.566150	-2.403818	2.639147	0.000000	-0.354401	0.000000	0.000002	-0.000000	0.000000	0.000000
34.956699	16.183064	19.045950	1.962374	-2.083787	2.497434	0.000000	-0.281497	0.000000	0.000002	-0.000000	0.000000	0.000000
35.397659	14.682602	20.707408	1.453252	-1.669695	2.388682	0.000000	-0.212226	0.000000	0.000002	-0.000000	0.000000	0.000000
35.838619	13.600280	21.968648	1.010526	-1.179633	2.309914	0.000000	-0.145372	0.000000	0.000002	-0.000000	0.000000	0.000000
36.279579	12.886650	22.772283	0.613968	-0.635899	2.260232	0.000000	-0.080174	0.000000	0.000002	-0.000000	0.000000	0.000000
36.721789	12.508418	23.082049	0.276029	-0.119889	2.239046	0.000000	-0.021380	0.000000	0.000002	-0.000000	0.000000	0.000000
37.019112	12.351885	23.157225	0.250448	-0.132955	2.232689	0.000000	-0.021380	0.000000	0.000002	-0.000000	0.000000	0.000000
37.352445	12.194480	23.250745	0.221769	-0.147604	2.225562	0.000000	-0.021380	0.000000	0.000002	-0.000000	0.000000	0.000000
37.685779	12.056194	23.354030	0.193089	-0.162253	2.218436	0.000000	-0.021380	0.000000	0.000002	-0.000000	0.000000	0.000000
38.020362	11.936616	23.467524	0.164303	-0.176956	2.211282	0.000000	-0.021380	0.000000	0.000002	-0.000000	0.000000	0.000000
38.317684	11.846520	23.576635	0.167773	-0.247839	2.204926	0.000000	-0.026787	0.000000	0.000002	-0.000000	0.000000	0.000000
38.758644	11.849682	23.534089	-0.174970	0.343956	2.207037	0.000000	0.036372	0.000000	0.000002	0.000000	0.000000	0.000000
39.199604	12.157484	22.974561	-0.525706	0.920101	2.237064	0.000000	0.099945	0.000000	0.000002	0.000000	0.000000	0.000000
39.640564	12.783990	21.923509	-0.900461	1.454383	2.295348	0.000000	0.164657	0.000000	0.000002	0.000000	0.000000	0.000000
40.081524	13.757823	20.428755	-1.316355	1.922491	2.382553	0.000000	0.231244	0.000000	0.000002	0.000000	0.000000	0.000000
40.527484	15.141034	18.535741	-1.796212	2.304404	2.501144	0.000000	0.300870	0.000000	0.000002	0.000000	0.000000	0.000000
41.076544	16.906477	16.408583	-1.400146	1.592646	2.645816	0.000000	0.225336	0.000000	0.000002	0.000000	0.000000	0.000000
41.625604	18.179777	14.996514	-0.905180	0.994328	2.747856	0.000000	0.145806	0.000000	0.000002	0.000000	0.000000	0.000000
42.174664	18.870995	14.198956	-0.346277	0.466834	2.805454	0.000000	0.063689	0.000000	0.000002	0.000000	0.000000	0.000000
42.723724	18.931305	13.959100	0.237085	-0.027408	2.817587	0.000000	-0.019557	0.000000	0.000002	-0.000000	0.000000	0.000000
43.022297	18.824142	13.960074	0.171295	-0.012327	2.813946	0.000000	-0.012195	0.000000	0.000002	-0.000000	0.000000	0.000000
43.502297	18.672297	13.988415	0.145048	-0.046716	2.808092	0.000000	-0.012195	0.000000	0.000002	-0.000000	0.000000	0.000000
43.982297	18.545650	14.049769	0.118801	-0.081105	2.802239	0.000000	-0.012195	0.000000	0.000002	-0.000000	0.000000	0.000000
44.462297	18.444200	14.144136	0.092553	-0.115494	2.796385	0.000000	-0.012195	0.000000	0.000002	-0.000000	0.000000	0.000000
44.942297	18.367948	14.271517	0.066306	-0.149883	2.790532	0.000000	-0.012195	0.000000	0.000002	-0.000000	0.000000	0.000000
45.423547	18.317020	14.432194	-0.050763	-0.112856	2.784680	0.000000	0.001602	0.000000	0.000002	-0.000000	0.000000	0.000000
45.720870	18.352044	14.505506	-0.114986	-0.095820	2.785156	0.000000	0.008879	0.000000	0.000002	-0.000000	0.000000	0.000000
46.269930	18.169293	14.891369	0.445860	-0.611099	2.767465	0.000000	-0.073227	0.000000	0.000002	-0.000000	0.000000	0.000000
46.818990	17.384393	15.863508	0.975212	-1.169905	2.704983	0.000000	-0.154033	0.000000	0.000002	-0.000000	0.000000	0.000000
47.368050	16.052786	17.491168	1.435680	-1.812041	2.598820	0.000000	-0.232108	0.000000	0.000002	-0.000000	0.000000	0.000000
47.917110	14.268529	19.890281	1.794739	-2.583244	2.450858	0.000000	-0.306065	0.000000	0.000002	-0.000000	0.000000	0.000000
48.363070	12.879863	22.023429	1.330173	-2.179917	2.329655	0.000000	-0.237778	0.000000	0.000002	-0.000000	0.000000	0.000000
48.804030	11.886920	23.731413	0.930144	-1.678675	2.239262	0.000000	-0.172595	0.000000	0.000001	-0.000000	0.000000	0.000000
49.244990	11.226769	24.961844	0.572611	-1.101053	2.177151	0.000000	-0.109379	0.000000	0.000001	-0.000000	0.000000	0.000000
49.685950	10.869250	25.658738	0.241239	-0.473335	2.142616	0.000000	-0.047408	0.000000	0.000001	-0.000000	0.000000	0.000000
50.128160	10.798159	25.790106	-0.052747	0.112625	2.135273	0.000000	0.008786	0.000000	0.000001	-0.000000	0.000000	0.000000
50.425482	10.837735	25.726605	-0.080359	0.100951	2.137885	0.000000	0.008786	0.000000	0.000001	-0.000000	0.000000	0.000000
50.758816	10.901626	25.663667	-0.111314	0.087862	2.140814	0.000000	0.008786	0.000000	0.000001	-0.000000	0.000000	0.000000
51.092149	10.986153	25.609456	-0.142269	0.074773	2.143743	0.000000	0.008786	0.000000	0.000001	-0.000000	0.000000	0.000000
51.426732	11.091526	25.564334	-0.083359	-0.145755	2.146661	0.000000	-0.008629	0.000000	0.000001	-0.000000	0.000000	0.000000
51.724055	11.149121	25.654538	-0.083011	-0.220545	2.144095	0.000000	-0.013887	0.000000	0.000001	-0.000000	0.000000	0.000000
52.165015	11.367856	25.563666	-0.414915	0.425840	2.151559	0.000000	0.047773	0.000000	0.000001	-0.000000	0.000000	0.000000
52.605975	11.886525	24.909132	-0.765774	1.052849	2.186307	0.000000	0.109977	0.000000	0.000001	-0.000000	0.000000	0.000000
53.046935	12.728824	23.720719	-1.151620	1.631954	2.248734	0.000000	0.173434	0.000000	0.000001	-0.000000	0.000000	0.000000
53.487895	13.933236	22.052498	-1.590081	2.136807	2.339551	0.000000	0.238865	0.000000	0.000001	-0.000000	0.000000	0.000000
53.933855	15.575424	19.955427	-2.105428	2.545770	2.461298	0.000000	0.307416	0.000000	0.000001	-0.000000	0.000000	0.000000
54.482915	17.689622	17.595809	-1.722356	1.777157	2.609908	0.000000	0.233110	0.000000	0.000001	-0.000000	0.000000	0.000000
55.031975	19.313461	16.006174	-1.217625	1.135127	2.716522	0.000000	0.154669	0.000000	0.000001	-0.000000	0.000000	0.000000
55.581035	20.332240	15.073294	-0.626888	0.573950	2.779249	0.000000	0.073485	0.000000	0.000001	-0.000000	0.000000	0.000000
56.130095	20.673999	14.730724	0.008130	0.053654	2.796978	0.000000	-0.009003	0.000000	0.000001	-0.000000	0.000000	0.000000
56.428668	20.705721	14.681804	-0.060360	0.071702	2.796472	0.000000	-0.001695	0.000000	0.000001	-0.000000	0.000000	0.000000
56.762001	20.751346	14.641610	-0.076517	0.048881	2.795907	0.000000	-0.001695	0.000000	0.000001	-0.000000	0.000000	0.000000
57.095334	20.807743	14.616629	-0.092674	0.026061	2.795342	0.000000	-0.001695	0.000000	0.000001	-0.000000	0.000000	0.000000
57.429918	20.875184	14.606854	-0.108892	0.003155	2.794775	0.000000	-0.001695	0.000000	0.000001	-0.000000	0.000000	0.000000
57.727240	20.944221	14.611030	-0.178027	0.020975	2.794271	0.000000	0.005606	0.000000	0.000001	-0.000000	0.000000	0.000000
58.276300	20.782321	14.868666	0.471150	-0.492975	2.774707	0.000000	-0.076764	0.000000	0.000001	-0.000000	0.000000	0.000000
58.825360	19.921683	15.706535	1.087047	-1.042039	2.710225	0.000000	-0.157773	0.000000	0.000000	-0.000000	0.000000	0.000000
59.374420	18.423098	17.184318	1.626160	-1.665325	2.601967	0.000000	-0.235983	0.000000	0.000000	-0.000000	0.000000	0.000000
59.923480	16.392420	19.407273	2.050410	-2.407229	2.451855	0.000000	-0.310008	0.000000	0.000000	-0.000000	0.000000	0.000000
60.369440	14.802895	21.383150	1.526488	-2.004684	2.328896	0.000000	-0.241718	0.000000	0.000000	-0.000000	0.000000	0.000000
60.810400	13.659409	22.939922	1.076523	-1.512297	2.236758	0.000000	-0.176577	0.000000	0.000000	-0.000000	0.000000	0.000000
61.251360	12.889651	24.030331	0.675741	-0.951102	2.172874	0.000000	-0.113448	0.000000	0.000000	-0.000000	0.000000	0.000000
61.692320	12.458453	24.604766	0.305831	-0.346632	2.136516	0.000000	-0.051612	0.000000	0.000000	-0.000000	0.000000	0.000000
62.134530	12.346165	24.636556	-0.019931	0.213139	2.127276	0.000000	0.004421	0.000000	-0.000000	-0.000000	0.000000	0.000000
62.431853	12.365180	24.513565	-0.044023	0.200522	2.128591	0.000000	0.004421	0.000000	-0.000000	-0.000000	0.000000	0.000000
62.765186	12.403531	24.384598	-0.071032	0.186378	2.130065	0.000000	0.004421	0.000000	-0.000000	-0.000000	0.000000	0.000000
63.098520	12.459889	24.265061	-0.098042	0.172233	2.131538	0.000000	0.004421	0.000000	-0.000000	-0.000000	0.000000	0.000000
63.433103	12.534567	24.154559	-0.125153	0.158035	2.133017	0.000000	0.004421	0.000000	-0.000000	-0.000000	0.000000	0.000000
63.730426	12.616152	24.064335	-0.118306	0.086406	2.134332	0.000000	-0.000813	0.000000	-0.000000	-0.000000	0.000000	0.000000
64.171386	12.881067	23.723094	-0.484744	0.684510	2.147516	0.000000	0.060669	0.000000	-0.000000	-0.000000	0.000000	0.000000
64.612346	13.477659	22.866144	-0.873328	1.251469	2.187938	0.000000	0.122842	0.000000	-0.000000	-0.000000	0.000000	0.000000
65.053306	14.433184	21.532475	-1.301812	1.761488	2.256058	0.000000	0.186413	0.000000	-0.000001	-0.000000	0.000000	0.000000
65.494266	15.791297	19.782769	-1.789772	2.191360	2.352651	0.000000	0.252109	0.000000	-0.000001	-0.000000	0.000000	0.000000
65.940226	17.637217	17.671865	-2.364196	2.522285	2.480392	0.000000	0.321077	0.000000	-0.000001	-0.000000	0.000000	0.000000
66.489286	20.003242	15.310326	-1.919524	1.804162	2.636310	0.000000	0.246034	0.000000	-0.000001	-0.000000	0.000000	0.000000
67.038346	21.803168	13.662600	-1.339266	1.214546	2.749765	0.000000	0.166627	0.000000	-0.000001	-0.000000	0.000000	0.000000
67.587406	22.909857	12.611324	-0.664409	0.711439	2.818744	0.000000	0.084264	0.000000	-0.000001	-0.000000	0.000000	0.000000
68.136466	23.245137	12.081619	0.057379	0.259006	2.842022	0.000000	0.000406	0.000000	-0.000001	-0.000000	0.000000	0.000000
68.435038	23.250976	11.916106	-0.016201	0.263774	2.844361	0.000000	0.007832	0.000000	-0.000001	-0.000000	0.000000	0.000000
68.768372	23.266557	11.750230	-0.030541	0.233854	2.846972	0.000000	0.007832	0.000000	-0.000001	-0.000000	0.000000	0.000000
69.101705	23.291698	11.604301	-0.044882	0.203934	2.849582	0.000000	0.007832	0.000000	-0.000001	-0.000000	0.000000	0.000000
69.436288	23.326547	11.477883	-0.059275	0.173902	2.852203	0.000000	0.007832	0.000000	-0.000001	-0.000000	0.000000	0.000000
69.733611	23.365598	11.382407	-0.133117	0.176956	2.854532	0.000000	0.015291	0.000000	-0.000001	-0.000000	0.000000	0.000000
70.282671	23.110496	11.415951	0.594983	-0.238409	2.839735	0.000000	-0.069110	0.000000	-0.000001	-0.000000	0.000000	0.000000
