#ParticleID	Turn	x[m]	xp	y[m]	yp	z[m]	dE[GeV]# s	beta_x	beta_y	alpha_x	alpha_y	D_x	D_y	D_px	D_py	orbit_x	orbit_px	orbit_y	orbit_py
0.300000	11.806794	25.045927	-0.010379	-0.026940	2.618230	0.000000	-0.000034	0.000000	-0.000001	0.000002	0.000000	0.000000
0.601250	11.820735	25.065784	-0.035897	-0.038977	2.618219	0.000000	-0.000034	0.000000	-0.000001	0.000002	0.000000	0.000000
0.898573	11.849569	25.092493	-0.032023	-0.112390	2.618209	0.000000	-0.006454	0.000000	-0.000000	0.000002	0.000000	0.000000
1.339533	12.029857	24.913254	-0.378382	0.517318	2.631656	0.000000	0.067505	0.000000	0.000001	0.000002	0.000000	0.000000
1.780493	12.522046	24.186960	-0.742028	1.123489	2.677854	0.000000	0.142233	0.000000	0.000001	0.000002	0.000000	0.000000
2.221453	13.348623	22.946657	-1.139576	1.678541	2.757330	0.000000	0.218582	0.000000	0.000002	0.000002	0.000000	0.000000
2.662413	14.547351	21.248778	-1.589187	2.157222	2.870989	0.000000	0.297419	0.000000	0.000003	0.000002	0.000000	0.000000
3.108373	16.193723	19.145676	-2.115690	2.538884	3.021987	0.000000	0.380134	0.000000	0.000004	0.000002	0.000000	0.000000
3.657433	18.304950	16.783544	-1.706714	1.788650	3.205431	0.000000	0.287097	0.000000	0.000005	0.000002	0.000000	0.000000
4.206493	19.897812	15.170883	-1.177183	1.165817	3.336316	0.000000	0.188967	0.000000	0.000005	0.000002	0.000000	0.000000
4.755553	20.859797	14.192828	-0.564502	0.626024	3.412322	0.000000	0.087485	0.000000	0.000006	0.000001	0.000000	0.000000
5.304613	21.122954	13.779713	0.088052	0.130820	3.432099	0.000000	-0.015548	0.000000	0.000007	0.000001	0.000000	0.000000
5.603185	21.107554	13.686746	0.018715	0.144551	3.430134	0.000000	-0.006581	0.000000	0.000007	0.000001	0.000000	0.000000
5.936519	21.100343	13.598666	0.002917	0.119688	3.427940	0.000000	-0.006581	0.000000	0.000008	0.000001	0.000000	0.000000
6.269852	21.103664	13.527162	-0.012880	0.094825	3.425746	0.000000	-0.006581	0.000000	0.000008	0.000001	0.000000	0.000000
6.604435	21.117589	13.472059	-0.028737	0.069868	3.423544	0.000000	-0.006581	0.000000	0.000008	0.000001	0.000000	0.000000
6.901758	21.138867	13.437106	-0.098056	0.082797	3.421587	0.000000	0.002358	0.000000	0.000009	0.000001	0.000000	0.000000
7.450818	20.886300	13.607105	0.555332	-0.394243	3.394681	0.000000	-0.100219	0.000000	0.000009	0.000001	0.000000	0.000000
7.999878	19.933627	14.313206	1.169495	-0.899365	3.311860	0.000000	-0.201019	0.000000	0.000010	0.000001	0.000000	0.000000
8.548938	18.348141	15.605701	1.701050	-1.468546	3.174593	0.000000	-0.298253	0.000000	0.000010	0.000000	0.000000	0.000000
9.097998	16.241831	17.576654	2.112451	-2.142328	2.985314	0.000000	-0.390196	0.000000	0.000010	-0.000000	0.000000	0.000000
9.543958	14.598561	19.332850	1.585443	-1.779038	2.829608	0.000000	-0.308494	0.000000	0.000010	0.000000	0.000000	0.000000
9.984918	13.403420	20.711721	1.135154	-1.336038	2.710820	0.000000	-0.230789	0.000000	0.000010	0.000000	0.000000	0.000000
10.425878	12.581115	21.671502	0.736727	-0.832250	2.625684	0.000000	-0.155713	0.000000	0.000010	0.000001	0.000000	0.000000
10.866838	12.094076	22.168522	0.371959	-0.290594	2.573232	0.000000	-0.082410	0.000000	0.000011	0.000001	0.000000	0.000000
11.309048	11.919920	22.179644	0.053308	0.209837	2.552846	0.000000	-0.016306	0.000000	0.000011	0.000001	0.000000	0.000000
11.606371	11.895658	22.059027	0.028294	0.195841	2.547998	0.000000	-0.016306	0.000000	0.000012	0.000001	0.000000	0.000000
12.086371	11.887880	21.881865	-0.012089	0.173247	2.540171	0.000000	-0.016306	0.000000	0.000012	0.000001	0.000000	0.000000
12.566371	11.918870	21.726393	-0.052473	0.150652	2.532343	0.000000	-0.016306	0.000000	0.000013	0.000001	0.000000	0.000000
13.046371	11.988627	21.592612	-0.092856	0.128058	2.524516	0.000000	-0.016306	0.000000	0.000013	0.000001	0.000000	0.000000
13.526371	12.097153	21.480522	-0.133239	0.105464	2.516689	0.000000	-0.016306	0.000000	0.000014	0.000001	0.000000	0.000000
14.007621	12.244880	21.389915	-0.173727	0.082810	2.508841	0.000000	-0.016306	0.000000	0.000014	0.000001	0.000000	0.000000
14.304943	12.355624	21.344833	-0.168446	0.016479	2.503993	0.000000	-0.022445	0.000000	0.000015	0.000001	0.000000	0.000000
14.745903	12.662678	21.096695	-0.530525	0.544103	2.509725	0.000000	0.048470	0.000000	0.000015	0.000002	0.000000	0.000000
15.186863	13.298498	20.392415	-0.916843	1.046971	2.546819	0.000000	0.119938	0.000000	0.000016	0.000002	0.000000	0.000000
15.627823	14.292132	19.264037	-1.345048	1.502202	2.615699	0.000000	0.192772	0.000000	0.000017	0.000002	0.000000	0.000000
16.068783	15.688978	17.762902	-1.834705	1.889085	2.717148	0.000000	0.267801	0.000000	0.000018	0.000003	0.000000	0.000000
16.514743	17.576514	15.935811	-2.412943	2.190758	2.854017	0.000000	0.346342	0.000000	0.000020	0.000003	0.000000	0.000000
17.063803	20.000867	13.895751	-1.976378	1.546723	3.020451	0.000000	0.259023	0.000000	0.000021	0.000003	0.000000	0.000000
17.612863	21.865859	12.498634	-1.400211	1.012857	3.137608	0.000000	0.167109	0.000000	0.000023	0.000002	0.000000	0.000000
18.161923	23.039754	11.644948	-0.725140	0.551135	3.203410	0.000000	0.072231	0.000000	0.000024	0.000001	0.000000	0.000000
18.710983	23.439635	11.273885	0.001151	0.128669	3.216690	0.000000	-0.023928	0.000000	0.000024	0.000000	0.000000	0.000000
19.009556	23.479329	11.187570	-0.072864	0.130974	3.212054	0.000000	-0.015525	0.000000	0.000024	0.000001	0.000000	0.000000
19.342889	23.532663	11.110356	-0.087136	0.100668	3.206879	0.000000	-0.015525	0.000000	0.000024	0.000001	0.000000	0.000000
19.676223	23.595511	11.053346	-0.101409	0.070361	3.201704	0.000000	-0.015525	0.000000	0.000025	0.000001	0.000000	0.000000
20.010806	23.668457	11.016304	-0.233001	0.094523	3.196529	0.000000	0.000312	0.000000	0.000025	0.000001	0.000000	0.000000
20.308129	23.810947	10.968193	-0.308446	0.095945	3.196621	0.000000	0.008663	0.000000	0.000025	0.000001	0.000000	0.000000
20.857189	23.738969	11.084799	0.438763	-0.309573	3.175162	0.000000	-0.086714	0.000000	0.000025	-0.000000	0.000000	0.000000
21.406249	22.858698	11.656136	1.154979	-0.737141	3.101682	0.000000	-0.180552	0.000000	0.000025	-0.000001	0.000000	0.000000
21.955309	21.232311	12.722898	1.789614	-1.217214	2.977483	0.000000	-0.271188	0.000000	0.000024	-0.000002	0.000000	0.000000
22.504369	18.974689	14.361069	2.297839	-1.783987	2.804770	0.000000	-0.357013	0.000000	0.000023	-0.000002	0.000000	0.000000
22.950329	17.195400	15.831927	1.706038	-1.500283	2.662848	0.000000	-0.279815	0.000000	0.000022	-0.000002	0.000000	0.000000
23.391289	15.920167	17.004692	1.196878	-1.149169	2.555781	0.000000	-0.206258	0.000000	0.000021	-0.000001	0.000000	0.000000
23.832249	15.068254	17.843476	0.742401	-0.745769	2.480602	0.000000	-0.135050	0.000000	0.000021	-0.000001	0.000000	0.000000
24.273209	14.600739	18.310115	0.321841	-0.308437	2.436453	0.000000	-0.065381	0.000000	0.000021	-0.000000	0.000000	0.000000
24.715418	14.496385	18.383132	-0.048559	0.097787	2.422829	0.000000	-0.002396	0.000000	0.000021	0.000000	0.000000	0.000000
25.012741	14.531373	18.329838	-0.069117	0.081458	2.422117	0.000000	-0.002396	0.000000	0.000021	0.000000	0.000000	0.000000
25.346075	14.585133	18.281635	-0.092166	0.063153	2.421318	0.000000	-0.002396	0.000000	0.000021	0.000000	0.000000	0.000000
25.679408	14.654260	18.245635	-0.115214	0.044847	2.420519	0.000000	-0.002396	0.000000	0.000021	0.000000	0.000000	0.000000
26.013991	14.738799	18.222142	-0.018778	-0.121355	2.419693	0.000000	-0.022026	0.000000	0.000021	0.000000	0.000000	0.000000
26.311314	14.755965	18.299228	-0.002779	-0.182778	2.413144	0.000000	-0.027943	0.000000	0.000021	0.000000	0.000000	0.000000
26.752274	14.940202	18.261988	-0.416614	0.266910	2.415930	0.000000	0.040593	0.000000	0.000021	0.000001	0.000000	0.000000
27.193234	15.496391	17.832020	-0.849483	0.704453	2.449011	0.000000	0.109591	0.000000	0.000021	0.000001	0.000000	0.000000
27.634194	16.449942	17.028887	-1.321163	1.109944	2.512763	0.000000	0.179837	0.000000	0.000022	0.000002	0.000000	0.000000
28.075154	17.844420	15.889131	-1.853202	1.464934	2.607912	0.000000	0.252131	0.000000	0.000023	0.000002	0.000000	0.000000
28.521114	19.767760	14.447439	-2.474881	1.754182	2.737144	0.000000	0.327740	0.000000	0.000024	0.000003	0.000000	0.000000
29.070174	22.212326	12.841182	-1.951035	1.188553	2.894432	0.000000	0.244356	0.000000	0.000025	0.000002	0.000000	0.000000
29.619234	24.002104	11.806199	-1.289378	0.707581	3.004678	0.000000	0.156637	0.000000	0.000026	0.000001	0.000000	0.000000
30.168294	25.010672	11.268772	-0.536646	0.277009	3.065927	0.000000	0.066140	0.000000	0.000027	0.000000	0.000000	0.000000
30.717354	25.166790	11.190620	0.253992	-0.133832	3.077092	0.000000	-0.025530	0.000000	0.000027	-0.000001	0.000000	0.000000
31.015927	25.058045	11.261134	0.175967	-0.131572	3.071869	0.000000	-0.017492	0.000000	0.000027	-0.000000	0.000000	0.000000
31.349260	24.945305	11.358886	0.162252	-0.161684	3.066039	0.000000	-0.017492	0.000000	0.000026	-0.000000	0.000000	0.000000
31.682593	24.841709	11.476713	0.148538	-0.191797	3.060208	0.000000	-0.017492	0.000000	0.000026	-0.000000	0.000000	0.000000
32.017177	24.746918	11.615171	0.134772	-0.222023	3.054355	0.000000	-0.017492	0.000000	0.000026	-0.000000	0.000000	0.000000
32.314499	24.670413	11.755181	0.058094	-0.218175	3.049155	0.000000	-0.009527	0.000000	0.000026	-0.000000	0.000000	0.000000
32.863559	24.183911	12.233948	0.822723	-0.658946	3.019046	0.000000	-0.099985	0.000000	0.000026	-0.000001	0.000000	0.000000
33.412619	22.884852	13.219513	1.529239	-1.146653	2.939686	0.000000	-0.188670	0.000000	0.000025	-0.000002	0.000000	0.000000
33.961679	20.864994	14.782076	2.127737	-1.716033	2.812481	0.000000	-0.274008	0.000000	0.000023	-0.000003	0.000000	0.000000
34.510739	18.267011	17.032936	2.575942	-2.407643	2.639688	0.000000	-0.354486	0.000000	0.000022	-0.000004	0.000000	0.000000
34.956699	16.246933	19.046274	1.970015	-2.088121	2.497941	0.000000	-0.281568	0.000000	0.000020	-0.000003	0.000000	0.000000
35.397659	14.740540	20.711704	1.459109	-1.674335	2.389162	0.000000	-0.212284	0.000000	0.000019	-0.000002	0.000000	0.000000
35.838619	13.653738	21.977094	1.014866	-1.184369	2.310371	0.000000	-0.145418	0.000000	0.000018	-0.000002	0.000000	0.000000
36.279579	12.936874	22.784868	0.616990	-0.640514	2.260673	0.000000	-0.080209	0.000000	0.000017	-0.000002	0.000000	0.000000
36.721789	12.556502	23.098585	0.277984	-0.124206	2.239474	0.000000	-0.021404	0.000000	0.000017	-0.000001	0.000000	0.000000
37.019112	12.398784	23.176329	0.252475	-0.137276	2.233111	0.000000	-0.021404	0.000000	0.000016	-0.000001	0.000000	0.000000
37.352445	12.240000	23.272731	0.223877	-0.151930	2.225977	0.000000	-0.021404	0.000000	0.000016	-0.000001	0.000000	0.000000
37.685779	12.100282	23.378903	0.195279	-0.166584	2.218842	0.000000	-0.021404	0.000000	0.000015	-0.000001	0.000000	0.000000
38.020362	11.979212	23.495296	0.166574	-0.181292	2.211681	0.000000	-0.021404	0.000000	0.000015	-0.000001	0.000000	0.000000
38.317684	11.887744	23.606987	0.170213	-0.252246	2.205318	0.000000	-0.026811	0.000000	0.000015	-0.000001	0.000000	0.000000
38.758644	11.889163	23.567960	-0.173443	0.340414	2.207421	0.000000	0.036358	0.000000	0.000014	-0.000001	0.000000	0.000000
39.199604	12.195994	23.011114	-0.525023	0.917585	2.237444	0.000000	0.099941	0.000000	0.000014	-0.000000	0.000000	0.000000
39.640564	12.822256	21.961785	-0.900590	1.453006	2.295729	0.000000	0.164663	0.000000	0.000014	-0.000000	0.000000	0.000000
40.081524	13.796561	20.467716	-1.317302	1.922317	2.382939	0.000000	0.231260	0.000000	0.000014	0.000000	0.000000	0.000000
40.527484	15.181000	18.574310	-1.798026	2.305451	2.501539	0.000000	0.300895	0.000000	0.000014	0.000001	0.000000	0.000000
41.076544	16.947614	16.446540	-1.400452	1.592720	2.646222	0.000000	0.225349	0.000000	0.000014	0.000000	0.000000	0.000000
41.625604	18.220407	15.034918	-0.903957	0.993435	2.748265	0.000000	0.145806	0.000000	0.000014	-0.000000	0.000000	0.000000
42.174664	18.909475	14.238898	-0.343611	0.464910	2.805859	0.000000	0.063676	0.000000	0.000014	-0.000001	0.000000	0.000000
42.723724	18.966146	14.001781	0.241006	-0.030501	2.817982	0.000000	-0.019583	0.000000	0.000013	-0.000001	0.000000	0.000000
43.022297	18.856691	14.004517	0.175137	-0.015245	2.814334	0.000000	-0.012221	0.000000	0.000013	-0.000001	0.000000	0.000000
43.502297	18.701153	14.035608	0.148901	-0.049528	2.808468	0.000000	-0.012221	0.000000	0.000013	-0.000001	0.000000	0.000000
43.982297	18.570801	14.099611	0.122666	-0.083810	2.802602	0.000000	-0.012221	0.000000	0.000012	-0.000001	0.000000	0.000000
44.462297	18.465635	14.196524	0.096430	-0.118093	2.796736	0.000000	-0.012221	0.000000	0.000011	-0.000001	0.000000	0.000000
44.942297	18.385656	14.326349	0.070194	-0.152376	2.790871	0.000000	-0.012221	0.000000	0.000011	-0.000001	0.000000	0.000000
45.423547	18.330980	14.489372	-0.046933	-0.114958	2.785007	0.000000	0.001577	0.000000	0.000010	-0.000001	0.000000	0.000000
45.720870	18.363722	14.563913	-0.111165	-0.097700	2.785476	0.000000	0.008854	0.000000	0.000010	-0.000001	0.000000	0.000000
46.269930	18.176593	14.952829	0.449964	-0.614810	2.767769	0.000000	-0.073261	0.000000	0.000009	-0.000001	0.000000	0.000000
46.818990	17.387162	15.930164	0.979310	-1.175712	2.705267	0.000000	-0.154077	0.000000	0.000008	-0.000002	0.000000	0.000000
47.368050	16.051192	17.565533	1.439482	-1.820357	2.599078	0.000000	-0.232160	0.000000	0.000007	-0.000002	0.000000	0.000000
47.917110	14.263047	19.975419	1.797976	-2.594663	2.451085	0.000000	-0.306126	0.000000	0.000006	-0.000002	0.000000	0.000000
48.363070	12.871594	22.117950	1.333210	-2.189452	2.329857	0.000000	-0.237833	0.000000	0.000005	-0.000002	0.000000	0.000000
48.804030	11.876007	23.833353	0.933125	-1.685899	2.239442	0.000000	-0.172646	0.000000	0.000005	-0.000002	0.000000	0.000000
49.244990	11.213202	25.069012	0.575672	-1.105640	2.177311	0.000000	-0.109425	0.000000	0.000004	-0.000002	0.000000	0.000000
49.685950	10.852896	25.768706	0.244520	-0.475074	2.142757	0.000000	-0.047450	0.000000	0.000003	-0.000002	0.000000	0.000000
50.128160	10.778752	25.900315	-0.049145	0.113544	2.135397	0.000000	0.008747	0.000000	0.000002	-0.000002	0.000000	0.000000
50.425482	10.816197	25.836254	-0.076796	0.101917	2.137998	0.000000	0.008747	0.000000	0.000002	-0.000002	0.000000	0.000000
50.758816	10.877727	25.772654	-0.107795	0.088881	2.140914	0.000000	0.008747	0.000000	0.000001	-0.000002	0.000000	0.000000
51.092149	10.959924	25.717746	-0.138795	0.075845	2.143831	0.000000	0.008747	0.000000	0.000001	-0.000002	0.000000	0.000000
51.426732	11.062987	25.671891	-0.080161	-0.145502	2.146736	0.000000	-0.008668	0.000000	0.000000	-0.000002	0.000000	0.000000
51.724055	11.118696	25.761930	-0.079943	-0.220506	2.144159	0.000000	-0.013926	0.000000	-0.000000	-0.000002	0.000000	0.000000
52.165015	11.334397	25.669768	-0.411075	0.428712	2.151607	0.000000	0.047735	0.000000	-0.000001	-0.000002	0.000000	0.000000
52.605975	11.849276	25.011496	-0.760988	1.058424	2.186339	0.000000	0.109940	0.000000	-0.000002	-0.000002	0.000000	0.000000
53.046935	12.686858	23.817063	-1.145669	1.639979	2.248750	0.000000	0.173397	0.000000	-0.000003	-0.000002	0.000000	0.000000
53.487895	13.885408	22.140815	-1.582691	2.146915	2.339552	0.000000	0.238829	0.000000	-0.000003	-0.000002	0.000000	0.000000
53.933855	15.520234	20.033961	-2.096248	2.557508	2.461284	0.000000	0.307380	0.000000	-0.000004	-0.000002	0.000000	0.000000
54.482915	17.625072	17.663160	-1.714590	1.785906	2.609874	0.000000	0.233075	0.000000	-0.000005	-0.000002	0.000000	0.000000
55.031975	19.241415	16.065265	-1.211821	1.141511	2.716470	0.000000	0.154635	0.000000	-0.000006	-0.000002	0.000000	0.000000
55.581035	20.255092	15.126459	-0.623456	0.578423	2.779180	0.000000	0.073453	0.000000	-0.000007	-0.000001	0.000000	0.000000
56.130095	20.594503	14.779875	0.008947	0.056535	2.796892	0.000000	-0.009033	0.000000	-0.000008	-0.000001	0.000000	0.000000
56.428668	20.625632	14.729140	-0.059393	0.074771	2.796378	0.000000	-0.001724	0.000000	-0.000008	-0.000001	0.000000	0.000000
56.762001	20.670633	14.686878	-0.075611	0.052013	2.795803	0.000000	-0.001724	0.000000	-0.000008	-0.000001	0.000000	0.000000
57.095334	20.726446	14.659789	-0.091829	0.029256	2.795229	0.000000	-0.001724	0.000000	-0.000009	-0.000001	0.000000	0.000000
57.429918	20.793342	14.647854	-0.108108	0.006413	2.794652	0.000000	-0.001724	0.000000	-0.000009	-0.000001	0.000000	0.000000
57.727240	20.861929	14.650076	-0.177087	0.024395	2.794140	0.000000	0.005577	0.000000	-0.000010	-0.000001	0.000000	0.000000
58.276300	20.700515	14.904555	0.469329	-0.490612	2.774562	0.000000	-0.076789	0.000000	-0.000010	-0.000001	0.000000	0.000000
58.825360	19.843342	15.740329	1.082593	-1.040564	2.710067	0.000000	-0.157793	0.000000	-0.000010	-0.000001	0.000000	0.000000
59.374420	18.350958	17.216928	1.619389	-1.664633	2.601801	0.000000	-0.235998	0.000000	-0.000011	-0.000000	0.000000	0.000000
59.923480	16.328776	19.439527	2.041799	-2.407270	2.451682	0.000000	-0.310017	0.000000	-0.000011	0.000000	0.000000	0.000000
60.369440	14.746070	21.414954	1.519757	-2.003638	2.328718	0.000000	-0.241731	0.000000	-0.000011	-0.000000	0.000000	0.000000
60.810400	13.607815	22.970343	1.071348	-1.510219	2.236573	0.000000	-0.176596	0.000000	-0.000011	-0.000000	0.000000	0.000000
61.251360	12.842024	24.058499	0.671885	-0.948087	2.172680	0.000000	-0.113472	0.000000	-0.000011	-0.000001	0.000000	0.000000
61.692320	12.413711	24.629910	0.303120	-0.342817	2.136311	0.000000	-0.051640	0.000000	-0.000011	-0.000001	0.000000	0.000000
62.134530	12.303361	24.658035	-0.021724	0.217521	2.127058	0.000000	0.004387	0.000000	-0.000012	-0.000001	0.000000	0.000000
62.431853	12.323467	24.532442	-0.045902	0.204893	2.128363	0.000000	0.004387	0.000000	-0.000012	-0.000001	0.000000	0.000000
62.765186	12.363104	24.400566	-0.073007	0.190735	2.129825	0.000000	0.004387	0.000000	-0.000013	-0.000001	0.000000	0.000000
63.098520	12.420811	24.278129	-0.100113	0.176577	2.131288	0.000000	0.004387	0.000000	-0.000013	-0.000001	0.000000	0.000000
63.433103	12.496906	24.164724	-0.127320	0.162366	2.132756	0.000000	0.004387	0.000000	-0.000013	-0.000001	0.000000	0.000000
63.730426	12.579805	24.071929	-0.120644	0.090698	2.134061	0.000000	-0.000847	0.000000	-0.000014	-0.000001	0.000000	0.000000
64.171386	12.846437	23.726848	-0.486313	0.688891	2.147229	0.000000	0.060628	0.000000	-0.000014	-0.000002	0.000000	0.000000
64.612346	13.444101	22.866068	-0.874200	1.255741	2.187632	0.000000	0.122793	0.000000	-0.000015	-0.000002	0.000000	0.000000
65.053306	14.400103	21.528753	-1.302027	1.765455	2.255730	0.000000	0.186357	0.000000	-0.000016	-0.000002	0.000000	0.000000
65.494266	15.758118	19.775750	-1.789339	2.194842	2.352297	0.000000	0.252043	0.000000	-0.000017	-0.000003	0.000000	0.000000
65.940226	17.603354	17.662020	-2.363092	2.525117	2.480007	0.000000	0.321002	0.000000	-0.000019	-0.000003	0.000000	0.000000
66.489286	19.968905	15.297475	-1.919771	1.806838	2.635889	0.000000	0.245971	0.000000	-0.000020	-0.000003	0.000000	0.000000
67.038346	21.769838	13.646810	-1.340846	1.217255	2.749315	0.000000	0.166578	0.000000	-0.000022	-0.000002	0.000000	0.000000
67.587406	22.878947	12.592453	-0.667211	0.714375	2.818271	0.000000	0.084231	0.000000	-0.000022	-0.000001	0.000000	0.000000
68.136466	23.217889	12.059304	0.053552	0.262379	2.841537	0.000000	0.000389	0.000000	-0.000023	-0.000001	0.000000	0.000000
68.435038	23.225983	11.891837	-0.019984	0.266996	2.843870	0.000000	0.007815	0.000000	-0.000023	-0.000001	0.000000	0.000000
68.768372	23.244091	11.723849	-0.034342	0.236968	2.846475	0.000000	0.007815	0.000000	-0.000023	-0.000001	0.000000	0.000000
69.101705	23.271771	11.575880	-0.048699	0.206939	2.849080	0.000000	0.007815	0.000000	-0.000023	-0.000001	0.000000	0.000000
69.436288	23.309181	11.447488	-0.063110	0.176798	2.851695	0.000000	0.007815	0.000000	-0.000024	-0.000001	0.000000	0.000000
69.733611	23.350517	11.350320	-0.136939	0.179675	2.854019	0.000000	0.015273	0.000000	-0.000024	-0.000001	0.000000	0.000000
70.282671	23.099851	11.380374	0.590773	-0.234735	2.839217	0.000000	-0.069110	0.000000	-0.000024	0.000000	0.000000	0.000000
