#ParticleID	Turn	x[m]	xp	y[m]	yp	z[m]	dE[GeV]# s	beta_x	beta_y	alpha_x	alpha_y	D_x	D_y	D_px	D_py	orbit_x	orbit_px	orbit_y	orbit_py
0.300000	11.808817	25.038045	-0.010564	-0.027039	2.618181	0.000000	-0.000016	0.000000	-0.000001	0.000002	0.000000	0.000000
0.601250	11.822868	25.057963	-0.036078	-0.039080	2.618176	0.000000	-0.000016	0.000000	-0.000000	0.000002	0.000000	0.000000
0.898573	11.851809	25.084735	-0.032195	-0.112478	2.618171	0.000000	-0.006436	0.000000	0.000000	0.000002	0.000000	0.000000
1.339533	12.032272	24.905663	-0.378609	0.517027	2.631626	0.000000	0.067522	0.000000	0.000001	0.000002	0.000000	0.000000
1.780493	12.524690	24.179711	-0.742321	1.123008	2.677832	0.000000	0.142250	0.000000	0.000002	0.000002	0.000000	0.000000
2.221453	13.351559	22.939908	-1.139948	1.677893	2.757315	0.000000	0.218597	0.000000	0.000002	0.000002	0.000000	0.000000
2.662413	14.550656	21.242664	-1.589655	2.156434	2.870981	0.000000	0.297435	0.000000	0.000003	0.000002	0.000000	0.000000
3.108373	16.197496	19.140314	-2.116277	2.537993	3.021985	0.000000	0.380150	0.000000	0.000004	0.000002	0.000000	0.000000
3.657433	18.309316	16.779037	-1.707199	1.787973	3.205438	0.000000	0.287112	0.000000	0.000005	0.000002	0.000000	0.000000
4.206493	19.902640	15.167024	-1.177534	1.165307	3.336332	0.000000	0.188982	0.000000	0.000006	0.000001	0.000000	0.000000
4.755553	20.864924	14.189456	-0.564693	0.625642	3.412345	0.000000	0.087500	0.000000	0.000006	0.000001	0.000000	0.000000
5.304613	21.128196	13.776702	0.088035	0.130541	3.432130	0.000000	-0.015535	0.000000	0.000007	0.000001	0.000000	0.000000
5.603185	21.112813	13.683907	0.018688	0.144261	3.430169	0.000000	-0.006568	0.000000	0.000007	0.000001	0.000000	0.000000
5.936519	21.105619	13.596022	0.002894	0.119395	3.427980	0.000000	-0.006568	0.000000	0.000008	0.000001	0.000000	0.000000
6.269852	21.108955	13.524714	-0.012900	0.094528	3.425790	0.000000	-0.006568	0.000000	0.000008	0.000001	0.000000	0.000000
6.604435	21.122891	13.469810	-0.028753	0.069569	3.423592	0.000000	-0.006568	0.000000	0.000008	0.000001	0.000000	0.000000
6.901758	21.144177	13.435036	-0.098082	0.082489	3.421639	0.000000	0.002372	0.000000	0.000009	0.000001	0.000000	0.000000
7.450818	20.891541	13.605343	0.555483	-0.394499	3.394740	0.000000	-0.100207	0.000000	0.000009	0.000001	0.000000	0.000000
7.999878	19.938609	14.311704	1.169812	-0.899586	3.311925	0.000000	-0.201009	0.000000	0.000010	0.000001	0.000000	0.000000
8.548938	18.352692	15.604431	1.701511	-1.468749	3.174663	0.000000	-0.298245	0.000000	0.000010	0.000000	0.000000	0.000000
9.097998	16.245811	17.575603	2.113024	-2.142527	2.985388	0.000000	-0.390191	0.000000	0.000010	-0.000000	0.000000	0.000000
9.543958	14.602085	19.332000	1.585895	-1.779289	2.829685	0.000000	-0.308487	0.000000	0.000010	0.000000	0.000000	0.000000
9.984918	13.406591	20.711112	1.135507	-1.336330	2.710900	0.000000	-0.230780	0.000000	0.000010	0.000000	0.000000	0.000000
10.425878	12.584012	21.671163	0.736997	-0.832569	2.625769	0.000000	-0.155702	0.000000	0.000010	0.000001	0.000000	0.000000
10.866838	12.096767	22.168472	0.372158	-0.290927	2.573323	0.000000	-0.082396	0.000000	0.000011	0.000001	0.000000	0.000000
11.309048	11.922462	22.179888	0.053452	0.209506	2.552944	0.000000	-0.016290	0.000000	0.000011	0.000001	0.000000	0.000000
11.606371	11.898113	22.059467	0.028443	0.195513	2.548100	0.000000	-0.016290	0.000000	0.000011	0.000001	0.000000	0.000000
12.086371	11.890188	21.882618	-0.011932	0.172922	2.540280	0.000000	-0.016290	0.000000	0.000012	0.000001	0.000000	0.000000
12.566371	11.921023	21.727457	-0.052308	0.150331	2.532460	0.000000	-0.016290	0.000000	0.000013	0.000001	0.000000	0.000000
13.046371	11.990618	21.593983	-0.092683	0.127740	2.524641	0.000000	-0.016290	0.000000	0.000013	0.000001	0.000000	0.000000
13.526371	12.098974	21.482197	-0.133058	0.105148	2.516821	0.000000	-0.016290	0.000000	0.000014	0.000001	0.000000	0.000000
14.007621	12.246523	21.391892	-0.173538	0.082499	2.508981	0.000000	-0.016290	0.000000	0.000014	0.000001	0.000000	0.000000
14.304943	12.357153	21.346995	-0.168248	0.016163	2.504137	0.000000	-0.022430	0.000000	0.000015	0.000001	0.000000	0.000000
14.745903	12.664045	21.099107	-0.530356	0.543853	2.509877	0.000000	0.048490	0.000000	0.000015	0.000002	0.000000	0.000000
15.186863	13.299725	20.395015	-0.916694	1.046797	2.546981	0.000000	0.119961	0.000000	0.000016	0.000002	0.000000	0.000000
15.627823	14.293235	19.266754	-1.344913	1.502113	2.615872	0.000000	0.192799	0.000000	0.000017	0.000002	0.000000	0.000000
16.068783	15.689965	17.765659	-1.834578	1.889084	2.717334	0.000000	0.267833	0.000000	0.000018	0.000003	0.000000	0.000000
16.514743	17.577388	15.938529	-2.412817	2.190846	2.854219	0.000000	0.346380	0.000000	0.000019	0.000003	0.000000	0.000000
17.063803	20.001573	13.898408	-1.976199	1.546746	3.020672	0.000000	0.259053	0.000000	0.000021	0.000003	0.000000	0.000000
17.612863	21.866344	12.501301	-1.399992	1.012817	3.137844	0.000000	0.167132	0.000000	0.000022	0.000002	0.000000	0.000000
18.161923	23.039984	11.647693	-0.724897	0.551030	3.203656	0.000000	0.072246	0.000000	0.000023	0.000001	0.000000	0.000000
18.710983	23.439591	11.276785	0.001402	0.128490	3.216942	0.000000	-0.023921	0.000000	0.000024	0.000000	0.000000	0.000000
19.009556	23.479135	11.190569	-0.072613	0.130811	3.212309	0.000000	-0.015517	0.000000	0.000024	0.000001	0.000000	0.000000
19.342889	23.532301	11.113460	-0.086885	0.100515	3.207136	0.000000	-0.015517	0.000000	0.000024	0.000001	0.000000	0.000000
19.676223	23.594981	11.056549	-0.101156	0.070218	3.201964	0.000000	-0.015517	0.000000	0.000024	0.000001	0.000000	0.000000
20.010806	23.667758	11.019600	-0.232745	0.094406	3.196791	0.000000	0.000321	0.000000	0.000024	0.000001	0.000000	0.000000
20.308129	23.810096	10.971556	-0.308187	0.095845	3.196887	0.000000	0.008673	0.000000	0.000024	0.000001	0.000000	0.000000
20.857189	23.737850	11.088324	0.438988	-0.309770	3.175431	0.000000	-0.086712	0.000000	0.000025	-0.000000	0.000000	0.000000
21.406249	22.857357	11.659936	1.155155	-0.737448	3.101949	0.000000	-0.180559	0.000000	0.000024	-0.000001	0.000000	0.000000
21.955309	21.230810	12.727106	1.789728	-1.217654	2.977744	0.000000	-0.271204	0.000000	0.000024	-0.000002	0.000000	0.000000
22.504369	18.973101	14.365846	2.297883	-1.784591	2.805019	0.000000	-0.357038	0.000000	0.000022	-0.000002	0.000000	0.000000
22.950329	17.193761	15.837193	1.706107	-1.500772	2.663088	0.000000	-0.279833	0.000000	0.000021	-0.000002	0.000000	0.000000
23.391289	15.918455	17.010332	1.196976	-1.149523	2.556015	0.000000	-0.206270	0.000000	0.000021	-0.000001	0.000000	0.000000
23.832249	15.066442	17.849362	0.742531	-0.745971	2.480831	0.000000	-0.135056	0.000000	0.000020	-0.000001	0.000000	0.000000
24.273209	14.598795	18.316108	0.322011	-0.308478	2.436681	0.000000	-0.065381	0.000000	0.000020	-0.000000	0.000000	0.000000
24.715418	14.494271	18.389089	-0.048348	0.097894	2.423059	0.000000	-0.002391	0.000000	0.000020	0.000000	0.000000	0.000000
25.012741	14.529134	18.335730	-0.068909	0.081571	2.422348	0.000000	-0.002391	0.000000	0.000020	0.000000	0.000000	0.000000
25.346075	14.582757	18.287450	-0.091960	0.063270	2.421551	0.000000	-0.002391	0.000000	0.000020	0.000000	0.000000	0.000000
25.679408	14.651747	18.251370	-0.115011	0.044970	2.420754	0.000000	-0.002391	0.000000	0.000020	0.000000	0.000000	0.000000
26.013991	14.736152	18.227793	-0.018600	-0.121272	2.419930	0.000000	-0.022023	0.000000	0.000020	0.000000	0.000000	0.000000
26.311314	14.753213	18.304828	-0.002611	-0.182704	2.413382	0.000000	-0.027940	0.000000	0.000020	0.000000	0.000000	0.000000
26.752274	14.937271	18.267455	-0.416376	0.267134	2.416171	0.000000	0.040602	0.000000	0.000020	0.000001	0.000000	0.000000
27.193234	15.493215	17.837226	-0.849164	0.704818	2.449257	0.000000	0.109606	0.000000	0.000021	0.000001	0.000000	0.000000
27.634194	16.446444	17.033715	-1.320748	1.110433	2.513017	0.000000	0.179859	0.000000	0.000021	0.000002	0.000000	0.000000
28.075154	17.840509	15.893482	-1.852674	1.465524	2.608177	0.000000	0.252160	0.000000	0.000022	0.000002	0.000000	0.000000
28.521114	19.763317	14.451228	-2.474213	1.754847	2.737424	0.000000	0.327776	0.000000	0.000023	0.000003	0.000000	0.000000
29.070174	22.207211	12.844326	-1.950486	1.189069	2.894729	0.000000	0.244382	0.000000	0.000025	0.000002	0.000000	0.000000
29.619234	23.996469	11.808842	-1.288987	0.707986	3.004987	0.000000	0.156653	0.000000	0.000026	0.000001	0.000000	0.000000
30.168294	25.004707	11.271018	-0.536440	0.277331	3.066242	0.000000	0.066146	0.000000	0.000026	0.000000	0.000000	0.000000
30.717354	25.160708	11.192548	0.253998	-0.133570	3.077407	0.000000	-0.025534	0.000000	0.000026	-0.000001	0.000000	0.000000
31.015927	25.051951	11.262901	0.175985	-0.131299	3.072184	0.000000	-0.017495	0.000000	0.000026	-0.000000	0.000000	0.000000
31.349260	24.939200	11.360469	0.162267	-0.161405	3.066352	0.000000	-0.017495	0.000000	0.000026	-0.000000	0.000000	0.000000
31.682593	24.835595	11.478107	0.148549	-0.191511	3.060521	0.000000	-0.017495	0.000000	0.000025	-0.000000	0.000000	0.000000
32.017177	24.740797	11.616370	0.134780	-0.221729	3.054667	0.000000	-0.017495	0.000000	0.000025	-0.000000	0.000000	0.000000
32.314499	24.664289	11.756205	0.058115	-0.217873	3.049466	0.000000	-0.009529	0.000000	0.000025	-0.000000	0.000000	0.000000
32.863559	24.177875	12.234648	0.822542	-0.658656	3.019353	0.000000	-0.099997	0.000000	0.000025	-0.000001	0.000000	0.000000
33.412619	22.879121	13.219891	1.528869	-1.146354	2.939983	0.000000	-0.188692	0.000000	0.000024	-0.000002	0.000000	0.000000
33.961679	20.859763	14.782112	2.127204	-1.715704	2.812764	0.000000	-0.274039	0.000000	0.000023	-0.000003	0.000000	0.000000
34.510739	18.262438	17.032584	2.575283	-2.407261	2.639951	0.000000	-0.354526	0.000000	0.000021	-0.000003	0.000000	0.000000
34.956699	16.242883	19.045567	1.969496	-2.087713	2.498188	0.000000	-0.281601	0.000000	0.000020	-0.000003	0.000000	0.000000
35.397659	14.736895	20.710633	1.458707	-1.673920	2.389395	0.000000	-0.212311	0.000000	0.000018	-0.000002	0.000000	0.000000
35.838619	13.650404	21.975660	1.014562	-1.183965	2.310594	0.000000	-0.145440	0.000000	0.000017	-0.000002	0.000000	0.000000
36.279579	12.933771	22.783090	0.616769	-0.640140	2.260887	0.000000	-0.080225	0.000000	0.000017	-0.000002	0.000000	0.000000
36.721789	12.553560	23.096496	0.277829	-0.123875	2.239683	0.000000	-0.021415	0.000000	0.000016	-0.000001	0.000000	0.000000
37.019112	12.395936	23.174044	0.252317	-0.136945	2.233316	0.000000	-0.021415	0.000000	0.000016	-0.000001	0.000000	0.000000
37.352445	12.237259	23.270225	0.223714	-0.151599	2.226178	0.000000	-0.021415	0.000000	0.000015	-0.000001	0.000000	0.000000
37.685779	12.097650	23.376176	0.195112	-0.166253	2.219040	0.000000	-0.021415	0.000000	0.000015	-0.000001	0.000000	0.000000
38.020362	11.976693	23.492348	0.166402	-0.180961	2.211876	0.000000	-0.021415	0.000000	0.000015	-0.000001	0.000000	0.000000
38.317684	11.885329	23.603842	0.170032	-0.251908	2.205509	0.000000	-0.026822	0.000000	0.000014	-0.000001	0.000000	0.000000
38.758644	11.886883	23.564554	-0.173571	0.340664	2.207608	0.000000	0.036351	0.000000	0.000014	-0.000001	0.000000	0.000000
39.199604	12.193806	23.007531	-0.525104	0.917735	2.237630	0.000000	0.099939	0.000000	0.000013	-0.000000	0.000000	0.000000
39.640564	12.820120	21.958116	-0.900627	1.453051	2.295914	0.000000	0.164666	0.000000	0.000013	-0.000000	0.000000	0.000000
40.081524	13.794440	20.464056	-1.317297	1.922254	2.383127	0.000000	0.231267	0.000000	0.000013	0.000000	0.000000	0.000000
40.527484	15.178855	18.570754	-1.797979	2.305281	2.501732	0.000000	0.300908	0.000000	0.000014	0.000001	0.000000	0.000000
41.076544	16.945465	16.443116	-1.400490	1.592647	2.646420	0.000000	0.225355	0.000000	0.000014	0.000000	0.000000	0.000000
41.625604	18.218346	15.031523	-0.904078	0.993454	2.748465	0.000000	0.145805	0.000000	0.000014	-0.000000	0.000000	0.000000
42.174664	18.907589	14.235431	-0.343806	0.465023	2.806057	0.000000	0.063669	0.000000	0.000013	-0.000001	0.000000	0.000000
42.723724	18.964510	13.998135	0.240750	-0.030286	2.818175	0.000000	-0.019596	0.000000	0.000013	-0.000001	0.000000	0.000000
43.022297	18.855205	14.000751	0.174885	-0.015046	2.814522	0.000000	-0.012234	0.000000	0.000013	-0.000001	0.000000	0.000000
43.502297	18.699908	14.031655	0.148650	-0.049337	2.808651	0.000000	-0.012234	0.000000	0.000012	-0.000001	0.000000	0.000000
43.982297	18.569798	14.095478	0.122414	-0.083629	2.802779	0.000000	-0.012234	0.000000	0.000011	-0.000001	0.000000	0.000000
44.462297	18.464874	14.192222	0.096178	-0.117920	2.796908	0.000000	-0.012234	0.000000	0.000011	-0.000001	0.000000	0.000000
44.942297	18.385136	14.321886	0.069942	-0.152212	2.791036	0.000000	-0.012234	0.000000	0.000010	-0.000001	0.000000	0.000000
45.423547	18.330702	14.484756	-0.047182	-0.114827	2.785166	0.000000	0.001566	0.000000	0.000010	-0.000001	0.000000	0.000000
45.720870	18.363592	14.559221	-0.111415	-0.097587	2.785632	0.000000	0.008843	0.000000	0.000010	-0.000001	0.000000	0.000000
46.269930	18.176738	14.947933	0.449717	-0.614551	2.767918	0.000000	-0.073277	0.000000	0.000009	-0.000001	0.000000	0.000000
46.818990	17.387569	15.924896	0.979083	-1.175289	2.705405	0.000000	-0.154098	0.000000	0.000008	-0.000002	0.000000	0.000000
47.368050	16.051829	17.559697	1.439291	-1.819740	2.599204	0.000000	-0.232185	0.000000	0.000007	-0.000002	0.000000	0.000000
47.917110	14.263869	19.968780	1.797835	-2.593807	2.451196	0.000000	-0.306154	0.000000	0.000006	-0.000002	0.000000	0.000000
48.363070	12.872540	22.110612	1.333068	-2.188747	2.329956	0.000000	-0.237859	0.000000	0.000005	-0.000002	0.000000	0.000000
48.804030	11.877082	23.825471	0.932976	-1.685376	2.239530	0.000000	-0.172669	0.000000	0.000004	-0.000002	0.000000	0.000000
49.244990	11.214415	25.060758	0.575508	-1.105321	2.177389	0.000000	-0.109446	0.000000	0.000003	-0.000002	0.000000	0.000000
49.685950	10.854263	25.760267	0.244334	-0.474976	2.142826	0.000000	-0.047470	0.000000	0.000003	-0.000002	0.000000	0.000000
50.128160	10.780296	25.891889	-0.049358	0.113439	2.135458	0.000000	0.008729	0.000000	0.000002	-0.000002	0.000000	0.000000
50.425482	10.817867	25.827892	-0.077005	0.101808	2.138053	0.000000	0.008729	0.000000	0.000002	-0.000002	0.000000	0.000000
50.758816	10.879536	25.764366	-0.108001	0.088768	2.140964	0.000000	0.008729	0.000000	0.000001	-0.000002	0.000000	0.000000
51.092149	10.961869	25.709534	-0.138997	0.075728	2.143874	0.000000	0.008729	0.000000	0.000000	-0.000002	0.000000	0.000000
51.426732	11.065066	25.663759	-0.080342	-0.145557	2.146774	0.000000	-0.008687	0.000000	-0.000000	-0.000002	0.000000	0.000000
51.724055	11.120882	25.753831	-0.080114	-0.220545	2.144191	0.000000	-0.013945	0.000000	-0.000001	-0.000002	0.000000	0.000000
52.165015	11.336757	25.661799	-0.411301	0.428460	2.151631	0.000000	0.047717	0.000000	-0.000001	-0.000002	0.000000	0.000000
52.605975	11.851863	25.003839	-0.761278	1.057970	2.186355	0.000000	0.109923	0.000000	-0.000002	-0.000002	0.000000	0.000000
53.046935	12.689733	23.809888	-1.146036	1.639344	2.248759	0.000000	0.173380	0.000000	-0.000003	-0.000002	0.000000	0.000000
53.487895	13.888648	22.134270	-1.583153	2.146128	2.339554	0.000000	0.238812	0.000000	-0.000004	-0.000002	0.000000	0.000000
53.933855	15.523936	20.028172	-2.096826	2.556604	2.461278	0.000000	0.307363	0.000000	-0.000004	-0.000002	0.000000	0.000000
54.482915	17.629358	17.658236	-1.715069	1.785227	2.609859	0.000000	0.233058	0.000000	-0.000005	-0.000002	0.000000	0.000000
55.031975	19.246157	16.060985	-1.212168	1.141008	2.716446	0.000000	0.154619	0.000000	-0.000006	-0.000002	0.000000	0.000000
55.581035	20.260130	15.122652	-0.623645	0.578060	2.779148	0.000000	0.073438	0.000000	-0.000007	-0.000001	0.000000	0.000000
56.130095	20.599655	14.776402	0.008929	0.056287	2.796852	0.000000	-0.009046	0.000000	-0.000008	-0.000001	0.000000	0.000000
56.428668	20.630802	14.725822	-0.059421	0.074509	2.796333	0.000000	-0.001738	0.000000	-0.000008	-0.000001	0.000000	0.000000
56.762001	20.675820	14.683736	-0.075635	0.051748	2.795754	0.000000	-0.001738	0.000000	-0.000008	-0.000001	0.000000	0.000000
57.095334	20.731649	14.656825	-0.091849	0.028986	2.795175	0.000000	-0.001738	0.000000	-0.000009	-0.000001	0.000000	0.000000
57.429918	20.798556	14.645073	-0.108124	0.006139	2.794594	0.000000	-0.001738	0.000000	-0.000009	-0.000001	0.000000	0.000000
57.727240	20.867152	14.647459	-0.177113	0.024110	2.794077	0.000000	0.005563	0.000000	-0.000010	-0.000001	0.000000	0.000000
58.276300	20.705670	14.902211	0.469477	-0.490828	2.774492	0.000000	-0.076801	0.000000	-0.000010	-0.000001	0.000000	0.000000
58.825360	19.848244	15.738191	1.082905	-1.040726	2.709992	0.000000	-0.157802	0.000000	-0.000010	-0.000000	0.000000	0.000000
59.374420	18.355436	17.214944	1.619843	-1.664753	2.601721	0.000000	-0.236005	0.000000	-0.000011	-0.000000	0.000000	0.000000
59.923480	16.332692	19.437656	2.042363	-2.407357	2.451599	0.000000	-0.310021	0.000000	-0.000011	0.000000	0.000000	0.000000
60.369440	14.749537	21.413192	1.520202	-2.003796	2.328632	0.000000	-0.241738	0.000000	-0.000011	-0.000000	0.000000	0.000000
60.810400	13.610934	22.968749	1.071695	-1.510440	2.236484	0.000000	-0.176604	0.000000	-0.000011	-0.000000	0.000000	0.000000
61.251360	12.844873	24.057123	0.672152	-0.948360	2.172587	0.000000	-0.113483	0.000000	-0.000011	-0.000001	0.000000	0.000000
61.692320	12.416356	24.628794	0.303317	-0.343131	2.136213	0.000000	-0.051653	0.000000	-0.000011	-0.000001	0.000000	0.000000
62.134530	12.305859	24.657209	-0.021581	0.217183	2.126953	0.000000	0.004371	0.000000	-0.000012	-0.000001	0.000000	0.000000
62.431853	12.325879	24.531817	-0.045754	0.204556	2.128253	0.000000	0.004371	0.000000	-0.000012	-0.000001	0.000000	0.000000
62.765186	12.365415	24.400165	-0.072854	0.190399	2.129710	0.000000	0.004371	0.000000	-0.000012	-0.000001	0.000000	0.000000
63.098520	12.423018	24.277951	-0.099954	0.176243	2.131167	0.000000	0.004371	0.000000	-0.000013	-0.000001	0.000000	0.000000
63.433103	12.499004	24.164769	-0.127155	0.162034	2.132630	0.000000	0.004371	0.000000	-0.000013	-0.000001	0.000000	0.000000
63.730426	12.581804	24.072171	-0.120469	0.090367	2.133930	0.000000	-0.000863	0.000000	-0.000014	-0.000001	0.000000	0.000000
64.171386	12.848300	23.727377	-0.486179	0.688575	2.147091	0.000000	0.060609	0.000000	-0.000014	-0.000002	0.000000	0.000000
64.612346	13.445861	22.866864	-0.874100	1.255454	2.187485	0.000000	0.122770	0.000000	-0.000015	-0.000002	0.000000	0.000000
65.053306	14.401788	21.529784	-1.301957	1.765210	2.255571	0.000000	0.186330	0.000000	-0.000016	-0.000002	0.000000	0.000000
65.494266	15.759755	19.776974	-1.789296	2.194651	2.352126	0.000000	0.252012	0.000000	-0.000017	-0.000003	0.000000	0.000000
65.940226	17.604964	17.663386	-2.363075	2.524989	2.479821	0.000000	0.320966	0.000000	-0.000018	-0.000003	0.000000	0.000000
66.489286	19.970456	15.298986	-1.919681	1.806699	2.635685	0.000000	0.245942	0.000000	-0.000020	-0.000003	0.000000	0.000000
67.038346	21.771254	13.648484	-1.340691	1.217096	2.749096	0.000000	0.166556	0.000000	-0.000021	-0.000002	0.000000	0.000000
67.587406	22.880162	12.594319	-0.667002	0.714184	2.818043	0.000000	0.084215	0.000000	-0.000022	-0.000001	0.000000	0.000000
68.136466	23.218850	12.061404	0.053802	0.262141	2.841302	0.000000	0.000381	0.000000	-0.000022	-0.000000	0.000000	0.000000
68.435038	23.226795	11.894074	-0.019736	0.266772	2.843633	0.000000	0.007806	0.000000	-0.000023	-0.000001	0.000000	0.000000
68.768372	23.244738	11.726232	-0.034093	0.236753	2.846235	0.000000	0.007806	0.000000	-0.000023	-0.000001	0.000000	0.000000
69.101705	23.272253	11.578403	-0.048450	0.206733	2.848837	0.000000	0.007806	0.000000	-0.000023	-0.000001	0.000000	0.000000
69.436288	23.309495	11.450146	-0.062860	0.176601	2.851449	0.000000	0.007806	0.000000	-0.000023	-0.000001	0.000000	0.000000
69.733611	23.350682	11.353093	-0.136689	0.179494	2.853770	0.000000	0.015264	0.000000	-0.000023	-0.000001	0.000000	0.000000
70.282671	23.099741	11.383389	0.591022	-0.234998	2.838966	0.000000	-0.069111	0.000000	-0.000023	0.000000	0.000000	0.000000
