#ParticleID	Turn	x[m]	xp	y[m]	yp	z[m]	dE[GeV]# s	beta_x	beta_y	alpha_x	alpha_y	D_x	D_y	D_px	D_py	orbit_x	orbit_px	orbit_y	orbit_py
0.300000	11.815408	25.011632	-0.011247	-0.027332	2.618109	0.000000	0.000014	0.000000	-0.000002	0.000001	0.000000	0.000000
0.601250	11.829866	25.031731	-0.036747	-0.039386	2.618113	0.000000	0.000014	0.000000	-0.000002	0.000001	0.000000	0.000000
0.898573	11.859200	25.058689	-0.032831	-0.112734	2.618117	0.000000	-0.006406	0.000000	-0.000001	0.000001	0.000000	0.000000
1.339533	12.040304	24.880146	-0.379430	0.516088	2.631585	0.000000	0.067551	0.000000	-0.000001	0.000001	0.000000	0.000000
1.780493	12.533540	24.155308	-0.743365	1.121429	2.677804	0.000000	0.142278	0.000000	-0.000000	0.000001	0.000000	0.000000
2.221453	13.361444	22.917155	-1.141261	1.675745	2.757300	0.000000	0.218625	0.000000	-0.000000	0.000001	0.000000	0.000000
2.662413	14.561840	21.222021	-1.591299	2.153816	2.870978	0.000000	0.297462	0.000000	0.000000	0.000001	0.000000	0.000000
3.108373	16.210323	19.122174	-2.118329	2.535023	3.021995	0.000000	0.380177	0.000000	0.000001	0.000001	0.000000	0.000000
3.657433	18.324223	16.763747	-1.708915	1.785722	3.205463	0.000000	0.287139	0.000000	0.000002	0.000001	0.000000	0.000000
4.206493	19.919189	15.153887	-1.178791	1.163614	3.336372	0.000000	0.189008	0.000000	0.000002	0.000001	0.000000	0.000000
4.755553	20.882559	14.177928	-0.565403	0.624387	3.412399	0.000000	0.087524	0.000000	0.000003	0.000001	0.000000	0.000000
5.304613	21.146287	13.766354	0.087922	0.129635	3.432198	0.000000	-0.015512	0.000000	0.000003	0.000001	0.000000	0.000000
5.603185	21.130997	13.674118	0.018537	0.143319	3.430243	0.000000	-0.006545	0.000000	0.000003	0.000001	0.000000	0.000000
5.936519	21.123899	13.586865	0.002757	0.118441	3.428061	0.000000	-0.006545	0.000000	0.000004	0.000001	0.000000	0.000000
6.269852	21.127321	13.516196	-0.013023	0.093564	3.425880	0.000000	-0.006545	0.000000	0.000004	0.000001	0.000000	0.000000
6.604435	21.141334	13.461941	-0.028862	0.068593	3.423690	0.000000	-0.006545	0.000000	0.000004	0.000001	0.000000	0.000000
6.901758	21.162682	13.427751	-0.098229	0.081486	3.421744	0.000000	0.002395	0.000000	0.000004	0.000001	0.000000	0.000000
7.450818	20.909867	13.599051	0.555955	-0.395316	3.394857	0.000000	-0.100187	0.000000	0.000005	0.000001	0.000000	0.000000
7.999878	19.956091	14.306234	1.170869	-0.900275	3.312052	0.000000	-0.200993	0.000000	0.000005	0.000001	0.000000	0.000000
8.548938	18.368725	15.599671	1.703079	-1.469359	3.174797	0.000000	-0.298233	0.000000	0.000005	0.000000	0.000000	0.000000
9.097998	16.259892	17.571490	2.114992	-2.143102	2.985527	0.000000	-0.390184	0.000000	0.000006	0.000000	0.000000	0.000000
9.543958	14.614605	19.328487	1.587441	-1.780053	2.829828	0.000000	-0.308476	0.000000	0.000006	0.000000	0.000000	0.000000
9.984918	13.417905	20.708341	1.136705	-1.337245	2.711049	0.000000	-0.230765	0.000000	0.000006	0.000000	0.000000	0.000000
10.425878	12.594402	21.669251	0.737902	-0.833594	2.625926	0.000000	-0.155683	0.000000	0.000006	0.000001	0.000000	0.000000
10.866838	12.106472	22.167495	0.372812	-0.292015	2.573489	0.000000	-0.082374	0.000000	0.000006	0.000001	0.000000	0.000000
11.309048	11.931689	22.179883	0.053908	0.208402	2.553120	0.000000	-0.016263	0.000000	0.000007	0.000001	0.000000	0.000000
11.606371	11.907064	22.060117	0.028917	0.194415	2.548284	0.000000	-0.016263	0.000000	0.000007	0.000001	0.000000	0.000000
12.086371	11.898670	21.884317	-0.011429	0.171834	2.540478	0.000000	-0.016263	0.000000	0.000007	0.000001	0.000000	0.000000
12.566371	11.929008	21.730196	-0.051775	0.149253	2.532671	0.000000	-0.016263	0.000000	0.000008	0.000001	0.000000	0.000000
13.046371	11.998078	21.597752	-0.092121	0.126672	2.524864	0.000000	-0.016263	0.000000	0.000008	0.000001	0.000000	0.000000
13.526371	12.105880	21.486986	-0.132467	0.104090	2.517057	0.000000	-0.016263	0.000000	0.000009	0.000001	0.000000	0.000000
14.007621	12.252846	21.397695	-0.172918	0.081450	2.509230	0.000000	-0.016263	0.000000	0.000009	0.000001	0.000000	0.000000
14.304943	12.363101	21.353419	-0.167594	0.015103	2.504394	0.000000	-0.022404	0.000000	0.000010	0.000001	0.000000	0.000000
14.745903	12.669469	21.106383	-0.529815	0.542988	2.510147	0.000000	0.048522	0.000000	0.000010	0.000001	0.000000	0.000000
15.186863	13.304713	20.402952	-0.916243	1.046168	2.547267	0.000000	0.120001	0.000000	0.000011	0.000001	0.000000	0.000000
15.627823	14.297856	19.275131	-1.344530	1.501748	2.616177	0.000000	0.192846	0.000000	0.000011	0.000002	0.000000	0.000000
16.068783	15.694272	17.774235	-1.834246	1.888999	2.717663	0.000000	0.267888	0.000000	0.000012	0.000002	0.000000	0.000000
16.514743	17.581417	15.947052	-2.412521	2.191048	2.854574	0.000000	0.346444	0.000000	0.000013	0.000002	0.000000	0.000000
17.063803	20.005158	13.906817	-1.975692	1.546755	3.021059	0.000000	0.259105	0.000000	0.000014	0.000002	0.000000	0.000000
17.612863	21.869273	12.509805	-1.399311	1.012633	3.138257	0.000000	0.167171	0.000000	0.000015	0.000001	0.000000	0.000000
18.161923	23.042090	11.656512	-0.724089	0.550639	3.204087	0.000000	0.072272	0.000000	0.000016	0.000001	0.000000	0.000000
18.710983	23.440767	11.286158	0.002279	0.127866	3.217383	0.000000	-0.023910	0.000000	0.000016	0.000000	0.000000	0.000000
19.009556	23.479790	11.200291	-0.071740	0.130241	3.212754	0.000000	-0.015504	0.000000	0.000016	0.000000	0.000000	0.000000
19.342889	23.532374	11.123553	-0.086010	0.099975	3.207586	0.000000	-0.015504	0.000000	0.000016	0.000000	0.000000	0.000000
19.676223	23.594470	11.066992	-0.100280	0.069709	3.202418	0.000000	-0.015504	0.000000	0.000017	0.000000	0.000000	0.000000
20.010806	23.666660	11.030373	-0.231861	0.093980	3.197250	0.000000	0.000337	0.000000	0.000017	0.000001	0.000000	0.000000
20.308129	23.808471	10.982573	-0.307297	0.095479	3.197350	0.000000	0.008690	0.000000	0.000017	0.000001	0.000000	0.000000
20.857189	23.735283	11.099914	0.439805	-0.310453	3.175899	0.000000	-0.086710	0.000000	0.000017	0.000000	0.000000	0.000000
21.406249	22.853960	11.672472	1.155841	-0.738498	3.102414	0.000000	-0.180572	0.000000	0.000017	-0.000001	0.000000	0.000000
21.955309	21.226755	12.741028	1.790235	-1.219145	2.978198	0.000000	-0.271232	0.000000	0.000016	-0.000001	0.000000	0.000000
22.504369	18.968604	14.381694	2.298175	-1.786629	2.805454	0.000000	-0.357080	0.000000	0.000016	-0.000002	0.000000	0.000000
22.950329	17.188979	15.854700	1.706457	-1.502435	2.663506	0.000000	-0.279864	0.000000	0.000015	-0.000001	0.000000	0.000000
23.391289	15.913333	17.029112	1.197400	-1.150737	2.556421	0.000000	-0.206290	0.000000	0.000015	-0.000001	0.000000	0.000000
23.832249	15.060908	17.868993	0.743047	-0.746681	2.481230	0.000000	-0.135066	0.000000	0.000014	-0.000000	0.000000	0.000000
24.273209	14.592756	18.336130	0.322643	-0.308651	2.437078	0.000000	-0.065381	0.000000	0.000014	-0.000000	0.000000	0.000000
24.715418	14.487611	18.409023	-0.047584	0.098214	2.423458	0.000000	-0.002382	0.000000	0.000014	0.000000	0.000000	0.000000
25.012741	14.522022	18.355469	-0.068153	0.081907	2.422749	0.000000	-0.002382	0.000000	0.000014	0.000000	0.000000	0.000000
25.346075	14.575144	18.306958	-0.091213	0.063625	2.421955	0.000000	-0.002382	0.000000	0.000015	0.000000	0.000000	0.000000
25.679408	14.643640	18.270635	-0.114274	0.045344	2.421161	0.000000	-0.002382	0.000000	0.000015	0.000000	0.000000	0.000000
26.013991	14.727554	18.246802	-0.017941	-0.121034	2.420340	0.000000	-0.022017	0.000000	0.000015	0.000000	0.000000	0.000000
26.311314	14.744227	18.323690	-0.001983	-0.182496	2.413794	0.000000	-0.027936	0.000000	0.000015	0.000000	0.000000	0.000000
26.752274	14.927633	18.285908	-0.415519	0.267850	2.416587	0.000000	0.040617	0.000000	0.000015	0.000000	0.000000	0.000000
27.193234	15.482705	17.854836	-0.848038	0.706008	2.449682	0.000000	0.109632	0.000000	0.000015	0.000001	0.000000	0.000000
27.634194	16.434804	17.050085	-1.319302	1.112043	2.513456	0.000000	0.179895	0.000000	0.000016	0.000001	0.000000	0.000000
28.075154	17.827427	15.908273	-1.850841	1.467481	2.608635	0.000000	0.252208	0.000000	0.000016	0.000002	0.000000	0.000000
28.521114	19.748395	14.464150	-2.471905	1.757063	2.737906	0.000000	0.327836	0.000000	0.000017	0.000002	0.000000	0.000000
29.070174	22.189956	12.855103	-1.948572	1.190784	2.895240	0.000000	0.244426	0.000000	0.000018	0.000002	0.000000	0.000000
29.619234	23.977391	11.817953	-1.287601	0.709321	3.005518	0.000000	0.156681	0.000000	0.000019	0.000001	0.000000	0.000000
30.168294	24.984443	11.278827	-0.535680	0.278382	3.066783	0.000000	0.066156	0.000000	0.000019	0.000000	0.000000	0.000000
30.717354	25.139980	11.199323	0.254079	-0.132728	3.077950	0.000000	-0.025542	0.000000	0.000019	-0.000000	0.000000	0.000000
31.015927	25.031147	11.269156	0.176105	-0.130416	3.072725	0.000000	-0.017501	0.000000	0.000019	-0.000000	0.000000	0.000000
31.349260	24.918320	11.366127	0.162376	-0.160499	3.066891	0.000000	-0.017501	0.000000	0.000019	-0.000000	0.000000	0.000000
31.682593	24.814646	11.483154	0.148646	-0.190581	3.061058	0.000000	-0.017501	0.000000	0.000019	-0.000000	0.000000	0.000000
32.017177	24.719788	11.620787	0.134865	-0.220776	3.055202	0.000000	-0.017501	0.000000	0.000019	-0.000000	0.000000	0.000000
32.314499	24.643233	11.760049	0.058240	-0.216887	3.049999	0.000000	-0.009533	0.000000	0.000019	-0.000000	0.000000	0.000000
32.863559	24.157066	12.237444	0.821970	-0.657724	3.019880	0.000000	-0.100018	0.000000	0.000019	-0.000001	0.000000	0.000000
33.412619	22.859306	13.221664	1.527641	-1.145409	2.940494	0.000000	-0.188729	0.000000	0.000018	-0.000001	0.000000	0.000000
33.961679	20.841619	14.782809	2.125406	-1.714680	2.813249	0.000000	-0.274093	0.000000	0.000017	-0.000002	0.000000	0.000000
34.510739	18.246526	17.032079	2.573043	-2.406083	2.640401	0.000000	-0.354595	0.000000	0.000016	-0.000002	0.000000	0.000000
34.956699	16.228747	19.043963	1.967741	-2.086434	2.498610	0.000000	-0.281659	0.000000	0.000015	-0.000002	0.000000	0.000000
35.397659	14.724126	20.707878	1.457352	-1.672599	2.389794	0.000000	-0.212358	0.000000	0.000014	-0.000002	0.000000	0.000000
35.838619	13.638677	21.971744	1.013545	-1.182662	2.310974	0.000000	-0.145477	0.000000	0.000013	-0.000001	0.000000	0.000000
36.279579	12.922808	22.778055	0.616044	-0.638915	2.261253	0.000000	-0.080252	0.000000	0.000013	-0.000001	0.000000	0.000000
36.721789	12.543122	23.090432	0.277339	-0.122770	2.240038	0.000000	-0.021434	0.000000	0.000012	-0.000001	0.000000	0.000000
37.019112	12.385793	23.167323	0.251812	-0.135840	2.233666	0.000000	-0.021434	0.000000	0.000012	-0.000001	0.000000	0.000000
37.352445	12.227458	23.262767	0.223193	-0.150494	2.226521	0.000000	-0.021434	0.000000	0.000012	-0.000001	0.000000	0.000000
37.685779	12.088203	23.367981	0.194574	-0.165148	2.219377	0.000000	-0.021434	0.000000	0.000012	-0.000001	0.000000	0.000000
38.020362	11.967612	23.483414	0.165847	-0.179856	2.212206	0.000000	-0.021434	0.000000	0.000011	-0.000001	0.000000	0.000000
38.317684	11.876582	23.594250	0.169442	-0.250781	2.205833	0.000000	-0.026842	0.000000	0.000011	-0.000001	0.000000	0.000000
38.758644	11.878570	23.554084	-0.173968	0.341521	2.207926	0.000000	0.036340	0.000000	0.000011	-0.000000	0.000000	0.000000
39.199604	12.185765	22.996438	-0.525326	0.918284	2.237943	0.000000	0.099936	0.000000	0.000011	-0.000000	0.000000	0.000000
39.640564	12.812202	21.946685	-0.900684	1.453266	2.296228	0.000000	0.164670	0.000000	0.000011	0.000000	0.000000	0.000000
40.081524	13.786500	20.452586	-1.317192	1.922126	2.383444	0.000000	0.231280	0.000000	0.000011	0.000000	0.000000	0.000000
40.527484	15.170747	18.559552	-1.797705	2.304813	2.502057	0.000000	0.300929	0.000000	0.000011	0.000001	0.000000	0.000000
41.076544	16.937229	16.432261	-1.400532	1.592479	2.646753	0.000000	0.225366	0.000000	0.000011	0.000000	0.000000	0.000000
41.625604	18.210328	15.020696	-0.904431	0.993573	2.748801	0.000000	0.145805	0.000000	0.000011	-0.000000	0.000000	0.000000
42.174664	18.900120	14.224312	-0.344446	0.465437	2.806389	0.000000	0.063658	0.000000	0.000011	-0.000000	0.000000	0.000000
42.723724	18.957881	13.986386	0.239869	-0.029546	2.818498	0.000000	-0.019618	0.000000	0.000011	-0.000001	0.000000	0.000000
43.022297	18.849094	13.988584	0.174020	-0.014354	2.814839	0.000000	-0.012255	0.000000	0.000011	-0.000001	0.000000	0.000000
43.502297	18.694628	14.018838	0.147783	-0.048675	2.808957	0.000000	-0.012255	0.000000	0.000010	-0.000001	0.000000	0.000000
43.982297	18.565350	14.082039	0.121547	-0.082996	2.803075	0.000000	-0.012255	0.000000	0.000010	-0.000001	0.000000	0.000000
44.462297	18.461259	14.178189	0.095310	-0.117316	2.797193	0.000000	-0.012255	0.000000	0.000010	-0.000001	0.000000	0.000000
44.942297	18.382354	14.307287	0.069074	-0.151637	2.791312	0.000000	-0.012255	0.000000	0.000009	-0.000001	0.000000	0.000000
45.423547	18.328757	14.469618	-0.048042	-0.114356	2.785432	0.000000	0.001546	0.000000	0.000009	-0.000001	0.000000	0.000000
45.720870	18.362160	14.543808	-0.112275	-0.097175	2.785891	0.000000	0.008824	0.000000	0.000009	-0.000001	0.000000	0.000000
46.269930	18.176268	14.931809	0.448833	-0.613660	2.768164	0.000000	-0.073304	0.000000	0.000008	-0.000001	0.000000	0.000000
46.818990	17.388054	15.907503	0.978238	-1.173855	2.705634	0.000000	-0.154133	0.000000	0.000008	-0.000001	0.000000	0.000000
47.368050	16.053192	17.540386	1.438545	-1.817661	2.599411	0.000000	-0.232227	0.000000	0.000007	-0.000001	0.000000	0.000000
47.917110	14.265972	19.946765	1.797240	-2.590934	2.451379	0.000000	-0.306203	0.000000	0.000006	-0.000002	0.000000	0.000000
48.363070	12.875164	22.086246	1.332492	-2.186368	2.330118	0.000000	-0.237902	0.000000	0.000005	-0.000002	0.000000	0.000000
48.804030	11.880215	23.799264	0.932391	-1.683597	2.239673	0.000000	-0.172709	0.000000	0.000005	-0.000001	0.000000	0.000000
49.244990	11.218078	25.033278	0.574887	-1.104224	2.177515	0.000000	-0.109483	0.000000	0.000004	-0.000001	0.000000	0.000000
49.685950	10.858500	25.732140	0.243649	-0.474610	2.142937	0.000000	-0.047503	0.000000	0.000003	-0.000001	0.000000	0.000000
50.128160	10.785178	25.863770	-0.050126	0.113126	2.135554	0.000000	0.008699	0.000000	0.000003	-0.000001	0.000000	0.000000
50.425482	10.823203	25.799962	-0.077763	0.101483	2.138141	0.000000	0.008699	0.000000	0.000003	-0.000001	0.000000	0.000000
50.758816	10.885373	25.736658	-0.108747	0.088430	2.141040	0.000000	0.008699	0.000000	0.000002	-0.000001	0.000000	0.000000
51.092149	10.968199	25.682056	-0.139731	0.075377	2.143940	0.000000	0.008699	0.000000	0.000002	-0.000001	0.000000	0.000000
51.426732	11.071884	25.636519	-0.081010	-0.145701	2.146829	0.000000	-0.008718	0.000000	0.000001	-0.000001	0.000000	0.000000
51.724055	11.128092	25.726681	-0.080751	-0.220634	2.144238	0.000000	-0.013976	0.000000	0.000001	-0.000001	0.000000	0.000000
52.165015	11.344606	25.635044	-0.412117	0.427656	2.151664	0.000000	0.047687	0.000000	0.000001	-0.000001	0.000000	0.000000
52.605975	11.860524	24.978096	-0.762312	1.056488	2.186374	0.000000	0.109893	0.000000	0.000000	-0.000001	0.000000	0.000000
53.046935	12.699419	23.785728	-1.147334	1.637250	2.248765	0.000000	0.173351	0.000000	-0.000000	-0.000001	0.000000	0.000000
53.487895	13.899617	22.112192	-1.584775	2.143519	2.339546	0.000000	0.238783	0.000000	-0.000001	-0.000001	0.000000	0.000000
53.933855	15.536526	20.008610	-2.098850	2.553596	2.461257	0.000000	0.307333	0.000000	-0.000001	-0.000001	0.000000	0.000000
54.482915	17.644001	17.641545	-1.716762	1.782973	2.609822	0.000000	0.233029	0.000000	-0.000002	-0.000001	0.000000	0.000000
55.031975	19.262421	16.046432	-1.213411	1.139347	2.716393	0.000000	0.154592	0.000000	-0.000003	-0.000001	0.000000	0.000000
55.581035	20.277471	15.109654	-0.624350	0.576873	2.779080	0.000000	0.073412	0.000000	-0.000003	-0.000001	0.000000	0.000000
56.130095	20.617451	14.764486	0.008811	0.055490	2.796770	0.000000	-0.009069	0.000000	-0.000004	-0.000001	0.000000	0.000000
56.428668	20.648691	14.714405	-0.059571	0.073667	2.796245	0.000000	-0.001762	0.000000	-0.000004	-0.000001	0.000000	0.000000
56.762001	20.693806	14.672886	-0.075772	0.050890	2.795658	0.000000	-0.001762	0.000000	-0.000004	-0.000001	0.000000	0.000000
57.095334	20.749720	14.646552	-0.091972	0.028114	2.795071	0.000000	-0.001762	0.000000	-0.000004	-0.000001	0.000000	0.000000
57.429918	20.816705	14.635388	-0.108233	0.005252	2.794482	0.000000	-0.001762	0.000000	-0.000005	-0.000001	0.000000	0.000000
57.727240	20.885362	14.638306	-0.177255	0.023184	2.793958	0.000000	0.005539	0.000000	-0.000005	-0.000001	0.000000	0.000000
58.276300	20.723701	14.893935	0.469944	-0.491510	2.774361	0.000000	-0.076821	0.000000	-0.000005	-0.000001	0.000000	0.000000
58.825360	19.865440	15.730554	1.083949	-1.041213	2.709851	0.000000	-0.157818	0.000000	-0.000006	-0.000001	0.000000	0.000000
59.374420	18.371201	17.207752	1.621389	-1.665080	2.601572	0.000000	-0.236016	0.000000	-0.000006	-0.000000	0.000000	0.000000
59.923480	16.346532	19.430746	2.044302	-2.407547	2.451446	0.000000	-0.310027	0.000000	-0.000006	-0.000000	0.000000	0.000000
60.369440	14.761837	21.406565	1.521727	-2.004236	2.328476	0.000000	-0.241748	0.000000	-0.000006	-0.000000	0.000000	0.000000
60.810400	13.622044	22.962612	1.072879	-1.511108	2.236323	0.000000	-0.176619	0.000000	-0.000006	-0.000000	0.000000	0.000000
61.251360	12.855070	24.051665	0.673048	-0.949226	2.172418	0.000000	-0.113501	0.000000	-0.000007	-0.000001	0.000000	0.000000
61.692320	12.425874	24.624173	0.303966	-0.344155	2.136035	0.000000	-0.051676	0.000000	-0.000007	-0.000001	0.000000	0.000000
62.134530	12.314900	24.653547	-0.021128	0.216059	2.126763	0.000000	0.004344	0.000000	-0.000007	-0.000001	0.000000	0.000000
62.431853	12.334645	24.528822	-0.045282	0.203435	2.128055	0.000000	0.004344	0.000000	-0.000008	-0.000001	0.000000	0.000000
62.765186	12.373859	24.397916	-0.072361	0.189284	2.129504	0.000000	0.004344	0.000000	-0.000008	-0.000001	0.000000	0.000000
63.098520	12.431127	24.276444	-0.099441	0.175132	2.130952	0.000000	0.004344	0.000000	-0.000008	-0.000001	0.000000	0.000000
63.433103	12.506764	24.164005	-0.126622	0.160927	2.132406	0.000000	0.004344	0.000000	-0.000008	-0.000001	0.000000	0.000000
63.730426	12.589240	24.072063	-0.119901	0.089267	2.133698	0.000000	-0.000889	0.000000	-0.000009	-0.000001	0.000000	0.000000
64.171386	12.855305	23.728231	-0.485765	0.687501	2.146846	0.000000	0.060576	0.000000	-0.000009	-0.000001	0.000000	0.000000
64.612346	13.452563	22.868636	-0.873822	1.254454	2.187223	0.000000	0.122731	0.000000	-0.000010	-0.000001	0.000000	0.000000
65.053306	14.408300	21.532387	-1.301802	1.764331	2.255291	0.000000	0.186284	0.000000	-0.000010	-0.000002	0.000000	0.000000
65.494266	15.766181	19.780284	-1.789257	2.193932	2.351823	0.000000	0.251959	0.000000	-0.000011	-0.000002	0.000000	0.000000
65.940226	17.611406	17.667253	-2.363150	2.524465	2.479493	0.000000	0.320905	0.000000	-0.000012	-0.000002	0.000000	0.000000
66.489286	19.976830	15.303432	-1.919484	1.806164	2.635326	0.000000	0.245892	0.000000	-0.000013	-0.000002	0.000000	0.000000
67.038346	21.777269	13.653541	-1.340236	1.216512	2.748712	0.000000	0.166518	0.000000	-0.000014	-0.000001	0.000000	0.000000
67.587406	22.885549	12.600062	-0.666320	0.713509	2.817641	0.000000	0.084190	0.000000	-0.000015	-0.000001	0.000000	0.000000
68.136466	23.223386	12.067959	0.054661	0.261328	2.840890	0.000000	0.000369	0.000000	-0.000015	-0.000000	0.000000	0.000000
68.435038	23.230823	11.901098	-0.018882	0.266000	2.843216	0.000000	0.007792	0.000000	-0.000015	-0.000000	0.000000	0.000000
68.768372	23.248196	11.733761	-0.033236	0.236010	2.845814	0.000000	0.007792	0.000000	-0.000015	-0.000000	0.000000	0.000000
69.101705	23.275138	11.586417	-0.047590	0.206020	2.848412	0.000000	0.007792	0.000000	-0.000016	-0.000000	0.000000	0.000000
69.436288	23.311804	11.458628	-0.061998	0.175917	2.851019	0.000000	0.007792	0.000000	-0.000016	-0.000000	0.000000	0.000000
69.733611	23.352477	11.361973	-0.135825	0.178857	2.853336	0.000000	0.015249	0.000000	-0.000016	-0.000001	0.000000	0.000000
70.282671	23.100562	11.393108	0.591920	-0.235897	2.838527	0.000000	-0.069112	0.000000	-0.000016	0.000000	0.000000	0.000000
