#ParticleID	Turn	x[m]	xp	y[m]	yp	z[m]	dE[GeV]# s	beta_x	beta_y	alpha_x	alpha_y	D_x	D_y	D_px	D_py	orbit_x	orbit_px	orbit_y	orbit_py
0.300000	11.819795	24.993684	-0.011766	-0.027495	2.618108	0.000000	0.000014	0.000000	0.000000	0.000001	0.000000	0.000000
0.601250	11.834563	25.013883	-0.037256	-0.039557	2.618112	0.000000	0.000014	0.000000	0.000000	0.000001	0.000000	0.000000
0.898573	11.864197	25.040945	-0.033320	-0.112869	2.618116	0.000000	-0.006406	0.000000	0.000000	0.000001	0.000000	0.000000
1.339533	12.045786	24.862729	-0.380046	0.515487	2.631584	0.000000	0.067551	0.000000	0.000001	0.000001	0.000000	0.000000
1.780493	12.539631	24.138618	-0.744135	1.120389	2.677802	0.000000	0.142278	0.000000	0.000001	0.000001	0.000000	0.000000
2.221453	13.368296	22.901558	-1.142221	1.674314	2.757298	0.000000	0.218625	0.000000	0.000001	0.000001	0.000000	0.000000
2.662413	14.569638	21.207836	-1.592493	2.152059	2.870977	0.000000	0.297462	0.000000	0.000002	0.000001	0.000000	0.000000
3.108373	16.219310	19.109673	-2.119814	2.533019	3.021994	0.000000	0.380177	0.000000	0.000002	0.000001	0.000000	0.000000
3.657433	18.334722	16.753166	-1.710168	1.784208	3.205461	0.000000	0.287139	0.000000	0.000002	0.000001	0.000000	0.000000
4.206493	19.930895	15.144750	-1.179725	1.162483	3.336370	0.000000	0.189008	0.000000	0.000003	0.000001	0.000000	0.000000
4.755553	20.895084	14.169860	-0.565951	0.623559	3.412398	0.000000	0.087524	0.000000	0.000003	0.000001	0.000000	0.000000
5.304613	21.159182	13.759058	0.087798	0.129049	3.432196	0.000000	-0.015512	0.000000	0.000003	0.000000	0.000000	0.000000
5.603185	21.143984	13.667186	0.018389	0.142707	3.430242	0.000000	-0.006545	0.000000	0.000004	0.000000	0.000000	0.000000
5.936519	21.136982	13.580343	0.002619	0.117821	3.428060	0.000000	-0.006545	0.000000	0.000004	0.000000	0.000000	0.000000
6.269852	21.140493	13.510091	-0.013152	0.092935	3.425878	0.000000	-0.006545	0.000000	0.000004	0.000000	0.000000	0.000000
6.604435	21.154590	13.456260	-0.028981	0.067956	3.423689	0.000000	-0.006545	0.000000	0.000004	0.000000	0.000000	0.000000
6.901758	21.176005	13.422450	-0.098375	0.080827	3.421742	0.000000	0.002395	0.000000	0.000004	0.000000	0.000000	0.000000
7.450818	20.923104	13.594394	0.556256	-0.395837	3.394856	0.000000	-0.100187	0.000000	0.000004	0.000000	0.000000	0.000000
7.999878	19.968761	14.302091	1.171596	-0.900696	3.312051	0.000000	-0.200993	0.000000	0.000005	0.000000	0.000000	0.000000
8.548938	18.380385	15.595949	1.704180	-1.469709	3.174796	0.000000	-0.298233	0.000000	0.000005	0.000000	0.000000	0.000000
9.097998	16.270172	17.568125	2.116389	-2.143407	2.985527	0.000000	-0.390184	0.000000	0.000005	-0.000000	0.000000	0.000000
9.543958	14.623778	19.325457	1.588534	-1.780497	2.829827	0.000000	-0.308476	0.000000	0.000005	0.000000	0.000000	0.000000
9.984918	13.426229	20.705758	1.137546	-1.337808	2.711048	0.000000	-0.230765	0.000000	0.000005	0.000000	0.000000	0.000000
10.425878	12.602081	21.667207	0.738530	-0.834250	2.625925	0.000000	-0.155683	0.000000	0.000005	0.000000	0.000000	0.000000
10.866838	12.113682	22.166060	0.373255	-0.292733	2.573488	0.000000	-0.082374	0.000000	0.000005	0.000000	0.000000	0.000000
11.309048	11.938581	22.179099	0.054204	0.207654	2.553120	0.000000	-0.016263	0.000000	0.000005	0.000000	0.000000	0.000000
11.606371	11.913775	22.059776	0.029226	0.193671	2.548284	0.000000	-0.016263	0.000000	0.000005	0.000000	0.000000	0.000000
12.086371	11.905074	21.884688	-0.011098	0.171096	2.540478	0.000000	-0.016263	0.000000	0.000005	0.000000	0.000000	0.000000
12.566371	11.935083	21.731272	-0.051422	0.148520	2.532671	0.000000	-0.016263	0.000000	0.000006	0.000000	0.000000	0.000000
13.046371	12.003804	21.599529	-0.091746	0.125945	2.524864	0.000000	-0.016263	0.000000	0.000006	0.000000	0.000000	0.000000
13.526371	12.111235	21.489457	-0.132070	0.103370	2.517058	0.000000	-0.016263	0.000000	0.000006	0.000000	0.000000	0.000000
14.007621	12.257808	21.400856	-0.172499	0.080736	2.509231	0.000000	-0.016263	0.000000	0.000006	0.000000	0.000000	0.000000
14.304943	12.367810	21.357005	-0.167148	0.014382	2.504395	0.000000	-0.022405	0.000000	0.000006	0.000000	0.000000	0.000000
14.745903	12.673827	21.110557	-0.529463	0.542380	2.510148	0.000000	0.048522	0.000000	0.000007	0.000001	0.000000	0.000000
15.186863	13.308795	20.407603	-0.915967	1.045699	2.547268	0.000000	0.120000	0.000000	0.000007	0.000001	0.000000	0.000000
15.627823	14.301724	19.280125	-1.344319	1.501441	2.616178	0.000000	0.192846	0.000000	0.000007	0.000001	0.000000	0.000000
16.068783	15.697978	17.779424	-1.834089	1.888867	2.717664	0.000000	0.267888	0.000000	0.000008	0.000001	0.000000	0.000000
16.514743	17.585003	15.952277	-2.412411	2.191099	2.854575	0.000000	0.346443	0.000000	0.000008	0.000001	0.000000	0.000000
17.063803	20.008527	13.912046	-1.975412	1.546695	3.021061	0.000000	0.259105	0.000000	0.000009	0.000001	0.000000	0.000000
17.612863	21.872249	12.515162	-1.398880	1.012459	3.138259	0.000000	0.167171	0.000000	0.000010	0.000001	0.000000	0.000000
18.161923	23.044525	11.662128	-0.723539	0.550338	3.204089	0.000000	0.072271	0.000000	0.000010	0.000000	0.000000	0.000000
18.710983	23.442549	11.292183	0.002910	0.127417	3.217385	0.000000	-0.023910	0.000000	0.000010	0.000000	0.000000	0.000000
19.009556	23.481199	11.206569	-0.071115	0.129827	3.212756	0.000000	-0.015504	0.000000	0.000010	0.000000	0.000000	0.000000
19.342889	23.533365	11.130099	-0.085383	0.099581	3.207588	0.000000	-0.015504	0.000000	0.000010	0.000000	0.000000	0.000000
19.676223	23.595043	11.073794	-0.099650	0.069335	3.202420	0.000000	-0.015504	0.000000	0.000010	0.000000	0.000000	0.000000
20.010806	23.666810	11.037418	-0.231230	0.093662	3.197252	0.000000	0.000337	0.000000	0.000010	0.000000	0.000000	0.000000
20.308129	23.808245	10.989801	-0.306665	0.095200	3.197352	0.000000	0.008690	0.000000	0.000011	0.000000	0.000000	0.000000
20.857189	23.734371	11.107561	0.440416	-0.310941	3.175901	0.000000	-0.086710	0.000000	0.000011	-0.000000	0.000000	0.000000
21.406249	22.852409	11.680785	1.156388	-0.739231	3.102416	0.000000	-0.180572	0.000000	0.000010	-0.000000	0.000000	0.000000
21.955309	21.224656	12.750302	1.790679	-1.220174	2.978200	0.000000	-0.271231	0.000000	0.000010	-0.000001	0.000000	0.000000
22.504369	18.966089	14.392293	2.298485	-1.788027	2.805456	0.000000	-0.357080	0.000000	0.000010	-0.000001	0.000000	0.000000
22.950329	17.186181	15.866440	1.706787	-1.503586	2.663508	0.000000	-0.279864	0.000000	0.000009	-0.000001	0.000000	0.000000
23.391289	15.910231	17.041738	1.197764	-1.151589	2.556423	0.000000	-0.206290	0.000000	0.000009	-0.000001	0.000000	0.000000
23.832249	15.057462	17.882224	0.743463	-0.747195	2.481233	0.000000	-0.135066	0.000000	0.000009	-0.000000	0.000000	0.000000
24.273209	14.588915	18.349657	0.323129	-0.308804	2.437080	0.000000	-0.065380	0.000000	0.000009	-0.000000	0.000000	0.000000
24.715418	14.483299	18.422521	-0.047014	0.098393	2.423460	0.000000	-0.002382	0.000000	0.000009	0.000000	0.000000	0.000000
25.012741	14.517373	18.368857	-0.067588	0.082098	2.422752	0.000000	-0.002382	0.000000	0.000009	0.000000	0.000000	0.000000
25.346075	14.570121	18.320215	-0.090654	0.063829	2.421958	0.000000	-0.002382	0.000000	0.000009	0.000000	0.000000	0.000000
25.679408	14.638245	18.283752	-0.113720	0.045560	2.421164	0.000000	-0.002382	0.000000	0.000009	0.000000	0.000000	0.000000
26.013991	14.721790	18.259770	-0.017439	-0.120909	2.420343	0.000000	-0.022017	0.000000	0.000009	-0.000000	0.000000	0.000000
26.311314	14.738167	18.336580	-0.001502	-0.182393	2.413797	0.000000	-0.027936	0.000000	0.000009	-0.000000	0.000000	0.000000
26.752274	14.921082	18.298555	-0.414881	0.268299	2.416590	0.000000	0.040617	0.000000	0.000009	0.000000	0.000000	0.000000
27.193234	15.475513	17.866940	-0.847215	0.706784	2.449685	0.000000	0.109632	0.000000	0.000009	0.000000	0.000000	0.000000
27.634194	16.426790	17.061374	-1.318256	1.113110	2.513459	0.000000	0.179895	0.000000	0.000009	0.000001	0.000000	0.000000
28.075154	17.818375	15.918509	-1.849524	1.468792	2.608638	0.000000	0.252208	0.000000	0.000009	0.000001	0.000000	0.000000
28.521114	19.738024	14.473131	-2.470255	1.758557	2.737910	0.000000	0.327837	0.000000	0.000010	0.000001	0.000000	0.000000
29.070174	22.177910	12.862641	-1.947189	1.191933	2.895245	0.000000	0.244426	0.000000	0.000010	0.000001	0.000000	0.000000
29.619234	23.964019	11.824379	-1.286584	0.710209	3.005523	0.000000	0.156681	0.000000	0.000011	0.000000	0.000000	0.000000
30.168294	24.970191	11.284392	-0.535101	0.279071	3.066788	0.000000	0.066156	0.000000	0.000011	0.000000	0.000000	0.000000
30.717354	25.125353	11.204218	0.254178	-0.132189	3.077955	0.000000	-0.025542	0.000000	0.000011	-0.000000	0.000000	0.000000
31.015927	25.016443	11.273715	0.176231	-0.129847	3.072729	0.000000	-0.017501	0.000000	0.000011	-0.000000	0.000000	0.000000
31.349260	24.903535	11.370302	0.162492	-0.159913	3.066896	0.000000	-0.017501	0.000000	0.000011	-0.000000	0.000000	0.000000
31.682593	24.799787	11.486932	0.148754	-0.189979	3.061062	0.000000	-0.017501	0.000000	0.000011	-0.000000	0.000000	0.000000
32.017177	24.704859	11.624157	0.134964	-0.220157	3.055207	0.000000	-0.017501	0.000000	0.000011	-0.000000	0.000000	0.000000
32.314499	24.628247	11.763046	0.058367	-0.216243	3.050004	0.000000	-0.009532	0.000000	0.000011	-0.000000	0.000000	0.000000
32.863559	24.142216	12.239766	0.821599	-0.657130	3.019885	0.000000	-0.100018	0.000000	0.000010	-0.000001	0.000000	0.000000
33.412619	22.845126	13.223340	1.526798	-1.144822	2.940499	0.000000	-0.188729	0.000000	0.000010	-0.000001	0.000000	0.000000
33.961679	20.828598	14.783825	2.124152	-1.714057	2.813254	0.000000	-0.274093	0.000000	0.000009	-0.000001	0.000000	0.000000
34.510739	18.235069	17.032371	2.571466	-2.405381	2.640406	0.000000	-0.354595	0.000000	0.000009	-0.000001	0.000000	0.000000
34.956699	16.218539	19.043589	1.966509	-2.085650	2.498615	0.000000	-0.281659	0.000000	0.000008	-0.000001	0.000000	0.000000
35.397659	14.714874	20.706790	1.456406	-1.671769	2.389798	0.000000	-0.212358	0.000000	0.000008	-0.000001	0.000000	0.000000
35.838619	13.630150	21.969918	1.012842	-1.181825	2.310978	0.000000	-0.145476	0.000000	0.000007	-0.000001	0.000000	0.000000
36.279579	12.914806	22.775501	0.615552	-0.638109	2.261257	0.000000	-0.080251	0.000000	0.000007	-0.000001	0.000000	0.000000
36.721789	12.535470	23.087192	0.277018	-0.122026	2.240043	0.000000	-0.021433	0.000000	0.000007	-0.000001	0.000000	0.000000
37.019112	12.378336	23.163640	0.251480	-0.135096	2.233670	0.000000	-0.021433	0.000000	0.000006	-0.000001	0.000000	0.000000
37.352445	12.220227	23.258588	0.222848	-0.149749	2.226526	0.000000	-0.021433	0.000000	0.000006	-0.000001	0.000000	0.000000
37.685779	12.081205	23.363305	0.194216	-0.164402	2.219381	0.000000	-0.021433	0.000000	0.000006	-0.000001	0.000000	0.000000
38.020362	11.960858	23.478238	0.165477	-0.179110	2.212210	0.000000	-0.021433	0.000000	0.000006	-0.000001	0.000000	0.000000
38.317684	11.870051	23.588631	0.169045	-0.250023	2.205838	0.000000	-0.026842	0.000000	0.000006	-0.000001	0.000000	0.000000
38.758644	11.872324	23.547865	-0.174219	0.342120	2.207930	0.000000	0.036340	0.000000	0.000006	-0.000000	0.000000	0.000000
39.199604	12.179682	22.989772	-0.525444	0.918696	2.237948	0.000000	0.099936	0.000000	0.000006	-0.000000	0.000000	0.000000
39.640564	12.806166	21.939744	-0.900675	1.453473	2.296233	0.000000	0.164670	0.000000	0.000005	-0.000000	0.000000	0.000000
40.081524	13.780400	20.445558	-1.317054	1.922117	2.383449	0.000000	0.231280	0.000000	0.000005	0.000000	0.000000	0.000000
40.527484	15.164465	18.552628	-1.797433	2.304589	2.502062	0.000000	0.300930	0.000000	0.000005	0.000000	0.000000	0.000000
41.076544	16.930776	16.425485	-1.400497	1.592433	2.646759	0.000000	0.225366	0.000000	0.000006	0.000000	0.000000	0.000000
41.625604	18.203970	15.013874	-0.904637	0.993702	2.748807	0.000000	0.145805	0.000000	0.000005	-0.000000	0.000000	0.000000
42.174664	18.894115	14.217249	-0.344879	0.465751	2.806395	0.000000	0.063658	0.000000	0.000005	-0.000000	0.000000	0.000000
42.723724	18.952462	13.978868	0.239241	-0.029026	2.818504	0.000000	-0.019618	0.000000	0.000005	-0.000001	0.000000	0.000000
43.022297	18.844042	13.980769	0.173403	-0.013863	2.814845	0.000000	-0.012255	0.000000	0.000005	-0.000000	0.000000	0.000000
43.502297	18.690170	14.010560	0.147165	-0.048203	2.808963	0.000000	-0.012255	0.000000	0.000005	-0.000000	0.000000	0.000000
43.982297	18.561486	14.073318	0.120926	-0.082542	2.803081	0.000000	-0.012255	0.000000	0.000005	-0.000000	0.000000	0.000000
44.462297	18.457991	14.169041	0.094688	-0.116882	2.797199	0.000000	-0.012255	0.000000	0.000004	-0.000000	0.000000	0.000000
44.942297	18.379684	14.297730	0.068450	-0.151221	2.791317	0.000000	-0.012255	0.000000	0.000004	-0.000000	0.000000	0.000000
45.423547	18.326688	14.459671	-0.048657	-0.114008	2.785437	0.000000	0.001546	0.000000	0.000004	-0.000000	0.000000	0.000000
45.720870	18.360457	14.533658	-0.112890	-0.096865	2.785897	0.000000	0.008825	0.000000	0.000004	-0.000000	0.000000	0.000000
46.269930	18.175267	14.921147	0.448179	-0.613032	2.768170	0.000000	-0.073304	0.000000	0.000003	-0.000001	0.000000	0.000000
46.818990	17.387772	15.895957	0.977590	-1.172865	2.705640	0.000000	-0.154132	0.000000	0.000003	-0.000001	0.000000	0.000000
47.368050	16.053598	17.527523	1.437949	-1.816238	2.599417	0.000000	-0.232227	0.000000	0.000003	-0.000001	0.000000	0.000000
47.917110	14.266984	19.932057	1.796739	-2.588977	2.451384	0.000000	-0.306203	0.000000	0.000002	-0.000001	0.000000	0.000000
48.363070	12.876609	22.069930	1.332019	-2.184738	2.330123	0.000000	-0.237902	0.000000	0.000002	-0.000001	0.000000	0.000000
48.804030	11.882073	23.781683	0.931923	-1.682367	2.239678	0.000000	-0.172709	0.000000	0.000001	-0.000001	0.000000	0.000000
49.244990	11.220353	25.014809	0.574405	-1.103449	2.177520	0.000000	-0.109482	0.000000	0.000001	-0.000001	0.000000	0.000000
49.685950	10.861216	25.713202	0.243129	-0.474326	2.142941	0.000000	-0.047503	0.000000	0.000001	-0.000001	0.000000	0.000000
50.128160	10.788380	25.844804	-0.050699	0.112951	2.135558	0.000000	0.008699	0.000000	0.000000	-0.000001	0.000000	0.000000
50.425482	10.826743	25.781102	-0.078329	0.101300	2.138145	0.000000	0.008699	0.000000	0.000000	-0.000001	0.000000	0.000000
50.758816	10.889288	25.717923	-0.109306	0.088238	2.141044	0.000000	0.008699	0.000000	0.000000	-0.000001	0.000000	0.000000
51.092149	10.972484	25.663452	-0.140283	0.075176	2.143944	0.000000	0.008699	0.000000	-0.000000	-0.000001	0.000000	0.000000
51.426732	11.076535	25.618053	-0.081516	-0.145761	2.146833	0.000000	-0.008718	0.000000	-0.000000	-0.000001	0.000000	0.000000
51.724055	11.133042	25.708254	-0.081235	-0.220659	2.144241	0.000000	-0.013976	0.000000	-0.000001	-0.000001	0.000000	0.000000
52.165015	11.350036	25.616854	-0.412727	0.427145	2.151667	0.000000	0.047687	0.000000	-0.000001	-0.000001	0.000000	0.000000
52.605975	11.866558	24.960563	-0.763074	1.055514	2.186378	0.000000	0.109893	0.000000	-0.000001	-0.000001	0.000000	0.000000
53.046935	12.706205	23.769242	-1.148285	1.635858	2.248769	0.000000	0.173351	0.000000	-0.000002	-0.000001	0.000000	0.000000
53.487895	13.907339	22.097095	-1.585957	2.141772	2.339550	0.000000	0.238784	0.000000	-0.000002	-0.000001	0.000000	0.000000
53.933855	15.545425	19.995202	-2.100319	2.551573	2.461261	0.000000	0.307334	0.000000	-0.000002	-0.000001	0.000000	0.000000
54.482915	17.654396	17.630067	-1.718002	1.781462	2.609826	0.000000	0.233030	0.000000	-0.000003	-0.000001	0.000000	0.000000
55.031975	19.274012	16.036382	-1.214334	1.138240	2.716397	0.000000	0.154592	0.000000	-0.000003	-0.000001	0.000000	0.000000
55.581035	20.289870	15.100634	-0.624891	0.576093	2.779084	0.000000	0.073413	0.000000	-0.000003	-0.000001	0.000000	0.000000
56.130095	20.630216	14.756171	0.008690	0.054979	2.796774	0.000000	-0.009069	0.000000	-0.000004	-0.000000	0.000000	0.000000
56.428668	20.661545	14.706411	-0.059717	0.073125	2.796249	0.000000	-0.001761	0.000000	-0.000004	-0.000000	0.000000	0.000000
56.762001	20.706753	14.665256	-0.075907	0.050338	2.795662	0.000000	-0.001761	0.000000	-0.000004	-0.000000	0.000000	0.000000
57.095334	20.762754	14.639293	-0.092098	0.027551	2.795075	0.000000	-0.001761	0.000000	-0.000004	-0.000000	0.000000	0.000000
57.429918	20.829821	14.628510	-0.108349	0.004678	2.794485	0.000000	-0.001761	0.000000	-0.000004	-0.000000	0.000000	0.000000
57.727240	20.898543	14.631771	-0.177396	0.022585	2.793962	0.000000	0.005539	0.000000	-0.000005	-0.000000	0.000000	0.000000
58.276300	20.736795	14.887960	0.470245	-0.491934	2.774364	0.000000	-0.076821	0.000000	-0.000005	-0.000000	0.000000	0.000000
58.825360	19.877969	15.724962	1.084670	-1.041492	2.709854	0.000000	-0.157818	0.000000	-0.000005	-0.000000	0.000000	0.000000
59.374420	18.382730	17.202395	1.622480	-1.665233	2.601575	0.000000	-0.236016	0.000000	-0.000005	-0.000000	0.000000	0.000000
59.923480	16.356693	19.425493	2.045686	-2.407584	2.451449	0.000000	-0.310028	0.000000	-0.000005	0.000000	0.000000	0.000000
60.369440	14.770902	21.401426	1.522810	-2.004454	2.328478	0.000000	-0.241748	0.000000	-0.000005	0.000000	0.000000	0.000000
60.810400	13.630266	22.957742	1.073713	-1.511496	2.236325	0.000000	-0.176619	0.000000	-0.000005	-0.000000	0.000000	0.000000
61.251360	12.862652	24.047206	0.673671	-0.949766	2.172420	0.000000	-0.113501	0.000000	-0.000005	-0.000000	0.000000	0.000000
61.692320	12.432988	24.620248	0.304408	-0.344823	2.136036	0.000000	-0.051676	0.000000	-0.000005	-0.000000	0.000000	0.000000
62.134530	12.321697	24.650258	-0.020832	0.215303	2.126765	0.000000	0.004344	0.000000	-0.000005	-0.000000	0.000000	0.000000
62.431853	12.341262	24.525981	-0.044973	0.202682	2.128057	0.000000	0.004344	0.000000	-0.000005	-0.000000	0.000000	0.000000
62.765186	12.380266	24.395576	-0.072037	0.188533	2.129505	0.000000	0.004344	0.000000	-0.000006	-0.000000	0.000000	0.000000
63.098520	12.437312	24.274604	-0.099101	0.174384	2.130953	0.000000	0.004344	0.000000	-0.000006	-0.000000	0.000000	0.000000
63.433103	12.512716	24.162664	-0.126267	0.160181	2.132407	0.000000	0.004344	0.000000	-0.000006	-0.000000	0.000000	0.000000
63.730426	12.594978	24.071165	-0.119519	0.088527	2.133699	0.000000	-0.000889	0.000000	-0.000006	-0.000000	0.000000	0.000000
64.171386	12.860761	23.727990	-0.485504	0.686757	2.146846	0.000000	0.060577	0.000000	-0.000006	-0.000001	0.000000	0.000000
64.612346	13.457837	22.869040	-0.873670	1.253740	2.187224	0.000000	0.122732	0.000000	-0.000007	-0.000001	0.000000	0.000000
65.053306	14.413486	21.533396	-1.301752	1.763678	2.255291	0.000000	0.186284	0.000000	-0.000007	-0.000001	0.000000	0.000000
65.494266	15.771368	19.781831	-1.789307	2.193371	2.351824	0.000000	0.251959	0.000000	-0.000008	-0.000001	0.000000	0.000000
65.940226	17.616684	17.669249	-2.363303	2.524022	2.479493	0.000000	0.320905	0.000000	-0.000008	-0.000001	0.000000	0.000000
66.489286	19.982160	15.305902	-1.919425	1.805736	2.635326	0.000000	0.245892	0.000000	-0.000009	-0.000001	0.000000	0.000000
67.038346	21.782418	13.656486	-1.339968	1.216070	2.748712	0.000000	0.166518	0.000000	-0.000009	-0.000001	0.000000	0.000000
67.587406	22.890297	12.603515	-0.665863	0.713020	2.817641	0.000000	0.084190	0.000000	-0.000010	-0.000000	0.000000	0.000000
68.136466	23.227542	12.071990	0.055276	0.260758	2.840889	0.000000	0.000369	0.000000	-0.000010	-0.000000	0.000000	0.000000
68.435038	23.234616	11.905458	-0.018273	0.265457	2.843216	0.000000	0.007792	0.000000	-0.000010	-0.000000	0.000000	0.000000
68.768372	23.251582	11.738477	-0.032624	0.235486	2.845814	0.000000	0.007792	0.000000	-0.000010	-0.000000	0.000000	0.000000
69.101705	23.278115	11.591477	-0.046975	0.205514	2.848411	0.000000	0.007792	0.000000	-0.000010	-0.000000	0.000000	0.000000
69.436288	23.314369	11.464019	-0.061380	0.175431	2.851018	0.000000	0.007792	0.000000	-0.000010	-0.000000	0.000000	0.000000
69.733611	23.354675	11.367649	-0.135208	0.178401	2.853335	0.000000	0.015248	0.000000	-0.000010	-0.000000	0.000000	0.000000
70.282671	23.102048	11.399373	0.592592	-0.236521	2.838526	0.000000	-0.069113	0.000000	-0.000010	0.000000	0.000000	0.000000
