#ParticleID	Turn	x[m]	xp	y[m]	yp	z[m]	dE[GeV]# s	beta_x	beta_y	alpha_x	alpha_y	D_x	D_y	D_px	D_py	orbit_x	orbit_px	orbit_y	orbit_py
0.300000	11.817277	25.003947	-0.011463	-0.027405	2.618100	0.000000	0.000016	0.000000	-0.000001	0.000001	0.000000	0.000000
0.601250	11.831864	25.024091	-0.036958	-0.039462	2.618104	0.000000	0.000016	0.000000	-0.000000	0.000001	0.000000	0.000000
0.898573	11.861323	25.051096	-0.033034	-0.112795	2.618109	0.000000	-0.006404	0.000000	0.000000	0.000001	0.000000	0.000000
1.339533	12.042628	24.872695	-0.379687	0.515828	2.631578	0.000000	0.067553	0.000000	0.000000	0.000001	0.000000	0.000000
1.780493	12.536119	24.148171	-0.743687	1.120981	2.677797	0.000000	0.142279	0.000000	0.000001	0.000001	0.000000	0.000000
2.221453	13.364342	22.910488	-1.141664	1.675130	2.757293	0.000000	0.218626	0.000000	0.000001	0.000001	0.000000	0.000000
2.662413	14.565135	21.215959	-1.591800	2.153062	2.870972	0.000000	0.297463	0.000000	0.000002	0.000001	0.000000	0.000000
3.108373	16.214116	19.116834	-2.118952	2.534164	3.021990	0.000000	0.380178	0.000000	0.000002	0.000001	0.000000	0.000000
3.657433	18.328651	16.759231	-1.709440	1.785073	3.205458	0.000000	0.287140	0.000000	0.000003	0.000001	0.000000	0.000000
4.206493	19.924122	15.149990	-1.179181	1.163128	3.336367	0.000000	0.189009	0.000000	0.000004	0.000001	0.000000	0.000000
4.755553	20.887833	14.174491	-0.565631	0.624031	3.412396	0.000000	0.087525	0.000000	0.000004	0.000001	0.000000	0.000000
5.304613	21.151714	13.763250	0.087873	0.129382	3.432195	0.000000	-0.015511	0.000000	0.000005	0.000001	0.000000	0.000000
5.603185	21.136460	13.671171	0.018479	0.143055	3.430241	0.000000	-0.006543	0.000000	0.000005	0.000001	0.000000	0.000000
5.936519	21.129400	13.584095	0.002703	0.118173	3.428059	0.000000	-0.006543	0.000000	0.000005	0.000001	0.000000	0.000000
6.269852	21.132856	13.513607	-0.013073	0.093292	3.425878	0.000000	-0.006543	0.000000	0.000005	0.000001	0.000000	0.000000
6.604435	21.146903	13.459535	-0.028908	0.068318	3.423689	0.000000	-0.006543	0.000000	0.000005	0.000001	0.000000	0.000000
6.901758	21.168277	13.425508	-0.098286	0.081201	3.421743	0.000000	0.002397	0.000000	0.000006	0.000001	0.000000	0.000000
7.450818	20.915421	13.597088	0.556085	-0.395543	3.394857	0.000000	-0.100186	0.000000	0.000006	0.000001	0.000000	0.000000
7.999878	19.961402	14.304495	1.171178	-0.900460	3.312052	0.000000	-0.200991	0.000000	0.000006	0.000000	0.000000	0.000000
8.548938	18.373608	15.598118	1.703544	-1.469515	3.174799	0.000000	-0.298232	0.000000	0.000006	0.000000	0.000000	0.000000
9.097998	16.264192	17.570098	2.115581	-2.143241	2.985529	0.000000	-0.390182	0.000000	0.000006	-0.000000	0.000000	0.000000
9.543958	14.618438	19.327245	1.587902	-1.780250	2.829831	0.000000	-0.308475	0.000000	0.000006	0.000000	0.000000	0.000000
9.984918	13.421380	20.707296	1.137061	-1.337492	2.711052	0.000000	-0.230764	0.000000	0.000007	0.000000	0.000000	0.000000
10.425878	12.597604	21.668441	0.738169	-0.833879	2.625930	0.000000	-0.155681	0.000000	0.000007	0.000000	0.000000	0.000000
10.866838	12.109474	22.166949	0.373001	-0.292325	2.573493	0.000000	-0.082372	0.000000	0.000007	0.000001	0.000000	0.000000
11.309048	11.934555	22.179617	0.054035	0.208082	2.553126	0.000000	-0.016262	0.000000	0.000007	0.000001	0.000000	0.000000
11.606371	11.909852	22.060040	0.029050	0.194096	2.548291	0.000000	-0.016262	0.000000	0.000007	0.000001	0.000000	0.000000
12.086371	11.901325	21.884545	-0.011287	0.171518	2.540485	0.000000	-0.016262	0.000000	0.000008	0.000001	0.000000	0.000000
12.566371	11.931522	21.730726	-0.051624	0.148939	2.532679	0.000000	-0.016262	0.000000	0.000008	0.000001	0.000000	0.000000
13.046371	12.000443	21.598582	-0.091960	0.126361	2.524873	0.000000	-0.016262	0.000000	0.000009	0.000001	0.000000	0.000000
13.526371	12.108087	21.488113	-0.132297	0.103782	2.517067	0.000000	-0.016262	0.000000	0.000009	0.000001	0.000000	0.000000
14.007621	12.254885	21.399117	-0.172739	0.081145	2.509240	0.000000	-0.016262	0.000000	0.000009	0.000001	0.000000	0.000000
14.304943	12.365033	21.355023	-0.167405	0.014795	2.504405	0.000000	-0.022403	0.000000	0.000010	0.000001	0.000000	0.000000
14.745903	12.671250	21.108237	-0.529664	0.542731	2.510159	0.000000	0.048524	0.000000	0.000010	0.000001	0.000000	0.000000
15.186863	13.306375	20.405007	-0.916122	1.045972	2.547280	0.000000	0.120003	0.000000	0.000011	0.000001	0.000000	0.000000
15.627823	14.299424	19.277328	-1.344435	1.501622	2.616191	0.000000	0.192849	0.000000	0.000011	0.000002	0.000000	0.000000
16.068783	15.695766	17.776510	-1.834172	1.888950	2.717678	0.000000	0.267891	0.000000	0.000012	0.000002	0.000000	0.000000
16.514743	17.582852	15.949335	-2.412465	2.191078	2.854591	0.000000	0.346447	0.000000	0.000013	0.000002	0.000000	0.000000
17.063803	20.006493	13.909094	-1.975567	1.546735	3.021078	0.000000	0.259108	0.000000	0.000014	0.000002	0.000000	0.000000
17.612863	21.870436	12.512131	-1.399125	1.012563	3.138277	0.000000	0.167173	0.000000	0.000015	0.000001	0.000000	0.000000
18.161923	23.043021	11.658944	-0.723855	0.550514	3.204108	0.000000	0.072273	0.000000	0.000015	0.000001	0.000000	0.000000
18.710983	23.441423	11.288762	0.002544	0.127676	3.217405	0.000000	-0.023909	0.000000	0.000016	0.000000	0.000000	0.000000
19.009556	23.480289	11.203002	-0.071477	0.130066	3.212776	0.000000	-0.015503	0.000000	0.000016	0.000000	0.000000	0.000000
19.342889	23.532697	11.126377	-0.085746	0.099809	3.207608	0.000000	-0.015503	0.000000	0.000016	0.000000	0.000000	0.000000
19.676223	23.594617	11.069924	-0.100015	0.069551	3.202440	0.000000	-0.015503	0.000000	0.000016	0.000000	0.000000	0.000000
20.010806	23.666629	11.033407	-0.231595	0.093847	3.197273	0.000000	0.000338	0.000000	0.000016	0.000000	0.000000	0.000000
20.308129	23.808281	10.985684	-0.307030	0.095362	3.197373	0.000000	0.008691	0.000000	0.000016	0.000000	0.000000	0.000000
20.857189	23.734805	11.103202	0.440060	-0.310660	3.175923	0.000000	-0.086710	0.000000	0.000016	-0.000000	0.000000	0.000000
21.406249	22.853216	11.676043	1.156067	-0.738810	3.102438	0.000000	-0.180573	0.000000	0.000016	-0.000001	0.000000	0.000000
21.955309	21.225787	12.745009	1.790415	-1.219584	2.978221	0.000000	-0.271233	0.000000	0.000016	-0.000001	0.000000	0.000000
22.504369	18.967470	14.386241	2.298296	-1.787226	2.805476	0.000000	-0.357082	0.000000	0.000015	-0.000002	0.000000	0.000000
22.950329	17.187733	15.859734	1.706589	-1.502926	2.663528	0.000000	-0.279865	0.000000	0.000014	-0.000001	0.000000	0.000000
23.391289	15.911965	17.034523	1.197547	-1.151099	2.556442	0.000000	-0.206291	0.000000	0.000014	-0.000001	0.000000	0.000000
23.832249	15.059399	17.874662	0.743219	-0.746898	2.481251	0.000000	-0.135067	0.000000	0.000013	-0.000001	0.000000	0.000000
24.273209	14.591084	18.341923	0.322845	-0.308714	2.437099	0.000000	-0.065380	0.000000	0.000013	-0.000000	0.000000	0.000000
24.715418	14.485742	18.414801	-0.047346	0.098294	2.423479	0.000000	-0.002381	0.000000	0.000013	0.000000	0.000000	0.000000
25.012741	14.520012	18.361198	-0.067917	0.081992	2.422771	0.000000	-0.002381	0.000000	0.000013	0.000000	0.000000	0.000000
25.346075	14.572978	18.312628	-0.090980	0.063716	2.421978	0.000000	-0.002381	0.000000	0.000013	0.000000	0.000000	0.000000
25.679408	14.641319	18.276243	-0.114043	0.045440	2.421184	0.000000	-0.002381	0.000000	0.000013	0.000000	0.000000	0.000000
26.013991	14.725079	18.252345	-0.017732	-0.120977	2.420363	0.000000	-0.022016	0.000000	0.000013	0.000000	0.000000	0.000000
26.311314	14.741629	18.329197	-0.001784	-0.182448	2.413817	0.000000	-0.027935	0.000000	0.000014	0.000000	0.000000	0.000000
26.752274	14.924830	18.291308	-0.415253	0.268046	2.416610	0.000000	0.040618	0.000000	0.000014	0.000000	0.000000	0.000000
27.193234	15.479634	17.860000	-0.847693	0.706343	2.449706	0.000000	0.109633	0.000000	0.000014	0.000001	0.000000	0.000000
27.634194	16.431388	17.054898	-1.318862	1.112503	2.513481	0.000000	0.179898	0.000000	0.000014	0.000001	0.000000	0.000000
28.075154	17.823574	15.912633	-1.850286	1.468044	2.608661	0.000000	0.252211	0.000000	0.000015	0.000001	0.000000	0.000000
28.521114	19.743986	14.467972	-2.471209	1.757703	2.737934	0.000000	0.327840	0.000000	0.000015	0.000002	0.000000	0.000000
29.070174	22.184841	12.858306	-1.947990	1.191277	2.895270	0.000000	0.244429	0.000000	0.000016	0.000001	0.000000	0.000000
29.619234	23.971719	11.820678	-1.287175	0.709703	3.005549	0.000000	0.156683	0.000000	0.000017	0.000001	0.000000	0.000000
30.168294	24.978403	11.281181	-0.535440	0.278680	3.066815	0.000000	0.066157	0.000000	0.000017	0.000000	0.000000	0.000000
30.717354	25.133786	11.201388	0.254116	-0.132494	3.077982	0.000000	-0.025542	0.000000	0.000017	-0.000000	0.000000	0.000000
31.015927	25.024924	11.271075	0.176155	-0.130170	3.072757	0.000000	-0.017501	0.000000	0.000017	-0.000000	0.000000	0.000000
31.349260	24.912065	11.367880	0.162421	-0.160245	3.066923	0.000000	-0.017501	0.000000	0.000017	-0.000000	0.000000	0.000000
31.682593	24.808362	11.484735	0.148688	-0.190321	3.061090	0.000000	-0.017501	0.000000	0.000017	-0.000000	0.000000	0.000000
32.017177	24.713477	11.622192	0.134903	-0.220509	3.055234	0.000000	-0.017501	0.000000	0.000017	-0.000000	0.000000	0.000000
32.314499	24.636900	11.761293	0.058291	-0.216609	3.050031	0.000000	-0.009533	0.000000	0.000017	-0.000000	0.000000	0.000000
32.863559	24.150794	12.238396	0.821811	-0.657466	3.019912	0.000000	-0.100019	0.000000	0.000016	-0.000001	0.000000	0.000000
33.412619	22.853320	13.222335	1.527282	-1.145153	2.940525	0.000000	-0.188731	0.000000	0.000016	-0.000001	0.000000	0.000000
33.961679	20.836126	14.783192	2.124874	-1.714407	2.813278	0.000000	-0.274096	0.000000	0.000015	-0.000002	0.000000	0.000000
34.510739	18.241695	17.032144	2.572375	-2.405774	2.640429	0.000000	-0.354599	0.000000	0.000014	-0.000002	0.000000	0.000000
34.956699	16.224445	19.043735	1.967218	-2.086091	2.498636	0.000000	-0.281662	0.000000	0.000013	-0.000002	0.000000	0.000000
35.397659	14.720229	20.707338	1.456950	-1.672238	2.389819	0.000000	-0.212361	0.000000	0.000012	-0.000002	0.000000	0.000000
35.838619	13.635088	21.970884	1.013246	-1.182300	2.310998	0.000000	-0.145479	0.000000	0.000012	-0.000001	0.000000	0.000000
36.279579	12.919443	22.776881	0.615834	-0.638568	2.261276	0.000000	-0.080253	0.000000	0.000011	-0.000001	0.000000	0.000000
36.721789	12.539906	23.088964	0.277201	-0.122451	2.240061	0.000000	-0.021434	0.000000	0.000011	-0.000001	0.000000	0.000000
37.019112	12.382661	23.165665	0.251669	-0.135521	2.233688	0.000000	-0.021434	0.000000	0.000010	-0.000001	0.000000	0.000000
37.352445	12.224423	23.260897	0.223045	-0.150175	2.226544	0.000000	-0.021434	0.000000	0.000010	-0.000001	0.000000	0.000000
37.685779	12.085268	23.365898	0.194420	-0.164828	2.219399	0.000000	-0.021434	0.000000	0.000010	-0.000001	0.000000	0.000000
38.020362	11.964782	23.481116	0.165689	-0.179536	2.212228	0.000000	-0.021434	0.000000	0.000010	-0.000001	0.000000	0.000000
38.317684	11.873847	23.591763	0.169272	-0.250456	2.205855	0.000000	-0.026843	0.000000	0.000009	-0.000001	0.000000	0.000000
38.758644	11.875958	23.551341	-0.174077	0.341776	2.207947	0.000000	0.036339	0.000000	0.000009	-0.000001	0.000000	0.000000
39.199604	12.183224	22.993506	-0.525379	0.918457	2.237965	0.000000	0.099936	0.000000	0.000009	-0.000000	0.000000	0.000000
39.640564	12.809685	21.943639	-0.900684	1.453349	2.296250	0.000000	0.164671	0.000000	0.000009	-0.000000	0.000000	0.000000
40.081524	13.783960	20.449509	-1.317139	1.922115	2.383466	0.000000	0.231281	0.000000	0.000009	0.000000	0.000000	0.000000
40.527484	15.168136	18.556526	-1.797597	2.304708	2.502079	0.000000	0.300931	0.000000	0.000009	0.000000	0.000000	0.000000
41.076544	16.934552	16.429307	-1.400523	1.592453	2.646777	0.000000	0.225367	0.000000	0.000009	0.000000	0.000000	0.000000
41.625604	18.207697	15.017728	-0.904522	0.993624	2.748825	0.000000	0.145805	0.000000	0.000009	-0.000000	0.000000	0.000000
42.174664	18.897641	14.221245	-0.344631	0.465569	2.806414	0.000000	0.063657	0.000000	0.000009	-0.000000	0.000000	0.000000
42.723724	18.955651	13.983127	0.239603	-0.029325	2.818522	0.000000	-0.019619	0.000000	0.000009	-0.000001	0.000000	0.000000
43.022297	18.847019	13.985199	0.173759	-0.014146	2.814863	0.000000	-0.012256	0.000000	0.000008	-0.000001	0.000000	0.000000
43.502297	18.692804	14.015257	0.147522	-0.048475	2.808980	0.000000	-0.012256	0.000000	0.000008	-0.000001	0.000000	0.000000
43.982297	18.563777	14.078270	0.121285	-0.082804	2.803098	0.000000	-0.012256	0.000000	0.000008	-0.000001	0.000000	0.000000
44.462297	18.459938	14.174240	0.095047	-0.117133	2.797215	0.000000	-0.012256	0.000000	0.000007	-0.000001	0.000000	0.000000
44.942297	18.381286	14.303165	0.068810	-0.151461	2.791333	0.000000	-0.012256	0.000000	0.000007	-0.000001	0.000000	0.000000
45.423547	18.327943	14.465331	-0.048302	-0.114209	2.785453	0.000000	0.001545	0.000000	0.000007	-0.000001	0.000000	0.000000
45.720870	18.361500	14.539436	-0.112535	-0.097045	2.785912	0.000000	0.008824	0.000000	0.000006	-0.000001	0.000000	0.000000
46.269930	18.175904	14.927220	0.448559	-0.613393	2.768184	0.000000	-0.073306	0.000000	0.000006	-0.000001	0.000000	0.000000
46.818990	17.387990	15.902538	0.977968	-1.173432	2.705654	0.000000	-0.154135	0.000000	0.000005	-0.000001	0.000000	0.000000
47.368050	16.053414	17.534858	1.438299	-1.817052	2.599429	0.000000	-0.232230	0.000000	0.000005	-0.000001	0.000000	0.000000
47.917110	14.266443	19.940448	1.797035	-2.590097	2.451395	0.000000	-0.306206	0.000000	0.000004	-0.000001	0.000000	0.000000
48.363070	12.875813	22.079242	1.332297	-2.185672	2.330133	0.000000	-0.237905	0.000000	0.000003	-0.000001	0.000000	0.000000
48.804030	11.881035	23.791720	0.932197	-1.683073	2.239687	0.000000	-0.172711	0.000000	0.000003	-0.000001	0.000000	0.000000
49.244990	11.219071	25.025356	0.574687	-1.103895	2.177528	0.000000	-0.109485	0.000000	0.000002	-0.000001	0.000000	0.000000
49.685950	10.859676	25.724020	0.243432	-0.474491	2.142948	0.000000	-0.047505	0.000000	0.000002	-0.000001	0.000000	0.000000
50.128160	10.786558	25.855641	-0.050366	0.113047	2.135565	0.000000	0.008697	0.000000	0.000001	-0.000001	0.000000	0.000000
50.425482	10.824724	25.791881	-0.078000	0.101401	2.138151	0.000000	0.008697	0.000000	0.000001	-0.000001	0.000000	0.000000
50.758816	10.887051	25.728632	-0.108981	0.088344	2.141050	0.000000	0.008697	0.000000	0.000001	-0.000001	0.000000	0.000000
51.092149	10.970032	25.674089	-0.139962	0.075287	2.143949	0.000000	0.008697	0.000000	0.000000	-0.000001	0.000000	0.000000
51.426732	11.073870	25.628614	-0.081221	-0.145730	2.146838	0.000000	-0.008720	0.000000	0.000000	-0.000001	0.000000	0.000000
51.724055	11.130203	25.718794	-0.080952	-0.220649	2.144246	0.000000	-0.013978	0.000000	-0.000000	-0.000001	0.000000	0.000000
52.165015	11.346917	25.627262	-0.412372	0.427433	2.151671	0.000000	0.047685	0.000000	-0.000001	-0.000001	0.000000	0.000000
52.605975	11.863089	24.970599	-0.762632	1.056067	2.186381	0.000000	0.109892	0.000000	-0.000001	-0.000001	0.000000	0.000000
53.046935	12.702299	23.778682	-1.147734	1.636651	2.248771	0.000000	0.173350	0.000000	-0.000002	-0.000001	0.000000	0.000000
53.487895	13.902891	22.105744	-1.585272	2.142768	2.339552	0.000000	0.238782	0.000000	-0.000002	-0.000001	0.000000	0.000000
53.933855	15.540295	20.002886	-2.099468	2.552728	2.461262	0.000000	0.307333	0.000000	-0.000003	-0.000001	0.000000	0.000000
54.482915	17.648399	17.636650	-1.717283	1.782324	2.609826	0.000000	0.233028	0.000000	-0.000003	-0.000001	0.000000	0.000000
55.031975	19.267321	16.042151	-1.213797	1.138870	2.716397	0.000000	0.154591	0.000000	-0.000004	-0.000001	0.000000	0.000000
55.581035	20.282708	15.105817	-0.624575	0.576536	2.779083	0.000000	0.073411	0.000000	-0.000005	-0.000001	0.000000	0.000000
56.130095	20.622839	14.760954	0.008763	0.055268	2.796773	0.000000	-0.009071	0.000000	-0.000005	-0.000001	0.000000	0.000000
56.428668	20.654115	14.711013	-0.059630	0.073432	2.796247	0.000000	-0.001763	0.000000	-0.000005	-0.000001	0.000000	0.000000
56.762001	20.699267	14.669652	-0.075826	0.050651	2.795659	0.000000	-0.001763	0.000000	-0.000005	-0.000001	0.000000	0.000000
57.095334	20.755216	14.643478	-0.092022	0.027870	2.795072	0.000000	-0.001763	0.000000	-0.000006	-0.000001	0.000000	0.000000
57.429918	20.822234	14.632479	-0.108279	0.005003	2.794482	0.000000	-0.001763	0.000000	-0.000006	-0.000001	0.000000	0.000000
57.727240	20.890917	14.635546	-0.177313	0.022925	2.793958	0.000000	0.005538	0.000000	-0.000006	-0.000001	0.000000	0.000000
58.276300	20.729216	14.891418	0.470073	-0.491695	2.774360	0.000000	-0.076822	0.000000	-0.000007	-0.000001	0.000000	0.000000
58.825360	19.870715	15.728205	1.084255	-1.041337	2.709849	0.000000	-0.157819	0.000000	-0.000007	-0.000000	0.000000	0.000000
59.374420	18.376053	17.205510	1.621850	-1.665152	2.601570	0.000000	-0.236017	0.000000	-0.000007	-0.000000	0.000000	0.000000
59.923480	16.350806	19.428557	2.044887	-2.407572	2.451443	0.000000	-0.310028	0.000000	-0.000007	0.000000	0.000000	0.000000
60.369440	14.765649	21.404432	1.522184	-2.004337	2.328473	0.000000	-0.241749	0.000000	-0.000007	-0.000000	0.000000	0.000000
60.810400	13.625500	22.960600	1.073232	-1.511280	2.236319	0.000000	-0.176620	0.000000	-0.000007	-0.000000	0.000000	0.000000
61.251360	12.858254	24.049833	0.673312	-0.949462	2.172413	0.000000	-0.113502	0.000000	-0.000007	-0.000000	0.000000	0.000000
61.692320	12.428860	24.622573	0.304154	-0.344443	2.136029	0.000000	-0.051678	0.000000	-0.000007	-0.000001	0.000000	0.000000
62.134530	12.317751	24.652220	-0.021001	0.215734	2.126757	0.000000	0.004342	0.000000	-0.000008	-0.000001	0.000000	0.000000
62.431853	12.337419	24.527687	-0.045149	0.203112	2.128049	0.000000	0.004342	0.000000	-0.000008	-0.000001	0.000000	0.000000
62.765186	12.376543	24.396996	-0.072223	0.188961	2.129496	0.000000	0.004342	0.000000	-0.000008	-0.000001	0.000000	0.000000
63.098520	12.433716	24.275739	-0.099296	0.174811	2.130944	0.000000	0.004342	0.000000	-0.000008	-0.000001	0.000000	0.000000
63.433103	12.509253	24.163514	-0.126470	0.160607	2.132397	0.000000	0.004342	0.000000	-0.000009	-0.000001	0.000000	0.000000
63.730426	12.591638	24.071762	-0.119738	0.088949	2.133689	0.000000	-0.000890	0.000000	-0.000009	-0.000001	0.000000	0.000000
64.171386	12.857582	23.728212	-0.485652	0.687183	2.146836	0.000000	0.060574	0.000000	-0.000009	-0.000001	0.000000	0.000000
64.612346	13.454760	22.868891	-0.873754	1.254151	2.187212	0.000000	0.122729	0.000000	-0.000010	-0.000001	0.000000	0.000000
65.053306	14.410456	21.532898	-1.301776	1.764057	2.255279	0.000000	0.186282	0.000000	-0.000010	-0.000002	0.000000	0.000000
65.494266	15.768333	19.781020	-1.789272	2.193699	2.351810	0.000000	0.251956	0.000000	-0.000011	-0.000002	0.000000	0.000000
65.940226	17.613591	17.668175	-2.363207	2.524284	2.479478	0.000000	0.320901	0.000000	-0.000012	-0.000002	0.000000	0.000000
66.489286	19.979030	15.304549	-1.919453	1.805987	2.635310	0.000000	0.245889	0.000000	-0.000013	-0.000002	0.000000	0.000000
67.038346	21.779386	13.654856	-1.340118	1.216326	2.748695	0.000000	0.166516	0.000000	-0.000014	-0.000001	0.000000	0.000000
67.587406	22.887493	12.601591	-0.666124	0.713302	2.817623	0.000000	0.084188	0.000000	-0.000015	-0.000001	0.000000	0.000000
68.136466	23.225078	12.069733	0.054921	0.261085	2.840870	0.000000	0.000368	0.000000	-0.000015	-0.000000	0.000000	0.000000
68.435038	23.232362	11.903012	-0.018625	0.265770	2.843197	0.000000	0.007791	0.000000	-0.000015	-0.000000	0.000000	0.000000
68.768372	23.249563	11.735826	-0.032978	0.235787	2.845794	0.000000	0.007791	0.000000	-0.000015	-0.000000	0.000000	0.000000
69.101705	23.276333	11.588629	-0.047331	0.205805	2.848391	0.000000	0.007791	0.000000	-0.000015	-0.000000	0.000000	0.000000
69.436288	23.312826	11.460980	-0.061738	0.175711	2.850998	0.000000	0.007791	0.000000	-0.000015	-0.000000	0.000000	0.000000
69.733611	23.353344	11.364445	-0.135566	0.178665	2.853315	0.000000	0.015248	0.000000	-0.000015	-0.000000	0.000000	0.000000
70.282671	23.101131	11.395830	0.592201	-0.236162	2.838506	0.000000	-0.069113	0.000000	-0.000015	0.000000	0.000000	0.000000
