#ParticleID	Turn	x[m]	xp	y[m]	yp	z[m]	dE[GeV]# s	beta_x	beta_y	alpha_x	alpha_y	D_x	D_y	D_px	D_py	orbit_x	orbit_px	orbit_y	orbit_py
0.300000	11.826304	24.968143	-0.012602	-0.027675	2.618182	0.000000	-0.000014	0.000000	0.000000	0.000000	0.000000	0.000000
0.601250	11.841572	24.988454	-0.038079	-0.039749	2.618178	0.000000	-0.000014	0.000000	0.000000	0.000000	0.000000	0.000000
0.898573	11.871691	25.015634	-0.034111	-0.113012	2.618173	0.000000	-0.006434	0.000000	0.000000	0.000000	0.000000	0.000000
1.339533	12.054058	24.837839	-0.381028	0.514678	2.631630	0.000000	0.067524	0.000000	0.000000	0.000000	0.000000	0.000000
1.780493	12.548870	24.114722	-0.745353	1.118952	2.677837	0.000000	0.142252	0.000000	0.000001	0.000000	0.000000	0.000000
2.221453	13.378732	22.879184	-1.143731	1.672313	2.757322	0.000000	0.218600	0.000000	0.000001	0.000000	0.000000	0.000000
2.662413	14.581559	21.187442	-1.594363	2.149586	2.870990	0.000000	0.297438	0.000000	0.000001	0.000000	0.000000	0.000000
3.108373	16.233093	19.091655	-2.122134	2.530185	3.021996	0.000000	0.380153	0.000000	0.000001	0.000000	0.000000	0.000000
3.657433	18.350875	16.737860	-1.712138	1.782075	3.205451	0.000000	0.287115	0.000000	0.000001	0.000000	0.000000	0.000000
4.206493	19.948955	15.131473	-1.181206	1.160899	3.336347	0.000000	0.188984	0.000000	0.000001	0.000000	0.000000	0.000000
4.755553	20.914453	14.158074	-0.566840	0.622411	3.412362	0.000000	0.087501	0.000000	0.000001	0.000000	0.000000	0.000000
5.304613	21.179170	13.748332	0.087566	0.128256	3.432149	0.000000	-0.015533	0.000000	0.000002	0.000000	0.000000	0.000000
5.603185	21.164138	13.656953	0.018117	0.141875	3.430188	0.000000	-0.006566	0.000000	0.000002	0.000000	0.000000	0.000000
5.936519	21.157311	13.570670	0.002362	0.116976	3.427999	0.000000	-0.006566	0.000000	0.000002	0.000000	0.000000	0.000000
6.269852	21.160988	13.500985	-0.013393	0.092077	3.425811	0.000000	-0.006566	0.000000	0.000002	0.000000	0.000000	0.000000
6.604435	21.175241	13.447733	-0.029207	0.067085	3.423614	0.000000	-0.006566	0.000000	0.000002	0.000000	0.000000	0.000000
6.901758	21.196787	13.414444	-0.098643	0.079925	3.421662	0.000000	0.002374	0.000000	0.000002	0.000000	0.000000	0.000000
7.450818	20.943796	13.587259	0.556686	-0.396530	3.394764	0.000000	-0.100206	0.000000	0.000002	0.000000	0.000000	0.000000
7.999878	19.988609	14.295625	1.172693	-0.901228	3.311950	0.000000	-0.201008	0.000000	0.000002	0.000000	0.000000	0.000000
8.548938	18.398695	15.589995	1.705867	-1.470118	3.174688	0.000000	-0.298245	0.000000	0.000002	0.000000	0.000000	0.000000
9.097998	16.286358	17.562567	2.118547	-2.143722	2.985413	0.000000	-0.390192	0.000000	0.000002	-0.000000	0.000000	0.000000
9.543958	14.638258	19.320277	1.590217	-1.781027	2.829709	0.000000	-0.308487	0.000000	0.000002	-0.000000	0.000000	0.000000
9.984918	13.439403	20.701130	1.138835	-1.338527	2.710925	0.000000	-0.230780	0.000000	0.000002	0.000000	0.000000	0.000000
10.425878	12.614270	21.663285	0.739483	-0.835125	2.625795	0.000000	-0.155701	0.000000	0.000002	0.000000	0.000000	0.000000
10.866838	12.125161	22.162965	0.373916	-0.293726	2.573349	0.000000	-0.082395	0.000000	0.000002	0.000000	0.000000	0.000000
11.309048	11.949594	22.176917	0.054631	0.206595	2.552971	0.000000	-0.016288	0.000000	0.000002	0.000000	0.000000	0.000000
11.606371	11.924528	22.058223	0.029675	0.192616	2.548128	0.000000	-0.016288	0.000000	0.000002	0.000000	0.000000	0.000000
12.086371	11.915379	21.884144	-0.010614	0.170048	2.540310	0.000000	-0.016288	0.000000	0.000002	0.000000	0.000000	0.000000
12.566371	11.944906	21.731731	-0.050902	0.147480	2.532491	0.000000	-0.016288	0.000000	0.000002	0.000000	0.000000	0.000000
13.046371	12.013111	21.600983	-0.091191	0.124912	2.524673	0.000000	-0.016288	0.000000	0.000003	0.000000	0.000000	0.000000
13.526371	12.119993	21.491900	-0.131480	0.102344	2.516855	0.000000	-0.016288	0.000000	0.000003	0.000000	0.000000	0.000000
14.007621	12.265981	21.404283	-0.171873	0.079717	2.509016	0.000000	-0.016288	0.000000	0.000003	0.000000	0.000000	0.000000
14.304943	12.375605	21.361036	-0.166481	0.013356	2.504173	0.000000	-0.022429	0.000000	0.000003	0.000000	0.000000	0.000000
14.745903	12.681104	21.115438	-0.528951	0.541485	2.509914	0.000000	0.048491	0.000000	0.000003	0.000000	0.000000	0.000000
15.186863	13.315681	20.413200	-0.915588	1.044977	2.547019	0.000000	0.119964	0.000000	0.000003	0.000000	0.000000	0.000000
15.627823	14.308327	19.286272	-1.344055	1.500923	2.615912	0.000000	0.192803	0.000000	0.000003	0.000000	0.000000	0.000000
16.068783	15.704395	17.785928	-1.833929	1.888578	2.717378	0.000000	0.267838	0.000000	0.000003	0.000000	0.000000	0.000000
16.514743	17.591321	15.958930	-2.412347	2.191053	2.854266	0.000000	0.346385	0.000000	0.000004	0.000001	0.000000	0.000000
17.063803	20.014618	13.918819	-1.975064	1.546522	3.020723	0.000000	0.259058	0.000000	0.000004	0.000000	0.000000	0.000000
17.612863	21.877811	12.522201	-1.398272	1.012146	3.137897	0.000000	0.167135	0.000000	0.000004	0.000000	0.000000	0.000000
18.161923	23.049294	11.669597	-0.722713	0.549863	3.203712	0.000000	0.072247	0.000000	0.000004	0.000000	0.000000	0.000000
18.710983	23.446319	11.300277	0.003894	0.126746	3.216998	0.000000	-0.023922	0.000000	0.000004	0.000000	0.000000	0.000000
19.009556	23.484389	11.215043	-0.070140	0.129204	3.212365	0.000000	-0.015517	0.000000	0.000004	0.000000	0.000000	0.000000
19.342889	23.535903	11.138980	-0.084404	0.098985	3.207193	0.000000	-0.015517	0.000000	0.000004	0.000000	0.000000	0.000000
19.676223	23.596927	11.083062	-0.098668	0.068767	3.202021	0.000000	-0.015517	0.000000	0.000004	0.000000	0.000000	0.000000
20.010806	23.668036	11.047057	-0.230249	0.093170	3.196849	0.000000	0.000322	0.000000	0.000004	0.000000	0.000000	0.000000
20.308129	23.808886	10.999726	-0.305684	0.094761	3.196945	0.000000	0.008675	0.000000	0.000004	0.000000	0.000000	0.000000
20.857189	23.733927	11.118123	0.441398	-0.311670	3.175490	0.000000	-0.086712	0.000000	0.000004	-0.000000	0.000000	0.000000
21.406249	22.850919	11.692328	1.157301	-0.740300	3.102007	0.000000	-0.180560	0.000000	0.000004	-0.000000	0.000000	0.000000
21.955309	21.222232	12.763240	1.791458	-1.221660	2.977801	0.000000	-0.271207	0.000000	0.000004	-0.000000	0.000000	0.000000
22.504369	18.962910	14.407139	2.299075	-1.790036	2.805074	0.000000	-0.357042	0.000000	0.000004	-0.000000	0.000000	0.000000
22.950329	17.182474	15.882932	1.707385	-1.505253	2.663140	0.000000	-0.279836	0.000000	0.000004	-0.000000	0.000000	0.000000
23.391289	15.905982	17.059522	1.198397	-1.152839	2.556065	0.000000	-0.206272	0.000000	0.000004	-0.000000	0.000000	0.000000
23.832249	15.052629	17.900905	0.744161	-0.747971	2.480880	0.000000	-0.135057	0.000000	0.000004	-0.000000	0.000000	0.000000
24.273209	14.583426	18.368799	0.323924	-0.309072	2.436730	0.000000	-0.065380	0.000000	0.000004	-0.000000	0.000000	0.000000
24.715418	14.477053	18.441670	-0.046101	0.098598	2.423108	0.000000	-0.002390	0.000000	0.000004	0.000000	0.000000	0.000000
25.012741	14.510586	18.387879	-0.066682	0.082319	2.422398	0.000000	-0.002390	0.000000	0.000004	0.000000	0.000000	0.000000
25.346075	14.562732	18.339083	-0.089756	0.064068	2.421601	0.000000	-0.002390	0.000000	0.000004	0.000000	0.000000	0.000000
25.679408	14.630260	18.302454	-0.112830	0.045818	2.420804	0.000000	-0.002390	0.000000	0.000004	0.000000	0.000000	0.000000
26.013991	14.713213	18.278294	-0.016627	-0.120784	2.419980	0.000000	-0.022022	0.000000	0.000004	-0.000000	0.000000	0.000000
26.311314	14.729110	18.355025	-0.000721	-0.182298	2.413432	0.000000	-0.027941	0.000000	0.000004	-0.000000	0.000000	0.000000
26.752274	14.911235	18.316695	-0.413866	0.268892	2.416221	0.000000	0.040602	0.000000	0.000004	0.000000	0.000000	0.000000
27.193234	15.464650	17.884347	-0.845918	0.707847	2.449308	0.000000	0.109608	0.000000	0.000004	0.000000	0.000000	0.000000
27.634194	16.414638	17.077653	-1.316618	1.114596	2.513070	0.000000	0.179862	0.000000	0.000004	0.000000	0.000000	0.000000
28.075154	17.804602	15.933316	-1.847471	1.470631	2.608232	0.000000	0.252164	0.000000	0.000004	0.000000	0.000000	0.000000
28.521114	19.722198	14.486169	-2.467688	1.760668	2.737482	0.000000	0.327782	0.000000	0.000004	0.000000	0.000000	0.000000
29.070174	22.159472	12.873644	-1.945028	1.193551	2.894791	0.000000	0.244386	0.000000	0.000004	0.000000	0.000000	0.000000
29.619234	23.943501	11.833823	-1.284980	0.711448	3.005051	0.000000	0.156655	0.000000	0.000004	0.000000	0.000000	0.000000
30.168294	24.948270	11.292641	-0.534168	0.280020	3.066306	0.000000	0.066146	0.000000	0.000005	0.000000	0.000000	0.000000
30.717354	25.102808	11.211553	0.254375	-0.131462	3.077471	0.000000	-0.025536	0.000000	0.000005	-0.000000	0.000000	0.000000
31.015927	24.993751	11.280597	0.176471	-0.129079	3.072248	0.000000	-0.017496	0.000000	0.000004	-0.000000	0.000000	0.000000
31.349260	24.880688	11.376664	0.162719	-0.159120	3.066416	0.000000	-0.017496	0.000000	0.000004	-0.000000	0.000000	0.000000
31.682593	24.776793	11.492758	0.148967	-0.189162	3.060584	0.000000	-0.017496	0.000000	0.000004	-0.000000	0.000000	0.000000
32.017177	24.681728	11.629427	0.135163	-0.219316	3.054730	0.000000	-0.017496	0.000000	0.000004	-0.000000	0.000000	0.000000
32.314499	24.605001	11.767810	0.058611	-0.215366	3.049528	0.000000	-0.009528	0.000000	0.000004	-0.000000	0.000000	0.000000
32.863559	24.119127	12.243619	0.821070	-0.656339	3.019415	0.000000	-0.099998	0.000000	0.000004	-0.000000	0.000000	0.000000
33.412619	22.823029	13.226346	1.525533	-1.144061	2.940044	0.000000	-0.188695	0.000000	0.000004	-0.000000	0.000000	0.000000
33.961679	20.808256	14.785987	2.122240	-1.713272	2.812821	0.000000	-0.274044	0.000000	0.000004	-0.000000	0.000000	0.000000
34.510739	18.217122	17.033632	2.569042	-2.404515	2.640004	0.000000	-0.354533	0.000000	0.000004	-0.000001	0.000000	0.000000
34.956699	16.202508	19.044015	1.964621	-2.084650	2.498237	0.000000	-0.281607	0.000000	0.000003	-0.000001	0.000000	0.000000
35.397659	14.700306	20.706292	1.454964	-1.670684	2.389441	0.000000	-0.212316	0.000000	0.000003	-0.000000	0.000000	0.000000
35.838619	13.616682	21.968442	1.011779	-1.180702	2.310638	0.000000	-0.145443	0.000000	0.000003	-0.000000	0.000000	0.000000
36.279579	12.902128	22.773037	0.614820	-0.636999	2.260930	0.000000	-0.080226	0.000000	0.000003	-0.000000	0.000000	0.000000
36.721789	12.523305	23.083772	0.276555	-0.120975	2.239724	0.000000	-0.021416	0.000000	0.000003	-0.000000	0.000000	0.000000
37.019112	12.366452	23.159595	0.250997	-0.134043	2.233357	0.000000	-0.021416	0.000000	0.000003	-0.000000	0.000000	0.000000
37.352445	12.208671	23.253841	0.222345	-0.148695	2.226218	0.000000	-0.021416	0.000000	0.000003	-0.000000	0.000000	0.000000
37.685779	12.069993	23.357854	0.193692	-0.163346	2.219079	0.000000	-0.021416	0.000000	0.000002	-0.000000	0.000000	0.000000
38.020362	11.950003	23.472081	0.164932	-0.178053	2.211914	0.000000	-0.021416	0.000000	0.000002	-0.000000	0.000000	0.000000
38.317684	11.859526	23.581845	0.168457	-0.248950	2.205546	0.000000	-0.026825	0.000000	0.000002	-0.000000	0.000000	0.000000
38.758644	11.862214	23.540215	-0.174575	0.342998	2.207645	0.000000	0.036350	0.000000	0.000002	-0.000000	0.000000	0.000000
39.199604	12.169788	22.981447	-0.525582	0.919340	2.237665	0.000000	0.099939	0.000000	0.000002	-0.000000	0.000000	0.000000
39.640564	12.796301	21.930967	-0.900602	1.453853	2.295950	0.000000	0.164666	0.000000	0.000002	-0.000000	0.000000	0.000000
40.081524	13.770377	20.436568	-1.316767	1.922217	2.383162	0.000000	0.231269	0.000000	0.000002	0.000000	0.000000	0.000000
40.527484	15.154084	18.543679	-1.796917	2.304400	2.501768	0.000000	0.300910	0.000000	0.000002	0.000000	0.000000	0.000000
41.076544	16.920039	16.416622	-1.400368	1.592464	2.646457	0.000000	0.225357	0.000000	0.000002	-0.000000	0.000000	0.000000
41.625604	18.193310	15.004855	-0.904905	0.993956	2.748503	0.000000	0.145805	0.000000	0.000002	-0.000000	0.000000	0.000000
42.174664	18.883959	14.207821	-0.345524	0.466245	2.806094	0.000000	0.063668	0.000000	0.000002	-0.000000	0.000000	0.000000
42.723724	18.943202	13.968750	0.238263	-0.028256	2.818211	0.000000	-0.019599	0.000000	0.000002	-0.000000	0.000000	0.000000
43.022297	18.835353	13.970211	0.172446	-0.013135	2.814557	0.000000	-0.012235	0.000000	0.000002	-0.000000	0.000000	0.000000
43.502297	18.682401	13.999316	0.146204	-0.047499	2.808685	0.000000	-0.012235	0.000000	0.000002	-0.000000	0.000000	0.000000
43.982297	18.554641	14.061410	0.119962	-0.081864	2.802812	0.000000	-0.012235	0.000000	0.000002	-0.000000	0.000000	0.000000
44.462297	18.452074	14.156495	0.093720	-0.116229	2.796939	0.000000	-0.012235	0.000000	0.000002	-0.000000	0.000000	0.000000
44.942297	18.374698	14.284570	0.067479	-0.150594	2.791066	0.000000	-0.012235	0.000000	0.000002	-0.000000	0.000000	0.000000
45.423547	18.322639	14.445918	-0.049612	-0.113474	2.785195	0.000000	0.001564	0.000000	0.000001	-0.000000	0.000000	0.000000
45.720870	18.356977	14.519593	-0.113842	-0.096384	2.785660	0.000000	0.008842	0.000000	0.000001	-0.000000	0.000000	0.000000
46.269930	18.172888	14.906316	0.447137	-0.612109	2.767944	0.000000	-0.073279	0.000000	0.000001	-0.000000	0.000000	0.000000
46.818990	17.386554	15.879842	0.976532	-1.171434	2.705430	0.000000	-0.154100	0.000000	0.000001	-0.000000	0.000000	0.000000
47.368050	16.053516	17.509513	1.436950	-1.814197	2.599226	0.000000	-0.232189	0.000000	0.000001	-0.000000	0.000000	0.000000
47.917110	14.267934	19.911407	1.795869	-2.586181	2.451216	0.000000	-0.306158	0.000000	0.000001	-0.000000	0.000000	0.000000
48.363070	12.878304	22.046980	1.331211	-2.182397	2.329973	0.000000	-0.237862	0.000000	0.000001	-0.000000	0.000000	0.000000
48.804030	11.884468	23.756907	0.931140	-1.680585	2.239545	0.000000	-0.172672	0.000000	0.000001	-0.000000	0.000000	0.000000
49.244990	11.223442	24.988739	0.573610	-1.102308	2.177402	0.000000	-0.109449	0.000000	0.000000	-0.000000	0.000000	0.000000
49.685950	10.865024	25.686428	0.242286	-0.473877	2.142837	0.000000	-0.047472	0.000000	0.000000	-0.000000	0.000000	0.000000
50.128160	10.792969	25.817948	-0.051617	0.112753	2.135467	0.000000	0.008727	0.000000	0.000000	-0.000000	0.000000	0.000000
50.425482	10.831875	25.754368	-0.079238	0.101090	2.138062	0.000000	0.008727	0.000000	0.000000	-0.000000	0.000000	0.000000
50.758816	10.895022	25.691332	-0.110205	0.088015	2.140971	0.000000	0.008727	0.000000	-0.000000	-0.000000	0.000000	0.000000
51.092149	10.978814	25.637014	-0.141171	0.074940	2.143880	0.000000	0.008727	0.000000	-0.000000	-0.000000	0.000000	0.000000
51.426732	11.083456	25.591777	-0.082338	-0.145797	2.146778	0.000000	-0.008689	0.000000	-0.000000	-0.000000	0.000000	0.000000
51.724055	11.140448	25.682002	-0.082025	-0.220642	2.144194	0.000000	-0.013947	0.000000	-0.000000	-0.000000	0.000000	0.000000
52.165015	11.358219	25.590894	-0.413706	0.426469	2.151633	0.000000	0.047715	0.000000	-0.000000	-0.000000	0.000000	0.000000
52.605975	11.875704	24.935495	-0.764287	1.054176	2.186355	0.000000	0.109920	0.000000	-0.000001	-0.000000	0.000000	0.000000
53.046935	12.716544	23.745625	-1.149787	1.633918	2.248757	0.000000	0.173378	0.000000	-0.000001	-0.000000	0.000000	0.000000
53.487895	13.919156	22.075423	-1.587817	2.139319	2.339550	0.000000	0.238810	0.000000	-0.000001	-0.000000	0.000000	0.000000
53.933855	15.559093	19.975907	-2.102626	2.548717	2.461272	0.000000	0.307361	0.000000	-0.000001	-0.000000	0.000000	0.000000
54.482915	17.670422	17.613490	-1.719962	1.779337	2.609852	0.000000	0.233056	0.000000	-0.000001	-0.000000	0.000000	0.000000
55.031975	19.291935	16.021809	-1.215810	1.136695	2.716437	0.000000	0.154617	0.000000	-0.000001	-0.000000	0.000000	0.000000
55.581035	20.309098	15.087491	-0.625778	0.575018	2.779136	0.000000	0.073436	0.000000	-0.000002	-0.000000	0.000000	0.000000
56.130095	20.650064	14.743986	0.008455	0.054298	2.796839	0.000000	-0.009048	0.000000	-0.000002	-0.000000	0.000000	0.000000
56.428668	20.681560	14.694656	-0.059989	0.072397	2.796320	0.000000	-0.001740	0.000000	-0.000002	-0.000000	0.000000	0.000000
56.762001	20.726945	14.653993	-0.076164	0.049594	2.795740	0.000000	-0.001740	0.000000	-0.000002	-0.000000	0.000000	0.000000
57.095334	20.783113	14.628531	-0.092340	0.026791	2.795160	0.000000	-0.001740	0.000000	-0.000002	-0.000000	0.000000	0.000000
57.429918	20.850336	14.618261	-0.108576	0.003903	2.794578	0.000000	-0.001740	0.000000	-0.000002	-0.000000	0.000000	0.000000
57.727240	20.919190	14.621988	-0.177663	0.021768	2.794060	0.000000	0.005560	0.000000	-0.000002	-0.000000	0.000000	0.000000
58.276300	20.757352	14.878922	0.470672	-0.492484	2.774473	0.000000	-0.076803	0.000000	-0.000002	-0.000000	0.000000	0.000000
58.825360	19.897688	15.716401	1.085761	-1.041815	2.709972	0.000000	-0.157804	0.000000	-0.000002	-0.000000	0.000000	0.000000
59.374420	18.400920	17.194076	1.624157	-1.665352	2.601700	0.000000	-0.236005	0.000000	-0.000002	0.000000	0.000000	0.000000
59.923480	16.372772	19.417198	2.047831	-2.407508	2.451579	0.000000	-0.310021	0.000000	-0.000002	0.000000	0.000000	0.000000
60.369440	14.785285	21.393185	1.524483	-2.004652	2.328612	0.000000	-0.241738	0.000000	-0.000002	0.000000	0.000000	0.000000
60.810400	13.643352	22.949793	1.074994	-1.511957	2.236463	0.000000	-0.176605	0.000000	-0.000002	-0.000000	0.000000	0.000000
61.251360	12.874758	24.039772	0.674619	-0.950469	2.172565	0.000000	-0.113484	0.000000	-0.000002	-0.000000	0.000000	0.000000
61.692320	12.444389	24.613530	0.305065	-0.345736	2.136190	0.000000	-0.051656	0.000000	-0.000002	-0.000000	0.000000	0.000000
62.134530	12.332634	24.644425	-0.020409	0.214238	2.126928	0.000000	0.004369	0.000000	-0.000002	-0.000000	0.000000	0.000000
62.431853	12.351941	24.520782	-0.044527	0.201619	2.128227	0.000000	0.004369	0.000000	-0.000002	-0.000000	0.000000	0.000000
62.765186	12.390639	24.391084	-0.071567	0.187473	2.129684	0.000000	0.004369	0.000000	-0.000002	-0.000000	0.000000	0.000000
63.098520	12.447364	24.270818	-0.098607	0.173326	2.131140	0.000000	0.004369	0.000000	-0.000002	-0.000000	0.000000	0.000000
63.433103	12.522429	24.159584	-0.125748	0.159127	2.132602	0.000000	0.004369	0.000000	-0.000003	-0.000000	0.000000	0.000000
63.730426	12.604376	24.068712	-0.118957	0.087483	2.133901	0.000000	-0.000864	0.000000	-0.000003	-0.000000	0.000000	0.000000
64.171386	12.869752	23.726478	-0.485142	0.685675	2.147060	0.000000	0.060606	0.000000	-0.000003	-0.000000	0.000000	0.000000
64.612346	13.466591	22.868480	-0.873491	1.252670	2.187452	0.000000	0.122767	0.000000	-0.000003	-0.000000	0.000000	0.000000
65.053306	14.422159	21.533758	-1.301748	1.762668	2.255536	0.000000	0.186326	0.000000	-0.000003	-0.000000	0.000000	0.000000
65.494266	15.780115	19.783040	-1.789479	2.192467	2.352088	0.000000	0.252007	0.000000	-0.000003	-0.000000	0.000000	0.000000
65.940226	17.625666	17.671200	-2.363658	2.523267	2.479780	0.000000	0.320960	0.000000	-0.000003	-0.000001	0.000000	0.000000
66.489286	19.991341	15.308648	-1.919429	1.805036	2.635640	0.000000	0.245938	0.000000	-0.000004	-0.000000	0.000000	0.000000
67.038346	21.791410	13.659993	-1.339620	1.215374	2.749048	0.000000	0.166553	0.000000	-0.000004	-0.000000	0.000000	0.000000
67.587406	22.898725	12.607806	-0.665188	0.712281	2.817993	0.000000	0.084214	0.000000	-0.000004	-0.000000	0.000000	0.000000
68.136466	23.235070	12.077141	0.056230	0.259921	2.841251	0.000000	0.000381	0.000000	-0.000004	-0.000000	0.000000	0.000000
68.435038	23.241582	11.911095	-0.017331	0.264655	2.843582	0.000000	0.007805	0.000000	-0.000004	-0.000000	0.000000	0.000000
68.768372	23.257919	11.744640	-0.031678	0.234710	2.846184	0.000000	0.007805	0.000000	-0.000004	-0.000000	0.000000	0.000000
69.101705	23.283819	11.598149	-0.046024	0.204765	2.848785	0.000000	0.007805	0.000000	-0.000004	-0.000000	0.000000	0.000000
69.436288	23.319435	11.471184	-0.060424	0.174707	2.851397	0.000000	0.007805	0.000000	-0.000004	-0.000000	0.000000	0.000000
69.733611	23.359171	11.375237	-0.134256	0.177719	2.853718	0.000000	0.015262	0.000000	-0.000004	-0.000000	0.000000	0.000000
70.282671	23.105426	11.407829	0.593664	-0.237429	2.838912	0.000000	-0.069112	0.000000	-0.000004	0.000000	0.000000	0.000000
