#ParticleID	Turn	x[m]	xp	y[m]	yp	z[m]	dE[GeV]# s	beta_x	beta_y	alpha_x	alpha_y	D_x	D_y	D_px	D_py	orbit_x	orbit_px	orbit_y	orbit_py
0.300000	11.821316	24.987646	-0.011952	-0.027544	2.618119	0.000000	0.000010	0.000000	-0.000000	0.000001	0.000000	0.000000
0.601250	11.836195	25.007876	-0.037439	-0.039609	2.618121	0.000000	0.000010	0.000000	-0.000000	0.000001	0.000000	0.000000
0.898573	11.865937	25.034970	-0.033496	-0.112910	2.618124	0.000000	-0.006411	0.000000	-0.000000	0.000001	0.000000	0.000000
1.339533	12.047700	24.856859	-0.380266	0.515289	2.631590	0.000000	0.067547	0.000000	0.000000	0.000001	0.000000	0.000000
1.780493	12.541762	24.132988	-0.744409	1.120043	2.677807	0.000000	0.142274	0.000000	0.000001	0.000001	0.000000	0.000000
2.221453	13.370696	22.896293	-1.142562	1.673836	2.757301	0.000000	0.218621	0.000000	0.000001	0.000001	0.000000	0.000000
2.662413	14.572374	21.203043	-1.592916	2.151470	2.870978	0.000000	0.297458	0.000000	0.000001	0.000001	0.000000	0.000000
3.108373	16.222468	19.105445	-2.120339	2.532346	3.021993	0.000000	0.380173	0.000000	0.000002	0.000001	0.000000	0.000000
3.657433	18.338416	16.749582	-1.710613	1.783701	3.205459	0.000000	0.287135	0.000000	0.000002	0.000001	0.000000	0.000000
4.206493	19.935019	15.141648	-1.180057	1.162105	3.336366	0.000000	0.189004	0.000000	0.000002	0.000001	0.000000	0.000000
4.755553	20.899501	14.167116	-0.566148	0.623283	3.412391	0.000000	0.087520	0.000000	0.000003	0.000001	0.000000	0.000000
5.304613	21.163734	13.756570	0.087750	0.128856	3.432188	0.000000	-0.015515	0.000000	0.000003	0.000000	0.000000	0.000000
5.603185	21.148570	13.664817	0.018332	0.142505	3.430233	0.000000	-0.006548	0.000000	0.000003	0.000000	0.000000	0.000000
5.936519	21.141604	13.578110	0.002565	0.117616	3.428050	0.000000	-0.006548	0.000000	0.000003	0.000000	0.000000	0.000000
6.269852	21.145150	13.507995	-0.013201	0.092727	3.425867	0.000000	-0.006548	0.000000	0.000003	0.000000	0.000000	0.000000
6.604435	21.159279	13.454304	-0.029027	0.067745	3.423676	0.000000	-0.006548	0.000000	0.000004	0.000000	0.000000	0.000000
6.901758	21.180721	13.420621	-0.098430	0.080609	3.421729	0.000000	0.002392	0.000000	0.000004	0.000001	0.000000	0.000000
7.450818	20.927794	13.592777	0.556359	-0.396007	3.394841	0.000000	-0.100190	0.000000	0.000004	0.000000	0.000000	0.000000
7.999878	19.973254	14.300640	1.171849	-0.900831	3.312034	0.000000	-0.200995	0.000000	0.000004	0.000000	0.000000	0.000000
8.548938	18.384524	15.594630	1.704566	-1.469818	3.174779	0.000000	-0.298235	0.000000	0.000004	0.000000	0.000000	0.000000
9.097998	16.273826	17.566916	2.116881	-2.143498	2.985508	0.000000	-0.390185	0.000000	0.000004	-0.000000	0.000000	0.000000
9.543958	14.627043	19.324350	1.588918	-1.780636	2.829808	0.000000	-0.308477	0.000000	0.000004	0.000000	0.000000	0.000000
9.984918	13.429195	20.704793	1.137842	-1.337989	2.711028	0.000000	-0.230767	0.000000	0.000004	0.000000	0.000000	0.000000
10.425878	12.604821	21.666417	0.738749	-0.834464	2.625904	0.000000	-0.155685	0.000000	0.000005	0.000000	0.000000	0.000000
10.866838	12.116257	22.165470	0.373408	-0.292972	2.573466	0.000000	-0.082377	0.000000	0.000005	0.000000	0.000000	0.000000
11.309048	11.941047	22.178728	0.054305	0.207404	2.553096	0.000000	-0.016267	0.000000	0.000005	0.000001	0.000000	0.000000
11.606371	11.916180	22.059553	0.029332	0.193421	2.548259	0.000000	-0.016267	0.000000	0.000005	0.000001	0.000000	0.000000
12.086371	11.907373	21.884704	-0.010984	0.170848	2.540451	0.000000	-0.016267	0.000000	0.000005	0.000001	0.000000	0.000000
12.566371	11.937269	21.731525	-0.051300	0.148275	2.532642	0.000000	-0.016267	0.000000	0.000006	0.000001	0.000000	0.000000
13.046371	12.005869	21.600017	-0.091616	0.125701	2.524834	0.000000	-0.016267	0.000000	0.000006	0.000001	0.000000	0.000000
13.526371	12.113172	21.490179	-0.131932	0.103128	2.517025	0.000000	-0.016267	0.000000	0.000006	0.000001	0.000000	0.000000
14.007621	12.259610	21.401810	-0.172353	0.080496	2.509197	0.000000	-0.016267	0.000000	0.000006	0.000001	0.000000	0.000000
14.304943	12.369523	21.358101	-0.166994	0.014140	2.504360	0.000000	-0.022408	0.000000	0.000007	0.000001	0.000000	0.000000
14.745903	12.675420	21.111852	-0.529342	0.542173	2.510111	0.000000	0.048517	0.000000	0.000007	0.000001	0.000000	0.000000
15.186863	13.310294	20.409061	-0.915875	1.045537	2.547228	0.000000	0.119995	0.000000	0.000007	0.000001	0.000000	0.000000
15.627823	14.303153	19.281705	-1.344251	1.501330	2.616136	0.000000	0.192839	0.000000	0.000008	0.000001	0.000000	0.000000
16.068783	15.699357	17.781077	-1.834042	1.888813	2.717619	0.000000	0.267880	0.000000	0.000008	0.000001	0.000000	0.000000
16.514743	17.586350	15.953951	-2.412384	2.191104	2.854526	0.000000	0.346434	0.000000	0.000009	0.000001	0.000000	0.000000
17.063803	20.009810	13.913734	-1.975323	1.546667	3.021008	0.000000	0.259098	0.000000	0.000009	0.000001	0.000000	0.000000
17.612863	21.873403	12.516900	-1.398735	1.012394	3.138201	0.000000	0.167165	0.000000	0.000010	0.000001	0.000000	0.000000
18.161923	23.045492	11.663959	-0.723348	0.550233	3.204030	0.000000	0.072268	0.000000	0.000010	0.000001	0.000000	0.000000
18.710983	23.443288	11.294156	0.003133	0.127263	3.217324	0.000000	-0.023912	0.000000	0.000011	0.000000	0.000000	0.000000
19.009556	23.481806	11.208628	-0.070893	0.129684	3.212694	0.000000	-0.015506	0.000000	0.000011	0.000000	0.000000	0.000000
19.342889	23.533824	11.132251	-0.085160	0.099445	3.207525	0.000000	-0.015506	0.000000	0.000011	0.000000	0.000000	0.000000
19.676223	23.595352	11.076034	-0.099427	0.069206	3.202357	0.000000	-0.015506	0.000000	0.000011	0.000000	0.000000	0.000000
20.010806	23.666970	11.039742	-0.231006	0.093551	3.197188	0.000000	0.000335	0.000000	0.000011	0.000000	0.000000	0.000000
20.308129	23.808271	10.992190	-0.306440	0.095102	3.197288	0.000000	0.008688	0.000000	0.000011	0.000000	0.000000	0.000000
20.857189	23.734150	11.110096	0.440637	-0.311109	3.175837	0.000000	-0.086710	0.000000	0.000011	-0.000000	0.000000	0.000000
21.406249	22.851954	11.683547	1.156590	-0.739480	3.102352	0.000000	-0.180570	0.000000	0.000011	-0.000000	0.000000	0.000000
21.955309	21.223997	12.753391	1.790847	-1.220522	2.978137	0.000000	-0.271227	0.000000	0.000011	-0.000001	0.000000	0.000000
22.504369	18.965270	14.395830	2.298607	-1.788500	2.805396	0.000000	-0.357074	0.000000	0.000010	-0.000001	0.000000	0.000000
22.950329	17.185252	15.870364	1.706914	-1.503977	2.663450	0.000000	-0.279860	0.000000	0.000010	-0.000001	0.000000	0.000000
23.391289	15.909185	17.045964	1.197901	-1.151880	2.556367	0.000000	-0.206287	0.000000	0.000009	-0.000001	0.000000	0.000000
23.832249	15.056289	17.886658	0.743617	-0.747373	2.481177	0.000000	-0.135065	0.000000	0.000009	-0.000000	0.000000	0.000000
24.273209	14.587596	18.354194	0.323307	-0.308862	2.437025	0.000000	-0.065380	0.000000	0.000009	-0.000000	0.000000	0.000000
24.715418	14.481810	18.427055	-0.046808	0.098449	2.423405	0.000000	-0.002383	0.000000	0.000009	0.000000	0.000000	0.000000
25.012741	14.515762	18.373356	-0.067384	0.082157	2.422696	0.000000	-0.002383	0.000000	0.000009	0.000000	0.000000	0.000000
25.346075	14.568374	18.324673	-0.090452	0.063893	2.421902	0.000000	-0.002383	0.000000	0.000009	0.000000	0.000000	0.000000
25.679408	14.636365	18.288166	-0.113520	0.045628	2.421108	0.000000	-0.002383	0.000000	0.000009	0.000000	0.000000	0.000000
26.013991	14.719777	18.264138	-0.017258	-0.120873	2.420286	0.000000	-0.022018	0.000000	0.000009	0.000000	0.000000	0.000000
26.311314	14.736047	18.340925	-0.001329	-0.182363	2.413740	0.000000	-0.027936	0.000000	0.000009	0.000000	0.000000	0.000000
26.752274	14.918785	18.302821	-0.414653	0.268446	2.416532	0.000000	0.040615	0.000000	0.000009	0.000000	0.000000	0.000000
27.193234	15.472986	17.871026	-0.846922	0.707042	2.449626	0.000000	0.109628	0.000000	0.000009	0.000000	0.000000	0.000000
27.634194	16.423971	17.065188	-1.317884	1.113467	2.513398	0.000000	0.179890	0.000000	0.000010	0.000001	0.000000	0.000000
28.075154	17.815188	15.921972	-1.849056	1.469230	2.608575	0.000000	0.252201	0.000000	0.000010	0.000001	0.000000	0.000000
28.521114	19.734369	14.476172	-2.469669	1.759058	2.737843	0.000000	0.327828	0.000000	0.000011	0.000001	0.000000	0.000000
29.070174	22.173659	12.865198	-1.946698	1.192319	2.895173	0.000000	0.244420	0.000000	0.000011	0.000001	0.000000	0.000000
29.619234	23.959297	11.826564	-1.286222	0.710506	3.005449	0.000000	0.156677	0.000000	0.000012	0.000001	0.000000	0.000000
30.168294	24.965153	11.286290	-0.534893	0.279301	3.066713	0.000000	0.066155	0.000000	0.000012	0.000000	0.000000	0.000000
30.717354	25.120178	11.205893	0.254217	-0.132010	3.077879	0.000000	-0.025541	0.000000	0.000012	-0.000000	0.000000	0.000000
31.015927	25.011238	11.275280	0.176281	-0.129660	3.072654	0.000000	-0.017500	0.000000	0.000012	-0.000000	0.000000	0.000000
31.349260	24.898298	11.371740	0.162540	-0.159720	3.066821	0.000000	-0.017500	0.000000	0.000012	-0.000000	0.000000	0.000000
31.682593	24.794518	11.488240	0.148798	-0.189780	3.060987	0.000000	-0.017500	0.000000	0.000012	-0.000000	0.000000	0.000000
32.017177	24.699563	11.625330	0.135005	-0.219953	3.055132	0.000000	-0.017500	0.000000	0.000012	-0.000000	0.000000	0.000000
32.314499	24.622927	11.764096	0.058419	-0.216032	3.049929	0.000000	-0.009532	0.000000	0.000011	-0.000000	0.000000	0.000000
32.863559	24.136935	12.240595	0.821475	-0.656936	3.019811	0.000000	-0.100015	0.000000	0.000011	-0.000001	0.000000	0.000000
33.412619	22.840075	13.223959	1.526506	-1.144632	2.940428	0.000000	-0.188724	0.000000	0.000011	-0.000001	0.000000	0.000000
33.961679	20.823952	14.784232	2.123712	-1.713858	2.813186	0.000000	-0.274085	0.000000	0.000010	-0.000001	0.000000	0.000000
34.510739	18.230973	17.032548	2.570909	-2.405158	2.640343	0.000000	-0.354585	0.000000	0.000010	-0.000002	0.000000	0.000000
34.956699	16.214882	19.043554	1.966075	-2.085398	2.498556	0.000000	-0.281651	0.000000	0.000009	-0.000001	0.000000	0.000000
35.397659	14.711554	20.706524	1.456074	-1.671501	2.389742	0.000000	-0.212352	0.000000	0.000008	-0.000001	0.000000	0.000000
35.838619	13.627083	21.969412	1.012597	-1.181551	2.310925	0.000000	-0.145471	0.000000	0.000008	-0.000001	0.000000	0.000000
36.279579	12.911922	22.774756	0.615383	-0.637842	2.261206	0.000000	-0.080248	0.000000	0.000008	-0.000001	0.000000	0.000000
36.721789	12.532705	23.086219	0.276909	-0.121776	2.239993	0.000000	-0.021431	0.000000	0.000007	-0.000001	0.000000	0.000000
37.019112	12.375637	23.162519	0.251366	-0.134846	2.233621	0.000000	-0.021431	0.000000	0.000007	-0.000001	0.000000	0.000000
37.352445	12.217604	23.257301	0.222730	-0.149499	2.226478	0.000000	-0.021431	0.000000	0.000007	-0.000001	0.000000	0.000000
37.685779	12.078663	23.361851	0.194093	-0.164151	2.219334	0.000000	-0.021431	0.000000	0.000007	-0.000001	0.000000	0.000000
38.020362	11.958400	23.476616	0.165350	-0.178859	2.212164	0.000000	-0.021431	0.000000	0.000007	-0.000001	0.000000	0.000000
38.317684	11.867670	23.586860	0.168908	-0.249767	2.205792	0.000000	-0.026840	0.000000	0.000007	-0.000001	0.000000	0.000000
38.758644	11.870040	23.545890	-0.174304	0.342325	2.207885	0.000000	0.036341	0.000000	0.000006	-0.000000	0.000000	0.000000
39.199604	12.177451	22.987641	-0.525480	0.918842	2.237904	0.000000	0.099937	0.000000	0.000006	-0.000000	0.000000	0.000000
39.640564	12.803946	21.937515	-0.900663	1.453552	2.296189	0.000000	0.164670	0.000000	0.000006	-0.000000	0.000000	0.000000
40.081524	13.778149	20.443289	-1.316995	1.922126	2.383404	0.000000	0.231279	0.000000	0.000006	0.000000	0.000000	0.000000
40.527484	15.162139	18.550383	-1.797323	2.304527	2.502016	0.000000	0.300927	0.000000	0.000006	0.000000	0.000000	0.000000
41.076544	16.928377	16.423277	-1.400474	1.592428	2.646712	0.000000	0.225365	0.000000	0.000006	0.000000	0.000000	0.000000
41.625604	18.201595	15.011640	-0.904704	0.993753	2.748759	0.000000	0.145805	0.000000	0.000006	-0.000000	0.000000	0.000000
42.174664	18.891859	14.214927	-0.345029	0.465862	2.806348	0.000000	0.063660	0.000000	0.000006	-0.000000	0.000000	0.000000
42.723724	18.950413	13.976387	0.239017	-0.028847	2.818458	0.000000	-0.019615	0.000000	0.000006	-0.000001	0.000000	0.000000
43.022297	18.842124	13.978186	0.173184	-0.013695	2.814800	0.000000	-0.012252	0.000000	0.000006	-0.000001	0.000000	0.000000
43.502297	18.688462	14.007819	0.146945	-0.048040	2.808920	0.000000	-0.012252	0.000000	0.000006	-0.000001	0.000000	0.000000
43.982297	18.559989	14.070424	0.120706	-0.082386	2.803039	0.000000	-0.012252	0.000000	0.000005	-0.000001	0.000000	0.000000
44.462297	18.456706	14.166000	0.094467	-0.116732	2.797159	0.000000	-0.012252	0.000000	0.000005	-0.000001	0.000000	0.000000
44.942297	18.378612	14.294549	0.068228	-0.151077	2.791278	0.000000	-0.012252	0.000000	0.000005	-0.000001	0.000000	0.000000
45.423547	18.325830	14.456353	-0.048875	-0.113887	2.785399	0.000000	0.001549	0.000000	0.000005	-0.000000	0.000000	0.000000
45.720870	18.359728	14.530270	-0.113107	-0.096757	2.785860	0.000000	0.008828	0.000000	0.000004	-0.000000	0.000000	0.000000
46.269930	18.174788	14.917583	0.447943	-0.612818	2.768135	0.000000	-0.073300	0.000000	0.000004	-0.000001	0.000000	0.000000
46.818990	17.387554	15.892094	0.977353	-1.172529	2.705607	0.000000	-0.154128	0.000000	0.000004	-0.000001	0.000000	0.000000
47.368050	16.053634	17.523214	1.437728	-1.815757	2.599387	0.000000	-0.232221	0.000000	0.000003	-0.000001	0.000000	0.000000
47.917110	14.267247	19.927126	1.796548	-2.588317	2.451358	0.000000	-0.306196	0.000000	0.000003	-0.000001	0.000000	0.000000
48.363070	12.877036	22.064457	1.331841	-2.184187	2.330100	0.000000	-0.237896	0.000000	0.000002	-0.000001	0.000000	0.000000
48.804030	11.882656	23.775781	0.931749	-1.681950	2.239657	0.000000	-0.172703	0.000000	0.000002	-0.000001	0.000000	0.000000
49.244990	11.221090	25.008605	0.574227	-1.103185	2.177501	0.000000	-0.109477	0.000000	0.000002	-0.000001	0.000000	0.000000
49.685950	10.862114	25.706838	0.242940	-0.474227	2.142925	0.000000	-0.047498	0.000000	0.000001	-0.000001	0.000000	0.000000
50.128160	10.789454	25.838427	-0.050906	0.112897	2.135544	0.000000	0.008703	0.000000	0.000001	-0.000001	0.000000	0.000000
50.425482	10.827939	25.774758	-0.078534	0.101243	2.138132	0.000000	0.008703	0.000000	0.000001	-0.000001	0.000000	0.000000
50.758816	10.890620	25.711618	-0.109509	0.088178	2.141033	0.000000	0.008703	0.000000	0.000001	-0.000001	0.000000	0.000000
51.092149	10.973951	25.657187	-0.140483	0.075113	2.143934	0.000000	0.008703	0.000000	0.000000	-0.000001	0.000000	0.000000
51.426732	11.078135	25.611831	-0.081701	-0.145777	2.146825	0.000000	-0.008713	0.000000	0.000000	-0.000001	0.000000	0.000000
51.724055	11.134751	25.702042	-0.081413	-0.220662	2.144234	0.000000	-0.013972	0.000000	-0.000000	-0.000001	0.000000	0.000000
52.165015	11.351920	25.610717	-0.412948	0.426978	2.151662	0.000000	0.047691	0.000000	-0.000000	-0.000001	0.000000	0.000000
52.605975	11.868659	24.954643	-0.763349	1.055191	2.186375	0.000000	0.109898	0.000000	-0.000001	-0.000001	0.000000	0.000000
53.046935	12.708576	23.763671	-1.148625	1.635393	2.248767	0.000000	0.173355	0.000000	-0.000001	-0.000001	0.000000	0.000000
53.487895	13.910046	22.091989	-1.586379	2.141187	2.339550	0.000000	0.238788	0.000000	-0.000001	-0.000001	0.000000	0.000000
53.933855	15.548552	19.990661	-2.100843	2.550894	2.461263	0.000000	0.307338	0.000000	-0.000002	-0.000001	0.000000	0.000000
54.482915	17.658058	17.626174	-1.718446	1.780955	2.609830	0.000000	0.233034	0.000000	-0.000002	-0.000001	0.000000	0.000000
55.031975	19.278103	16.032968	-1.214667	1.137870	2.716404	0.000000	0.154596	0.000000	-0.000003	-0.000001	0.000000	0.000000
55.581035	20.294255	15.097563	-0.625090	0.575834	2.779092	0.000000	0.073416	0.000000	-0.000003	-0.000001	0.000000	0.000000
56.130095	20.634739	14.753332	0.008640	0.054812	2.796785	0.000000	-0.009066	0.000000	-0.000003	-0.000001	0.000000	0.000000
56.428668	20.666104	14.703677	-0.059775	0.072947	2.796260	0.000000	-0.001758	0.000000	-0.000003	-0.000001	0.000000	0.000000
56.762001	20.711350	14.662643	-0.075962	0.050156	2.795674	0.000000	-0.001758	0.000000	-0.000004	-0.000001	0.000000	0.000000
57.095334	20.767387	14.636802	-0.092149	0.027366	2.795088	0.000000	-0.001758	0.000000	-0.000004	-0.000001	0.000000	0.000000
57.429918	20.834487	14.626144	-0.108397	0.004489	2.794500	0.000000	-0.001758	0.000000	-0.000004	-0.000001	0.000000	0.000000
57.727240	20.903238	14.629519	-0.177454	0.022386	2.793978	0.000000	0.005542	0.000000	-0.000004	-0.000001	0.000000	0.000000
58.276300	20.741465	14.885890	0.470345	-0.492071	2.774382	0.000000	-0.076818	0.000000	-0.000004	-0.000000	0.000000	0.000000
58.825360	19.882446	15.723014	1.084921	-1.041578	2.709873	0.000000	-0.157816	0.000000	-0.000005	-0.000000	0.000000	0.000000
59.374420	18.386856	17.200517	1.622864	-1.665274	2.601595	0.000000	-0.236014	0.000000	-0.000005	-0.000000	0.000000	0.000000
59.923480	16.360337	19.423637	2.046176	-2.407583	2.451469	0.000000	-0.310027	0.000000	-0.000005	0.000000	0.000000	0.000000
60.369440	14.774159	21.399597	1.523192	-2.004516	2.328500	0.000000	-0.241746	0.000000	-0.000005	-0.000000	0.000000	0.000000
60.810400	13.633227	22.955994	1.074006	-1.511617	2.236347	0.000000	-0.176617	0.000000	-0.000005	-0.000000	0.000000	0.000000
61.251360	12.865388	24.045589	0.673889	-0.949941	2.172443	0.000000	-0.113499	0.000000	-0.000005	-0.000000	0.000000	0.000000
61.692320	12.435562	24.618807	0.304559	-0.345044	2.136061	0.000000	-0.051673	0.000000	-0.000005	-0.000000	0.000000	0.000000
62.134530	12.324163	24.649029	-0.020733	0.215049	2.126791	0.000000	0.004348	0.000000	-0.000005	-0.000001	0.000000	0.000000
62.431853	12.343668	24.524903	-0.044869	0.202429	2.128084	0.000000	0.004348	0.000000	-0.000005	-0.000001	0.000000	0.000000
62.765186	12.382600	24.394666	-0.071927	0.188281	2.129533	0.000000	0.004348	0.000000	-0.000006	-0.000001	0.000000	0.000000
63.098520	12.439571	24.273862	-0.098986	0.174132	2.130983	0.000000	0.004348	0.000000	-0.000006	-0.000001	0.000000	0.000000
63.433103	12.514896	24.162090	-0.126146	0.159930	2.132438	0.000000	0.004348	0.000000	-0.000006	-0.000001	0.000000	0.000000
63.730426	12.597085	24.070741	-0.119388	0.088278	2.133731	0.000000	-0.000885	0.000000	-0.000006	-0.000001	0.000000	0.000000
64.171386	12.862772	23.727788	-0.485418	0.686503	2.146880	0.000000	0.060581	0.000000	-0.000006	-0.000001	0.000000	0.000000
64.612346	13.459791	22.869060	-0.873625	1.253493	2.187260	0.000000	0.122737	0.000000	-0.000007	-0.000001	0.000000	0.000000
65.053306	14.415416	21.533627	-1.301745	1.763449	2.255330	0.000000	0.186291	0.000000	-0.000007	-0.000001	0.000000	0.000000
65.494266	15.773309	19.782252	-1.789339	2.193170	2.351866	0.000000	0.251966	0.000000	-0.000008	-0.000001	0.000000	0.000000
65.940226	17.618671	17.669832	-2.363374	2.523859	2.479538	0.000000	0.320913	0.000000	-0.000008	-0.000001	0.000000	0.000000
66.489286	19.984183	15.306659	-1.919418	1.805582	2.635375	0.000000	0.245899	0.000000	-0.000009	-0.000001	0.000000	0.000000
67.038346	21.784391	13.657412	-1.339883	1.215913	2.748765	0.000000	0.166523	0.000000	-0.000009	-0.000001	0.000000	0.000000
67.587406	22.892136	12.604619	-0.665706	0.712851	2.817696	0.000000	0.084194	0.000000	-0.000010	-0.000001	0.000000	0.000000
68.136466	23.229174	12.073293	0.055494	0.260563	2.840946	0.000000	0.000371	0.000000	-0.000010	-0.000000	0.000000	0.000000
68.435038	23.236120	11.906874	-0.018059	0.265271	2.843274	0.000000	0.007794	0.000000	-0.000010	-0.000000	0.000000	0.000000
68.768372	23.252942	11.740015	-0.032409	0.235306	2.845872	0.000000	0.007794	0.000000	-0.000010	-0.000000	0.000000	0.000000
69.101705	23.279331	11.593133	-0.046759	0.205341	2.848470	0.000000	0.007794	0.000000	-0.000010	-0.000000	0.000000	0.000000
69.436288	23.315440	11.465789	-0.061163	0.175263	2.851078	0.000000	0.007794	0.000000	-0.000010	-0.000000	0.000000	0.000000
69.733611	23.355616	11.369517	-0.134992	0.178245	2.853395	0.000000	0.015250	0.000000	-0.000010	-0.000000	0.000000	0.000000
70.282671	23.102737	11.401442	0.592833	-0.236733	2.838587	0.000000	-0.069113	0.000000	-0.000011	0.000000	0.000000	0.000000
