#ParticleID	Turn	x[m]	xp	y[m]	yp	z[m]	dE[GeV]# s	beta_x	beta_y	alpha_x	alpha_y	D_x	D_y	D_px	D_py	orbit_x	orbit_px	orbit_y	orbit_py
0.300000	11.821154	24.988279	-0.011932	-0.027539	2.618116	0.000000	0.000010	0.000000	-0.000000	0.000001	0.000000	0.000000
0.601250	11.836021	25.008506	-0.037420	-0.039604	2.618119	0.000000	0.000010	0.000000	-0.000000	0.000001	0.000000	0.000000
0.898573	11.865752	25.035597	-0.033477	-0.112906	2.618122	0.000000	-0.006410	0.000000	0.000000	0.000001	0.000000	0.000000
1.339533	12.047496	24.857475	-0.380242	0.515310	2.631589	0.000000	0.067547	0.000000	0.000000	0.000001	0.000000	0.000000
1.780493	12.541535	24.133579	-0.744380	1.120079	2.677806	0.000000	0.142274	0.000000	0.000001	0.000001	0.000000	0.000000
2.221453	13.370441	22.896846	-1.142526	1.673886	2.757300	0.000000	0.218621	0.000000	0.000001	0.000001	0.000000	0.000000
2.662413	14.572082	21.203546	-1.592871	2.151532	2.870977	0.000000	0.297459	0.000000	0.000001	0.000001	0.000000	0.000000
3.108373	16.222131	19.105889	-2.120283	2.532417	3.021992	0.000000	0.380173	0.000000	0.000002	0.000001	0.000000	0.000000
3.657433	18.338022	16.749958	-1.710565	1.783754	3.205458	0.000000	0.287135	0.000000	0.000002	0.000001	0.000000	0.000000
4.206493	19.934579	15.141974	-1.180022	1.162145	3.336365	0.000000	0.189004	0.000000	0.000003	0.000001	0.000000	0.000000
4.755553	20.899029	14.167404	-0.566127	0.623312	3.412391	0.000000	0.087521	0.000000	0.000003	0.000001	0.000000	0.000000
5.304613	21.163248	13.756831	0.087756	0.128876	3.432188	0.000000	-0.015515	0.000000	0.000003	0.000000	0.000000	0.000000
5.603185	21.148081	13.665066	0.018339	0.142526	3.430233	0.000000	-0.006548	0.000000	0.000003	0.000001	0.000000	0.000000
5.936519	21.141111	13.578345	0.002571	0.117638	3.428050	0.000000	-0.006548	0.000000	0.000004	0.000001	0.000000	0.000000
6.269852	21.144652	13.508216	-0.013196	0.092749	3.425867	0.000000	-0.006548	0.000000	0.000004	0.000001	0.000000	0.000000
6.604435	21.158778	13.454510	-0.029022	0.067767	3.423676	0.000000	-0.006548	0.000000	0.000004	0.000001	0.000000	0.000000
6.901758	21.180217	13.420813	-0.098424	0.080632	3.421729	0.000000	0.002392	0.000000	0.000004	0.000001	0.000000	0.000000
7.450818	20.927292	13.592947	0.556348	-0.395990	3.394841	0.000000	-0.100190	0.000000	0.000004	0.000000	0.000000	0.000000
7.999878	19.972773	14.300794	1.171822	-0.900817	3.312035	0.000000	-0.200995	0.000000	0.000005	0.000000	0.000000	0.000000
8.548938	18.384081	15.594770	1.704525	-1.469807	3.174779	0.000000	-0.298235	0.000000	0.000005	0.000000	0.000000	0.000000
9.097998	16.273434	17.567045	2.116829	-2.143488	2.985509	0.000000	-0.390184	0.000000	0.000005	-0.000000	0.000000	0.000000
9.543958	14.626692	19.324469	1.588878	-1.780622	2.829809	0.000000	-0.308477	0.000000	0.000005	0.000000	0.000000	0.000000
9.984918	13.428876	20.704896	1.137810	-1.337970	2.711030	0.000000	-0.230767	0.000000	0.000005	0.000000	0.000000	0.000000
10.425878	12.604526	21.666503	0.738726	-0.834442	2.625906	0.000000	-0.155685	0.000000	0.000005	0.000000	0.000000	0.000000
10.866838	12.115980	22.165535	0.373392	-0.292947	2.573468	0.000000	-0.082376	0.000000	0.000005	0.000000	0.000000	0.000000
11.309048	11.940781	22.178770	0.054294	0.207430	2.553098	0.000000	-0.016267	0.000000	0.000005	0.000001	0.000000	0.000000
11.606371	11.915920	22.059580	0.029321	0.193447	2.548261	0.000000	-0.016267	0.000000	0.000005	0.000001	0.000000	0.000000
12.086371	11.907124	21.884706	-0.010996	0.170874	2.540453	0.000000	-0.016267	0.000000	0.000006	0.000001	0.000000	0.000000
12.566371	11.937033	21.731502	-0.051313	0.148300	2.532645	0.000000	-0.016267	0.000000	0.000006	0.000001	0.000000	0.000000
13.046371	12.005645	21.599969	-0.091630	0.125727	2.524837	0.000000	-0.016267	0.000000	0.000006	0.000001	0.000000	0.000000
13.526371	12.112962	21.490106	-0.131947	0.103153	2.517028	0.000000	-0.016267	0.000000	0.000006	0.000001	0.000000	0.000000
14.007621	12.259414	21.401713	-0.172369	0.080521	2.509200	0.000000	-0.016267	0.000000	0.000007	0.000001	0.000000	0.000000
14.304943	12.369337	21.357989	-0.167010	0.014166	2.504363	0.000000	-0.022408	0.000000	0.000007	0.000001	0.000000	0.000000
14.745903	12.675246	21.111719	-0.529355	0.542195	2.510114	0.000000	0.048518	0.000000	0.000007	0.000001	0.000000	0.000000
15.186863	13.310130	20.408910	-0.915884	1.045554	2.547232	0.000000	0.119996	0.000000	0.000007	0.000001	0.000000	0.000000
15.627823	14.302996	19.281541	-1.344258	1.501342	2.616140	0.000000	0.192840	0.000000	0.000008	0.000001	0.000000	0.000000
16.068783	15.699205	17.780905	-1.834047	1.888819	2.717623	0.000000	0.267881	0.000000	0.000008	0.000001	0.000000	0.000000
16.514743	17.586201	15.953777	-2.412386	2.191104	2.854531	0.000000	0.346435	0.000000	0.000009	0.000002	0.000000	0.000000
17.063803	20.009668	13.913557	-1.975332	1.546670	3.021013	0.000000	0.259099	0.000000	0.000010	0.000001	0.000000	0.000000
17.612863	21.873274	12.516719	-1.398750	1.012402	3.138207	0.000000	0.167166	0.000000	0.000010	0.000001	0.000000	0.000000
18.161923	23.045383	11.663767	-0.723368	0.550244	3.204036	0.000000	0.072268	0.000000	0.000011	0.000001	0.000000	0.000000
18.710983	23.443203	11.293949	0.003110	0.127280	3.217330	0.000000	-0.023911	0.000000	0.000011	0.000000	0.000000	0.000000
19.009556	23.481735	11.208412	-0.070917	0.129700	3.212701	0.000000	-0.015506	0.000000	0.000011	0.000000	0.000000	0.000000
19.342889	23.533769	11.132025	-0.085184	0.099460	3.207532	0.000000	-0.015506	0.000000	0.000011	0.000000	0.000000	0.000000
19.676223	23.595313	11.075799	-0.099450	0.069220	3.202363	0.000000	-0.015506	0.000000	0.000011	0.000000	0.000000	0.000000
20.010806	23.666947	11.039498	-0.231030	0.093563	3.197195	0.000000	0.000335	0.000000	0.000011	0.000000	0.000000	0.000000
20.308129	23.808262	10.991939	-0.306464	0.095112	3.197294	0.000000	0.008688	0.000000	0.000011	0.000000	0.000000	0.000000
20.857189	23.734167	11.109829	0.440614	-0.311092	3.175843	0.000000	-0.086710	0.000000	0.000011	-0.000000	0.000000	0.000000
21.406249	22.851996	11.683257	1.156568	-0.739454	3.102359	0.000000	-0.180570	0.000000	0.000011	-0.000000	0.000000	0.000000
21.955309	21.224061	12.753067	1.790829	-1.220486	2.978144	0.000000	-0.271228	0.000000	0.000011	-0.000001	0.000000	0.000000
22.504369	18.965352	14.395459	2.298594	-1.788450	2.805402	0.000000	-0.357074	0.000000	0.000010	-0.000001	0.000000	0.000000
22.950329	17.185345	15.869951	1.706900	-1.503935	2.663456	0.000000	-0.279860	0.000000	0.000010	-0.000001	0.000000	0.000000
23.391289	15.909291	17.045520	1.197886	-1.151849	2.556373	0.000000	-0.206288	0.000000	0.000010	-0.000001	0.000000	0.000000
23.832249	15.056409	17.886192	0.743601	-0.747354	2.481183	0.000000	-0.135065	0.000000	0.000009	-0.000000	0.000000	0.000000
24.273209	14.587732	18.353717	0.323288	-0.308856	2.437031	0.000000	-0.065380	0.000000	0.000009	-0.000000	0.000000	0.000000
24.715418	14.481964	18.426578	-0.046830	0.098443	2.423411	0.000000	-0.002383	0.000000	0.000009	0.000000	0.000000	0.000000
25.012741	14.515929	18.372883	-0.067406	0.082151	2.422703	0.000000	-0.002383	0.000000	0.000009	0.000000	0.000000	0.000000
25.346075	14.568556	18.324204	-0.090474	0.063886	2.421908	0.000000	-0.002383	0.000000	0.000009	0.000000	0.000000	0.000000
25.679408	14.636560	18.287702	-0.113541	0.045621	2.421114	0.000000	-0.002383	0.000000	0.000009	0.000000	0.000000	0.000000
26.013991	14.719987	18.263678	-0.017277	-0.120876	2.420292	0.000000	-0.022018	0.000000	0.000009	0.000000	0.000000	0.000000
26.311314	14.736268	18.340468	-0.001347	-0.182366	2.413746	0.000000	-0.027936	0.000000	0.000009	-0.000000	0.000000	0.000000
26.752274	14.919025	18.302371	-0.414677	0.268431	2.416539	0.000000	0.040615	0.000000	0.000010	0.000000	0.000000	0.000000
27.193234	15.473251	17.870596	-0.846953	0.707015	2.449633	0.000000	0.109629	0.000000	0.000010	0.000000	0.000000	0.000000
27.634194	16.424267	17.064786	-1.317923	1.113430	2.513405	0.000000	0.179891	0.000000	0.000010	0.000001	0.000000	0.000000
28.075154	17.815523	15.921606	-1.849106	1.469184	2.608582	0.000000	0.252202	0.000000	0.000010	0.000001	0.000000	0.000000
28.521114	19.734753	14.475851	-2.469731	1.759005	2.737851	0.000000	0.327829	0.000000	0.000011	0.000001	0.000000	0.000000
29.070174	22.174107	12.864928	-1.946750	1.192278	2.895181	0.000000	0.244421	0.000000	0.000011	0.000001	0.000000	0.000000
29.619234	23.959795	11.826333	-1.286260	0.710475	3.005457	0.000000	0.156677	0.000000	0.000012	0.000001	0.000000	0.000000
30.168294	24.965684	11.286088	-0.534916	0.279277	3.066721	0.000000	0.066155	0.000000	0.000012	0.000000	0.000000	0.000000
30.717354	25.120725	11.205715	0.254213	-0.132029	3.077887	0.000000	-0.025541	0.000000	0.000012	-0.000000	0.000000	0.000000
31.015927	25.011788	11.275113	0.176276	-0.129679	3.072663	0.000000	-0.017500	0.000000	0.000012	-0.000000	0.000000	0.000000
31.349260	24.898851	11.371586	0.162534	-0.159740	3.066829	0.000000	-0.017500	0.000000	0.000012	-0.000000	0.000000	0.000000
31.682593	24.795075	11.488100	0.148793	-0.189801	3.060996	0.000000	-0.017500	0.000000	0.000012	-0.000000	0.000000	0.000000
32.017177	24.700122	11.625204	0.135001	-0.219975	3.055141	0.000000	-0.017500	0.000000	0.000012	-0.000000	0.000000	0.000000
32.314499	24.623489	11.763983	0.058414	-0.216054	3.049938	0.000000	-0.009532	0.000000	0.000012	-0.000000	0.000000	0.000000
32.863559	24.137493	12.240505	0.821488	-0.656956	3.019820	0.000000	-0.100015	0.000000	0.000011	-0.000001	0.000000	0.000000
33.412619	22.840609	13.223891	1.526537	-1.144652	2.940436	0.000000	-0.188724	0.000000	0.000011	-0.000001	0.000000	0.000000
33.961679	20.824443	14.784186	2.123758	-1.713879	2.813194	0.000000	-0.274086	0.000000	0.000010	-0.000001	0.000000	0.000000
34.510739	18.231406	17.032526	2.570968	-2.405181	2.640350	0.000000	-0.354586	0.000000	0.000010	-0.000002	0.000000	0.000000
34.956699	16.215269	19.043554	1.966121	-2.085424	2.498563	0.000000	-0.281651	0.000000	0.000009	-0.000001	0.000000	0.000000
35.397659	14.711905	20.706548	1.456109	-1.671529	2.389749	0.000000	-0.212352	0.000000	0.000009	-0.000001	0.000000	0.000000
35.838619	13.627407	21.969461	1.012623	-1.181580	2.310931	0.000000	-0.145472	0.000000	0.000008	-0.000001	0.000000	0.000000
36.279579	12.912227	22.774830	0.615400	-0.637870	2.261212	0.000000	-0.080248	0.000000	0.000008	-0.000001	0.000000	0.000000
36.721789	12.532998	23.086317	0.276921	-0.121802	2.239999	0.000000	-0.021431	0.000000	0.000007	-0.000001	0.000000	0.000000
37.019112	12.375922	23.162633	0.251378	-0.134872	2.233627	0.000000	-0.021431	0.000000	0.000007	-0.000001	0.000000	0.000000
37.352445	12.217882	23.257432	0.222742	-0.149525	2.226483	0.000000	-0.021431	0.000000	0.000007	-0.000001	0.000000	0.000000
37.685779	12.078932	23.361999	0.194106	-0.164178	2.219340	0.000000	-0.021431	0.000000	0.000007	-0.000001	0.000000	0.000000
38.020362	11.958660	23.476782	0.165363	-0.178885	2.212170	0.000000	-0.021431	0.000000	0.000007	-0.000001	0.000000	0.000000
38.317684	11.867922	23.587042	0.168922	-0.249794	2.205798	0.000000	-0.026840	0.000000	0.000007	-0.000001	0.000000	0.000000
38.758644	11.870282	23.546093	-0.174295	0.342303	2.207891	0.000000	0.036341	0.000000	0.000006	-0.000000	0.000000	0.000000
39.199604	12.177687	22.987861	-0.525476	0.918826	2.237909	0.000000	0.099937	0.000000	0.000006	-0.000000	0.000000	0.000000
39.640564	12.804182	21.937745	-0.900665	1.453543	2.296194	0.000000	0.164670	0.000000	0.000006	-0.000000	0.000000	0.000000
40.081524	13.778388	20.443524	-1.317002	1.922125	2.383410	0.000000	0.231279	0.000000	0.000006	0.000000	0.000000	0.000000
40.527484	15.162386	18.550616	-1.797335	2.304533	2.502022	0.000000	0.300927	0.000000	0.000006	0.000000	0.000000	0.000000
41.076544	16.928632	16.423506	-1.400477	1.592428	2.646718	0.000000	0.225365	0.000000	0.000006	0.000000	0.000000	0.000000
41.625604	18.201847	15.011873	-0.904697	0.993748	2.748765	0.000000	0.145805	0.000000	0.000006	-0.000000	0.000000	0.000000
42.174664	18.892099	14.215168	-0.345013	0.465850	2.806354	0.000000	0.063659	0.000000	0.000006	-0.000000	0.000000	0.000000
42.723724	18.950631	13.976645	0.239040	-0.028866	2.818464	0.000000	-0.019616	0.000000	0.000006	-0.000001	0.000000	0.000000
43.022297	18.842328	13.978455	0.173207	-0.013713	2.814806	0.000000	-0.012252	0.000000	0.000006	-0.000001	0.000000	0.000000
43.502297	18.688644	14.008105	0.146968	-0.048058	2.808925	0.000000	-0.012252	0.000000	0.000006	-0.000001	0.000000	0.000000
43.982297	18.560149	14.070726	0.120729	-0.082403	2.803045	0.000000	-0.012252	0.000000	0.000005	-0.000001	0.000000	0.000000
44.462297	18.456844	14.166318	0.094491	-0.116748	2.797164	0.000000	-0.012252	0.000000	0.000005	-0.000001	0.000000	0.000000
44.942297	18.378727	14.294881	0.068252	-0.151093	2.791283	0.000000	-0.012252	0.000000	0.000005	-0.000001	0.000000	0.000000
45.423547	18.325922	14.456700	-0.048852	-0.113900	2.785404	0.000000	0.001549	0.000000	0.000005	-0.000001	0.000000	0.000000
45.720870	18.359807	14.530624	-0.113084	-0.096769	2.785865	0.000000	0.008827	0.000000	0.000004	-0.000000	0.000000	0.000000
46.269930	18.174841	14.917956	0.447968	-0.612841	2.768139	0.000000	-0.073300	0.000000	0.000004	-0.000001	0.000000	0.000000
46.818990	17.387579	15.892499	0.977378	-1.172565	2.705612	0.000000	-0.154128	0.000000	0.000004	-0.000001	0.000000	0.000000
47.368050	16.053632	17.523666	1.437751	-1.815807	2.599391	0.000000	-0.232222	0.000000	0.000003	-0.000001	0.000000	0.000000
47.917110	14.267221	19.927642	1.796569	-2.588386	2.451362	0.000000	-0.306197	0.000000	0.000003	-0.000001	0.000000	0.000000
48.363070	12.876992	22.065031	1.331860	-2.184245	2.330103	0.000000	-0.237897	0.000000	0.000002	-0.000001	0.000000	0.000000
48.804030	11.882596	23.776399	0.931768	-1.681994	2.239660	0.000000	-0.172704	0.000000	0.000002	-0.000001	0.000000	0.000000
49.244990	11.221013	25.009256	0.574246	-1.103213	2.177504	0.000000	-0.109478	0.000000	0.000002	-0.000001	0.000000	0.000000
49.685950	10.862020	25.707505	0.242960	-0.474237	2.142927	0.000000	-0.047499	0.000000	0.000001	-0.000001	0.000000	0.000000
50.128160	10.789341	25.839096	-0.050884	0.112902	2.135546	0.000000	0.008703	0.000000	0.000001	-0.000001	0.000000	0.000000
50.425482	10.827814	25.775424	-0.078512	0.101249	2.138134	0.000000	0.008703	0.000000	0.000001	-0.000001	0.000000	0.000000
50.758816	10.890480	25.712280	-0.109487	0.088184	2.141035	0.000000	0.008703	0.000000	0.000000	-0.000001	0.000000	0.000000
51.092149	10.973796	25.657845	-0.140462	0.075119	2.143936	0.000000	0.008703	0.000000	0.000000	-0.000001	0.000000	0.000000
51.426732	11.077967	25.612485	-0.081681	-0.145775	2.146826	0.000000	-0.008714	0.000000	-0.000000	-0.000001	0.000000	0.000000
51.724055	11.134571	25.702694	-0.081394	-0.220662	2.144236	0.000000	-0.013972	0.000000	-0.000000	-0.000001	0.000000	0.000000
52.165015	11.351721	25.611362	-0.412924	0.426995	2.151663	0.000000	0.047691	0.000000	-0.000001	-0.000001	0.000000	0.000000
52.605975	11.868437	24.955265	-0.763320	1.055225	2.186376	0.000000	0.109897	0.000000	-0.000001	-0.000001	0.000000	0.000000
53.046935	12.708326	23.764257	-1.148589	1.635442	2.248768	0.000000	0.173355	0.000000	-0.000001	-0.000001	0.000000	0.000000
53.487895	13.909760	22.092526	-1.586334	2.141248	2.339551	0.000000	0.238787	0.000000	-0.000002	-0.000001	0.000000	0.000000
53.933855	15.548222	19.991140	-2.100787	2.550965	2.461263	0.000000	0.307338	0.000000	-0.000002	-0.000001	0.000000	0.000000
54.482915	17.657671	17.626584	-1.718399	1.781008	2.609831	0.000000	0.233033	0.000000	-0.000003	-0.000001	0.000000	0.000000
55.031975	19.277671	16.033328	-1.214632	1.137909	2.716404	0.000000	0.154596	0.000000	-0.000003	-0.000001	0.000000	0.000000
55.581035	20.293792	15.097887	-0.625069	0.575861	2.779092	0.000000	0.073416	0.000000	-0.000003	-0.000001	0.000000	0.000000
56.130095	20.634260	14.753633	0.008646	0.054829	2.796785	0.000000	-0.009066	0.000000	-0.000004	-0.000001	0.000000	0.000000
56.428668	20.665622	14.703967	-0.059769	0.072966	2.796260	0.000000	-0.001759	0.000000	-0.000004	-0.000001	0.000000	0.000000
56.762001	20.710864	14.662920	-0.075957	0.050175	2.795674	0.000000	-0.001759	0.000000	-0.000004	-0.000001	0.000000	0.000000
57.095334	20.766897	14.637066	-0.092144	0.027385	2.795088	0.000000	-0.001759	0.000000	-0.000004	-0.000001	0.000000	0.000000
57.429918	20.833993	14.626395	-0.108392	0.004509	2.794499	0.000000	-0.001759	0.000000	-0.000004	-0.000001	0.000000	0.000000
57.727240	20.902741	14.629758	-0.177448	0.022407	2.793977	0.000000	0.005542	0.000000	-0.000004	-0.000001	0.000000	0.000000
58.276300	20.740971	14.886111	0.470334	-0.492057	2.774381	0.000000	-0.076818	0.000000	-0.000005	-0.000000	0.000000	0.000000
58.825360	19.881972	15.723222	1.084895	-1.041569	2.709872	0.000000	-0.157816	0.000000	-0.000005	-0.000000	0.000000	0.000000
59.374420	18.386420	17.200718	1.622823	-1.665270	2.601594	0.000000	-0.236015	0.000000	-0.000005	-0.000000	0.000000	0.000000
59.923480	16.359952	19.423836	2.046124	-2.407584	2.451468	0.000000	-0.310027	0.000000	-0.000005	0.000000	0.000000	0.000000
60.369440	14.773815	21.399794	1.523152	-2.004510	2.328498	0.000000	-0.241747	0.000000	-0.000005	-0.000000	0.000000	0.000000
60.810400	13.632914	22.956182	1.073975	-1.511605	2.236345	0.000000	-0.176617	0.000000	-0.000005	-0.000000	0.000000	0.000000
61.251360	12.865099	24.045764	0.673866	-0.949923	2.172441	0.000000	-0.113499	0.000000	-0.000005	-0.000000	0.000000	0.000000
61.692320	12.435290	24.618963	0.304543	-0.345020	2.136059	0.000000	-0.051674	0.000000	-0.000005	-0.000000	0.000000	0.000000
62.134530	12.323903	24.649163	-0.020744	0.215076	2.126789	0.000000	0.004348	0.000000	-0.000005	-0.000001	0.000000	0.000000
62.431853	12.343414	24.525021	-0.044880	0.202456	2.128081	0.000000	0.004348	0.000000	-0.000006	-0.000001	0.000000	0.000000
62.765186	12.382354	24.394767	-0.071939	0.188307	2.129531	0.000000	0.004348	0.000000	-0.000006	-0.000001	0.000000	0.000000
63.098520	12.439333	24.273945	-0.098998	0.174158	2.130980	0.000000	0.004348	0.000000	-0.000006	-0.000001	0.000000	0.000000
63.433103	12.514667	24.162156	-0.126159	0.159957	2.132435	0.000000	0.004348	0.000000	-0.000006	-0.000001	0.000000	0.000000
63.730426	12.596863	24.070790	-0.119402	0.088304	2.133728	0.000000	-0.000885	0.000000	-0.000006	-0.000001	0.000000	0.000000
64.171386	12.862561	23.727814	-0.485427	0.686530	2.146877	0.000000	0.060580	0.000000	-0.000007	-0.000001	0.000000	0.000000
64.612346	13.459585	22.869063	-0.873630	1.253519	2.187257	0.000000	0.122736	0.000000	-0.000007	-0.000001	0.000000	0.000000
65.053306	14.415213	21.533608	-1.301746	1.763474	2.255326	0.000000	0.186290	0.000000	-0.000007	-0.000001	0.000000	0.000000
65.494266	15.773105	19.782213	-1.789335	2.193192	2.351861	0.000000	0.251965	0.000000	-0.000008	-0.000001	0.000000	0.000000
65.940226	17.618462	17.669776	-2.363367	2.523877	2.479534	0.000000	0.320913	0.000000	-0.000009	-0.000001	0.000000	0.000000
66.489286	19.983970	15.306584	-1.919418	1.805599	2.635370	0.000000	0.245898	0.000000	-0.000009	-0.000001	0.000000	0.000000
67.038346	21.784183	13.657319	-1.339892	1.215930	2.748760	0.000000	0.166523	0.000000	-0.000010	-0.000001	0.000000	0.000000
67.587406	22.891942	12.604507	-0.665722	0.712869	2.817691	0.000000	0.084193	0.000000	-0.000010	-0.000001	0.000000	0.000000
68.136466	23.229002	12.073160	0.055471	0.260583	2.840941	0.000000	0.000371	0.000000	-0.000010	-0.000000	0.000000	0.000000
68.435038	23.235961	11.906729	-0.018081	0.265290	2.843268	0.000000	0.007794	0.000000	-0.000011	-0.000000	0.000000	0.000000
68.768372	23.252799	11.739858	-0.032432	0.235325	2.845866	0.000000	0.007794	0.000000	-0.000011	-0.000000	0.000000	0.000000
69.101705	23.279204	11.592963	-0.046782	0.205359	2.848464	0.000000	0.007794	0.000000	-0.000011	-0.000000	0.000000	0.000000
69.436288	23.315328	11.465607	-0.061186	0.175281	2.851072	0.000000	0.007794	0.000000	-0.000011	-0.000000	0.000000	0.000000
69.733611	23.355518	11.369324	-0.135015	0.178261	2.853389	0.000000	0.015250	0.000000	-0.000011	-0.000000	0.000000	0.000000
70.282671	23.102666	11.401228	0.592807	-0.236710	2.838581	0.000000	-0.069113	0.000000	-0.000011	0.000000	0.000000	0.000000
