#ParticleID	Turn	x[m]	xp	y[m]	yp	z[m]	dE[GeV]# s	beta_x	beta_y	alpha_x	alpha_y	D_x	D_y	D_px	D_py	orbit_x	orbit_px	orbit_y	orbit_py
0.300000	11.808459	25.039444	-0.010531	-0.027022	2.618189	0.000000	-0.000019	0.000000	-0.000001	0.000002	0.000000	0.000000
0.601250	11.822490	25.059352	-0.036045	-0.039062	2.618183	0.000000	-0.000019	0.000000	-0.000000	0.000002	0.000000	0.000000
0.898573	11.851411	25.086112	-0.032164	-0.112462	2.618177	0.000000	-0.006439	0.000000	0.000000	0.000002	0.000000	0.000000
1.339533	12.031843	24.907011	-0.378568	0.517079	2.631630	0.000000	0.067520	0.000000	0.000001	0.000002	0.000000	0.000000
1.780493	12.524220	24.180998	-0.742269	1.123093	2.677835	0.000000	0.142247	0.000000	0.000002	0.000002	0.000000	0.000000
2.221453	13.351036	22.941107	-1.139881	1.678008	2.757317	0.000000	0.218595	0.000000	0.000002	0.000002	0.000000	0.000000
2.662413	14.550067	21.243750	-1.589571	2.156574	2.870982	0.000000	0.297433	0.000000	0.000003	0.000002	0.000000	0.000000
3.108373	16.196823	19.141267	-2.116172	2.538151	3.021985	0.000000	0.380147	0.000000	0.000004	0.000002	0.000000	0.000000
3.657433	18.308537	16.779838	-1.707112	1.788093	3.205437	0.000000	0.287110	0.000000	0.000005	0.000002	0.000000	0.000000
4.206493	19.901778	15.167710	-1.177471	1.165397	3.336329	0.000000	0.188980	0.000000	0.000006	0.000001	0.000000	0.000000
4.755553	20.864008	14.190056	-0.564658	0.625710	3.412342	0.000000	0.087497	0.000000	0.000006	0.000001	0.000000	0.000000
5.304613	21.127260	13.777238	0.088039	0.130590	3.432126	0.000000	-0.015537	0.000000	0.000007	0.000001	0.000000	0.000000
5.603185	21.111873	13.684412	0.018693	0.144313	3.430164	0.000000	-0.006570	0.000000	0.000007	0.000001	0.000000	0.000000
5.936519	21.104676	13.596493	0.002899	0.119447	3.427974	0.000000	-0.006570	0.000000	0.000008	0.000001	0.000000	0.000000
6.269852	21.108008	13.525150	-0.012896	0.094581	3.425783	0.000000	-0.006570	0.000000	0.000008	0.000001	0.000000	0.000000
6.604435	21.121942	13.470211	-0.028750	0.069622	3.423585	0.000000	-0.006570	0.000000	0.000008	0.000001	0.000000	0.000000
6.901758	21.143227	13.435405	-0.098077	0.082544	3.421631	0.000000	0.002370	0.000000	0.000009	0.000001	0.000000	0.000000
7.450818	20.890603	13.605657	0.555457	-0.394453	3.394731	0.000000	-0.100209	0.000000	0.000009	0.000001	0.000000	0.000000
7.999878	19.937717	14.311972	1.169756	-0.899547	3.311915	0.000000	-0.201010	0.000000	0.000010	0.000001	0.000000	0.000000
8.548938	18.351876	15.604659	1.701429	-1.468713	3.174652	0.000000	-0.298246	0.000000	0.000010	0.000000	0.000000	0.000000
9.097998	16.245097	17.575792	2.112922	-2.142492	2.985377	0.000000	-0.390192	0.000000	0.000010	-0.000000	0.000000	0.000000
9.543958	14.601452	19.332154	1.585814	-1.779245	2.829673	0.000000	-0.308488	0.000000	0.000010	0.000000	0.000000	0.000000
9.984918	13.406021	20.711224	1.135444	-1.336279	2.710888	0.000000	-0.230781	0.000000	0.000010	0.000000	0.000000	0.000000
10.425878	12.583491	21.671227	0.736949	-0.832512	2.625756	0.000000	-0.155703	0.000000	0.000010	0.000001	0.000000	0.000000
10.866838	12.096283	22.168485	0.372123	-0.290868	2.573309	0.000000	-0.082399	0.000000	0.000011	0.000001	0.000000	0.000000
11.309048	11.922004	22.179849	0.053427	0.209565	2.552929	0.000000	-0.016292	0.000000	0.000011	0.000001	0.000000	0.000000
11.606371	11.897670	22.059393	0.028416	0.195571	2.548084	0.000000	-0.016292	0.000000	0.000011	0.000001	0.000000	0.000000
12.086371	11.889771	21.882488	-0.011960	0.172979	2.540263	0.000000	-0.016292	0.000000	0.000012	0.000001	0.000000	0.000000
12.566371	11.920634	21.727272	-0.052337	0.150388	2.532443	0.000000	-0.016292	0.000000	0.000012	0.000001	0.000000	0.000000
13.046371	11.990258	21.593744	-0.092713	0.127796	2.524622	0.000000	-0.016292	0.000000	0.000013	0.000001	0.000000	0.000000
13.526371	12.098643	21.481903	-0.133090	0.105204	2.516801	0.000000	-0.016292	0.000000	0.000014	0.000001	0.000000	0.000000
14.007621	12.246224	21.391545	-0.173572	0.082554	2.508960	0.000000	-0.016292	0.000000	0.000014	0.000001	0.000000	0.000000
14.304943	12.356874	21.346615	-0.168283	0.016219	2.504115	0.000000	-0.022432	0.000000	0.000014	0.000001	0.000000	0.000000
14.745903	12.663795	21.098683	-0.530386	0.543897	2.509854	0.000000	0.048487	0.000000	0.000015	0.000002	0.000000	0.000000
15.186863	13.299499	20.394557	-0.916720	1.046828	2.546956	0.000000	0.119958	0.000000	0.000016	0.000002	0.000000	0.000000
15.627823	14.293031	19.266275	-1.344936	1.502129	2.615846	0.000000	0.192795	0.000000	0.000017	0.000002	0.000000	0.000000
16.068783	15.689781	17.765173	-1.834599	1.889084	2.717306	0.000000	0.267828	0.000000	0.000018	0.000003	0.000000	0.000000
16.514743	17.577223	15.938050	-2.412838	2.190831	2.854188	0.000000	0.346374	0.000000	0.000019	0.000003	0.000000	0.000000
17.063803	20.001437	13.897939	-1.976230	1.546742	3.020638	0.000000	0.259048	0.000000	0.000021	0.000003	0.000000	0.000000
17.612863	21.866246	12.500830	-1.400030	1.012825	3.137808	0.000000	0.167128	0.000000	0.000022	0.000002	0.000000	0.000000
18.161923	23.039931	11.647208	-0.724940	0.551048	3.203619	0.000000	0.072244	0.000000	0.000023	0.000001	0.000000	0.000000
18.710983	23.439587	11.276273	0.001357	0.128522	3.216904	0.000000	-0.023922	0.000000	0.000023	0.000000	0.000000	0.000000
19.009556	23.479158	11.190039	-0.072658	0.130840	3.212270	0.000000	-0.015519	0.000000	0.000023	0.000000	0.000000	0.000000
19.342889	23.532354	11.112912	-0.086930	0.100542	3.207097	0.000000	-0.015519	0.000000	0.000024	0.000000	0.000000	0.000000
19.676223	23.595064	11.055983	-0.101202	0.070244	3.201924	0.000000	-0.015519	0.000000	0.000024	0.000000	0.000000	0.000000
20.010806	23.667871	11.019017	-0.232791	0.094427	3.196751	0.000000	0.000320	0.000000	0.000024	0.000001	0.000000	0.000000
20.308129	23.810237	10.970961	-0.308233	0.095863	3.196846	0.000000	0.008671	0.000000	0.000024	0.000001	0.000000	0.000000
20.857189	23.738040	11.087700	0.438947	-0.309735	3.175390	0.000000	-0.086713	0.000000	0.000024	-0.000000	0.000000	0.000000
21.406249	22.857587	11.659263	1.155123	-0.737394	3.101908	0.000000	-0.180558	0.000000	0.000024	-0.000001	0.000000	0.000000
21.955309	21.231070	12.726360	1.789706	-1.217576	2.977704	0.000000	-0.271201	0.000000	0.000023	-0.000002	0.000000	0.000000
22.504369	18.973378	14.364999	2.297873	-1.784483	2.804982	0.000000	-0.357034	0.000000	0.000022	-0.000002	0.000000	0.000000
22.950329	17.194048	15.836260	1.706094	-1.500685	2.663052	0.000000	-0.279830	0.000000	0.000021	-0.000002	0.000000	0.000000
23.391289	15.918756	17.009332	1.196958	-1.149460	2.555979	0.000000	-0.206268	0.000000	0.000021	-0.000001	0.000000	0.000000
23.832249	15.066761	17.848318	0.742507	-0.745935	2.480796	0.000000	-0.135055	0.000000	0.000020	-0.000001	0.000000	0.000000
24.273209	14.599139	18.315045	0.321980	-0.308471	2.436647	0.000000	-0.065381	0.000000	0.000020	-0.000000	0.000000	0.000000
24.715418	14.494646	18.388032	-0.048386	0.097875	2.423024	0.000000	-0.002391	0.000000	0.000020	0.000000	0.000000	0.000000
25.012741	14.529531	18.334684	-0.068946	0.081551	2.422313	0.000000	-0.002391	0.000000	0.000020	0.000000	0.000000	0.000000
25.346075	14.583179	18.286418	-0.091997	0.063249	2.421516	0.000000	-0.002391	0.000000	0.000020	0.000000	0.000000	0.000000
25.679408	14.652194	18.250352	-0.115048	0.044948	2.420718	0.000000	-0.002391	0.000000	0.000020	0.000000	0.000000	0.000000
26.013991	14.736623	18.226790	-0.018632	-0.121287	2.419894	0.000000	-0.022023	0.000000	0.000020	0.000000	0.000000	0.000000
26.311314	14.753703	18.303834	-0.002641	-0.182717	2.413346	0.000000	-0.027940	0.000000	0.000020	-0.000000	0.000000	0.000000
26.752274	14.937794	18.266484	-0.416419	0.267095	2.416134	0.000000	0.040601	0.000000	0.000020	0.000001	0.000000	0.000000
27.193234	15.493782	17.836301	-0.849222	0.704753	2.449220	0.000000	0.109604	0.000000	0.000021	0.000001	0.000000	0.000000
27.634194	16.447069	17.032858	-1.320823	1.110346	2.512978	0.000000	0.179855	0.000000	0.000021	0.000002	0.000000	0.000000
28.075154	17.841208	15.892709	-1.852769	1.465419	2.608137	0.000000	0.252155	0.000000	0.000022	0.000002	0.000000	0.000000
28.521114	19.764111	14.450555	-2.474333	1.754729	2.737381	0.000000	0.327770	0.000000	0.000023	0.000003	0.000000	0.000000
29.070174	22.208125	12.843768	-1.950585	1.188977	2.894684	0.000000	0.244378	0.000000	0.000024	0.000002	0.000000	0.000000
29.619234	23.997477	11.808372	-1.289058	0.707914	3.004940	0.000000	0.156651	0.000000	0.000025	0.000001	0.000000	0.000000
30.168294	25.005775	11.270619	-0.536477	0.277274	3.066194	0.000000	0.066145	0.000000	0.000026	0.000000	0.000000	0.000000
30.717354	25.161797	11.192206	0.253997	-0.133617	3.077359	0.000000	-0.025534	0.000000	0.000026	-0.000001	0.000000	0.000000
31.015927	25.053042	11.262587	0.175981	-0.131347	3.072136	0.000000	-0.017495	0.000000	0.000025	-0.000000	0.000000	0.000000
31.349260	24.940294	11.360188	0.162264	-0.161454	3.066305	0.000000	-0.017495	0.000000	0.000025	-0.000000	0.000000	0.000000
31.682593	24.836691	11.477859	0.148547	-0.191561	3.060473	0.000000	-0.017495	0.000000	0.000025	-0.000000	0.000000	0.000000
32.017177	24.741895	11.616157	0.134778	-0.221781	3.054620	0.000000	-0.017495	0.000000	0.000025	-0.000000	0.000000	0.000000
32.314499	24.665387	11.756023	0.058110	-0.217926	3.049418	0.000000	-0.009529	0.000000	0.000025	-0.000000	0.000000	0.000000
32.863559	24.178959	12.234523	0.822574	-0.658707	3.019307	0.000000	-0.099995	0.000000	0.000024	-0.000001	0.000000	0.000000
33.412619	22.880151	13.219823	1.528934	-1.146407	2.939938	0.000000	-0.188688	0.000000	0.000024	-0.000002	0.000000	0.000000
33.961679	20.860704	14.782104	2.127299	-1.715762	2.812721	0.000000	-0.274035	0.000000	0.000022	-0.000003	0.000000	0.000000
34.510739	18.263262	17.032644	2.575401	-2.407328	2.639911	0.000000	-0.354520	0.000000	0.000021	-0.000003	0.000000	0.000000
34.956699	16.243614	19.045690	1.969589	-2.087785	2.498151	0.000000	-0.281596	0.000000	0.000019	-0.000003	0.000000	0.000000
35.397659	14.737553	20.710821	1.458778	-1.673993	2.389359	0.000000	-0.212307	0.000000	0.000018	-0.000002	0.000000	0.000000
35.838619	13.651007	21.975912	1.014616	-1.184036	2.310560	0.000000	-0.145437	0.000000	0.000017	-0.000002	0.000000	0.000000
36.279579	12.934333	22.783403	0.616808	-0.640206	2.260855	0.000000	-0.080222	0.000000	0.000016	-0.000002	0.000000	0.000000
36.721789	12.554094	23.096863	0.277856	-0.123934	2.239651	0.000000	-0.021413	0.000000	0.000016	-0.000001	0.000000	0.000000
37.019112	12.396453	23.174446	0.252345	-0.137004	2.233285	0.000000	-0.021413	0.000000	0.000015	-0.000001	0.000000	0.000000
37.352445	12.237757	23.270666	0.223743	-0.151658	2.226148	0.000000	-0.021413	0.000000	0.000015	-0.000001	0.000000	0.000000
37.685779	12.098129	23.376656	0.195141	-0.166311	2.219010	0.000000	-0.021413	0.000000	0.000015	-0.000001	0.000000	0.000000
38.020362	11.977153	23.492867	0.166432	-0.181020	2.211846	0.000000	-0.021413	0.000000	0.000014	-0.000001	0.000000	0.000000
38.317684	11.885770	23.604396	0.170064	-0.251968	2.205480	0.000000	-0.026821	0.000000	0.000014	-0.000001	0.000000	0.000000
38.758644	11.887300	23.565156	-0.173548	0.340619	2.207580	0.000000	0.036352	0.000000	0.000014	-0.000001	0.000000	0.000000
39.199604	12.194207	23.008164	-0.525090	0.917708	2.237601	0.000000	0.099940	0.000000	0.000013	-0.000000	0.000000	0.000000
39.640564	12.820513	21.958764	-0.900621	1.453043	2.295886	0.000000	0.164665	0.000000	0.000013	-0.000000	0.000000	0.000000
40.081524	13.794831	20.464703	-1.317299	1.922264	2.383098	0.000000	0.231266	0.000000	0.000013	0.000000	0.000000	0.000000
40.527484	15.179251	18.571383	-1.797989	2.305310	2.501702	0.000000	0.300906	0.000000	0.000013	0.000001	0.000000	0.000000
41.076544	16.945863	16.443722	-1.400484	1.592660	2.646390	0.000000	0.225354	0.000000	0.000014	0.000000	0.000000	0.000000
41.625604	18.218730	15.032125	-0.904057	0.993450	2.748434	0.000000	0.145805	0.000000	0.000013	-0.000000	0.000000	0.000000
42.174664	18.907942	14.236046	-0.343771	0.465002	2.806027	0.000000	0.063670	0.000000	0.000013	-0.000001	0.000000	0.000000
42.723724	18.964818	13.998782	0.240796	-0.030324	2.818145	0.000000	-0.019594	0.000000	0.000013	-0.000001	0.000000	0.000000
43.022297	18.855487	14.001419	0.174931	-0.015081	2.814494	0.000000	-0.012232	0.000000	0.000012	-0.000001	0.000000	0.000000
43.502297	18.700146	14.032356	0.148695	-0.049371	2.808623	0.000000	-0.012232	0.000000	0.000012	-0.000001	0.000000	0.000000
43.982297	18.569993	14.096212	0.122459	-0.083661	2.802752	0.000000	-0.012232	0.000000	0.000011	-0.000001	0.000000	0.000000
44.462297	18.465025	14.192986	0.096223	-0.117951	2.796882	0.000000	-0.012232	0.000000	0.000011	-0.000001	0.000000	0.000000
44.942297	18.385244	14.322678	0.069988	-0.152241	2.791011	0.000000	-0.012232	0.000000	0.000010	-0.000001	0.000000	0.000000
45.423547	18.330767	14.485576	-0.047137	-0.114850	2.785142	0.000000	0.001567	0.000000	0.000010	-0.000001	0.000000	0.000000
45.720870	18.363630	14.560055	-0.111370	-0.097607	2.785608	0.000000	0.008845	0.000000	0.000009	-0.000001	0.000000	0.000000
46.269930	18.176726	14.948803	0.449761	-0.614597	2.767895	0.000000	-0.073275	0.000000	0.000009	-0.000001	0.000000	0.000000
46.818990	17.387510	15.925832	0.979124	-1.175364	2.705384	0.000000	-0.154095	0.000000	0.000008	-0.000002	0.000000	0.000000
47.368050	16.051728	17.560734	1.439326	-1.819850	2.599185	0.000000	-0.232181	0.000000	0.000007	-0.000002	0.000000	0.000000
47.917110	14.263733	19.969959	1.797862	-2.593959	2.451180	0.000000	-0.306150	0.000000	0.000006	-0.000002	0.000000	0.000000
48.363070	12.872381	22.111916	1.333095	-2.188872	2.329941	0.000000	-0.237855	0.000000	0.000005	-0.000002	0.000000	0.000000
48.804030	11.876898	23.826872	0.933003	-1.685469	2.239517	0.000000	-0.172665	0.000000	0.000004	-0.000002	0.000000	0.000000
49.244990	11.214205	25.062224	0.575538	-1.105378	2.177377	0.000000	-0.109443	0.000000	0.000003	-0.000002	0.000000	0.000000
49.685950	10.854026	25.761767	0.244368	-0.474993	2.142815	0.000000	-0.047467	0.000000	0.000003	-0.000002	0.000000	0.000000
50.128160	10.780027	25.893387	-0.049319	0.113457	2.135448	0.000000	0.008732	0.000000	0.000002	-0.000002	0.000000	0.000000
50.425482	10.817575	25.829378	-0.076967	0.101827	2.138045	0.000000	0.008732	0.000000	0.000001	-0.000002	0.000000	0.000000
50.758816	10.879218	25.765839	-0.107964	0.088788	2.140956	0.000000	0.008732	0.000000	0.000001	-0.000002	0.000000	0.000000
51.092149	10.961526	25.710994	-0.138960	0.075749	2.143868	0.000000	0.008732	0.000000	0.000000	-0.000002	0.000000	0.000000
51.426732	11.064700	25.665204	-0.080309	-0.145548	2.146768	0.000000	-0.008684	0.000000	-0.000000	-0.000002	0.000000	0.000000
51.724055	11.120496	25.755271	-0.080083	-0.220538	2.144187	0.000000	-0.013942	0.000000	-0.000001	-0.000002	0.000000	0.000000
52.165015	11.336339	25.663216	-0.411260	0.428505	2.151628	0.000000	0.047720	0.000000	-0.000001	-0.000002	0.000000	0.000000
52.605975	11.851404	25.005200	-0.761226	1.058051	2.186353	0.000000	0.109925	0.000000	-0.000002	-0.000002	0.000000	0.000000
53.046935	12.689222	23.811164	-1.145970	1.639456	2.248758	0.000000	0.173383	0.000000	-0.000003	-0.000002	0.000000	0.000000
53.487895	13.888071	22.135434	-1.583070	2.146268	2.339554	0.000000	0.238815	0.000000	-0.000004	-0.000002	0.000000	0.000000
53.933855	15.523276	20.029202	-2.096722	2.556764	2.461279	0.000000	0.307366	0.000000	-0.000004	-0.000002	0.000000	0.000000
54.482915	17.628593	17.659112	-1.714982	1.785348	2.609862	0.000000	0.233061	0.000000	-0.000005	-0.000002	0.000000	0.000000
55.031975	19.245309	16.061747	-1.212105	1.141097	2.716450	0.000000	0.154622	0.000000	-0.000006	-0.000002	0.000000	0.000000
55.581035	20.259228	15.123330	-0.623610	0.578125	2.779153	0.000000	0.073440	0.000000	-0.000007	-0.000001	0.000000	0.000000
56.130095	20.598732	14.777021	0.008933	0.056331	2.796858	0.000000	-0.009044	0.000000	-0.000008	-0.000001	0.000000	0.000000
56.428668	20.629875	14.726413	-0.059415	0.074556	2.796340	0.000000	-0.001736	0.000000	-0.000008	-0.000001	0.000000	0.000000
56.762001	20.674890	14.684296	-0.075630	0.051795	2.795762	0.000000	-0.001736	0.000000	-0.000008	-0.000001	0.000000	0.000000
57.095334	20.730715	14.657354	-0.091845	0.029034	2.795183	0.000000	-0.001736	0.000000	-0.000009	-0.000001	0.000000	0.000000
57.429918	20.797620	14.645569	-0.108120	0.006188	2.794603	0.000000	-0.001736	0.000000	-0.000009	-0.000001	0.000000	0.000000
57.727240	20.866214	14.647926	-0.177107	0.024161	2.794087	0.000000	0.005565	0.000000	-0.000010	-0.000001	0.000000	0.000000
58.276300	20.704743	14.902630	0.469451	-0.490789	2.774503	0.000000	-0.076799	0.000000	-0.000010	-0.000001	0.000000	0.000000
58.825360	19.847362	15.738573	1.082850	-1.040697	2.710003	0.000000	-0.157801	0.000000	-0.000010	-0.000000	0.000000	0.000000
59.374420	18.354629	17.215299	1.619762	-1.664732	2.601733	0.000000	-0.236004	0.000000	-0.000011	-0.000000	0.000000	0.000000
59.923480	16.331986	19.437992	2.042262	-2.407342	2.451612	0.000000	-0.310021	0.000000	-0.000011	0.000000	0.000000	0.000000
60.369440	14.748911	21.413509	1.520122	-2.003768	2.328646	0.000000	-0.241737	0.000000	-0.000011	-0.000000	0.000000	0.000000
60.810400	13.610370	22.969037	1.071633	-1.510401	2.236498	0.000000	-0.176603	0.000000	-0.000011	-0.000000	0.000000	0.000000
61.251360	12.844357	24.057372	0.672104	-0.948312	2.172601	0.000000	-0.113481	0.000000	-0.000011	-0.000001	0.000000	0.000000
61.692320	12.415876	24.628997	0.303282	-0.343075	2.136228	0.000000	-0.051651	0.000000	-0.000011	-0.000001	0.000000	0.000000
62.134530	12.305405	24.657361	-0.021606	0.217243	2.126969	0.000000	0.004373	0.000000	-0.000012	-0.000001	0.000000	0.000000
62.431853	12.325440	24.531933	-0.045780	0.204616	2.128269	0.000000	0.004373	0.000000	-0.000012	-0.000001	0.000000	0.000000
62.765186	12.364994	24.400241	-0.072881	0.190459	2.129728	0.000000	0.004373	0.000000	-0.000012	-0.000001	0.000000	0.000000
63.098520	12.422614	24.277987	-0.099982	0.176302	2.131186	0.000000	0.004373	0.000000	-0.000013	-0.000001	0.000000	0.000000
63.433103	12.498620	24.164766	-0.127184	0.162093	2.132650	0.000000	0.004373	0.000000	-0.000013	-0.000001	0.000000	0.000000
63.730426	12.581437	24.072133	-0.120500	0.090426	2.133950	0.000000	-0.000860	0.000000	-0.000014	-0.000001	0.000000	0.000000
64.171386	12.847957	23.727288	-0.486202	0.688631	2.147112	0.000000	0.060611	0.000000	-0.000014	-0.000001	0.000000	0.000000
64.612346	13.445536	22.866727	-0.874117	1.255505	2.187507	0.000000	0.122774	0.000000	-0.000015	-0.000002	0.000000	0.000000
65.053306	14.401476	21.529605	-1.301968	1.765254	2.255595	0.000000	0.186334	0.000000	-0.000016	-0.000002	0.000000	0.000000
65.494266	15.759450	19.776760	-1.789302	2.194686	2.352152	0.000000	0.252017	0.000000	-0.000017	-0.000003	0.000000	0.000000
65.940226	17.604662	17.663146	-2.363076	2.525012	2.479849	0.000000	0.320971	0.000000	-0.000018	-0.000003	0.000000	0.000000
66.489286	19.970162	15.298720	-1.919696	1.806724	2.635716	0.000000	0.245947	0.000000	-0.000020	-0.000003	0.000000	0.000000
67.038346	21.770984	13.648189	-1.340718	1.217125	2.749130	0.000000	0.166559	0.000000	-0.000021	-0.000002	0.000000	0.000000
67.587406	22.879926	12.593989	-0.667039	0.714218	2.818078	0.000000	0.084218	0.000000	-0.000022	-0.000001	0.000000	0.000000
68.136466	23.218659	12.061032	0.053757	0.262184	2.841338	0.000000	0.000382	0.000000	-0.000022	-0.000000	0.000000	0.000000
68.435038	23.226631	11.893678	-0.019780	0.266812	2.843669	0.000000	0.007808	0.000000	-0.000022	-0.000001	0.000000	0.000000
68.768372	23.244604	11.725810	-0.034137	0.236791	2.846272	0.000000	0.007808	0.000000	-0.000023	-0.000001	0.000000	0.000000
69.101705	23.272148	11.577956	-0.048494	0.206770	2.848874	0.000000	0.007808	0.000000	-0.000023	-0.000001	0.000000	0.000000
69.436288	23.309420	11.449675	-0.062905	0.176636	2.851487	0.000000	0.007808	0.000000	-0.000023	-0.000001	0.000000	0.000000
69.733611	23.350634	11.352601	-0.136734	0.179526	2.853808	0.000000	0.015265	0.000000	-0.000023	-0.000001	0.000000	0.000000
70.282671	23.099742	11.382854	0.590977	-0.234952	2.839004	0.000000	-0.069111	0.000000	-0.000023	0.000000	0.000000	0.000000
