#ParticleID	Turn	x[m]	xp	y[m]	yp	z[m]	dE[GeV]# s	beta_x	beta_y	alpha_x	alpha_y	D_x	D_y	D_px	D_py	orbit_x	orbit_px	orbit_y	orbit_py
0.300000	11.804787	25.053592	-0.010207	-0.026838	2.618292	0.000000	-0.000057	0.000000	-0.000002	0.000002	0.000000	0.000000
0.601250	11.818626	25.073387	-0.035729	-0.038871	2.618274	0.000000	-0.000057	0.000000	-0.000001	0.000002	0.000000	0.000000
0.898573	11.847361	25.100032	-0.031865	-0.112299	2.618257	0.000000	-0.006477	0.000000	-0.000001	0.000002	0.000000	0.000000
1.339533	12.027487	24.920625	-0.378170	0.517606	2.631694	0.000000	0.067483	0.000000	-0.000000	0.000002	0.000000	0.000000
1.780493	12.519462	24.193994	-0.741752	1.123961	2.677883	0.000000	0.142212	0.000000	0.000001	0.000002	0.000000	0.000000
2.221453	13.345762	22.953201	-1.139222	1.679176	2.757350	0.000000	0.218561	0.000000	0.000001	0.000002	0.000000	0.000000
2.662413	14.544138	21.254701	-1.588741	2.157991	2.871000	0.000000	0.297399	0.000000	0.000002	0.000002	0.000000	0.000000
3.108373	16.190063	19.150867	-2.115130	2.539752	3.021989	0.000000	0.380114	0.000000	0.000003	0.000002	0.000000	0.000000
3.657433	18.300725	16.787900	-1.706252	1.789310	3.205422	0.000000	0.287077	0.000000	0.000004	0.000002	0.000000	0.000000
4.206493	19.893150	15.174606	-1.176853	1.166317	3.336297	0.000000	0.188948	0.000000	0.000005	0.000002	0.000000	0.000000
4.755553	20.854856	14.196074	-0.564327	0.626398	3.412292	0.000000	0.087467	0.000000	0.000006	0.000001	0.000000	0.000000
5.304613	21.117912	13.782605	0.088061	0.131096	3.432059	0.000000	-0.015565	0.000000	0.000006	0.000001	0.000000	0.000000
5.603185	21.102500	13.689467	0.018733	0.144837	3.430089	0.000000	-0.006598	0.000000	0.000007	0.000001	0.000000	0.000000
5.936519	21.095278	13.601196	0.002931	0.119977	3.427889	0.000000	-0.006598	0.000000	0.000007	0.000001	0.000000	0.000000
6.269852	21.098591	13.529498	-0.012870	0.095117	3.425689	0.000000	-0.006598	0.000000	0.000008	0.000001	0.000000	0.000000
6.604435	21.112510	13.474199	-0.028731	0.070163	3.423481	0.000000	-0.006598	0.000000	0.000008	0.000001	0.000000	0.000000
6.901758	21.133786	13.439070	-0.098040	0.083100	3.421518	0.000000	0.002341	0.000000	0.000008	0.000001	0.000000	0.000000
7.450818	20.881295	13.608765	0.555179	-0.393990	3.394604	0.000000	-0.100234	0.000000	0.000009	0.000001	0.000000	0.000000
7.999878	19.928878	14.314606	1.169183	-0.899142	3.311775	0.000000	-0.201031	0.000000	0.000009	0.000001	0.000000	0.000000
8.548938	18.343811	15.606868	1.700602	-1.468339	3.174501	0.000000	-0.298262	0.000000	0.000010	0.000000	0.000000	0.000000
9.097998	16.238054	17.577595	2.111899	-2.142122	2.985218	0.000000	-0.390203	0.000000	0.000010	0.000000	0.000000	0.000000
9.543958	14.595223	19.333584	1.585006	-1.778782	2.829508	0.000000	-0.308503	0.000000	0.000010	0.000000	0.000000	0.000000
9.984918	13.400425	20.712212	1.134811	-1.335745	2.710716	0.000000	-0.230801	0.000000	0.000010	0.000001	0.000000	0.000000
10.425878	12.578386	21.671723	0.736463	-0.831933	2.625574	0.000000	-0.155728	0.000000	0.000010	0.000001	0.000000	0.000000
10.866838	12.091550	22.168459	0.371762	-0.290268	2.573116	0.000000	-0.082428	0.000000	0.000011	0.000001	0.000000	0.000000
11.309048	11.917542	22.179294	0.053163	0.210158	2.552721	0.000000	-0.016326	0.000000	0.000011	0.000001	0.000000	0.000000
11.606371	11.893367	22.058486	0.028144	0.196161	2.547866	0.000000	-0.016326	0.000000	0.000012	0.000001	0.000000	0.000000
12.086371	11.885736	21.881019	-0.012246	0.173563	2.540029	0.000000	-0.016326	0.000000	0.000013	0.000001	0.000000	0.000000
12.566371	11.916880	21.725245	-0.052637	0.150966	2.532192	0.000000	-0.016326	0.000000	0.000013	0.000001	0.000000	0.000000
13.046371	11.986799	21.591165	-0.093028	0.128368	2.524355	0.000000	-0.016326	0.000000	0.000014	0.000001	0.000000	0.000000
13.526371	12.095494	21.478778	-0.133418	0.105770	2.516518	0.000000	-0.016326	0.000000	0.000014	0.000001	0.000000	0.000000
14.007621	12.243397	21.387878	-0.173914	0.083114	2.508660	0.000000	-0.016326	0.000000	0.000015	0.000001	0.000000	0.000000
14.304943	12.354253	21.342617	-0.168641	0.016786	2.503806	0.000000	-0.022465	0.000000	0.000016	0.000001	0.000000	0.000000
14.745903	12.661467	21.094236	-0.530696	0.544344	2.509528	0.000000	0.048445	0.000000	0.000016	0.000002	0.000000	0.000000
15.186863	13.297429	20.389776	-0.916996	1.047135	2.546610	0.000000	0.119908	0.000000	0.000017	0.000002	0.000000	0.000000
15.627823	14.291195	19.261291	-1.345192	1.502281	2.615475	0.000000	0.192736	0.000000	0.000018	0.000003	0.000000	0.000000
16.068783	15.688165	17.760126	-1.834845	1.889076	2.716908	0.000000	0.267759	0.000000	0.000019	0.000003	0.000000	0.000000
16.514743	17.575827	15.933082	-2.413086	2.190660	2.853756	0.000000	0.346294	0.000000	0.000021	0.000004	0.000000	0.000000
17.063803	20.000364	13.893093	-1.976568	1.546691	3.020166	0.000000	0.258983	0.000000	0.000023	0.000003	0.000000	0.000000
17.612863	21.865584	12.495977	-1.400434	1.012889	3.137305	0.000000	0.167079	0.000000	0.000024	0.000002	0.000000	0.000000
18.161923	23.039735	11.642220	-0.725380	0.551232	3.203093	0.000000	0.072211	0.000000	0.000025	0.000001	0.000000	0.000000
18.710983	23.439881	11.271011	0.000910	0.128839	3.216364	0.000000	-0.023937	0.000000	0.000026	0.000001	0.000000	0.000000
19.009556	23.479718	11.184602	-0.073105	0.131128	3.211726	0.000000	-0.015536	0.000000	0.000026	0.000001	0.000000	0.000000
19.342889	23.533212	11.107288	-0.087377	0.100812	3.206547	0.000000	-0.015536	0.000000	0.000026	0.000001	0.000000	0.000000
19.676223	23.596221	11.050185	-0.101650	0.070497	3.201368	0.000000	-0.015536	0.000000	0.000026	0.000001	0.000000	0.000000
20.010806	23.669328	11.013056	-0.233247	0.094633	3.196190	0.000000	0.000300	0.000000	0.000026	0.000001	0.000000	0.000000
20.308129	23.811965	10.964881	-0.308694	0.096037	3.196279	0.000000	0.008650	0.000000	0.000027	0.000001	0.000000	0.000000
20.857189	23.740240	11.081335	0.438553	-0.309386	3.174816	0.000000	-0.086715	0.000000	0.000027	-0.000000	0.000000	0.000000
21.406249	22.860170	11.652408	1.154824	-0.736846	3.101338	0.000000	-0.180543	0.000000	0.000027	-0.000001	0.000000	0.000000
21.955309	21.233920	12.718777	1.789523	-1.216789	2.977147	0.000000	-0.271167	0.000000	0.000026	-0.000002	0.000000	0.000000
22.504369	18.976358	14.356396	2.297819	-1.783402	2.804448	0.000000	-0.356982	0.000000	0.000025	-0.000003	0.000000	0.000000
22.950329	17.197100	15.826781	1.705989	-1.499810	2.662539	0.000000	-0.279792	0.000000	0.000024	-0.000002	0.000000	0.000000
23.391289	15.921923	16.999187	1.196798	-1.148829	2.555480	0.000000	-0.206243	0.000000	0.000023	-0.000001	0.000000	0.000000
23.832249	15.070096	17.837736	0.742286	-0.745578	2.480305	0.000000	-0.135043	0.000000	0.000022	-0.000001	0.000000	0.000000
24.273209	14.602699	18.304274	0.321687	-0.308403	2.436158	0.000000	-0.065381	0.000000	0.000022	-0.000000	0.000000	0.000000
24.715418	14.498501	18.377332	-0.048755	0.097677	2.422533	0.000000	-0.002403	0.000000	0.000022	0.000000	0.000000	0.000000
25.012741	14.533605	18.324105	-0.069311	0.081344	2.421818	0.000000	-0.002403	0.000000	0.000022	0.000000	0.000000	0.000000
25.346075	14.587495	18.275979	-0.092357	0.063033	2.421017	0.000000	-0.002403	0.000000	0.000022	0.000000	0.000000	0.000000
25.679408	14.656748	18.240061	-0.115402	0.044721	2.420216	0.000000	-0.002403	0.000000	0.000023	0.000000	0.000000	0.000000
26.013991	14.741412	18.216654	-0.018942	-0.121441	2.419387	0.000000	-0.022031	0.000000	0.000023	0.000000	0.000000	0.000000
26.311314	14.758675	18.293792	-0.002934	-0.182855	2.412837	0.000000	-0.027946	0.000000	0.000023	0.000000	0.000000	0.000000
26.752274	14.943078	18.256685	-0.416837	0.266686	2.415620	0.000000	0.040581	0.000000	0.000023	0.000001	0.000000	0.000000
27.193234	15.499497	17.826974	-0.849785	0.704094	2.448693	0.000000	0.109571	0.000000	0.000023	0.000001	0.000000	0.000000
27.634194	16.453354	17.024212	-1.321557	1.109466	2.512434	0.000000	0.179809	0.000000	0.000024	0.000002	0.000000	0.000000
28.075154	17.848228	15.884923	-1.853707	1.464358	2.607569	0.000000	0.252094	0.000000	0.000025	0.000003	0.000000	0.000000
28.521114	19.772076	14.443779	-2.475520	1.753534	2.736783	0.000000	0.327694	0.000000	0.000026	0.000003	0.000000	0.000000
29.070174	22.217285	12.838151	-1.951559	1.188049	2.894049	0.000000	0.244322	0.000000	0.000028	0.000002	0.000000	0.000000
29.619234	24.007556	11.803659	-1.289748	0.707186	3.004280	0.000000	0.156616	0.000000	0.000029	0.000001	0.000000	0.000000
30.168294	25.016433	11.266620	-0.536837	0.276694	3.065520	0.000000	0.066132	0.000000	0.000029	0.000000	0.000000	0.000000
30.717354	25.172655	11.188781	0.253995	-0.134090	3.076685	0.000000	-0.025525	0.000000	0.000029	-0.000001	0.000000	0.000000
31.015927	25.063916	11.259455	0.175958	-0.131841	3.071463	0.000000	-0.017488	0.000000	0.000029	-0.000000	0.000000	0.000000
31.349260	24.951181	11.357389	0.162247	-0.161961	3.065634	0.000000	-0.017488	0.000000	0.000029	-0.000000	0.000000	0.000000
31.682593	24.847586	11.475402	0.148536	-0.192080	3.059804	0.000000	-0.017488	0.000000	0.000029	-0.000000	0.000000	0.000000
32.017177	24.752796	11.614051	0.134773	-0.222312	3.053953	0.000000	-0.017488	0.000000	0.000029	-0.000000	0.000000	0.000000
32.314499	24.676289	11.754235	0.058084	-0.218473	3.048754	0.000000	-0.009525	0.000000	0.000029	-0.000000	0.000000	0.000000
32.863559	24.189691	12.233322	0.822907	-0.659235	3.018650	0.000000	-0.099970	0.000000	0.000028	-0.000001	0.000000	0.000000
33.412619	22.890329	13.219208	1.529604	-1.146952	2.939302	0.000000	-0.188642	0.000000	0.000027	-0.000002	0.000000	0.000000
33.961679	20.869983	14.782115	2.128257	-1.716364	2.812116	0.000000	-0.273968	0.000000	0.000026	-0.000003	0.000000	0.000000
34.510739	18.271360	17.033366	2.576580	-2.408029	2.639348	0.000000	-0.354434	0.000000	0.000024	-0.000004	0.000000	0.000000
34.956699	16.250776	19.047060	1.970517	-2.088531	2.497623	0.000000	-0.281525	0.000000	0.000022	-0.000003	0.000000	0.000000
35.397659	14.743991	20.712855	1.459500	-1.674750	2.388861	0.000000	-0.212249	0.000000	0.000021	-0.000003	0.000000	0.000000
35.838619	13.656886	21.978605	1.015164	-1.184769	2.310084	0.000000	-0.145391	0.000000	0.000020	-0.000002	0.000000	0.000000
36.279579	12.939795	22.786720	0.617208	-0.640882	2.260397	0.000000	-0.080188	0.000000	0.000019	-0.000002	0.000000	0.000000
36.721789	12.559260	23.100741	0.278139	-0.124529	2.239205	0.000000	-0.021390	0.000000	0.000018	-0.000001	0.000000	0.000000
37.019112	12.401449	23.178677	0.252634	-0.137599	2.232846	0.000000	-0.021390	0.000000	0.000018	-0.000001	0.000000	0.000000
37.352445	12.242558	23.275295	0.224040	-0.152253	2.225716	0.000000	-0.021390	0.000000	0.000018	-0.000001	0.000000	0.000000
37.685779	12.102730	23.381681	0.195446	-0.166906	2.218587	0.000000	-0.021390	0.000000	0.000017	-0.000001	0.000000	0.000000
38.020362	11.981547	23.498290	0.166744	-0.181614	2.211431	0.000000	-0.021390	0.000000	0.000017	-0.000001	0.000000	0.000000
38.317684	11.889977	23.610172	0.170393	-0.252575	2.205071	0.000000	-0.026796	0.000000	0.000017	-0.000001	0.000000	0.000000
38.758644	11.891259	23.571397	-0.173312	0.340174	2.207180	0.000000	0.036367	0.000000	0.000016	-0.000001	0.000000	0.000000
39.199604	12.197995	23.014719	-0.524935	0.917445	2.237205	0.000000	0.099944	0.000000	0.000016	-0.000000	0.000000	0.000000
39.640564	12.824198	21.965467	-0.900541	1.452973	2.295489	0.000000	0.164659	0.000000	0.000016	-0.000000	0.000000	0.000000
40.081524	13.798477	20.471381	-1.317290	1.922391	2.382696	0.000000	0.231249	0.000000	0.000016	0.000000	0.000000	0.000000
40.527484	15.182922	18.577861	-1.798051	2.305630	2.501291	0.000000	0.300879	0.000000	0.000016	0.000001	0.000000	0.000000
41.076544	16.949520	16.449949	-1.400399	1.592801	2.645966	0.000000	0.225341	0.000000	0.000016	0.000000	0.000000	0.000000
41.625604	18.222214	15.038289	-0.903829	0.993423	2.748007	0.000000	0.145806	0.000000	0.000016	-0.000000	0.000000	0.000000
42.174664	18.911105	14.242332	-0.343418	0.464805	2.805604	0.000000	0.063684	0.000000	0.000016	-0.000001	0.000000	0.000000
42.723724	18.967534	14.005384	0.241251	-0.030705	2.817734	0.000000	-0.019567	0.000000	0.000016	-0.000001	0.000000	0.000000
43.022297	18.857935	14.008236	0.175379	-0.015436	2.814090	0.000000	-0.012206	0.000000	0.000015	-0.000001	0.000000	0.000000
43.502297	18.702164	14.039505	0.149143	-0.049709	2.808232	0.000000	-0.012206	0.000000	0.000015	-0.000001	0.000000	0.000000
43.982297	18.571581	14.103678	0.122907	-0.083983	2.802373	0.000000	-0.012206	0.000000	0.000014	-0.000001	0.000000	0.000000
44.462297	18.466184	14.200753	0.096670	-0.118257	2.796515	0.000000	-0.012206	0.000000	0.000013	-0.000001	0.000000	0.000000
44.942297	18.385974	14.330731	0.070434	-0.152531	2.790657	0.000000	-0.012206	0.000000	0.000013	-0.000001	0.000000	0.000000
45.423547	18.331068	14.493899	-0.046693	-0.115082	2.784801	0.000000	0.001592	0.000000	0.000012	-0.000001	0.000000	0.000000
45.720870	18.363666	14.568512	-0.110924	-0.097806	2.785275	0.000000	0.008868	0.000000	0.000012	-0.000001	0.000000	0.000000
46.269930	18.176276	14.957621	0.450196	-0.615059	2.767577	0.000000	-0.073241	0.000000	0.000011	-0.000002	0.000000	0.000000
46.818990	17.386603	15.935316	0.979516	-1.176121	2.705088	0.000000	-0.154051	0.000000	0.000010	-0.000002	0.000000	0.000000
47.368050	16.050426	17.571234	1.439649	-1.820956	2.598915	0.000000	-0.232128	0.000000	0.000009	-0.000002	0.000000	0.000000
47.917110	14.262126	19.981900	1.798091	-2.595493	2.450941	0.000000	-0.306089	0.000000	0.000008	-0.000002	0.000000	0.000000
48.363070	12.870568	22.125109	1.333331	-2.190135	2.329729	0.000000	-0.237799	0.000000	0.000007	-0.000002	0.000000	0.000000
48.804030	11.874870	23.841038	0.933257	-1.686405	2.239328	0.000000	-0.172615	0.000000	0.000006	-0.000002	0.000000	0.000000
49.244990	11.211942	25.077057	0.575820	-1.105945	2.177210	0.000000	-0.109397	0.000000	0.000005	-0.000002	0.000000	0.000000
49.685950	10.851496	25.776926	0.244692	-0.475165	2.142667	0.000000	-0.047425	0.000000	0.000004	-0.000002	0.000000	0.000000
50.128160	10.777187	25.908519	-0.048946	0.113652	2.135318	0.000000	0.008771	0.000000	0.000003	-0.000002	0.000000	0.000000
50.425482	10.814515	25.844392	-0.076601	0.102028	2.137926	0.000000	0.008771	0.000000	0.000003	-0.000002	0.000000	0.000000
50.758816	10.875917	25.780718	-0.107604	0.088996	2.140850	0.000000	0.008771	0.000000	0.000002	-0.000002	0.000000	0.000000
51.092149	10.957987	25.725731	-0.138608	0.075964	2.143774	0.000000	0.008771	0.000000	0.000002	-0.000002	0.000000	0.000000
51.426732	11.060927	25.679795	-0.079994	-0.145444	2.146688	0.000000	-0.008645	0.000000	0.000001	-0.000002	0.000000	0.000000
51.724055	11.116539	25.769798	-0.079786	-0.220462	2.144118	0.000000	-0.013903	0.000000	0.000000	-0.000002	0.000000	0.000000
52.165015	11.332078	25.677506	-0.410865	0.428963	2.151576	0.000000	0.047758	0.000000	-0.000000	-0.000002	0.000000	0.000000
52.605975	11.846746	25.018925	-0.760716	1.058870	2.186318	0.000000	0.109962	0.000000	-0.000001	-0.000002	0.000000	0.000000
53.046935	12.684055	23.824020	-1.145322	1.640600	2.248739	0.000000	0.173419	0.000000	-0.000002	-0.000002	0.000000	0.000000
53.487895	13.882261	22.147157	-1.582254	2.147684	2.339550	0.000000	0.238851	0.000000	-0.000003	-0.000002	0.000000	0.000000
53.933855	15.516648	20.039564	-2.095699	2.558388	2.461291	0.000000	0.307402	0.000000	-0.000004	-0.000002	0.000000	0.000000
54.482915	17.620933	17.667921	-1.714137	1.786569	2.609894	0.000000	0.233096	0.000000	-0.000005	-0.000002	0.000000	0.000000
55.031975	19.236847	16.069395	-1.211498	1.142003	2.716501	0.000000	0.154655	0.000000	-0.000006	-0.000002	0.000000	0.000000
55.581035	20.250252	15.130126	-0.623285	0.578780	2.779222	0.000000	0.073472	0.000000	-0.000007	-0.000001	0.000000	0.000000
56.130095	20.589564	14.783212	0.008955	0.056782	2.796944	0.000000	-0.009015	0.000000	-0.000007	-0.000001	0.000000	0.000000
56.428668	20.620681	14.732324	-0.059376	0.075029	2.796435	0.000000	-0.001707	0.000000	-0.000008	-0.000001	0.000000	0.000000
56.762001	20.665673	14.689888	-0.075598	0.052276	2.795866	0.000000	-0.001707	0.000000	-0.000008	-0.000001	0.000000	0.000000
57.095334	20.721479	14.662622	-0.091820	0.029523	2.795298	0.000000	-0.001707	0.000000	-0.000008	-0.000001	0.000000	0.000000
57.429918	20.788369	14.650508	-0.108103	0.006684	2.794727	0.000000	-0.001707	0.000000	-0.000009	-0.000001	0.000000	0.000000
57.727240	20.856954	14.652568	-0.177072	0.024676	2.794220	0.000000	0.005595	0.000000	-0.000009	-0.000001	0.000000	0.000000
58.276300	20.695615	14.906775	0.469178	-0.490396	2.774651	0.000000	-0.076774	0.000000	-0.000010	-0.000001	0.000000	0.000000
58.825360	19.838695	15.742341	1.082287	-1.040398	2.710164	0.000000	-0.157781	0.000000	-0.000010	-0.000001	0.000000	0.000000
59.374420	18.346722	17.218780	1.618949	-1.664506	2.601904	0.000000	-0.235989	0.000000	-0.000011	-0.000000	0.000000	0.000000
59.923480	16.325082	19.441257	2.041257	-2.407172	2.451789	0.000000	-0.310011	0.000000	-0.000011	0.000000	0.000000	0.000000
60.369440	14.742807	21.416566	1.519327	-2.003473	2.328828	0.000000	-0.241723	0.000000	-0.000011	-0.000000	0.000000	0.000000
60.810400	13.604889	22.971783	1.071011	-1.509995	2.236688	0.000000	-0.176585	0.000000	-0.000011	-0.000001	0.000000	0.000000
61.251360	12.839361	24.059719	0.671625	-0.947814	2.172800	0.000000	-0.113457	0.000000	-0.000011	-0.000001	0.000000	0.000000
61.692320	12.411247	24.630873	0.302924	-0.342508	2.136438	0.000000	-0.051622	0.000000	-0.000012	-0.000001	0.000000	0.000000
62.134530	12.301044	24.658713	-0.021869	0.217850	2.127194	0.000000	0.004407	0.000000	-0.000012	-0.000001	0.000000	0.000000
62.431853	12.321239	24.532924	-0.046051	0.205221	2.128504	0.000000	0.004407	0.000000	-0.000013	-0.000001	0.000000	0.000000
62.765186	12.360976	24.400831	-0.073162	0.191061	2.129974	0.000000	0.004407	0.000000	-0.000013	-0.000001	0.000000	0.000000
63.098520	12.418788	24.278176	-0.100273	0.176902	2.131444	0.000000	0.004407	0.000000	-0.000014	-0.000001	0.000000	0.000000
63.433103	12.494992	24.164555	-0.127486	0.162689	2.132919	0.000000	0.004407	0.000000	-0.000014	-0.000001	0.000000	0.000000
63.730426	12.577991	24.071568	-0.120819	0.091020	2.134230	0.000000	-0.000827	0.000000	-0.000014	-0.000001	0.000000	0.000000
64.171386	12.844760	23.726209	-0.486451	0.689196	2.147408	0.000000	0.060652	0.000000	-0.000015	-0.000002	0.000000	0.000000
64.612346	13.442532	22.865174	-0.874307	1.256013	2.187823	0.000000	0.122822	0.000000	-0.000016	-0.000002	0.000000	0.000000
65.053306	14.398617	21.527637	-1.302109	1.765683	2.255934	0.000000	0.186391	0.000000	-0.000017	-0.000003	0.000000	0.000000
65.494266	15.756695	19.774456	-1.789400	2.195016	2.352518	0.000000	0.252083	0.000000	-0.000018	-0.000003	0.000000	0.000000
65.940226	17.601976	17.660598	-2.363134	2.525228	2.480247	0.000000	0.321047	0.000000	-0.000020	-0.000004	0.000000	0.000000
66.489286	19.967608	15.295924	-1.919877	1.806963	2.636152	0.000000	0.246009	0.000000	-0.000021	-0.000003	0.000000	0.000000
67.038346	21.768691	13.645111	-1.341010	1.217403	2.749596	0.000000	0.166607	0.000000	-0.000023	-0.000002	0.000000	0.000000
67.587406	22.878005	12.590574	-0.667420	0.714557	2.818566	0.000000	0.084250	0.000000	-0.000024	-0.000001	0.000000	0.000000
68.136466	23.217194	12.057202	0.053312	0.262606	2.841840	0.000000	0.000399	0.000000	-0.000024	-0.000001	0.000000	0.000000
68.435038	23.225431	11.889605	-0.020223	0.267211	2.844176	0.000000	0.007825	0.000000	-0.000024	-0.000001	0.000000	0.000000
68.768372	23.243699	11.721477	-0.034581	0.237173	2.846785	0.000000	0.007825	0.000000	-0.000025	-0.000001	0.000000	0.000000
69.101705	23.271539	11.573374	-0.048939	0.207136	2.849394	0.000000	0.007825	0.000000	-0.000025	-0.000001	0.000000	0.000000
69.436288	23.309109	11.444853	-0.063351	0.176986	2.852012	0.000000	0.007825	0.000000	-0.000025	-0.000001	0.000000	0.000000
69.733611	23.350588	11.347575	-0.137181	0.179849	2.854339	0.000000	0.015285	0.000000	-0.000025	-0.000001	0.000000	0.000000
70.282671	23.100184	11.377396	0.590541	-0.234481	2.839541	0.000000	-0.069109	0.000000	-0.000026	0.000000	0.000000	0.000000
