#ParticleID	Turn	x[m]	xp	y[m]	yp	z[m]	dE[GeV]# s	beta_x	beta_y	alpha_x	alpha_y	D_x	D_y	D_px	D_py	orbit_x	orbit_px	orbit_y	orbit_py
0.300000	11.816101	25.008751	-0.011327	-0.027360	2.618106	0.000000	0.000016	0.000000	-0.000001	0.000001	0.000000	0.000000
0.601250	11.830607	25.028867	-0.036825	-0.039415	2.618110	0.000000	0.000016	0.000000	-0.000001	0.000001	0.000000	0.000000
0.898573	11.859987	25.055843	-0.032906	-0.112757	2.618114	0.000000	-0.006405	0.000000	-0.000001	0.000001	0.000000	0.000000
1.339533	12.041166	24.877353	-0.379526	0.515991	2.631583	0.000000	0.067553	0.000000	-0.000000	0.000001	0.000000	0.000000
1.780493	12.534497	24.152633	-0.743484	1.121261	2.677802	0.000000	0.142279	0.000000	0.000000	0.000001	0.000000	0.000000
2.221453	13.362520	22.914656	-1.141411	1.675514	2.757299	0.000000	0.218626	0.000000	0.000001	0.000001	0.000000	0.000000
2.662413	14.563063	21.219750	-1.591485	2.153534	2.870978	0.000000	0.297464	0.000000	0.000001	0.000001	0.000000	0.000000
3.108373	16.211731	19.120173	-2.118561	2.534701	3.021995	0.000000	0.380178	0.000000	0.000001	0.000001	0.000000	0.000000
3.657433	18.325867	16.762055	-1.709110	1.785478	3.205464	0.000000	0.287140	0.000000	0.000002	0.000001	0.000000	0.000000
4.206493	19.921020	15.152427	-1.178936	1.163432	3.336373	0.000000	0.189009	0.000000	0.000002	0.000001	0.000000	0.000000
4.755553	20.884517	14.176641	-0.565488	0.624254	3.412402	0.000000	0.087525	0.000000	0.000003	0.000001	0.000000	0.000000
5.304613	21.148301	13.765191	0.087903	0.129540	3.432200	0.000000	-0.015511	0.000000	0.000003	0.000001	0.000000	0.000000
5.603185	21.133025	13.673015	0.018515	0.143220	3.430246	0.000000	-0.006544	0.000000	0.000003	0.000001	0.000000	0.000000
5.936519	21.125941	13.585828	0.002737	0.118341	3.428065	0.000000	-0.006544	0.000000	0.000004	0.000001	0.000000	0.000000
6.269852	21.129376	13.515227	-0.013042	0.093462	3.425883	0.000000	-0.006544	0.000000	0.000004	0.000001	0.000000	0.000000
6.604435	21.143402	13.461041	-0.028879	0.068490	3.423694	0.000000	-0.006544	0.000000	0.000004	0.000001	0.000000	0.000000
6.901758	21.164760	13.426911	-0.098251	0.081379	3.421748	0.000000	0.002396	0.000000	0.000004	0.000001	0.000000	0.000000
7.450818	20.911930	13.598316	0.556003	-0.395401	3.394862	0.000000	-0.100186	0.000000	0.000005	0.000001	0.000000	0.000000
7.999878	19.958065	14.305583	1.170983	-0.900344	3.312057	0.000000	-0.200992	0.000000	0.000005	0.000000	0.000000	0.000000
8.548938	18.370540	15.599090	1.703251	-1.469418	3.174803	0.000000	-0.298233	0.000000	0.000005	0.000000	0.000000	0.000000
9.097998	16.261491	17.570969	2.115210	-2.143154	2.985533	0.000000	-0.390183	0.000000	0.000005	0.000000	0.000000	0.000000
9.543958	14.616030	19.328022	1.587612	-1.780126	2.829834	0.000000	-0.308475	0.000000	0.000005	0.000000	0.000000	0.000000
9.984918	13.419198	20.707950	1.136837	-1.337337	2.711056	0.000000	-0.230764	0.000000	0.000005	0.000000	0.000000	0.000000
10.425878	12.595594	21.668948	0.738001	-0.833700	2.625933	0.000000	-0.155682	0.000000	0.000006	0.000000	0.000000	0.000000
10.866838	12.107590	22.167291	0.372882	-0.292131	2.573496	0.000000	-0.082373	0.000000	0.000006	0.000001	0.000000	0.000000
11.309048	11.932757	22.179784	0.053955	0.208282	2.553128	0.000000	-0.016262	0.000000	0.000006	0.000001	0.000000	0.000000
11.606371	11.908102	22.060089	0.028966	0.194295	2.548293	0.000000	-0.016262	0.000000	0.000006	0.000001	0.000000	0.000000
12.086371	11.899659	21.884404	-0.011376	0.171715	2.540487	0.000000	-0.016262	0.000000	0.000007	0.000001	0.000000	0.000000
12.566371	11.929945	21.730396	-0.051719	0.149135	2.532680	0.000000	-0.016262	0.000000	0.000007	0.000001	0.000000	0.000000
13.046371	11.998960	21.598064	-0.092061	0.126555	2.524874	0.000000	-0.016262	0.000000	0.000008	0.000001	0.000000	0.000000
13.526371	12.106703	21.487410	-0.132404	0.103975	2.517068	0.000000	-0.016262	0.000000	0.000008	0.000001	0.000000	0.000000
14.007621	12.253607	21.398230	-0.172852	0.081336	2.509242	0.000000	-0.016262	0.000000	0.000008	0.000001	0.000000	0.000000
14.304943	12.363823	21.354022	-0.167523	0.014987	2.504406	0.000000	-0.022403	0.000000	0.000009	0.000001	0.000000	0.000000
14.745903	12.670134	21.107081	-0.529759	0.542891	2.510159	0.000000	0.048523	0.000000	0.000009	0.000001	0.000000	0.000000
15.186863	13.305334	20.403725	-0.916198	1.046094	2.547280	0.000000	0.120003	0.000000	0.000009	0.000001	0.000000	0.000000
15.627823	14.298442	19.275958	-1.344495	1.501700	2.616191	0.000000	0.192848	0.000000	0.000010	0.000001	0.000000	0.000000
16.068783	15.694831	17.775092	-1.834219	1.888981	2.717678	0.000000	0.267891	0.000000	0.000011	0.000002	0.000000	0.000000
16.514743	17.581953	15.947912	-2.412500	2.191059	2.854591	0.000000	0.346447	0.000000	0.000012	0.000002	0.000000	0.000000
17.063803	20.005657	13.907675	-1.975646	1.546747	3.021077	0.000000	0.259108	0.000000	0.000013	0.000002	0.000000	0.000000
17.612863	21.869708	12.510682	-1.399242	1.012606	3.138276	0.000000	0.167173	0.000000	0.000013	0.000001	0.000000	0.000000
18.161923	23.042438	11.657429	-0.724002	0.550592	3.204107	0.000000	0.072273	0.000000	0.000014	0.000001	0.000000	0.000000
18.710983	23.441013	11.287140	0.002378	0.127794	3.217404	0.000000	-0.023909	0.000000	0.000014	0.000000	0.000000	0.000000
19.009556	23.479978	11.201313	-0.071643	0.130175	3.212775	0.000000	-0.015504	0.000000	0.000014	0.000000	0.000000	0.000000
19.342889	23.532497	11.124617	-0.085913	0.099912	3.207607	0.000000	-0.015504	0.000000	0.000014	0.000000	0.000000	0.000000
19.676223	23.594529	11.068097	-0.100182	0.069650	3.202439	0.000000	-0.015504	0.000000	0.000014	0.000000	0.000000	0.000000
20.010806	23.666652	11.031516	-0.231763	0.093930	3.197271	0.000000	0.000337	0.000000	0.000015	0.000000	0.000000	0.000000
20.308129	23.808405	10.983745	-0.307200	0.095436	3.197371	0.000000	0.008691	0.000000	0.000015	0.000000	0.000000	0.000000
20.857189	23.735111	11.101152	0.439898	-0.310530	3.175921	0.000000	-0.086710	0.000000	0.000015	-0.000000	0.000000	0.000000
21.406249	22.853692	11.673816	1.155924	-0.738615	3.102436	0.000000	-0.180573	0.000000	0.000015	-0.000000	0.000000	0.000000
21.955309	21.226404	12.742526	1.790301	-1.219309	2.978219	0.000000	-0.271233	0.000000	0.000014	-0.000001	0.000000	0.000000
22.504369	18.968192	14.383403	2.298220	-1.786852	2.805474	0.000000	-0.357082	0.000000	0.000014	-0.000001	0.000000	0.000000
22.950329	17.188527	15.856591	1.706506	-1.502619	2.663525	0.000000	-0.279865	0.000000	0.000013	-0.000001	0.000000	0.000000
23.391289	15.912836	17.031145	1.197454	-1.150872	2.556440	0.000000	-0.206291	0.000000	0.000013	-0.000001	0.000000	0.000000
23.832249	15.060359	17.871122	0.743110	-0.746762	2.481249	0.000000	-0.135067	0.000000	0.000012	-0.000000	0.000000	0.000000
24.273209	14.592148	18.338305	0.322717	-0.308674	2.437096	0.000000	-0.065381	0.000000	0.000012	-0.000000	0.000000	0.000000
24.715418	14.486930	18.411192	-0.047496	0.098244	2.423476	0.000000	-0.002381	0.000000	0.000012	0.000000	0.000000	0.000000
25.012741	14.521290	18.357619	-0.068066	0.081939	2.422768	0.000000	-0.002381	0.000000	0.000012	0.000000	0.000000	0.000000
25.346075	14.574354	18.309087	-0.091127	0.063659	2.421975	0.000000	-0.002381	0.000000	0.000013	0.000000	0.000000	0.000000
25.679408	14.642793	18.272740	-0.114189	0.045380	2.421181	0.000000	-0.002381	0.000000	0.000013	0.000000	0.000000	0.000000
26.013991	14.726650	18.248883	-0.017864	-0.121012	2.420359	0.000000	-0.022017	0.000000	0.000013	0.000000	0.000000	0.000000
26.311314	14.743278	18.325757	-0.001909	-0.182478	2.413813	0.000000	-0.027936	0.000000	0.000013	0.000000	0.000000	0.000000
26.752274	14.926608	18.287936	-0.415420	0.267922	2.416607	0.000000	0.040617	0.000000	0.000013	0.000000	0.000000	0.000000
27.193234	15.481581	17.856776	-0.847911	0.706133	2.449702	0.000000	0.109633	0.000000	0.000013	0.000001	0.000000	0.000000
27.634194	16.433552	17.051894	-1.319139	1.112215	2.513477	0.000000	0.179897	0.000000	0.000013	0.000001	0.000000	0.000000
28.075154	17.826015	15.909912	-1.850636	1.467692	2.608656	0.000000	0.252210	0.000000	0.000014	0.000001	0.000000	0.000000
28.521114	19.746777	14.465588	-2.471649	1.757303	2.737929	0.000000	0.327839	0.000000	0.000015	0.000002	0.000000	0.000000
29.070174	22.188078	12.856309	-1.948357	1.190968	2.895265	0.000000	0.244428	0.000000	0.000016	0.000001	0.000000	0.000000
29.619234	23.975307	11.818981	-1.287443	0.709464	3.005543	0.000000	0.156682	0.000000	0.000016	0.000001	0.000000	0.000000
30.168294	24.982223	11.279716	-0.535591	0.278493	3.066809	0.000000	0.066157	0.000000	0.000016	0.000000	0.000000	0.000000
30.717354	25.137703	11.200104	0.254093	-0.132641	3.077976	0.000000	-0.025542	0.000000	0.000016	-0.000000	0.000000	0.000000
31.015927	25.028859	11.269882	0.176123	-0.130324	3.072750	0.000000	-0.017501	0.000000	0.000016	-0.000000	0.000000	0.000000
31.349260	24.916021	11.366791	0.162392	-0.160404	3.066917	0.000000	-0.017501	0.000000	0.000016	-0.000000	0.000000	0.000000
31.682593	24.812337	11.483753	0.148661	-0.190483	3.061083	0.000000	-0.017501	0.000000	0.000016	-0.000000	0.000000	0.000000
32.017177	24.717469	11.621320	0.134878	-0.220676	3.055228	0.000000	-0.017501	0.000000	0.000016	-0.000000	0.000000	0.000000
32.314499	24.640906	11.760521	0.058257	-0.216782	3.050025	0.000000	-0.009533	0.000000	0.000016	-0.000000	0.000000	0.000000
32.863559	24.154763	12.237807	0.821910	-0.657627	3.019905	0.000000	-0.100019	0.000000	0.000016	-0.000001	0.000000	0.000000
33.412619	22.857109	13.221921	1.527507	-1.145313	2.940518	0.000000	-0.188731	0.000000	0.000015	-0.000001	0.000000	0.000000
33.961679	20.839605	14.782958	2.125209	-1.714577	2.813272	0.000000	-0.274095	0.000000	0.000014	-0.000002	0.000000	0.000000
34.510739	18.244757	17.032108	2.572797	-2.405967	2.640423	0.000000	-0.354598	0.000000	0.000013	-0.000002	0.000000	0.000000
34.956699	16.227173	19.043882	1.967548	-2.086305	2.498631	0.000000	-0.281661	0.000000	0.000013	-0.000002	0.000000	0.000000
35.397659	14.722701	20.707680	1.457203	-1.672463	2.389813	0.000000	-0.212360	0.000000	0.000012	-0.000001	0.000000	0.000000
35.838619	13.637366	21.971425	1.013434	-1.182526	2.310992	0.000000	-0.145478	0.000000	0.000011	-0.000001	0.000000	0.000000
36.279579	12.921581	22.777618	0.615966	-0.638784	2.261271	0.000000	-0.080253	0.000000	0.000011	-0.000001	0.000000	0.000000
36.721789	12.541950	23.089884	0.277288	-0.122650	2.240056	0.000000	-0.021434	0.000000	0.000010	-0.000001	0.000000	0.000000
37.019112	12.384653	23.166703	0.251759	-0.135721	2.233683	0.000000	-0.021434	0.000000	0.000010	-0.000001	0.000000	0.000000
37.352445	12.226354	23.262068	0.223138	-0.150374	2.226538	0.000000	-0.021434	0.000000	0.000010	-0.000001	0.000000	0.000000
37.685779	12.087136	23.367202	0.194517	-0.165028	2.219394	0.000000	-0.021434	0.000000	0.000010	-0.000001	0.000000	0.000000
38.020362	11.966584	23.482554	0.165788	-0.179736	2.212222	0.000000	-0.021434	0.000000	0.000010	-0.000001	0.000000	0.000000
38.317684	11.875589	23.593320	0.169379	-0.250659	2.205849	0.000000	-0.026843	0.000000	0.000009	-0.000001	0.000000	0.000000
38.758644	11.877623	23.553058	-0.174008	0.341616	2.207941	0.000000	0.036339	0.000000	0.000009	-0.000000	0.000000	0.000000
39.199604	12.184844	22.995342	-0.525346	0.918349	2.237959	0.000000	0.099936	0.000000	0.000009	-0.000000	0.000000	0.000000
39.640564	12.811291	21.945546	-0.900685	1.453297	2.296244	0.000000	0.164670	0.000000	0.000009	0.000000	0.000000	0.000000
40.081524	13.785582	20.451436	-1.317174	1.922121	2.383460	0.000000	0.231281	0.000000	0.000009	0.000000	0.000000	0.000000
40.527484	15.169804	18.558421	-1.797667	2.304774	2.502073	0.000000	0.300930	0.000000	0.000009	0.000000	0.000000	0.000000
41.076544	16.936263	16.431158	-1.400530	1.592469	2.646770	0.000000	0.225366	0.000000	0.000009	0.000000	0.000000	0.000000
41.625604	18.209380	15.019587	-0.904466	0.993592	2.748818	0.000000	0.145805	0.000000	0.000009	-0.000000	0.000000	0.000000
42.174664	18.899229	14.223167	-0.344514	0.465486	2.806406	0.000000	0.063657	0.000000	0.000009	-0.000000	0.000000	0.000000
42.723724	18.957081	13.985170	0.239772	-0.029464	2.818514	0.000000	-0.019619	0.000000	0.000009	-0.000001	0.000000	0.000000
43.022297	18.848351	13.987320	0.173924	-0.014276	2.814855	0.000000	-0.012256	0.000000	0.000009	-0.000001	0.000000	0.000000
43.502297	18.693977	14.017500	0.147687	-0.048600	2.808973	0.000000	-0.012256	0.000000	0.000008	-0.000001	0.000000	0.000000
43.982297	18.564791	14.080632	0.121450	-0.082924	2.803090	0.000000	-0.012256	0.000000	0.000008	-0.000001	0.000000	0.000000
44.462297	18.460793	14.176714	0.095214	-0.117247	2.797208	0.000000	-0.012256	0.000000	0.000008	-0.000001	0.000000	0.000000
44.942297	18.381981	14.305747	0.068977	-0.151571	2.791326	0.000000	-0.012256	0.000000	0.000007	-0.000001	0.000000	0.000000
45.423547	18.328477	14.468016	-0.048138	-0.114301	2.785445	0.000000	0.001545	0.000000	0.000007	-0.000001	0.000000	0.000000
45.720870	18.361937	14.542175	-0.112371	-0.097126	2.785905	0.000000	0.008824	0.000000	0.000007	-0.000001	0.000000	0.000000
46.269930	18.176154	14.930094	0.448733	-0.613560	2.768177	0.000000	-0.073305	0.000000	0.000006	-0.000001	0.000000	0.000000
46.818990	17.388049	15.905647	0.978140	-1.173696	2.705646	0.000000	-0.154134	0.000000	0.000006	-0.000001	0.000000	0.000000
47.368050	16.053292	17.538319	1.438456	-1.817433	2.599422	0.000000	-0.232229	0.000000	0.000005	-0.000001	0.000000	0.000000
47.917110	14.266161	19.944402	1.797167	-2.590621	2.451389	0.000000	-0.306205	0.000000	0.000005	-0.000001	0.000000	0.000000
48.363070	12.875417	22.083625	1.332422	-2.186107	2.330127	0.000000	-0.237904	0.000000	0.000004	-0.000001	0.000000	0.000000
48.804030	11.880530	23.796441	0.932321	-1.683401	2.239681	0.000000	-0.172711	0.000000	0.000003	-0.000001	0.000000	0.000000
49.244990	11.218455	25.030313	0.574815	-1.104101	2.177522	0.000000	-0.109484	0.000000	0.000003	-0.000001	0.000000	0.000000
49.685950	10.858944	25.729101	0.243570	-0.474565	2.142943	0.000000	-0.047505	0.000000	0.000002	-0.000001	0.000000	0.000000
50.128160	10.785697	25.860727	-0.050214	0.113097	2.135559	0.000000	0.008697	0.000000	0.000002	-0.000001	0.000000	0.000000
50.425482	10.823773	25.796937	-0.077850	0.101452	2.138146	0.000000	0.008697	0.000000	0.000002	-0.000001	0.000000	0.000000
50.758816	10.886000	25.733653	-0.108833	0.088398	2.141045	0.000000	0.008697	0.000000	0.000001	-0.000001	0.000000	0.000000
51.092149	10.968883	25.679073	-0.139816	0.075344	2.143944	0.000000	0.008697	0.000000	0.000001	-0.000001	0.000000	0.000000
51.426732	11.072624	25.633559	-0.081087	-0.145712	2.146833	0.000000	-0.008719	0.000000	0.000001	-0.000001	0.000000	0.000000
51.724055	11.128878	25.723728	-0.080824	-0.220639	2.144241	0.000000	-0.013978	0.000000	0.000000	-0.000001	0.000000	0.000000
52.165015	11.345465	25.632130	-0.412210	0.427573	2.151666	0.000000	0.047686	0.000000	0.000000	-0.000001	0.000000	0.000000
52.605975	11.861476	24.975289	-0.762429	1.056330	2.186376	0.000000	0.109892	0.000000	-0.000000	-0.000001	0.000000	0.000000
53.046935	12.700486	23.783089	-1.147481	1.637026	2.248766	0.000000	0.173350	0.000000	-0.000001	-0.000001	0.000000	0.000000
53.487895	13.900829	22.109777	-1.584958	2.143238	2.339547	0.000000	0.238782	0.000000	-0.000001	-0.000001	0.000000	0.000000
53.933855	15.537919	20.006466	-2.099077	2.553271	2.461257	0.000000	0.307332	0.000000	-0.000002	-0.000001	0.000000	0.000000
54.482915	17.645626	17.639712	-1.716953	1.782730	2.609821	0.000000	0.233028	0.000000	-0.000002	-0.000001	0.000000	0.000000
55.031975	19.264230	16.044828	-1.213552	1.139168	2.716392	0.000000	0.154591	0.000000	-0.000003	-0.000001	0.000000	0.000000
55.581035	20.279403	15.108216	-0.624432	0.576747	2.779078	0.000000	0.073411	0.000000	-0.000003	-0.000001	0.000000	0.000000
56.130095	20.619437	14.763162	0.008795	0.055407	2.796768	0.000000	-0.009070	0.000000	-0.000004	-0.000001	0.000000	0.000000
56.428668	20.650690	14.713134	-0.059591	0.073579	2.796242	0.000000	-0.001763	0.000000	-0.000004	-0.000001	0.000000	0.000000
56.762001	20.695817	14.671674	-0.075790	0.050801	2.795654	0.000000	-0.001763	0.000000	-0.000004	-0.000001	0.000000	0.000000
57.095334	20.751744	14.645400	-0.091989	0.028022	2.795067	0.000000	-0.001763	0.000000	-0.000004	-0.000001	0.000000	0.000000
57.429918	20.818740	14.634298	-0.108249	0.005159	2.794478	0.000000	-0.001763	0.000000	-0.000005	-0.000001	0.000000	0.000000
57.727240	20.887405	14.637271	-0.177275	0.023087	2.793954	0.000000	0.005538	0.000000	-0.000005	-0.000001	0.000000	0.000000
58.276300	20.725728	14.892992	0.469993	-0.491579	2.774356	0.000000	-0.076822	0.000000	-0.000005	-0.000001	0.000000	0.000000
58.825360	19.867377	15.729673	1.084063	-1.041260	2.709845	0.000000	-0.157819	0.000000	-0.000006	-0.000000	0.000000	0.000000
59.374420	18.372981	17.206911	1.621560	-1.665107	2.601566	0.000000	-0.236016	0.000000	-0.000006	-0.000000	0.000000	0.000000
59.923480	16.348098	19.429926	2.044518	-2.407556	2.451440	0.000000	-0.310028	0.000000	-0.000006	-0.000000	0.000000	0.000000
60.369440	14.763232	21.405765	1.521896	-2.004274	2.328470	0.000000	-0.241748	0.000000	-0.000006	-0.000000	0.000000	0.000000
60.810400	13.623307	22.961858	1.073010	-1.511173	2.236316	0.000000	-0.176619	0.000000	-0.000006	-0.000000	0.000000	0.000000
61.251360	12.856233	24.050979	0.673146	-0.949314	2.172411	0.000000	-0.113502	0.000000	-0.000006	-0.000000	0.000000	0.000000
61.692320	12.426963	24.623574	0.304037	-0.344263	2.136027	0.000000	-0.051677	0.000000	-0.000006	-0.000001	0.000000	0.000000
62.134530	12.315938	24.653050	-0.021080	0.215937	2.126755	0.000000	0.004343	0.000000	-0.000007	-0.000001	0.000000	0.000000
62.431853	12.335654	24.528397	-0.045232	0.203315	2.128047	0.000000	0.004343	0.000000	-0.000007	-0.000001	0.000000	0.000000
62.765186	12.374834	24.397571	-0.072309	0.189163	2.129495	0.000000	0.004343	0.000000	-0.000007	-0.000001	0.000000	0.000000
63.098520	12.432066	24.276179	-0.099386	0.175012	2.130943	0.000000	0.004343	0.000000	-0.000007	-0.000001	0.000000	0.000000
63.433103	12.507666	24.163820	-0.126565	0.160807	2.132396	0.000000	0.004343	0.000000	-0.000008	-0.000001	0.000000	0.000000
63.730426	12.590108	24.071949	-0.119840	0.089148	2.133687	0.000000	-0.000890	0.000000	-0.000008	-0.000001	0.000000	0.000000
64.171386	12.856127	23.728222	-0.485722	0.687383	2.146835	0.000000	0.060575	0.000000	-0.000008	-0.000001	0.000000	0.000000
64.612346	13.453355	22.868729	-0.873796	1.254342	2.187212	0.000000	0.122730	0.000000	-0.000009	-0.000001	0.000000	0.000000
65.053306	14.409075	21.532576	-1.301790	1.764229	2.255278	0.000000	0.186282	0.000000	-0.000009	-0.000001	0.000000	0.000000
65.494266	15.766953	19.780556	-1.789260	2.193845	2.351810	0.000000	0.251956	0.000000	-0.000010	-0.000002	0.000000	0.000000
65.940226	17.612188	17.667594	-2.363168	2.524397	2.479478	0.000000	0.320902	0.000000	-0.000011	-0.000002	0.000000	0.000000
66.489286	19.977614	15.303845	-1.919470	1.806098	2.635309	0.000000	0.245890	0.000000	-0.000012	-0.000002	0.000000	0.000000
67.038346	21.778020	13.654028	-1.340191	1.216443	2.748695	0.000000	0.166516	0.000000	-0.000013	-0.000001	0.000000	0.000000
67.587406	22.886235	12.600629	-0.666247	0.713432	2.817623	0.000000	0.084189	0.000000	-0.000013	-0.000001	0.000000	0.000000
68.136466	23.223979	12.068617	0.054757	0.261238	2.840871	0.000000	0.000368	0.000000	-0.000013	-0.000000	0.000000	0.000000
68.435038	23.231359	11.901808	-0.018787	0.265914	2.843197	0.000000	0.007792	0.000000	-0.000013	-0.000000	0.000000	0.000000
68.768372	23.248668	11.734528	-0.033140	0.235927	2.845795	0.000000	0.007792	0.000000	-0.000014	-0.000000	0.000000	0.000000
69.101705	23.275546	11.587239	-0.047494	0.205939	2.848392	0.000000	0.007792	0.000000	-0.000014	-0.000000	0.000000	0.000000
69.436288	23.312148	11.459502	-0.061901	0.175840	2.850999	0.000000	0.007792	0.000000	-0.000014	-0.000000	0.000000	0.000000
69.733611	23.352764	11.362892	-0.135728	0.178785	2.853316	0.000000	0.015248	0.000000	-0.000014	-0.000000	0.000000	0.000000
70.282671	23.100738	11.394121	0.592024	-0.235996	2.838507	0.000000	-0.069113	0.000000	-0.000014	0.000000	0.000000	0.000000
