#ParticleID	Turn	x[m]	xp	y[m]	yp	z[m]	dE[GeV]# s	beta_x	beta_y	alpha_x	alpha_y	D_x	D_y	D_px	D_py	orbit_x	orbit_px	orbit_y	orbit_py
0.300000	11.811458	25.027489	-0.010826	-0.027163	2.618138	0.000000	0.000002	0.000000	-0.000000	0.000001	0.000000	0.000000
0.601250	11.825665	25.047483	-0.036334	-0.039208	2.618138	0.000000	0.000002	0.000000	0.000000	0.000001	0.000000	0.000000
0.898573	11.854757	25.074333	-0.032438	-0.112586	2.618138	0.000000	-0.006419	0.000000	0.000000	0.000001	0.000000	0.000000
1.339533	12.035466	24.895478	-0.378926	0.516646	2.631600	0.000000	0.067539	0.000000	0.000001	0.000001	0.000000	0.000000
1.780493	12.528201	24.169975	-0.742726	1.122372	2.677814	0.000000	0.142266	0.000000	0.000001	0.000001	0.000000	0.000000
2.221453	13.355472	22.930836	-1.140459	1.677030	2.757304	0.000000	0.218613	0.000000	0.000002	0.000001	0.000000	0.000000
2.662413	14.555076	21.234439	-1.590297	2.155385	2.870977	0.000000	0.297451	0.000000	0.000003	0.000001	0.000000	0.000000
3.108373	16.202557	19.133091	-2.117079	2.536804	3.021989	0.000000	0.380165	0.000000	0.000003	0.000001	0.000000	0.000000
3.657433	18.315188	16.772955	-1.707867	1.787071	3.205450	0.000000	0.287128	0.000000	0.000004	0.000001	0.000000	0.000000
4.206493	19.909150	15.161806	-1.178021	1.164627	3.336353	0.000000	0.188997	0.000000	0.000005	0.000001	0.000000	0.000000
4.755553	20.871852	14.184884	-0.564964	0.625137	3.412374	0.000000	0.087514	0.000000	0.000005	0.000001	0.000000	0.000000
5.304613	21.135295	13.772607	0.087998	0.130174	3.432167	0.000000	-0.015521	0.000000	0.000006	0.000001	0.000000	0.000000
5.603185	21.119944	13.680038	0.018636	0.143880	3.430210	0.000000	-0.006554	0.000000	0.000006	0.000001	0.000000	0.000000
5.936519	21.112783	13.592408	0.002848	0.119009	3.428025	0.000000	-0.006554	0.000000	0.000006	0.000001	0.000000	0.000000
6.269852	21.116147	13.521359	-0.012940	0.094139	3.425840	0.000000	-0.006554	0.000000	0.000007	0.000001	0.000000	0.000000
6.604435	21.130108	13.466717	-0.028788	0.069174	3.423647	0.000000	-0.006554	0.000000	0.000007	0.000001	0.000000	0.000000
6.901758	21.151414	13.432179	-0.098132	0.082084	3.421698	0.000000	0.002385	0.000000	0.000007	0.000001	0.000000	0.000000
7.450818	20.898699	13.602888	0.555675	-0.394831	3.394806	0.000000	-0.100196	0.000000	0.000008	0.000001	0.000000	0.000000
7.999878	19.945430	14.309585	1.170232	-0.899869	3.311997	0.000000	-0.200999	0.000000	0.000008	0.000000	0.000000	0.000000
8.548938	18.358939	15.602605	1.702130	-1.469003	3.174739	0.000000	-0.298238	0.000000	0.000008	0.000000	0.000000	0.000000
9.097998	16.251289	17.574049	2.113798	-2.142771	2.985467	0.000000	-0.390187	0.000000	0.000008	-0.000000	0.000000	0.000000
9.543958	14.606949	19.330698	1.586504	-1.779606	2.829766	0.000000	-0.308480	0.000000	0.000008	0.000000	0.000000	0.000000
9.984918	13.410980	20.710116	1.135980	-1.336705	2.710985	0.000000	-0.230771	0.000000	0.000008	0.000000	0.000000	0.000000
10.425878	12.588036	21.670518	0.737356	-0.832985	2.625858	0.000000	-0.155691	0.000000	0.000008	0.000001	0.000000	0.000000
10.866838	12.100519	22.168205	0.372420	-0.291365	2.573418	0.000000	-0.082383	0.000000	0.000009	0.000001	0.000000	0.000000
11.309048	11.926021	22.180011	0.053637	0.209064	2.553045	0.000000	-0.016274	0.000000	0.000009	0.000001	0.000000	0.000000
11.606371	11.901560	22.059852	0.028635	0.195074	2.548205	0.000000	-0.016274	0.000000	0.000009	0.000001	0.000000	0.000000
12.086371	11.893446	21.883423	-0.011729	0.172487	2.540393	0.000000	-0.016274	0.000000	0.000010	0.000001	0.000000	0.000000
12.566371	11.924081	21.728678	-0.052093	0.149900	2.532581	0.000000	-0.016274	0.000000	0.000010	0.000001	0.000000	0.000000
13.046371	11.993465	21.595616	-0.092457	0.127313	2.524769	0.000000	-0.016274	0.000000	0.000011	0.000001	0.000000	0.000000
13.526371	12.101598	21.484238	-0.132821	0.104726	2.516957	0.000000	-0.016274	0.000000	0.000011	0.000001	0.000000	0.000000
14.007621	12.248914	21.394338	-0.173290	0.082080	2.509124	0.000000	-0.016274	0.000000	0.000012	0.000001	0.000000	0.000000
14.304943	12.359394	21.349689	-0.167987	0.015739	2.504285	0.000000	-0.022415	0.000000	0.000012	0.000001	0.000000	0.000000
14.745903	12.666076	21.102140	-0.530137	0.543510	2.510032	0.000000	0.048508	0.000000	0.000012	0.000001	0.000000	0.000000
15.186863	13.301578	20.398308	-0.916507	1.046552	2.547146	0.000000	0.119984	0.000000	0.000013	0.000002	0.000000	0.000000
15.627823	14.294934	19.270216	-1.344750	1.501976	2.616048	0.000000	0.192826	0.000000	0.000014	0.000002	0.000000	0.000000
16.068783	15.691528	17.769192	-1.834431	1.889062	2.717524	0.000000	0.267865	0.000000	0.000015	0.000002	0.000000	0.000000
16.514743	17.578826	15.942029	-2.412680	2.190940	2.854424	0.000000	0.346417	0.000000	0.000016	0.000003	0.000000	0.000000
17.063803	20.002816	13.901850	-1.975984	1.546760	3.020895	0.000000	0.259083	0.000000	0.000017	0.000002	0.000000	0.000000
17.612863	21.867314	12.504771	-1.399713	1.012751	3.138082	0.000000	0.167155	0.000000	0.000018	0.000002	0.000000	0.000000
18.161923	23.040622	11.651282	-0.724574	0.550879	3.203905	0.000000	0.072261	0.000000	0.000019	0.000001	0.000000	0.000000
18.710983	23.439862	11.280591	0.001745	0.128244	3.217197	0.000000	-0.023914	0.000000	0.000019	0.000000	0.000000	0.000000
19.009556	23.479202	11.194512	-0.072272	0.130587	3.212566	0.000000	-0.015510	0.000000	0.000019	0.000000	0.000000	0.000000
19.342889	23.532141	11.117548	-0.086543	0.100303	3.207396	0.000000	-0.015510	0.000000	0.000019	0.000000	0.000000	0.000000
19.676223	23.594593	11.060774	-0.100814	0.070019	3.202226	0.000000	-0.015510	0.000000	0.000019	0.000000	0.000000	0.000000
20.010806	23.667140	11.023954	-0.232399	0.094241	3.197056	0.000000	0.000330	0.000000	0.000020	0.000000	0.000000	0.000000
20.308129	23.809272	10.976005	-0.307839	0.095704	3.197154	0.000000	0.008683	0.000000	0.000020	0.000001	0.000000	0.000000
20.857189	23.736662	11.092997	0.439301	-0.310039	3.175701	0.000000	-0.086711	0.000000	0.000020	-0.000000	0.000000	0.000000
21.406249	22.855855	11.664982	1.155411	-0.737865	3.102218	0.000000	-0.180567	0.000000	0.000020	-0.000001	0.000000	0.000000
21.955309	21.229067	12.732703	1.789909	-1.218247	2.978006	0.000000	-0.271220	0.000000	0.000019	-0.000001	0.000000	0.000000
22.504369	18.971206	14.372209	2.297976	-1.785403	2.805271	0.000000	-0.357062	0.000000	0.000018	-0.000002	0.000000	0.000000
22.950329	17.191771	15.844217	1.706228	-1.501433	2.663330	0.000000	-0.279851	0.000000	0.000017	-0.000002	0.000000	0.000000
23.391289	15.916345	17.017861	1.197129	-1.150003	2.556250	0.000000	-0.206282	0.000000	0.000017	-0.000001	0.000000	0.000000
23.832249	15.064181	17.857226	0.742723	-0.746249	2.481062	0.000000	-0.135062	0.000000	0.000016	-0.000001	0.000000	0.000000
24.273209	14.596345	18.324123	0.322250	-0.308541	2.436911	0.000000	-0.065380	0.000000	0.000016	-0.000000	0.000000	0.000000
24.715418	14.491583	18.397063	-0.048054	0.098028	2.423290	0.000000	-0.002385	0.000000	0.000016	0.000000	0.000000	0.000000
25.012741	14.526272	18.343623	-0.068618	0.081711	2.422581	0.000000	-0.002385	0.000000	0.000016	0.000000	0.000000	0.000000
25.346075	14.579703	18.295246	-0.091673	0.063418	2.421786	0.000000	-0.002385	0.000000	0.000016	0.000000	0.000000	0.000000
25.679408	14.648504	18.259065	-0.114728	0.045125	2.420990	0.000000	-0.002385	0.000000	0.000016	0.000000	0.000000	0.000000
26.013991	14.732720	18.235382	-0.018348	-0.121171	2.420168	0.000000	-0.022019	0.000000	0.000016	0.000000	0.000000	0.000000
26.311314	14.749633	18.312355	-0.002371	-0.182615	2.413621	0.000000	-0.027937	0.000000	0.000016	-0.000000	0.000000	0.000000
26.752274	14.933441	18.274814	-0.416045	0.267425	2.416412	0.000000	0.040611	0.000000	0.000016	0.000000	0.000000	0.000000
27.193234	15.489047	17.844244	-0.848727	0.705298	2.449504	0.000000	0.109621	0.000000	0.000017	0.000001	0.000000	0.000000
27.634194	16.441836	17.040234	-1.320185	1.111080	2.513272	0.000000	0.179880	0.000000	0.000017	0.000001	0.000000	0.000000
28.075154	17.835339	15.899367	-1.851958	1.466309	2.608443	0.000000	0.252188	0.000000	0.000018	0.000002	0.000000	0.000000
28.521114	19.757427	14.456365	-2.473310	1.755734	2.737704	0.000000	0.327811	0.000000	0.000019	0.000002	0.000000	0.000000
29.070174	22.200410	12.848604	-1.949740	1.189756	2.895026	0.000000	0.244408	0.000000	0.000020	0.000002	0.000000	0.000000
29.619234	23.988959	11.812452	-1.288449	0.708522	3.005295	0.000000	0.156669	0.000000	0.000020	0.000001	0.000000	0.000000
30.168294	24.996739	11.274104	-0.536149	0.277754	3.066556	0.000000	0.066152	0.000000	0.000021	0.000000	0.000000	0.000000
30.717354	25.152566	11.195217	0.254022	-0.133229	3.077723	0.000000	-0.025538	0.000000	0.000021	-0.000000	0.000000	0.000000
31.015927	25.043784	11.265359	0.176023	-0.130941	3.072498	0.000000	-0.017498	0.000000	0.000021	-0.000000	0.000000	0.000000
31.349260	24.931010	11.362686	0.162301	-0.161038	3.066666	0.000000	-0.017498	0.000000	0.000020	-0.000000	0.000000	0.000000
31.682593	24.827383	11.480076	0.148578	-0.191134	3.060833	0.000000	-0.017498	0.000000	0.000020	-0.000000	0.000000	0.000000
32.017177	24.732568	11.618085	0.134804	-0.221344	3.054978	0.000000	-0.017498	0.000000	0.000020	-0.000000	0.000000	0.000000
32.314499	24.656047	11.757688	0.058154	-0.217474	3.049776	0.000000	-0.009531	0.000000	0.000020	-0.000000	0.000000	0.000000
32.863559	24.169741	12.235706	0.822308	-0.658277	3.019660	0.000000	-0.100009	0.000000	0.000020	-0.000001	0.000000	0.000000
33.412619	22.871386	13.220531	1.528379	-1.145967	2.940280	0.000000	-0.188714	0.000000	0.000019	-0.000002	0.000000	0.000000
33.961679	20.852691	14.782310	2.126493	-1.715283	2.813046	0.000000	-0.274070	0.000000	0.000018	-0.000002	0.000000	0.000000
34.510739	18.256247	17.032287	2.574401	-2.406774	2.640213	0.000000	-0.354566	0.000000	0.000017	-0.000003	0.000000	0.000000
34.956699	16.237392	19.044817	1.968804	-2.087188	2.498434	0.000000	-0.281635	0.000000	0.000016	-0.000002	0.000000	0.000000
35.397659	14.731944	20.709412	1.458171	-1.673380	2.389627	0.000000	-0.212339	0.000000	0.000015	-0.000002	0.000000	0.000000
35.838619	13.645865	21.973965	1.014158	-1.183436	2.310815	0.000000	-0.145461	0.000000	0.000014	-0.000002	0.000000	0.000000
36.279579	12.929537	22.780942	0.616478	-0.639646	2.261101	0.000000	-0.080240	0.000000	0.000013	-0.000001	0.000000	0.000000
36.721789	12.549538	23.093934	0.277630	-0.123432	2.239890	0.000000	-0.021426	0.000000	0.000013	-0.000001	0.000000	0.000000
37.019112	12.392033	23.171219	0.252112	-0.136503	2.233520	0.000000	-0.021426	0.000000	0.000012	-0.000001	0.000000	0.000000
37.352445	12.233495	23.267105	0.223503	-0.151157	2.226378	0.000000	-0.021426	0.000000	0.000012	-0.000001	0.000000	0.000000
37.685779	12.094029	23.372761	0.194895	-0.165810	2.219237	0.000000	-0.021426	0.000000	0.000012	-0.000001	0.000000	0.000000
38.020362	11.973220	23.488637	0.166179	-0.180519	2.212069	0.000000	-0.021426	0.000000	0.000012	-0.000001	0.000000	0.000000
38.317684	11.881989	23.599868	0.169796	-0.251458	2.205698	0.000000	-0.026834	0.000000	0.000011	-0.000001	0.000000	0.000000
38.758644	11.883719	23.560231	-0.173733	0.341002	2.207794	0.000000	0.036345	0.000000	0.000011	-0.000001	0.000000	0.000000
39.199604	12.190756	23.002964	-0.525200	0.917947	2.237813	0.000000	0.099937	0.000000	0.000011	-0.000000	0.000000	0.000000
39.640564	12.817127	21.953421	-0.900661	1.453126	2.296098	0.000000	0.164668	0.000000	0.000011	-0.000000	0.000000	0.000000
40.081524	13.791450	20.459357	-1.317271	1.922189	2.383312	0.000000	0.231275	0.000000	0.000011	0.000000	0.000000	0.000000
40.527484	15.175815	18.566175	-1.797891	2.305078	2.501922	0.000000	0.300921	0.000000	0.000011	0.000000	0.000000	0.000000
41.076544	16.942393	16.438691	-1.400522	1.592568	2.646615	0.000000	0.225362	0.000000	0.000011	0.000000	0.000000	0.000000
41.625604	18.215374	15.027120	-0.904227	0.993493	2.748662	0.000000	0.145805	0.000000	0.000011	-0.000000	0.000000	0.000000
42.174664	18.904841	14.230919	-0.344062	0.465182	2.806252	0.000000	0.063663	0.000000	0.000011	-0.000001	0.000000	0.000000
42.723724	18.962093	13.993377	0.240406	-0.029994	2.818364	0.000000	-0.019609	0.000000	0.000010	-0.000001	0.000000	0.000000
43.022297	18.852991	13.995828	0.174546	-0.014773	2.814708	0.000000	-0.012246	0.000000	0.000010	-0.000001	0.000000	0.000000
43.502297	18.698020	14.026476	0.148311	-0.049076	2.808831	0.000000	-0.012246	0.000000	0.000009	-0.000001	0.000000	0.000000
43.982297	18.568235	14.090055	0.122075	-0.083380	2.802953	0.000000	-0.012246	0.000000	0.000009	-0.000001	0.000000	0.000000
44.462297	18.463636	14.186565	0.095839	-0.117683	2.797076	0.000000	-0.012246	0.000000	0.000009	-0.000001	0.000000	0.000000
44.942297	18.384224	14.316006	0.069603	-0.151987	2.791198	0.000000	-0.012246	0.000000	0.000008	-0.000001	0.000000	0.000000
45.423547	18.330117	14.478666	-0.047519	-0.114643	2.785322	0.000000	0.001554	0.000000	0.000008	-0.000001	0.000000	0.000000
45.720870	18.363207	14.553024	-0.111752	-0.097426	2.785785	0.000000	0.008833	0.000000	0.000007	-0.000001	0.000000	0.000000
46.269930	18.176727	14.941455	0.449376	-0.614198	2.768063	0.000000	-0.073293	0.000000	0.000007	-0.000001	0.000000	0.000000
46.818990	17.387924	15.917914	0.978763	-1.174718	2.705541	0.000000	-0.154118	0.000000	0.000006	-0.000001	0.000000	0.000000
47.368050	16.052513	17.551952	1.439014	-1.818911	2.599326	0.000000	-0.232210	0.000000	0.000005	-0.000001	0.000000	0.000000
47.917110	14.264823	19.959955	1.797621	-2.592661	2.451305	0.000000	-0.306182	0.000000	0.000005	-0.000002	0.000000	0.000000
48.363070	12.873683	22.100850	1.332858	-2.187799	2.330052	0.000000	-0.237884	0.000000	0.000004	-0.000002	0.000000	0.000000
48.804030	11.878413	23.814976	0.932759	-1.684669	2.239615	0.000000	-0.172692	0.000000	0.000003	-0.000001	0.000000	0.000000
49.244990	11.215943	25.049757	0.575275	-1.104887	2.177464	0.000000	-0.109467	0.000000	0.000003	-0.000001	0.000000	0.000000
49.685950	10.856009	25.749012	0.244073	-0.474834	2.142892	0.000000	-0.047489	0.000000	0.000002	-0.000001	0.000000	0.000000
50.128160	10.782289	25.880642	-0.049653	0.113308	2.135515	0.000000	0.008712	0.000000	0.000001	-0.000001	0.000000	0.000000
50.425482	10.820034	25.816724	-0.077296	0.101672	2.138106	0.000000	0.008712	0.000000	0.000001	-0.000001	0.000000	0.000000
50.758816	10.881895	25.753290	-0.108287	0.088627	2.141010	0.000000	0.008712	0.000000	0.000001	-0.000001	0.000000	0.000000
51.092149	10.964417	25.698554	-0.139278	0.075582	2.143914	0.000000	0.008712	0.000000	0.000000	-0.000001	0.000000	0.000000
51.426732	11.067800	25.652878	-0.080596	-0.145620	2.146808	0.000000	-0.008705	0.000000	-0.000000	-0.000001	0.000000	0.000000
51.724055	11.123766	25.742990	-0.080356	-0.220587	2.144220	0.000000	-0.013963	0.000000	-0.000001	-0.000001	0.000000	0.000000
52.165015	11.339884	25.651121	-0.411613	0.428133	2.151652	0.000000	0.047700	0.000000	-0.000001	-0.000001	0.000000	0.000000
52.605975	11.855303	24.993570	-0.761677	1.057372	2.186368	0.000000	0.109906	0.000000	-0.000002	-0.000001	0.000000	0.000000
53.046935	12.693569	23.800256	-1.146539	1.638503	2.248765	0.000000	0.173363	0.000000	-0.000002	-0.000001	0.000000	0.000000
53.487895	13.892981	22.125474	-1.583783	2.145082	2.339552	0.000000	0.238796	0.000000	-0.000003	-0.000001	0.000000	0.000000
53.933855	15.528899	20.020384	-2.097613	2.555400	2.461268	0.000000	0.307346	0.000000	-0.000004	-0.000002	0.000000	0.000000
54.482915	17.635118	17.651598	-1.715725	1.784324	2.609840	0.000000	0.233042	0.000000	-0.000005	-0.000001	0.000000	0.000000
55.031975	19.252543	16.055205	-1.212646	1.140341	2.716418	0.000000	0.154604	0.000000	-0.000005	-0.000001	0.000000	0.000000
55.581035	20.266927	15.117497	-0.623911	0.577582	2.779111	0.000000	0.073423	0.000000	-0.000006	-0.000001	0.000000	0.000000
56.130095	20.606620	14.771685	0.008893	0.055963	2.796807	0.000000	-0.009060	0.000000	-0.000006	-0.000001	0.000000	0.000000
56.428668	20.637797	14.721307	-0.059470	0.074168	2.796284	0.000000	-0.001752	0.000000	-0.000007	-0.000001	0.000000	0.000000
56.762001	20.682847	14.679451	-0.075679	0.051400	2.795701	0.000000	-0.001752	0.000000	-0.000007	-0.000001	0.000000	0.000000
57.095334	20.738702	14.652774	-0.091887	0.028633	2.795117	0.000000	-0.001752	0.000000	-0.000007	-0.000001	0.000000	0.000000
57.429918	20.805633	14.641260	-0.108157	0.005780	2.794531	0.000000	-0.001752	0.000000	-0.000008	-0.000001	0.000000	0.000000
57.727240	20.874247	14.643861	-0.177159	0.023736	2.794011	0.000000	0.005549	0.000000	-0.000008	-0.000001	0.000000	0.000000
58.276300	20.712685	14.898969	0.469668	-0.491106	2.774418	0.000000	-0.076812	0.000000	-0.000008	-0.000001	0.000000	0.000000
58.825360	19.854923	15.735213	1.083320	-1.040929	2.709912	0.000000	-0.157811	0.000000	-0.000009	-0.000000	0.000000	0.000000
59.374420	18.361550	17.212155	1.620452	-1.664895	2.601637	0.000000	-0.236011	0.000000	-0.000009	-0.000000	0.000000	0.000000
59.923480	16.338049	19.434994	2.043123	-2.407448	2.451513	0.000000	-0.310025	0.000000	-0.000009	0.000000	0.000000	0.000000
60.369440	14.754290	21.410656	1.520801	-2.003985	2.328544	0.000000	-0.241744	0.000000	-0.000009	-0.000000	0.000000	0.000000
60.810400	13.615218	22.966420	1.072162	-1.510718	2.236392	0.000000	-0.176613	0.000000	-0.000009	-0.000000	0.000000	0.000000
61.251360	12.848796	24.055073	0.672507	-0.948714	2.172491	0.000000	-0.113493	0.000000	-0.000009	-0.000000	0.000000	0.000000
61.692320	12.420009	24.627084	0.303577	-0.343545	2.136111	0.000000	-0.051667	0.000000	-0.000009	-0.000001	0.000000	0.000000
62.134530	12.309319	24.655884	-0.021396	0.216733	2.126845	0.000000	0.004355	0.000000	-0.000010	-0.000001	0.000000	0.000000
62.431853	12.329227	24.530759	-0.045562	0.204108	2.128140	0.000000	0.004355	0.000000	-0.000010	-0.000001	0.000000	0.000000
62.765186	12.368632	24.399405	-0.072654	0.189953	2.129592	0.000000	0.004355	0.000000	-0.000010	-0.000001	0.000000	0.000000
63.098520	12.426099	24.277488	-0.099746	0.175799	2.131044	0.000000	0.004355	0.000000	-0.000011	-0.000001	0.000000	0.000000
63.433103	12.501944	24.164603	-0.126940	0.161591	2.132502	0.000000	0.004355	0.000000	-0.000011	-0.000001	0.000000	0.000000
63.730426	12.584613	24.072268	-0.120241	0.089927	2.133797	0.000000	-0.000878	0.000000	-0.000011	-0.000001	0.000000	0.000000
64.171386	12.850934	23.727857	-0.486008	0.688149	2.146950	0.000000	0.060590	0.000000	-0.000012	-0.000001	0.000000	0.000000
64.612346	13.448367	22.867706	-0.873980	1.255061	2.187334	0.000000	0.122748	0.000000	-0.000012	-0.000002	0.000000	0.000000
65.053306	14.404208	21.530950	-1.301881	1.764869	2.255410	0.000000	0.186303	0.000000	-0.000013	-0.000002	0.000000	0.000000
65.494266	15.762126	19.778412	-1.789262	2.194377	2.351952	0.000000	0.251981	0.000000	-0.000014	-0.000002	0.000000	0.000000
65.940226	17.607322	17.665034	-2.363080	2.524795	2.479632	0.000000	0.320931	0.000000	-0.000015	-0.000003	0.000000	0.000000
66.489286	19.972763	15.300851	-1.919584	1.806496	2.635478	0.000000	0.245913	0.000000	-0.000016	-0.000002	0.000000	0.000000
67.038346	21.773402	13.650583	-1.340499	1.216871	2.748875	0.000000	0.166534	0.000000	-0.000017	-0.000002	0.000000	0.000000
67.587406	22.882052	12.596684	-0.666727	0.713920	2.817811	0.000000	0.084201	0.000000	-0.000018	-0.000001	0.000000	0.000000
68.136466	23.220402	12.064088	0.054138	0.261820	2.841064	0.000000	0.000374	0.000000	-0.000018	-0.000000	0.000000	0.000000
68.435038	23.228148	11.896943	-0.019401	0.266468	2.843393	0.000000	0.007798	0.000000	-0.000018	-0.000000	0.000000	0.000000
68.768372	23.245867	11.729301	-0.033756	0.236460	2.845992	0.000000	0.007798	0.000000	-0.000018	-0.000000	0.000000	0.000000
69.101705	23.273157	11.581663	-0.048112	0.206452	2.848592	0.000000	0.007798	0.000000	-0.000019	-0.000000	0.000000	0.000000
69.436288	23.310173	11.453591	-0.062522	0.176331	2.851201	0.000000	0.007798	0.000000	-0.000019	-0.000000	0.000000	0.000000
69.733611	23.351158	11.356694	-0.136349	0.179243	2.853520	0.000000	0.015255	0.000000	-0.000019	-0.000000	0.000000	0.000000
70.282671	23.099838	11.387322	0.591368	-0.235355	2.838713	0.000000	-0.069112	0.000000	-0.000019	0.000000	0.000000	0.000000
