#ParticleID	Turn	x[m]	xp	y[m]	yp	z[m]	dE[GeV]# s	beta_x	beta_y	alpha_x	alpha_y	D_x	D_y	D_px	D_py	orbit_x	orbit_px	orbit_y	orbit_py
0.300000	11.806930	25.045401	-0.010391	-0.026947	2.618226	0.000000	-0.000032	0.000000	-0.000001	0.000002	0.000000	0.000000
0.601250	11.820878	25.065262	-0.035909	-0.038984	2.618216	0.000000	-0.000032	0.000000	-0.000000	0.000002	0.000000	0.000000
0.898573	11.849719	25.091976	-0.032034	-0.112396	2.618206	0.000000	-0.006453	0.000000	-0.000000	0.000002	0.000000	0.000000
1.339533	12.030019	24.912748	-0.378397	0.517299	2.631654	0.000000	0.067506	0.000000	0.000001	0.000002	0.000000	0.000000
1.780493	12.522223	24.186477	-0.742048	1.123457	2.677853	0.000000	0.142235	0.000000	0.000001	0.000002	0.000000	0.000000
2.221453	13.348819	22.946207	-1.139600	1.678498	2.757329	0.000000	0.218583	0.000000	0.000002	0.000002	0.000000	0.000000
2.662413	14.547572	21.248370	-1.589218	2.157169	2.870989	0.000000	0.297421	0.000000	0.000003	0.000002	0.000000	0.000000
3.108373	16.193974	19.145319	-2.115729	2.538824	3.021987	0.000000	0.380135	0.000000	0.000004	0.000002	0.000000	0.000000
3.657433	18.305241	16.783244	-1.706746	1.788605	3.205432	0.000000	0.287098	0.000000	0.000005	0.000002	0.000000	0.000000
4.206493	19.898133	15.170626	-1.177206	1.165783	3.336318	0.000000	0.188968	0.000000	0.000005	0.000001	0.000000	0.000000
4.755553	20.860138	14.192603	-0.564515	0.625998	3.412324	0.000000	0.087486	0.000000	0.000006	0.000001	0.000000	0.000000
5.304613	21.123303	13.779513	0.088051	0.130801	3.432102	0.000000	-0.015547	0.000000	0.000007	0.000001	0.000000	0.000000
5.603185	21.107903	13.686557	0.018713	0.144532	3.430137	0.000000	-0.006580	0.000000	0.000007	0.000001	0.000000	0.000000
5.936519	21.100694	13.598491	0.002916	0.119668	3.427944	0.000000	-0.006580	0.000000	0.000008	0.000001	0.000000	0.000000
6.269852	21.104016	13.527000	-0.012882	0.094805	3.425750	0.000000	-0.006580	0.000000	0.000008	0.000001	0.000000	0.000000
6.604435	21.117941	13.471910	-0.028738	0.069848	3.423548	0.000000	-0.006580	0.000000	0.000008	0.000001	0.000000	0.000000
6.901758	21.139219	13.436969	-0.098058	0.082776	3.421591	0.000000	0.002359	0.000000	0.000009	0.000001	0.000000	0.000000
7.450818	20.886648	13.606989	0.555342	-0.394260	3.394686	0.000000	-0.100218	0.000000	0.000009	0.000001	0.000000	0.000000
7.999878	19.933958	14.313107	1.169516	-0.899380	3.311865	0.000000	-0.201018	0.000000	0.000010	0.000001	0.000000	0.000000
8.548938	18.348443	15.605618	1.701081	-1.468559	3.174598	0.000000	-0.298252	0.000000	0.000010	0.000000	0.000000	0.000000
9.097998	16.242095	17.576586	2.112489	-2.142342	2.985320	0.000000	-0.390196	0.000000	0.000010	-0.000000	0.000000	0.000000
9.543958	14.598794	19.332795	1.585473	-1.779055	2.829614	0.000000	-0.308493	0.000000	0.000010	0.000000	0.000000	0.000000
9.984918	13.403630	20.711682	1.135177	-1.336058	2.710826	0.000000	-0.230789	0.000000	0.000010	0.000000	0.000000	0.000000
10.425878	12.581307	21.671481	0.736745	-0.832271	2.625691	0.000000	-0.155712	0.000000	0.000010	0.000001	0.000000	0.000000
10.866838	12.094255	22.168521	0.371972	-0.290617	2.573240	0.000000	-0.082409	0.000000	0.000011	0.000001	0.000000	0.000000
11.309048	11.920088	22.179663	0.053318	0.209815	2.552854	0.000000	-0.016304	0.000000	0.000011	0.000001	0.000000	0.000000
11.606371	11.895820	22.059059	0.028304	0.195819	2.548006	0.000000	-0.016304	0.000000	0.000011	0.000001	0.000000	0.000000
12.086371	11.888032	21.881917	-0.012079	0.173225	2.540179	0.000000	-0.016304	0.000000	0.000012	0.000001	0.000000	0.000000
12.566371	11.919012	21.726467	-0.052462	0.150631	2.532353	0.000000	-0.016304	0.000000	0.000013	0.000001	0.000000	0.000000
13.046371	11.988759	21.592706	-0.092844	0.128037	2.524526	0.000000	-0.016304	0.000000	0.000013	0.000001	0.000000	0.000000
13.526371	12.097273	21.480636	-0.133227	0.105443	2.516699	0.000000	-0.016304	0.000000	0.000014	0.000001	0.000000	0.000000
14.007621	12.244988	21.390049	-0.173715	0.082790	2.508852	0.000000	-0.016304	0.000000	0.000014	0.000001	0.000000	0.000000
14.304943	12.355724	21.344980	-0.168433	0.016458	2.504004	0.000000	-0.022444	0.000000	0.000015	0.000001	0.000000	0.000000
14.745903	12.662767	21.096858	-0.530514	0.544086	2.509737	0.000000	0.048472	0.000000	0.000015	0.000002	0.000000	0.000000
15.186863	13.298577	20.392590	-0.916833	1.046959	2.546832	0.000000	0.119940	0.000000	0.000016	0.000002	0.000000	0.000000
15.627823	14.292204	19.264221	-1.345039	1.502197	2.615713	0.000000	0.192774	0.000000	0.000017	0.000002	0.000000	0.000000
16.068783	15.689042	17.763088	-1.834697	1.889085	2.717163	0.000000	0.267803	0.000000	0.000018	0.000003	0.000000	0.000000
16.514743	17.576570	15.935994	-2.412934	2.190764	2.854033	0.000000	0.346345	0.000000	0.000019	0.000003	0.000000	0.000000
17.063803	20.000911	13.895930	-1.976366	1.546724	3.020469	0.000000	0.259025	0.000000	0.000021	0.000003	0.000000	0.000000
17.612863	21.865888	12.498814	-1.400196	1.012854	3.137627	0.000000	0.167111	0.000000	0.000022	0.000002	0.000000	0.000000
18.161923	23.039766	11.645133	-0.725124	0.551128	3.203430	0.000000	0.072232	0.000000	0.000023	0.000001	0.000000	0.000000
18.710983	23.439629	11.274080	0.001168	0.128657	3.216710	0.000000	-0.023928	0.000000	0.000024	0.000000	0.000000	0.000000
19.009556	23.479312	11.187772	-0.072848	0.130963	3.212074	0.000000	-0.015525	0.000000	0.000024	0.000001	0.000000	0.000000
19.342889	23.532635	11.110565	-0.087120	0.100657	3.206899	0.000000	-0.015525	0.000000	0.000024	0.000001	0.000000	0.000000
19.676223	23.595472	11.053562	-0.101392	0.070352	3.201724	0.000000	-0.015525	0.000000	0.000024	0.000001	0.000000	0.000000
20.010806	23.668407	11.016526	-0.232984	0.094515	3.196550	0.000000	0.000313	0.000000	0.000024	0.000001	0.000000	0.000000
20.308129	23.810887	10.968419	-0.308429	0.095938	3.196642	0.000000	0.008663	0.000000	0.000025	0.000001	0.000000	0.000000
20.857189	23.738892	11.085036	0.438777	-0.309586	3.175183	0.000000	-0.086714	0.000000	0.000025	-0.000000	0.000000	0.000000
21.406249	22.858606	11.656391	1.154991	-0.737162	3.101703	0.000000	-0.180553	0.000000	0.000024	-0.000001	0.000000	0.000000
21.955309	21.232209	12.723180	1.789621	-1.217244	2.977504	0.000000	-0.271189	0.000000	0.000024	-0.000002	0.000000	0.000000
22.504369	18.974582	14.361389	2.297841	-1.784027	2.804790	0.000000	-0.357015	0.000000	0.000023	-0.000002	0.000000	0.000000
22.950329	17.195290	15.832280	1.706042	-1.500315	2.662867	0.000000	-0.279816	0.000000	0.000022	-0.000002	0.000000	0.000000
23.391289	15.920052	17.005070	1.196884	-1.149192	2.555800	0.000000	-0.206259	0.000000	0.000021	-0.000001	0.000000	0.000000
23.832249	15.068133	17.843870	0.742409	-0.745782	2.480620	0.000000	-0.135051	0.000000	0.000021	-0.000001	0.000000	0.000000
24.273209	14.600610	18.310516	0.321852	-0.308440	2.436471	0.000000	-0.065381	0.000000	0.000020	-0.000000	0.000000	0.000000
24.715418	14.496244	18.383530	-0.048545	0.097794	2.422847	0.000000	-0.002396	0.000000	0.000020	0.000000	0.000000	0.000000
25.012741	14.531224	18.330232	-0.069104	0.081466	2.422135	0.000000	-0.002396	0.000000	0.000020	0.000000	0.000000	0.000000
25.346075	14.584976	18.282023	-0.092152	0.063160	2.421336	0.000000	-0.002396	0.000000	0.000020	0.000000	0.000000	0.000000
25.679408	14.654094	18.246018	-0.115201	0.044855	2.420538	0.000000	-0.002396	0.000000	0.000021	0.000000	0.000000	0.000000
26.013991	14.738624	18.222520	-0.018767	-0.121349	2.419712	0.000000	-0.022026	0.000000	0.000021	0.000000	0.000000	0.000000
26.311314	14.755783	18.299602	-0.002768	-0.182773	2.413163	0.000000	-0.027943	0.000000	0.000021	0.000000	0.000000	0.000000
26.752274	14.940008	18.262353	-0.416599	0.266925	2.415949	0.000000	0.040593	0.000000	0.000021	0.000001	0.000000	0.000000
27.193234	15.496181	17.832367	-0.849462	0.704477	2.449030	0.000000	0.109592	0.000000	0.000021	0.000001	0.000000	0.000000
27.634194	16.449711	17.029209	-1.321135	1.109977	2.512783	0.000000	0.179838	0.000000	0.000022	0.000002	0.000000	0.000000
28.075154	17.844162	15.889422	-1.853167	1.464973	2.607932	0.000000	0.252133	0.000000	0.000023	0.000002	0.000000	0.000000
28.521114	19.767467	14.447692	-2.474837	1.754226	2.737166	0.000000	0.327743	0.000000	0.000024	0.000003	0.000000	0.000000
29.070174	22.211988	12.841392	-1.950999	1.188587	2.894455	0.000000	0.244358	0.000000	0.000025	0.000002	0.000000	0.000000
29.619234	24.001732	11.806376	-1.289353	0.707608	3.004702	0.000000	0.156638	0.000000	0.000026	0.000001	0.000000	0.000000
30.168294	25.010278	11.268922	-0.536633	0.277031	3.065951	0.000000	0.066140	0.000000	0.000026	0.000000	0.000000	0.000000
30.717354	25.166389	11.190749	0.253992	-0.133814	3.077116	0.000000	-0.025531	0.000000	0.000026	-0.000001	0.000000	0.000000
31.015927	25.057643	11.261252	0.175967	-0.131553	3.071894	0.000000	-0.017493	0.000000	0.000026	-0.000000	0.000000	0.000000
31.349260	24.944903	11.358992	0.162253	-0.161666	3.066063	0.000000	-0.017493	0.000000	0.000026	-0.000000	0.000000	0.000000
31.682593	24.841306	11.476807	0.148538	-0.191778	3.060232	0.000000	-0.017493	0.000000	0.000026	-0.000000	0.000000	0.000000
32.017177	24.746514	11.615251	0.134772	-0.222003	3.054380	0.000000	-0.017493	0.000000	0.000026	-0.000000	0.000000	0.000000
32.314499	24.670010	11.755250	0.058095	-0.218155	3.049179	0.000000	-0.009527	0.000000	0.000026	-0.000000	0.000000	0.000000
32.863559	24.183514	12.233994	0.822711	-0.658927	3.019070	0.000000	-0.099986	0.000000	0.000025	-0.000001	0.000000	0.000000
33.412619	22.884475	13.219538	1.529214	-1.146633	2.939709	0.000000	-0.188672	0.000000	0.000024	-0.000002	0.000000	0.000000
33.961679	20.864651	14.782078	2.127702	-1.716011	2.812503	0.000000	-0.274011	0.000000	0.000023	-0.000003	0.000000	0.000000
34.510739	18.266711	17.032912	2.575899	-2.407617	2.639708	0.000000	-0.354489	0.000000	0.000021	-0.000003	0.000000	0.000000
34.956699	16.246668	19.046225	1.969980	-2.088094	2.497961	0.000000	-0.281570	0.000000	0.000020	-0.000003	0.000000	0.000000
35.397659	14.740302	20.711631	1.459082	-1.674307	2.389180	0.000000	-0.212286	0.000000	0.000019	-0.000002	0.000000	0.000000
35.838619	13.653521	21.976997	1.014846	-1.184341	2.310389	0.000000	-0.145420	0.000000	0.000018	-0.000002	0.000000	0.000000
36.279579	12.936672	22.784748	0.616975	-0.640489	2.260690	0.000000	-0.080210	0.000000	0.000017	-0.000002	0.000000	0.000000
36.721789	12.556310	23.098443	0.277973	-0.124184	2.239491	0.000000	-0.021405	0.000000	0.000016	-0.000001	0.000000	0.000000
37.019112	12.398599	23.176175	0.252464	-0.137254	2.233127	0.000000	-0.021405	0.000000	0.000016	-0.000001	0.000000	0.000000
37.352445	12.239823	23.272562	0.223866	-0.151908	2.225992	0.000000	-0.021405	0.000000	0.000016	-0.000001	0.000000	0.000000
37.685779	12.100111	23.378719	0.195268	-0.166561	2.218858	0.000000	-0.021405	0.000000	0.000015	-0.000001	0.000000	0.000000
38.020362	11.979049	23.495097	0.166562	-0.181270	2.211697	0.000000	-0.021405	0.000000	0.000015	-0.000001	0.000000	0.000000
38.317684	11.887588	23.606775	0.170201	-0.252224	2.205333	0.000000	-0.026812	0.000000	0.000015	-0.000001	0.000000	0.000000
38.758644	11.889016	23.567730	-0.173451	0.340430	2.207436	0.000000	0.036358	0.000000	0.000014	-0.000001	0.000000	0.000000
39.199604	12.195854	23.010873	-0.525028	0.917595	2.237459	0.000000	0.099941	0.000000	0.000014	-0.000000	0.000000	0.000000
39.640564	12.822119	21.961538	-0.900592	1.453009	2.295743	0.000000	0.164663	0.000000	0.000014	-0.000000	0.000000	0.000000
40.081524	13.796426	20.467470	-1.317302	1.922313	2.382953	0.000000	0.231260	0.000000	0.000014	0.000000	0.000000	0.000000
40.527484	15.180864	18.574071	-1.798023	2.305439	2.501554	0.000000	0.300896	0.000000	0.000014	0.000001	0.000000	0.000000
41.076544	16.947478	16.446310	-1.400455	1.592715	2.646237	0.000000	0.225350	0.000000	0.000014	0.000000	0.000000	0.000000
41.625604	18.220277	15.034691	-0.903965	0.993436	2.748281	0.000000	0.145805	0.000000	0.000014	-0.000000	0.000000	0.000000
42.174664	18.909357	14.238666	-0.343624	0.464917	2.805874	0.000000	0.063675	0.000000	0.000014	-0.000001	0.000000	0.000000
42.723724	18.966045	14.001537	0.240989	-0.030486	2.817997	0.000000	-0.019584	0.000000	0.000013	-0.000001	0.000000	0.000000
43.022297	18.856600	14.004266	0.175121	-0.015232	2.814348	0.000000	-0.012222	0.000000	0.000013	-0.000001	0.000000	0.000000
43.502297	18.701077	14.035344	0.148885	-0.049515	2.808482	0.000000	-0.012222	0.000000	0.000012	-0.000001	0.000000	0.000000
43.982297	18.570741	14.099334	0.122649	-0.083798	2.802616	0.000000	-0.012222	0.000000	0.000012	-0.000001	0.000000	0.000000
44.462297	18.465591	14.196237	0.096413	-0.118081	2.796750	0.000000	-0.012222	0.000000	0.000011	-0.000001	0.000000	0.000000
44.942297	18.385628	14.326051	0.070177	-0.152365	2.790883	0.000000	-0.012222	0.000000	0.000011	-0.000001	0.000000	0.000000
45.423547	18.330968	14.489064	-0.046949	-0.114949	2.785019	0.000000	0.001576	0.000000	0.000010	-0.000001	0.000000	0.000000
45.720870	18.363719	14.563600	-0.111181	-0.097692	2.785488	0.000000	0.008854	0.000000	0.000010	-0.000001	0.000000	0.000000
46.269930	18.176608	14.952502	0.449948	-0.614793	2.767781	0.000000	-0.073262	0.000000	0.000009	-0.000001	0.000000	0.000000
46.818990	17.387195	15.929812	0.979295	-1.175684	2.705277	0.000000	-0.154079	0.000000	0.000008	-0.000002	0.000000	0.000000
47.368050	16.051239	17.565143	1.439470	-1.820316	2.599087	0.000000	-0.232162	0.000000	0.000007	-0.000002	0.000000	0.000000
47.917110	14.263106	19.974976	1.797967	-2.594605	2.451094	0.000000	-0.306128	0.000000	0.000006	-0.000002	0.000000	0.000000
48.363070	12.871660	22.117460	1.333201	-2.189405	2.329865	0.000000	-0.237835	0.000000	0.000005	-0.000002	0.000000	0.000000
48.804030	11.876082	23.832827	0.933116	-1.685865	2.239448	0.000000	-0.172647	0.000000	0.000004	-0.000002	0.000000	0.000000
49.244990	11.213285	25.068461	0.575662	-1.105618	2.177317	0.000000	-0.109426	0.000000	0.000004	-0.000002	0.000000	0.000000
49.685950	10.852989	25.768143	0.244508	-0.475067	2.142762	0.000000	-0.047452	0.000000	0.000003	-0.000002	0.000000	0.000000
50.128160	10.778856	25.899753	-0.049159	0.113537	2.135401	0.000000	0.008746	0.000000	0.000002	-0.000002	0.000000	0.000000
50.425482	10.816310	25.835696	-0.076809	0.101910	2.138002	0.000000	0.008746	0.000000	0.000002	-0.000002	0.000000	0.000000
50.758816	10.877849	25.772101	-0.107809	0.088873	2.140918	0.000000	0.008746	0.000000	0.000001	-0.000002	0.000000	0.000000
51.092149	10.960054	25.717198	-0.138808	0.075837	2.143834	0.000000	0.008746	0.000000	0.000001	-0.000002	0.000000	0.000000
51.426732	11.063127	25.671349	-0.080173	-0.145506	2.146739	0.000000	-0.008670	0.000000	0.000000	-0.000002	0.000000	0.000000
51.724055	11.118843	25.761389	-0.079954	-0.220508	2.144162	0.000000	-0.013928	0.000000	-0.000000	-0.000002	0.000000	0.000000
52.165015	11.334555	25.669237	-0.411090	0.428695	2.151609	0.000000	0.047734	0.000000	-0.000001	-0.000002	0.000000	0.000000
52.605975	11.849449	25.010985	-0.761007	1.058394	2.186340	0.000000	0.109939	0.000000	-0.000002	-0.000002	0.000000	0.000000
53.046935	12.687049	23.816584	-1.145693	1.639936	2.248751	0.000000	0.173396	0.000000	-0.000003	-0.000002	0.000000	0.000000
53.487895	13.885623	22.140379	-1.582722	2.146863	2.339552	0.000000	0.238828	0.000000	-0.000003	-0.000002	0.000000	0.000000
53.933855	15.520480	20.033575	-2.096286	2.557447	2.461283	0.000000	0.307379	0.000000	-0.000004	-0.000002	0.000000	0.000000
54.482915	17.625356	17.662832	-1.714621	1.785861	2.609873	0.000000	0.233073	0.000000	-0.000005	-0.000002	0.000000	0.000000
55.031975	19.241728	16.064979	-1.211844	1.141477	2.716468	0.000000	0.154634	0.000000	-0.000006	-0.000002	0.000000	0.000000
55.581035	20.255425	15.126206	-0.623468	0.578399	2.779177	0.000000	0.073452	0.000000	-0.000007	-0.000001	0.000000	0.000000
56.130095	20.594843	14.779643	0.008946	0.056518	2.796889	0.000000	-0.009034	0.000000	-0.000008	-0.000001	0.000000	0.000000
56.428668	20.625973	14.728919	-0.059394	0.074753	2.796374	0.000000	-0.001725	0.000000	-0.000008	-0.000001	0.000000	0.000000
56.762001	20.670975	14.686669	-0.075612	0.051996	2.795799	0.000000	-0.001725	0.000000	-0.000008	-0.000001	0.000000	0.000000
57.095334	20.726789	14.659591	-0.091830	0.029238	2.795224	0.000000	-0.001725	0.000000	-0.000009	-0.000001	0.000000	0.000000
57.429918	20.793685	14.647669	-0.108109	0.006395	2.794647	0.000000	-0.001725	0.000000	-0.000009	-0.000001	0.000000	0.000000
57.727240	20.862272	14.649902	-0.177088	0.024376	2.794135	0.000000	0.005576	0.000000	-0.000009	-0.000001	0.000000	0.000000
58.276300	20.700853	14.904399	0.469339	-0.490626	2.774556	0.000000	-0.076790	0.000000	-0.000010	-0.000001	0.000000	0.000000
58.825360	19.843664	15.740187	1.082614	-1.040575	2.710061	0.000000	-0.157794	0.000000	-0.000010	-0.000001	0.000000	0.000000
59.374420	18.351251	17.216796	1.619419	-1.664641	2.601794	0.000000	-0.235998	0.000000	-0.000011	-0.000000	0.000000	0.000000
59.923480	16.329032	19.439403	2.041836	-2.407276	2.451676	0.000000	-0.310017	0.000000	-0.000011	0.000000	0.000000	0.000000
60.369440	14.746296	21.414838	1.519786	-2.003649	2.328711	0.000000	-0.241732	0.000000	-0.000011	-0.000000	0.000000	0.000000
60.810400	13.608018	22.970239	1.071371	-1.510234	2.236566	0.000000	-0.176596	0.000000	-0.000011	-0.000000	0.000000	0.000000
61.251360	12.842209	24.058409	0.671903	-0.948105	2.172673	0.000000	-0.113472	0.000000	-0.000011	-0.000001	0.000000	0.000000
61.692320	12.413882	24.629838	0.303133	-0.342838	2.136303	0.000000	-0.051641	0.000000	-0.000011	-0.000001	0.000000	0.000000
62.134530	12.303522	24.657982	-0.021715	0.217498	2.127049	0.000000	0.004386	0.000000	-0.000012	-0.000001	0.000000	0.000000
62.431853	12.323623	24.532402	-0.045892	0.204870	2.128354	0.000000	0.004386	0.000000	-0.000012	-0.000001	0.000000	0.000000
62.765186	12.363252	24.400541	-0.072997	0.190712	2.129816	0.000000	0.004386	0.000000	-0.000012	-0.000001	0.000000	0.000000
63.098520	12.420952	24.278119	-0.100102	0.176555	2.131278	0.000000	0.004386	0.000000	-0.000013	-0.000001	0.000000	0.000000
63.433103	12.497040	24.164729	-0.127309	0.162344	2.132746	0.000000	0.004386	0.000000	-0.000013	-0.000001	0.000000	0.000000
63.730426	12.579932	24.071947	-0.120633	0.090676	2.134051	0.000000	-0.000848	0.000000	-0.000014	-0.000001	0.000000	0.000000
64.171386	12.846555	23.726885	-0.486304	0.688870	2.147218	0.000000	0.060626	0.000000	-0.000014	-0.000002	0.000000	0.000000
64.612346	13.444212	22.866123	-0.874193	1.255722	2.187620	0.000000	0.122791	0.000000	-0.000015	-0.000002	0.000000	0.000000
65.053306	14.400208	21.528823	-1.302021	1.765439	2.255717	0.000000	0.186354	0.000000	-0.000016	-0.000002	0.000000	0.000000
65.494266	15.758220	19.775833	-1.789335	2.194830	2.352283	0.000000	0.252040	0.000000	-0.000017	-0.000003	0.000000	0.000000
65.940226	17.603454	17.662112	-2.363090	2.525109	2.479992	0.000000	0.320999	0.000000	-0.000018	-0.000003	0.000000	0.000000
66.489286	19.968999	15.297576	-1.919764	1.806829	2.635873	0.000000	0.245969	0.000000	-0.000020	-0.000003	0.000000	0.000000
67.038346	21.769923	13.646922	-1.340836	1.217245	2.749297	0.000000	0.166577	0.000000	-0.000021	-0.000002	0.000000	0.000000
67.587406	22.879018	12.592578	-0.667197	0.714363	2.818253	0.000000	0.084229	0.000000	-0.000022	-0.000001	0.000000	0.000000
68.136466	23.217943	12.059444	0.053568	0.262363	2.841518	0.000000	0.000388	0.000000	-0.000023	-0.000000	0.000000	0.000000
68.435038	23.226027	11.891987	-0.019968	0.266981	2.843851	0.000000	0.007814	0.000000	-0.000023	-0.000001	0.000000	0.000000
68.768372	23.244125	11.724008	-0.034325	0.236953	2.846456	0.000000	0.007814	0.000000	-0.000023	-0.000001	0.000000	0.000000
69.101705	23.271794	11.576049	-0.048682	0.206925	2.849061	0.000000	0.007814	0.000000	-0.000023	-0.000001	0.000000	0.000000
69.436288	23.309192	11.447666	-0.063094	0.176785	2.851676	0.000000	0.007814	0.000000	-0.000023	-0.000001	0.000000	0.000000
69.733611	23.350518	11.350505	-0.136923	0.179663	2.853999	0.000000	0.015272	0.000000	-0.000023	-0.000001	0.000000	0.000000
70.282671	23.099834	11.380575	0.590789	-0.234753	2.839197	0.000000	-0.069110	0.000000	-0.000024	0.000000	0.000000	0.000000
