#ParticleID	Turn	x[m]	xp	y[m]	yp	z[m]	dE[GeV]# s	beta_x	beta_y	alpha_x	alpha_y	D_x	D_y	D_px	D_py	orbit_x	orbit_px	orbit_y	orbit_py
0.300000	11.809549	25.035194	-0.010634	-0.027074	2.618171	0.000000	-0.000011	0.000000	-0.000002	0.000001	0.000000	0.000000
0.601250	11.823641	25.055134	-0.036146	-0.039116	2.618167	0.000000	-0.000011	0.000000	-0.000001	0.000001	0.000000	0.000000
0.898573	11.852621	25.081928	-0.032259	-0.112509	2.618164	0.000000	-0.006431	0.000000	-0.000001	0.000001	0.000000	0.000000
1.339533	12.033150	24.902917	-0.378694	0.516922	2.631621	0.000000	0.067527	0.000000	-0.000000	0.000001	0.000000	0.000000
1.780493	12.525653	24.177087	-0.742430	1.122834	2.677829	0.000000	0.142255	0.000000	0.000001	0.000001	0.000000	0.000000
2.221453	13.352629	22.937465	-1.140085	1.677658	2.757315	0.000000	0.218603	0.000000	0.000001	0.000001	0.000000	0.000000
2.662413	14.551863	21.240451	-1.589828	2.156150	2.870983	0.000000	0.297440	0.000000	0.000002	0.000002	0.000000	0.000000
3.108373	16.198876	19.138373	-2.116493	2.537671	3.021990	0.000000	0.380155	0.000000	0.000003	0.000002	0.000000	0.000000
3.657433	18.310914	16.777405	-1.707379	1.787729	3.205445	0.000000	0.287117	0.000000	0.000003	0.000001	0.000000	0.000000
4.206493	19.904409	15.165627	-1.177664	1.165122	3.336342	0.000000	0.188987	0.000000	0.000004	0.000001	0.000000	0.000000
4.755553	20.866804	14.188234	-0.564764	0.625504	3.412358	0.000000	0.087504	0.000000	0.000005	0.000001	0.000000	0.000000
5.304613	21.130120	13.775611	0.088027	0.130440	3.432145	0.000000	-0.015531	0.000000	0.000006	0.000001	0.000000	0.000000
5.603185	21.114745	13.682878	0.018675	0.144157	3.430185	0.000000	-0.006564	0.000000	0.000006	0.000001	0.000000	0.000000
5.936519	21.107559	13.595062	0.002883	0.119289	3.427997	0.000000	-0.006564	0.000000	0.000006	0.000001	0.000000	0.000000
6.269852	21.110901	13.523825	-0.012909	0.094422	3.425809	0.000000	-0.006564	0.000000	0.000007	0.000001	0.000000	0.000000
6.604435	21.124843	13.468993	-0.028761	0.069461	3.423612	0.000000	-0.006564	0.000000	0.000007	0.000001	0.000000	0.000000
6.901758	21.146133	13.434283	-0.098094	0.082379	3.421661	0.000000	0.002376	0.000000	0.000007	0.000001	0.000000	0.000000
7.450818	20.893475	13.604700	0.555536	-0.394590	3.394764	0.000000	-0.100204	0.000000	0.000008	0.000001	0.000000	0.000000
7.999878	19.940451	14.311153	1.169927	-0.899664	3.311950	0.000000	-0.201006	0.000000	0.000008	0.000001	0.000000	0.000000
8.548938	18.354378	15.603962	1.701679	-1.468820	3.174689	0.000000	-0.298243	0.000000	0.000008	0.000000	0.000000	0.000000
9.097998	16.247288	17.575211	2.113234	-2.142597	2.985415	0.000000	-0.390190	0.000000	0.000009	0.000000	0.000000	0.000000
9.543958	14.603396	19.331680	1.586060	-1.779378	2.829712	0.000000	-0.308485	0.000000	0.000009	0.000000	0.000000	0.000000
9.984918	13.407773	20.710877	1.135635	-1.336434	2.710929	0.000000	-0.230777	0.000000	0.000009	0.000000	0.000000	0.000000
10.425878	12.585095	21.671024	0.737095	-0.832683	2.625799	0.000000	-0.155698	0.000000	0.000009	0.000001	0.000000	0.000000
10.866838	12.097776	22.168436	0.372230	-0.291046	2.573354	0.000000	-0.082393	0.000000	0.000009	0.000001	0.000000	0.000000
11.309048	11.923418	22.179958	0.053503	0.209387	2.552977	0.000000	-0.016285	0.000000	0.000010	0.000001	0.000000	0.000000
11.606371	11.899038	22.059607	0.028496	0.195394	2.548134	0.000000	-0.016285	0.000000	0.000010	0.000001	0.000000	0.000000
12.086371	11.891061	21.882872	-0.011877	0.172804	2.540317	0.000000	-0.016285	0.000000	0.000011	0.000001	0.000000	0.000000
12.566371	11.921841	21.727823	-0.052249	0.150214	2.532499	0.000000	-0.016285	0.000000	0.000011	0.000001	0.000000	0.000000
13.046371	11.991378	21.594461	-0.092621	0.127624	2.524682	0.000000	-0.016285	0.000000	0.000012	0.000001	0.000000	0.000000
13.526371	12.099673	21.482785	-0.132993	0.105034	2.516865	0.000000	-0.016285	0.000000	0.000012	0.000001	0.000000	0.000000
14.007621	12.247158	21.392589	-0.173470	0.082386	2.509027	0.000000	-0.016285	0.000000	0.000013	0.000001	0.000000	0.000000
14.304943	12.357747	21.347759	-0.168177	0.016049	2.504184	0.000000	-0.022425	0.000000	0.000013	0.000001	0.000000	0.000000
14.745903	12.664581	21.099962	-0.530295	0.543761	2.509926	0.000000	0.048495	0.000000	0.000014	0.000001	0.000000	0.000000
15.186863	13.300212	20.395939	-0.916642	1.046732	2.547033	0.000000	0.119968	0.000000	0.000015	0.000002	0.000000	0.000000
15.627823	14.293678	19.267722	-1.344867	1.502078	2.615927	0.000000	0.192808	0.000000	0.000016	0.000002	0.000000	0.000000
16.068783	15.690369	17.766644	-1.834535	1.889081	2.717394	0.000000	0.267843	0.000000	0.000017	0.000003	0.000000	0.000000
16.514743	17.577756	15.939502	-2.412776	2.190875	2.854283	0.000000	0.346391	0.000000	0.000018	0.000003	0.000000	0.000000
17.063803	20.001884	13.899361	-1.976138	1.546753	3.020742	0.000000	0.259062	0.000000	0.000019	0.000002	0.000000	0.000000
17.612863	21.866579	12.502259	-1.399915	1.012802	3.137918	0.000000	0.167139	0.000000	0.000021	0.000002	0.000000	0.000000
18.161923	23.040127	11.648681	-0.724808	0.550990	3.203734	0.000000	0.072251	0.000000	0.000021	0.000001	0.000000	0.000000
18.710983	23.439635	11.277831	0.001495	0.128425	3.217022	0.000000	-0.023919	0.000000	0.000022	0.000000	0.000000	0.000000
19.009556	23.479123	11.191651	-0.072521	0.130752	3.212389	0.000000	-0.015515	0.000000	0.000022	0.000001	0.000000	0.000000
19.342889	23.532228	11.114581	-0.086792	0.100459	3.207217	0.000000	-0.015515	0.000000	0.000022	0.000001	0.000000	0.000000
19.676223	23.594846	11.057706	-0.101064	0.070165	3.202045	0.000000	-0.015515	0.000000	0.000022	0.000001	0.000000	0.000000
20.010806	23.667561	11.020791	-0.232651	0.094362	3.196874	0.000000	0.000324	0.000000	0.000023	0.000001	0.000000	0.000000
20.308129	23.809843	10.972771	-0.308093	0.095808	3.196970	0.000000	0.008676	0.000000	0.000023	0.000001	0.000000	0.000000
20.857189	23.737500	11.089599	0.439072	-0.309841	3.175515	0.000000	-0.086712	0.000000	0.000023	-0.000000	0.000000	0.000000
21.406249	22.856923	11.661310	1.155223	-0.737560	3.102032	0.000000	-0.180562	0.000000	0.000023	-0.000001	0.000000	0.000000
21.955309	21.230313	12.728628	1.789774	-1.217814	2.977825	0.000000	-0.271209	0.000000	0.000022	-0.000002	0.000000	0.000000
22.504369	18.972566	14.367574	2.297905	-1.784809	2.805097	0.000000	-0.357045	0.000000	0.000021	-0.000002	0.000000	0.000000
22.950329	17.193204	15.839100	1.706137	-1.500950	2.663163	0.000000	-0.279839	0.000000	0.000020	-0.000002	0.000000	0.000000
23.391289	15.917867	17.012374	1.197015	-1.149651	2.556087	0.000000	-0.206274	0.000000	0.000020	-0.000001	0.000000	0.000000
23.832249	15.065815	17.851493	0.742582	-0.746045	2.480903	0.000000	-0.135058	0.000000	0.000019	-0.000001	0.000000	0.000000
24.273209	14.598118	18.318279	0.322074	-0.308493	2.436752	0.000000	-0.065381	0.000000	0.000019	-0.000000	0.000000	0.000000
24.715418	14.493530	18.391247	-0.048269	0.097932	2.423130	0.000000	-0.002389	0.000000	0.000019	0.000000	0.000000	0.000000
25.012741	14.528347	18.337865	-0.068831	0.081610	2.422420	0.000000	-0.002389	0.000000	0.000019	0.000000	0.000000	0.000000
25.346075	14.581918	18.289558	-0.091883	0.063312	2.421623	0.000000	-0.002389	0.000000	0.000019	0.000000	0.000000	0.000000
25.679408	14.650858	18.253449	-0.114936	0.045014	2.420827	0.000000	-0.002389	0.000000	0.000019	0.000000	0.000000	0.000000
26.013991	14.735212	18.229842	-0.018533	-0.121243	2.420003	0.000000	-0.022022	0.000000	0.000019	0.000000	0.000000	0.000000
26.311314	14.752234	18.306859	-0.002547	-0.182678	2.413455	0.000000	-0.027939	0.000000	0.000019	0.000000	0.000000	0.000000
26.752274	14.936225	18.269440	-0.416287	0.267215	2.416245	0.000000	0.040604	0.000000	0.000020	0.000001	0.000000	0.000000
27.193234	15.492079	17.839117	-0.849047	0.704949	2.449332	0.000000	0.109611	0.000000	0.000020	0.000001	0.000000	0.000000
27.634194	16.445189	17.035470	-1.320596	1.110609	2.513095	0.000000	0.179865	0.000000	0.000020	0.000002	0.000000	0.000000
28.075154	17.839102	15.895064	-1.852481	1.465737	2.608258	0.000000	0.252168	0.000000	0.000021	0.000002	0.000000	0.000000
28.521114	19.761716	14.452607	-2.473969	1.755087	2.737509	0.000000	0.327787	0.000000	0.000022	0.000003	0.000000	0.000000
29.070174	22.205364	12.845473	-1.950285	1.189255	2.894819	0.000000	0.244390	0.000000	0.000024	0.000002	0.000000	0.000000
29.619234	23.994431	11.809807	-1.288843	0.708132	3.005080	0.000000	0.156658	0.000000	0.000024	0.000001	0.000000	0.000000
30.168294	25.002547	11.271840	-0.536363	0.277447	3.066337	0.000000	0.066148	0.000000	0.000025	0.000000	0.000000	0.000000
30.717354	25.158502	11.193256	0.254003	-0.133476	3.077503	0.000000	-0.025536	0.000000	0.000025	-0.000000	0.000000	0.000000
31.015927	25.049739	11.263551	0.175994	-0.131201	3.072279	0.000000	-0.017496	0.000000	0.000025	-0.000000	0.000000	0.000000
31.349260	24.936983	11.361053	0.162275	-0.161304	3.066447	0.000000	-0.017496	0.000000	0.000025	-0.000000	0.000000	0.000000
31.682593	24.833372	11.478623	0.148556	-0.191408	3.060615	0.000000	-0.017496	0.000000	0.000025	-0.000000	0.000000	0.000000
32.017177	24.738571	11.616817	0.134786	-0.221624	3.054761	0.000000	-0.017496	0.000000	0.000024	-0.000000	0.000000	0.000000
32.314499	24.662059	11.756588	0.058125	-0.217764	3.049559	0.000000	-0.009530	0.000000	0.000024	-0.000000	0.000000	0.000000
32.863559	24.175676	12.234914	0.822478	-0.658552	3.019446	0.000000	-0.100001	0.000000	0.000024	-0.000001	0.000000	0.000000
33.412619	22.877030	13.220042	1.528736	-1.146247	2.940073	0.000000	-0.188699	0.000000	0.000023	-0.000002	0.000000	0.000000
33.961679	20.857852	14.782141	2.127011	-1.715587	2.812849	0.000000	-0.274049	0.000000	0.000022	-0.000003	0.000000	0.000000
34.510739	18.260766	17.032475	2.575044	-2.407125	2.640030	0.000000	-0.354539	0.000000	0.000020	-0.000003	0.000000	0.000000
34.956699	16.241401	19.045332	1.969309	-2.087567	2.498262	0.000000	-0.281611	0.000000	0.000019	-0.000003	0.000000	0.000000
35.397659	14.735559	20.710267	1.458561	-1.673771	2.389465	0.000000	-0.212320	0.000000	0.000018	-0.000002	0.000000	0.000000
35.838619	13.649180	21.975164	1.014452	-1.183820	2.310660	0.000000	-0.145446	0.000000	0.000017	-0.000002	0.000000	0.000000
36.279579	12.932630	22.782471	0.616690	-0.640006	2.260951	0.000000	-0.080230	0.000000	0.000016	-0.000001	0.000000	0.000000
36.721789	12.552477	23.095764	0.277775	-0.123755	2.239745	0.000000	-0.021418	0.000000	0.000016	-0.000001	0.000000	0.000000
37.019112	12.394885	23.173240	0.252261	-0.136825	2.233377	0.000000	-0.021418	0.000000	0.000015	-0.000001	0.000000	0.000000
37.352445	12.236246	23.269342	0.223656	-0.151479	2.226238	0.000000	-0.021418	0.000000	0.000015	-0.000001	0.000000	0.000000
37.685779	12.096677	23.375212	0.195052	-0.166133	2.219099	0.000000	-0.021418	0.000000	0.000015	-0.000001	0.000000	0.000000
38.020362	11.975760	23.491304	0.166341	-0.180841	2.211933	0.000000	-0.021418	0.000000	0.000014	-0.000001	0.000000	0.000000
38.317684	11.884432	23.602727	0.169967	-0.251786	2.205565	0.000000	-0.026826	0.000000	0.000014	-0.000001	0.000000	0.000000
38.758644	11.886035	23.563345	-0.173616	0.340755	2.207663	0.000000	0.036349	0.000000	0.000014	-0.000001	0.000000	0.000000
39.199604	12.192990	23.006256	-0.525131	0.917791	2.237684	0.000000	0.099939	0.000000	0.000013	-0.000000	0.000000	0.000000
39.640564	12.819321	21.956808	-0.900637	1.453069	2.295969	0.000000	0.164666	0.000000	0.000013	-0.000000	0.000000	0.000000
40.081524	13.793643	20.462749	-1.317292	1.922233	2.383181	0.000000	0.231269	0.000000	0.000013	0.000000	0.000000	0.000000
40.527484	15.178046	18.569483	-1.797957	2.305222	2.501788	0.000000	0.300912	0.000000	0.000014	0.000001	0.000000	0.000000
41.076544	16.944649	16.441891	-1.400501	1.592623	2.646477	0.000000	0.225357	0.000000	0.000014	0.000000	0.000000	0.000000
41.625604	18.217559	15.030307	-0.904120	0.993463	2.748522	0.000000	0.145805	0.000000	0.000014	-0.000000	0.000000	0.000000
42.174664	18.906864	14.234187	-0.343876	0.465065	2.806114	0.000000	0.063667	0.000000	0.000014	-0.000001	0.000000	0.000000
42.723724	18.963875	13.996825	0.240657	-0.030208	2.818230	0.000000	-0.019600	0.000000	0.000013	-0.000001	0.000000	0.000000
43.022297	18.854625	13.999397	0.174794	-0.014973	2.814576	0.000000	-0.012237	0.000000	0.000013	-0.000001	0.000000	0.000000
43.502297	18.699416	14.030232	0.148558	-0.049268	2.808703	0.000000	-0.012237	0.000000	0.000012	-0.000001	0.000000	0.000000
43.982297	18.569393	14.093991	0.122322	-0.083562	2.802829	0.000000	-0.012237	0.000000	0.000012	-0.000001	0.000000	0.000000
44.462297	18.464557	14.190672	0.096087	-0.117857	2.796956	0.000000	-0.012237	0.000000	0.000011	-0.000001	0.000000	0.000000
44.942297	18.384907	14.320277	0.069851	-0.152152	2.791082	0.000000	-0.012237	0.000000	0.000011	-0.000001	0.000000	0.000000
45.423547	18.330561	14.483091	-0.047273	-0.114778	2.785211	0.000000	0.001562	0.000000	0.000010	-0.000001	0.000000	0.000000
45.720870	18.363505	14.557528	-0.111506	-0.097545	2.785676	0.000000	0.008840	0.000000	0.000010	-0.000001	0.000000	0.000000
46.269930	18.176751	14.946166	0.449626	-0.614457	2.767959	0.000000	-0.073282	0.000000	0.000009	-0.000001	0.000000	0.000000
46.818990	17.387680	15.922994	0.978998	-1.175136	2.705444	0.000000	-0.154104	0.000000	0.000009	-0.000002	0.000000	0.000000
47.368050	16.052027	17.557589	1.439218	-1.819517	2.599238	0.000000	-0.232192	0.000000	0.000008	-0.000002	0.000000	0.000000
47.917110	14.264137	19.966380	1.797779	-2.593498	2.451227	0.000000	-0.306163	0.000000	0.000007	-0.000002	0.000000	0.000000
48.363070	12.872858	22.107960	1.333013	-2.188492	2.329983	0.000000	-0.237866	0.000000	0.000006	-0.000002	0.000000	0.000000
48.804030	11.877448	23.822621	0.932919	-1.685186	2.239553	0.000000	-0.172676	0.000000	0.000005	-0.000002	0.000000	0.000000
49.244990	11.214833	25.057773	0.575446	-1.105206	2.177409	0.000000	-0.109453	0.000000	0.000004	-0.000002	0.000000	0.000000
49.685950	10.854739	25.757215	0.244265	-0.474939	2.142843	0.000000	-0.047476	0.000000	0.000003	-0.000002	0.000000	0.000000
50.128160	10.780838	25.888841	-0.049437	0.113402	2.135473	0.000000	0.008724	0.000000	0.000003	-0.000002	0.000000	0.000000
50.425482	10.818456	25.824865	-0.077083	0.101770	2.138067	0.000000	0.008724	0.000000	0.000002	-0.000002	0.000000	0.000000
50.758816	10.880176	25.761366	-0.108078	0.088728	2.140975	0.000000	0.008724	0.000000	0.000002	-0.000002	0.000000	0.000000
51.092149	10.962559	25.706561	-0.139072	0.075687	2.143884	0.000000	0.008724	0.000000	0.000001	-0.000002	0.000000	0.000000
51.426732	11.065806	25.660814	-0.080410	-0.145576	2.146781	0.000000	-0.008692	0.000000	0.000001	-0.000002	0.000000	0.000000
51.724055	11.121662	25.750897	-0.080179	-0.220557	2.144197	0.000000	-0.013950	0.000000	0.000000	-0.000002	0.000000	0.000000
52.165015	11.337602	25.658910	-0.411384	0.428370	2.151635	0.000000	0.047712	0.000000	-0.000000	-0.000002	0.000000	0.000000
52.605975	11.852792	25.001062	-0.761385	1.057808	2.186356	0.000000	0.109917	0.000000	-0.000001	-0.000002	0.000000	0.000000
53.046935	12.690769	23.807284	-1.146171	1.639115	2.248758	0.000000	0.173375	0.000000	-0.000002	-0.000002	0.000000	0.000000
53.487895	13.889817	22.131893	-1.583323	2.145845	2.339550	0.000000	0.238807	0.000000	-0.000002	-0.000002	0.000000	0.000000
53.933855	15.525274	20.026068	-2.097038	2.556278	2.461271	0.000000	0.307358	0.000000	-0.000003	-0.000002	0.000000	0.000000
54.482915	17.630910	17.656443	-1.715245	1.784982	2.609850	0.000000	0.233053	0.000000	-0.000004	-0.000002	0.000000	0.000000
55.031975	19.247877	16.059426	-1.212296	1.140827	2.716434	0.000000	0.154614	0.000000	-0.000005	-0.000001	0.000000	0.000000
55.581035	20.261960	15.121263	-0.623716	0.577930	2.779133	0.000000	0.073433	0.000000	-0.000006	-0.000001	0.000000	0.000000
56.130095	20.601530	14.775132	0.008920	0.056198	2.796834	0.000000	-0.009050	0.000000	-0.000006	-0.000001	0.000000	0.000000
56.428668	20.632684	14.724607	-0.059433	0.074416	2.796315	0.000000	-0.001742	0.000000	-0.000007	-0.000001	0.000000	0.000000
56.762001	20.677711	14.682584	-0.075646	0.051652	2.795734	0.000000	-0.001742	0.000000	-0.000007	-0.000001	0.000000	0.000000
57.095334	20.733545	14.655737	-0.091858	0.028889	2.795154	0.000000	-0.001742	0.000000	-0.000007	-0.000001	0.000000	0.000000
57.429918	20.800459	14.644050	-0.108132	0.006041	2.794571	0.000000	-0.001742	0.000000	-0.000008	-0.000001	0.000000	0.000000
57.727240	20.869058	14.646495	-0.177124	0.024008	2.794053	0.000000	0.005559	0.000000	-0.000008	-0.000001	0.000000	0.000000
58.276300	20.707553	14.901345	0.469530	-0.490905	2.774466	0.000000	-0.076804	0.000000	-0.000009	-0.000001	0.000000	0.000000
58.825360	19.850035	15.737399	1.083018	-1.040783	2.709964	0.000000	-0.157805	0.000000	-0.000009	-0.000001	0.000000	0.000000
59.374420	18.357074	17.214206	1.620008	-1.664794	2.601692	0.000000	-0.236007	0.000000	-0.000009	-0.000000	0.000000	0.000000
59.923480	16.334125	19.436956	2.042568	-2.407385	2.451570	0.000000	-0.310022	0.000000	-0.000009	0.000000	0.000000	0.000000
60.369440	14.750807	21.412530	1.520364	-2.003850	2.328603	0.000000	-0.241739	0.000000	-0.000009	-0.000000	0.000000	0.000000
60.810400	13.612077	22.968145	1.071822	-1.510518	2.236454	0.000000	-0.176607	0.000000	-0.000009	-0.000000	0.000000	0.000000
61.251360	12.845919	24.056597	0.672248	-0.948458	2.172555	0.000000	-0.113486	0.000000	-0.000010	-0.000001	0.000000	0.000000
61.692320	12.417328	24.628362	0.303388	-0.343244	2.136179	0.000000	-0.051657	0.000000	-0.000010	-0.000001	0.000000	0.000000
62.134530	12.306778	24.656882	-0.021530	0.217061	2.126917	0.000000	0.004366	0.000000	-0.000010	-0.000001	0.000000	0.000000
62.431853	12.326767	24.531562	-0.045701	0.204434	2.128216	0.000000	0.004366	0.000000	-0.000011	-0.000001	0.000000	0.000000
62.765186	12.366267	24.399991	-0.072799	0.190278	2.129672	0.000000	0.004366	0.000000	-0.000011	-0.000001	0.000000	0.000000
63.098520	12.423832	24.277857	-0.099897	0.176123	2.131127	0.000000	0.004366	0.000000	-0.000012	-0.000001	0.000000	0.000000
63.433103	12.499780	24.164756	-0.127096	0.161914	2.132589	0.000000	0.004366	0.000000	-0.000012	-0.000001	0.000000	0.000000
63.730426	12.582544	24.072229	-0.120407	0.090248	2.133887	0.000000	-0.000867	0.000000	-0.000012	-0.000001	0.000000	0.000000
64.171386	12.848992	23.727538	-0.486132	0.688461	2.147046	0.000000	0.060603	0.000000	-0.000013	-0.000001	0.000000	0.000000
64.612346	13.446518	22.867122	-0.874066	1.255349	2.187437	0.000000	0.122763	0.000000	-0.000014	-0.000002	0.000000	0.000000
65.053306	14.402420	21.530128	-1.301934	1.765121	2.255520	0.000000	0.186322	0.000000	-0.000015	-0.000002	0.000000	0.000000
65.494266	15.760372	19.777389	-1.789284	2.194580	2.352070	0.000000	0.252002	0.000000	-0.000016	-0.000003	0.000000	0.000000
65.940226	17.605575	17.663855	-2.363073	2.524940	2.479761	0.000000	0.320955	0.000000	-0.000017	-0.000003	0.000000	0.000000
66.489286	19.971049	15.299511	-1.919652	1.806647	2.635620	0.000000	0.245933	0.000000	-0.000018	-0.000002	0.000000	0.000000
67.038346	21.771802	13.649069	-1.340637	1.217037	2.749026	0.000000	0.166549	0.000000	-0.000019	-0.000002	0.000000	0.000000
67.587406	22.880638	12.594974	-0.666927	0.714114	2.817970	0.000000	0.084211	0.000000	-0.000020	-0.000001	0.000000	0.000000
68.136466	23.219235	12.062144	0.053892	0.262055	2.841227	0.000000	0.000379	0.000000	-0.000021	-0.000000	0.000000	0.000000
68.435038	23.227127	11.894864	-0.019646	0.266691	2.843557	0.000000	0.007804	0.000000	-0.000021	-0.000001	0.000000	0.000000
68.768372	23.245009	11.727075	-0.034002	0.236674	2.846159	0.000000	0.007804	0.000000	-0.000021	-0.000001	0.000000	0.000000
69.101705	23.272463	11.579298	-0.048359	0.206658	2.848760	0.000000	0.007804	0.000000	-0.000021	-0.000001	0.000000	0.000000
69.436288	23.309644	11.451090	-0.062769	0.176529	2.851371	0.000000	0.007804	0.000000	-0.000021	-0.000001	0.000000	0.000000
69.733611	23.350777	11.354078	-0.136597	0.179427	2.853692	0.000000	0.015261	0.000000	-0.000022	-0.000001	0.000000	0.000000
70.282671	23.099734	11.384464	0.591114	-0.235094	2.838887	0.000000	-0.069111	0.000000	-0.000022	0.000000	0.000000	0.000000
