#ParticleID	Turn	x[m]	xp	y[m]	yp	z[m]	dE[GeV]# s	beta_x	beta_y	alpha_x	alpha_y	D_x	D_y	D_px	D_py	orbit_x	orbit_px	orbit_y	orbit_py
0.300000	11.824566	24.974828	-0.012370	-0.027635	2.618153	0.000000	-0.000004	0.000000	0.000000	0.000001	0.000000	0.000000
0.601250	11.839695	24.995114	-0.037850	-0.039706	2.618151	0.000000	-0.000004	0.000000	0.000000	0.000001	0.000000	0.000000
0.898573	11.869679	25.022267	-0.033891	-0.112982	2.618150	0.000000	-0.006425	0.000000	0.000000	0.000001	0.000000	0.000000
1.339533	12.051831	24.844368	-0.380756	0.514884	2.631610	0.000000	0.067534	0.000000	0.000001	0.000001	0.000000	0.000000
1.780493	12.546377	24.120996	-0.745018	1.119322	2.677821	0.000000	0.142261	0.000000	0.000001	0.000001	0.000000	0.000000
2.221453	13.375910	22.885065	-1.143317	1.672832	2.757310	0.000000	0.218608	0.000000	0.000001	0.000001	0.000000	0.000000
2.662413	14.578329	21.192808	-1.593850	2.150229	2.870981	0.000000	0.297446	0.000000	0.000002	0.000001	0.000000	0.000000
3.108373	16.229354	19.096403	-2.121499	2.530924	3.021991	0.000000	0.380161	0.000000	0.000002	0.000001	0.000000	0.000000
3.657433	18.346486	16.741900	-1.711598	1.782631	3.205450	0.000000	0.287123	0.000000	0.000002	0.000001	0.000000	0.000000
4.206493	19.944042	15.134985	-1.180798	1.161310	3.336350	0.000000	0.188992	0.000000	0.000003	0.000001	0.000000	0.000000
4.755553	20.909178	14.161201	-0.566592	0.622707	3.412370	0.000000	0.087509	0.000000	0.000003	0.000000	0.000000	0.000000
5.304613	21.173721	13.751186	0.087634	0.128458	3.432160	0.000000	-0.015526	0.000000	0.000003	0.000000	0.000000	0.000000
5.603185	21.158640	13.659682	0.018197	0.142087	3.430202	0.000000	-0.006559	0.000000	0.000003	0.000000	0.000000	0.000000
5.936519	21.151762	13.573255	0.002438	0.117192	3.428015	0.000000	-0.006559	0.000000	0.000003	0.000000	0.000000	0.000000
6.269852	21.155390	13.503426	-0.013322	0.092296	3.425829	0.000000	-0.006559	0.000000	0.000003	0.000000	0.000000	0.000000
6.604435	21.169597	13.450025	-0.029140	0.067308	3.423635	0.000000	-0.006559	0.000000	0.000004	0.000000	0.000000	0.000000
6.901758	21.191104	13.416604	-0.098563	0.080156	3.421684	0.000000	0.002381	0.000000	0.000004	0.000000	0.000000	0.000000
7.450818	20.938131	13.589197	0.556574	-0.396355	3.394791	0.000000	-0.100199	0.000000	0.000004	0.000000	0.000000	0.000000
7.999878	19.983169	14.297397	1.172398	-0.901098	3.311980	0.000000	-0.201002	0.000000	0.000004	0.000000	0.000000	0.000000
8.548938	18.393670	15.591646	1.705410	-1.470024	3.174721	0.000000	-0.298240	0.000000	0.000004	0.000000	0.000000	0.000000
9.097998	16.281910	17.564130	2.117960	-2.143657	2.985448	0.000000	-0.390188	0.000000	0.000004	-0.000000	0.000000	0.000000
9.543958	14.634273	19.321756	1.589760	-1.780903	2.829746	0.000000	-0.308483	0.000000	0.000004	-0.000000	0.000000	0.000000
9.984918	13.435773	20.702476	1.138486	-1.338351	2.710964	0.000000	-0.230774	0.000000	0.000004	0.000000	0.000000	0.000000
10.425878	12.610907	21.664455	0.739226	-0.834904	2.625836	0.000000	-0.155694	0.000000	0.000004	0.000000	0.000000	0.000000
10.866838	12.121988	22.163924	0.373739	-0.293471	2.573394	0.000000	-0.082387	0.000000	0.000004	0.000000	0.000000	0.000000
11.309048	11.946544	22.177640	0.054518	0.206872	2.553019	0.000000	-0.016279	0.000000	0.000004	0.000000	0.000000	0.000000
11.606371	11.921547	22.058781	0.029557	0.192892	2.548178	0.000000	-0.016279	0.000000	0.000004	0.000000	0.000000	0.000000
12.086371	11.912516	21.884439	-0.010742	0.170322	2.540364	0.000000	-0.016279	0.000000	0.000005	0.000000	0.000000	0.000000
12.566371	11.942171	21.731763	-0.051040	0.147752	2.532550	0.000000	-0.016279	0.000000	0.000005	0.000000	0.000000	0.000000
13.046371	12.010513	21.600754	-0.091339	0.125183	2.524736	0.000000	-0.016279	0.000000	0.000005	0.000000	0.000000	0.000000
13.526371	12.117542	21.491412	-0.131637	0.102613	2.516921	0.000000	-0.016279	0.000000	0.000005	0.000000	0.000000	0.000000
14.007621	12.263687	21.403537	-0.172040	0.079985	2.509087	0.000000	-0.016279	0.000000	0.000005	0.000000	0.000000	0.000000
14.304943	12.373411	21.360131	-0.166660	0.013626	2.504246	0.000000	-0.022420	0.000000	0.000006	0.000000	0.000000	0.000000
14.745903	12.679049	21.114308	-0.529087	0.541725	2.509991	0.000000	0.048502	0.000000	0.000006	0.000001	0.000000	0.000000
15.186863	13.313728	20.411876	-0.915685	1.045175	2.547102	0.000000	0.119977	0.000000	0.000006	0.000001	0.000000	0.000000
15.627823	14.306445	19.284794	-1.344119	1.501071	2.616001	0.000000	0.192818	0.000000	0.000006	0.000001	0.000000	0.000000
16.068783	15.702556	17.784344	-1.833962	1.888669	2.717473	0.000000	0.267855	0.000000	0.000007	0.000001	0.000000	0.000000
16.514743	17.589498	15.957293	-2.412351	2.191082	2.854369	0.000000	0.346405	0.000000	0.000007	0.000001	0.000000	0.000000
17.063803	20.012845	13.917134	-1.975148	1.546581	3.020836	0.000000	0.259074	0.000000	0.000008	0.000001	0.000000	0.000000
17.612863	21.876173	12.520434	-1.398431	1.012238	3.138018	0.000000	0.167147	0.000000	0.000008	0.000001	0.000000	0.000000
18.161923	23.047866	11.667707	-0.722935	0.549995	3.203838	0.000000	0.072256	0.000000	0.000009	0.000000	0.000000	0.000000
18.710983	23.445163	11.298217	0.003625	0.126927	3.217128	0.000000	-0.023917	0.000000	0.000009	0.000000	0.000000	0.000000
19.009556	23.483390	11.212880	-0.070406	0.129372	3.212496	0.000000	-0.015512	0.000000	0.000009	0.000000	0.000000	0.000000
19.342889	23.535083	11.136707	-0.084671	0.099147	3.207326	0.000000	-0.015512	0.000000	0.000009	0.000000	0.000000	0.000000
19.676223	23.596285	11.080684	-0.098935	0.068921	3.202155	0.000000	-0.015512	0.000000	0.000009	0.000000	0.000000	0.000000
20.010806	23.667573	11.044579	-0.230516	0.093304	3.196985	0.000000	0.000328	0.000000	0.000009	0.000000	0.000000	0.000000
20.308129	23.808581	10.997169	-0.305949	0.094881	3.197082	0.000000	0.008680	0.000000	0.000009	0.000000	0.000000	0.000000
20.857189	23.733918	11.115394	0.441128	-0.311475	3.175628	0.000000	-0.086711	0.000000	0.000009	-0.000000	0.000000	0.000000
21.406249	22.851199	11.689338	1.157046	-0.740017	3.102145	0.000000	-0.180564	0.000000	0.000009	-0.000000	0.000000	0.000000
21.955309	21.222775	12.759882	1.791236	-1.221268	2.977936	0.000000	-0.271215	0.000000	0.000009	-0.000001	0.000000	0.000000
22.504369	18.963671	14.403279	2.298902	-1.789508	2.805203	0.000000	-0.357055	0.000000	0.000008	-0.000001	0.000000	0.000000
22.950329	17.183389	15.878638	1.707212	-1.504813	2.663265	0.000000	-0.279845	0.000000	0.000008	-0.000001	0.000000	0.000000
23.391289	15.907052	17.054886	1.198217	-1.152507	2.556186	0.000000	-0.206278	0.000000	0.000008	-0.000001	0.000000	0.000000
23.832249	15.053864	17.896030	0.743966	-0.747763	2.481000	0.000000	-0.135060	0.000000	0.000007	-0.000000	0.000000	0.000000
24.273209	14.584843	18.363798	0.323704	-0.308996	2.436849	0.000000	-0.065380	0.000000	0.000007	-0.000000	0.000000	0.000000
24.715418	14.478678	18.436661	-0.046352	0.098552	2.423228	0.000000	-0.002387	0.000000	0.000007	0.000000	0.000000	0.000000
25.012741	14.512360	18.382899	-0.066931	0.082269	2.422518	0.000000	-0.002387	0.000000	0.000007	0.000000	0.000000	0.000000
25.346075	14.564672	18.334139	-0.090003	0.064013	2.421723	0.000000	-0.002387	0.000000	0.000007	0.000000	0.000000	0.000000
25.679408	14.632364	18.297548	-0.113075	0.045758	2.420927	0.000000	-0.002387	0.000000	0.000007	0.000000	0.000000	0.000000
26.013991	14.715480	18.273430	-0.016852	-0.120809	2.420104	0.000000	-0.022020	0.000000	0.000007	-0.000000	0.000000	0.000000
26.311314	14.731510	18.350177	-0.000939	-0.182315	2.413557	0.000000	-0.027939	0.000000	0.000007	-0.000000	0.000000	0.000000
26.752274	14.913854	18.311920	-0.414145	0.268744	2.416347	0.000000	0.040608	0.000000	0.000007	0.000000	0.000000	0.000000
27.193234	15.467547	17.879757	-0.846273	0.707575	2.449437	0.000000	0.109616	0.000000	0.000008	0.000000	0.000000	0.000000
27.634194	16.417888	17.073353	-1.317065	1.114213	2.513203	0.000000	0.179874	0.000000	0.000008	0.000001	0.000000	0.000000
28.075154	17.808293	15.929397	-1.848029	1.470154	2.608371	0.000000	0.252179	0.000000	0.000008	0.000001	0.000000	0.000000
28.521114	19.726447	14.482710	-2.468385	1.760118	2.737629	0.000000	0.327801	0.000000	0.000008	0.000001	0.000000	0.000000
29.070174	22.164431	12.870715	-1.945617	1.193131	2.894946	0.000000	0.244400	0.000000	0.000009	0.000001	0.000000	0.000000
29.619234	23.949029	11.831298	-1.285420	0.711128	3.005212	0.000000	0.156664	0.000000	0.000009	0.000000	0.000000	0.000000
30.168294	24.954184	11.290424	-0.534427	0.279777	3.066471	0.000000	0.066150	0.000000	0.000009	0.000000	0.000000	0.000000
30.717354	25.108898	11.209568	0.254315	-0.131646	3.077637	0.000000	-0.025538	0.000000	0.000009	-0.000000	0.000000	0.000000
31.015927	24.999884	11.278728	0.176401	-0.129274	3.072413	0.000000	-0.017497	0.000000	0.000009	-0.000000	0.000000	0.000000
31.349260	24.886867	11.374926	0.162652	-0.159322	3.066581	0.000000	-0.017497	0.000000	0.000009	-0.000000	0.000000	0.000000
31.682593	24.783015	11.491157	0.148904	-0.189370	3.060748	0.000000	-0.017497	0.000000	0.000009	-0.000000	0.000000	0.000000
32.017177	24.687990	11.627968	0.135104	-0.219531	3.054894	0.000000	-0.017497	0.000000	0.000009	-0.000000	0.000000	0.000000
32.314499	24.611297	11.766480	0.058541	-0.215591	3.049692	0.000000	-0.009530	0.000000	0.000009	-0.000000	0.000000	0.000000
32.863559	24.125384	12.242522	0.821210	-0.656539	3.019577	0.000000	-0.100005	0.000000	0.000009	-0.000000	0.000000	0.000000
33.412619	22.829020	13.225461	1.525873	-1.144250	2.940200	0.000000	-0.188707	0.000000	0.000008	-0.000001	0.000000	0.000000
33.961679	20.813775	14.785309	2.122755	-1.713463	2.812970	0.000000	-0.274061	0.000000	0.000008	-0.000001	0.000000	0.000000
34.510739	18.221994	17.033172	2.569697	-2.404723	2.640142	0.000000	-0.354554	0.000000	0.000007	-0.000001	0.000000	0.000000
34.956699	16.206862	19.043758	1.965131	-2.084896	2.498368	0.000000	-0.281624	0.000000	0.000007	-0.000001	0.000000	0.000000
35.397659	14.704266	20.706265	1.455352	-1.670955	2.389564	0.000000	-0.212330	0.000000	0.000006	-0.000001	0.000000	0.000000
35.838619	13.620345	21.968661	1.012065	-1.180987	2.310755	0.000000	-0.145454	0.000000	0.000006	-0.000001	0.000000	0.000000
36.279579	12.905579	22.773510	0.615016	-0.637286	2.261043	0.000000	-0.080235	0.000000	0.000006	-0.000001	0.000000	0.000000
36.721789	12.526619	23.084493	0.276677	-0.121249	2.239834	0.000000	-0.021422	0.000000	0.000006	-0.000000	0.000000	0.000000
37.019112	12.369691	23.160479	0.251125	-0.134318	2.233465	0.000000	-0.021422	0.000000	0.000005	-0.000000	0.000000	0.000000
37.352445	12.211824	23.254908	0.222478	-0.148970	2.226325	0.000000	-0.021422	0.000000	0.000005	-0.000000	0.000000	0.000000
37.685779	12.073054	23.359106	0.193831	-0.163622	2.219184	0.000000	-0.021422	0.000000	0.000005	-0.000000	0.000000	0.000000
38.020362	11.952969	23.473517	0.165077	-0.178329	2.212017	0.000000	-0.021422	0.000000	0.000005	-0.000000	0.000000	0.000000
38.317684	11.862404	23.583445	0.168613	-0.249229	2.205648	0.000000	-0.026831	0.000000	0.000005	-0.000000	0.000000	0.000000
38.758644	11.864983	23.542041	-0.174482	0.342765	2.207744	0.000000	0.036347	0.000000	0.000005	-0.000000	0.000000	0.000000
39.199604	12.172502	22.983455	-0.525549	0.919164	2.237764	0.000000	0.099938	0.000000	0.000005	-0.000000	0.000000	0.000000
39.640564	12.799011	21.933101	-0.900627	1.453742	2.296049	0.000000	0.164668	0.000000	0.000005	-0.000000	0.000000	0.000000
40.081524	13.773135	20.438771	-1.316852	1.922175	2.383263	0.000000	0.231273	0.000000	0.000005	0.000000	0.000000	0.000000
40.527484	15.156946	18.545885	-1.797065	2.304431	2.501871	0.000000	0.300917	0.000000	0.000005	0.000000	0.000000	0.000000
41.076544	16.923006	16.418823	-1.400410	1.592443	2.646563	0.000000	0.225360	0.000000	0.000005	0.000000	0.000000	0.000000
41.625604	18.196263	15.007110	-0.904838	0.993880	2.748609	0.000000	0.145806	0.000000	0.000005	-0.000000	0.000000	0.000000
42.174664	18.886779	14.210192	-0.345352	0.466110	2.806200	0.000000	0.063665	0.000000	0.000004	-0.000000	0.000000	0.000000
42.723724	18.945782	13.971306	0.238528	-0.028461	2.818314	0.000000	-0.019605	0.000000	0.000004	-0.000000	0.000000	0.000000
43.022297	18.837778	13.972885	0.172705	-0.013329	2.814659	0.000000	-0.012242	0.000000	0.000004	-0.000000	0.000000	0.000000
43.502297	18.684577	14.002173	0.146464	-0.047688	2.808783	0.000000	-0.012242	0.000000	0.000004	-0.000000	0.000000	0.000000
43.982297	18.556567	14.064445	0.120224	-0.082046	2.802907	0.000000	-0.012242	0.000000	0.000004	-0.000000	0.000000	0.000000
44.462297	18.453747	14.159702	0.093983	-0.116405	2.797031	0.000000	-0.012242	0.000000	0.000004	-0.000000	0.000000	0.000000
44.942297	18.376119	14.287942	0.067742	-0.150763	2.791155	0.000000	-0.012242	0.000000	0.000003	-0.000000	0.000000	0.000000
45.423547	18.323806	14.449450	-0.049353	-0.113619	2.785281	0.000000	0.001558	0.000000	0.000003	-0.000000	0.000000	0.000000
45.720870	18.357989	14.523210	-0.113584	-0.096516	2.785744	0.000000	0.008836	0.000000	0.000003	-0.000000	0.000000	0.000000
46.269930	18.173601	14.910140	0.447422	-0.612355	2.768025	0.000000	-0.073288	0.000000	0.000003	-0.000000	0.000000	0.000000
46.818990	17.386947	15.884006	0.976824	-1.171812	2.705505	0.000000	-0.154112	0.000000	0.000002	-0.000001	0.000000	0.000000
47.368050	16.053595	17.514176	1.437228	-1.814733	2.599294	0.000000	-0.232202	0.000000	0.000002	-0.000001	0.000000	0.000000
47.917110	14.267726	19.916762	1.796113	-2.586914	2.451276	0.000000	-0.306174	0.000000	0.000002	-0.000001	0.000000	0.000000
48.363070	12.877888	22.052939	1.331436	-2.183012	2.330027	0.000000	-0.237876	0.000000	0.000001	-0.000001	0.000000	0.000000
48.804030	11.883857	23.763347	0.931357	-1.681056	2.239593	0.000000	-0.172685	0.000000	0.000001	-0.000001	0.000000	0.000000
49.244990	11.222638	24.995523	0.573829	-1.102613	2.177445	0.000000	-0.109461	0.000000	0.000001	-0.000001	0.000000	0.000000
49.685950	10.864022	25.693402	0.242518	-0.474001	2.142875	0.000000	-0.047483	0.000000	0.000001	-0.000001	0.000000	0.000000
50.128160	10.791752	25.824950	-0.051365	0.112797	2.135501	0.000000	0.008717	0.000000	0.000000	-0.000001	0.000000	0.000000
50.425482	10.830510	25.761343	-0.078989	0.101137	2.138093	0.000000	0.008717	0.000000	0.000000	-0.000001	0.000000	0.000000
50.758816	10.893492	25.698275	-0.109958	0.088066	2.140999	0.000000	0.008717	0.000000	-0.000000	-0.000001	0.000000	0.000000
51.092149	10.977120	25.643922	-0.140927	0.074994	2.143905	0.000000	0.008717	0.000000	-0.000000	-0.000001	0.000000	0.000000
51.426732	11.081600	25.598647	-0.082112	-0.145795	2.146800	0.000000	-0.008699	0.000000	-0.000000	-0.000001	0.000000	0.000000
51.724055	11.138458	25.688871	-0.081808	-0.220654	2.144213	0.000000	-0.013957	0.000000	-0.000001	-0.000001	0.000000	0.000000
52.165015	11.356016	25.597693	-0.413437	0.426638	2.151647	0.000000	0.047705	0.000000	-0.000001	-0.000001	0.000000	0.000000
52.605975	11.873237	24.942067	-0.763956	1.054518	2.186366	0.000000	0.109911	0.000000	-0.000001	-0.000001	0.000000	0.000000
53.046935	12.713752	23.751824	-1.149377	1.634419	2.248764	0.000000	0.173369	0.000000	-0.000001	-0.000001	0.000000	0.000000
53.487895	13.915960	22.081119	-1.587310	2.139955	2.339553	0.000000	0.238801	0.000000	-0.000002	-0.000001	0.000000	0.000000
53.933855	15.555393	19.980985	-2.101997	2.549460	2.461272	0.000000	0.307352	0.000000	-0.000002	-0.000001	0.000000	0.000000
54.482915	17.666078	17.617861	-1.719427	1.779889	2.609847	0.000000	0.233047	0.000000	-0.000002	-0.000001	0.000000	0.000000
55.031975	19.287072	16.025661	-1.215405	1.137095	2.716427	0.000000	0.154609	0.000000	-0.000003	-0.000001	0.000000	0.000000
55.581035	20.303877	15.090974	-0.625534	0.575294	2.779122	0.000000	0.073428	0.000000	-0.000003	-0.000000	0.000000	0.000000
56.130095	20.644670	14.747226	0.008523	0.054469	2.796821	0.000000	-0.009055	0.000000	-0.000003	-0.000000	0.000000	0.000000
56.428668	20.676119	14.697787	-0.059912	0.072581	2.796299	0.000000	-0.001748	0.000000	-0.000003	-0.000000	0.000000	0.000000
56.762001	20.721454	14.656999	-0.076091	0.049783	2.795717	0.000000	-0.001748	0.000000	-0.000004	-0.000000	0.000000	0.000000
57.095334	20.777574	14.631410	-0.092271	0.026984	2.795134	0.000000	-0.001748	0.000000	-0.000004	-0.000000	0.000000	0.000000
57.429918	20.844753	14.621010	-0.108511	0.004100	2.794550	0.000000	-0.001748	0.000000	-0.000004	-0.000000	0.000000	0.000000
57.727240	20.913569	14.624618	-0.177588	0.021977	2.794030	0.000000	0.005553	0.000000	-0.000004	-0.000000	0.000000	0.000000
58.276300	20.751752	14.881365	0.470558	-0.492348	2.774440	0.000000	-0.076809	0.000000	-0.000004	-0.000000	0.000000	0.000000
58.825360	19.892314	15.718728	1.085466	-1.041741	2.709935	0.000000	-0.157809	0.000000	-0.000004	-0.000000	0.000000	0.000000
59.374420	18.395960	17.196353	1.623702	-1.665335	2.601661	0.000000	-0.236009	0.000000	-0.000004	-0.000000	0.000000	0.000000
59.923480	16.368385	19.419486	2.047248	-2.407547	2.451538	0.000000	-0.310024	0.000000	-0.000004	0.000000	0.000000	0.000000
60.369440	14.781359	21.395475	1.524029	-2.004616	2.328569	0.000000	-0.241742	0.000000	-0.000004	0.000000	0.000000	0.000000
60.810400	13.639778	22.952019	1.074647	-1.511849	2.236419	0.000000	-0.176610	0.000000	-0.000004	-0.000000	0.000000	0.000000
61.251360	12.871449	24.041873	0.674363	-0.950294	2.172518	0.000000	-0.113490	0.000000	-0.000004	-0.000000	0.000000	0.000000
61.692320	12.441271	24.615450	0.304888	-0.345502	2.136140	0.000000	-0.051663	0.000000	-0.000004	-0.000000	0.000000	0.000000
62.134530	12.329640	24.646116	-0.020521	0.214514	2.126875	0.000000	0.004360	0.000000	-0.000005	-0.000000	0.000000	0.000000
62.431853	12.349016	24.522308	-0.044646	0.201896	2.128172	0.000000	0.004360	0.000000	-0.000005	-0.000000	0.000000	0.000000
62.765186	12.387795	24.392427	-0.071693	0.187748	2.129625	0.000000	0.004360	0.000000	-0.000005	-0.000000	0.000000	0.000000
63.098520	12.444606	24.271977	-0.098739	0.173601	2.131079	0.000000	0.004360	0.000000	-0.000005	-0.000000	0.000000	0.000000
63.433103	12.519762	24.160560	-0.125887	0.159401	2.132538	0.000000	0.004360	0.000000	-0.000005	-0.000000	0.000000	0.000000
63.730426	12.601793	24.069524	-0.119107	0.087754	2.133834	0.000000	-0.000873	0.000000	-0.000005	-0.000000	0.000000	0.000000
64.171386	12.867277	23.727044	-0.485237	0.685960	2.146989	0.000000	0.060596	0.000000	-0.000005	-0.000001	0.000000	0.000000
64.612346	13.464176	22.868794	-0.873536	1.252956	2.187376	0.000000	0.122755	0.000000	-0.000006	-0.000001	0.000000	0.000000
65.053306	14.419762	21.533824	-1.301744	1.762943	2.255455	0.000000	0.186312	0.000000	-0.000006	-0.000001	0.000000	0.000000
65.494266	15.777692	19.782873	-1.789425	2.192718	2.352000	0.000000	0.251990	0.000000	-0.000006	-0.000001	0.000000	0.000000
65.940226	17.623172	17.670825	-2.363553	2.523482	2.479684	0.000000	0.320941	0.000000	-0.000007	-0.000001	0.000000	0.000000
66.489286	19.988784	15.308049	-1.919420	1.805232	2.635535	0.000000	0.245922	0.000000	-0.000007	-0.000001	0.000000	0.000000
67.038346	21.788897	13.659183	-1.339709	1.215565	2.748936	0.000000	0.166541	0.000000	-0.000008	-0.000001	0.000000	0.000000
67.587406	22.896360	12.606783	-0.665368	0.712480	2.817875	0.000000	0.084206	0.000000	-0.000008	-0.000000	0.000000	0.000000
68.136466	23.232948	12.075889	0.055972	0.260143	2.841130	0.000000	0.000377	0.000000	-0.000008	-0.000000	0.000000	0.000000
68.435038	23.239613	11.909714	-0.017588	0.264869	2.843459	0.000000	0.007801	0.000000	-0.000008	-0.000000	0.000000	0.000000
68.768372	23.256121	11.743119	-0.031935	0.234917	2.846059	0.000000	0.007801	0.000000	-0.000008	-0.000000	0.000000	0.000000
69.101705	23.282193	11.596492	-0.046283	0.204965	2.848660	0.000000	0.007801	0.000000	-0.000009	-0.000000	0.000000	0.000000
69.436288	23.317983	11.469395	-0.060685	0.174901	2.851270	0.000000	0.007801	0.000000	-0.000009	-0.000000	0.000000	0.000000
69.733611	23.357874	11.373335	-0.134517	0.177903	2.853589	0.000000	0.015257	0.000000	-0.000009	-0.000000	0.000000	0.000000
70.282671	23.104437	11.405695	0.593369	-0.237188	2.838782	0.000000	-0.069112	0.000000	-0.000009	0.000000	0.000000	0.000000
