#ParticleID	Turn	x[m]	xp	y[m]	yp	z[m]	dE[GeV]# s	beta_x	beta_y	alpha_x	alpha_y	D_x	D_y	D_px	D_py	orbit_x	orbit_px	orbit_y	orbit_py
0.300000	11.809693	25.034609	-0.010648	-0.027081	2.618167	0.000000	-0.000010	0.000000	-0.000001	0.000001	0.000000	0.000000
0.601250	11.823794	25.054552	-0.036160	-0.039123	2.618164	0.000000	-0.000010	0.000000	-0.000001	0.000001	0.000000	0.000000
0.898573	11.852782	25.081351	-0.032272	-0.112515	2.618160	0.000000	-0.006430	0.000000	-0.000000	0.000001	0.000000	0.000000
1.339533	12.033325	24.902351	-0.378711	0.516901	2.631618	0.000000	0.067528	0.000000	0.000000	0.000001	0.000000	0.000000
1.780493	12.525844	24.176547	-0.742452	1.122799	2.677826	0.000000	0.142256	0.000000	0.000001	0.000001	0.000000	0.000000
2.221453	13.352843	22.936961	-1.140113	1.677610	2.757312	0.000000	0.218603	0.000000	0.000002	0.000002	0.000000	0.000000
2.662413	14.552104	21.239994	-1.589863	2.156092	2.870981	0.000000	0.297441	0.000000	0.000002	0.000002	0.000000	0.000000
3.108373	16.199152	19.137971	-2.116537	2.537606	3.021988	0.000000	0.380155	0.000000	0.000003	0.000002	0.000000	0.000000
3.657433	18.311234	16.777066	-1.707415	1.787679	3.205444	0.000000	0.287118	0.000000	0.000004	0.000002	0.000000	0.000000
4.206493	19.904764	15.165336	-1.177690	1.165085	3.336341	0.000000	0.188987	0.000000	0.000005	0.000001	0.000000	0.000000
4.755553	20.867182	14.187979	-0.564779	0.625477	3.412357	0.000000	0.087505	0.000000	0.000005	0.000001	0.000000	0.000000
5.304613	21.130508	13.775382	0.088025	0.130420	3.432145	0.000000	-0.015530	0.000000	0.000006	0.000001	0.000000	0.000000
5.603185	21.115134	13.682662	0.018673	0.144136	3.430185	0.000000	-0.006563	0.000000	0.000006	0.000001	0.000000	0.000000
5.936519	21.107950	13.594860	0.002881	0.119268	3.427997	0.000000	-0.006563	0.000000	0.000007	0.000001	0.000000	0.000000
6.269852	21.111293	13.523637	-0.012911	0.094400	3.425810	0.000000	-0.006563	0.000000	0.000007	0.000001	0.000000	0.000000
6.604435	21.125236	13.468820	-0.028762	0.069439	3.423613	0.000000	-0.006563	0.000000	0.000007	0.000001	0.000000	0.000000
6.901758	21.146528	13.434123	-0.098097	0.082357	3.421662	0.000000	0.002377	0.000000	0.000008	0.000001	0.000000	0.000000
7.450818	20.893865	13.604562	0.555547	-0.394608	3.394766	0.000000	-0.100203	0.000000	0.000008	0.000001	0.000000	0.000000
7.999878	19.940822	14.311034	1.169950	-0.899680	3.311953	0.000000	-0.201005	0.000000	0.000009	0.000001	0.000000	0.000000
8.548938	18.354717	15.603859	1.701713	-1.468834	3.174692	0.000000	-0.298242	0.000000	0.000009	0.000000	0.000000	0.000000
9.097998	16.247585	17.575124	2.113276	-2.142610	2.985418	0.000000	-0.390190	0.000000	0.000009	-0.000000	0.000000	0.000000
9.543958	14.603659	19.331606	1.586094	-1.779396	2.829715	0.000000	-0.308485	0.000000	0.000009	0.000000	0.000000	0.000000
9.984918	13.408010	20.710820	1.135661	-1.336455	2.710932	0.000000	-0.230777	0.000000	0.000009	0.000000	0.000000	0.000000
10.425878	12.585311	21.670987	0.737115	-0.832706	2.625803	0.000000	-0.155698	0.000000	0.000009	0.000001	0.000000	0.000000
10.866838	12.097977	22.168420	0.372244	-0.291070	2.573358	0.000000	-0.082392	0.000000	0.000010	0.000001	0.000000	0.000000
11.309048	11.923609	22.179964	0.053513	0.209362	2.552981	0.000000	-0.016284	0.000000	0.000010	0.000001	0.000000	0.000000
11.606371	11.899222	22.059628	0.028506	0.195370	2.548139	0.000000	-0.016284	0.000000	0.000010	0.000001	0.000000	0.000000
12.086371	11.891235	21.882916	-0.011865	0.172780	2.540322	0.000000	-0.016284	0.000000	0.000011	0.000001	0.000000	0.000000
12.566371	11.922004	21.727890	-0.052237	0.150190	2.532505	0.000000	-0.016284	0.000000	0.000012	0.000001	0.000000	0.000000
13.046371	11.991529	21.594550	-0.092608	0.127601	2.524688	0.000000	-0.016284	0.000000	0.000012	0.000001	0.000000	0.000000
13.526371	12.099812	21.482897	-0.132980	0.105011	2.516871	0.000000	-0.016284	0.000000	0.000013	0.000001	0.000000	0.000000
14.007621	12.247284	21.392723	-0.173457	0.082362	2.509034	0.000000	-0.016284	0.000000	0.000013	0.000001	0.000000	0.000000
14.304943	12.357864	21.347907	-0.168162	0.016025	2.504192	0.000000	-0.022425	0.000000	0.000014	0.000001	0.000000	0.000000
14.745903	12.664687	21.100129	-0.530283	0.543742	2.509934	0.000000	0.048496	0.000000	0.000014	0.000001	0.000000	0.000000
15.186863	13.300308	20.396120	-0.916631	1.046719	2.547041	0.000000	0.119970	0.000000	0.000015	0.000002	0.000000	0.000000
15.627823	14.293766	19.267912	-1.344858	1.502071	2.615936	0.000000	0.192809	0.000000	0.000016	0.000002	0.000000	0.000000
16.068783	15.690449	17.766838	-1.834527	1.889080	2.717403	0.000000	0.267845	0.000000	0.000017	0.000003	0.000000	0.000000
16.514743	17.577828	15.939694	-2.412768	2.190881	2.854293	0.000000	0.346393	0.000000	0.000018	0.000003	0.000000	0.000000
17.063803	20.001946	13.899550	-1.976126	1.546753	3.020753	0.000000	0.259064	0.000000	0.000020	0.000003	0.000000	0.000000
17.612863	21.866625	12.502449	-1.399899	1.012798	3.137930	0.000000	0.167140	0.000000	0.000021	0.000002	0.000000	0.000000
18.161923	23.040155	11.648878	-0.724791	0.550982	3.203747	0.000000	0.072252	0.000000	0.000022	0.000001	0.000000	0.000000
18.710983	23.439643	11.278039	0.001514	0.128411	3.217035	0.000000	-0.023919	0.000000	0.000022	0.000000	0.000000	0.000000
19.009556	23.479120	11.191867	-0.072502	0.130740	3.212402	0.000000	-0.015515	0.000000	0.000022	0.000001	0.000000	0.000000
19.342889	23.532212	11.114805	-0.086773	0.100447	3.207231	0.000000	-0.015515	0.000000	0.000023	0.000001	0.000000	0.000000
19.676223	23.594818	11.057938	-0.101045	0.070154	3.202059	0.000000	-0.015515	0.000000	0.000023	0.000001	0.000000	0.000000
20.010806	23.667520	11.021030	-0.232632	0.094353	3.196887	0.000000	0.000325	0.000000	0.000023	0.000001	0.000000	0.000000
20.308129	23.809791	10.973016	-0.308073	0.095800	3.196984	0.000000	0.008676	0.000000	0.000023	0.000001	0.000000	0.000000
20.857189	23.737427	11.089856	0.439089	-0.309856	3.175529	0.000000	-0.086712	0.000000	0.000023	-0.000000	0.000000	0.000000
21.406249	22.856833	11.661588	1.155237	-0.737583	3.102046	0.000000	-0.180562	0.000000	0.000023	-0.000001	0.000000	0.000000
21.955309	21.230211	12.728936	1.789784	-1.217847	2.977839	0.000000	-0.271210	0.000000	0.000022	-0.000002	0.000000	0.000000
22.504369	18.972456	14.367925	2.297909	-1.784854	2.805110	0.000000	-0.357046	0.000000	0.000021	-0.000002	0.000000	0.000000
22.950329	17.193088	15.839487	1.706143	-1.500986	2.663176	0.000000	-0.279839	0.000000	0.000020	-0.000002	0.000000	0.000000
23.391289	15.917745	17.012789	1.197023	-1.149678	2.556100	0.000000	-0.206274	0.000000	0.000020	-0.000001	0.000000	0.000000
23.832249	15.065685	17.851927	0.742592	-0.746060	2.480915	0.000000	-0.135058	0.000000	0.000019	-0.000001	0.000000	0.000000
24.273209	14.597978	18.318722	0.322087	-0.308497	2.436764	0.000000	-0.065381	0.000000	0.000019	-0.000000	0.000000	0.000000
24.715418	14.493377	18.391688	-0.048253	0.097939	2.423142	0.000000	-0.002389	0.000000	0.000019	0.000000	0.000000	0.000000
25.012741	14.528184	18.338301	-0.068815	0.081618	2.422432	0.000000	-0.002389	0.000000	0.000019	0.000000	0.000000	0.000000
25.346075	14.581745	18.289988	-0.091868	0.063320	2.421636	0.000000	-0.002389	0.000000	0.000019	0.000000	0.000000	0.000000
25.679408	14.650674	18.253874	-0.114920	0.045022	2.420839	0.000000	-0.002389	0.000000	0.000019	0.000000	0.000000	0.000000
26.013991	14.735018	18.230262	-0.018519	-0.121237	2.420016	0.000000	-0.022022	0.000000	0.000019	0.000000	0.000000	0.000000
26.311314	14.752032	18.307276	-0.002534	-0.182673	2.413468	0.000000	-0.027939	0.000000	0.000020	0.000000	0.000000	0.000000
26.752274	14.936010	18.269846	-0.416269	0.267231	2.416258	0.000000	0.040605	0.000000	0.000020	0.000001	0.000000	0.000000
27.193234	15.491845	17.839504	-0.849023	0.704976	2.449346	0.000000	0.109611	0.000000	0.000020	0.000001	0.000000	0.000000
27.634194	16.444931	17.035830	-1.320565	1.110645	2.513109	0.000000	0.179866	0.000000	0.000021	0.000002	0.000000	0.000000
28.075154	17.838813	15.895389	-1.852441	1.465780	2.608273	0.000000	0.252170	0.000000	0.000021	0.000002	0.000000	0.000000
28.521114	19.761387	14.452891	-2.473919	1.755136	2.737525	0.000000	0.327789	0.000000	0.000022	0.000003	0.000000	0.000000
29.070174	22.204984	12.845709	-1.950244	1.189293	2.894836	0.000000	0.244391	0.000000	0.000024	0.000002	0.000000	0.000000
29.619234	23.994013	11.810005	-1.288813	0.708161	3.005098	0.000000	0.156659	0.000000	0.000025	0.000001	0.000000	0.000000
30.168294	25.002103	11.272010	-0.536347	0.277470	3.066355	0.000000	0.066148	0.000000	0.000025	0.000000	0.000000	0.000000
30.717354	25.158049	11.193403	0.254004	-0.133458	3.077521	0.000000	-0.025536	0.000000	0.000025	-0.000000	0.000000	0.000000
31.015927	25.049285	11.263686	0.175996	-0.131181	3.072297	0.000000	-0.017496	0.000000	0.000025	-0.000000	0.000000	0.000000
31.349260	24.936527	11.361174	0.162277	-0.161284	3.066465	0.000000	-0.017496	0.000000	0.000025	-0.000000	0.000000	0.000000
31.682593	24.832916	11.478731	0.148558	-0.191387	3.060633	0.000000	-0.017496	0.000000	0.000025	-0.000000	0.000000	0.000000
32.017177	24.738114	11.616911	0.134787	-0.221603	3.054779	0.000000	-0.017496	0.000000	0.000024	-0.000000	0.000000	0.000000
32.314499	24.661602	11.756669	0.058127	-0.217742	3.049577	0.000000	-0.009530	0.000000	0.000024	-0.000000	0.000000	0.000000
32.863559	24.175225	12.234972	0.822465	-0.658531	3.019463	0.000000	-0.100002	0.000000	0.000024	-0.000001	0.000000	0.000000
33.412619	22.876601	13.220077	1.528708	-1.146226	2.940090	0.000000	-0.188700	0.000000	0.000023	-0.000002	0.000000	0.000000
33.961679	20.857460	14.782151	2.126971	-1.715564	2.812865	0.000000	-0.274051	0.000000	0.000022	-0.000003	0.000000	0.000000
34.510739	18.260423	17.032457	2.574995	-2.407098	2.640045	0.000000	-0.354541	0.000000	0.000020	-0.000003	0.000000	0.000000
34.956699	16.241096	19.045290	1.969270	-2.087538	2.498276	0.000000	-0.281613	0.000000	0.000019	-0.000003	0.000000	0.000000
35.397659	14.735284	20.710199	1.458532	-1.673741	2.389478	0.000000	-0.212321	0.000000	0.000018	-0.000002	0.000000	0.000000
35.838619	13.648928	21.975070	1.014429	-1.183791	2.310673	0.000000	-0.145448	0.000000	0.000017	-0.000002	0.000000	0.000000
36.279579	12.932395	22.782352	0.616674	-0.639978	2.260964	0.000000	-0.080230	0.000000	0.000016	-0.000001	0.000000	0.000000
36.721789	12.552254	23.095622	0.277764	-0.123730	2.239757	0.000000	-0.021419	0.000000	0.000016	-0.000001	0.000000	0.000000
37.019112	12.394669	23.173084	0.252249	-0.136801	2.233389	0.000000	-0.021419	0.000000	0.000015	-0.000001	0.000000	0.000000
37.352445	12.236038	23.269169	0.223645	-0.151455	2.226250	0.000000	-0.021419	0.000000	0.000015	-0.000001	0.000000	0.000000
37.685779	12.096476	23.375023	0.195040	-0.166108	2.219110	0.000000	-0.021419	0.000000	0.000015	-0.000001	0.000000	0.000000
38.020362	11.975568	23.491099	0.166328	-0.180817	2.211944	0.000000	-0.021419	0.000000	0.000014	-0.000001	0.000000	0.000000
38.317684	11.884247	23.602507	0.169954	-0.251761	2.205576	0.000000	-0.026827	0.000000	0.000014	-0.000001	0.000000	0.000000
38.758644	11.885860	23.563106	-0.173625	0.340774	2.207674	0.000000	0.036349	0.000000	0.000014	-0.000001	0.000000	0.000000
39.199604	12.192821	23.006004	-0.525136	0.917803	2.237695	0.000000	0.099939	0.000000	0.000013	-0.000000	0.000000	0.000000
39.640564	12.819155	21.956549	-0.900640	1.453073	2.295979	0.000000	0.164667	0.000000	0.000013	-0.000000	0.000000	0.000000
40.081524	13.793477	20.462490	-1.317291	1.922229	2.383193	0.000000	0.231270	0.000000	0.000013	0.000000	0.000000	0.000000
40.527484	15.177878	18.569230	-1.797952	2.305211	2.501799	0.000000	0.300913	0.000000	0.000013	0.000001	0.000000	0.000000
41.076544	16.944480	16.441646	-1.400502	1.592618	2.646489	0.000000	0.225358	0.000000	0.000014	0.000000	0.000000	0.000000
41.625604	18.217396	15.030063	-0.904128	0.993465	2.748534	0.000000	0.145805	0.000000	0.000014	-0.000000	0.000000	0.000000
42.174664	18.906713	14.233937	-0.343890	0.465074	2.806126	0.000000	0.063667	0.000000	0.000013	-0.000001	0.000000	0.000000
42.723724	18.963743	13.996562	0.240638	-0.030192	2.818241	0.000000	-0.019601	0.000000	0.000013	-0.000001	0.000000	0.000000
43.022297	18.854504	13.999125	0.174775	-0.014958	2.814588	0.000000	-0.012238	0.000000	0.000013	-0.000001	0.000000	0.000000
43.502297	18.699313	14.029946	0.148539	-0.049253	2.808714	0.000000	-0.012238	0.000000	0.000012	-0.000001	0.000000	0.000000
43.982297	18.569308	14.093691	0.122304	-0.083549	2.802840	0.000000	-0.012238	0.000000	0.000012	-0.000001	0.000000	0.000000
44.462297	18.464490	14.190359	0.096068	-0.117844	2.796967	0.000000	-0.012238	0.000000	0.000011	-0.000001	0.000000	0.000000
44.942297	18.384858	14.319952	0.069832	-0.152140	2.791093	0.000000	-0.012238	0.000000	0.000011	-0.000001	0.000000	0.000000
45.423547	18.330531	14.482755	-0.047292	-0.114768	2.785221	0.000000	0.001562	0.000000	0.000010	-0.000001	0.000000	0.000000
45.720870	18.363486	14.557185	-0.111524	-0.097536	2.785686	0.000000	0.008839	0.000000	0.000010	-0.000001	0.000000	0.000000
46.269930	18.176753	14.945807	0.449607	-0.614438	2.767968	0.000000	-0.073283	0.000000	0.000009	-0.000001	0.000000	0.000000
46.818990	17.387702	15.922607	0.978980	-1.175104	2.705452	0.000000	-0.154105	0.000000	0.000008	-0.000002	0.000000	0.000000
47.368050	16.052067	17.557160	1.439203	-1.819471	2.599246	0.000000	-0.232194	0.000000	0.000007	-0.000002	0.000000	0.000000
47.917110	14.264192	19.965892	1.797768	-2.593434	2.451234	0.000000	-0.306164	0.000000	0.000006	-0.000002	0.000000	0.000000
48.363070	12.872923	22.107419	1.333002	-2.188439	2.329989	0.000000	-0.237868	0.000000	0.000005	-0.000002	0.000000	0.000000
48.804030	11.877524	23.822040	0.932907	-1.685147	2.239559	0.000000	-0.172677	0.000000	0.000005	-0.000002	0.000000	0.000000
49.244990	11.214920	25.057164	0.575433	-1.105181	2.177415	0.000000	-0.109454	0.000000	0.000004	-0.000002	0.000000	0.000000
49.685950	10.854838	25.756592	0.244250	-0.474931	2.142848	0.000000	-0.047477	0.000000	0.000003	-0.000002	0.000000	0.000000
50.128160	10.780951	25.888218	-0.049453	0.113395	2.135477	0.000000	0.008723	0.000000	0.000002	-0.000002	0.000000	0.000000
50.425482	10.818578	25.824247	-0.077099	0.101762	2.138071	0.000000	0.008723	0.000000	0.000002	-0.000002	0.000000	0.000000
50.758816	10.880308	25.760753	-0.108093	0.088721	2.140979	0.000000	0.008723	0.000000	0.000001	-0.000002	0.000000	0.000000
51.092149	10.962702	25.705953	-0.139088	0.075679	2.143887	0.000000	0.008723	0.000000	0.000001	-0.000002	0.000000	0.000000
51.426732	11.065960	25.660211	-0.080424	-0.145579	2.146784	0.000000	-0.008693	0.000000	0.000000	-0.000002	0.000000	0.000000
51.724055	11.121824	25.750297	-0.080192	-0.220560	2.144200	0.000000	-0.013951	0.000000	-0.000000	-0.000002	0.000000	0.000000
52.165015	11.337777	25.658319	-0.411402	0.428352	2.151637	0.000000	0.047711	0.000000	-0.000001	-0.000002	0.000000	0.000000
52.605975	11.852984	25.000494	-0.761407	1.057774	2.186358	0.000000	0.109916	0.000000	-0.000001	-0.000002	0.000000	0.000000
53.046935	12.690983	23.806751	-1.146199	1.639069	2.248760	0.000000	0.173374	0.000000	-0.000002	-0.000002	0.000000	0.000000
53.487895	13.890059	22.131406	-1.583357	2.145787	2.339551	0.000000	0.238806	0.000000	-0.000003	-0.000002	0.000000	0.000000
53.933855	15.525551	20.025638	-2.097082	2.556211	2.461272	0.000000	0.307357	0.000000	-0.000004	-0.000002	0.000000	0.000000
54.482915	17.631231	17.656077	-1.715281	1.784932	2.609850	0.000000	0.233052	0.000000	-0.000004	-0.000002	0.000000	0.000000
55.031975	19.248233	16.059107	-1.212322	1.140790	2.716434	0.000000	0.154613	0.000000	-0.000005	-0.000001	0.000000	0.000000
55.581035	20.262338	15.120979	-0.623731	0.577903	2.779132	0.000000	0.073432	0.000000	-0.000006	-0.000001	0.000000	0.000000
56.130095	20.601917	14.774872	0.008918	0.056180	2.796834	0.000000	-0.009051	0.000000	-0.000007	-0.000001	0.000000	0.000000
56.428668	20.633073	14.724359	-0.059436	0.074397	2.796314	0.000000	-0.001743	0.000000	-0.000007	-0.000001	0.000000	0.000000
56.762001	20.678101	14.682349	-0.075648	0.051633	2.795733	0.000000	-0.001743	0.000000	-0.000007	-0.000001	0.000000	0.000000
57.095334	20.733937	14.655515	-0.091861	0.028870	2.795152	0.000000	-0.001743	0.000000	-0.000008	-0.000001	0.000000	0.000000
57.429918	20.800852	14.643841	-0.108134	0.006021	2.794569	0.000000	-0.001743	0.000000	-0.000008	-0.000001	0.000000	0.000000
57.727240	20.869453	14.646298	-0.177126	0.023987	2.794052	0.000000	0.005558	0.000000	-0.000008	-0.000001	0.000000	0.000000
58.276300	20.707944	14.901168	0.469540	-0.490920	2.774464	0.000000	-0.076805	0.000000	-0.000009	-0.000001	0.000000	0.000000
58.825360	19.850407	15.737236	1.083041	-1.040795	2.709961	0.000000	-0.157806	0.000000	-0.000009	-0.000001	0.000000	0.000000
59.374420	18.357415	17.214053	1.620041	-1.664802	2.601689	0.000000	-0.236007	0.000000	-0.000010	-0.000000	0.000000	0.000000
59.923480	16.334424	19.436811	2.042610	-2.407390	2.451566	0.000000	-0.310022	0.000000	-0.000010	0.000000	0.000000	0.000000
60.369440	14.751073	21.412391	1.520397	-2.003861	2.328599	0.000000	-0.241740	0.000000	-0.000010	-0.000000	0.000000	0.000000
60.810400	13.612317	22.968018	1.071848	-1.510533	2.236450	0.000000	-0.176607	0.000000	-0.000010	-0.000000	0.000000	0.000000
61.251360	12.846138	24.056485	0.672268	-0.948478	2.172551	0.000000	-0.113487	0.000000	-0.000010	-0.000001	0.000000	0.000000
61.692320	12.417533	24.628269	0.303402	-0.343267	2.136175	0.000000	-0.051658	0.000000	-0.000010	-0.000001	0.000000	0.000000
62.134530	12.306972	24.656810	-0.021520	0.217036	2.126912	0.000000	0.004365	0.000000	-0.000011	-0.000001	0.000000	0.000000
62.431853	12.326955	24.531505	-0.045690	0.204409	2.128211	0.000000	0.004365	0.000000	-0.000011	-0.000001	0.000000	0.000000
62.765186	12.366448	24.399951	-0.072788	0.190254	2.129666	0.000000	0.004365	0.000000	-0.000012	-0.000001	0.000000	0.000000
63.098520	12.424006	24.277834	-0.099885	0.176098	2.131122	0.000000	0.004365	0.000000	-0.000012	-0.000001	0.000000	0.000000
63.433103	12.499946	24.164749	-0.127084	0.161889	2.132583	0.000000	0.004365	0.000000	-0.000012	-0.000001	0.000000	0.000000
63.730426	12.582702	24.072236	-0.120394	0.090223	2.133881	0.000000	-0.000868	0.000000	-0.000013	-0.000001	0.000000	0.000000
64.171386	12.849141	23.727567	-0.486122	0.688437	2.147039	0.000000	0.060602	0.000000	-0.000013	-0.000001	0.000000	0.000000
64.612346	13.446659	22.867171	-0.874060	1.255327	2.187429	0.000000	0.122762	0.000000	-0.000014	-0.000002	0.000000	0.000000
65.053306	14.402557	21.530195	-1.301930	1.765102	2.255512	0.000000	0.186320	0.000000	-0.000015	-0.000002	0.000000	0.000000
65.494266	15.760506	19.777471	-1.789282	2.194565	2.352062	0.000000	0.252001	0.000000	-0.000016	-0.000003	0.000000	0.000000
65.940226	17.605708	17.663949	-2.363073	2.524929	2.479752	0.000000	0.320953	0.000000	-0.000017	-0.000003	0.000000	0.000000
66.489286	19.971180	15.299617	-1.919647	1.806636	2.635609	0.000000	0.245932	0.000000	-0.000019	-0.000002	0.000000	0.000000
67.038346	21.771924	13.649188	-1.340627	1.217024	2.749015	0.000000	0.166548	0.000000	-0.000020	-0.000002	0.000000	0.000000
67.587406	22.880746	12.595108	-0.666912	0.714099	2.817958	0.000000	0.084210	0.000000	-0.000021	-0.000001	0.000000	0.000000
68.136466	23.219324	12.062296	0.053911	0.262037	2.841215	0.000000	0.000379	0.000000	-0.000021	-0.000000	0.000000	0.000000
68.435038	23.227205	11.895026	-0.019627	0.266674	2.843545	0.000000	0.007803	0.000000	-0.000021	-0.000001	0.000000	0.000000
68.768372	23.245075	11.727248	-0.033984	0.236658	2.846146	0.000000	0.007803	0.000000	-0.000021	-0.000001	0.000000	0.000000
69.101705	23.272516	11.579482	-0.048340	0.206642	2.848748	0.000000	0.007803	0.000000	-0.000022	-0.000001	0.000000	0.000000
69.436288	23.309685	11.451284	-0.062750	0.176514	2.851359	0.000000	0.007803	0.000000	-0.000022	-0.000001	0.000000	0.000000
69.733611	23.350807	11.354281	-0.136579	0.179413	2.853679	0.000000	0.015261	0.000000	-0.000022	-0.000001	0.000000	0.000000
70.282671	23.099743	11.384685	0.591133	-0.235114	2.838874	0.000000	-0.069111	0.000000	-0.000022	0.000000	0.000000	0.000000
