#ParticleID	Turn	x[m]	xp	y[m]	yp	z[m]	dE[GeV]# s	beta_x	beta_y	alpha_x	alpha_y	D_x	D_y	D_px	D_py	orbit_x	orbit_px	orbit_y	orbit_py
0.300000	11.799900	25.070404	-0.009878	-0.026574	2.618514	0.000000	-0.000142	0.000000	-0.000002	0.000002	0.000000	0.000000
0.601250	11.813543	25.090038	-0.035410	-0.038599	2.618471	0.000000	-0.000142	0.000000	-0.000001	0.000002	0.000000	0.000000
0.898573	11.842092	25.116519	-0.031569	-0.112060	2.618428	0.000000	-0.006563	0.000000	-0.000001	0.000002	0.000000	0.000000
1.339533	12.021901	24.936709	-0.377746	0.518277	2.631828	0.000000	0.067401	0.000000	0.000000	0.000002	0.000000	0.000000
1.780493	12.513439	24.209308	-0.741181	1.125032	2.677982	0.000000	0.142134	0.000000	0.000001	0.000002	0.000000	0.000000
2.221453	13.339161	22.967411	-1.138478	1.680599	2.757414	0.000000	0.218485	0.000000	0.000002	0.000002	0.000000	0.000000
2.662413	14.536794	21.267524	-1.587790	2.159700	2.871031	0.000000	0.297324	0.000000	0.000003	0.000002	0.000000	0.000000
3.108373	16.181760	19.162066	-2.113926	2.541670	3.021986	0.000000	0.380039	0.000000	0.000004	0.000002	0.000000	0.000000
3.657433	18.291221	16.797252	-1.705279	1.790775	3.205378	0.000000	0.287003	0.000000	0.000005	0.000002	0.000000	0.000000
4.206493	19.882737	15.182549	-1.176180	1.167433	3.336212	0.000000	0.188875	0.000000	0.000006	0.000002	0.000000	0.000000
4.755553	20.843892	14.202946	-0.564002	0.627245	3.412168	0.000000	0.087398	0.000000	0.000007	0.000002	0.000000	0.000000
5.304613	21.106794	13.788667	0.088015	0.131734	3.431899	0.000000	-0.015630	0.000000	0.000008	0.000001	0.000000	0.000000
5.603185	21.091394	13.695138	0.018709	0.145495	3.429909	0.000000	-0.006663	0.000000	0.000008	0.000001	0.000000	0.000000
5.936519	21.084191	13.606426	0.002900	0.120641	3.427688	0.000000	-0.006663	0.000000	0.000008	0.000001	0.000000	0.000000
6.269852	21.087528	13.534284	-0.012910	0.095786	3.425466	0.000000	-0.006663	0.000000	0.000009	0.000001	0.000000	0.000000
6.604435	21.101476	13.478534	-0.028779	0.070838	3.423236	0.000000	-0.006663	0.000000	0.000009	0.000001	0.000000	0.000000
6.901758	21.122783	13.443002	-0.098066	0.083790	3.421255	0.000000	0.002275	0.000000	0.000010	0.000001	0.000000	0.000000
7.450818	20.870522	13.611997	0.554788	-0.393396	3.394306	0.000000	-0.100291	0.000000	0.000011	0.000001	0.000000	0.000000
7.999878	19.918724	14.317220	1.168456	-0.898603	3.311449	0.000000	-0.201077	0.000000	0.000011	0.000001	0.000000	0.000000
8.548938	18.334618	15.608901	1.699589	-1.467815	3.174153	0.000000	-0.298298	0.000000	0.000011	0.000000	0.000000	0.000000
9.097998	16.230098	17.579044	2.110672	-2.141576	2.984854	0.000000	-0.390227	0.000000	0.000011	0.000000	0.000000	0.000000
9.543958	14.588247	19.334502	1.584028	-1.778141	2.829131	0.000000	-0.308537	0.000000	0.000012	0.000000	0.000000	0.000000
9.984918	13.394219	20.712535	1.134036	-1.335039	2.710321	0.000000	-0.230844	0.000000	0.000012	0.000001	0.000000	0.000000
10.425878	12.572789	21.671406	0.735854	-0.831194	2.625159	0.000000	-0.155781	0.000000	0.000012	0.000001	0.000000	0.000000
10.866838	12.086427	22.167488	0.371292	-0.289530	2.572674	0.000000	-0.082493	0.000000	0.000013	0.000001	0.000000	0.000000
11.309048	11.912780	22.177683	0.052798	0.210867	2.552248	0.000000	-0.016401	0.000000	0.000013	0.000002	0.000000	0.000000
11.606371	11.888825	22.056455	0.027771	0.196865	2.547371	0.000000	-0.016401	0.000000	0.000014	0.000002	0.000000	0.000000
12.086371	11.881560	21.878315	-0.012635	0.174259	2.539497	0.000000	-0.016401	0.000000	0.000014	0.000002	0.000000	0.000000
12.566371	11.913084	21.721878	-0.053040	0.151653	2.531624	0.000000	-0.016401	0.000000	0.000015	0.000002	0.000000	0.000000
13.046371	11.983396	21.587141	-0.093445	0.129048	2.523750	0.000000	-0.016401	0.000000	0.000016	0.000002	0.000000	0.000000
13.526371	12.092498	21.474106	-0.133850	0.106442	2.515877	0.000000	-0.016401	0.000000	0.000017	0.000002	0.000000	0.000000
14.007621	12.240824	21.382564	-0.174361	0.083777	2.507983	0.000000	-0.016401	0.000000	0.000017	0.000002	0.000000	0.000000
14.304943	12.351948	21.336909	-0.169103	0.017460	2.503106	0.000000	-0.022539	0.000000	0.000018	0.000002	0.000000	0.000000
14.745903	12.659552	21.088006	-0.531121	0.544849	2.508791	0.000000	0.048353	0.000000	0.000019	0.000002	0.000000	0.000000
15.186863	13.295880	20.383184	-0.917404	1.047449	2.545829	0.000000	0.119796	0.000000	0.000020	0.000002	0.000000	0.000000
15.627823	14.290004	19.254511	-1.345601	1.502391	2.614640	0.000000	0.192603	0.000000	0.000021	0.000003	0.000000	0.000000
16.068783	15.687343	17.753342	-1.835274	1.888975	2.716009	0.000000	0.267604	0.000000	0.000022	0.000004	0.000000	0.000000
16.514743	17.575403	15.926481	-2.413555	2.190353	2.852783	0.000000	0.346115	0.000000	0.000024	0.000004	0.000000	0.000000
17.063803	20.000499	13.886737	-1.977108	1.546551	3.019103	0.000000	0.258837	0.000000	0.000026	0.000003	0.000000	0.000000
17.612863	21.866334	12.489687	-1.401008	1.012906	3.136171	0.000000	0.166969	0.000000	0.000028	0.000002	0.000000	0.000000
18.161923	23.041116	11.635825	-0.725948	0.551408	3.201908	0.000000	0.072138	0.000000	0.000029	0.000002	0.000000	0.000000
18.710983	23.441864	11.264330	0.000390	0.129186	3.215150	0.000000	-0.023972	0.000000	0.000029	0.000001	0.000000	0.000000
19.009556	23.482014	11.177729	-0.073628	0.131438	3.210501	0.000000	-0.015573	0.000000	0.000030	0.000001	0.000000	0.000000
19.342889	23.535856	11.100216	-0.087900	0.101102	3.205309	0.000000	-0.015573	0.000000	0.000030	0.000001	0.000000	0.000000
19.676223	23.599214	11.042927	-0.102173	0.070765	3.200118	0.000000	-0.015573	0.000000	0.000030	0.000001	0.000000	0.000000
20.010806	23.672671	11.005625	-0.233786	0.094844	3.194927	0.000000	0.000256	0.000000	0.000030	0.000001	0.000000	0.000000
20.308129	23.815629	10.957332	-0.309242	0.096207	3.195003	0.000000	0.008602	0.000000	0.000030	0.000001	0.000000	0.000000
20.857189	23.744436	11.073482	0.438138	-0.309000	3.173525	0.000000	-0.086721	0.000000	0.000031	-0.000000	0.000000	0.000000
21.406249	22.864735	11.644002	1.154570	-0.736217	3.100055	0.000000	-0.180507	0.000000	0.000030	-0.000001	0.000000	0.000000
21.955309	21.238665	12.709527	1.789449	-1.215873	2.975896	0.000000	-0.271091	0.000000	0.000030	-0.000002	0.000000	0.000000
22.504369	18.981082	14.345954	2.297931	-1.782133	2.803250	0.000000	-0.356866	0.000000	0.000028	-0.000003	0.000000	0.000000
22.950329	17.201766	15.815315	1.706005	-1.498794	2.661386	0.000000	-0.279706	0.000000	0.000027	-0.000002	0.000000	0.000000
23.391289	15.926618	16.986954	1.196719	-1.148112	2.554359	0.000000	-0.206186	0.000000	0.000026	-0.000002	0.000000	0.000000
23.832249	15.074904	17.825014	0.742108	-0.745192	2.479203	0.000000	-0.135015	0.000000	0.000026	-0.000001	0.000000	0.000000
24.273209	14.607711	18.291366	0.321402	-0.308366	2.435062	0.000000	-0.065381	0.000000	0.000025	-0.000000	0.000000	0.000000
24.715418	14.503817	18.364546	-0.049148	0.097397	2.421430	0.000000	-0.002429	0.000000	0.000025	0.000000	0.000000	0.000000
25.012741	14.539152	18.311489	-0.069697	0.081053	2.420708	0.000000	-0.002429	0.000000	0.000026	0.000000	0.000000	0.000000
25.346075	14.593296	18.263562	-0.092735	0.062730	2.419898	0.000000	-0.002429	0.000000	0.000026	0.000000	0.000000	0.000000
25.679408	14.662799	18.227849	-0.115773	0.044407	2.419088	0.000000	-0.002429	0.000000	0.000026	0.000000	0.000000	0.000000
26.013991	14.747709	18.204657	-0.019254	-0.121670	2.418251	0.000000	-0.022047	0.000000	0.000026	0.000000	0.000000	0.000000
26.311314	14.765155	18.281935	-0.003223	-0.183066	2.411696	0.000000	-0.027960	0.000000	0.000026	0.000000	0.000000	0.000000
26.752274	14.949883	18.245155	-0.417288	0.266158	2.414466	0.000000	0.040538	0.000000	0.000026	0.000001	0.000000	0.000000
27.193234	15.506778	17.816042	-0.850419	0.703272	2.447514	0.000000	0.109498	0.000000	0.000027	0.000001	0.000000	0.000000
27.634194	16.461285	17.014121	-1.322402	1.108387	2.511216	0.000000	0.179705	0.000000	0.000027	0.000002	0.000000	0.000000
28.075154	17.857011	15.875878	-1.854802	1.463072	2.606298	0.000000	0.251958	0.000000	0.000028	0.000003	0.000000	0.000000
28.521114	19.781967	14.435953	-2.476918	1.752100	2.735443	0.000000	0.327524	0.000000	0.000030	0.000004	0.000000	0.000000
29.070174	22.228569	12.831719	-1.952683	1.186927	2.892628	0.000000	0.244197	0.000000	0.000032	0.000003	0.000000	0.000000
29.619234	24.019887	11.798325	-1.290519	0.706297	3.002802	0.000000	0.156537	0.000000	0.000033	0.000002	0.000000	0.000000
30.168294	25.029392	11.262164	-0.537200	0.275974	3.064013	0.000000	0.066102	0.000000	0.000033	0.000000	0.000000	0.000000
30.717354	25.185776	11.185046	0.254064	-0.134691	3.075174	0.000000	-0.025506	0.000000	0.000033	-0.000001	0.000000	0.000000
31.015927	25.077012	11.256089	0.176002	-0.132465	3.069957	0.000000	-0.017474	0.000000	0.000033	-0.000001	0.000000	0.000000
31.349260	24.964246	11.354444	0.162298	-0.162599	3.064133	0.000000	-0.017474	0.000000	0.000033	-0.000001	0.000000	0.000000
31.682593	24.860615	11.472887	0.148594	-0.192732	3.058308	0.000000	-0.017474	0.000000	0.000033	-0.000001	0.000000	0.000000
32.017177	24.765784	11.611977	0.134838	-0.222978	3.052462	0.000000	-0.017474	0.000000	0.000033	-0.000001	0.000000	0.000000
32.314499	24.689237	11.752561	0.058124	-0.219157	3.047267	0.000000	-0.009514	0.000000	0.000032	-0.000000	0.000000	0.000000
32.863559	24.202361	12.232389	0.823370	-0.659909	3.017183	0.000000	-0.099911	0.000000	0.000032	-0.000001	0.000000	0.000000
33.412619	22.902271	13.219033	1.530458	-1.147666	2.937879	0.000000	-0.188537	0.000000	0.000031	-0.000002	0.000000	0.000000
33.961679	20.880797	14.782768	2.129442	-1.717167	2.810763	0.000000	-0.273818	0.000000	0.000029	-0.000003	0.000000	0.000000
34.510739	18.280729	17.034977	2.578013	-2.408979	2.638090	0.000000	-0.354242	0.000000	0.000027	-0.000004	0.000000	0.000000
34.956699	16.259002	19.049539	1.971652	-2.089520	2.496444	0.000000	-0.281364	0.000000	0.000025	-0.000004	0.000000	0.000000
35.397659	14.751326	20.716208	1.460393	-1.675732	2.387746	0.000000	-0.212118	0.000000	0.000024	-0.000003	0.000000	0.000000
35.838619	13.663526	21.982804	1.015855	-1.185699	2.309021	0.000000	-0.145288	0.000000	0.000023	-0.000002	0.000000	0.000000
36.279579	12.945902	22.791700	0.617729	-0.641717	2.259374	0.000000	-0.080112	0.000000	0.000022	-0.000002	0.000000	0.000000
36.721789	12.564974	23.106404	0.278526	-0.125245	2.238210	0.000000	-0.021337	0.000000	0.000021	-0.000001	0.000000	0.000000
37.019112	12.406931	23.184766	0.253027	-0.138314	2.231867	0.000000	-0.021337	0.000000	0.000021	-0.000001	0.000000	0.000000
37.352445	12.247775	23.281859	0.224441	-0.152966	2.224755	0.000000	-0.021337	0.000000	0.000020	-0.000001	0.000000	0.000000
37.685779	12.107676	23.388721	0.195854	-0.167619	2.217643	0.000000	-0.021337	0.000000	0.000020	-0.000001	0.000000	0.000000
38.020362	11.986218	23.505807	0.167160	-0.182326	2.210505	0.000000	-0.021337	0.000000	0.000019	-0.000001	0.000000	0.000000
38.317684	11.894399	23.618112	0.170825	-0.253304	2.204161	0.000000	-0.026741	0.000000	0.000019	-0.000001	0.000000	0.000000
38.758644	11.895344	23.579885	-0.172976	0.339665	2.206289	0.000000	0.036399	0.000000	0.000018	-0.000001	0.000000	0.000000
39.199604	12.201820	23.023549	-0.524680	0.917179	2.236323	0.000000	0.099953	0.000000	0.000018	-0.000000	0.000000	0.000000
39.640564	12.827829	21.974419	-0.900356	1.452963	2.294607	0.000000	0.164645	0.000000	0.000018	-0.000000	0.000000	0.000000
40.081524	13.801972	20.480228	-1.317166	1.922638	2.381802	0.000000	0.231213	0.000000	0.000018	0.000000	0.000000	0.000000
40.527484	15.186330	18.586376	-1.797981	2.306123	2.500375	0.000000	0.300819	0.000000	0.000018	0.000001	0.000000	0.000000
41.076544	16.952770	16.458058	-1.400180	1.593052	2.645026	0.000000	0.225311	0.000000	0.000018	0.000000	0.000000	0.000000
41.625604	18.225148	15.046246	-0.903476	0.993451	2.747059	0.000000	0.145806	0.000000	0.000018	-0.000000	0.000000	0.000000
42.174664	18.913589	14.250380	-0.342956	0.464611	2.804664	0.000000	0.063715	0.000000	0.000018	-0.000001	0.000000	0.000000
42.723724	18.969465	14.013773	0.241790	-0.031135	2.816820	0.000000	-0.019506	0.000000	0.000017	-0.000001	0.000000	0.000000
43.022297	18.859547	14.016865	0.175912	-0.015831	2.813194	0.000000	-0.012147	0.000000	0.000017	-0.000001	0.000000	0.000000
43.502297	18.703267	14.048505	0.149673	-0.050084	2.807364	0.000000	-0.012147	0.000000	0.000016	-0.000001	0.000000	0.000000
43.982297	18.572175	14.113027	0.123434	-0.084338	2.801534	0.000000	-0.012147	0.000000	0.000016	-0.000001	0.000000	0.000000
44.462297	18.466273	14.210433	0.097195	-0.118591	2.795704	0.000000	-0.012147	0.000000	0.000015	-0.000001	0.000000	0.000000
44.942297	18.385561	14.340721	0.070956	-0.152844	2.789874	0.000000	-0.012147	0.000000	0.000014	-0.000001	0.000000	0.000000
45.423547	18.330153	14.504180	-0.046169	-0.115323	2.784046	0.000000	0.001647	0.000000	0.000014	-0.000001	0.000000	0.000000
45.720870	18.362440	14.578933	-0.110396	-0.098007	2.784536	0.000000	0.008922	0.000000	0.000013	-0.000001	0.000000	0.000000
46.269930	18.174497	14.968437	0.450668	-0.615581	2.766875	0.000000	-0.073164	0.000000	0.000012	-0.000002	0.000000	0.000000
46.818990	17.384352	15.946897	0.979898	-1.177002	2.704433	0.000000	-0.153952	0.000000	0.000011	-0.000002	0.000000	0.000000
47.368050	16.047818	17.584006	1.439914	-1.822257	2.598320	0.000000	-0.232010	0.000000	0.000010	-0.000002	0.000000	0.000000
47.917110	14.259299	19.996374	1.798221	-2.597308	2.450417	0.000000	-0.305952	0.000000	0.000009	-0.000003	0.000000	0.000000
48.363070	12.867609	22.141060	1.333496	-2.191619	2.329263	0.000000	-0.237675	0.000000	0.000007	-0.000003	0.000000	0.000000
48.804030	11.871747	23.858127	0.933466	-1.687491	2.238914	0.000000	-0.172503	0.000000	0.000006	-0.000002	0.000000	0.000000
49.244990	11.208612	25.094908	0.576082	-1.106584	2.176843	0.000000	-0.109295	0.000000	0.000005	-0.000002	0.000000	0.000000
49.685950	10.847908	25.795132	0.245019	-0.475327	2.142344	0.000000	-0.047332	0.000000	0.000004	-0.000002	0.000000	0.000000
50.128160	10.773275	25.926654	-0.048549	0.113929	2.135035	0.000000	0.008857	0.000000	0.000003	-0.000002	0.000000	0.000000
50.425482	10.810369	25.862361	-0.076212	0.102313	2.137669	0.000000	0.008857	0.000000	0.000003	-0.000002	0.000000	0.000000
50.758816	10.871516	25.798493	-0.107226	0.089289	2.140622	0.000000	0.008857	0.000000	0.000002	-0.000002	0.000000	0.000000
51.092149	10.953338	25.743309	-0.138240	0.076265	2.143575	0.000000	0.008857	0.000000	0.000002	-0.000002	0.000000	0.000000
51.426732	11.056034	25.697169	-0.079676	-0.145275	2.146517	0.000000	-0.008557	0.000000	0.000001	-0.000002	0.000000	0.000000
51.724055	11.111460	25.787069	-0.079491	-0.220328	2.143973	0.000000	-0.013814	0.000000	0.000000	-0.000002	0.000000	0.000000
52.165015	11.326686	25.694458	-0.410448	0.429551	2.151470	0.000000	0.047843	0.000000	-0.000001	-0.000002	0.000000	0.000000
52.605975	11.840925	25.035167	-0.760157	1.059885	2.186248	0.000000	0.110045	0.000000	-0.000002	-0.000002	0.000000	0.000000
53.046935	12.677670	23.839194	-1.144596	1.641996	2.248706	0.000000	0.173500	0.000000	-0.000002	-0.000002	0.000000	0.000000
53.487895	13.875150	22.160956	-1.581328	2.149397	2.339553	0.000000	0.238932	0.000000	-0.000003	-0.000002	0.000000	0.000000
53.933855	15.508606	20.051721	-2.094529	2.560341	2.461330	0.000000	0.307483	0.000000	-0.000004	-0.000002	0.000000	0.000000
54.482915	17.611722	17.678206	-1.713192	1.788045	2.609977	0.000000	0.233175	0.000000	-0.000006	-0.000002	0.000000	0.000000
55.031975	19.226753	16.078272	-1.210844	1.143107	2.716627	0.000000	0.154732	0.000000	-0.000007	-0.000002	0.000000	0.000000
55.581035	20.239621	15.137958	-0.622968	0.579590	2.779389	0.000000	0.073543	0.000000	-0.000008	-0.000002	0.000000	0.000000
56.130095	20.578782	14.790289	0.008911	0.057356	2.797149	0.000000	-0.008950	0.000000	-0.000009	-0.000001	0.000000	0.000000
56.428668	20.609912	14.739044	-0.059400	0.075630	2.796659	0.000000	-0.001641	0.000000	-0.000009	-0.000001	0.000000	0.000000
56.762001	20.654922	14.696205	-0.075630	0.052885	2.796113	0.000000	-0.001641	0.000000	-0.000009	-0.000001	0.000000	0.000000
57.095334	20.710752	14.668530	-0.091861	0.030140	2.795567	0.000000	-0.001641	0.000000	-0.000010	-0.000001	0.000000	0.000000
57.429918	20.777673	14.656000	-0.108152	0.007310	2.795018	0.000000	-0.001641	0.000000	-0.000010	-0.000001	0.000000	0.000000
57.727240	20.846289	14.657685	-0.177102	0.025323	2.794531	0.000000	0.005662	0.000000	-0.000011	-0.000001	0.000000	0.000000
58.276300	20.685178	14.911258	0.468794	-0.489881	2.774996	0.000000	-0.076718	0.000000	-0.000012	-0.000001	0.000000	0.000000
58.825360	19.828863	15.746314	1.081577	-1.039978	2.710537	0.000000	-0.157736	0.000000	-0.000012	-0.000001	0.000000	0.000000
59.374420	18.337828	17.222330	1.617962	-1.664151	2.602297	0.000000	-0.235957	0.000000	-0.000012	-0.000000	0.000000	0.000000
59.923480	16.317393	19.444440	2.040063	-2.406857	2.452197	0.000000	-0.309992	0.000000	-0.000012	0.000000	0.000000	0.000000
60.369440	14.736072	21.419407	1.518374	-2.003023	2.329247	0.000000	-0.241693	0.000000	-0.000012	-0.000000	0.000000	0.000000
60.810400	13.598906	22.974176	1.070252	-1.509433	2.237122	0.000000	-0.176544	0.000000	-0.000013	-0.000001	0.000000	0.000000
61.251360	12.833973	24.061574	0.671027	-0.947164	2.173255	0.000000	-0.113405	0.000000	-0.000013	-0.000001	0.000000	0.000000
61.692320	12.406327	24.632127	0.302460	-0.341800	2.136919	0.000000	-0.051558	0.000000	-0.000013	-0.000001	0.000000	0.000000
62.134530	12.296484	24.659327	-0.022233	0.218582	2.127706	0.000000	0.004483	0.000000	-0.000014	-0.000002	0.000000	0.000000
62.431853	12.316897	24.533104	-0.046424	0.205949	2.129039	0.000000	0.004483	0.000000	-0.000015	-0.000002	0.000000	0.000000
62.765186	12.356887	24.400526	-0.073545	0.191785	2.130534	0.000000	0.004483	0.000000	-0.000015	-0.000002	0.000000	0.000000
63.098520	12.414958	24.277390	-0.100667	0.177622	2.132029	0.000000	0.004483	0.000000	-0.000016	-0.000002	0.000000	0.000000
63.433103	12.491429	24.163288	-0.127890	0.163405	2.133530	0.000000	0.004483	0.000000	-0.000016	-0.000002	0.000000	0.000000
63.730426	12.574671	24.069876	-0.121240	0.091736	2.134863	0.000000	-0.000753	0.000000	-0.000017	-0.000002	0.000000	0.000000
64.171386	12.841782	23.723913	-0.486808	0.689848	2.148078	0.000000	0.060743	0.000000	-0.000017	-0.000002	0.000000	0.000000
64.612346	13.439847	22.862341	-0.874618	1.256572	2.188537	0.000000	0.122931	0.000000	-0.000018	-0.000002	0.000000	0.000000
65.053306	14.396190	21.524362	-1.302386	1.766124	2.256701	0.000000	0.186519	0.000000	-0.000020	-0.000003	0.000000	0.000000
65.494266	15.754503	19.770852	-1.789656	2.195318	2.353346	0.000000	0.252231	0.000000	-0.000021	-0.000003	0.000000	0.000000
65.940226	17.600008	17.656793	-2.363382	2.525376	2.481146	0.000000	0.321218	0.000000	-0.000023	-0.000004	0.000000	0.000000
66.489286	19.965976	15.291927	-1.920238	1.807167	2.637137	0.000000	0.246149	0.000000	-0.000025	-0.000003	0.000000	0.000000
67.038346	21.767505	13.640853	-1.341458	1.217678	2.750649	0.000000	0.166715	0.000000	-0.000026	-0.000002	0.000000	0.000000
67.587406	22.877346	12.585967	-0.667925	0.714921	2.819669	0.000000	0.084323	0.000000	-0.000027	-0.000002	0.000000	0.000000
68.136466	23.217104	12.052133	0.052787	0.263087	2.842972	0.000000	0.000435	0.000000	-0.000028	-0.000001	0.000000	0.000000
68.435038	23.225654	11.884262	-0.020750	0.267661	2.845321	0.000000	0.007865	0.000000	-0.000028	-0.000001	0.000000	0.000000
68.768372	23.244274	11.715841	-0.035108	0.237603	2.847943	0.000000	0.007865	0.000000	-0.000028	-0.000001	0.000000	0.000000
69.101705	23.272465	11.567458	-0.049466	0.207545	2.850564	0.000000	0.007865	0.000000	-0.000029	-0.000001	0.000000	0.000000
69.436288	23.310388	11.438670	-0.063878	0.177375	2.853196	0.000000	0.007865	0.000000	-0.000029	-0.000001	0.000000	0.000000
69.733611	23.352180	11.341167	-0.137715	0.180204	2.855535	0.000000	0.015328	0.000000	-0.000029	-0.000001	0.000000	0.000000
70.282671	23.102328	11.370497	0.590075	-0.233939	2.840750	0.000000	-0.069105	0.000000	-0.000029	0.000000	0.000000	0.000000
