#ParticleID	Turn	x[m]	xp	y[m]	yp	z[m]	dE[GeV]# s	beta_x	beta_y	alpha_x	alpha_y	D_x	D_y	D_px	D_py	orbit_x	orbit_px	orbit_y	orbit_py
0.300000	11.819403	24.995296	-0.011717	-0.027482	2.618106	0.000000	0.000015	0.000000	-0.000000	0.000001	0.000000	0.000000
0.601250	11.834141	25.015487	-0.037208	-0.039543	2.618111	0.000000	0.000015	0.000000	-0.000000	0.000001	0.000000	0.000000
0.898573	11.863747	25.042541	-0.033274	-0.112859	2.618115	0.000000	-0.006406	0.000000	0.000000	0.000001	0.000000	0.000000
1.339533	12.045291	24.864297	-0.379988	0.515539	2.631583	0.000000	0.067552	0.000000	0.000000	0.000001	0.000000	0.000000
1.780493	12.539079	24.140121	-0.744063	1.120481	2.677802	0.000000	0.142278	0.000000	0.000001	0.000001	0.000000	0.000000
2.221453	13.367673	22.902965	-1.142132	1.674441	2.757298	0.000000	0.218625	0.000000	0.000001	0.000001	0.000000	0.000000
2.662413	14.568927	21.209116	-1.592382	2.152216	2.870977	0.000000	0.297463	0.000000	0.000001	0.000001	0.000000	0.000000
3.108373	16.218490	19.110803	-2.119677	2.533198	3.021994	0.000000	0.380177	0.000000	0.000002	0.000001	0.000000	0.000000
3.657433	18.333762	16.754124	-1.710052	1.784344	3.205462	0.000000	0.287139	0.000000	0.000002	0.000001	0.000000	0.000000
4.206493	19.929823	15.145579	-1.179637	1.162584	3.336371	0.000000	0.189008	0.000000	0.000003	0.000001	0.000000	0.000000
4.755553	20.893935	14.170594	-0.565900	0.623632	3.412399	0.000000	0.087524	0.000000	0.000003	0.000001	0.000000	0.000000
5.304613	21.157998	13.759724	0.087811	0.129101	3.432197	0.000000	-0.015512	0.000000	0.000003	0.000001	0.000000	0.000000
5.603185	21.142790	13.667820	0.018404	0.142761	3.430243	0.000000	-0.006544	0.000000	0.000003	0.000001	0.000000	0.000000
5.936519	21.135778	13.580941	0.002633	0.117876	3.428062	0.000000	-0.006544	0.000000	0.000004	0.000001	0.000000	0.000000
6.269852	21.139280	13.510652	-0.013138	0.092990	3.425880	0.000000	-0.006544	0.000000	0.000004	0.000001	0.000000	0.000000
6.604435	21.153369	13.456784	-0.028969	0.068012	3.423690	0.000000	-0.006544	0.000000	0.000004	0.000001	0.000000	0.000000
6.901758	21.174777	13.422940	-0.098360	0.080886	3.421744	0.000000	0.002396	0.000000	0.000004	0.000001	0.000000	0.000000
7.450818	20.921882	13.594828	0.556230	-0.395792	3.394858	0.000000	-0.100187	0.000000	0.000004	0.000000	0.000000	0.000000
7.999878	19.967590	14.302481	1.171530	-0.900660	3.312053	0.000000	-0.200992	0.000000	0.000005	0.000000	0.000000	0.000000
8.548938	18.379306	15.596303	1.704079	-1.469681	3.174799	0.000000	-0.298233	0.000000	0.000005	0.000000	0.000000	0.000000
9.097998	16.269220	17.568451	2.116261	-2.143383	2.985529	0.000000	-0.390183	0.000000	0.000005	-0.000000	0.000000	0.000000
9.543958	14.622927	19.325756	1.588434	-1.780460	2.829830	0.000000	-0.308476	0.000000	0.000005	0.000000	0.000000	0.000000
9.984918	13.425456	20.706018	1.137469	-1.337760	2.711051	0.000000	-0.230765	0.000000	0.000005	0.000000	0.000000	0.000000
10.425878	12.601367	21.667421	0.738473	-0.834192	2.625928	0.000000	-0.155682	0.000000	0.000005	0.000000	0.000000	0.000000
10.866838	12.113009	22.166220	0.373215	-0.292670	2.573491	0.000000	-0.082373	0.000000	0.000005	0.000000	0.000000	0.000000
11.309048	11.937937	22.179202	0.054177	0.207722	2.553123	0.000000	-0.016263	0.000000	0.000005	0.000001	0.000000	0.000000
11.606371	11.913148	22.059839	0.029199	0.193738	2.548288	0.000000	-0.016263	0.000000	0.000005	0.000001	0.000000	0.000000
12.086371	11.904473	21.884687	-0.011127	0.171162	2.540481	0.000000	-0.016263	0.000000	0.000006	0.000001	0.000000	0.000000
12.566371	11.934512	21.731208	-0.051453	0.148586	2.532675	0.000000	-0.016263	0.000000	0.000006	0.000001	0.000000	0.000000
13.046371	12.003264	21.599401	-0.091779	0.126011	2.524868	0.000000	-0.016263	0.000000	0.000006	0.000001	0.000000	0.000000
13.526371	12.110729	21.489268	-0.132105	0.103435	2.517062	0.000000	-0.016263	0.000000	0.000006	0.000001	0.000000	0.000000
14.007621	12.257337	21.400604	-0.172536	0.080800	2.509235	0.000000	-0.016263	0.000000	0.000007	0.000001	0.000000	0.000000
14.304943	12.367362	21.356714	-0.167189	0.014447	2.504399	0.000000	-0.022404	0.000000	0.000007	0.000001	0.000000	0.000000
14.745903	12.673410	21.110214	-0.529494	0.542435	2.510152	0.000000	0.048522	0.000000	0.000007	0.000001	0.000000	0.000000
15.186863	13.308402	20.407215	-0.915991	1.045743	2.547273	0.000000	0.120001	0.000000	0.000008	0.000001	0.000000	0.000000
15.627823	14.301349	19.279705	-1.344336	1.501471	2.616183	0.000000	0.192847	0.000000	0.000008	0.000001	0.000000	0.000000
16.068783	15.697616	17.778984	-1.834101	1.888882	2.717669	0.000000	0.267889	0.000000	0.000009	0.000001	0.000000	0.000000
16.514743	17.584650	15.951830	-2.412417	2.191098	2.854581	0.000000	0.346445	0.000000	0.000009	0.000002	0.000000	0.000000
17.063803	20.008191	13.911596	-1.975435	1.546703	3.021067	0.000000	0.259106	0.000000	0.000010	0.000001	0.000000	0.000000
17.612863	21.871947	12.514698	-1.398918	1.012477	3.138265	0.000000	0.167171	0.000000	0.000011	0.000001	0.000000	0.000000
18.161923	23.044270	11.661638	-0.723588	0.550367	3.204096	0.000000	0.072272	0.000000	0.000011	0.000001	0.000000	0.000000
18.710983	23.442354	11.291655	0.002852	0.127458	3.217393	0.000000	-0.023910	0.000000	0.000011	0.000000	0.000000	0.000000
19.009556	23.481039	11.206017	-0.071173	0.129865	3.212763	0.000000	-0.015504	0.000000	0.000011	0.000000	0.000000	0.000000
19.342889	23.533243	11.129523	-0.085440	0.099618	3.207595	0.000000	-0.015504	0.000000	0.000011	0.000000	0.000000	0.000000
19.676223	23.594959	11.073194	-0.099708	0.069370	3.202427	0.000000	-0.015504	0.000000	0.000011	0.000000	0.000000	0.000000
20.010806	23.666766	11.036795	-0.231288	0.093692	3.197260	0.000000	0.000337	0.000000	0.000011	0.000000	0.000000	0.000000
20.308129	23.808235	10.989162	-0.306723	0.095226	3.197360	0.000000	0.008690	0.000000	0.000012	0.000000	0.000000	0.000000
20.857189	23.734424	11.106883	0.440359	-0.310897	3.175909	0.000000	-0.086710	0.000000	0.000012	-0.000000	0.000000	0.000000
21.406249	22.852521	11.680046	1.156336	-0.739164	3.102424	0.000000	-0.180572	0.000000	0.000012	-0.000000	0.000000	0.000000
21.955309	21.224821	12.749476	1.790636	-1.220081	2.978208	0.000000	-0.271232	0.000000	0.000011	-0.000001	0.000000	0.000000
22.504369	18.966296	14.391347	2.298453	-1.787901	2.805463	0.000000	-0.357080	0.000000	0.000011	-0.000001	0.000000	0.000000
22.950329	17.186416	15.865391	1.706754	-1.503482	2.663515	0.000000	-0.279864	0.000000	0.000010	-0.000001	0.000000	0.000000
23.391289	15.910496	17.040609	1.197729	-1.151511	2.556430	0.000000	-0.206291	0.000000	0.000010	-0.000001	0.000000	0.000000
23.832249	15.057760	17.881040	0.743424	-0.747148	2.481239	0.000000	-0.135066	0.000000	0.000010	-0.000000	0.000000	0.000000
24.273209	14.589250	18.348445	0.323084	-0.308789	2.437087	0.000000	-0.065380	0.000000	0.000010	-0.000000	0.000000	0.000000
24.715418	14.483679	18.421311	-0.047067	0.098379	2.423467	0.000000	-0.002381	0.000000	0.000010	0.000000	0.000000	0.000000
25.012741	14.517784	18.367655	-0.067641	0.082083	2.422759	0.000000	-0.002381	0.000000	0.000010	0.000000	0.000000	0.000000
25.346075	14.570566	18.319024	-0.090706	0.063812	2.421965	0.000000	-0.002381	0.000000	0.000010	0.000000	0.000000	0.000000
25.679408	14.638725	18.282572	-0.113771	0.045542	2.421171	0.000000	-0.002381	0.000000	0.000010	0.000000	0.000000	0.000000
26.013991	14.722305	18.258603	-0.017486	-0.120919	2.420350	0.000000	-0.022017	0.000000	0.000010	0.000000	0.000000	0.000000
26.311314	14.738709	18.335419	-0.001548	-0.182401	2.413804	0.000000	-0.027936	0.000000	0.000010	0.000000	0.000000	0.000000
26.752274	14.921670	18.297414	-0.414941	0.268260	2.416597	0.000000	0.040617	0.000000	0.000010	0.000000	0.000000	0.000000
27.193234	15.476160	17.865846	-0.847291	0.706715	2.449692	0.000000	0.109632	0.000000	0.000010	0.000001	0.000000	0.000000
27.634194	16.427513	17.060352	-1.318352	1.113016	2.513466	0.000000	0.179896	0.000000	0.000010	0.000001	0.000000	0.000000
28.075154	17.819194	15.917581	-1.849645	1.468675	2.608646	0.000000	0.252209	0.000000	0.000011	0.000001	0.000000	0.000000
28.521114	19.738964	14.472315	-2.470406	1.758423	2.737918	0.000000	0.327838	0.000000	0.000011	0.000001	0.000000	0.000000
29.070174	22.179004	12.861954	-1.947317	1.191831	2.895253	0.000000	0.244427	0.000000	0.000012	0.000001	0.000000	0.000000
29.619234	23.965235	11.823791	-1.286678	0.710130	3.005531	0.000000	0.156681	0.000000	0.000012	0.000001	0.000000	0.000000
30.168294	24.971489	11.283880	-0.535156	0.279011	3.066797	0.000000	0.066156	0.000000	0.000012	0.000000	0.000000	0.000000
30.717354	25.126687	11.203765	0.254168	-0.132236	3.077963	0.000000	-0.025542	0.000000	0.000012	-0.000000	0.000000	0.000000
31.015927	25.017785	11.273291	0.176218	-0.129897	3.072738	0.000000	-0.017501	0.000000	0.000012	-0.000000	0.000000	0.000000
31.349260	24.904885	11.369912	0.162481	-0.159964	3.066905	0.000000	-0.017501	0.000000	0.000012	-0.000000	0.000000	0.000000
31.682593	24.801144	11.486577	0.148743	-0.190032	3.061071	0.000000	-0.017501	0.000000	0.000012	-0.000000	0.000000	0.000000
32.017177	24.706224	11.623838	0.134954	-0.220212	3.055216	0.000000	-0.017501	0.000000	0.000012	-0.000000	0.000000	0.000000
32.314499	24.629617	11.762760	0.058354	-0.216300	3.050013	0.000000	-0.009532	0.000000	0.000012	-0.000000	0.000000	0.000000
32.863559	24.143575	12.239539	0.821632	-0.657181	3.019894	0.000000	-0.100018	0.000000	0.000012	-0.000001	0.000000	0.000000
33.412619	22.846424	13.223169	1.526874	-1.144872	2.940507	0.000000	-0.188730	0.000000	0.000011	-0.000001	0.000000	0.000000
33.961679	20.829791	14.783711	2.124266	-1.714110	2.813261	0.000000	-0.274094	0.000000	0.000011	-0.000001	0.000000	0.000000
34.510739	18.236119	17.032318	2.571609	-2.405440	2.640413	0.000000	-0.354596	0.000000	0.000010	-0.000002	0.000000	0.000000
34.956699	16.219475	19.043592	1.966621	-2.085717	2.498622	0.000000	-0.281660	0.000000	0.000009	-0.000001	0.000000	0.000000
35.397659	14.715724	20.706855	1.456492	-1.671841	2.389804	0.000000	-0.212359	0.000000	0.000009	-0.000001	0.000000	0.000000
35.838619	13.630933	21.970047	1.012906	-1.181898	2.310984	0.000000	-0.145477	0.000000	0.000008	-0.000001	0.000000	0.000000
36.279579	12.915542	22.775694	0.615597	-0.638180	2.261263	0.000000	-0.080252	0.000000	0.000008	-0.000001	0.000000	0.000000
36.721789	12.536175	23.087446	0.277047	-0.122092	2.240048	0.000000	-0.021434	0.000000	0.000008	-0.000001	0.000000	0.000000
37.019112	12.379023	23.163934	0.251509	-0.135162	2.233676	0.000000	-0.021434	0.000000	0.000007	-0.000001	0.000000	0.000000
37.352445	12.220893	23.258927	0.222879	-0.149815	2.226531	0.000000	-0.021434	0.000000	0.000007	-0.000001	0.000000	0.000000
37.685779	12.081851	23.363688	0.194248	-0.164469	2.219387	0.000000	-0.021434	0.000000	0.000007	-0.000001	0.000000	0.000000
38.020362	11.961482	23.478666	0.165510	-0.179177	2.212216	0.000000	-0.021434	0.000000	0.000007	-0.000001	0.000000	0.000000
38.317684	11.870655	23.589098	0.169081	-0.250091	2.205843	0.000000	-0.026843	0.000000	0.000007	-0.000001	0.000000	0.000000
38.758644	11.872903	23.548386	-0.174197	0.342065	2.207935	0.000000	0.036340	0.000000	0.000007	-0.000000	0.000000	0.000000
39.199604	12.180246	22.990334	-0.525434	0.918658	2.237953	0.000000	0.099936	0.000000	0.000006	-0.000000	0.000000	0.000000
39.640564	12.806728	21.940333	-0.900677	1.453452	2.296238	0.000000	0.164671	0.000000	0.000006	-0.000000	0.000000	0.000000
40.081524	13.780969	20.446157	-1.317069	1.922115	2.383454	0.000000	0.231281	0.000000	0.000006	0.000000	0.000000	0.000000
40.527484	15.165052	18.553221	-1.797460	2.304605	2.502067	0.000000	0.300930	0.000000	0.000006	0.000000	0.000000	0.000000
41.076544	16.931381	16.426068	-1.400502	1.592434	2.646764	0.000000	0.225366	0.000000	0.000007	0.000000	0.000000	0.000000
41.625604	18.204568	15.014464	-0.904620	0.993689	2.748812	0.000000	0.145805	0.000000	0.000007	-0.000000	0.000000	0.000000
42.174664	18.894681	14.217862	-0.344840	0.465722	2.806400	0.000000	0.063658	0.000000	0.000006	-0.000000	0.000000	0.000000
42.723724	18.952975	13.979523	0.239298	-0.029073	2.818509	0.000000	-0.019619	0.000000	0.000006	-0.000001	0.000000	0.000000
43.022297	18.844522	13.981451	0.173459	-0.013908	2.814850	0.000000	-0.012255	0.000000	0.000006	-0.000001	0.000000	0.000000
43.502297	18.690595	14.011285	0.147221	-0.048246	2.808968	0.000000	-0.012255	0.000000	0.000006	-0.000001	0.000000	0.000000
43.982297	18.561857	14.074083	0.120983	-0.082584	2.803085	0.000000	-0.012255	0.000000	0.000005	-0.000001	0.000000	0.000000
44.462297	18.458307	14.169845	0.094745	-0.116922	2.797203	0.000000	-0.012255	0.000000	0.000005	-0.000001	0.000000	0.000000
44.942297	18.379946	14.298572	0.068507	-0.151259	2.791321	0.000000	-0.012255	0.000000	0.000005	-0.000001	0.000000	0.000000
45.423547	18.326895	14.460549	-0.048601	-0.114040	2.785441	0.000000	0.001546	0.000000	0.000005	-0.000001	0.000000	0.000000
45.720870	18.360630	14.534555	-0.112833	-0.096894	2.785901	0.000000	0.008825	0.000000	0.000005	-0.000001	0.000000	0.000000
46.269930	18.175375	14.922091	0.448239	-0.613090	2.768173	0.000000	-0.073304	0.000000	0.000004	-0.000001	0.000000	0.000000
46.818990	17.387813	15.896982	0.977651	-1.172954	2.705643	0.000000	-0.154133	0.000000	0.000004	-0.000001	0.000000	0.000000
47.368050	16.053574	17.528666	1.438006	-1.816366	2.599420	0.000000	-0.232228	0.000000	0.000003	-0.000001	0.000000	0.000000
47.917110	14.266902	19.933366	1.796787	-2.589153	2.451387	0.000000	-0.306204	0.000000	0.000003	-0.000001	0.000000	0.000000
48.363070	12.876486	22.071384	1.332064	-2.184885	2.330125	0.000000	-0.237903	0.000000	0.000002	-0.000001	0.000000	0.000000
48.804030	11.881912	23.783251	0.931967	-1.682478	2.239680	0.000000	-0.172710	0.000000	0.000002	-0.000001	0.000000	0.000000
49.244990	11.220152	25.016458	0.574450	-1.103520	2.177521	0.000000	-0.109483	0.000000	0.000002	-0.000001	0.000000	0.000000
49.685950	10.860974	25.714894	0.243178	-0.474353	2.142942	0.000000	-0.047503	0.000000	0.000001	-0.000001	0.000000	0.000000
50.128160	10.788092	25.846501	-0.050646	0.112965	2.135559	0.000000	0.008698	0.000000	0.000001	-0.000001	0.000000	0.000000
50.425482	10.826424	25.782790	-0.078277	0.101315	2.138146	0.000000	0.008698	0.000000	0.000001	-0.000001	0.000000	0.000000
50.758816	10.888934	25.719601	-0.109254	0.088254	2.141045	0.000000	0.008698	0.000000	0.000000	-0.000001	0.000000	0.000000
51.092149	10.972096	25.665119	-0.140232	0.075192	2.143945	0.000000	0.008698	0.000000	0.000000	-0.000001	0.000000	0.000000
51.426732	11.076113	25.619709	-0.081469	-0.145758	2.146834	0.000000	-0.008718	0.000000	-0.000000	-0.000001	0.000000	0.000000
51.724055	11.132593	25.709907	-0.081190	-0.220658	2.144242	0.000000	-0.013977	0.000000	-0.000000	-0.000001	0.000000	0.000000
52.165015	11.349542	25.618487	-0.412670	0.427189	2.151667	0.000000	0.047687	0.000000	-0.000001	-0.000001	0.000000	0.000000
52.605975	11.866008	24.962138	-0.763004	1.055600	2.186378	0.000000	0.109893	0.000000	-0.000001	-0.000001	0.000000	0.000000
53.046935	12.705585	23.770725	-1.148197	1.635982	2.248768	0.000000	0.173351	0.000000	-0.000001	-0.000001	0.000000	0.000000
53.487895	13.906633	22.098454	-1.585848	2.141928	2.339549	0.000000	0.238783	0.000000	-0.000002	-0.000001	0.000000	0.000000
53.933855	15.544611	19.996410	-2.100183	2.551754	2.461260	0.000000	0.307333	0.000000	-0.000002	-0.000001	0.000000	0.000000
54.482915	17.653444	17.631103	-1.717887	1.781596	2.609825	0.000000	0.233029	0.000000	-0.000003	-0.000001	0.000000	0.000000
55.031975	19.272949	16.037291	-1.214248	1.138338	2.716396	0.000000	0.154592	0.000000	-0.000003	-0.000001	0.000000	0.000000
55.581035	20.288732	15.101452	-0.624841	0.576162	2.779082	0.000000	0.073412	0.000000	-0.000003	-0.000001	0.000000	0.000000
56.130095	20.629043	14.756926	0.008702	0.055024	2.796773	0.000000	-0.009070	0.000000	-0.000004	-0.000001	0.000000	0.000000
56.428668	20.660364	14.707138	-0.059702	0.073172	2.796247	0.000000	-0.001762	0.000000	-0.000004	-0.000001	0.000000	0.000000
56.762001	20.705562	14.665952	-0.075894	0.050386	2.795659	0.000000	-0.001762	0.000000	-0.000004	-0.000001	0.000000	0.000000
57.095334	20.761555	14.639956	-0.092085	0.027600	2.795072	0.000000	-0.001762	0.000000	-0.000004	-0.000001	0.000000	0.000000
57.429918	20.828613	14.629140	-0.108337	0.004729	2.794483	0.000000	-0.001762	0.000000	-0.000004	-0.000001	0.000000	0.000000
57.727240	20.897330	14.632371	-0.177383	0.022637	2.793959	0.000000	0.005538	0.000000	-0.000005	-0.000001	0.000000	0.000000
58.276300	20.735588	14.888511	0.470218	-0.491897	2.774361	0.000000	-0.076821	0.000000	-0.000005	-0.000000	0.000000	0.000000
58.825360	19.876813	15.725480	1.084605	-1.041469	2.709851	0.000000	-0.157818	0.000000	-0.000005	-0.000000	0.000000	0.000000
59.374420	18.381665	17.202895	1.622380	-1.665222	2.601572	0.000000	-0.236016	0.000000	-0.000005	-0.000000	0.000000	0.000000
59.923480	16.355754	19.425988	2.045559	-2.407585	2.451446	0.000000	-0.310028	0.000000	-0.000005	0.000000	0.000000	0.000000
60.369440	14.770064	21.401913	1.522711	-2.004438	2.328475	0.000000	-0.241748	0.000000	-0.000005	-0.000000	0.000000	0.000000
60.810400	13.629505	22.958208	1.073637	-1.511464	2.236322	0.000000	-0.176619	0.000000	-0.000005	-0.000000	0.000000	0.000000
61.251360	12.861949	24.047637	0.673615	-0.949720	2.172417	0.000000	-0.113502	0.000000	-0.000005	-0.000000	0.000000	0.000000
61.692320	12.432328	24.620632	0.304368	-0.344764	2.136033	0.000000	-0.051677	0.000000	-0.000005	-0.000000	0.000000	0.000000
62.134530	12.321065	24.650586	-0.020859	0.215371	2.126762	0.000000	0.004344	0.000000	-0.000006	-0.000001	0.000000	0.000000
62.431853	12.340647	24.526269	-0.045001	0.202750	2.128053	0.000000	0.004344	0.000000	-0.000006	-0.000001	0.000000	0.000000
62.765186	12.379669	24.395819	-0.072066	0.188600	2.129501	0.000000	0.004344	0.000000	-0.000006	-0.000001	0.000000	0.000000
63.098520	12.436735	24.274802	-0.099132	0.174451	2.130949	0.000000	0.004344	0.000000	-0.000006	-0.000001	0.000000	0.000000
63.433103	12.512161	24.162818	-0.126299	0.160248	2.132403	0.000000	0.004344	0.000000	-0.000006	-0.000001	0.000000	0.000000
63.730426	12.594442	24.071280	-0.119554	0.088593	2.133695	0.000000	-0.000889	0.000000	-0.000006	-0.000001	0.000000	0.000000
64.171386	12.860250	23.728045	-0.485527	0.686824	2.146842	0.000000	0.060576	0.000000	-0.000007	-0.000001	0.000000	0.000000
64.612346	13.457342	22.869037	-0.873683	1.253805	2.187219	0.000000	0.122731	0.000000	-0.000007	-0.000001	0.000000	0.000000
65.053306	14.412997	21.533337	-1.301755	1.763739	2.255287	0.000000	0.186284	0.000000	-0.000008	-0.000001	0.000000	0.000000
65.494266	15.770877	19.781721	-1.789301	2.193424	2.351819	0.000000	0.251958	0.000000	-0.000008	-0.000001	0.000000	0.000000
65.940226	17.616183	17.669096	-2.363286	2.524065	2.479487	0.000000	0.320904	0.000000	-0.000009	-0.000002	0.000000	0.000000
66.489286	19.981652	15.305704	-1.919428	1.805777	2.635320	0.000000	0.245891	0.000000	-0.000009	-0.000001	0.000000	0.000000
67.038346	21.781925	13.656242	-1.339991	1.216111	2.748706	0.000000	0.166517	0.000000	-0.000010	-0.000001	0.000000	0.000000
67.587406	22.889840	12.603225	-0.665904	0.713065	2.817634	0.000000	0.084190	0.000000	-0.000010	-0.000001	0.000000	0.000000
68.136466	23.227138	12.071646	0.055219	0.260810	2.840882	0.000000	0.000369	0.000000	-0.000011	-0.000000	0.000000	0.000000
68.435038	23.234245	11.905084	-0.018329	0.265506	2.843209	0.000000	0.007792	0.000000	-0.000011	-0.000000	0.000000	0.000000
68.768372	23.251249	11.738071	-0.032680	0.235533	2.845806	0.000000	0.007792	0.000000	-0.000011	-0.000000	0.000000	0.000000
69.101705	23.277819	11.591040	-0.047032	0.205560	2.848404	0.000000	0.007792	0.000000	-0.000011	-0.000000	0.000000	0.000000
69.436288	23.314111	11.463552	-0.061437	0.175475	2.851011	0.000000	0.007792	0.000000	-0.000011	-0.000000	0.000000	0.000000
69.733611	23.354451	11.367155	-0.135265	0.178443	2.853328	0.000000	0.015248	0.000000	-0.000011	-0.000000	0.000000	0.000000
70.282671	23.101890	11.398825	0.592529	-0.236464	2.838519	0.000000	-0.069113	0.000000	-0.000011	0.000000	0.000000	0.000000
