#ParticleID	Turn	x[m]	xp	y[m]	yp	z[m]	dE[GeV]# s	beta_x	beta_y	alpha_x	alpha_y	D_x	D_y	D_px	D_py	orbit_x	orbit_px	orbit_y	orbit_py
0.300000	11.802969	25.060264	-0.010066	-0.026742	2.618361	0.000000	-0.000082	0.000000	-0.000003	0.000002	0.000000	0.000000
0.601250	11.816724	25.080000	-0.035592	-0.038772	2.618335	0.000000	-0.000082	0.000000	-0.000002	0.000002	0.000000	0.000000
0.898573	11.845379	25.106585	-0.031736	-0.112214	2.618310	0.000000	-0.006503	0.000000	-0.000001	0.000002	0.000000	0.000000
1.339533	12.025370	24.927027	-0.377992	0.517863	2.631736	0.000000	0.067459	0.000000	-0.000001	0.000002	0.000000	0.000000
1.780493	12.517164	24.200098	-0.741518	1.124378	2.677915	0.000000	0.142189	0.000000	0.000000	0.000002	0.000000	0.000000
2.221453	13.343229	22.958874	-1.138921	1.679734	2.757371	0.000000	0.218538	0.000000	0.000001	0.000002	0.000000	0.000000
2.662413	14.541305	21.259829	-1.588359	2.158663	2.871011	0.000000	0.297377	0.000000	0.000002	0.000002	0.000000	0.000000
3.108373	16.186846	19.155354	-2.114648	2.540509	3.021990	0.000000	0.380092	0.000000	0.000003	0.000002	0.000000	0.000000
3.657433	18.297025	16.791658	-1.705858	1.789887	3.205411	0.000000	0.287055	0.000000	0.000004	0.000002	0.000000	0.000000
4.206493	19.889079	15.177810	-1.176575	1.166755	3.336273	0.000000	0.188926	0.000000	0.000004	0.000002	0.000000	0.000000
4.755553	20.850552	14.198859	-0.564184	0.626728	3.412257	0.000000	0.087446	0.000000	0.000005	0.000002	0.000000	0.000000
5.304613	21.113532	13.785076	0.088057	0.131341	3.432013	0.000000	-0.015585	0.000000	0.000006	0.000001	0.000000	0.000000
5.603185	21.098116	13.691787	0.018738	0.145091	3.430037	0.000000	-0.006618	0.000000	0.000007	0.000001	0.000000	0.000000
5.936519	21.090892	13.603346	0.002933	0.120233	3.427830	0.000000	-0.006618	0.000000	0.000007	0.000001	0.000000	0.000000
6.269852	21.094205	13.531476	-0.012872	0.095375	3.425624	0.000000	-0.006618	0.000000	0.000007	0.000001	0.000000	0.000000
6.604435	21.108126	13.476002	-0.028736	0.070424	3.423409	0.000000	-0.006618	0.000000	0.000008	0.000001	0.000000	0.000000
6.901758	21.129405	13.440717	-0.098036	0.083368	3.421441	0.000000	0.002321	0.000000	0.000008	0.000001	0.000000	0.000000
7.450818	20.876990	13.610143	0.555037	-0.393763	3.394516	0.000000	-0.100251	0.000000	0.000009	0.000001	0.000000	0.000000
7.999878	19.924805	14.315750	1.168906	-0.898940	3.311679	0.000000	-0.201045	0.000000	0.000009	0.000001	0.000000	0.000000
8.548938	18.340109	15.607796	1.700209	-1.468147	3.174398	0.000000	-0.298273	0.000000	0.000010	0.000000	0.000000	0.000000
9.097998	16.234835	17.578312	2.111417	-2.141927	2.985110	0.000000	-0.390210	0.000000	0.000010	0.000000	0.000000	0.000000
9.543958	14.592387	19.334108	1.584624	-1.778546	2.829396	0.000000	-0.308514	0.000000	0.000010	0.000000	0.000000	0.000000
9.984918	13.397889	20.712515	1.134510	-1.335480	2.710598	0.000000	-0.230814	0.000000	0.000010	0.000001	0.000000	0.000000
10.425878	12.576086	21.671783	0.736230	-0.831650	2.625451	0.000000	-0.155744	0.000000	0.000011	0.000001	0.000000	0.000000
10.866838	12.089430	22.168267	0.371585	-0.289981	2.572984	0.000000	-0.082447	0.000000	0.000011	0.000001	0.000000	0.000000
11.309048	11.915556	22.178850	0.053030	0.210439	2.552579	0.000000	-0.016349	0.000000	0.000012	0.000001	0.000000	0.000000
11.606371	11.891462	22.057876	0.028007	0.196440	2.547718	0.000000	-0.016349	0.000000	0.000012	0.000001	0.000000	0.000000
12.086371	11.883965	21.880142	-0.012390	0.173839	2.539870	0.000000	-0.016349	0.000000	0.000013	0.000001	0.000000	0.000000
12.566371	11.915250	21.724105	-0.052787	0.151238	2.532022	0.000000	-0.016349	0.000000	0.000014	0.000001	0.000000	0.000000
13.046371	11.985316	21.589765	-0.093183	0.128638	2.524174	0.000000	-0.016349	0.000000	0.000014	0.000001	0.000000	0.000000
13.526371	12.094162	21.477121	-0.133580	0.106037	2.516326	0.000000	-0.016349	0.000000	0.000015	0.000001	0.000000	0.000000
14.007621	12.242224	21.385965	-0.174082	0.083377	2.508457	0.000000	-0.016349	0.000000	0.000016	0.000001	0.000000	0.000000
14.304943	12.353181	21.340547	-0.168816	0.017053	2.503596	0.000000	-0.022487	0.000000	0.000016	0.000001	0.000000	0.000000
14.745903	12.660541	21.091957	-0.530852	0.544550	2.509307	0.000000	0.048418	0.000000	0.000017	0.000002	0.000000	0.000000
15.186863	13.296635	20.387347	-0.917141	1.047270	2.546376	0.000000	0.119874	0.000000	0.000018	0.000002	0.000000	0.000000
15.627823	14.290525	19.258777	-1.345332	1.502339	2.615224	0.000000	0.192696	0.000000	0.000019	0.000003	0.000000	0.000000
16.068783	15.687619	17.757595	-1.834987	1.889054	2.716638	0.000000	0.267712	0.000000	0.000020	0.000003	0.000000	0.000000
16.514743	17.575411	15.930606	-2.413236	2.190560	2.853464	0.000000	0.346240	0.000000	0.000022	0.000004	0.000000	0.000000
17.063803	20.000133	13.890693	-1.976753	1.546651	3.019847	0.000000	0.258939	0.000000	0.000024	0.000003	0.000000	0.000000
17.612863	21.865569	12.493588	-1.400641	1.012907	3.136964	0.000000	0.167046	0.000000	0.000025	0.000002	0.000000	0.000000
18.161923	23.039953	11.639778	-0.725595	0.551311	3.202737	0.000000	0.072189	0.000000	0.000026	0.000001	0.000000	0.000000
18.710983	23.440333	11.268448	0.000703	0.128983	3.215999	0.000000	-0.023948	0.000000	0.000027	0.000001	0.000000	0.000000
19.009556	23.480294	11.181959	-0.073312	0.131257	3.211357	0.000000	-0.015547	0.000000	0.000027	0.000001	0.000000	0.000000
19.342889	23.533927	11.104562	-0.087585	0.100933	3.206175	0.000000	-0.015547	0.000000	0.000027	0.000001	0.000000	0.000000
19.676223	23.597074	11.047381	-0.101858	0.070610	3.200992	0.000000	-0.015547	0.000000	0.000028	0.000001	0.000000	0.000000
20.010806	23.670321	11.010179	-0.233460	0.094724	3.195810	0.000000	0.000287	0.000000	0.000028	0.000001	0.000000	0.000000
20.308129	23.813084	10.961952	-0.308910	0.096112	3.195895	0.000000	0.008635	0.000000	0.000028	0.000001	0.000000	0.000000
20.857189	23.741575	11.078279	0.438379	-0.309227	3.174427	0.000000	-0.086717	0.000000	0.000028	-0.000000	0.000000	0.000000
21.406249	22.861668	11.649126	1.154703	-0.736592	3.100951	0.000000	-0.180532	0.000000	0.000028	-0.000001	0.000000	0.000000
21.955309	21.235515	12.715156	1.789465	-1.216422	2.976771	0.000000	-0.271144	0.000000	0.000027	-0.000002	0.000000	0.000000
22.504369	18.977981	14.352298	2.297827	-1.782896	2.804088	0.000000	-0.356947	0.000000	0.000026	-0.000003	0.000000	0.000000
22.950329	17.198728	15.822274	1.705967	-1.499402	2.662191	0.000000	-0.279766	0.000000	0.000025	-0.000002	0.000000	0.000000
23.391289	15.923585	16.994370	1.196745	-1.148538	2.555142	0.000000	-0.206226	0.000000	0.000024	-0.000001	0.000000	0.000000
23.832249	15.071819	17.832719	0.742199	-0.745417	2.479973	0.000000	-0.135035	0.000000	0.000024	-0.000001	0.000000	0.000000
24.273209	14.604516	18.299176	0.321562	-0.308380	2.435828	0.000000	-0.065381	0.000000	0.000024	-0.000000	0.000000	0.000000
24.715418	14.500448	18.372274	-0.048920	0.097575	2.422200	0.000000	-0.002411	0.000000	0.000024	0.000000	0.000000	0.000000
25.012741	14.535648	18.319109	-0.069473	0.081238	2.421483	0.000000	-0.002411	0.000000	0.000024	0.000000	0.000000	0.000000
25.346075	14.589645	18.271055	-0.092516	0.062922	2.420679	0.000000	-0.002411	0.000000	0.000024	0.000000	0.000000	0.000000
25.679408	14.659003	18.235213	-0.115559	0.044606	2.419876	0.000000	-0.002411	0.000000	0.000024	0.000000	0.000000	0.000000
26.013991	14.743770	18.211885	-0.019077	-0.121523	2.419044	0.000000	-0.022036	0.000000	0.000024	0.000000	0.000000	0.000000
26.311314	14.761112	18.289073	-0.003060	-0.182929	2.412493	0.000000	-0.027951	0.000000	0.000024	0.000000	0.000000	0.000000
26.752274	14.945653	18.252087	-0.417025	0.266486	2.415272	0.000000	0.040568	0.000000	0.000024	0.000001	0.000000	0.000000
27.193234	15.502267	17.822606	-0.850042	0.703776	2.448337	0.000000	0.109549	0.000000	0.000025	0.000001	0.000000	0.000000
27.634194	16.456386	17.020171	-1.321896	1.109045	2.512067	0.000000	0.179777	0.000000	0.000026	0.000002	0.000000	0.000000
28.075154	17.851600	15.881292	-1.854143	1.463853	2.607185	0.000000	0.252053	0.000000	0.000027	0.000003	0.000000	0.000000
28.521114	19.775888	14.440628	-2.476074	1.752968	2.736379	0.000000	0.327643	0.000000	0.000028	0.000003	0.000000	0.000000
29.070174	22.221651	12.835549	-1.952008	1.187608	2.893620	0.000000	0.244284	0.000000	0.000030	0.000002	0.000000	0.000000
29.619234	24.012344	11.801488	-1.290062	0.706838	3.003834	0.000000	0.156592	0.000000	0.000031	0.000002	0.000000	0.000000
30.168294	25.021481	11.264791	-0.536993	0.276415	3.065065	0.000000	0.066123	0.000000	0.000031	0.000001	0.000000	0.000000
30.717354	25.177782	11.187231	0.254008	-0.134320	3.076228	0.000000	-0.025520	0.000000	0.000031	-0.000001	0.000000	0.000000
31.015927	25.069042	11.258046	0.175961	-0.132081	3.071008	0.000000	-0.017484	0.000000	0.000031	-0.000000	0.000000	0.000000
31.349260	24.956304	11.356142	0.162253	-0.162206	3.065180	0.000000	-0.017484	0.000000	0.000031	-0.000000	0.000000	0.000000
31.682593	24.852704	11.474321	0.148545	-0.192331	3.059352	0.000000	-0.017484	0.000000	0.000031	-0.000000	0.000000	0.000000
32.017177	24.757907	11.613140	0.134785	-0.222569	3.053503	0.000000	-0.017484	0.000000	0.000031	-0.000000	0.000000	0.000000
32.314499	24.681393	11.753479	0.058086	-0.218738	3.048304	0.000000	-0.009521	0.000000	0.000031	-0.000000	0.000000	0.000000
32.863559	24.194701	12.232851	0.823077	-0.659493	3.018207	0.000000	-0.099952	0.000000	0.000030	-0.000001	0.000000	0.000000
33.412619	22.895065	13.219024	1.529929	-1.147222	2.938872	0.000000	-0.188610	0.000000	0.000029	-0.000002	0.000000	0.000000
33.961679	20.874286	14.782243	2.128715	-1.716665	2.811707	0.000000	-0.273923	0.000000	0.000028	-0.000003	0.000000	0.000000
34.510739	18.275102	17.033851	2.577138	-2.408382	2.638967	0.000000	-0.354376	0.000000	0.000026	-0.000004	0.000000	0.000000
34.956699	16.254073	19.047869	1.970958	-2.088902	2.497266	0.000000	-0.281476	0.000000	0.000024	-0.000003	0.000000	0.000000
35.397659	14.746943	20.713995	1.459845	-1.675123	2.388523	0.000000	-0.212209	0.000000	0.000023	-0.000003	0.000000	0.000000
35.838619	13.659570	21.980068	1.015429	-1.185126	2.309763	0.000000	-0.145360	0.000000	0.000022	-0.000002	0.000000	0.000000
36.279579	12.942277	22.788484	0.617405	-0.641207	2.260087	0.000000	-0.080165	0.000000	0.000021	-0.000002	0.000000	0.000000
36.721789	12.561595	23.102773	0.278281	-0.124811	2.238904	0.000000	-0.021374	0.000000	0.000020	-0.000001	0.000000	0.000000
37.019112	12.403699	23.180877	0.252779	-0.137881	2.232549	0.000000	-0.021374	0.000000	0.000020	-0.000001	0.000000	0.000000
37.352445	12.244710	23.277682	0.224188	-0.152534	2.225425	0.000000	-0.021374	0.000000	0.000019	-0.000001	0.000000	0.000000
37.685779	12.104781	23.384256	0.195597	-0.167187	2.218301	0.000000	-0.021374	0.000000	0.000019	-0.000001	0.000000	0.000000
38.020362	11.983496	23.501054	0.166899	-0.181895	2.211150	0.000000	-0.021374	0.000000	0.000018	-0.000001	0.000000	0.000000
38.317684	11.891833	23.613103	0.170554	-0.252862	2.204796	0.000000	-0.026780	0.000000	0.000018	-0.000001	0.000000	0.000000
38.758644	11.892991	23.574546	-0.173191	0.339968	2.206910	0.000000	0.036376	0.000000	0.000018	-0.000001	0.000000	0.000000
39.199604	12.199635	23.018010	-0.524849	0.917330	2.236938	0.000000	0.099946	0.000000	0.000017	-0.000000	0.000000	0.000000
39.640564	12.825776	21.968817	-0.900486	1.452954	2.295222	0.000000	0.164655	0.000000	0.000017	0.000000	0.000000	0.000000
40.081524	13.800020	20.474704	-1.317264	1.922470	2.382425	0.000000	0.231238	0.000000	0.000017	0.000000	0.000000	0.000000
40.527484	15.184453	18.581072	-1.798052	2.305802	2.501013	0.000000	0.300861	0.000000	0.000018	0.000001	0.000000	0.000000
41.076544	16.951018	16.453020	-1.400336	1.592883	2.645681	0.000000	0.225332	0.000000	0.000018	0.000000	0.000000	0.000000
41.625604	18.223609	15.041316	-0.903706	0.993422	2.747720	0.000000	0.145806	0.000000	0.000018	-0.000000	0.000000	0.000000
42.174664	18.912337	14.245406	-0.343244	0.464720	2.805318	0.000000	0.063693	0.000000	0.000018	-0.000001	0.000000	0.000000
42.723724	18.968553	14.008600	0.241464	-0.030880	2.817456	0.000000	-0.019548	0.000000	0.000017	-0.000001	0.000000	0.000000
43.022297	18.858828	14.011550	0.175589	-0.015598	2.813817	0.000000	-0.012188	0.000000	0.000017	-0.000001	0.000000	0.000000
43.502297	18.702856	14.042971	0.149352	-0.049864	2.807968	0.000000	-0.012188	0.000000	0.000016	-0.000001	0.000000	0.000000
43.982297	18.572071	14.107288	0.123115	-0.084129	2.802118	0.000000	-0.012188	0.000000	0.000015	-0.000001	0.000000	0.000000
44.462297	18.466474	14.204500	0.096878	-0.118395	2.796268	0.000000	-0.012188	0.000000	0.000015	-0.000001	0.000000	0.000000
44.942297	18.386065	14.334607	0.070641	-0.152661	2.790419	0.000000	-0.012188	0.000000	0.000014	-0.000001	0.000000	0.000000
45.423547	18.330959	14.497897	-0.046486	-0.115184	2.784571	0.000000	0.001608	0.000000	0.000014	-0.000001	0.000000	0.000000
45.720870	18.363435	14.572569	-0.110715	-0.097894	2.785050	0.000000	0.008884	0.000000	0.000013	-0.000001	0.000000	0.000000
46.269930	18.175821	14.961842	0.450391	-0.615272	2.767363	0.000000	-0.073218	0.000000	0.000012	-0.000002	0.000000	0.000000
46.818990	17.385948	15.939845	0.979684	-1.176474	2.704888	0.000000	-0.154021	0.000000	0.000011	-0.000002	0.000000	0.000000
47.368050	16.049608	17.576240	1.439777	-1.821475	2.598733	0.000000	-0.232093	0.000000	0.000010	-0.000002	0.000000	0.000000
47.917110	14.261193	19.987583	1.798171	-2.596214	2.450781	0.000000	-0.306047	0.000000	0.000009	-0.000003	0.000000	0.000000
48.363070	12.869560	22.131380	1.333419	-2.190728	2.329587	0.000000	-0.237762	0.000000	0.000008	-0.000002	0.000000	0.000000
48.804030	11.873779	23.847765	0.933357	-1.686842	2.239201	0.000000	-0.172581	0.000000	0.000007	-0.000002	0.000000	0.000000
49.244990	11.210755	25.084092	0.575938	-1.106206	2.177097	0.000000	-0.109366	0.000000	0.000006	-0.000002	0.000000	0.000000
49.685950	10.850196	25.784109	0.244832	-0.475238	2.142568	0.000000	-0.047397	0.000000	0.000005	-0.000002	0.000000	0.000000
50.128160	10.775750	25.915682	-0.048781	0.113753	2.135231	0.000000	0.008797	0.000000	0.000004	-0.000002	0.000000	0.000000
50.425482	10.812981	25.851495	-0.076438	0.102132	2.137847	0.000000	0.008797	0.000000	0.000003	-0.000002	0.000000	0.000000
50.758816	10.874275	25.787750	-0.107445	0.089103	2.140779	0.000000	0.008797	0.000000	0.000003	-0.000002	0.000000	0.000000
51.092149	10.956241	25.732690	-0.138453	0.076075	2.143712	0.000000	0.008797	0.000000	0.000002	-0.000002	0.000000	0.000000
51.426732	11.059078	25.686680	-0.079858	-0.145386	2.146634	0.000000	-0.008618	0.000000	0.000002	-0.000002	0.000000	0.000000
51.724055	11.114609	25.776647	-0.079658	-0.220418	2.144072	0.000000	-0.013876	0.000000	0.000001	-0.000002	0.000000	0.000000
52.165015	11.330016	25.684237	-0.410691	0.429187	2.151542	0.000000	0.047783	0.000000	0.000000	-0.000002	0.000000	0.000000
52.605975	11.844506	25.025382	-0.760486	1.059265	2.186295	0.000000	0.109987	0.000000	-0.000001	-0.000002	0.000000	0.000000
53.046935	12.681585	23.830060	-1.145027	1.641146	2.248727	0.000000	0.173443	0.000000	-0.000002	-0.000002	0.000000	0.000000
53.487895	13.879497	22.152657	-1.581880	2.148357	2.339549	0.000000	0.238875	0.000000	-0.000002	-0.000002	0.000000	0.000000
53.933855	15.513509	20.044417	-2.095228	2.559158	2.461301	0.000000	0.307426	0.000000	-0.000003	-0.000002	0.000000	0.000000
54.482915	17.617322	17.672037	-1.713753	1.787150	2.609917	0.000000	0.233120	0.000000	-0.000004	-0.000002	0.000000	0.000000
55.031975	19.232874	16.072958	-1.211227	1.142436	2.716537	0.000000	0.154678	0.000000	-0.000005	-0.000002	0.000000	0.000000
55.581035	20.246052	15.133281	-0.623146	0.579095	2.779270	0.000000	0.073493	0.000000	-0.000006	-0.000002	0.000000	0.000000
56.130095	20.585290	14.786075	0.008951	0.057002	2.797003	0.000000	-0.008995	0.000000	-0.000007	-0.000001	0.000000	0.000000
56.428668	20.616404	14.735050	-0.059371	0.075260	2.796500	0.000000	-0.001687	0.000000	-0.000007	-0.000001	0.000000	0.000000
56.762001	20.661393	14.692460	-0.075597	0.052510	2.795938	0.000000	-0.001687	0.000000	-0.000008	-0.000001	0.000000	0.000000
57.095334	20.717199	14.665036	-0.091822	0.029760	2.795377	0.000000	-0.001687	0.000000	-0.000008	-0.000001	0.000000	0.000000
57.429918	20.784092	14.652762	-0.108108	0.006925	2.794813	0.000000	-0.001687	0.000000	-0.000009	-0.000001	0.000000	0.000000
57.727240	20.852681	14.654677	-0.177069	0.024925	2.794312	0.000000	0.005615	0.000000	-0.000009	-0.000001	0.000000	0.000000
58.276300	20.691417	14.908643	0.469038	-0.490202	2.774753	0.000000	-0.076757	0.000000	-0.000010	-0.000001	0.000000	0.000000
58.825360	19.834724	15.744018	1.082015	-1.040245	2.710274	0.000000	-0.157767	0.000000	-0.000010	-0.000001	0.000000	0.000000
59.374420	18.343114	17.220306	1.618564	-1.664382	2.602020	0.000000	-0.235979	0.000000	-0.000011	-0.000000	0.000000	0.000000
59.923480	16.321947	19.442659	2.040786	-2.407070	2.451910	0.000000	-0.310005	0.000000	-0.000011	-0.000000	0.000000	0.000000
60.369440	14.740048	21.417852	1.518953	-2.003315	2.328953	0.000000	-0.241714	0.000000	-0.000011	-0.000000	0.000000	0.000000
60.810400	13.602424	22.972908	1.070715	-1.509789	2.236817	0.000000	-0.176572	0.000000	-0.000011	-0.000001	0.000000	0.000000
61.251360	12.837126	24.060643	0.671395	-0.947568	2.172936	0.000000	-0.113441	0.000000	-0.000012	-0.000001	0.000000	0.000000
61.692320	12.409191	24.631567	0.302749	-0.342234	2.136582	0.000000	-0.051603	0.000000	-0.000012	-0.000001	0.000000	0.000000
62.134530	12.299122	24.659157	-0.022002	0.218138	2.127347	0.000000	0.004430	0.000000	-0.000013	-0.000002	0.000000	0.000000
62.431853	12.319396	24.533198	-0.046188	0.205507	2.128664	0.000000	0.004430	0.000000	-0.000013	-0.000002	0.000000	0.000000
62.765186	12.359227	24.400913	-0.073304	0.191347	2.130142	0.000000	0.004430	0.000000	-0.000014	-0.000002	0.000000	0.000000
63.098520	12.417134	24.278069	-0.100419	0.177186	2.131619	0.000000	0.004430	0.000000	-0.000014	-0.000002	0.000000	0.000000
63.433103	12.493437	24.164258	-0.127636	0.162972	2.133102	0.000000	0.004430	0.000000	-0.000015	-0.000002	0.000000	0.000000
63.730426	12.576527	24.071103	-0.120976	0.091302	2.134419	0.000000	-0.000805	0.000000	-0.000015	-0.000001	0.000000	0.000000
64.171386	12.843421	23.725504	-0.486579	0.689458	2.147609	0.000000	0.060680	0.000000	-0.000016	-0.000002	0.000000	0.000000
64.612346	13.441296	22.864250	-0.874413	1.256244	2.188037	0.000000	0.122855	0.000000	-0.000017	-0.000002	0.000000	0.000000
65.053306	14.397465	21.526527	-1.302196	1.765872	2.256164	0.000000	0.186429	0.000000	-0.000018	-0.000003	0.000000	0.000000
65.494266	15.755614	19.773201	-1.789472	2.195154	2.352766	0.000000	0.252127	0.000000	-0.000019	-0.000003	0.000000	0.000000
65.940226	17.600955	17.659246	-2.363196	2.525308	2.480517	0.000000	0.321099	0.000000	-0.000021	-0.000004	0.000000	0.000000
66.489286	19.966684	15.294475	-1.919990	1.807060	2.636448	0.000000	0.246051	0.000000	-0.000022	-0.000003	0.000000	0.000000
67.038346	21.767915	13.643543	-1.341166	1.217523	2.749912	0.000000	0.166640	0.000000	-0.000024	-0.000002	0.000000	0.000000
67.587406	22.877420	12.588858	-0.667609	0.714709	2.818898	0.000000	0.084272	0.000000	-0.000025	-0.000001	0.000000	0.000000
68.136466	23.216829	12.055296	0.053104	0.262801	2.842180	0.000000	0.000410	0.000000	-0.000026	-0.000001	0.000000	0.000000
68.435038	23.225189	11.887588	-0.020431	0.267394	2.844520	0.000000	0.007837	0.000000	-0.000026	-0.000001	0.000000	0.000000
68.768372	23.243596	11.719340	-0.034789	0.237349	2.847133	0.000000	0.007837	0.000000	-0.000026	-0.000001	0.000000	0.000000
69.101705	23.271574	11.571123	-0.049147	0.207303	2.849746	0.000000	0.007837	0.000000	-0.000026	-0.000001	0.000000	0.000000
69.436288	23.309284	11.442492	-0.063559	0.177145	2.852368	0.000000	0.007837	0.000000	-0.000026	-0.000001	0.000000	0.000000
69.733611	23.350887	11.345122	-0.137391	0.179995	2.854698	0.000000	0.015298	0.000000	-0.000027	-0.000001	0.000000	0.000000
70.282671	23.100706	11.374743	0.590346	-0.234263	2.839904	0.000000	-0.069108	0.000000	-0.000027	0.000000	0.000000	0.000000
