#ParticleID	Turn	x[m]	xp	y[m]	yp	z[m]	dE[GeV]# s	beta_x	beta_y	alpha_x	alpha_y	D_x	D_y	D_px	D_py	orbit_x	orbit_px	orbit_y	orbit_py
0.300000	11.814936	25.013527	-0.011195	-0.027313	2.618109	0.000000	0.000013	0.000000	-0.000002	0.000001	0.000000	0.000000
0.601250	11.829362	25.033614	-0.036695	-0.039366	2.618113	0.000000	0.000013	0.000000	-0.000001	0.000001	0.000000	0.000000
0.898573	11.858666	25.060559	-0.032782	-0.112717	2.618117	0.000000	-0.006407	0.000000	-0.000001	0.000001	0.000000	0.000000
1.339533	12.039721	24.881980	-0.379368	0.516154	2.631584	0.000000	0.067550	0.000000	-0.000000	0.000001	0.000000	0.000000
1.780493	12.532896	24.157064	-0.743286	1.121541	2.677803	0.000000	0.142277	0.000000	0.000000	0.000001	0.000000	0.000000
2.221453	13.360722	22.918793	-1.141163	1.675898	2.757298	0.000000	0.218624	0.000000	0.000001	0.000001	0.000000	0.000000
2.662413	14.561021	21.223509	-1.591176	2.154003	2.870976	0.000000	0.297461	0.000000	0.000001	0.000001	0.000000	0.000000
3.108373	16.209381	19.123482	-2.118176	2.535236	3.021992	0.000000	0.380176	0.000000	0.000002	0.000001	0.000000	0.000000
3.657433	18.323126	16.764851	-1.708786	1.785883	3.205459	0.000000	0.287138	0.000000	0.000002	0.000001	0.000000	0.000000
4.206493	19.917968	15.154838	-1.178696	1.163735	3.336367	0.000000	0.189007	0.000000	0.000003	0.000001	0.000000	0.000000
4.755553	20.881256	14.178764	-0.565349	0.624476	3.412395	0.000000	0.087523	0.000000	0.000004	0.000001	0.000000	0.000000
5.304613	21.144948	13.767107	0.087932	0.129698	3.432192	0.000000	-0.015513	0.000000	0.000004	0.000001	0.000000	0.000000
5.603185	21.129650	13.674832	0.018551	0.143385	3.430238	0.000000	-0.006545	0.000000	0.000004	0.000001	0.000000	0.000000
5.936519	21.122543	13.587534	0.002770	0.118509	3.428056	0.000000	-0.006545	0.000000	0.000005	0.000001	0.000000	0.000000
6.269852	21.125956	13.516821	-0.013011	0.093632	3.425874	0.000000	-0.006545	0.000000	0.000005	0.000001	0.000000	0.000000
6.604435	21.139963	13.462520	-0.028851	0.068662	3.423684	0.000000	-0.006545	0.000000	0.000005	0.000001	0.000000	0.000000
6.901758	21.161304	13.428288	-0.098216	0.081556	3.421737	0.000000	0.002395	0.000000	0.000005	0.000001	0.000000	0.000000
7.450818	20.908500	13.599519	0.555922	-0.395259	3.394850	0.000000	-0.100188	0.000000	0.000006	0.000001	0.000000	0.000000
7.999878	19.954784	14.306645	1.170793	-0.900228	3.312045	0.000000	-0.200993	0.000000	0.000006	0.000000	0.000000	0.000000
8.548938	18.367523	15.600034	1.702964	-1.469319	3.174790	0.000000	-0.298233	0.000000	0.000006	0.000000	0.000000	0.000000
9.097998	16.258833	17.571811	2.114847	-2.143065	2.985520	0.000000	-0.390183	0.000000	0.000006	0.000000	0.000000	0.000000
9.543958	14.613661	19.328768	1.587327	-1.780002	2.829821	0.000000	-0.308476	0.000000	0.000007	0.000000	0.000000	0.000000
9.984918	13.417050	20.708573	1.136618	-1.337182	2.711042	0.000000	-0.230765	0.000000	0.000007	0.000000	0.000000	0.000000
10.425878	12.593614	21.669423	0.737837	-0.833522	2.625919	0.000000	-0.155683	0.000000	0.000007	0.000001	0.000000	0.000000
10.866838	12.105734	22.167602	0.372765	-0.291938	2.573481	0.000000	-0.082374	0.000000	0.000007	0.000001	0.000000	0.000000
11.309048	11.930985	22.179921	0.053876	0.208481	2.553112	0.000000	-0.016264	0.000000	0.000008	0.000001	0.000000	0.000000
11.606371	11.906378	22.060107	0.028884	0.194494	2.548277	0.000000	-0.016264	0.000000	0.000008	0.000001	0.000000	0.000000
12.086371	11.898017	21.884233	-0.011465	0.171912	2.540469	0.000000	-0.016264	0.000000	0.000008	0.000001	0.000000	0.000000
12.566371	11.928390	21.730036	-0.051813	0.149330	2.532662	0.000000	-0.016264	0.000000	0.000009	0.000001	0.000000	0.000000
13.046371	11.997498	21.597519	-0.092161	0.126748	2.524855	0.000000	-0.016264	0.000000	0.000009	0.000001	0.000000	0.000000
13.526371	12.105339	21.486680	-0.132509	0.104166	2.517048	0.000000	-0.016264	0.000000	0.000010	0.000001	0.000000	0.000000
14.007621	12.252347	21.397315	-0.172962	0.081526	2.509220	0.000000	-0.016264	0.000000	0.000010	0.000001	0.000000	0.000000
14.304943	12.362630	21.352995	-0.167641	0.015180	2.504384	0.000000	-0.022405	0.000000	0.000010	0.000001	0.000000	0.000000
14.745903	12.669034	21.105897	-0.529853	0.543052	2.510137	0.000000	0.048521	0.000000	0.000011	0.000001	0.000000	0.000000
15.186863	13.304309	20.402417	-0.916273	1.046216	2.547256	0.000000	0.120000	0.000000	0.000012	0.000002	0.000000	0.000000
15.627823	14.297476	19.274562	-1.344555	1.501777	2.616166	0.000000	0.192845	0.000000	0.000012	0.000002	0.000000	0.000000
16.068783	15.693912	17.773649	-1.834266	1.889009	2.717651	0.000000	0.267887	0.000000	0.000013	0.000002	0.000000	0.000000
16.514743	17.581072	15.946466	-2.412536	2.191038	2.854561	0.000000	0.346442	0.000000	0.000014	0.000002	0.000000	0.000000
17.063803	20.004840	13.906235	-1.975725	1.546757	3.021045	0.000000	0.259104	0.000000	0.000015	0.000002	0.000000	0.000000
17.612863	21.868999	12.509213	-1.399358	1.012649	3.138242	0.000000	0.167170	0.000000	0.000016	0.000001	0.000000	0.000000
18.161923	23.041874	11.655895	-0.724147	0.550669	3.204072	0.000000	0.072271	0.000000	0.000017	0.000001	0.000000	0.000000
18.710983	23.440620	11.285499	0.002214	0.127912	3.217368	0.000000	-0.023910	0.000000	0.000017	0.000000	0.000000	0.000000
19.009556	23.479681	11.199607	-0.071805	0.130283	3.212738	0.000000	-0.015505	0.000000	0.000018	0.000000	0.000000	0.000000
19.342889	23.532308	11.122841	-0.086075	0.100015	3.207570	0.000000	-0.015505	0.000000	0.000018	0.000000	0.000000	0.000000
19.676223	23.594448	11.066254	-0.100345	0.069747	3.202402	0.000000	-0.015505	0.000000	0.000018	0.000000	0.000000	0.000000
20.010806	23.666681	11.029610	-0.231926	0.094012	3.197234	0.000000	0.000336	0.000000	0.000018	0.000001	0.000000	0.000000
20.308129	23.808531	10.981792	-0.307363	0.095507	3.197334	0.000000	0.008689	0.000000	0.000018	0.000001	0.000000	0.000000
20.857189	23.735413	11.099091	0.439743	-0.310403	3.175883	0.000000	-0.086710	0.000000	0.000018	-0.000000	0.000000	0.000000
21.406249	22.854155	11.671580	1.155787	-0.738422	3.102398	0.000000	-0.180572	0.000000	0.000018	-0.000001	0.000000	0.000000
21.955309	21.227002	12.740036	1.790192	-1.219037	2.978182	0.000000	-0.271231	0.000000	0.000018	-0.000001	0.000000	0.000000
22.504369	18.968890	14.380562	2.298147	-1.786482	2.805439	0.000000	-0.357078	0.000000	0.000017	-0.000002	0.000000	0.000000
22.950329	17.189292	15.853448	1.706427	-1.502315	2.663491	0.000000	-0.279863	0.000000	0.000016	-0.000001	0.000000	0.000000
23.391289	15.913675	17.027768	1.197364	-1.150648	2.556407	0.000000	-0.206290	0.000000	0.000016	-0.000001	0.000000	0.000000
23.832249	15.061282	17.867587	0.743007	-0.746629	2.481217	0.000000	-0.135066	0.000000	0.000015	-0.000001	0.000000	0.000000
24.273209	14.593170	18.334695	0.322594	-0.308638	2.437064	0.000000	-0.065380	0.000000	0.000015	-0.000000	0.000000	0.000000
24.715418	14.488072	18.407592	-0.047642	0.098193	2.423444	0.000000	-0.002382	0.000000	0.000015	0.000000	0.000000	0.000000
25.012741	14.522517	18.354051	-0.068210	0.081885	2.422736	0.000000	-0.002382	0.000000	0.000015	0.000000	0.000000	0.000000
25.346075	14.575678	18.305556	-0.091270	0.063602	2.421942	0.000000	-0.002382	0.000000	0.000015	0.000000	0.000000	0.000000
25.679408	14.644211	18.269249	-0.114330	0.045319	2.421148	0.000000	-0.002382	0.000000	0.000016	0.000000	0.000000	0.000000
26.013991	14.728162	18.245433	-0.017991	-0.121049	2.420326	0.000000	-0.022017	0.000000	0.000016	0.000000	0.000000	0.000000
26.311314	14.744865	18.322331	-0.002032	-0.182508	2.413780	0.000000	-0.027936	0.000000	0.000016	0.000000	0.000000	0.000000
26.752274	14.928321	18.284577	-0.415584	0.267800	2.416573	0.000000	0.040616	0.000000	0.000016	0.000000	0.000000	0.000000
27.193234	15.483459	17.853563	-0.848122	0.705924	2.449668	0.000000	0.109631	0.000000	0.000016	0.000001	0.000000	0.000000
27.634194	16.435642	17.048900	-1.319409	1.111929	2.513441	0.000000	0.179894	0.000000	0.000017	0.000001	0.000000	0.000000
28.075154	17.828372	15.907200	-1.850976	1.467342	2.608620	0.000000	0.252207	0.000000	0.000017	0.000002	0.000000	0.000000
28.521114	19.749476	14.463211	-2.472076	1.756904	2.737891	0.000000	0.327835	0.000000	0.000018	0.000002	0.000000	0.000000
29.070174	22.191210	12.854318	-1.948714	1.190661	2.895224	0.000000	0.244425	0.000000	0.000019	0.000002	0.000000	0.000000
29.619234	23.978780	11.817286	-1.287705	0.709226	3.005501	0.000000	0.156680	0.000000	0.000020	0.000001	0.000000	0.000000
30.168294	24.985922	11.278252	-0.535738	0.278308	3.066766	0.000000	0.066156	0.000000	0.000020	0.000000	0.000000	0.000000
30.717354	25.141496	11.198821	0.254070	-0.132787	3.077933	0.000000	-0.025541	0.000000	0.000020	-0.000000	0.000000	0.000000
31.015927	25.032670	11.268690	0.176094	-0.130478	3.072708	0.000000	-0.017500	0.000000	0.000020	-0.000000	0.000000	0.000000
31.349260	24.919851	11.365704	0.162365	-0.160562	3.066874	0.000000	-0.017500	0.000000	0.000020	-0.000000	0.000000	0.000000
31.682593	24.816184	11.482773	0.148636	-0.190646	3.061041	0.000000	-0.017500	0.000000	0.000020	-0.000000	0.000000	0.000000
32.017177	24.721332	11.620451	0.134856	-0.220843	3.055186	0.000000	-0.017500	0.000000	0.000020	-0.000000	0.000000	0.000000
32.314499	24.644781	11.759753	0.058229	-0.216956	3.049982	0.000000	-0.009533	0.000000	0.000020	-0.000000	0.000000	0.000000
32.863559	24.158599	12.237222	0.822010	-0.657789	3.019863	0.000000	-0.100017	0.000000	0.000019	-0.000001	0.000000	0.000000
33.412619	22.860768	13.221512	1.527729	-1.145475	2.940478	0.000000	-0.188728	0.000000	0.000019	-0.000001	0.000000	0.000000
33.961679	20.842960	14.782732	2.125536	-1.714750	2.813234	0.000000	-0.274091	0.000000	0.000018	-0.000002	0.000000	0.000000
34.510739	18.247704	17.032084	2.573207	-2.406163	2.640388	0.000000	-0.354593	0.000000	0.000017	-0.000003	0.000000	0.000000
34.956699	16.229795	19.044042	1.967869	-2.086522	2.498597	0.000000	-0.281657	0.000000	0.000015	-0.000002	0.000000	0.000000
35.397659	14.725075	20.708037	1.457450	-1.672691	2.389782	0.000000	-0.212357	0.000000	0.000015	-0.000002	0.000000	0.000000
35.838619	13.639550	21.971983	1.013618	-1.182753	2.310963	0.000000	-0.145476	0.000000	0.000014	-0.000001	0.000000	0.000000
36.279579	12.923627	22.778374	0.616096	-0.639002	2.261242	0.000000	-0.080251	0.000000	0.000013	-0.000001	0.000000	0.000000
36.721789	12.543903	23.090824	0.277373	-0.122849	2.240028	0.000000	-0.021433	0.000000	0.000013	-0.000001	0.000000	0.000000
37.019112	12.386554	23.167762	0.251847	-0.135920	2.233655	0.000000	-0.021433	0.000000	0.000013	-0.000001	0.000000	0.000000
37.352445	12.228195	23.263259	0.223229	-0.150573	2.226511	0.000000	-0.021433	0.000000	0.000012	-0.000001	0.000000	0.000000
37.685779	12.088915	23.368526	0.194612	-0.165227	2.219367	0.000000	-0.021433	0.000000	0.000012	-0.000001	0.000000	0.000000
38.020362	11.968298	23.484011	0.165887	-0.179935	2.212196	0.000000	-0.021433	0.000000	0.000012	-0.000001	0.000000	0.000000
38.317684	11.877244	23.594895	0.169484	-0.250861	2.205824	0.000000	-0.026842	0.000000	0.000012	-0.000001	0.000000	0.000000
38.758644	11.879201	23.554793	-0.173941	0.341459	2.207917	0.000000	0.036340	0.000000	0.000011	-0.000001	0.000000	0.000000
39.199604	12.186378	22.997193	-0.525312	0.918243	2.237934	0.000000	0.099936	0.000000	0.000011	-0.000000	0.000000	0.000000
39.640564	12.812808	21.947466	-0.900683	1.453248	2.296219	0.000000	0.164670	0.000000	0.000011	0.000000	0.000000	0.000000
40.081524	13.787111	20.453373	-1.317203	1.922131	2.383435	0.000000	0.231280	0.000000	0.000011	0.000000	0.000000	0.000000
40.527484	15.171375	18.560323	-1.797730	2.304842	2.502048	0.000000	0.300929	0.000000	0.000011	0.000001	0.000000	0.000000
41.076544	16.937870	16.433012	-1.400532	1.592487	2.646744	0.000000	0.225366	0.000000	0.000012	0.000000	0.000000	0.000000
41.625604	18.210957	15.021448	-0.904408	0.993562	2.748792	0.000000	0.145805	0.000000	0.000012	-0.000000	0.000000	0.000000
42.174664	18.900711	14.225088	-0.344401	0.465406	2.806381	0.000000	0.063658	0.000000	0.000011	-0.000001	0.000000	0.000000
42.723724	18.958412	13.987209	0.239933	-0.029600	2.818489	0.000000	-0.019618	0.000000	0.000011	-0.000001	0.000000	0.000000
43.022297	18.849586	13.989437	0.174083	-0.014405	2.814831	0.000000	-0.012254	0.000000	0.000011	-0.000001	0.000000	0.000000
43.502297	18.695059	14.019738	0.147847	-0.048723	2.808949	0.000000	-0.012254	0.000000	0.000010	-0.000001	0.000000	0.000000
43.982297	18.565720	14.082986	0.121610	-0.083042	2.803068	0.000000	-0.012254	0.000000	0.000010	-0.000001	0.000000	0.000000
44.462297	18.461567	14.179179	0.095374	-0.117361	2.797186	0.000000	-0.012254	0.000000	0.000010	-0.000001	0.000000	0.000000
44.942297	18.382602	14.308319	0.069138	-0.151680	2.791305	0.000000	-0.012254	0.000000	0.000009	-0.000001	0.000000	0.000000
45.423547	18.328943	14.470690	-0.047979	-0.114391	2.785425	0.000000	0.001547	0.000000	0.000009	-0.000001	0.000000	0.000000
45.720870	18.362308	14.544901	-0.112212	-0.097206	2.785885	0.000000	0.008825	0.000000	0.000008	-0.000001	0.000000	0.000000
46.269930	18.176345	14.932954	0.448900	-0.613725	2.768158	0.000000	-0.073303	0.000000	0.000008	-0.000001	0.000000	0.000000
46.818990	17.388058	15.908740	0.978303	-1.173959	2.705629	0.000000	-0.154132	0.000000	0.000007	-0.000001	0.000000	0.000000
47.368050	16.053128	17.541762	1.438604	-1.817810	2.599407	0.000000	-0.232226	0.000000	0.000007	-0.000002	0.000000	0.000000
47.917110	14.265849	19.948335	1.797289	-2.591141	2.451375	0.000000	-0.306201	0.000000	0.000006	-0.000002	0.000000	0.000000
48.363070	12.874999	22.087985	1.332538	-2.186540	2.330115	0.000000	-0.237901	0.000000	0.000005	-0.000002	0.000000	0.000000
48.804030	11.880010	23.801136	0.932437	-1.683726	2.239671	0.000000	-0.172708	0.000000	0.000004	-0.000001	0.000000	0.000000
49.244990	11.217831	25.035243	0.574935	-1.104304	2.177513	0.000000	-0.109482	0.000000	0.000004	-0.000001	0.000000	0.000000
49.685950	10.858209	25.734153	0.243701	-0.474638	2.142935	0.000000	-0.047502	0.000000	0.000003	-0.000001	0.000000	0.000000
50.128160	10.784839	25.865784	-0.050068	0.113146	2.135553	0.000000	0.008699	0.000000	0.000003	-0.000001	0.000000	0.000000
50.425482	10.822829	25.801963	-0.077706	0.101504	2.138140	0.000000	0.008699	0.000000	0.000002	-0.000001	0.000000	0.000000
50.758816	10.884961	25.738644	-0.108691	0.088452	2.141040	0.000000	0.008699	0.000000	0.000002	-0.000001	0.000000	0.000000
51.092149	10.967750	25.684027	-0.139676	0.075400	2.143940	0.000000	0.008699	0.000000	0.000001	-0.000001	0.000000	0.000000
51.426732	11.071398	25.638475	-0.080959	-0.145692	2.146830	0.000000	-0.008717	0.000000	0.000001	-0.000001	0.000000	0.000000
51.724055	11.127576	25.728631	-0.080702	-0.220630	2.144238	0.000000	-0.013975	0.000000	0.000001	-0.000001	0.000000	0.000000
52.165015	11.344041	25.636968	-0.412055	0.427712	2.151665	0.000000	0.047688	0.000000	0.000000	-0.000001	0.000000	0.000000
52.605975	11.859899	24.979949	-0.762234	1.056592	2.186376	0.000000	0.109894	0.000000	-0.000000	-0.000001	0.000000	0.000000
53.046935	12.698717	23.787469	-1.147237	1.637399	2.248767	0.000000	0.173352	0.000000	-0.000001	-0.000001	0.000000	0.000000
53.487895	13.898819	22.113784	-1.584655	2.143705	2.339549	0.000000	0.238784	0.000000	-0.000002	-0.000001	0.000000	0.000000
53.933855	15.535607	20.010023	-2.098700	2.553811	2.461260	0.000000	0.307335	0.000000	-0.000002	-0.000001	0.000000	0.000000
54.482915	17.642929	17.642753	-1.716636	1.783134	2.609826	0.000000	0.233030	0.000000	-0.000003	-0.000001	0.000000	0.000000
55.031975	19.261228	16.047488	-1.213317	1.139465	2.716397	0.000000	0.154593	0.000000	-0.000003	-0.000001	0.000000	0.000000
55.581035	20.276196	15.110600	-0.624296	0.576957	2.779085	0.000000	0.073413	0.000000	-0.000004	-0.000001	0.000000	0.000000
56.130095	20.616140	14.765356	0.008822	0.055545	2.796776	0.000000	-0.009069	0.000000	-0.000005	-0.000001	0.000000	0.000000
56.428668	20.647372	14.715241	-0.059558	0.073725	2.796250	0.000000	-0.001761	0.000000	-0.000005	-0.000001	0.000000	0.000000
56.762001	20.692477	14.673682	-0.075759	0.050950	2.795664	0.000000	-0.001761	0.000000	-0.000005	-0.000001	0.000000	0.000000
57.095334	20.748384	14.647307	-0.091961	0.028175	2.795077	0.000000	-0.001761	0.000000	-0.000005	-0.000001	0.000000	0.000000
57.429918	20.815362	14.636102	-0.108223	0.005314	2.794488	0.000000	-0.001761	0.000000	-0.000006	-0.000001	0.000000	0.000000
57.727240	20.884013	14.638983	-0.177243	0.023250	2.793965	0.000000	0.005540	0.000000	-0.000006	-0.000001	0.000000	0.000000
58.276300	20.722363	14.894551	0.469911	-0.491463	2.774368	0.000000	-0.076820	0.000000	-0.000006	-0.000001	0.000000	0.000000
58.825360	19.864162	15.731126	1.083873	-1.041181	2.709858	0.000000	-0.157818	0.000000	-0.000007	-0.000000	0.000000	0.000000
59.374420	18.370028	17.208295	1.621276	-1.665060	2.601579	0.000000	-0.236016	0.000000	-0.000007	-0.000000	0.000000	0.000000
59.923480	16.345500	19.431274	2.044160	-2.407538	2.451453	0.000000	-0.310027	0.000000	-0.000007	-0.000000	0.000000	0.000000
60.369440	14.760919	21.407076	1.521615	-2.004208	2.328483	0.000000	-0.241748	0.000000	-0.000007	-0.000000	0.000000	0.000000
60.810400	13.621213	22.963092	1.072792	-1.511063	2.236330	0.000000	-0.176618	0.000000	-0.000007	-0.000000	0.000000	0.000000
61.251360	12.854305	24.052098	0.672983	-0.949166	2.172425	0.000000	-0.113501	0.000000	-0.000007	-0.000001	0.000000	0.000000
61.692320	12.425159	24.624548	0.303920	-0.344083	2.136042	0.000000	-0.051676	0.000000	-0.000008	-0.000001	0.000000	0.000000
62.134530	12.314219	24.653854	-0.021160	0.216139	2.126771	0.000000	0.004345	0.000000	-0.000008	-0.000001	0.000000	0.000000
62.431853	12.333983	24.529081	-0.045315	0.203515	2.128063	0.000000	0.004345	0.000000	-0.000008	-0.000001	0.000000	0.000000
62.765186	12.373220	24.398121	-0.072396	0.189363	2.129512	0.000000	0.004345	0.000000	-0.000009	-0.000001	0.000000	0.000000
63.098520	12.430511	24.276596	-0.099477	0.175211	2.130961	0.000000	0.004345	0.000000	-0.000009	-0.000001	0.000000	0.000000
63.433103	12.506173	24.164104	-0.126660	0.161006	2.132415	0.000000	0.004345	0.000000	-0.000009	-0.000001	0.000000	0.000000
63.730426	12.588673	24.072116	-0.119941	0.089345	2.133707	0.000000	-0.000888	0.000000	-0.000010	-0.000001	0.000000	0.000000
64.171386	12.854768	23.728215	-0.485793	0.687579	2.146855	0.000000	0.060577	0.000000	-0.000010	-0.000001	0.000000	0.000000
64.612346	13.452045	22.868552	-0.873840	1.254528	2.187233	0.000000	0.122732	0.000000	-0.000011	-0.000001	0.000000	0.000000
65.053306	14.407794	21.532242	-1.301810	1.764397	2.255301	0.000000	0.186286	0.000000	-0.000011	-0.000002	0.000000	0.000000
65.494266	15.765678	19.780086	-1.789255	2.193988	2.351835	0.000000	0.251960	0.000000	-0.000012	-0.000002	0.000000	0.000000
65.940226	17.610898	17.667011	-2.363139	2.524507	2.479505	0.000000	0.320907	0.000000	-0.000013	-0.000002	0.000000	0.000000
66.489286	19.976321	15.303144	-1.919494	1.806205	2.635339	0.000000	0.245893	0.000000	-0.000014	-0.000002	0.000000	0.000000
67.038346	21.776782	13.653206	-1.340266	1.216556	2.748726	0.000000	0.166519	0.000000	-0.000015	-0.000001	0.000000	0.000000
67.587406	22.885105	12.599676	-0.666369	0.713559	2.817656	0.000000	0.084191	0.000000	-0.000016	-0.000001	0.000000	0.000000
68.136466	23.223004	12.067514	0.054598	0.261387	2.840904	0.000000	0.000369	0.000000	-0.000016	-0.000000	0.000000	0.000000
68.435038	23.230478	11.900618	-0.018945	0.266057	2.843231	0.000000	0.007793	0.000000	-0.000017	-0.000000	0.000000	0.000000
68.768372	23.247893	11.733244	-0.033299	0.236064	2.845829	0.000000	0.007793	0.000000	-0.000017	-0.000000	0.000000	0.000000
69.101705	23.274878	11.585865	-0.047653	0.206072	2.848427	0.000000	0.007793	0.000000	-0.000017	-0.000000	0.000000	0.000000
69.436288	23.311586	11.458041	-0.062061	0.175967	2.851034	0.000000	0.007793	0.000000	-0.000017	-0.000000	0.000000	0.000000
69.733611	23.352298	11.361358	-0.135889	0.178904	2.853351	0.000000	0.015249	0.000000	-0.000017	-0.000001	0.000000	0.000000
70.282671	23.100456	11.392431	0.591852	-0.235831	2.838543	0.000000	-0.069112	0.000000	-0.000017	0.000000	0.000000	0.000000
