#ParticleID	Turn	x[m]	xp	y[m]	yp	z[m]	dE[GeV]# s	beta_x	beta_y	alpha_x	alpha_y	D_x	D_y	D_px	D_py	orbit_x	orbit_px	orbit_y	orbit_py
0.300000	11.807338	25.043821	-0.010428	-0.026967	2.618216	0.000000	-0.000028	0.000000	-0.000001	0.000002	0.000000	0.000000
0.601250	11.821307	25.063695	-0.035945	-0.039005	2.618207	0.000000	-0.000028	0.000000	-0.000000	0.000002	0.000000	0.000000
0.898573	11.850169	25.090421	-0.032068	-0.112414	2.618198	0.000000	-0.006449	0.000000	0.000000	0.000002	0.000000	0.000000
1.339533	12.030504	24.911227	-0.378442	0.517240	2.631648	0.000000	0.067510	0.000000	0.000001	0.000002	0.000000	0.000000
1.780493	12.522754	24.185025	-0.742106	1.123360	2.677849	0.000000	0.142238	0.000000	0.000001	0.000002	0.000000	0.000000
2.221453	13.349408	22.944855	-1.139675	1.678368	2.757327	0.000000	0.218587	0.000000	0.000002	0.000002	0.000000	0.000000
2.662413	14.548234	21.247146	-1.589312	2.157011	2.870988	0.000000	0.297424	0.000000	0.000003	0.000002	0.000000	0.000000
3.108373	16.194730	19.144246	-2.115846	2.538646	3.021988	0.000000	0.380139	0.000000	0.000004	0.000002	0.000000	0.000000
3.657433	18.306115	16.782342	-1.706843	1.788469	3.205435	0.000000	0.287101	0.000000	0.000004	0.000002	0.000000	0.000000
4.206493	19.899099	15.169854	-1.177276	1.165681	3.336323	0.000000	0.188972	0.000000	0.000005	0.000001	0.000000	0.000000
4.755553	20.861163	14.191930	-0.564552	0.625922	3.412331	0.000000	0.087490	0.000000	0.000006	0.000001	0.000000	0.000000
5.304613	21.124351	13.778912	0.088048	0.130745	3.432111	0.000000	-0.015544	0.000000	0.000007	0.000001	0.000000	0.000000
5.603185	21.108955	13.685991	0.018708	0.144473	3.430147	0.000000	-0.006577	0.000000	0.000007	0.000001	0.000000	0.000000
5.936519	21.101748	13.597963	0.002912	0.119609	3.427954	0.000000	-0.006577	0.000000	0.000007	0.000001	0.000000	0.000000
6.269852	21.105073	13.526512	-0.012885	0.094745	3.425761	0.000000	-0.006577	0.000000	0.000008	0.000001	0.000000	0.000000
6.604435	21.119000	13.471462	-0.028741	0.069788	3.423560	0.000000	-0.006577	0.000000	0.000008	0.000001	0.000000	0.000000
6.901758	21.140280	13.436557	-0.098063	0.082715	3.421605	0.000000	0.002362	0.000000	0.000008	0.000001	0.000000	0.000000
7.450818	20.887694	13.606638	0.555373	-0.394312	3.394701	0.000000	-0.100215	0.000000	0.000009	0.000001	0.000000	0.000000
7.999878	19.934952	14.312809	1.169579	-0.899424	3.311882	0.000000	-0.201016	0.000000	0.000009	0.000001	0.000000	0.000000
8.548938	18.349351	15.605367	1.701173	-1.468600	3.174616	0.000000	-0.298250	0.000000	0.000009	0.000000	0.000000	0.000000
9.097998	16.242889	17.576379	2.112604	-2.142382	2.985338	0.000000	-0.390195	0.000000	0.000009	-0.000000	0.000000	0.000000
9.543958	14.599497	19.332629	1.585563	-1.779106	2.829633	0.000000	-0.308492	0.000000	0.000009	0.000000	0.000000	0.000000
9.984918	13.404262	20.711565	1.135248	-1.336117	2.710846	0.000000	-0.230786	0.000000	0.000010	0.000000	0.000000	0.000000
10.425878	12.581884	21.671418	0.736799	-0.832335	2.625712	0.000000	-0.155710	0.000000	0.000010	0.000001	0.000000	0.000000
10.866838	12.094791	22.168516	0.372012	-0.290683	2.573262	0.000000	-0.082406	0.000000	0.000010	0.000001	0.000000	0.000000
11.309048	11.920595	22.179717	0.053347	0.209748	2.552878	0.000000	-0.016301	0.000000	0.000011	0.000001	0.000000	0.000000
11.606371	11.896309	22.059152	0.028334	0.195753	2.548031	0.000000	-0.016301	0.000000	0.000011	0.000001	0.000000	0.000000
12.086371	11.888492	21.882073	-0.012047	0.173160	2.540206	0.000000	-0.016301	0.000000	0.000012	0.000001	0.000000	0.000000
12.566371	11.919440	21.726685	-0.052428	0.150566	2.532381	0.000000	-0.016301	0.000000	0.000012	0.000001	0.000000	0.000000
13.046371	11.989154	21.592986	-0.092809	0.127973	2.524556	0.000000	-0.016301	0.000000	0.000013	0.000001	0.000000	0.000000
13.526371	12.097634	21.480977	-0.133190	0.105379	2.516731	0.000000	-0.016301	0.000000	0.000013	0.000001	0.000000	0.000000
14.007621	12.245314	21.390451	-0.173677	0.082727	2.508885	0.000000	-0.016301	0.000000	0.000014	0.000001	0.000000	0.000000
14.304943	12.356027	21.345419	-0.168393	0.016394	2.504038	0.000000	-0.022441	0.000000	0.000014	0.000001	0.000000	0.000000
14.745903	12.663037	21.097347	-0.530480	0.544036	2.509773	0.000000	0.048476	0.000000	0.000015	0.000001	0.000000	0.000000
15.186863	13.298819	20.393117	-0.916802	1.046924	2.546870	0.000000	0.119945	0.000000	0.000015	0.000002	0.000000	0.000000
15.627823	14.292420	19.264771	-1.345011	1.502179	2.615753	0.000000	0.192780	0.000000	0.000016	0.000002	0.000000	0.000000
16.068783	15.689234	17.763647	-1.834670	1.889085	2.717207	0.000000	0.267811	0.000000	0.000017	0.000003	0.000000	0.000000
16.514743	17.576738	15.936544	-2.412908	2.190782	2.854080	0.000000	0.346354	0.000000	0.000019	0.000003	0.000000	0.000000
17.063803	20.001045	13.896468	-1.976329	1.546729	3.020520	0.000000	0.259032	0.000000	0.000020	0.000003	0.000000	0.000000
17.612863	21.865977	12.499353	-1.400152	1.012847	3.137682	0.000000	0.167116	0.000000	0.000022	0.000002	0.000000	0.000000
18.161923	23.039803	11.645688	-0.725075	0.551107	3.203487	0.000000	0.072235	0.000000	0.000022	0.000001	0.000000	0.000000
18.710983	23.439611	11.274666	0.001218	0.128621	3.216769	0.000000	-0.023926	0.000000	0.000023	0.000000	0.000000	0.000000
19.009556	23.479265	11.188377	-0.072798	0.130930	3.212134	0.000000	-0.015523	0.000000	0.000023	0.000000	0.000000	0.000000
19.342889	23.532554	11.111192	-0.087070	0.100627	3.206959	0.000000	-0.015523	0.000000	0.000023	0.000000	0.000000	0.000000
19.676223	23.595358	11.054208	-0.101342	0.070323	3.201785	0.000000	-0.015523	0.000000	0.000023	0.000000	0.000000	0.000000
20.010806	23.668259	11.017191	-0.232933	0.094492	3.196611	0.000000	0.000315	0.000000	0.000023	0.000001	0.000000	0.000000
20.308129	23.810709	10.969097	-0.308378	0.095919	3.196704	0.000000	0.008666	0.000000	0.000024	0.000001	0.000000	0.000000
20.857189	23.738661	11.085746	0.438822	-0.309625	3.175246	0.000000	-0.086713	0.000000	0.000024	-0.000000	0.000000	0.000000
21.406249	22.858332	11.657156	1.155025	-0.737223	3.101765	0.000000	-0.180554	0.000000	0.000024	-0.000001	0.000000	0.000000
21.955309	21.231905	12.724027	1.789642	-1.217332	2.977565	0.000000	-0.271193	0.000000	0.000023	-0.000002	0.000000	0.000000
22.504369	18.974261	14.362349	2.297849	-1.784148	2.804848	0.000000	-0.357021	0.000000	0.000022	-0.000002	0.000000	0.000000
22.950329	17.194960	15.833338	1.706055	-1.500413	2.662923	0.000000	-0.279821	0.000000	0.000021	-0.000002	0.000000	0.000000
23.391289	15.919709	17.006203	1.196903	-1.149263	2.555854	0.000000	-0.206262	0.000000	0.000020	-0.000001	0.000000	0.000000
23.832249	15.067771	17.845052	0.742434	-0.745822	2.480673	0.000000	-0.135052	0.000000	0.000020	-0.000001	0.000000	0.000000
24.273209	14.600222	18.311719	0.321885	-0.308448	2.436524	0.000000	-0.065381	0.000000	0.000020	-0.000000	0.000000	0.000000
24.715418	14.495823	18.384726	-0.048503	0.097816	2.422901	0.000000	-0.002394	0.000000	0.000020	0.000000	0.000000	0.000000
25.012741	14.530778	18.331415	-0.069062	0.081489	2.422189	0.000000	-0.002394	0.000000	0.000020	0.000000	0.000000	0.000000
25.346075	14.584503	18.283190	-0.092112	0.063184	2.421390	0.000000	-0.002394	0.000000	0.000020	0.000000	0.000000	0.000000
25.679408	14.653594	18.247169	-0.115161	0.044880	2.420592	0.000000	-0.002394	0.000000	0.000020	0.000000	0.000000	0.000000
26.013991	14.738097	18.223654	-0.018732	-0.121332	2.419767	0.000000	-0.022025	0.000000	0.000020	0.000000	0.000000	0.000000
26.311314	14.755236	18.300726	-0.002735	-0.182758	2.413218	0.000000	-0.027942	0.000000	0.000020	0.000000	0.000000	0.000000
26.752274	14.939426	18.263450	-0.416551	0.266970	2.416005	0.000000	0.040595	0.000000	0.000020	0.000001	0.000000	0.000000
27.193234	15.495550	17.833412	-0.849399	0.704550	2.449087	0.000000	0.109595	0.000000	0.000020	0.000001	0.000000	0.000000
27.634194	16.449016	17.030178	-1.321053	1.110075	2.512841	0.000000	0.179843	0.000000	0.000021	0.000002	0.000000	0.000000
28.075154	17.843385	15.890295	-1.853063	1.465092	2.607994	0.000000	0.252140	0.000000	0.000022	0.000002	0.000000	0.000000
28.521114	19.766584	14.448453	-2.474704	1.754360	2.737231	0.000000	0.327751	0.000000	0.000023	0.000003	0.000000	0.000000
29.070174	22.210972	12.842023	-1.950890	1.188691	2.894524	0.000000	0.244364	0.000000	0.000024	0.000002	0.000000	0.000000
29.619234	24.000613	11.806907	-1.289275	0.707689	3.004774	0.000000	0.156642	0.000000	0.000025	0.000001	0.000000	0.000000
30.168294	25.009094	11.269374	-0.536592	0.277095	3.066024	0.000000	0.066142	0.000000	0.000025	0.000000	0.000000	0.000000
30.717354	25.165181	11.191137	0.253994	-0.133762	3.077189	0.000000	-0.025532	0.000000	0.000025	-0.000000	0.000000	0.000000
31.015927	25.056433	11.261608	0.175971	-0.131498	3.071966	0.000000	-0.017493	0.000000	0.000025	-0.000000	0.000000	0.000000
31.349260	24.943691	11.359310	0.162255	-0.161609	3.066136	0.000000	-0.017493	0.000000	0.000025	-0.000000	0.000000	0.000000
31.682593	24.840093	11.477087	0.148540	-0.191720	3.060305	0.000000	-0.017493	0.000000	0.000025	-0.000000	0.000000	0.000000
32.017177	24.745301	11.615492	0.134773	-0.221944	3.054452	0.000000	-0.017493	0.000000	0.000025	-0.000000	0.000000	0.000000
32.314499	24.668796	11.755455	0.058098	-0.218094	3.049251	0.000000	-0.009528	0.000000	0.000025	-0.000000	0.000000	0.000000
32.863559	24.182319	12.234135	0.822674	-0.658868	3.019141	0.000000	-0.099989	0.000000	0.000024	-0.000001	0.000000	0.000000
33.412619	22.883342	13.219613	1.529140	-1.146572	2.939778	0.000000	-0.188677	0.000000	0.000023	-0.000002	0.000000	0.000000
33.961679	20.863617	14.782084	2.127595	-1.715945	2.812568	0.000000	-0.274018	0.000000	0.000022	-0.000003	0.000000	0.000000
34.510739	18.265809	17.032840	2.575768	-2.407540	2.639769	0.000000	-0.354499	0.000000	0.000020	-0.000003	0.000000	0.000000
34.956699	16.245870	19.046081	1.969877	-2.088011	2.498018	0.000000	-0.281578	0.000000	0.000019	-0.000003	0.000000	0.000000
35.397659	14.739585	20.711414	1.459002	-1.674223	2.389234	0.000000	-0.212293	0.000000	0.000018	-0.000002	0.000000	0.000000
35.838619	13.652866	21.976706	1.014785	-1.184260	2.310440	0.000000	-0.145425	0.000000	0.000017	-0.000002	0.000000	0.000000
36.279579	12.936063	22.784388	0.616930	-0.640414	2.260739	0.000000	-0.080214	0.000000	0.000016	-0.000001	0.000000	0.000000
36.721789	12.555734	23.098020	0.277942	-0.124117	2.239538	0.000000	-0.021407	0.000000	0.000016	-0.000001	0.000000	0.000000
37.019112	12.398042	23.175712	0.252432	-0.137188	2.233174	0.000000	-0.021407	0.000000	0.000015	-0.000001	0.000000	0.000000
37.352445	12.239287	23.272055	0.223833	-0.151841	2.226039	0.000000	-0.021407	0.000000	0.000015	-0.000001	0.000000	0.000000
37.685779	12.099598	23.378168	0.195234	-0.166495	2.218903	0.000000	-0.021407	0.000000	0.000015	-0.000001	0.000000	0.000000
38.020362	11.978559	23.494502	0.166527	-0.181204	2.211741	0.000000	-0.021407	0.000000	0.000014	-0.000001	0.000000	0.000000
38.317684	11.887118	23.606140	0.170165	-0.252156	2.205377	0.000000	-0.026815	0.000000	0.000014	-0.000001	0.000000	0.000000
38.758644	11.888573	23.567044	-0.173477	0.340480	2.207479	0.000000	0.036356	0.000000	0.000014	-0.000001	0.000000	0.000000
39.199604	12.195430	23.010151	-0.525045	0.917624	2.237501	0.000000	0.099941	0.000000	0.000013	-0.000000	0.000000	0.000000
39.640564	12.821707	21.960799	-0.900601	1.453018	2.295786	0.000000	0.164664	0.000000	0.000013	-0.000000	0.000000	0.000000
40.081524	13.796017	20.466733	-1.317302	1.922300	2.382996	0.000000	0.231262	0.000000	0.000013	0.000000	0.000000	0.000000
40.527484	15.180452	18.573356	-1.798016	2.305404	2.501598	0.000000	0.300899	0.000000	0.000013	0.000001	0.000000	0.000000
41.076544	16.947067	16.445622	-1.400464	1.592700	2.646282	0.000000	0.225351	0.000000	0.000014	0.000000	0.000000	0.000000
41.625604	18.219885	15.034009	-0.903990	0.993439	2.748326	0.000000	0.145805	0.000000	0.000014	-0.000000	0.000000	0.000000
42.174664	18.909000	14.237970	-0.343663	0.464940	2.805919	0.000000	0.063674	0.000000	0.000013	-0.000001	0.000000	0.000000
42.723724	18.965737	14.000805	0.240939	-0.030444	2.818041	0.000000	-0.019587	0.000000	0.000013	-0.000001	0.000000	0.000000
43.022297	18.856322	14.003510	0.175071	-0.015192	2.814391	0.000000	-0.012225	0.000000	0.000012	-0.000001	0.000000	0.000000
43.502297	18.700847	14.034551	0.148835	-0.049477	2.808523	0.000000	-0.012225	0.000000	0.000012	-0.000001	0.000000	0.000000
43.982297	18.570559	14.098506	0.122599	-0.083762	2.802656	0.000000	-0.012225	0.000000	0.000011	-0.000001	0.000000	0.000000
44.462297	18.465457	14.195374	0.096363	-0.118047	2.796788	0.000000	-0.012225	0.000000	0.000011	-0.000001	0.000000	0.000000
44.942297	18.385541	14.325156	0.070127	-0.152332	2.790921	0.000000	-0.012225	0.000000	0.000010	-0.000001	0.000000	0.000000
45.423547	18.330930	14.488139	-0.046998	-0.114923	2.785055	0.000000	0.001574	0.000000	0.000010	-0.000001	0.000000	0.000000
45.720870	18.363710	14.562660	-0.111231	-0.097670	2.785523	0.000000	0.008851	0.000000	0.000009	-0.000001	0.000000	0.000000
46.269930	18.176653	14.951521	0.449899	-0.614741	2.767814	0.000000	-0.073266	0.000000	0.000009	-0.000001	0.000000	0.000000
46.818990	17.387291	15.928757	0.979251	-1.175599	2.705309	0.000000	-0.154083	0.000000	0.000008	-0.000002	0.000000	0.000000
47.368050	16.051380	17.563974	1.439433	-1.820193	2.599116	0.000000	-0.232168	0.000000	0.000007	-0.000002	0.000000	0.000000
47.917110	14.263282	19.973645	1.797941	-2.594434	2.451119	0.000000	-0.306134	0.000000	0.000006	-0.000002	0.000000	0.000000
48.363070	12.871859	22.115990	1.333175	-2.189264	2.329887	0.000000	-0.237841	0.000000	0.000005	-0.000002	0.000000	0.000000
48.804030	11.876305	23.831248	0.933087	-1.685760	2.239468	0.000000	-0.172653	0.000000	0.000004	-0.000002	0.000000	0.000000
49.244990	11.213535	25.066807	0.575630	-1.105555	2.177334	0.000000	-0.109431	0.000000	0.000003	-0.000002	0.000000	0.000000
49.685950	10.853269	25.766452	0.244472	-0.475048	2.142777	0.000000	-0.047456	0.000000	0.000003	-0.000002	0.000000	0.000000
50.128160	10.779171	25.898065	-0.049200	0.113516	2.135415	0.000000	0.008742	0.000000	0.000002	-0.000002	0.000000	0.000000
50.425482	10.816648	25.834021	-0.076850	0.101888	2.138014	0.000000	0.008742	0.000000	0.000002	-0.000002	0.000000	0.000000
50.758816	10.878215	25.770441	-0.107849	0.088851	2.140929	0.000000	0.008742	0.000000	0.000001	-0.000002	0.000000	0.000000
51.092149	10.960447	25.715553	-0.138848	0.075814	2.143843	0.000000	0.008742	0.000000	0.000001	-0.000002	0.000000	0.000000
51.426732	11.063545	25.669720	-0.080208	-0.145517	2.146747	0.000000	-0.008674	0.000000	0.000000	-0.000002	0.000000	0.000000
51.724055	11.119282	25.759767	-0.079987	-0.220516	2.144168	0.000000	-0.013932	0.000000	-0.000000	-0.000002	0.000000	0.000000
52.165015	11.335028	25.667641	-0.411134	0.428645	2.151613	0.000000	0.047729	0.000000	-0.000001	-0.000002	0.000000	0.000000
52.605975	11.849967	25.009452	-0.761064	1.058303	2.186343	0.000000	0.109935	0.000000	-0.000002	-0.000002	0.000000	0.000000
53.046935	12.687624	23.815147	-1.145765	1.639809	2.248752	0.000000	0.173392	0.000000	-0.000003	-0.000002	0.000000	0.000000
53.487895	13.886270	22.139068	-1.582813	2.146705	2.339552	0.000000	0.238824	0.000000	-0.000003	-0.000002	0.000000	0.000000
53.933855	15.521218	20.032416	-2.096400	2.557266	2.461281	0.000000	0.307375	0.000000	-0.000004	-0.000002	0.000000	0.000000
54.482915	17.626209	17.661846	-1.714716	1.785725	2.609868	0.000000	0.233069	0.000000	-0.000005	-0.000002	0.000000	0.000000
55.031975	19.242671	16.064123	-1.211912	1.141377	2.716461	0.000000	0.154630	0.000000	-0.000006	-0.000002	0.000000	0.000000
55.581035	20.256426	15.125444	-0.623505	0.578326	2.779169	0.000000	0.073448	0.000000	-0.000007	-0.000001	0.000000	0.000000
56.130095	20.595866	14.778948	0.008944	0.056469	2.796878	0.000000	-0.009037	0.000000	-0.000007	-0.000001	0.000000	0.000000
56.428668	20.626998	14.728255	-0.059399	0.074701	2.796362	0.000000	-0.001729	0.000000	-0.000008	-0.000001	0.000000	0.000000
56.762001	20.672003	14.686040	-0.075616	0.051942	2.795787	0.000000	-0.001729	0.000000	-0.000008	-0.000001	0.000000	0.000000
57.095334	20.727819	14.658999	-0.091833	0.029184	2.795211	0.000000	-0.001729	0.000000	-0.000008	-0.000001	0.000000	0.000000
57.429918	20.794717	14.647113	-0.108111	0.006340	2.794633	0.000000	-0.001729	0.000000	-0.000009	-0.000001	0.000000	0.000000
57.727240	20.863306	14.649379	-0.177092	0.024319	2.794119	0.000000	0.005572	0.000000	-0.000009	-0.000001	0.000000	0.000000
58.276300	20.701872	14.903931	0.469369	-0.490670	2.774539	0.000000	-0.076793	0.000000	-0.000010	-0.000001	0.000000	0.000000
58.825360	19.844631	15.739760	1.082677	-1.040608	2.710043	0.000000	-0.157796	0.000000	-0.000010	-0.000001	0.000000	0.000000
59.374420	18.352133	17.216401	1.619510	-1.664666	2.601775	0.000000	-0.236000	0.000000	-0.000010	-0.000000	0.000000	0.000000
59.923480	16.329802	19.439031	2.041948	-2.407294	2.451655	0.000000	-0.310018	0.000000	-0.000010	0.000000	0.000000	0.000000
60.369440	14.746977	21.414488	1.519875	-2.003681	2.328690	0.000000	-0.241733	0.000000	-0.000010	-0.000000	0.000000	0.000000
60.810400	13.608629	22.969923	1.071440	-1.510279	2.236545	0.000000	-0.176598	0.000000	-0.000010	-0.000000	0.000000	0.000000
61.251360	12.842766	24.058137	0.671957	-0.948160	2.172650	0.000000	-0.113475	0.000000	-0.000010	-0.000001	0.000000	0.000000
61.692320	12.414398	24.629618	0.303173	-0.342901	2.136280	0.000000	-0.051644	0.000000	-0.000011	-0.000001	0.000000	0.000000
62.134530	12.304008	24.657821	-0.021685	0.217431	2.127024	0.000000	0.004382	0.000000	-0.000011	-0.000001	0.000000	0.000000
62.431853	12.324092	24.532281	-0.045861	0.204803	2.128328	0.000000	0.004382	0.000000	-0.000012	-0.000001	0.000000	0.000000
62.765186	12.363701	24.400465	-0.072966	0.190645	2.129789	0.000000	0.004382	0.000000	-0.000012	-0.000001	0.000000	0.000000
63.098520	12.421379	24.278088	-0.100070	0.176488	2.131250	0.000000	0.004382	0.000000	-0.000012	-0.000001	0.000000	0.000000
63.433103	12.497445	24.164742	-0.127276	0.162277	2.132716	0.000000	0.004382	0.000000	-0.000013	-0.000001	0.000000	0.000000
63.730426	12.580317	24.072000	-0.120597	0.090610	2.134020	0.000000	-0.000852	0.000000	-0.000013	-0.000001	0.000000	0.000000
64.171386	12.846913	23.726995	-0.486276	0.688807	2.147186	0.000000	0.060622	0.000000	-0.000014	-0.000001	0.000000	0.000000
64.612346	13.444548	22.866285	-0.874172	1.255665	2.187586	0.000000	0.122786	0.000000	-0.000014	-0.000002	0.000000	0.000000
65.053306	14.400528	21.529033	-1.302006	1.765390	2.255680	0.000000	0.186348	0.000000	-0.000015	-0.000002	0.000000	0.000000
65.494266	15.758529	19.776080	-1.789325	2.194792	2.352243	0.000000	0.252033	0.000000	-0.000016	-0.000003	0.000000	0.000000
65.940226	17.603755	17.662387	-2.363084	2.525084	2.479949	0.000000	0.320991	0.000000	-0.000018	-0.000003	0.000000	0.000000
66.489286	19.969286	15.297880	-1.919744	1.806801	2.635825	0.000000	0.245962	0.000000	-0.000019	-0.000002	0.000000	0.000000
67.038346	21.770182	13.647258	-1.340803	1.217213	2.749246	0.000000	0.166571	0.000000	-0.000020	-0.000002	0.000000	0.000000
67.587406	22.879236	12.592951	-0.667155	0.714325	2.818200	0.000000	0.084226	0.000000	-0.000021	-0.000001	0.000000	0.000000
68.136466	23.218110	12.059864	0.053618	0.262316	2.841463	0.000000	0.000387	0.000000	-0.000022	-0.000000	0.000000	0.000000
68.435038	23.226165	11.892434	-0.019918	0.266937	2.843796	0.000000	0.007812	0.000000	-0.000022	-0.000001	0.000000	0.000000
68.768372	23.244229	11.724485	-0.034275	0.236911	2.846400	0.000000	0.007812	0.000000	-0.000022	-0.000001	0.000000	0.000000
69.101705	23.271865	11.576553	-0.048633	0.206884	2.849004	0.000000	0.007812	0.000000	-0.000022	-0.000001	0.000000	0.000000
69.436288	23.309230	11.448197	-0.063044	0.176745	2.851618	0.000000	0.007812	0.000000	-0.000022	-0.000001	0.000000	0.000000
69.733611	23.350526	11.351059	-0.136872	0.179627	2.853941	0.000000	0.015270	0.000000	-0.000023	-0.000001	0.000000	0.000000
70.282671	23.099787	11.381178	0.590839	-0.234805	2.839139	0.000000	-0.069110	0.000000	-0.000023	0.000000	0.000000	0.000000
