#ParticleID	Turn	x[m]	xp	y[m]	yp	z[m]	dE[GeV]# s	beta_x	beta_y	alpha_x	alpha_y	D_x	D_y	D_px	D_py	orbit_x	orbit_px	orbit_y	orbit_py
0.300000	11.832876	24.944588	-0.013503	-0.027774	2.618310	0.000000	-0.000064	0.000000	0.000000	0.000000	0.000000	0.000000
0.601250	11.848683	24.964963	-0.038966	-0.039860	2.618291	0.000000	-0.000064	0.000000	0.000000	0.000000	0.000000	0.000000
0.898573	11.879326	24.992212	-0.034966	-0.113076	2.618272	0.000000	-0.006485	0.000000	0.000000	0.000000	0.000000	0.000000
1.339533	12.062531	24.814747	-0.382079	0.513997	2.631706	0.000000	0.067476	0.000000	0.000000	0.000000	0.000000	0.000000
1.780493	12.558374	24.092493	-0.746649	1.117683	2.677893	0.000000	0.142206	0.000000	0.000001	0.000000	0.000000	0.000000
2.221453	13.389508	22.858311	-1.145330	1.670517	2.757358	0.000000	0.218555	0.000000	0.000001	0.000000	0.000000	0.000000
2.662413	14.593905	21.168357	-1.596339	2.147342	2.871006	0.000000	0.297393	0.000000	0.000001	0.000000	0.000000	0.000000
3.108373	16.247404	19.074735	-2.124580	2.527596	3.021992	0.000000	0.380108	0.000000	0.000001	0.000000	0.000000	0.000000
3.657433	18.367690	16.723412	-1.714226	1.780136	3.205423	0.000000	0.287071	0.000000	0.000001	0.000000	0.000000	0.000000
4.206493	19.967797	15.118862	-1.182787	1.159472	3.336295	0.000000	0.188942	0.000000	0.000001	0.000000	0.000000	0.000000
4.755553	20.934699	14.146797	-0.567802	0.621394	3.412288	0.000000	0.087461	0.000000	0.000001	0.000000	0.000000	0.000000
5.304613	21.200101	13.737980	0.087289	0.127577	3.432053	0.000000	-0.015571	0.000000	0.000001	0.000000	0.000000	0.000000
5.603185	21.185263	13.647026	0.017800	0.141157	3.430081	0.000000	-0.006604	0.000000	0.000001	0.000000	0.000000	0.000000
5.936519	21.178642	13.561226	0.002061	0.116245	3.427880	0.000000	-0.006604	0.000000	0.000001	0.000000	0.000000	0.000000
6.269852	21.182515	13.492033	-0.013679	0.091333	3.425679	0.000000	-0.006604	0.000000	0.000001	0.000000	0.000000	0.000000
6.604435	21.196954	13.439282	-0.029477	0.066328	3.423469	0.000000	-0.006604	0.000000	0.000001	0.000000	0.000000	0.000000
6.901758	21.218657	13.406447	-0.098956	0.079135	3.421505	0.000000	0.002336	0.000000	0.000001	0.000000	0.000000	0.000000
7.450818	20.965605	13.580008	0.557108	-0.397106	3.394589	0.000000	-0.100239	0.000000	0.000001	0.000000	0.000000	0.000000
7.999878	20.009562	14.288908	1.173821	-0.901632	3.311758	0.000000	-0.201035	0.000000	0.000001	-0.000000	0.000000	0.000000
8.548938	18.418057	15.583642	1.707620	-1.470379	3.174483	0.000000	-0.298265	0.000000	0.000001	-0.000000	0.000000	0.000000
9.097998	16.303506	17.556430	2.120802	-2.143858	2.985198	0.000000	-0.390206	0.000000	0.000001	-0.000000	0.000000	0.000000
9.543958	14.653623	19.314359	1.591972	-1.781383	2.829487	0.000000	-0.308506	0.000000	0.000001	-0.000000	0.000000	0.000000
9.984918	13.453409	20.695617	1.140173	-1.339084	2.710693	0.000000	-0.230805	0.000000	0.000001	-0.000000	0.000000	0.000000
10.425878	12.627257	21.658343	0.740466	-0.835859	2.625551	0.000000	-0.155732	0.000000	0.000001	0.000000	0.000000	0.000000
10.866838	12.137420	22.158735	0.374589	-0.294602	2.573090	0.000000	-0.082433	0.000000	0.000001	0.000000	0.000000	0.000000
11.309048	11.961383	22.173512	0.055053	0.205623	2.552693	0.000000	-0.016332	0.000000	0.000001	0.000000	0.000000	0.000000
11.606371	11.936059	22.055394	0.030121	0.191647	2.547837	0.000000	-0.016332	0.000000	0.000001	0.000000	0.000000	0.000000
12.086371	11.926463	21.882243	-0.010130	0.169085	2.539998	0.000000	-0.016332	0.000000	0.000001	0.000000	0.000000	0.000000
12.566371	11.955508	21.730751	-0.050381	0.146522	2.532158	0.000000	-0.016332	0.000000	0.000001	0.000000	0.000000	0.000000
13.046371	12.023194	21.600920	-0.090631	0.123959	2.524319	0.000000	-0.016332	0.000000	0.000001	0.000000	0.000000	0.000000
13.526371	12.129521	21.492750	-0.130882	0.101396	2.516479	0.000000	-0.016332	0.000000	0.000001	0.000000	0.000000	0.000000
14.007621	12.274916	21.406042	-0.171238	0.078775	2.508619	0.000000	-0.016332	0.000000	0.000001	0.000000	0.000000	0.000000
14.304943	12.384154	21.363354	-0.165801	0.012411	2.503763	0.000000	-0.022472	0.000000	0.000001	0.000000	0.000000	0.000000
14.745903	12.689132	21.118557	-0.528444	0.540623	2.509483	0.000000	0.048437	0.000000	0.000001	0.000000	0.000000	0.000000
15.186863	13.323329	20.417027	-0.915231	1.044238	2.546562	0.000000	0.119898	0.000000	0.000001	0.000000	0.000000	0.000000
15.627823	14.315720	19.290683	-1.343832	1.500341	2.615424	0.000000	0.192725	0.000000	0.000001	0.000000	0.000000	0.000000
16.068783	15.711646	17.790774	-1.833829	1.888179	2.716852	0.000000	0.267747	0.000000	0.000001	0.000000	0.000000	0.000000
16.514743	17.598536	15.964043	-2.412366	2.190857	2.853696	0.000000	0.346280	0.000000	0.000001	0.000000	0.000000	0.000000
17.063803	20.021680	13.924189	-1.974768	1.546247	3.020101	0.000000	0.258972	0.000000	0.000002	0.000000	0.000000	0.000000
17.612863	21.884385	12.527925	-1.397683	1.011772	3.137235	0.000000	0.167070	0.000000	0.000002	0.000000	0.000000	0.000000
18.161923	23.055077	11.675798	-0.721872	0.549364	3.203019	0.000000	0.072204	0.000000	0.000002	0.000000	0.000000	0.000000
18.710983	23.451066	11.307112	0.004929	0.126085	3.216288	0.000000	-0.023942	0.000000	0.000002	0.000000	0.000000	0.000000
19.009556	23.488525	11.222254	-0.069116	0.128583	3.211649	0.000000	-0.015539	0.000000	0.000002	0.000000	0.000000	0.000000
19.342889	23.539355	11.146597	-0.083375	0.098389	3.206469	0.000000	-0.015539	0.000000	0.000002	0.000000	0.000000	0.000000
19.676223	23.599692	11.091068	-0.097634	0.068195	3.201290	0.000000	-0.015539	0.000000	0.000002	0.000000	0.000000	0.000000
20.010806	23.670107	11.055438	-0.229222	0.092663	3.196111	0.000000	0.000297	0.000000	0.000002	0.000000	0.000000	0.000000
20.308129	23.810344	11.008401	-0.304654	0.094301	3.196199	0.000000	0.008648	0.000000	0.000002	0.000000	0.000000	0.000000
20.857189	23.734233	11.127439	0.442453	-0.312384	3.174736	0.000000	-0.086715	0.000000	0.000002	-0.000000	0.000000	0.000000
21.406249	22.850085	11.702591	1.158308	-0.741320	3.101258	0.000000	-0.180539	0.000000	0.000002	-0.000000	0.000000	0.000000
21.955309	21.220352	12.774824	1.792345	-1.223059	2.977070	0.000000	-0.271161	0.000000	0.000002	-0.000000	0.000000	0.000000
22.504369	18.960150	14.420511	2.299780	-1.791913	2.804374	0.000000	-0.356974	0.000000	0.000002	-0.000000	0.000000	0.000000
22.950329	17.179092	15.897849	1.708080	-1.506828	2.662467	0.000000	-0.279786	0.000000	0.000001	-0.000000	0.000000	0.000000
23.391289	15.901980	17.075668	1.199115	-1.154040	2.555410	0.000000	-0.206238	0.000000	0.000001	-0.000000	0.000000	0.000000
23.832249	15.047972	17.917925	0.744934	-0.748745	2.480237	0.000000	-0.135040	0.000000	0.000001	-0.000000	0.000000	0.000000
24.273209	14.578050	18.386299	0.324787	-0.309383	2.436090	0.000000	-0.065380	0.000000	0.000001	-0.000000	0.000000	0.000000
24.715418	14.470858	18.459233	-0.045121	0.098721	2.422465	0.000000	-0.002405	0.000000	0.000001	-0.000000	0.000000	0.000000
25.012741	14.503811	18.405365	-0.065710	0.082457	2.421750	0.000000	-0.002405	0.000000	0.000001	-0.000000	0.000000	0.000000
25.346075	14.555311	18.356472	-0.088791	0.064223	2.420948	0.000000	-0.002405	0.000000	0.000001	-0.000000	0.000000	0.000000
25.679408	14.622199	18.319735	-0.111873	0.045989	2.420147	0.000000	-0.002405	0.000000	0.000001	-0.000000	0.000000	0.000000
26.013991	14.704514	18.295455	-0.015749	-0.120735	2.419318	0.000000	-0.022032	0.000000	0.000001	-0.000000	0.000000	0.000000
26.311314	14.719893	18.372151	0.000124	-0.182276	2.412767	0.000000	-0.027949	0.000000	0.000001	-0.000000	0.000000	0.000000
26.752274	14.901170	18.333597	-0.412780	0.269376	2.415549	0.000000	0.040577	0.000000	0.000001	0.000000	0.000000	0.000000
27.193234	15.453504	17.900625	-0.844543	0.708772	2.448621	0.000000	0.109565	0.000000	0.000001	0.000000	0.000000	0.000000
27.634194	16.402130	17.092936	-1.314891	1.115920	2.512359	0.000000	0.179801	0.000000	0.000001	0.000000	0.000000	0.000000
28.075154	17.790386	15.947278	-1.845312	1.472294	2.607491	0.000000	0.252084	0.000000	0.000001	0.000000	0.000000	0.000000
28.521114	19.705826	14.498523	-2.464995	1.762594	2.736701	0.000000	0.327682	0.000000	0.000001	0.000000	0.000000	0.000000
29.070174	22.140353	12.884147	-1.942749	1.195016	2.893963	0.000000	0.244313	0.000000	0.000001	0.000000	0.000000	0.000000
29.619234	23.922183	11.842921	-1.283277	0.712557	3.004190	0.000000	0.156609	0.000000	0.000002	0.000000	0.000000	0.000000
30.168294	24.925456	11.300680	-0.533161	0.280852	3.065428	0.000000	0.066128	0.000000	0.000002	-0.000000	0.000000	0.000000
30.717354	25.079305	11.218802	0.254615	-0.130848	3.076591	0.000000	-0.025526	0.000000	0.000002	-0.000000	0.000000	0.000000
31.015927	24.970074	11.287461	0.176757	-0.128424	3.071370	0.000000	-0.017487	0.000000	0.000002	-0.000000	0.000000	0.000000
31.349260	24.856825	11.383083	0.162991	-0.158442	3.065541	0.000000	-0.017487	0.000000	0.000001	-0.000000	0.000000	0.000000
31.682593	24.752753	11.498718	0.149224	-0.188460	3.059712	0.000000	-0.017487	0.000000	0.000001	-0.000000	0.000000	0.000000
32.017177	24.657520	11.634910	0.135406	-0.218591	3.053861	0.000000	-0.017487	0.000000	0.000001	-0.000000	0.000000	0.000000
32.314499	24.580653	11.772855	0.058903	-0.214607	3.048662	0.000000	-0.009522	0.000000	0.000001	-0.000000	0.000000	0.000000
32.863559	24.094904	12.247891	0.820551	-0.655680	3.018561	0.000000	-0.099964	0.000000	0.000001	-0.000000	0.000000	0.000000
33.412619	22.799807	13.229928	1.524239	-1.143456	2.939216	0.000000	-0.188633	0.000000	0.000001	-0.000000	0.000000	0.000000
33.961679	20.786842	14.788916	2.120262	-1.712678	2.812034	0.000000	-0.273956	0.000000	0.000001	-0.000000	0.000000	0.000000
34.510739	18.198193	17.035896	2.566521	-2.403891	2.639272	0.000000	-0.354420	0.000000	0.000001	-0.000000	0.000000	0.000000
34.956699	16.185570	19.045654	1.962661	-2.083880	2.497551	0.000000	-0.281512	0.000000	0.000001	-0.000000	0.000000	0.000000
35.397659	14.684885	20.707202	1.453471	-1.669805	2.388793	0.000000	-0.212239	0.000000	0.000001	-0.000000	0.000000	0.000000
35.838619	13.602397	21.968543	1.010686	-1.179754	2.310019	0.000000	-0.145382	0.000000	0.000001	-0.000000	0.000000	0.000000
36.279579	12.888649	22.772288	0.614077	-0.636026	2.260335	0.000000	-0.080181	0.000000	0.000001	-0.000000	0.000000	0.000000
36.721789	12.510342	23.082166	0.276095	-0.120017	2.239145	0.000000	-0.021385	0.000000	0.000001	-0.000000	0.000000	0.000000
37.019112	12.353768	23.157418	0.250517	-0.133083	2.232787	0.000000	-0.021385	0.000000	0.000001	-0.000000	0.000000	0.000000
37.352445	12.196315	23.251023	0.221842	-0.147732	2.225659	0.000000	-0.021385	0.000000	0.000001	-0.000000	0.000000	0.000000
37.685779	12.057979	23.354395	0.193166	-0.162381	2.218531	0.000000	-0.021385	0.000000	0.000001	-0.000000	0.000000	0.000000
38.020362	11.938350	23.467975	0.164383	-0.177086	2.211376	0.000000	-0.021385	0.000000	0.000001	-0.000000	0.000000	0.000000
38.317684	11.848205	23.577163	0.167860	-0.247970	2.205017	0.000000	-0.026792	0.000000	0.000001	-0.000000	0.000000	0.000000
38.758644	11.851306	23.534726	-0.174920	0.343841	2.207127	0.000000	0.036369	0.000000	0.000001	-0.000000	0.000000	0.000000
39.199604	12.159080	22.975291	-0.525691	0.920007	2.237153	0.000000	0.099945	0.000000	0.000001	-0.000000	0.000000	0.000000
39.640564	12.785588	21.924312	-0.900480	1.454313	2.295437	0.000000	0.164659	0.000000	0.000001	-0.000000	0.000000	0.000000
40.081524	13.759454	20.429607	-1.316410	1.922450	2.382644	0.000000	0.231248	0.000000	0.000001	-0.000000	0.000000	0.000000
40.527484	15.142730	18.536615	-1.796305	2.304394	2.501237	0.000000	0.300876	0.000000	0.000001	-0.000000	0.000000	0.000000
41.076544	16.908241	16.409479	-1.400176	1.592617	2.645912	0.000000	0.225340	0.000000	0.000000	-0.000000	0.000000	0.000000
41.625604	18.181539	14.997452	-0.905146	0.994279	2.747953	0.000000	0.145806	0.000000	0.000000	-0.000000	0.000000	0.000000
42.174664	18.872684	14.199961	-0.346181	0.466761	2.805550	0.000000	0.063686	0.000000	0.000000	-0.000000	0.000000	0.000000
42.723724	18.932857	13.960202	0.237237	-0.027511	2.817681	0.000000	-0.019563	0.000000	0.000000	-0.000000	0.000000	0.000000
43.022297	18.825606	13.961235	0.171443	-0.012425	2.814038	0.000000	-0.012201	0.000000	0.000000	-0.000000	0.000000	0.000000
43.502297	18.673619	13.989668	0.145196	-0.046811	2.808182	0.000000	-0.012201	0.000000	0.000000	-0.000000	0.000000	0.000000
43.982297	18.546829	14.051112	0.118950	-0.081197	2.802325	0.000000	-0.012201	0.000000	0.000000	-0.000000	0.000000	0.000000
44.462297	18.445236	14.145566	0.092703	-0.115583	2.796469	0.000000	-0.012201	0.000000	0.000000	-0.000000	0.000000	0.000000
44.942297	18.368839	14.273032	0.066456	-0.149970	2.790613	0.000000	-0.012201	0.000000	0.000000	-0.000000	0.000000	0.000000
45.423547	18.317766	14.433790	-0.050615	-0.112931	2.784758	0.000000	0.001597	0.000000	0.000000	-0.000000	0.000000	0.000000
45.720870	18.352703	14.507147	-0.114840	-0.095889	2.785233	0.000000	0.008874	0.000000	0.000000	-0.000000	0.000000	0.000000
46.269930	18.169780	14.893114	0.446024	-0.611220	2.767538	0.000000	-0.073234	0.000000	0.000000	-0.000000	0.000000	0.000000
46.818990	17.384696	15.865418	0.975382	-1.170087	2.705052	0.000000	-0.154043	0.000000	0.000000	-0.000000	0.000000	0.000000
47.368050	16.052903	17.493316	1.435845	-1.812296	2.598883	0.000000	-0.232119	0.000000	-0.000000	-0.000000	0.000000	0.000000
47.917110	14.268475	19.892759	1.794887	-2.583592	2.450913	0.000000	-0.306079	0.000000	-0.000000	-0.000000	0.000000	0.000000
48.363070	12.879683	22.026194	1.330308	-2.180211	2.329704	0.000000	-0.237790	0.000000	-0.000000	-0.000000	0.000000	0.000000
48.804030	11.886624	23.734409	0.930273	-1.678902	2.239306	0.000000	-0.172607	0.000000	-0.000000	-0.000000	0.000000	0.000000
49.244990	11.226360	24.965007	0.572740	-1.101204	2.177191	0.000000	-0.109389	0.000000	-0.000000	-0.000000	0.000000	0.000000
49.685950	10.868725	25.661998	0.241374	-0.473402	2.142651	0.000000	-0.047417	0.000000	-0.000000	-0.000000	0.000000	0.000000
50.128160	10.797510	25.793386	-0.052602	0.112637	2.135305	0.000000	0.008778	0.000000	-0.000000	-0.000000	0.000000	0.000000
50.425482	10.836999	25.729878	-0.080214	0.100963	2.137914	0.000000	0.008778	0.000000	-0.000000	-0.000000	0.000000	0.000000
50.758816	10.900794	25.666931	-0.111171	0.087876	2.140840	0.000000	0.008778	0.000000	-0.000000	-0.000000	0.000000	0.000000
51.092149	10.985227	25.612710	-0.142128	0.074789	2.143766	0.000000	0.008778	0.000000	-0.000000	-0.000000	0.000000	0.000000
51.426732	11.090506	25.567577	-0.083227	-0.145764	2.146681	0.000000	-0.008637	0.000000	-0.000000	-0.000000	0.000000	0.000000
51.724055	11.148022	25.657786	-0.082883	-0.220561	2.144113	0.000000	-0.013895	0.000000	-0.000000	-0.000000	0.000000	0.000000
52.165015	11.366633	25.566889	-0.414758	0.425910	2.151574	0.000000	0.047765	0.000000	-0.000000	-0.000000	0.000000	0.000000
52.605975	11.885149	24.912258	-0.765583	1.053001	2.186318	0.000000	0.109969	0.000000	-0.000001	-0.000000	0.000000	0.000000
53.046935	12.727260	23.723676	-1.151385	1.632182	2.248741	0.000000	0.173426	0.000000	-0.000001	-0.000000	0.000000	0.000000
53.487895	13.931440	22.055224	-1.589790	2.137100	2.339555	0.000000	0.238858	0.000000	-0.000001	-0.000000	0.000000	0.000000
53.933855	15.573340	19.957866	-2.105068	2.546116	2.461299	0.000000	0.307409	0.000000	-0.000001	-0.000000	0.000000	0.000000
54.482915	17.687169	17.597920	-1.722048	1.777412	2.609904	0.000000	0.233103	0.000000	-0.000001	-0.000000	0.000000	0.000000
55.031975	19.310707	16.008045	-1.217391	1.135310	2.716514	0.000000	0.154662	0.000000	-0.000001	-0.000000	0.000000	0.000000
55.581035	20.329277	15.074999	-0.626744	0.574073	2.779238	0.000000	0.073478	0.000000	-0.000001	-0.000000	0.000000	0.000000
56.130095	20.670932	14.732322	0.008173	0.053726	2.796963	0.000000	-0.009009	0.000000	-0.000001	-0.000000	0.000000	0.000000
56.428668	20.702625	14.683356	-0.060311	0.071781	2.796455	0.000000	-0.001701	0.000000	-0.000001	-0.000000	0.000000	0.000000
56.762001	20.748218	14.643109	-0.076470	0.048962	2.795888	0.000000	-0.001701	0.000000	-0.000001	-0.000000	0.000000	0.000000
57.095334	20.804585	14.618073	-0.092630	0.026144	2.795321	0.000000	-0.001701	0.000000	-0.000001	-0.000000	0.000000	0.000000
57.429918	20.871997	14.608242	-0.108850	0.003240	2.794751	0.000000	-0.001701	0.000000	-0.000001	-0.000000	0.000000	0.000000
57.727240	20.941010	14.612367	-0.177979	0.021066	2.794246	0.000000	0.005600	0.000000	-0.000001	-0.000000	0.000000	0.000000
58.276300	20.779117	14.869923	0.471089	-0.492921	2.774678	0.000000	-0.076770	0.000000	-0.000001	-0.000000	0.000000	0.000000
58.825360	19.918603	15.707752	1.086882	-1.042018	2.710193	0.000000	-0.157778	0.000000	-0.000001	0.000000	0.000000	0.000000
59.374420	18.420251	17.185529	1.625904	-1.665336	2.601933	0.000000	-0.235987	0.000000	-0.000001	0.000000	0.000000	0.000000
59.923480	16.389897	19.408513	2.050079	-2.407272	2.451820	0.000000	-0.310010	0.000000	-0.000001	0.000000	0.000000	0.000000
60.369440	14.800634	21.384411	1.526232	-2.004689	2.328859	0.000000	-0.241721	0.000000	-0.000001	0.000000	0.000000	0.000000
60.810400	13.657347	22.941171	1.076327	-1.512264	2.236719	0.000000	-0.176582	0.000000	-0.000001	0.000000	0.000000	0.000000
61.251360	12.887738	24.031535	0.675597	-0.951032	2.172833	0.000000	-0.113454	0.000000	-0.000001	-0.000000	0.000000	0.000000
61.692320	12.456646	24.605892	0.305733	-0.346528	2.136473	0.000000	-0.051618	0.000000	-0.000001	-0.000000	0.000000	0.000000
62.134530	12.344425	24.637578	-0.019992	0.213268	2.127230	0.000000	0.004413	0.000000	-0.000001	-0.000000	0.000000	0.000000
62.431853	12.363477	24.514510	-0.044087	0.200651	2.128542	0.000000	0.004413	0.000000	-0.000001	-0.000000	0.000000	0.000000
62.765186	12.401873	24.385457	-0.071100	0.186507	2.130013	0.000000	0.004413	0.000000	-0.000001	-0.000000	0.000000	0.000000
63.098520	12.458277	24.265834	-0.098114	0.172362	2.131484	0.000000	0.004413	0.000000	-0.000001	-0.000000	0.000000	0.000000
63.433103	12.533004	24.155246	-0.125229	0.158164	2.132961	0.000000	0.004413	0.000000	-0.000001	-0.000000	0.000000	0.000000
63.730426	12.614635	24.064946	-0.118389	0.086532	2.134273	0.000000	-0.000821	0.000000	-0.000001	-0.000000	0.000000	0.000000
64.171386	12.879609	23.723587	-0.484794	0.684649	2.147454	0.000000	0.060660	0.000000	-0.000001	-0.000000	0.000000	0.000000
64.612346	13.476231	22.866511	-0.873348	1.251615	2.187871	0.000000	0.122831	0.000000	-0.000001	-0.000000	0.000000	0.000000
65.053306	14.431760	21.532713	-1.301802	1.761633	2.255986	0.000000	0.186401	0.000000	-0.000001	-0.000000	0.000000	0.000000
65.494266	15.789851	19.782881	-1.789732	2.191499	2.352573	0.000000	0.252094	0.000000	-0.000001	-0.000000	0.000000	0.000000
65.940226	17.635722	17.671859	-2.364125	2.522411	2.480307	0.000000	0.321060	0.000000	-0.000001	-0.000000	0.000000	0.000000
66.489286	20.001700	15.310190	-1.919509	1.804273	2.636217	0.000000	0.246020	0.000000	-0.000002	-0.000000	0.000000	0.000000
67.038346	21.801642	13.662348	-1.339309	1.214649	2.749665	0.000000	0.166616	0.000000	-0.000002	-0.000000	0.000000	0.000000
67.587406	22.908409	12.610960	-0.664507	0.711541	2.818639	0.000000	0.084257	0.000000	-0.000002	-0.000000	0.000000	0.000000
68.136466	23.243825	12.081138	0.057232	0.259116	2.841914	0.000000	0.000403	0.000000	-0.000002	-0.000000	0.000000	0.000000
68.435038	23.249751	11.915561	-0.016346	0.263880	2.844252	0.000000	0.007828	0.000000	-0.000002	-0.000000	0.000000	0.000000
68.768372	23.265428	11.749616	-0.030687	0.233957	2.846861	0.000000	0.007828	0.000000	-0.000002	-0.000000	0.000000	0.000000
69.101705	23.290666	11.603618	-0.045028	0.204035	2.849470	0.000000	0.007828	0.000000	-0.000002	-0.000000	0.000000	0.000000
69.436288	23.325614	11.477134	-0.059422	0.174000	2.852090	0.000000	0.007828	0.000000	-0.000002	-0.000000	0.000000	0.000000
69.733611	23.364752	11.381602	-0.133263	0.177048	2.854417	0.000000	0.015286	0.000000	-0.000002	-0.000000	0.000000	0.000000
70.282671	23.109824	11.415030	0.594813	-0.238292	2.839619	0.000000	-0.069110	0.000000	-0.000002	0.000000	0.000000	0.000000
