#ParticleID	Turn	x[m]	xp	y[m]	yp	z[m]	dE[GeV]# s	beta_x	beta_y	alpha_x	alpha_y	D_x	D_y	D_px	D_py	orbit_x	orbit_px	orbit_y	orbit_py
0.300000	11.834881	24.938079	-0.013779	-0.027789	2.618357	0.000000	-0.000081	0.000000	-0.000001	0.000000	0.000000	0.000000
0.601250	11.850853	24.958464	-0.039238	-0.039879	2.618332	0.000000	-0.000081	0.000000	-0.000001	0.000000	0.000000	0.000000
0.898573	11.881656	24.985725	-0.035228	-0.113083	2.618308	0.000000	-0.006502	0.000000	-0.000001	0.000000	0.000000	0.000000
1.339533	12.065118	24.808341	-0.382401	0.513819	2.631735	0.000000	0.067460	0.000000	-0.000001	0.000000	0.000000	0.000000
1.780493	12.561277	24.086317	-0.747045	1.117343	2.677915	0.000000	0.142190	0.000000	-0.000001	0.000000	0.000000	0.000000
2.221453	13.392800	22.852503	-1.145820	1.670028	2.757373	0.000000	0.218540	0.000000	-0.000001	0.000000	0.000000	0.000000
2.662413	14.597678	21.163036	-1.596943	2.146729	2.871015	0.000000	0.297378	0.000000	-0.000001	0.000000	0.000000	0.000000
3.108373	16.251779	19.070008	-2.125329	2.526884	3.021995	0.000000	0.380093	0.000000	-0.000001	0.000000	0.000000	0.000000
3.657433	18.372832	16.719362	-1.714865	1.779605	3.205417	0.000000	0.287056	0.000000	-0.000000	0.000000	0.000000	0.000000
4.206493	19.973558	15.115315	-1.183272	1.159083	3.336281	0.000000	0.188927	0.000000	-0.000000	0.000000	0.000000	0.000000
4.755553	20.940891	14.143612	-0.568098	0.621120	3.412266	0.000000	0.087447	0.000000	-0.000000	0.000000	0.000000	0.000000
5.304613	21.206503	13.735042	0.087204	0.127398	3.432024	0.000000	-0.015584	0.000000	-0.000000	0.000000	0.000000	0.000000
5.603185	21.191725	13.644200	0.017701	0.140968	3.430048	0.000000	-0.006617	0.000000	-0.000000	0.000000	0.000000	0.000000
5.936519	21.185169	13.558527	0.001967	0.116052	3.427842	0.000000	-0.006617	0.000000	-0.000000	0.000000	0.000000	0.000000
6.269852	21.189103	13.489464	-0.013767	0.091136	3.425637	0.000000	-0.006617	0.000000	-0.000000	0.000000	0.000000	0.000000
6.604435	21.203600	13.436846	-0.029561	0.066127	3.423423	0.000000	-0.006617	0.000000	-0.000000	0.000000	0.000000	0.000000
6.901758	21.225351	13.404132	-0.099053	0.078925	3.421455	0.000000	0.002323	0.000000	-0.000000	0.000000	0.000000	0.000000
7.450818	20.972283	13.577888	0.557236	-0.397254	3.394532	0.000000	-0.100250	0.000000	-0.000000	0.000000	0.000000	0.000000
7.999878	20.015980	14.286921	1.174164	-0.901728	3.311696	0.000000	-0.201044	0.000000	-0.000000	0.000000	0.000000	0.000000
8.548938	18.423989	15.581735	1.708156	-1.470430	3.174416	0.000000	-0.298273	0.000000	-0.000000	0.000000	0.000000	0.000000
9.097998	16.308762	17.554557	2.121492	-2.143868	2.985128	0.000000	-0.390211	0.000000	0.000000	0.000000	0.000000	0.000000
9.543958	14.658334	19.312524	1.592508	-1.781457	2.829414	0.000000	-0.308513	0.000000	0.000000	0.000000	0.000000	0.000000
9.984918	13.457706	20.693874	1.140582	-1.339219	2.710616	0.000000	-0.230814	0.000000	0.000000	0.000000	0.000000	0.000000
10.425878	12.631242	21.656744	0.740766	-0.836048	2.625469	0.000000	-0.155743	0.000000	0.000000	0.000000	0.000000	0.000000
10.866838	12.141184	22.157324	0.374793	-0.294837	2.573003	0.000000	-0.082446	0.000000	0.000000	0.000000	0.000000	0.000000
11.309048	11.965005	22.172324	0.055181	0.205356	2.552601	0.000000	-0.016347	0.000000	0.000000	0.000000	0.000000	0.000000
11.606371	11.939603	22.054366	0.030256	0.191381	2.547740	0.000000	-0.016347	0.000000	0.000000	0.000000	0.000000	0.000000
12.086371	11.929872	21.881470	-0.009983	0.168819	2.539893	0.000000	-0.016347	0.000000	0.000000	0.000000	0.000000	0.000000
12.566371	11.958771	21.730233	-0.050222	0.146258	2.532046	0.000000	-0.016347	0.000000	0.000000	0.000000	0.000000	0.000000
13.046371	12.026299	21.600655	-0.090462	0.123696	2.524199	0.000000	-0.016347	0.000000	0.000000	0.000000	0.000000	0.000000
13.526371	12.132457	21.492736	-0.130701	0.101134	2.516353	0.000000	-0.016347	0.000000	0.000001	0.000000	0.000000	0.000000
14.007621	12.277672	21.406281	-0.171045	0.078514	2.508485	0.000000	-0.016347	0.000000	0.000001	0.000000	0.000000	0.000000
14.304943	12.386793	21.363748	-0.165594	0.012149	2.503625	0.000000	-0.022487	0.000000	0.000001	0.000000	0.000000	0.000000
14.745903	12.691612	21.119174	-0.528291	0.540378	2.509337	0.000000	0.048419	0.000000	0.000001	0.000000	0.000000	0.000000
15.186863	13.325695	20.417849	-0.915124	1.044021	2.546407	0.000000	0.119876	0.000000	0.000001	0.000000	0.000000	0.000000
15.627823	14.318011	19.291681	-1.343767	1.500161	2.615258	0.000000	0.192699	0.000000	0.000001	0.000000	0.000000	0.000000
16.068783	15.713896	17.791910	-1.833802	1.888046	2.716674	0.000000	0.267716	0.000000	0.000001	0.000000	0.000000	0.000000
16.514743	17.600780	15.965275	-2.412377	2.190776	2.853503	0.000000	0.346245	0.000000	0.000001	0.000000	0.000000	0.000000
17.063803	20.023882	13.925519	-1.974682	1.546150	3.019890	0.000000	0.258943	0.000000	0.000001	0.000000	0.000000	0.000000
17.612863	21.886441	12.529372	-1.397505	1.011654	3.137009	0.000000	0.167048	0.000000	0.000001	0.000000	0.000000	0.000000
18.161923	23.056895	11.677391	-0.721616	0.549215	3.202784	0.000000	0.072190	0.000000	0.000001	0.000000	0.000000	0.000000
18.710983	23.452567	11.308890	0.005245	0.125895	3.216047	0.000000	-0.023949	0.000000	0.000001	0.000000	0.000000	0.000000
19.009556	23.489839	11.224141	-0.068802	0.128404	3.211405	0.000000	-0.015546	0.000000	0.000001	0.000000	0.000000	0.000000
19.342889	23.540460	11.148601	-0.083060	0.098216	3.206223	0.000000	-0.015546	0.000000	0.000001	0.000000	0.000000	0.000000
19.676223	23.600586	11.093186	-0.097318	0.068029	3.201041	0.000000	-0.015546	0.000000	0.000001	0.000000	0.000000	0.000000
20.010806	23.670789	11.057665	-0.228907	0.092514	3.195859	0.000000	0.000288	0.000000	0.000001	0.000000	0.000000	0.000000
20.308129	23.810838	11.010715	-0.304339	0.094164	3.195945	0.000000	0.008638	0.000000	0.000001	0.000000	0.000000	0.000000
20.857189	23.734374	11.129940	0.442778	-0.312590	3.174478	0.000000	-0.086716	0.000000	0.000001	0.000000	0.000000	0.000000
21.406249	22.849874	11.705361	1.158619	-0.741608	3.101003	0.000000	-0.180532	0.000000	0.000001	-0.000000	0.000000	0.000000
21.955309	21.219817	12.777965	1.792621	-1.223451	2.976821	0.000000	-0.271146	0.000000	0.000001	-0.000000	0.000000	0.000000
22.504369	18.959340	14.424151	2.300002	-1.792436	2.804135	0.000000	-0.356951	0.000000	0.000001	-0.000000	0.000000	0.000000
22.950329	17.178088	15.901922	1.708297	-1.507269	2.662237	0.000000	-0.279768	0.000000	0.000001	-0.000000	0.000000	0.000000
23.391289	15.900783	17.080086	1.199338	-1.154381	2.555187	0.000000	-0.206227	0.000000	0.000001	-0.000000	0.000000	0.000000
23.832249	15.046571	17.922594	0.745173	-0.748969	2.480017	0.000000	-0.135035	0.000000	0.000001	0.000000	0.000000	0.000000
24.273209	14.576428	18.391110	0.325054	-0.309480	2.435871	0.000000	-0.065380	0.000000	0.000001	0.000000	0.000000	0.000000
24.715418	14.468984	18.464072	-0.044821	0.098743	2.422245	0.000000	-0.002410	0.000000	0.000001	0.000000	0.000000	0.000000
25.012741	14.501758	18.410189	-0.065411	0.082483	2.421528	0.000000	-0.002410	0.000000	0.000001	0.000000	0.000000	0.000000
25.346075	14.553060	18.361277	-0.088495	0.064254	2.420725	0.000000	-0.002410	0.000000	0.000001	0.000000	0.000000	0.000000
25.679408	14.619751	18.324517	-0.111579	0.046025	2.419921	0.000000	-0.002410	0.000000	0.000001	0.000000	0.000000	0.000000
26.013991	14.701871	18.300212	-0.015478	-0.120733	2.419090	0.000000	-0.022035	0.000000	0.000001	0.000000	0.000000	0.000000
26.311314	14.717089	18.376906	0.000383	-0.182282	2.412539	0.000000	-0.027951	0.000000	0.000001	0.000000	0.000000	0.000000
26.752274	14.898106	18.338300	-0.412448	0.269499	2.415318	0.000000	0.040568	0.000000	0.000002	0.000000	0.000000	0.000000
27.193234	15.450109	17.905164	-0.844122	0.709018	2.448385	0.000000	0.109550	0.000000	0.000002	0.000000	0.000000	0.000000
27.634194	16.398318	17.097207	-1.314362	1.116278	2.512115	0.000000	0.179780	0.000000	0.000002	0.000000	0.000000	0.000000
28.075154	17.786052	15.951190	-1.844652	1.472747	2.607236	0.000000	0.252057	0.000000	0.000002	0.000000	0.000000	0.000000
28.521114	19.700833	14.501996	-2.464171	1.763122	2.736433	0.000000	0.327648	0.000000	0.000002	0.000000	0.000000	0.000000
29.070174	22.134520	12.887112	-1.942052	1.195417	2.893678	0.000000	0.244287	0.000000	0.000002	0.000000	0.000000	0.000000
29.619234	23.915677	11.845503	-1.282756	0.712858	3.003894	0.000000	0.156594	0.000000	0.000002	0.000000	0.000000	0.000000
30.168294	24.918491	11.302976	-0.532852	0.281075	3.065126	0.000000	0.066122	0.000000	0.000002	0.000000	0.000000	0.000000
30.717354	25.072128	11.220889	0.254690	-0.130688	3.076289	0.000000	-0.025522	0.000000	0.000002	-0.000000	0.000000	0.000000
31.015927	24.962842	11.289448	0.176847	-0.128252	3.071068	0.000000	-0.017484	0.000000	0.000002	0.000000	0.000000	0.000000
31.349260	24.849534	11.384953	0.163076	-0.158264	3.065240	0.000000	-0.017484	0.000000	0.000002	0.000000	0.000000	0.000000
31.682593	24.745407	11.500466	0.149306	-0.188276	3.059412	0.000000	-0.017484	0.000000	0.000002	0.000000	0.000000	0.000000
32.017177	24.650121	11.636533	0.135483	-0.218400	3.053562	0.000000	-0.017484	0.000000	0.000002	0.000000	0.000000	0.000000
32.314499	24.573209	11.774363	0.058996	-0.214406	3.048364	0.000000	-0.009520	0.000000	0.000002	0.000000	0.000000	0.000000
32.863559	24.087495	12.249197	0.820395	-0.655511	3.018266	0.000000	-0.099952	0.000000	0.000002	-0.000000	0.000000	0.000000
33.412619	22.792701	13.231060	1.523846	-1.143307	2.938930	0.000000	-0.188612	0.000000	0.000002	-0.000000	0.000000	0.000000
33.961679	20.780285	14.789888	2.119660	-1.712538	2.811762	0.000000	-0.273926	0.000000	0.000002	-0.000000	0.000000	0.000000
34.510739	18.192393	17.036714	2.565752	-2.403749	2.639019	0.000000	-0.354382	0.000000	0.000002	-0.000000	0.000000	0.000000
34.956699	16.180377	19.046326	1.962064	-2.083694	2.497314	0.000000	-0.281480	0.000000	0.000002	-0.000000	0.000000	0.000000
35.397659	14.680155	20.707693	1.453017	-1.669583	2.388569	0.000000	-0.212212	0.000000	0.000002	-0.000000	0.000000	0.000000
35.838619	13.598012	21.968827	1.010354	-1.179508	2.309806	0.000000	-0.145361	0.000000	0.000002	-0.000000	0.000000	0.000000
36.279579	12.884509	22.772348	0.613851	-0.635765	2.260129	0.000000	-0.080166	0.000000	0.000002	-0.000000	0.000000	0.000000
36.721789	12.506358	23.081994	0.275957	-0.119753	2.238945	0.000000	-0.021374	0.000000	0.000002	-0.000000	0.000000	0.000000
37.019112	12.349869	23.157090	0.250373	-0.132819	2.232590	0.000000	-0.021374	0.000000	0.000002	-0.000000	0.000000	0.000000
37.352445	12.192515	23.250519	0.221690	-0.147468	2.225465	0.000000	-0.021374	0.000000	0.000002	-0.000000	0.000000	0.000000
37.685779	12.054282	23.353714	0.193007	-0.162116	2.218341	0.000000	-0.021374	0.000000	0.000002	-0.000000	0.000000	0.000000
38.020362	11.934761	23.467116	0.164217	-0.176819	2.211189	0.000000	-0.021374	0.000000	0.000001	-0.000000	0.000000	0.000000
38.317684	11.844717	23.576146	0.167679	-0.247700	2.204834	0.000000	-0.026781	0.000000	0.000001	-0.000000	0.000000	0.000000
38.758644	11.847944	23.533484	-0.175024	0.344080	2.206947	0.000000	0.036375	0.000000	0.000001	-0.000000	0.000000	0.000000
39.199604	12.155777	22.973855	-0.525723	0.920204	2.236975	0.000000	0.099946	0.000000	0.000001	0.000000	0.000000	0.000000
39.640564	12.782281	21.922723	-0.900440	1.454460	2.295259	0.000000	0.164656	0.000000	0.000001	0.000000	0.000000	0.000000
40.081524	13.756079	20.427913	-1.316296	1.922540	2.382463	0.000000	0.231240	0.000000	0.000002	0.000000	0.000000	0.000000
40.527484	15.139220	18.534869	-1.796113	2.304422	2.501052	0.000000	0.300864	0.000000	0.000002	0.000000	0.000000	0.000000
41.076544	16.904590	16.407681	-1.400114	1.592682	2.645722	0.000000	0.225333	0.000000	0.000002	0.000000	0.000000	0.000000
41.625604	18.177892	14.995562	-0.905217	0.994384	2.747761	0.000000	0.145806	0.000000	0.000002	0.000000	0.000000	0.000000
42.174664	18.869187	14.197930	-0.346381	0.466914	2.805360	0.000000	0.063693	0.000000	0.000002	-0.000000	0.000000	0.000000
42.723724	18.929644	13.957970	0.236922	-0.027298	2.817496	0.000000	-0.019551	0.000000	0.000002	-0.000000	0.000000	0.000000
43.022297	18.822576	13.958881	0.171136	-0.012221	2.813857	0.000000	-0.012189	0.000000	0.000002	-0.000000	0.000000	0.000000
43.502297	18.670884	13.987122	0.144888	-0.046613	2.808006	0.000000	-0.012189	0.000000	0.000002	-0.000000	0.000000	0.000000
43.982297	18.544391	14.048379	0.118640	-0.081005	2.802155	0.000000	-0.012189	0.000000	0.000002	-0.000000	0.000000	0.000000
44.462297	18.443095	14.142652	0.092392	-0.115397	2.796305	0.000000	-0.012189	0.000000	0.000002	-0.000000	0.000000	0.000000
44.942297	18.366998	14.269941	0.066144	-0.149789	2.790454	0.000000	-0.012189	0.000000	0.000002	-0.000000	0.000000	0.000000
45.423547	18.316227	14.430528	-0.050922	-0.112772	2.784605	0.000000	0.001608	0.000000	0.000001	-0.000000	0.000000	0.000000
45.720870	18.351346	14.503791	-0.115145	-0.095743	2.785083	0.000000	0.008884	0.000000	0.000001	-0.000000	0.000000	0.000000
46.269930	18.168780	14.889541	0.445682	-0.610967	2.767395	0.000000	-0.073219	0.000000	0.000001	-0.000000	0.000000	0.000000
46.818990	17.384080	15.861502	0.975028	-1.169709	2.704919	0.000000	-0.154023	0.000000	0.000001	-0.000000	0.000000	0.000000
47.368050	16.052672	17.488905	1.435503	-1.811767	2.598761	0.000000	-0.232095	0.000000	0.000001	-0.000000	0.000000	0.000000
47.917110	14.268601	19.887667	1.794581	-2.582873	2.450806	0.000000	-0.306051	0.000000	0.000001	-0.000000	0.000000	0.000000
48.363070	12.880069	22.020508	1.330028	-2.179602	2.329609	0.000000	-0.237765	0.000000	0.000001	-0.000000	0.000000	0.000000
48.804030	11.887251	23.728244	0.930005	-1.678430	2.239221	0.000000	-0.172584	0.000000	0.000001	-0.000000	0.000000	0.000000
49.244990	11.227223	24.958494	0.572472	-1.100890	2.177116	0.000000	-0.109369	0.000000	0.000001	-0.000000	0.000000	0.000000
49.685950	10.869828	25.655283	0.241094	-0.473260	2.142585	0.000000	-0.047399	0.000000	0.000001	-0.000000	0.000000	0.000000
50.128160	10.798872	25.786626	-0.052904	0.112616	2.135246	0.000000	0.008795	0.000000	0.000001	-0.000000	0.000000	0.000000
50.425482	10.838541	25.723131	-0.080514	0.100940	2.137861	0.000000	0.008795	0.000000	0.000001	-0.000000	0.000000	0.000000
50.758816	10.902535	25.660201	-0.111468	0.087849	2.140793	0.000000	0.008795	0.000000	0.000001	-0.000000	0.000000	0.000000
51.092149	10.987165	25.605998	-0.142422	0.074759	2.143724	0.000000	0.008795	0.000000	0.000001	-0.000000	0.000000	0.000000
51.426732	11.092639	25.560887	-0.083501	-0.145743	2.146645	0.000000	-0.008620	0.000000	0.000001	-0.000000	0.000000	0.000000
51.724055	11.150317	25.651084	-0.083148	-0.220526	2.144082	0.000000	-0.013878	0.000000	0.000001	-0.000000	0.000000	0.000000
52.165015	11.369187	25.560235	-0.415082	0.425767	2.151550	0.000000	0.047782	0.000000	0.000001	-0.000000	0.000000	0.000000
52.605975	11.888020	24.905805	-0.765981	1.052688	2.186302	0.000000	0.109986	0.000000	0.000001	-0.000000	0.000000	0.000000
53.046935	12.730521	23.717570	-1.151875	1.631712	2.248733	0.000000	0.173442	0.000000	0.000001	-0.000000	0.000000	0.000000
53.487895	13.935182	22.049594	-1.590394	2.136495	2.339554	0.000000	0.238874	0.000000	0.000000	-0.000000	0.000000	0.000000
53.933855	15.577683	19.952827	-2.105816	2.545402	2.461304	0.000000	0.307425	0.000000	0.000000	-0.000000	0.000000	0.000000
54.482915	17.692278	17.593558	-1.722688	1.776886	2.609919	0.000000	0.233119	0.000000	0.000000	-0.000000	0.000000	0.000000
55.031975	19.316439	16.004175	-1.217877	1.134934	2.716537	0.000000	0.154677	0.000000	0.000000	-0.000000	0.000000	0.000000
55.581035	20.335443	15.071472	-0.627042	0.573820	2.779269	0.000000	0.073492	0.000000	0.000000	-0.000000	0.000000	0.000000
56.130095	20.677312	14.729014	0.008084	0.053579	2.797001	0.000000	-0.008996	0.000000	0.000000	-0.000000	0.000000	0.000000
56.428668	20.709066	14.680142	-0.060412	0.071620	2.796497	0.000000	-0.001688	0.000000	0.000000	-0.000000	0.000000	0.000000
56.762001	20.754726	14.640003	-0.076567	0.048797	2.795935	0.000000	-0.001688	0.000000	0.000000	-0.000000	0.000000	0.000000
57.095334	20.811155	14.615079	-0.092722	0.025974	2.795372	0.000000	-0.001688	0.000000	0.000000	-0.000000	0.000000	0.000000
57.429918	20.878627	14.605363	-0.108937	0.003066	2.794807	0.000000	-0.001688	0.000000	0.000000	-0.000000	0.000000	0.000000
57.727240	20.947690	14.609592	-0.178079	0.020881	2.794305	0.000000	0.005613	0.000000	0.000000	-0.000000	0.000000	0.000000
58.276300	20.785782	14.867309	0.471215	-0.493030	2.774745	0.000000	-0.076759	0.000000	0.000000	-0.000000	0.000000	0.000000
58.825360	19.925011	15.705218	1.087224	-1.042058	2.710265	0.000000	-0.157769	0.000000	0.000000	-0.000000	0.000000	0.000000
59.374420	18.426176	17.183002	1.626437	-1.665309	2.602010	0.000000	-0.235980	0.000000	-0.000000	-0.000000	0.000000	0.000000
59.923480	16.395148	19.405920	2.050766	-2.407177	2.451899	0.000000	-0.310006	0.000000	-0.000000	-0.000000	0.000000	0.000000
60.369440	14.805342	21.381768	1.526766	-2.004673	2.328941	0.000000	-0.241715	0.000000	-0.000000	-0.000000	0.000000	0.000000
60.810400	13.661641	22.938548	1.076734	-1.512327	2.236805	0.000000	-0.176573	0.000000	-0.000000	-0.000000	0.000000	0.000000
61.251360	12.891723	24.029003	0.675895	-0.951172	2.172923	0.000000	-0.113443	0.000000	-0.000000	-0.000000	0.000000	0.000000
61.692320	12.460411	24.603516	0.305936	-0.346739	2.136567	0.000000	-0.051605	0.000000	-0.000000	-0.000000	0.000000	0.000000
62.134530	12.348050	24.635415	-0.019866	0.213002	2.127330	0.000000	0.004429	0.000000	-0.000000	-0.000000	0.000000	0.000000
62.431853	12.367025	24.512506	-0.043954	0.200386	2.128647	0.000000	0.004429	0.000000	-0.000000	-0.000000	0.000000	0.000000
62.765186	12.405329	24.383630	-0.070960	0.186241	2.130123	0.000000	0.004429	0.000000	-0.000000	-0.000000	0.000000	0.000000
63.098520	12.461638	24.264184	-0.097965	0.172097	2.131600	0.000000	0.004429	0.000000	-0.000000	-0.000000	0.000000	0.000000
63.433103	12.536262	24.153773	-0.125072	0.157899	2.133081	0.000000	0.004429	0.000000	-0.000000	-0.000000	0.000000	0.000000
63.730426	12.617797	24.063630	-0.118217	0.086271	2.134398	0.000000	-0.000806	0.000000	-0.000001	-0.000000	0.000000	0.000000
64.171386	12.882650	23.722514	-0.484690	0.684360	2.147586	0.000000	0.060678	0.000000	-0.000001	-0.000000	0.000000	0.000000
64.612346	13.479209	22.865700	-0.873307	1.251311	2.188013	0.000000	0.122853	0.000000	-0.000001	-0.000000	0.000000	0.000000
65.053306	14.434730	21.532172	-1.301823	1.761328	2.256138	0.000000	0.186427	0.000000	-0.000001	-0.000000	0.000000	0.000000
65.494266	15.792866	19.782605	-1.789815	2.191207	2.352738	0.000000	0.252124	0.000000	-0.000001	-0.000000	0.000000	0.000000
65.940226	17.638841	17.671832	-2.364274	2.522145	2.480485	0.000000	0.321095	0.000000	-0.000001	-0.000000	0.000000	0.000000
66.489286	20.004918	15.310435	-1.919540	1.804040	2.636412	0.000000	0.246048	0.000000	-0.000001	-0.000000	0.000000	0.000000
67.038346	21.804826	13.662838	-1.339219	1.214433	2.749874	0.000000	0.166638	0.000000	-0.000001	-0.000000	0.000000	0.000000
67.587406	22.911430	12.611685	-0.664302	0.711327	2.818858	0.000000	0.084271	0.000000	-0.000001	-0.000000	0.000000	0.000000
68.136466	23.246563	12.082105	0.057538	0.258887	2.842140	0.000000	0.000410	0.000000	-0.000001	-0.000000	0.000000	0.000000
68.435038	23.252310	11.916662	-0.016045	0.263659	2.844479	0.000000	0.007836	0.000000	-0.000001	-0.000000	0.000000	0.000000
68.768372	23.267786	11.750861	-0.030384	0.233742	2.847091	0.000000	0.007836	0.000000	-0.000001	-0.000000	0.000000	0.000000
69.101705	23.292822	11.605005	-0.044724	0.203826	2.849703	0.000000	0.007836	0.000000	-0.000001	-0.000000	0.000000	0.000000
69.436288	23.327565	11.478659	-0.059117	0.173797	2.852325	0.000000	0.007836	0.000000	-0.000001	-0.000000	0.000000	0.000000
69.733611	23.366522	11.383245	-0.132960	0.176855	2.854655	0.000000	0.015295	0.000000	-0.000001	-0.000000	0.000000	0.000000
70.282671	23.111232	11.416912	0.595166	-0.238535	2.839860	0.000000	-0.069109	0.000000	-0.000001	-0.000000	0.000000	0.000000
