#ParticleID	Turn	x[m]	xp	y[m]	yp	z[m]	dE[GeV]# s	beta_x	beta_y	alpha_x	alpha_y	D_x	D_y	D_px	D_py	orbit_x	orbit_px	orbit_y	orbit_py
0.300000	11.830510	24.952779	-0.013173	-0.027748	2.618260	0.000000	-0.000045	0.000000	-0.000000	0.000000	0.000000	0.000000
0.601250	11.846118	24.973137	-0.038641	-0.039830	2.618246	0.000000	-0.000045	0.000000	-0.000000	0.000000	0.000000	0.000000
0.898573	11.876570	25.000367	-0.034652	-0.113063	2.618233	0.000000	-0.006465	0.000000	-0.000000	0.000000	0.000000	0.000000
1.339533	12.059468	24.822795	-0.381695	0.514226	2.631676	0.000000	0.067495	0.000000	0.000000	0.000000	0.000000	0.000000
1.780493	12.554934	24.100248	-0.746176	1.118117	2.677870	0.000000	0.142224	0.000000	0.000000	0.000000	0.000000	0.000000
2.221453	13.385604	22.865601	-1.144747	1.671135	2.757343	0.000000	0.218572	0.000000	0.000000	0.000000	0.000000	0.000000
2.662413	14.589429	21.175030	-1.595619	2.148118	2.870998	0.000000	0.297410	0.000000	0.000001	0.000000	0.000000	0.000000
3.108373	16.242212	19.080659	-2.123689	2.528493	3.021992	0.000000	0.380125	0.000000	0.000001	0.000000	0.000000	0.000000
3.657433	18.361586	16.728479	-1.713465	1.780807	3.205432	0.000000	0.287088	0.000000	0.000001	0.000000	0.000000	0.000000
4.206493	19.960953	15.123295	-1.182210	1.159964	3.336313	0.000000	0.188958	0.000000	0.000001	0.000000	0.000000	0.000000
4.755553	20.927341	14.150772	-0.567449	0.621742	3.412315	0.000000	0.087476	0.000000	0.000001	0.000000	0.000000	0.000000
5.304613	21.192490	13.741640	0.087393	0.127806	3.432088	0.000000	-0.015557	0.000000	0.000001	0.000000	0.000000	0.000000
5.603185	21.177580	13.650542	0.017918	0.141400	3.430120	0.000000	-0.006589	0.000000	0.000001	0.000000	0.000000	0.000000
5.936519	21.170882	13.564578	0.002173	0.116493	3.427924	0.000000	-0.006589	0.000000	0.000001	0.000000	0.000000	0.000000
6.269852	21.174682	13.495219	-0.013571	0.091586	3.425727	0.000000	-0.006589	0.000000	0.000001	0.000000	0.000000	0.000000
6.604435	21.189051	13.442297	-0.029375	0.066585	3.423522	0.000000	-0.006589	0.000000	0.000002	0.000000	0.000000	0.000000
6.901758	21.210695	13.409309	-0.098838	0.079404	3.421563	0.000000	0.002351	0.000000	0.000002	0.000000	0.000000	0.000000
7.450818	20.957662	13.582617	0.556958	-0.396914	3.394654	0.000000	-0.100226	0.000000	0.000002	0.000000	0.000000	0.000000
7.999878	20.001927	14.291343	1.173413	-0.901503	3.311830	0.000000	-0.201024	0.000000	0.000002	0.000000	0.000000	0.000000
8.548938	18.410998	15.585965	1.706984	-1.470304	3.174560	0.000000	-0.298257	0.000000	0.000002	0.000000	0.000000	0.000000
9.097998	16.297251	17.558697	2.119983	-2.143831	2.985279	0.000000	-0.390200	0.000000	0.000002	-0.000000	0.000000	0.000000
9.543958	14.648015	19.316568	1.591335	-1.781277	2.829571	0.000000	-0.308499	0.000000	0.000002	0.000000	0.000000	0.000000
9.984918	13.448295	20.697699	1.139688	-1.338905	2.710780	0.000000	-0.230795	0.000000	0.000002	0.000000	0.000000	0.000000
10.425878	12.622512	21.660237	0.740110	-0.835613	2.625642	0.000000	-0.155720	0.000000	0.000002	0.000000	0.000000	0.000000
10.866838	12.132939	22.160388	0.374346	-0.294302	2.573188	0.000000	-0.082418	0.000000	0.000002	0.000000	0.000000	0.000000
11.309048	11.957070	22.174880	0.054902	0.205961	2.552798	0.000000	-0.016315	0.000000	0.000002	0.000000	0.000000	0.000000
11.606371	11.931839	22.056562	0.029961	0.191984	2.547947	0.000000	-0.016315	0.000000	0.000002	0.000000	0.000000	0.000000
12.086371	11.922403	21.883089	-0.010304	0.169419	2.540116	0.000000	-0.016315	0.000000	0.000002	0.000000	0.000000	0.000000
12.566371	11.951622	21.731277	-0.050568	0.146855	2.532284	0.000000	-0.016315	0.000000	0.000002	0.000000	0.000000	0.000000
13.046371	12.019494	21.601127	-0.090833	0.124291	2.524453	0.000000	-0.016315	0.000000	0.000002	0.000000	0.000000	0.000000
13.526371	12.126021	21.492639	-0.131097	0.101726	2.516621	0.000000	-0.016315	0.000000	0.000003	0.000000	0.000000	0.000000
14.007621	12.271630	21.405614	-0.171467	0.079103	2.508770	0.000000	-0.016315	0.000000	0.000003	0.000000	0.000000	0.000000
14.304943	12.381007	21.362732	-0.166047	0.012740	2.503919	0.000000	-0.022455	0.000000	0.000003	0.000000	0.000000	0.000000
14.745903	12.686172	21.117653	-0.528626	0.540929	2.509646	0.000000	0.048458	0.000000	0.000003	0.000000	0.000000	0.000000
15.186863	13.320505	20.415870	-0.915357	1.044505	2.546735	0.000000	0.119924	0.000000	0.000003	0.000000	0.000000	0.000000
15.627823	14.312986	19.289312	-1.343909	1.500558	2.615609	0.000000	0.192755	0.000000	0.000003	0.000000	0.000000	0.000000
16.068783	15.708959	17.789237	-1.833859	1.888336	2.717052	0.000000	0.267782	0.000000	0.000003	0.000001	0.000000	0.000000
16.514743	17.595856	15.962396	-2.412352	2.190946	2.853912	0.000000	0.346321	0.000000	0.000004	0.000001	0.000000	0.000000
17.063803	20.019048	13.922433	-1.974870	1.546358	3.020337	0.000000	0.259005	0.000000	0.000004	0.000001	0.000000	0.000000
17.612863	21.881925	12.526030	-1.397893	1.011914	3.137486	0.000000	0.167095	0.000000	0.000004	0.000000	0.000000	0.000000
18.161923	23.052902	11.673726	-0.722176	0.549546	3.203282	0.000000	0.072221	0.000000	0.000004	0.000000	0.000000	0.000000
18.710983	23.449267	11.304812	0.004552	0.126321	3.216558	0.000000	-0.023934	0.000000	0.000004	0.000000	0.000000	0.000000
19.009556	23.486948	11.219819	-0.069488	0.128805	3.211921	0.000000	-0.015530	0.000000	0.000005	0.000000	0.000000	0.000000
19.342889	23.538027	11.144017	-0.083749	0.098603	3.206744	0.000000	-0.015530	0.000000	0.000005	0.000000	0.000000	0.000000
19.676223	23.598613	11.088349	-0.098010	0.068401	3.201568	0.000000	-0.015530	0.000000	0.000005	0.000000	0.000000	0.000000
20.010806	23.669280	11.052584	-0.229595	0.092846	3.196391	0.000000	0.000307	0.000000	0.000005	0.000000	0.000000	0.000000
20.308129	23.809739	11.005440	-0.305026	0.094468	3.196482	0.000000	0.008658	0.000000	0.000005	0.000000	0.000000	0.000000
20.857189	23.734046	11.124249	0.442069	-0.312131	3.175022	0.000000	-0.086714	0.000000	0.000005	-0.000000	0.000000	0.000000
21.406249	22.850315	11.699066	1.157939	-0.740961	3.101543	0.000000	-0.180547	0.000000	0.000005	-0.000000	0.000000	0.000000
21.955309	21.220967	12.770836	1.792017	-1.222569	2.977348	0.000000	-0.271178	0.000000	0.000005	-0.000000	0.000000	0.000000
22.504369	18.961091	14.415897	2.299517	-1.791258	2.804640	0.000000	-0.357000	0.000000	0.000004	-0.000000	0.000000	0.000000
22.950329	17.180265	15.892695	1.707822	-1.506275	2.662723	0.000000	-0.279805	0.000000	0.000004	-0.000000	0.000000	0.000000
23.391289	15.903383	17.070082	1.198850	-1.153617	2.555659	0.000000	-0.206251	0.000000	0.000004	-0.000000	0.000000	0.000000
23.832249	15.049615	17.912029	0.744651	-0.748469	2.480482	0.000000	-0.135046	0.000000	0.000004	-0.000000	0.000000	0.000000
24.273209	14.579957	18.380230	0.324472	-0.309267	2.436334	0.000000	-0.065380	0.000000	0.000004	-0.000000	0.000000	0.000000
24.715418	14.473063	18.453135	-0.045479	0.098687	2.422710	0.000000	-0.002399	0.000000	0.000004	0.000000	0.000000	0.000000
25.012741	14.506228	18.399288	-0.066064	0.082418	2.421996	0.000000	-0.002399	0.000000	0.000004	0.000000	0.000000	0.000000
25.346075	14.557963	18.350423	-0.089143	0.064178	2.421197	0.000000	-0.002399	0.000000	0.000004	0.000000	0.000000	0.000000
25.679408	14.625085	18.313718	-0.112222	0.045938	2.420397	0.000000	-0.002399	0.000000	0.000004	0.000000	0.000000	0.000000
26.013991	14.707633	18.289474	-0.016070	-0.120743	2.419570	0.000000	-0.022028	0.000000	0.000004	0.000000	0.000000	0.000000
26.311314	14.723201	18.366177	-0.000186	-0.182274	2.413020	0.000000	-0.027945	0.000000	0.000004	0.000000	0.000000	0.000000
26.752274	14.904788	18.327692	-0.413177	0.269217	2.415805	0.000000	0.040587	0.000000	0.000004	0.000000	0.000000	0.000000
27.193234	15.457516	17.894929	-0.845044	0.708459	2.448882	0.000000	0.109582	0.000000	0.000004	0.000000	0.000000	0.000000
27.634194	16.406637	17.087579	-1.315519	1.115466	2.512630	0.000000	0.179824	0.000000	0.000004	0.000000	0.000000	0.000000
28.075154	17.795514	15.942376	-1.846096	1.471720	2.607773	0.000000	0.252115	0.000000	0.000004	0.000000	0.000000	0.000000
28.521114	19.711737	14.494177	-2.465972	1.761927	2.736999	0.000000	0.327720	0.000000	0.000004	0.000001	0.000000	0.000000
29.070174	22.147261	12.880441	-1.943577	1.194511	2.894278	0.000000	0.244341	0.000000	0.000005	0.000000	0.000000	0.000000
29.619234	23.929891	11.839698	-1.283897	0.712177	3.004518	0.000000	0.156627	0.000000	0.000005	0.000000	0.000000	0.000000
30.168294	24.933710	11.297820	-0.533530	0.280569	3.065763	0.000000	0.066135	0.000000	0.000005	0.000000	0.000000	0.000000
30.717354	25.087813	11.216208	0.254524	-0.131054	3.076927	0.000000	-0.025529	0.000000	0.000005	-0.000000	0.000000	0.000000
31.015927	24.978646	11.284997	0.176651	-0.128644	3.071705	0.000000	-0.017490	0.000000	0.000005	-0.000000	0.000000	0.000000
31.349260	24.865466	11.380769	0.162889	-0.158671	3.065874	0.000000	-0.017490	0.000000	0.000005	-0.000000	0.000000	0.000000
31.682593	24.761460	11.496558	0.149128	-0.188697	3.060044	0.000000	-0.017490	0.000000	0.000005	-0.000000	0.000000	0.000000
32.017177	24.666290	11.632912	0.135316	-0.218837	3.054192	0.000000	-0.017490	0.000000	0.000005	-0.000000	0.000000	0.000000
32.314499	24.589475	11.771006	0.058796	-0.214865	3.048992	0.000000	-0.009524	0.000000	0.000005	-0.000000	0.000000	0.000000
32.863559	24.103682	12.246303	0.820738	-0.655900	3.018887	0.000000	-0.099977	0.000000	0.000005	-0.000000	0.000000	0.000000
33.412619	22.808224	13.228568	1.524707	-1.143654	2.939531	0.000000	-0.188657	0.000000	0.000005	-0.000000	0.000000	0.000000
33.961679	20.794604	14.787766	2.120978	-1.712868	2.812334	0.000000	-0.273990	0.000000	0.000004	-0.000001	0.000000	0.000000
34.510739	18.205056	17.034956	2.567434	-2.404085	2.639551	0.000000	-0.354463	0.000000	0.000004	-0.000001	0.000000	0.000000
34.956699	16.191712	19.044913	1.963371	-2.084129	2.497813	0.000000	-0.281548	0.000000	0.000004	-0.000001	0.000000	0.000000
35.397659	14.690478	20.706699	1.454011	-1.670095	2.389040	0.000000	-0.212268	0.000000	0.000004	-0.000000	0.000000	0.000000
35.838619	13.607578	21.968309	1.011082	-1.180073	2.310255	0.000000	-0.145405	0.000000	0.000003	-0.000000	0.000000	0.000000
36.279579	12.893539	22.772343	0.614345	-0.636359	2.260562	0.000000	-0.080199	0.000000	0.000003	-0.000000	0.000000	0.000000
36.721789	12.515046	23.082517	0.276260	-0.120348	2.239366	0.000000	-0.021397	0.000000	0.000003	-0.000000	0.000000	0.000000
37.019112	12.358372	23.157966	0.250690	-0.133416	2.233004	0.000000	-0.021397	0.000000	0.000003	-0.000000	0.000000	0.000000
37.352445	12.200801	23.251794	0.222023	-0.148066	2.225872	0.000000	-0.021397	0.000000	0.000003	-0.000000	0.000000	0.000000
37.685779	12.062342	23.355387	0.193355	-0.162716	2.218740	0.000000	-0.021397	0.000000	0.000003	-0.000000	0.000000	0.000000
38.020362	11.942582	23.469192	0.164580	-0.177421	2.211581	0.000000	-0.021397	0.000000	0.000003	-0.000000	0.000000	0.000000
38.317684	11.852318	23.578579	0.168075	-0.248309	2.205219	0.000000	-0.026805	0.000000	0.000003	-0.000000	0.000000	0.000000
38.758644	11.855271	23.536424	-0.174797	0.343544	2.207324	0.000000	0.036362	0.000000	0.000003	-0.000000	0.000000	0.000000
39.199604	12.162974	22.977227	-0.525654	0.919766	2.237348	0.000000	0.099943	0.000000	0.000003	-0.000000	0.000000	0.000000
39.640564	12.789486	21.926431	-0.900527	1.454139	2.295633	0.000000	0.164662	0.000000	0.000003	-0.000000	0.000000	0.000000
40.081524	13.763430	20.431846	-1.316542	1.922350	2.382842	0.000000	0.231256	0.000000	0.000003	0.000000	0.000000	0.000000
40.527484	15.146866	18.538909	-1.796531	2.304374	2.501440	0.000000	0.300889	0.000000	0.000003	0.000000	0.000000	0.000000
41.076544	16.912542	16.411820	-1.400249	1.592548	2.646120	0.000000	0.225346	0.000000	0.000003	0.000000	0.000000	0.000000
41.625604	18.185833	14.999899	-0.905061	0.994155	2.748163	0.000000	0.145806	0.000000	0.000003	-0.000000	0.000000	0.000000
42.174664	18.876801	14.202577	-0.345944	0.466574	2.805758	0.000000	0.063679	0.000000	0.000003	-0.000000	0.000000	0.000000
42.723724	18.936638	13.963064	0.237608	-0.027774	2.817883	0.000000	-0.019576	0.000000	0.000003	-0.000000	0.000000	0.000000
43.022297	18.829170	13.964248	0.171806	-0.012676	2.814237	0.000000	-0.012214	0.000000	0.000002	-0.000000	0.000000	0.000000
43.502297	18.676834	13.992920	0.145562	-0.047055	2.808374	0.000000	-0.012214	0.000000	0.000002	-0.000000	0.000000	0.000000
43.982297	18.549692	14.054595	0.119317	-0.081434	2.802511	0.000000	-0.012214	0.000000	0.000002	-0.000000	0.000000	0.000000
44.462297	18.447745	14.149274	0.093072	-0.115813	2.796649	0.000000	-0.012214	0.000000	0.000002	-0.000000	0.000000	0.000000
44.942297	18.370994	14.276957	0.066827	-0.150192	2.790786	0.000000	-0.012214	0.000000	0.000002	-0.000000	0.000000	0.000000
45.423547	18.319563	14.437926	-0.050251	-0.113127	2.784925	0.000000	0.001584	0.000000	0.000002	-0.000000	0.000000	0.000000
45.720870	18.354282	14.511397	-0.114478	-0.096068	2.785396	0.000000	0.008862	0.000000	0.000002	-0.000000	0.000000	0.000000
46.269930	18.170936	14.897634	0.446429	-0.611535	2.767694	0.000000	-0.073251	0.000000	0.000002	-0.000000	0.000000	0.000000
46.818990	17.385396	15.870368	0.975802	-1.170559	2.705197	0.000000	-0.154065	0.000000	0.000002	-0.000000	0.000000	0.000000
47.368050	16.053149	17.498886	1.436249	-1.812960	2.599014	0.000000	-0.232146	0.000000	0.000001	-0.000000	0.000000	0.000000
47.917110	14.268298	19.899184	1.795247	-2.584493	2.451029	0.000000	-0.306109	0.000000	0.000001	-0.000000	0.000000	0.000000
48.363070	12.879199	22.033364	1.330638	-2.180975	2.329807	0.000000	-0.237818	0.000000	0.000001	-0.000000	0.000000	0.000000
48.804030	11.885856	23.742178	0.930590	-1.679493	2.239398	0.000000	-0.172632	0.000000	0.000001	-0.000000	0.000000	0.000000
49.244990	11.225314	24.973211	0.573058	-1.101595	2.177272	0.000000	-0.109412	0.000000	0.000001	-0.000000	0.000000	0.000000
49.685950	10.867393	25.670451	0.241707	-0.473576	2.142723	0.000000	-0.047439	0.000000	0.000001	-0.000000	0.000000	0.000000
50.128160	10.795872	25.801894	-0.052243	0.112668	2.135367	0.000000	0.008758	0.000000	0.000000	-0.000000	0.000000	0.000000
50.425482	10.835149	25.738366	-0.079859	0.100998	2.137971	0.000000	0.008758	0.000000	0.000000	-0.000000	0.000000	0.000000
50.758816	10.898708	25.675395	-0.110819	0.087915	2.140891	0.000000	0.008758	0.000000	0.000000	-0.000000	0.000000	0.000000
51.092149	10.982908	25.621145	-0.141779	0.074832	2.143810	0.000000	0.008758	0.000000	0.000000	-0.000000	0.000000	0.000000
51.426732	11.087954	25.575982	-0.082903	-0.145784	2.146719	0.000000	-0.008657	0.000000	0.000000	-0.000000	0.000000	0.000000
51.724055	11.145280	25.666202	-0.082571	-0.220598	2.144145	0.000000	-0.013915	0.000000	-0.000000	-0.000000	0.000000	0.000000
52.165015	11.363585	25.575240	-0.414375	0.426095	2.151597	0.000000	0.047746	0.000000	-0.000000	-0.000000	0.000000	0.000000
52.605975	11.881725	24.920349	-0.765112	1.053401	2.186333	0.000000	0.109950	0.000000	-0.000000	-0.000000	0.000000	0.000000
53.046935	12.723374	23.731327	-1.150804	1.632778	2.248748	0.000000	0.173407	0.000000	-0.000000	-0.000000	0.000000	0.000000
53.487895	13.926984	22.062272	-1.589073	2.137865	2.339554	0.000000	0.238839	0.000000	-0.000001	-0.000000	0.000000	0.000000
53.933855	15.568170	19.964169	-2.104180	2.547015	2.461290	0.000000	0.307391	0.000000	-0.000001	-0.000000	0.000000	0.000000
54.482915	17.681090	17.603369	-1.721289	1.778076	2.609885	0.000000	0.233085	0.000000	-0.000001	-0.000000	0.000000	0.000000
55.031975	19.303892	16.012872	-1.216815	1.135786	2.716486	0.000000	0.154645	0.000000	-0.000001	-0.000000	0.000000	0.000000
55.581035	20.321950	15.079390	-0.626392	0.574395	2.779200	0.000000	0.073462	0.000000	-0.000001	-0.000000	0.000000	0.000000
56.130095	20.663353	14.736433	0.008277	0.053917	2.796917	0.000000	-0.009024	0.000000	-0.000001	-0.000000	0.000000	0.000000
56.428668	20.694973	14.687345	-0.060193	0.071987	2.796404	0.000000	-0.001716	0.000000	-0.000001	-0.000000	0.000000	0.000000
56.762001	20.740490	14.646958	-0.076358	0.049175	2.795832	0.000000	-0.001716	0.000000	-0.000002	-0.000000	0.000000	0.000000
57.095334	20.796784	14.621779	-0.092523	0.026362	2.795260	0.000000	-0.001716	0.000000	-0.000002	-0.000000	0.000000	0.000000
57.429918	20.864126	14.611800	-0.108749	0.003463	2.794686	0.000000	-0.001716	0.000000	-0.000002	-0.000000	0.000000	0.000000
57.727240	20.933080	14.615791	-0.177863	0.021304	2.794176	0.000000	0.005585	0.000000	-0.000002	-0.000000	0.000000	0.000000
58.276300	20.771206	14.873140	0.470939	-0.492778	2.774601	0.000000	-0.076783	0.000000	-0.000002	-0.000000	0.000000	0.000000
58.825360	19.911000	15.710859	1.086476	-1.041960	2.710110	0.000000	-0.157788	0.000000	-0.000002	-0.000000	0.000000	0.000000
59.374420	18.413223	17.188616	1.625270	-1.665358	2.601845	0.000000	-0.235994	0.000000	-0.000002	-0.000000	0.000000	0.000000
59.923480	16.383670	19.411669	2.049263	-2.407376	2.451729	0.000000	-0.310015	0.000000	-0.000002	0.000000	0.000000	0.000000
60.369440	14.795051	21.387617	1.525597	-2.004696	2.328766	0.000000	-0.241728	0.000000	-0.000002	-0.000000	0.000000	0.000000
60.810400	13.652255	22.944339	1.075843	-1.512173	2.236623	0.000000	-0.176591	0.000000	-0.000002	-0.000000	0.000000	0.000000
61.251360	12.883015	24.034581	0.675242	-0.950848	2.172732	0.000000	-0.113466	0.000000	-0.000002	-0.000000	0.000000	0.000000
61.692320	12.452185	24.608738	0.305491	-0.346259	2.136366	0.000000	-0.051632	0.000000	-0.000002	-0.000000	0.000000	0.000000
62.134530	12.340132	24.640152	-0.020142	0.213603	2.127115	0.000000	0.004396	0.000000	-0.000002	-0.000000	0.000000	0.000000
62.431853	12.359276	24.516886	-0.044246	0.200986	2.128423	0.000000	0.004396	0.000000	-0.000002	-0.000000	0.000000	0.000000
62.765186	12.397781	24.387610	-0.071269	0.186840	2.129888	0.000000	0.004396	0.000000	-0.000002	-0.000000	0.000000	0.000000
63.098520	12.454301	24.267765	-0.098292	0.172695	2.131354	0.000000	0.004396	0.000000	-0.000002	-0.000000	0.000000	0.000000
63.433103	12.529150	24.156954	-0.125416	0.158497	2.132825	0.000000	0.004396	0.000000	-0.000003	-0.000000	0.000000	0.000000
63.730426	12.610895	24.066456	-0.118594	0.086860	2.134132	0.000000	-0.000837	0.000000	-0.000003	-0.000000	0.000000	0.000000
64.171386	12.876014	23.724792	-0.484918	0.685008	2.147304	0.000000	0.060639	0.000000	-0.000003	-0.000000	0.000000	0.000000
64.612346	13.472713	22.867391	-0.873398	1.251989	2.187712	0.000000	0.122806	0.000000	-0.000003	-0.000000	0.000000	0.000000
65.053306	14.428254	21.533263	-1.301780	1.762006	2.255815	0.000000	0.186372	0.000000	-0.000003	-0.000000	0.000000	0.000000
65.494266	15.786293	19.783110	-1.789637	2.191853	2.352389	0.000000	0.252061	0.000000	-0.000003	-0.000001	0.000000	0.000000
65.940226	17.632044	17.671786	-2.363951	2.522729	2.480107	0.000000	0.321022	0.000000	-0.000003	-0.000001	0.000000	0.000000
66.489286	19.997908	15.309791	-1.919476	1.804553	2.635998	0.000000	0.245989	0.000000	-0.000004	-0.000000	0.000000	0.000000
67.038346	21.797892	13.661652	-1.339420	1.214911	2.749431	0.000000	0.166592	0.000000	-0.000004	-0.000000	0.000000	0.000000
67.587406	22.904856	12.609977	-0.664753	0.711805	2.818393	0.000000	0.084240	0.000000	-0.000004	-0.000000	0.000000	0.000000
68.136466	23.240608	12.079857	0.056869	0.259399	2.841662	0.000000	0.000394	0.000000	-0.000004	-0.000000	0.000000	0.000000
68.435038	23.246747	11.914114	-0.016704	0.264154	2.843997	0.000000	0.007819	0.000000	-0.000004	-0.000000	0.000000	0.000000
68.768372	23.262664	11.747988	-0.031047	0.234224	2.846604	0.000000	0.007819	0.000000	-0.000004	-0.000000	0.000000	0.000000
69.101705	23.288143	11.601816	-0.045390	0.204293	2.849210	0.000000	0.007819	0.000000	-0.000004	-0.000000	0.000000	0.000000
69.436288	23.323333	11.475162	-0.059787	0.174251	2.851826	0.000000	0.007819	0.000000	-0.000004	-0.000000	0.000000	0.000000
69.733611	23.362689	11.379482	-0.133625	0.177288	2.854151	0.000000	0.015277	0.000000	-0.000004	-0.000000	0.000000	0.000000
70.282671	23.108193	11.412615	0.594394	-0.237988	2.839350	0.000000	-0.069111	0.000000	-0.000004	0.000000	0.000000	0.000000
