#ParticleID	Turn	x[m]	xp	y[m]	yp	z[m]	dE[GeV]# s	beta_x	beta_y	alpha_x	alpha_y	D_x	D_y	D_px	D_py	orbit_x	orbit_px	orbit_y	orbit_py
0.300000	11.833203	24.943532	-0.013547	-0.027777	2.618319	0.000000	-0.000067	0.000000	-0.000000	0.000000	0.000000	0.000000
0.601250	11.849036	24.963909	-0.039010	-0.039864	2.618299	0.000000	-0.000067	0.000000	-0.000000	0.000000	0.000000	0.000000
0.898573	11.879704	24.991161	-0.035008	-0.113078	2.618279	0.000000	-0.006487	0.000000	-0.000000	0.000000	0.000000	0.000000
1.339533	12.062951	24.813709	-0.382131	0.513967	2.631713	0.000000	0.067474	0.000000	-0.000000	0.000000	0.000000	0.000000
1.780493	12.558844	24.091493	-0.746712	1.117627	2.677898	0.000000	0.142203	0.000000	-0.000000	0.000000	0.000000	0.000000
2.221453	13.390040	22.857372	-1.145409	1.670437	2.757362	0.000000	0.218553	0.000000	-0.000000	0.000000	0.000000	0.000000
2.662413	14.594515	21.167498	-1.596436	2.147242	2.871009	0.000000	0.297391	0.000000	-0.000000	0.000000	0.000000	0.000000
3.108373	16.248111	19.073973	-2.124701	2.527480	3.021995	0.000000	0.380106	0.000000	0.000000	0.000000	0.000000	0.000000
3.657433	18.368520	16.722759	-1.714329	1.780050	3.205424	0.000000	0.287069	0.000000	0.000000	0.000000	0.000000	0.000000
4.206493	19.968725	15.118291	-1.182865	1.159408	3.336295	0.000000	0.188939	0.000000	0.000000	0.000000	0.000000	0.000000
4.755553	20.935697	14.146286	-0.567850	0.621349	3.412286	0.000000	0.087459	0.000000	0.000000	0.000000	0.000000	0.000000
5.304613	21.201132	13.737510	0.087276	0.127547	3.432050	0.000000	-0.015573	0.000000	0.000000	0.000000	0.000000	0.000000
5.603185	21.186303	13.646574	0.017784	0.141126	3.430078	0.000000	-0.006606	0.000000	0.000000	0.000000	0.000000	0.000000
5.936519	21.179693	13.560795	0.002046	0.116213	3.427876	0.000000	-0.006606	0.000000	0.000000	0.000000	0.000000	0.000000
6.269852	21.183576	13.491623	-0.013693	0.091301	3.425674	0.000000	-0.006606	0.000000	0.000000	0.000000	0.000000	0.000000
6.604435	21.198024	13.438894	-0.029490	0.066295	3.423463	0.000000	-0.006606	0.000000	0.000000	0.000000	0.000000	0.000000
6.901758	21.219734	13.406079	-0.098971	0.079101	3.421499	0.000000	0.002334	0.000000	0.000000	0.000000	0.000000	0.000000
7.450818	20.966680	13.579672	0.557129	-0.397130	3.394581	0.000000	-0.100240	0.000000	0.000000	0.000000	0.000000	0.000000
7.999878	20.010595	14.288594	1.173876	-0.901648	3.311750	0.000000	-0.201037	0.000000	0.000000	0.000000	0.000000	0.000000
8.548938	18.419012	15.583342	1.707707	-1.470388	3.174474	0.000000	-0.298267	0.000000	0.000000	0.000000	0.000000	0.000000
9.097998	16.304352	17.556137	2.120913	-2.143861	2.985189	0.000000	-0.390207	0.000000	0.000000	0.000000	0.000000	0.000000
9.543958	14.654381	19.314074	1.592058	-1.781396	2.829477	0.000000	-0.308508	0.000000	0.000000	0.000000	0.000000	0.000000
9.984918	13.454101	20.695348	1.140239	-1.339107	2.710682	0.000000	-0.230806	0.000000	0.000000	0.000000	0.000000	0.000000
10.425878	12.627898	21.658098	0.740514	-0.835890	2.625539	0.000000	-0.155734	0.000000	0.000001	0.000000	0.000000	0.000000
10.866838	12.138026	22.158521	0.374622	-0.294640	2.573077	0.000000	-0.082435	0.000000	0.000001	0.000000	0.000000	0.000000
11.309048	11.961967	22.173333	0.055074	0.205580	2.552680	0.000000	-0.016335	0.000000	0.000001	0.000000	0.000000	0.000000
11.606371	11.936630	22.055242	0.030143	0.191604	2.547823	0.000000	-0.016335	0.000000	0.000001	0.000000	0.000000	0.000000
12.086371	11.927012	21.882132	-0.010106	0.169042	2.539982	0.000000	-0.016335	0.000000	0.000001	0.000000	0.000000	0.000000
12.566371	11.956034	21.730682	-0.050355	0.146479	2.532141	0.000000	-0.016335	0.000000	0.000001	0.000000	0.000000	0.000000
13.046371	12.023694	21.600892	-0.090604	0.123917	2.524301	0.000000	-0.016335	0.000000	0.000001	0.000000	0.000000	0.000000
13.526371	12.129993	21.492762	-0.130853	0.101354	2.516460	0.000000	-0.016335	0.000000	0.000001	0.000000	0.000000	0.000000
14.007621	12.275359	21.406095	-0.171207	0.078733	2.508599	0.000000	-0.016335	0.000000	0.000001	0.000000	0.000000	0.000000
14.304943	12.384579	21.363433	-0.165767	0.012368	2.503742	0.000000	-0.022475	0.000000	0.000001	0.000000	0.000000	0.000000
14.745903	12.689531	21.118671	-0.528419	0.540584	2.509460	0.000000	0.048434	0.000000	0.000001	0.000000	0.000000	0.000000
15.186863	13.323709	20.417174	-0.915214	1.044203	2.546538	0.000000	0.119895	0.000000	0.000001	0.000000	0.000000	0.000000
15.627823	14.316089	19.290858	-1.343821	1.500313	2.615398	0.000000	0.192721	0.000000	0.000001	0.000000	0.000000	0.000000
16.068783	15.712008	17.790970	-1.833824	1.888159	2.716824	0.000000	0.267742	0.000000	0.000001	0.000000	0.000000	0.000000
16.514743	17.598896	15.964254	-2.412368	2.190845	2.853666	0.000000	0.346275	0.000000	0.000001	0.000000	0.000000	0.000000
17.063803	20.022034	13.924415	-1.974754	1.546232	3.020068	0.000000	0.258967	0.000000	0.000001	0.000000	0.000000	0.000000
17.612863	21.884714	12.528168	-1.397654	1.011754	3.137199	0.000000	0.167066	0.000000	0.000001	0.000000	0.000000	0.000000
18.161923	23.055368	11.676064	-0.721830	0.549340	3.202982	0.000000	0.072202	0.000000	0.000001	0.000000	0.000000	0.000000
18.710983	23.451306	11.307408	0.004980	0.126055	3.216250	0.000000	-0.023943	0.000000	0.000001	0.000000	0.000000	0.000000
19.009556	23.488735	11.222567	-0.069065	0.128554	3.211610	0.000000	-0.015540	0.000000	0.000001	0.000000	0.000000	0.000000
19.342889	23.539531	11.146928	-0.083324	0.098362	3.206430	0.000000	-0.015540	0.000000	0.000001	0.000000	0.000000	0.000000
19.676223	23.599834	11.091418	-0.097583	0.068169	3.201250	0.000000	-0.015540	0.000000	0.000001	0.000000	0.000000	0.000000
20.010806	23.670215	11.055805	-0.229171	0.092640	3.196071	0.000000	0.000295	0.000000	0.000001	0.000000	0.000000	0.000000
20.308129	23.810421	11.008782	-0.304603	0.094280	3.196159	0.000000	0.008646	0.000000	0.000002	0.000000	0.000000	0.000000
20.857189	23.734254	11.127850	0.442506	-0.312417	3.174695	0.000000	-0.086715	0.000000	0.000002	0.000000	0.000000	0.000000
21.406249	22.850050	11.703045	1.158358	-0.741367	3.101218	0.000000	-0.180538	0.000000	0.000002	-0.000000	0.000000	0.000000
21.955309	21.220265	12.775338	1.792389	-1.223122	2.977031	0.000000	-0.271159	0.000000	0.000001	-0.000000	0.000000	0.000000
22.504369	18.960019	14.421105	2.299816	-1.791998	2.804336	0.000000	-0.356970	0.000000	0.000001	-0.000000	0.000000	0.000000
22.950329	17.178930	15.898514	1.708115	-1.506899	2.662430	0.000000	-0.279783	0.000000	0.000001	-0.000000	0.000000	0.000000
23.391289	15.901787	17.076388	1.199151	-1.154095	2.555375	0.000000	-0.206237	0.000000	0.000001	-0.000000	0.000000	0.000000
23.832249	15.047746	17.918686	0.744973	-0.748781	2.480202	0.000000	-0.135039	0.000000	0.000001	-0.000000	0.000000	0.000000
24.273209	14.577789	18.387082	0.324830	-0.309398	2.436055	0.000000	-0.065380	0.000000	0.000001	-0.000000	0.000000	0.000000
24.715418	14.470556	18.460020	-0.045073	0.098725	2.422430	0.000000	-0.002406	0.000000	0.000001	0.000000	0.000000	0.000000
25.012741	14.503480	18.406149	-0.065662	0.082462	2.421714	0.000000	-0.002406	0.000000	0.000001	0.000000	0.000000	0.000000
25.346075	14.554949	18.357252	-0.088744	0.064229	2.420912	0.000000	-0.002406	0.000000	0.000001	0.000000	0.000000	0.000000
25.679408	14.621805	18.320511	-0.111826	0.045996	2.420110	0.000000	-0.002406	0.000000	0.000001	0.000000	0.000000	0.000000
26.013991	14.704089	18.296227	-0.015705	-0.120734	2.419281	0.000000	-0.022033	0.000000	0.000001	0.000000	0.000000	0.000000
26.311314	14.719442	18.372923	0.000165	-0.182276	2.412730	0.000000	-0.027949	0.000000	0.000001	0.000000	0.000000	0.000000
26.752274	14.900677	18.334359	-0.412727	0.269397	2.415511	0.000000	0.040576	0.000000	0.000001	0.000000	0.000000	0.000000
27.193234	15.452958	17.901360	-0.844476	0.708813	2.448582	0.000000	0.109563	0.000000	0.000001	0.000000	0.000000	0.000000
27.634194	16.401517	17.093626	-1.314806	1.115978	2.512320	0.000000	0.179797	0.000000	0.000001	0.000000	0.000000	0.000000
28.075154	17.789689	15.947910	-1.845206	1.472368	2.607449	0.000000	0.252080	0.000000	0.000001	0.000000	0.000000	0.000000
28.521114	19.705023	14.499084	-2.464862	1.762680	2.736658	0.000000	0.327677	0.000000	0.000002	0.000000	0.000000	0.000000
29.070174	22.139416	12.884625	-1.942637	1.195082	2.893916	0.000000	0.244309	0.000000	0.000002	0.000000	0.000000	0.000000
29.619234	23.921137	11.843336	-1.283193	0.712607	3.004142	0.000000	0.156607	0.000000	0.000002	0.000000	0.000000	0.000000
30.168294	24.924336	11.301048	-0.533112	0.280889	3.065379	0.000000	0.066127	0.000000	0.000002	0.000000	0.000000	0.000000
30.717354	25.078152	11.219135	0.254627	-0.130821	3.076542	0.000000	-0.025525	0.000000	0.000002	-0.000000	0.000000	0.000000
31.015927	24.968912	11.287778	0.176772	-0.128395	3.071321	0.000000	-0.017487	0.000000	0.000002	-0.000000	0.000000	0.000000
31.349260	24.855653	11.383381	0.163004	-0.158413	3.065492	0.000000	-0.017487	0.000000	0.000002	-0.000000	0.000000	0.000000
31.682593	24.751572	11.498995	0.149237	-0.188430	3.059663	0.000000	-0.017487	0.000000	0.000002	-0.000000	0.000000	0.000000
32.017177	24.656331	11.635167	0.135419	-0.218560	3.053812	0.000000	-0.017487	0.000000	0.000002	-0.000000	0.000000	0.000000
32.314499	24.579456	11.773093	0.058918	-0.214574	3.048613	0.000000	-0.009521	0.000000	0.000002	-0.000000	0.000000	0.000000
32.863559	24.093713	12.248096	0.820526	-0.655652	3.018513	0.000000	-0.099962	0.000000	0.000002	-0.000000	0.000000	0.000000
33.412619	22.798665	13.230104	1.524176	-1.143431	2.939169	0.000000	-0.188630	0.000000	0.000002	-0.000000	0.000000	0.000000
33.961679	20.785787	14.789064	2.120166	-1.712654	2.811989	0.000000	-0.273951	0.000000	0.000002	-0.000000	0.000000	0.000000
34.510739	18.197260	17.036017	2.566397	-2.403866	2.639230	0.000000	-0.354414	0.000000	0.000001	-0.000000	0.000000	0.000000
34.956699	16.184735	19.045750	1.962565	-2.083849	2.497512	0.000000	-0.281507	0.000000	0.000001	-0.000000	0.000000	0.000000
35.397659	14.684124	20.707267	1.453398	-1.669767	2.388756	0.000000	-0.212234	0.000000	0.000001	-0.000000	0.000000	0.000000
35.838619	13.601691	21.968574	1.010633	-1.179713	2.309984	0.000000	-0.145379	0.000000	0.000001	-0.000000	0.000000	0.000000
36.279579	12.887983	22.772282	0.614040	-0.635983	2.260301	0.000000	-0.080179	0.000000	0.000001	-0.000000	0.000000	0.000000
36.721789	12.509701	23.082123	0.276073	-0.119974	2.239112	0.000000	-0.021383	0.000000	0.000001	-0.000000	0.000000	0.000000
37.019112	12.353141	23.157349	0.250494	-0.133040	2.232754	0.000000	-0.021383	0.000000	0.000001	-0.000000	0.000000	0.000000
37.352445	12.195704	23.250926	0.221817	-0.147689	2.225627	0.000000	-0.021383	0.000000	0.000001	-0.000000	0.000000	0.000000
37.685779	12.057384	23.354268	0.193141	-0.162338	2.218499	0.000000	-0.021383	0.000000	0.000001	-0.000000	0.000000	0.000000
38.020362	11.937772	23.467819	0.164356	-0.177042	2.211345	0.000000	-0.021383	0.000000	0.000001	-0.000000	0.000000	0.000000
38.317684	11.847643	23.576981	0.167831	-0.247926	2.204987	0.000000	-0.026791	0.000000	0.000001	-0.000000	0.000000	0.000000
38.758644	11.850765	23.534508	-0.174937	0.343879	2.207097	0.000000	0.036370	0.000000	0.000001	-0.000000	0.000000	0.000000
39.199604	12.158548	22.975042	-0.525696	0.920038	2.237123	0.000000	0.099945	0.000000	0.000001	-0.000000	0.000000	0.000000
39.640564	12.785056	21.924038	-0.900474	1.454336	2.295407	0.000000	0.164658	0.000000	0.000001	0.000000	0.000000	0.000000
40.081524	13.758910	20.429317	-1.316391	1.922463	2.382613	0.000000	0.231247	0.000000	0.000001	0.000000	0.000000	0.000000
40.527484	15.142165	18.536319	-1.796274	2.304397	2.501206	0.000000	0.300874	0.000000	0.000001	0.000000	0.000000	0.000000
41.076544	16.907653	16.409175	-1.400166	1.592626	2.645880	0.000000	0.225338	0.000000	0.000001	0.000000	0.000000	0.000000
41.625604	18.180952	14.997135	-0.905158	0.994295	2.747921	0.000000	0.145806	0.000000	0.000001	-0.000000	0.000000	0.000000
42.174664	18.872121	14.199621	-0.346213	0.466785	2.805518	0.000000	0.063687	0.000000	0.000001	-0.000000	0.000000	0.000000
42.723724	18.932340	13.959830	0.237186	-0.027476	2.817649	0.000000	-0.019561	0.000000	0.000001	-0.000000	0.000000	0.000000
43.022297	18.825118	13.960843	0.171394	-0.012392	2.814007	0.000000	-0.012199	0.000000	0.000001	-0.000000	0.000000	0.000000
43.502297	18.673179	13.989245	0.145147	-0.046779	2.808152	0.000000	-0.012199	0.000000	0.000001	-0.000000	0.000000	0.000000
43.982297	18.546436	14.050659	0.118900	-0.081166	2.802296	0.000000	-0.012199	0.000000	0.000001	-0.000000	0.000000	0.000000
44.462297	18.444891	14.145085	0.092653	-0.115553	2.796441	0.000000	-0.012199	0.000000	0.000001	-0.000000	0.000000	0.000000
44.942297	18.368542	14.272522	0.066406	-0.149941	2.790585	0.000000	-0.012199	0.000000	0.000001	-0.000000	0.000000	0.000000
45.423547	18.317517	14.433253	-0.050664	-0.112906	2.784732	0.000000	0.001598	0.000000	0.000001	-0.000000	0.000000	0.000000
45.720870	18.352483	14.506595	-0.114889	-0.095866	2.785207	0.000000	0.008875	0.000000	0.000001	-0.000000	0.000000	0.000000
46.269930	18.169618	14.892527	0.445969	-0.611179	2.767513	0.000000	-0.073232	0.000000	0.000001	-0.000000	0.000000	0.000000
46.818990	17.384595	15.864776	0.975326	-1.170026	2.705029	0.000000	-0.154040	0.000000	0.000001	-0.000000	0.000000	0.000000
47.368050	16.052864	17.492594	1.435790	-1.812211	2.598861	0.000000	-0.232115	0.000000	0.000001	-0.000000	0.000000	0.000000
47.917110	14.268493	19.891927	1.794838	-2.583475	2.450895	0.000000	-0.306074	0.000000	0.000001	-0.000000	0.000000	0.000000
48.363070	12.879742	22.025265	1.330263	-2.180113	2.329688	0.000000	-0.237786	0.000000	0.000001	-0.000000	0.000000	0.000000
48.804030	11.886722	23.733402	0.930230	-1.678826	2.239291	0.000000	-0.172603	0.000000	0.000000	-0.000000	0.000000	0.000000
49.244990	11.226496	24.963945	0.572697	-1.101154	2.177177	0.000000	-0.109386	0.000000	0.000000	-0.000000	0.000000	0.000000
49.685950	10.868899	25.660903	0.241329	-0.473380	2.142639	0.000000	-0.047414	0.000000	0.000000	-0.000000	0.000000	0.000000
50.128160	10.797726	25.792285	-0.052650	0.112633	2.135294	0.000000	0.008781	0.000000	0.000000	-0.000000	0.000000	0.000000
50.425482	10.837244	25.728779	-0.080262	0.100959	2.137904	0.000000	0.008781	0.000000	0.000000	-0.000000	0.000000	0.000000
50.758816	10.901071	25.665836	-0.111218	0.087871	2.140831	0.000000	0.008781	0.000000	0.000000	-0.000000	0.000000	0.000000
51.092149	10.985535	25.611617	-0.142175	0.074783	2.143758	0.000000	0.008781	0.000000	0.000000	-0.000000	0.000000	0.000000
51.426732	11.090845	25.566489	-0.083271	-0.145761	2.146674	0.000000	-0.008635	0.000000	0.000000	-0.000000	0.000000	0.000000
51.724055	11.148388	25.656696	-0.082926	-0.220555	2.144107	0.000000	-0.013893	0.000000	0.000000	-0.000000	0.000000	0.000000
52.165015	11.367040	25.565808	-0.414810	0.425886	2.151569	0.000000	0.047768	0.000000	0.000000	-0.000000	0.000000	0.000000
52.605975	11.885607	24.911209	-0.765647	1.052950	2.186314	0.000000	0.109972	0.000000	0.000000	-0.000000	0.000000	0.000000
53.046935	12.727781	23.722684	-1.151463	1.632106	2.248739	0.000000	0.173428	0.000000	0.000000	-0.000000	0.000000	0.000000
53.487895	13.932038	22.054310	-1.589887	2.137002	2.339553	0.000000	0.238860	0.000000	-0.000000	-0.000000	0.000000	0.000000
53.933855	15.574034	19.957048	-2.105188	2.546000	2.461298	0.000000	0.307411	0.000000	-0.000000	-0.000000	0.000000	0.000000
54.482915	17.687986	17.597212	-1.722150	1.777327	2.609905	0.000000	0.233105	0.000000	-0.000000	-0.000000	0.000000	0.000000
55.031975	19.311625	16.007418	-1.217469	1.135249	2.716516	0.000000	0.154664	0.000000	-0.000000	-0.000000	0.000000	0.000000
55.581035	20.330264	15.074427	-0.626792	0.574032	2.779241	0.000000	0.073480	0.000000	-0.000000	-0.000000	0.000000	0.000000
56.130095	20.671954	14.731786	0.008159	0.053702	2.796967	0.000000	-0.009007	0.000000	-0.000000	-0.000000	0.000000	0.000000
56.428668	20.703656	14.682836	-0.060327	0.071754	2.796460	0.000000	-0.001699	0.000000	-0.000000	-0.000000	0.000000	0.000000
56.762001	20.749260	14.642606	-0.076486	0.048935	2.795893	0.000000	-0.001699	0.000000	-0.000000	-0.000000	0.000000	0.000000
57.095334	20.805637	14.617590	-0.092645	0.026116	2.795327	0.000000	-0.001699	0.000000	-0.000000	-0.000000	0.000000	0.000000
57.429918	20.873059	14.607777	-0.108864	0.003211	2.794759	0.000000	-0.001699	0.000000	-0.000000	-0.000000	0.000000	0.000000
57.727240	20.942080	14.611919	-0.177995	0.021036	2.794253	0.000000	0.005602	0.000000	-0.000000	-0.000000	0.000000	0.000000
58.276300	20.780184	14.869503	0.471109	-0.492940	2.774687	0.000000	-0.076768	0.000000	-0.000000	-0.000000	0.000000	0.000000
58.825360	19.919629	15.707345	1.086937	-1.042026	2.710203	0.000000	-0.157776	0.000000	-0.000000	-0.000000	0.000000	0.000000
59.374420	18.421199	17.185124	1.625989	-1.665333	2.601944	0.000000	-0.235986	0.000000	-0.000000	-0.000000	0.000000	0.000000
59.923480	16.390737	19.408099	2.050190	-2.407258	2.451831	0.000000	-0.310010	0.000000	-0.000000	-0.000000	0.000000	0.000000
60.369440	14.801386	21.383990	1.526317	-2.004688	2.328871	0.000000	-0.241720	0.000000	-0.000001	-0.000000	0.000000	0.000000
60.810400	13.658033	22.940754	1.076392	-1.512275	2.236732	0.000000	-0.176580	0.000000	-0.000001	-0.000000	0.000000	0.000000
61.251360	12.888374	24.031134	0.675645	-0.951055	2.172846	0.000000	-0.113452	0.000000	-0.000001	-0.000000	0.000000	0.000000
61.692320	12.457247	24.605517	0.305766	-0.346563	2.136487	0.000000	-0.051616	0.000000	-0.000001	-0.000000	0.000000	0.000000
62.134530	12.345004	24.637238	-0.019971	0.213225	2.127245	0.000000	0.004416	0.000000	-0.000001	-0.000000	0.000000	0.000000
62.431853	12.364043	24.514196	-0.044065	0.200608	2.128558	0.000000	0.004416	0.000000	-0.000001	-0.000000	0.000000	0.000000
62.765186	12.402424	24.385172	-0.071078	0.186463	2.130030	0.000000	0.004416	0.000000	-0.000001	-0.000000	0.000000	0.000000
63.098520	12.458813	24.265578	-0.098090	0.172319	2.131502	0.000000	0.004416	0.000000	-0.000001	-0.000000	0.000000	0.000000
63.433103	12.533524	24.155019	-0.125203	0.158121	2.132979	0.000000	0.004416	0.000000	-0.000001	-0.000000	0.000000	0.000000
63.730426	12.615139	24.064744	-0.118361	0.086490	2.134292	0.000000	-0.000818	0.000000	-0.000001	-0.000000	0.000000	0.000000
64.171386	12.880094	23.723425	-0.484777	0.684602	2.147474	0.000000	0.060663	0.000000	-0.000001	-0.000000	0.000000	0.000000
64.612346	13.476706	22.866390	-0.873341	1.251566	2.187893	0.000000	0.122834	0.000000	-0.000001	-0.000000	0.000000	0.000000
65.053306	14.432233	21.532636	-1.301805	1.761585	2.256009	0.000000	0.186405	0.000000	-0.000001	-0.000000	0.000000	0.000000
65.494266	15.790331	19.782846	-1.789745	2.191453	2.352599	0.000000	0.252099	0.000000	-0.000001	-0.000000	0.000000	0.000000
65.940226	17.636219	17.671863	-2.364149	2.522369	2.480335	0.000000	0.321066	0.000000	-0.000001	-0.000000	0.000000	0.000000
66.489286	20.002212	15.310237	-1.919514	1.804236	2.636248	0.000000	0.246025	0.000000	-0.000001	-0.000000	0.000000	0.000000
67.038346	21.802149	13.662434	-1.339295	1.214614	2.749698	0.000000	0.166619	0.000000	-0.000001	-0.000000	0.000000	0.000000
67.587406	22.908890	12.611084	-0.664474	0.711507	2.818673	0.000000	0.084259	0.000000	-0.000001	-0.000000	0.000000	0.000000
68.136466	23.244260	12.081301	0.057281	0.259079	2.841950	0.000000	0.000404	0.000000	-0.000001	-0.000000	0.000000	0.000000
68.435038	23.250157	11.915745	-0.016298	0.263844	2.844288	0.000000	0.007829	0.000000	-0.000001	-0.000000	0.000000	0.000000
68.768372	23.265803	11.749823	-0.030638	0.233923	2.846897	0.000000	0.007829	0.000000	-0.000001	-0.000000	0.000000	0.000000
69.101705	23.291008	11.603848	-0.044979	0.204001	2.849507	0.000000	0.007829	0.000000	-0.000001	-0.000000	0.000000	0.000000
69.436288	23.325923	11.477386	-0.059373	0.173967	2.852127	0.000000	0.007829	0.000000	-0.000001	-0.000000	0.000000	0.000000
69.733611	23.365032	11.381873	-0.133214	0.177017	2.854455	0.000000	0.015288	0.000000	-0.000001	-0.000000	0.000000	0.000000
70.282671	23.110046	11.415340	0.594870	-0.238331	2.839657	0.000000	-0.069110	0.000000	-0.000001	-0.000000	0.000000	0.000000
