#ParticleID	Turn	x[m]	xp	y[m]	yp	z[m]	dE[GeV]# s	beta_x	beta_y	alpha_x	alpha_y	D_x	D_y	D_px	D_py	orbit_x	orbit_px	orbit_y	orbit_py
0.300000	11.817822	25.001704	-0.011528	-0.027425	2.618102	0.000000	0.000016	0.000000	-0.000000	0.000001	0.000000	0.000000
0.601250	11.832448	25.021860	-0.037022	-0.039484	2.618106	0.000000	0.000016	0.000000	-0.000000	0.000001	0.000000	0.000000
0.898573	11.861944	25.048877	-0.033096	-0.112812	2.618111	0.000000	-0.006404	0.000000	0.000000	0.000001	0.000000	0.000000
1.339533	12.043311	24.870518	-0.379764	0.515753	2.631580	0.000000	0.067553	0.000000	0.000001	0.000001	0.000000	0.000000
1.780493	12.536878	24.146084	-0.743783	1.120851	2.677800	0.000000	0.142280	0.000000	0.000001	0.000001	0.000000	0.000000
2.221453	13.365195	22.908538	-1.141784	1.674951	2.757296	0.000000	0.218627	0.000000	0.000001	0.000001	0.000000	0.000000
2.662413	14.566106	21.214186	-1.591949	2.152843	2.870976	0.000000	0.297464	0.000000	0.000002	0.000001	0.000000	0.000000
3.108373	16.215237	19.115272	-2.119138	2.533913	3.021993	0.000000	0.380179	0.000000	0.000002	0.000001	0.000000	0.000000
3.657433	18.329960	16.757908	-1.709597	1.784884	3.205462	0.000000	0.287141	0.000000	0.000003	0.000001	0.000000	0.000000
4.206493	19.925582	15.148848	-1.179298	1.162987	3.336372	0.000000	0.189009	0.000000	0.000003	0.000001	0.000000	0.000000
4.755553	20.889396	14.173482	-0.565700	0.623927	3.412401	0.000000	0.087526	0.000000	0.000003	0.000001	0.000000	0.000000
5.304613	21.153323	13.762337	0.087857	0.129309	3.432200	0.000000	-0.015510	0.000000	0.000004	0.000001	0.000000	0.000000
5.603185	21.138082	13.670304	0.018459	0.142978	3.430246	0.000000	-0.006543	0.000000	0.000004	0.000001	0.000000	0.000000
5.936519	21.131034	13.583279	0.002685	0.118096	3.428065	0.000000	-0.006543	0.000000	0.000004	0.000001	0.000000	0.000000
6.269852	21.134502	13.512842	-0.013090	0.093214	3.425884	0.000000	-0.006543	0.000000	0.000004	0.000001	0.000000	0.000000
6.604435	21.148559	13.458823	-0.028924	0.068238	3.423694	0.000000	-0.006543	0.000000	0.000005	0.000001	0.000000	0.000000
6.901758	21.169942	13.424844	-0.098305	0.081120	3.421749	0.000000	0.002397	0.000000	0.000005	0.000001	0.000000	0.000000
7.450818	20.917077	13.596504	0.556122	-0.395607	3.394863	0.000000	-0.100186	0.000000	0.000005	0.000000	0.000000	0.000000
7.999878	19.962989	14.303975	1.171268	-0.900512	3.312059	0.000000	-0.200991	0.000000	0.000005	0.000000	0.000000	0.000000
8.548938	18.375070	15.597649	1.703681	-1.469558	3.174805	0.000000	-0.298232	0.000000	0.000005	0.000000	0.000000	0.000000
9.097998	16.265482	17.569673	2.115755	-2.143278	2.985535	0.000000	-0.390183	0.000000	0.000005	-0.000000	0.000000	0.000000
9.543958	14.619591	19.326860	1.588038	-1.780304	2.829836	0.000000	-0.308475	0.000000	0.000005	0.000000	0.000000	0.000000
9.984918	13.422427	20.706966	1.137165	-1.337561	2.711058	0.000000	-0.230764	0.000000	0.000005	0.000000	0.000000	0.000000
10.425878	12.598571	21.668178	0.738246	-0.833960	2.625936	0.000000	-0.155681	0.000000	0.000005	0.000000	0.000000	0.000000
10.866838	12.110383	22.166761	0.373056	-0.292414	2.573499	0.000000	-0.082372	0.000000	0.000006	0.000000	0.000000	0.000000
11.309048	11.935425	22.179511	0.054072	0.207988	2.553132	0.000000	-0.016261	0.000000	0.000006	0.000001	0.000000	0.000000
11.606371	11.910700	22.059990	0.029088	0.194003	2.548297	0.000000	-0.016261	0.000000	0.000006	0.000001	0.000000	0.000000
12.086371	11.902136	21.884584	-0.011246	0.171425	2.540491	0.000000	-0.016261	0.000000	0.000006	0.000001	0.000000	0.000000
12.566371	11.932292	21.730853	-0.051580	0.148848	2.532685	0.000000	-0.016261	0.000000	0.000007	0.000001	0.000000	0.000000
13.046371	12.001170	21.598797	-0.091914	0.126270	2.524879	0.000000	-0.016261	0.000000	0.000007	0.000001	0.000000	0.000000
13.526371	12.108768	21.488415	-0.132248	0.103692	2.517074	0.000000	-0.016261	0.000000	0.000007	0.000001	0.000000	0.000000
14.007621	12.255518	21.399505	-0.172687	0.081055	2.509247	0.000000	-0.016261	0.000000	0.000008	0.000001	0.000000	0.000000
14.304943	12.365634	21.355464	-0.167349	0.014704	2.504412	0.000000	-0.022403	0.000000	0.000008	0.000001	0.000000	0.000000
14.745903	12.671808	21.108753	-0.529620	0.542653	2.510166	0.000000	0.048524	0.000000	0.000008	0.000001	0.000000	0.000000
15.186863	13.306898	20.405583	-0.916088	1.045912	2.547287	0.000000	0.120004	0.000000	0.000008	0.000001	0.000000	0.000000
15.627823	14.299921	19.277949	-1.344410	1.501583	2.616199	0.000000	0.192850	0.000000	0.000009	0.000001	0.000000	0.000000
16.068783	15.696243	17.777156	-1.834154	1.888932	2.717686	0.000000	0.267892	0.000000	0.000010	0.000001	0.000000	0.000000
16.514743	17.583316	15.949988	-2.412453	2.191083	2.854600	0.000000	0.346448	0.000000	0.000010	0.000002	0.000000	0.000000
17.063803	20.006931	13.909749	-1.975533	1.546727	3.021087	0.000000	0.259109	0.000000	0.000011	0.000001	0.000000	0.000000
17.612863	21.870826	12.512803	-1.399071	1.012541	3.138287	0.000000	0.167174	0.000000	0.000012	0.000001	0.000000	0.000000
18.161923	23.043343	11.659649	-0.723786	0.550475	3.204119	0.000000	0.072273	0.000000	0.000012	0.000001	0.000000	0.000000
18.710983	23.441663	11.289519	0.002623	0.127619	3.217415	0.000000	-0.023909	0.000000	0.000012	0.000000	0.000000	0.000000
19.009556	23.480484	11.203791	-0.071400	0.130014	3.212786	0.000000	-0.015503	0.000000	0.000013	0.000000	0.000000	0.000000
19.342889	23.532840	11.127200	-0.085668	0.099759	3.207619	0.000000	-0.015503	0.000000	0.000013	0.000000	0.000000	0.000000
19.676223	23.594708	11.070779	-0.099937	0.069504	3.202451	0.000000	-0.015503	0.000000	0.000013	0.000000	0.000000	0.000000
20.010806	23.666668	11.034293	-0.231517	0.093807	3.197283	0.000000	0.000338	0.000000	0.000013	0.000000	0.000000	0.000000
20.308129	23.808273	10.986593	-0.306953	0.095327	3.197384	0.000000	0.008691	0.000000	0.000013	0.000000	0.000000	0.000000
20.857189	23.734713	11.104163	0.440135	-0.310721	3.175934	0.000000	-0.086710	0.000000	0.000013	-0.000000	0.000000	0.000000
21.406249	22.853046	11.677087	1.156134	-0.738902	3.102448	0.000000	-0.180573	0.000000	0.000013	-0.000000	0.000000	0.000000
21.955309	21.225548	12.746173	1.790470	-1.219713	2.978231	0.000000	-0.271233	0.000000	0.000012	-0.000001	0.000000	0.000000
22.504369	18.967179	14.387571	2.298336	-1.787401	2.805486	0.000000	-0.357083	0.000000	0.000012	-0.000001	0.000000	0.000000
22.950329	17.187407	15.861206	1.706630	-1.503070	2.663537	0.000000	-0.279866	0.000000	0.000011	-0.000001	0.000000	0.000000
23.391289	15.911600	17.036107	1.197593	-1.151206	2.556451	0.000000	-0.206292	0.000000	0.000011	-0.000001	0.000000	0.000000
23.832249	15.058991	17.876320	0.743270	-0.746963	2.481260	0.000000	-0.135067	0.000000	0.000011	-0.000000	0.000000	0.000000
24.273209	14.590627	18.343618	0.322905	-0.308733	2.437108	0.000000	-0.065380	0.000000	0.000011	-0.000000	0.000000	0.000000
24.715418	14.485228	18.416493	-0.047275	0.098316	2.423488	0.000000	-0.002381	0.000000	0.000011	0.000000	0.000000	0.000000
25.012741	14.519456	18.362876	-0.067847	0.082016	2.422780	0.000000	-0.002381	0.000000	0.000011	0.000000	0.000000	0.000000
25.346075	14.572376	18.314290	-0.090911	0.063741	2.421986	0.000000	-0.002381	0.000000	0.000011	0.000000	0.000000	0.000000
25.679408	14.640670	18.277888	-0.113974	0.045466	2.421192	0.000000	-0.002381	0.000000	0.000011	0.000000	0.000000	0.000000
26.013991	14.724385	18.253971	-0.017670	-0.120962	2.420371	0.000000	-0.022017	0.000000	0.000011	0.000000	0.000000	0.000000
26.311314	14.740898	18.330814	-0.001723	-0.182436	2.413825	0.000000	-0.027935	0.000000	0.000011	-0.000000	0.000000	0.000000
26.752274	14.924038	18.292895	-0.415173	0.268100	2.416619	0.000000	0.040618	0.000000	0.000011	0.000000	0.000000	0.000000
27.193234	15.478762	17.861521	-0.847591	0.706439	2.449714	0.000000	0.109634	0.000000	0.000011	0.000001	0.000000	0.000000
27.634194	16.430414	17.056318	-1.318732	1.112635	2.513489	0.000000	0.179898	0.000000	0.000011	0.000001	0.000000	0.000000
28.075154	17.822472	15.913922	-1.850123	1.468207	2.608670	0.000000	0.252212	0.000000	0.000012	0.000001	0.000000	0.000000
28.521114	19.742721	14.469104	-2.471006	1.757890	2.737944	0.000000	0.327841	0.000000	0.000012	0.000001	0.000000	0.000000
29.070174	22.183369	12.859258	-1.947819	1.191421	2.895280	0.000000	0.244430	0.000000	0.000013	0.000001	0.000000	0.000000
29.619234	23.970083	11.821492	-1.287048	0.709814	3.005559	0.000000	0.156683	0.000000	0.000013	0.000001	0.000000	0.000000
30.168294	24.976657	11.281888	-0.535367	0.278765	3.066826	0.000000	0.066157	0.000000	0.000014	0.000000	0.000000	0.000000
30.717354	25.131993	11.202011	0.254130	-0.132428	3.077992	0.000000	-0.025542	0.000000	0.000014	-0.000000	0.000000	0.000000
31.015927	25.023120	11.271657	0.176170	-0.130099	3.072767	0.000000	-0.017501	0.000000	0.000014	-0.000000	0.000000	0.000000
31.349260	24.910252	11.368414	0.162436	-0.160172	3.066933	0.000000	-0.017501	0.000000	0.000013	-0.000000	0.000000	0.000000
31.682593	24.806539	11.485220	0.148701	-0.190246	3.061100	0.000000	-0.017501	0.000000	0.000013	-0.000000	0.000000	0.000000
32.017177	24.711646	11.622626	0.134915	-0.220432	3.055244	0.000000	-0.017501	0.000000	0.000013	-0.000000	0.000000	0.000000
32.314499	24.635061	11.761680	0.058305	-0.216528	3.050041	0.000000	-0.009533	0.000000	0.000013	-0.000000	0.000000	0.000000
32.863559	24.148973	12.238699	0.821764	-0.657392	3.019921	0.000000	-0.100019	0.000000	0.000013	-0.000001	0.000000	0.000000
33.412619	22.851583	13.222557	1.527178	-1.145080	2.940534	0.000000	-0.188732	0.000000	0.000013	-0.000001	0.000000	0.000000
33.961679	20.834531	14.783332	2.124719	-1.714329	2.813287	0.000000	-0.274097	0.000000	0.000012	-0.000001	0.000000	0.000000
34.510739	18.240294	17.032194	2.572181	-2.405687	2.640437	0.000000	-0.354600	0.000000	0.000011	-0.000002	0.000000	0.000000
34.956699	16.223198	19.043702	1.967067	-2.085993	2.498644	0.000000	-0.281663	0.000000	0.000010	-0.000002	0.000000	0.000000
35.397659	14.719100	20.707217	1.456834	-1.672135	2.389826	0.000000	-0.212362	0.000000	0.000010	-0.000001	0.000000	0.000000
35.838619	13.634048	21.970670	1.013159	-1.182195	2.311004	0.000000	-0.145479	0.000000	0.000009	-0.000001	0.000000	0.000000
36.279579	12.918468	22.776576	0.615773	-0.638467	2.261283	0.000000	-0.080254	0.000000	0.000009	-0.000001	0.000000	0.000000
36.721789	12.538975	23.088572	0.277161	-0.122358	2.240067	0.000000	-0.021435	0.000000	0.000008	-0.000001	0.000000	0.000000
37.019112	12.381754	23.165217	0.251628	-0.135428	2.233694	0.000000	-0.021435	0.000000	0.000008	-0.000001	0.000000	0.000000
37.352445	12.223544	23.260387	0.223002	-0.150081	2.226549	0.000000	-0.021435	0.000000	0.000008	-0.000001	0.000000	0.000000
37.685779	12.084418	23.365326	0.194376	-0.164735	2.219405	0.000000	-0.021435	0.000000	0.000008	-0.000001	0.000000	0.000000
38.020362	11.963962	23.480482	0.165643	-0.179443	2.212233	0.000000	-0.021435	0.000000	0.000008	-0.000001	0.000000	0.000000
38.317684	11.873055	23.591073	0.169224	-0.250362	2.205860	0.000000	-0.026844	0.000000	0.000007	-0.000001	0.000000	0.000000
38.758644	11.875200	23.550576	-0.174108	0.341850	2.207952	0.000000	0.036339	0.000000	0.000007	-0.000000	0.000000	0.000000
39.199604	12.182487	22.992685	-0.525394	0.918509	2.237969	0.000000	0.099936	0.000000	0.000007	-0.000000	0.000000	0.000000
39.640564	12.808953	21.942784	-0.900684	1.453375	2.296254	0.000000	0.164671	0.000000	0.000007	-0.000000	0.000000	0.000000
40.081524	13.783221	20.448642	-1.317123	1.922114	2.383471	0.000000	0.231281	0.000000	0.000007	0.000000	0.000000	0.000000
40.527484	15.167375	18.555672	-1.797564	2.304681	2.502084	0.000000	0.300931	0.000000	0.000007	0.000000	0.000000	0.000000
41.076544	16.933771	16.428471	-1.400519	1.592448	2.646782	0.000000	0.225367	0.000000	0.000007	0.000000	0.000000	0.000000
41.625604	18.206928	15.016885	-0.904548	0.993640	2.748830	0.000000	0.145805	0.000000	0.000007	-0.000000	0.000000	0.000000
42.174664	18.896916	14.220372	-0.344684	0.465608	2.806418	0.000000	0.063657	0.000000	0.000007	-0.000000	0.000000	0.000000
42.723724	18.954997	13.982197	0.239527	-0.029260	2.818526	0.000000	-0.019620	0.000000	0.000007	-0.000001	0.000000	0.000000
43.022297	18.846410	13.984232	0.173683	-0.014084	2.814867	0.000000	-0.012256	0.000000	0.000007	-0.000001	0.000000	0.000000
43.502297	18.692268	14.014231	0.147446	-0.048416	2.808984	0.000000	-0.012256	0.000000	0.000006	-0.000001	0.000000	0.000000
43.982297	18.563314	14.077189	0.121209	-0.082747	2.803101	0.000000	-0.012256	0.000000	0.000006	-0.000001	0.000000	0.000000
44.462297	18.459548	14.173105	0.094971	-0.117078	2.797219	0.000000	-0.012256	0.000000	0.000006	-0.000001	0.000000	0.000000
44.942297	18.380969	14.301979	0.068734	-0.151409	2.791336	0.000000	-0.012256	0.000000	0.000005	-0.000001	0.000000	0.000000
45.423547	18.327699	14.464096	-0.048377	-0.114166	2.785455	0.000000	0.001545	0.000000	0.000005	-0.000001	0.000000	0.000000
45.720870	18.361301	14.538175	-0.112611	-0.097006	2.785915	0.000000	0.008823	0.000000	0.000005	-0.000001	0.000000	0.000000
46.269930	18.175791	14.925895	0.448478	-0.613314	2.768187	0.000000	-0.073306	0.000000	0.000005	-0.000001	0.000000	0.000000
46.818990	17.387966	15.901102	0.977889	-1.173308	2.705656	0.000000	-0.154135	0.000000	0.000004	-0.000001	0.000000	0.000000
47.368050	16.053474	17.533258	1.438226	-1.816874	2.599431	0.000000	-0.232230	0.000000	0.000004	-0.000001	0.000000	0.000000
47.917110	14.266576	19.938617	1.796975	-2.589852	2.451397	0.000000	-0.306206	0.000000	0.000003	-0.000001	0.000000	0.000000
48.363070	12.875999	22.077209	1.332240	-2.185468	2.330134	0.000000	-0.237906	0.000000	0.000003	-0.000001	0.000000	0.000000
48.804030	11.881271	23.789529	0.932141	-1.682918	2.239687	0.000000	-0.172712	0.000000	0.000002	-0.000001	0.000000	0.000000
49.244990	11.219357	25.023053	0.574628	-1.103798	2.177528	0.000000	-0.109485	0.000000	0.000002	-0.000001	0.000000	0.000000
49.685950	10.860016	25.721658	0.243368	-0.474455	2.142948	0.000000	-0.047505	0.000000	0.000001	-0.000001	0.000000	0.000000
50.128160	10.786958	25.853275	-0.050436	0.113026	2.135565	0.000000	0.008696	0.000000	0.000001	-0.000001	0.000000	0.000000
50.425482	10.825165	25.789527	-0.078069	0.101379	2.138151	0.000000	0.008696	0.000000	0.000001	-0.000001	0.000000	0.000000
50.758816	10.887538	25.726294	-0.109050	0.088321	2.141050	0.000000	0.008696	0.000000	0.000000	-0.000001	0.000000	0.000000
51.092149	10.970565	25.671766	-0.140030	0.075263	2.143949	0.000000	0.008696	0.000000	0.000000	-0.000001	0.000000	0.000000
51.426732	11.074447	25.626308	-0.081283	-0.145737	2.146837	0.000000	-0.008720	0.000000	-0.000000	-0.000001	0.000000	0.000000
51.724055	11.130817	25.716493	-0.081012	-0.220651	2.144245	0.000000	-0.013978	0.000000	-0.000000	-0.000001	0.000000	0.000000
52.165015	11.347590	25.624990	-0.412447	0.427370	2.151669	0.000000	0.047685	0.000000	-0.000001	-0.000001	0.000000	0.000000
52.605975	11.863835	24.968408	-0.762725	1.055946	2.186379	0.000000	0.109891	0.000000	-0.000001	-0.000001	0.000000	0.000000
53.046935	12.703138	23.776621	-1.147850	1.636478	2.248769	0.000000	0.173349	0.000000	-0.000002	-0.000001	0.000000	0.000000
53.487895	13.903845	22.103855	-1.585418	2.142551	2.339549	0.000000	0.238781	0.000000	-0.000002	-0.000001	0.000000	0.000000
53.933855	15.541394	20.001209	-2.099649	2.552476	2.461259	0.000000	0.307332	0.000000	-0.000002	-0.000001	0.000000	0.000000
54.482915	17.649682	17.635213	-1.717435	1.782136	2.609823	0.000000	0.233028	0.000000	-0.000003	-0.000001	0.000000	0.000000
55.031975	19.268750	16.040892	-1.213911	1.138733	2.716393	0.000000	0.154590	0.000000	-0.000003	-0.000001	0.000000	0.000000
55.581035	20.284237	15.104685	-0.624641	0.576440	2.779079	0.000000	0.073411	0.000000	-0.000004	-0.000001	0.000000	0.000000
56.130095	20.624412	14.759910	0.008749	0.055205	2.796769	0.000000	-0.009071	0.000000	-0.000004	-0.000001	0.000000	0.000000
56.428668	20.655698	14.710008	-0.059647	0.073365	2.796242	0.000000	-0.001763	0.000000	-0.000004	-0.000001	0.000000	0.000000
56.762001	20.700861	14.668692	-0.075842	0.050582	2.795655	0.000000	-0.001763	0.000000	-0.000005	-0.000001	0.000000	0.000000
57.095334	20.756820	14.642565	-0.092037	0.027800	2.795067	0.000000	-0.001763	0.000000	-0.000005	-0.000001	0.000000	0.000000
57.429918	20.823847	14.631613	-0.108292	0.004932	2.794478	0.000000	-0.001763	0.000000	-0.000005	-0.000001	0.000000	0.000000
57.727240	20.892537	14.634722	-0.177328	0.022851	2.793953	0.000000	0.005537	0.000000	-0.000005	-0.000001	0.000000	0.000000
58.276300	20.730825	14.890664	0.470111	-0.491747	2.774355	0.000000	-0.076822	0.000000	-0.000005	-0.000000	0.000000	0.000000
58.825360	19.872252	15.727498	1.084345	-1.041372	2.709844	0.000000	-0.157819	0.000000	-0.000006	-0.000000	0.000000	0.000000
59.374420	18.377466	17.204831	1.621986	-1.665170	2.601565	0.000000	-0.236017	0.000000	-0.000006	-0.000000	0.000000	0.000000
59.923480	16.352050	19.427891	2.045058	-2.407575	2.451438	0.000000	-0.310028	0.000000	-0.000006	0.000000	0.000000	0.000000
60.369440	14.766757	21.403779	1.522318	-2.004363	2.328468	0.000000	-0.241749	0.000000	-0.000006	-0.000000	0.000000	0.000000
60.810400	13.626503	22.959980	1.073335	-1.511328	2.236313	0.000000	-0.176620	0.000000	-0.000006	-0.000000	0.000000	0.000000
61.251360	12.859178	24.049264	0.673390	-0.949529	2.172408	0.000000	-0.113503	0.000000	-0.000006	-0.000000	0.000000	0.000000
61.692320	12.429725	24.622070	0.304209	-0.344526	2.136024	0.000000	-0.051678	0.000000	-0.000006	-0.000000	0.000000	0.000000
62.134530	12.318576	24.651797	-0.020964	0.215640	2.126752	0.000000	0.004342	0.000000	-0.000006	-0.000001	0.000000	0.000000
62.431853	12.338222	24.527320	-0.045110	0.203019	2.128043	0.000000	0.004342	0.000000	-0.000006	-0.000001	0.000000	0.000000
62.765186	12.377319	24.396691	-0.072182	0.188868	2.129491	0.000000	0.004342	0.000000	-0.000007	-0.000001	0.000000	0.000000
63.098520	12.434464	24.275496	-0.099253	0.174718	2.130938	0.000000	0.004342	0.000000	-0.000007	-0.000001	0.000000	0.000000
63.433103	12.509972	24.163333	-0.126426	0.160514	2.132391	0.000000	0.004342	0.000000	-0.000007	-0.000001	0.000000	0.000000
63.730426	12.592330	24.071636	-0.119690	0.088858	2.133683	0.000000	-0.000891	0.000000	-0.000007	-0.000001	0.000000	0.000000
64.171386	12.858239	23.728167	-0.485619	0.687091	2.146829	0.000000	0.060574	0.000000	-0.000008	-0.000001	0.000000	0.000000
64.612346	13.455394	22.868926	-0.873735	1.254063	2.187206	0.000000	0.122729	0.000000	-0.000008	-0.000001	0.000000	0.000000
65.053306	14.411078	21.533009	-1.301769	1.763975	2.255272	0.000000	0.186281	0.000000	-0.000008	-0.000001	0.000000	0.000000
65.494266	15.768954	19.781198	-1.789277	2.193628	2.351803	0.000000	0.251955	0.000000	-0.000009	-0.000001	0.000000	0.000000
65.940226	17.614221	17.668409	-2.363224	2.524227	2.479470	0.000000	0.320900	0.000000	-0.000010	-0.000002	0.000000	0.000000
66.489286	19.979664	15.304843	-1.919444	1.805933	2.635301	0.000000	0.245888	0.000000	-0.000011	-0.000001	0.000000	0.000000
67.038346	21.779997	13.655209	-1.340084	1.216271	2.748686	0.000000	0.166515	0.000000	-0.000011	-0.000001	0.000000	0.000000
67.587406	22.888053	12.602008	-0.666068	0.713242	2.817613	0.000000	0.084188	0.000000	-0.000012	-0.000001	0.000000	0.000000
68.136466	23.225566	12.070222	0.054996	0.261015	2.840861	0.000000	0.000368	0.000000	-0.000012	-0.000000	0.000000	0.000000
68.435038	23.232804	11.903542	-0.018550	0.265702	2.843187	0.000000	0.007791	0.000000	-0.000012	-0.000000	0.000000	0.000000
68.768372	23.249955	11.736400	-0.032902	0.235722	2.845784	0.000000	0.007791	0.000000	-0.000012	-0.000000	0.000000	0.000000
69.101705	23.276674	11.589246	-0.047254	0.205742	2.848382	0.000000	0.007791	0.000000	-0.000012	-0.000000	0.000000	0.000000
69.436288	23.313115	11.461638	-0.061661	0.175650	2.850989	0.000000	0.007791	0.000000	-0.000012	-0.000000	0.000000	0.000000
69.733611	23.353587	11.365140	-0.135488	0.178607	2.853305	0.000000	0.015247	0.000000	-0.000012	-0.000000	0.000000	0.000000
70.282671	23.101285	11.396599	0.592284	-0.236241	2.838496	0.000000	-0.069113	0.000000	-0.000012	0.000000	0.000000	0.000000
