#ParticleID	Turn	x[m]	xp	y[m]	yp	z[m]	dE[GeV]# s	beta_x	beta_y	alpha_x	alpha_y	D_x	D_y	D_px	D_py	orbit_x	orbit_px	orbit_y	orbit_py
0.300000	11.800733	25.067827	-0.009920	-0.026621	2.618462	0.000000	-0.000123	0.000000	-0.000002	0.000002	0.000000	0.000000
0.601250	11.814401	25.087489	-0.035451	-0.038647	2.618425	0.000000	-0.000123	0.000000	-0.000001	0.000002	0.000000	0.000000
0.898573	11.842973	25.113999	-0.031606	-0.112103	2.618388	0.000000	-0.006544	0.000000	-0.000001	0.000002	0.000000	0.000000
1.339533	12.022825	24.934257	-0.377804	0.518168	2.631796	0.000000	0.067420	0.000000	0.000000	0.000002	0.000000	0.000000
1.780493	12.514424	24.206979	-0.741262	1.124862	2.677958	0.000000	0.142151	0.000000	0.000001	0.000002	0.000000	0.000000
2.221453	13.340230	22.965256	-1.138587	1.680376	2.757398	0.000000	0.218502	0.000000	0.000002	0.000002	0.000000	0.000000
2.662413	14.537972	21.265585	-1.587931	2.159434	2.871022	0.000000	0.297341	0.000000	0.000003	0.000002	0.000000	0.000000
3.108373	16.183081	19.160378	-2.114107	2.541374	3.021984	0.000000	0.380056	0.000000	0.000004	0.000002	0.000000	0.000000
3.657433	18.292720	16.795850	-1.705422	1.790548	3.205386	0.000000	0.287019	0.000000	0.000005	0.000002	0.000000	0.000000
4.206493	19.884368	15.181367	-1.176275	1.167259	3.336229	0.000000	0.188892	0.000000	0.000006	0.000002	0.000000	0.000000
4.755553	20.845596	14.201932	-0.564041	0.627111	3.412194	0.000000	0.087414	0.000000	0.000007	0.000002	0.000000	0.000000
5.304613	21.108510	13.787782	0.088033	0.131631	3.431933	0.000000	-0.015615	0.000000	0.000008	0.000001	0.000000	0.000000
5.603185	21.093102	13.694316	0.018724	0.145389	3.429948	0.000000	-0.006649	0.000000	0.000008	0.000001	0.000000	0.000000
5.936519	21.085889	13.605675	0.002915	0.120534	3.427731	0.000000	-0.006649	0.000000	0.000009	0.000001	0.000000	0.000000
6.269852	21.089214	13.533604	-0.012893	0.095678	3.425514	0.000000	-0.006649	0.000000	0.000009	0.000001	0.000000	0.000000
6.604435	21.103151	13.477927	-0.028761	0.070730	3.423289	0.000000	-0.006649	0.000000	0.000010	0.000001	0.000000	0.000000
6.901758	21.124446	13.442459	-0.098051	0.083679	3.421312	0.000000	0.002290	0.000000	0.000010	0.000001	0.000000	0.000000
7.450818	20.872138	13.611568	0.554858	-0.393494	3.394371	0.000000	-0.100278	0.000000	0.000011	0.000001	0.000000	0.000000
7.999878	19.920235	14.316893	1.168575	-0.898694	3.311520	0.000000	-0.201067	0.000000	0.000011	0.000001	0.000000	0.000000
8.548938	18.335974	15.608675	1.699750	-1.467907	3.174230	0.000000	-0.298290	0.000000	0.000012	0.000000	0.000000	0.000000
9.097998	16.231259	17.578923	2.110863	-2.141676	2.984934	0.000000	-0.390221	0.000000	0.000012	-0.000000	0.000000	0.000000
9.543958	14.589255	19.334475	1.584182	-1.778253	2.829215	0.000000	-0.308529	0.000000	0.000012	0.000000	0.000000	0.000000
9.984918	13.395105	20.712609	1.134159	-1.335158	2.710409	0.000000	-0.230835	0.000000	0.000012	0.000001	0.000000	0.000000
10.425878	12.573577	21.671587	0.735953	-0.831315	2.625251	0.000000	-0.155769	0.000000	0.000012	0.000001	0.000000	0.000000
10.866838	12.087136	22.167775	0.371371	-0.289647	2.572772	0.000000	-0.082478	0.000000	0.000013	0.000001	0.000000	0.000000
11.309048	11.913427	22.178069	0.052863	0.210758	2.552353	0.000000	-0.016384	0.000000	0.000013	0.000002	0.000000	0.000000
11.606371	11.889434	22.056906	0.027836	0.196756	2.547481	0.000000	-0.016384	0.000000	0.000014	0.000002	0.000000	0.000000
12.086371	11.882105	21.878870	-0.012567	0.174152	2.539616	0.000000	-0.016384	0.000000	0.000015	0.000002	0.000000	0.000000
12.566371	11.913563	21.722534	-0.052970	0.151548	2.531750	0.000000	-0.016384	0.000000	0.000015	0.000002	0.000000	0.000000
13.046371	11.983808	21.587898	-0.093374	0.128943	2.523885	0.000000	-0.016384	0.000000	0.000016	0.000002	0.000000	0.000000
13.526371	12.092840	21.474963	-0.133777	0.106339	2.516020	0.000000	-0.016384	0.000000	0.000017	0.000002	0.000000	0.000000
14.007621	12.241095	21.383518	-0.174285	0.083676	2.508134	0.000000	-0.016384	0.000000	0.000018	0.000002	0.000000	0.000000
14.304943	12.352174	21.337924	-0.169026	0.017357	2.503262	0.000000	-0.022522	0.000000	0.000018	0.000002	0.000000	0.000000
14.745903	12.659712	21.089099	-0.531046	0.544776	2.508956	0.000000	0.048374	0.000000	0.000019	0.000002	0.000000	0.000000
15.186863	13.295974	20.384327	-0.917329	1.047409	2.546003	0.000000	0.119821	0.000000	0.000020	0.000002	0.000000	0.000000
15.627823	14.290030	19.255675	-1.345521	1.502385	2.614827	0.000000	0.192633	0.000000	0.000021	0.000003	0.000000	0.000000
16.068783	15.687295	17.754495	-1.835187	1.889004	2.716210	0.000000	0.267639	0.000000	0.000022	0.000004	0.000000	0.000000
16.514743	17.575273	15.927594	-2.413456	2.190415	2.853001	0.000000	0.346155	0.000000	0.000024	0.000004	0.000000	0.000000
17.063803	20.000255	13.887797	-1.977003	1.546584	3.019341	0.000000	0.258870	0.000000	0.000026	0.000003	0.000000	0.000000
17.612863	21.865976	12.490726	-1.400905	1.012912	3.136425	0.000000	0.166993	0.000000	0.000028	0.000002	0.000000	0.000000
18.161923	23.040649	11.636871	-0.725854	0.551388	3.202174	0.000000	0.072155	0.000000	0.000029	0.000002	0.000000	0.000000
18.710983	23.441301	11.265414	0.000468	0.129138	3.215422	0.000000	-0.023964	0.000000	0.000030	0.000001	0.000000	0.000000
19.009556	23.481403	11.178840	-0.073548	0.131395	3.210775	0.000000	-0.015565	0.000000	0.000030	0.000001	0.000000	0.000000
19.342889	23.535193	11.101355	-0.087821	0.101062	3.205587	0.000000	-0.015565	0.000000	0.000030	0.000001	0.000000	0.000000
19.676223	23.598497	11.044091	-0.102093	0.070729	3.200398	0.000000	-0.015565	0.000000	0.000030	0.000001	0.000000	0.000000
20.010806	23.671901	11.006812	-0.233703	0.094817	3.195210	0.000000	0.000266	0.000000	0.000030	0.000001	0.000000	0.000000
20.308129	23.814810	10.958534	-0.309157	0.096187	3.195289	0.000000	0.008613	0.000000	0.000031	0.000001	0.000000	0.000000
20.857189	23.743538	11.074726	0.438195	-0.309055	3.173815	0.000000	-0.086720	0.000000	0.000031	-0.000000	0.000000	0.000000
21.406249	22.863793	11.645326	1.154594	-0.736310	3.100343	0.000000	-0.180515	0.000000	0.000031	-0.000001	0.000000	0.000000
21.955309	21.237716	12.710978	1.789439	-1.216011	2.976177	0.000000	-0.271108	0.000000	0.000030	-0.000002	0.000000	0.000000
22.504369	18.980164	14.347584	2.297886	-1.782325	2.803519	0.000000	-0.356892	0.000000	0.000028	-0.000003	0.000000	0.000000
22.950329	17.200879	15.817100	1.705981	-1.498946	2.661645	0.000000	-0.279725	0.000000	0.000027	-0.000002	0.000000	0.000000
23.391289	15.925743	16.988853	1.196714	-1.148217	2.554611	0.000000	-0.206199	0.000000	0.000026	-0.000002	0.000000	0.000000
23.832249	15.074024	17.826984	0.742123	-0.745246	2.479450	0.000000	-0.135021	0.000000	0.000026	-0.000001	0.000000	0.000000
24.273209	14.606809	18.293359	0.321436	-0.308366	2.435308	0.000000	-0.065381	0.000000	0.000026	-0.000000	0.000000	0.000000
24.715418	14.502876	18.366515	-0.049094	0.097446	2.421677	0.000000	-0.002423	0.000000	0.000026	0.000000	0.000000	0.000000
25.012741	14.538180	18.313428	-0.069645	0.081104	2.420957	0.000000	-0.002423	0.000000	0.000026	0.000000	0.000000	0.000000
25.346075	14.592289	18.265466	-0.092684	0.062783	2.420149	0.000000	-0.002423	0.000000	0.000026	0.000000	0.000000	0.000000
25.679408	14.661759	18.229718	-0.115723	0.044462	2.419341	0.000000	-0.002423	0.000000	0.000026	0.000000	0.000000	0.000000
26.013991	14.746635	18.206488	-0.019215	-0.121628	2.418506	0.000000	-0.022043	0.000000	0.000026	0.000000	0.000000	0.000000
26.311314	14.764058	18.283741	-0.003187	-0.183027	2.411952	0.000000	-0.027957	0.000000	0.000026	0.000000	0.000000	0.000000
26.752274	14.948743	18.246904	-0.417226	0.266246	2.414725	0.000000	0.040548	0.000000	0.000026	0.000001	0.000000	0.000000
27.193234	15.505571	17.817694	-0.850326	0.703404	2.447779	0.000000	0.109514	0.000000	0.000027	0.000001	0.000000	0.000000
27.634194	16.459981	17.015639	-1.322275	1.108558	2.511490	0.000000	0.179728	0.000000	0.000027	0.000002	0.000000	0.000000
28.075154	17.855578	15.877233	-1.854636	1.463273	2.606583	0.000000	0.251989	0.000000	0.000029	0.000003	0.000000	0.000000
28.521114	19.780365	14.437118	-2.476704	1.752322	2.735745	0.000000	0.327563	0.000000	0.000030	0.000004	0.000000	0.000000
29.070174	22.226755	12.832668	-1.952514	1.187102	2.892947	0.000000	0.244225	0.000000	0.000032	0.000003	0.000000	0.000000
29.619234	24.017918	11.799102	-1.290408	0.706436	3.003135	0.000000	0.156555	0.000000	0.000033	0.000002	0.000000	0.000000
30.168294	25.027336	11.262802	-0.537154	0.276089	3.064352	0.000000	0.066109	0.000000	0.000033	0.000000	0.000000	0.000000
30.717354	25.183707	11.185568	0.254042	-0.134593	3.075514	0.000000	-0.025511	0.000000	0.000033	-0.000001	0.000000	0.000000
31.015927	25.074953	11.256550	0.175984	-0.132364	3.070296	0.000000	-0.017477	0.000000	0.000033	-0.000001	0.000000	0.000000
31.349260	24.962199	11.354837	0.162279	-0.162496	3.064471	0.000000	-0.017477	0.000000	0.000033	-0.000001	0.000000	0.000000
31.682593	24.858581	11.473211	0.148574	-0.192627	3.058645	0.000000	-0.017477	0.000000	0.000033	-0.000001	0.000000	0.000000
32.017177	24.763763	11.612230	0.134817	-0.222871	3.052798	0.000000	-0.017477	0.000000	0.000033	-0.000001	0.000000	0.000000
32.314499	24.687229	11.752750	0.058107	-0.219048	3.047602	0.000000	-0.009516	0.000000	0.000033	-0.000000	0.000000	0.000000
32.863559	24.200408	12.232458	0.823289	-0.659799	3.017513	0.000000	-0.099925	0.000000	0.000032	-0.000001	0.000000	0.000000
33.412619	22.900441	13.218977	1.530317	-1.147547	2.938200	0.000000	-0.188560	0.000000	0.000031	-0.000002	0.000000	0.000000
33.961679	20.879151	14.782573	2.129251	-1.717031	2.811068	0.000000	-0.273852	0.000000	0.000029	-0.000003	0.000000	0.000000
34.510739	18.279313	17.034619	2.577786	-2.408816	2.638373	0.000000	-0.354285	0.000000	0.000027	-0.000004	0.000000	0.000000
34.956699	16.257768	19.049033	1.971471	-2.089353	2.496710	0.000000	-0.281400	0.000000	0.000025	-0.000004	0.000000	0.000000
35.397659	14.750235	20.715556	1.460249	-1.675569	2.387997	0.000000	-0.212147	0.000000	0.000024	-0.000003	0.000000	0.000000
35.838619	13.662547	21.982014	1.015742	-1.185548	2.309261	0.000000	-0.145311	0.000000	0.000023	-0.000002	0.000000	0.000000
36.279579	12.945012	22.790784	0.617641	-0.641585	2.259604	0.000000	-0.080129	0.000000	0.000022	-0.000002	0.000000	0.000000
36.721789	12.564151	23.105381	0.278458	-0.125134	2.238435	0.000000	-0.021349	0.000000	0.000021	-0.000001	0.000000	0.000000
37.019112	12.406148	23.183677	0.252959	-0.138204	2.232088	0.000000	-0.021349	0.000000	0.000021	-0.000001	0.000000	0.000000
37.352445	12.247038	23.280697	0.224371	-0.152856	2.224972	0.000000	-0.021349	0.000000	0.000020	-0.000001	0.000000	0.000000
37.685779	12.106987	23.387485	0.195784	-0.167509	2.217856	0.000000	-0.021349	0.000000	0.000020	-0.000001	0.000000	0.000000
38.020362	11.985576	23.504497	0.167089	-0.182216	2.210714	0.000000	-0.021349	0.000000	0.000019	-0.000001	0.000000	0.000000
38.317684	11.893799	23.616737	0.170751	-0.253191	2.204367	0.000000	-0.026753	0.000000	0.000019	-0.000001	0.000000	0.000000
38.758644	11.894803	23.578427	-0.173037	0.339740	2.206490	0.000000	0.036391	0.000000	0.000018	-0.000001	0.000000	0.000000
39.199604	12.201328	23.022044	-0.524731	0.917213	2.236523	0.000000	0.099951	0.000000	0.000018	-0.000001	0.000000	0.000000
39.640564	12.827378	21.972903	-0.900398	1.452954	2.294806	0.000000	0.164648	0.000000	0.000018	-0.000000	0.000000	0.000000
40.081524	13.801555	20.478738	-1.317202	1.922586	2.382004	0.000000	0.231221	0.000000	0.000018	0.000000	0.000000	0.000000
40.527484	15.185945	18.584952	-1.798014	2.306030	2.500582	0.000000	0.300833	0.000000	0.000018	0.000001	0.000000	0.000000
41.076544	16.952431	16.456711	-1.400231	1.593001	2.645239	0.000000	0.225318	0.000000	0.000018	0.000000	0.000000	0.000000
41.625604	18.224874	15.044934	-0.903543	0.993438	2.747274	0.000000	0.145806	0.000000	0.000018	-0.000000	0.000000	0.000000
42.174664	18.913396	14.249062	-0.343034	0.464635	2.804877	0.000000	0.063708	0.000000	0.000018	-0.000001	0.000000	0.000000
42.723724	18.969361	14.012408	0.241706	-0.031073	2.817027	0.000000	-0.019519	0.000000	0.000017	-0.000001	0.000000	0.000000
43.022297	18.859493	14.015465	0.175829	-0.015775	2.813396	0.000000	-0.012160	0.000000	0.000017	-0.000001	0.000000	0.000000
43.502297	18.703291	14.047052	0.149591	-0.050031	2.807560	0.000000	-0.012160	0.000000	0.000016	-0.000001	0.000000	0.000000
43.982297	18.572278	14.111525	0.123353	-0.084287	2.801724	0.000000	-0.012160	0.000000	0.000016	-0.000001	0.000000	0.000000
44.462297	18.466454	14.208884	0.097114	-0.118544	2.795888	0.000000	-0.012160	0.000000	0.000015	-0.000001	0.000000	0.000000
44.942297	18.385818	14.339129	0.070876	-0.152800	2.790052	0.000000	-0.012160	0.000000	0.000014	-0.000001	0.000000	0.000000
45.423547	18.330487	14.502548	-0.046250	-0.115291	2.784217	0.000000	0.001634	0.000000	0.000014	-0.000001	0.000000	0.000000
45.720870	18.362822	14.577282	-0.110478	-0.097982	2.784704	0.000000	0.008910	0.000000	0.000013	-0.000001	0.000000	0.000000
46.269930	18.174962	14.966730	0.450601	-0.615505	2.767034	0.000000	-0.073182	0.000000	0.000012	-0.000002	0.000000	0.000000
46.818990	17.384880	15.945077	0.979852	-1.176869	2.704582	0.000000	-0.153975	0.000000	0.000011	-0.000002	0.000000	0.000000
47.368050	16.048384	17.582006	1.439890	-1.822059	2.598455	0.000000	-0.232037	0.000000	0.000010	-0.000002	0.000000	0.000000
47.917110	14.259877	19.994114	1.798222	-2.597031	2.450536	0.000000	-0.305983	0.000000	0.000009	-0.000003	0.000000	0.000000
48.363070	12.868191	22.138576	1.333488	-2.191394	2.329369	0.000000	-0.237703	0.000000	0.000007	-0.000003	0.000000	0.000000
48.804030	11.872341	23.855471	0.933447	-1.687329	2.239008	0.000000	-0.172528	0.000000	0.000006	-0.000002	0.000000	0.000000
49.244990	11.209227	25.092140	0.576053	-1.106491	2.176927	0.000000	-0.109318	0.000000	0.000005	-0.000002	0.000000	0.000000
49.685950	10.848554	25.792314	0.244976	-0.475309	2.142418	0.000000	-0.047353	0.000000	0.000004	-0.000002	0.000000	0.000000
50.128160	10.773965	25.923853	-0.048604	0.113880	2.135099	0.000000	0.008838	0.000000	0.000003	-0.000002	0.000000	0.000000
50.425482	10.811091	25.859589	-0.076265	0.102262	2.137728	0.000000	0.008838	0.000000	0.000003	-0.000002	0.000000	0.000000
50.758816	10.872272	25.795756	-0.107277	0.089237	2.140674	0.000000	0.008838	0.000000	0.000002	-0.000002	0.000000	0.000000
51.092149	10.954128	25.740606	-0.138289	0.076212	2.143621	0.000000	0.008838	0.000000	0.000001	-0.000002	0.000000	0.000000
51.426732	11.056857	25.694503	-0.079717	-0.145308	2.146557	0.000000	-0.008577	0.000000	0.000001	-0.000002	0.000000	0.000000
51.724055	11.112306	25.784422	-0.079528	-0.220355	2.144007	0.000000	-0.013834	0.000000	0.000000	-0.000002	0.000000	0.000000
52.165015	11.327574	25.691866	-0.410505	0.429454	2.151495	0.000000	0.047823	0.000000	-0.000001	-0.000002	0.000000	0.000000
52.605975	11.841873	25.032690	-0.760237	1.059723	2.186265	0.000000	0.110026	0.000000	-0.000002	-0.000002	0.000000	0.000000
53.046935	12.678699	23.836886	-1.144702	1.641776	2.248715	0.000000	0.173482	0.000000	-0.000003	-0.000002	0.000000	0.000000
53.487895	13.876286	22.158863	-1.581465	2.149130	2.339554	0.000000	0.238913	0.000000	-0.000004	-0.000002	0.000000	0.000000
53.933855	15.509881	20.049883	-2.094703	2.560038	2.461323	0.000000	0.307465	0.000000	-0.000005	-0.000002	0.000000	0.000000
54.482915	17.613169	17.676659	-1.713330	1.787815	2.609960	0.000000	0.233157	0.000000	-0.000006	-0.000002	0.000000	0.000000
55.031975	19.228327	16.076945	-1.210935	1.142934	2.716601	0.000000	0.154714	0.000000	-0.000007	-0.000002	0.000000	0.000000
55.581035	20.241266	15.136797	-0.623007	0.579461	2.779353	0.000000	0.073527	0.000000	-0.000008	-0.000002	0.000000	0.000000
56.130095	20.580439	14.789249	0.008928	0.057262	2.797104	0.000000	-0.008964	0.000000	-0.000009	-0.000001	0.000000	0.000000
56.428668	20.611561	14.738062	-0.059385	0.075533	2.796611	0.000000	-0.001656	0.000000	-0.000009	-0.000001	0.000000	0.000000
56.762001	20.656561	14.695289	-0.075615	0.052786	2.796059	0.000000	-0.001656	0.000000	-0.000010	-0.000001	0.000000	0.000000
57.095334	20.712381	14.667680	-0.091844	0.030040	2.795508	0.000000	-0.001656	0.000000	-0.000010	-0.000001	0.000000	0.000000
57.429918	20.779290	14.655217	-0.108134	0.007209	2.794954	0.000000	-0.001656	0.000000	-0.000011	-0.000001	0.000000	0.000000
57.727240	20.847895	14.656963	-0.177087	0.025219	2.794463	0.000000	0.005647	0.000000	-0.000011	-0.000001	0.000000	0.000000
58.276300	20.686738	14.910640	0.468862	-0.489967	2.774920	0.000000	-0.076730	0.000000	-0.000012	-0.000001	0.000000	0.000000
58.825360	19.830321	15.745783	1.081693	-1.040052	2.710455	0.000000	-0.157746	0.000000	-0.000012	-0.000001	0.000000	0.000000
59.374420	18.339136	17.221876	1.618118	-1.664218	2.602210	0.000000	-0.235964	0.000000	-0.000013	-0.000000	0.000000	0.000000
59.923480	16.318512	19.444058	2.040248	-2.406922	2.452107	0.000000	-0.309997	0.000000	-0.000013	0.000000	0.000000	0.000000
60.369440	14.737043	21.419092	1.518523	-2.003107	2.329154	0.000000	-0.241700	0.000000	-0.000013	-0.000000	0.000000	0.000000
60.810400	13.599759	22.973941	1.070372	-1.509531	2.237025	0.000000	-0.176553	0.000000	-0.000013	-0.000001	0.000000	0.000000
61.251360	12.834731	24.061431	0.671124	-0.947272	2.173154	0.000000	-0.113417	0.000000	-0.000013	-0.000001	0.000000	0.000000
61.692320	12.407008	24.632082	0.302537	-0.341913	2.136812	0.000000	-0.051573	0.000000	-0.000014	-0.000001	0.000000	0.000000
62.134530	12.297103	24.659383	-0.022169	0.218468	2.127592	0.000000	0.004466	0.000000	-0.000014	-0.000002	0.000000	0.000000
62.431853	12.317478	24.533227	-0.046359	0.205836	2.128920	0.000000	0.004466	0.000000	-0.000015	-0.000002	0.000000	0.000000
62.765186	12.357424	24.400725	-0.073479	0.191673	2.130409	0.000000	0.004466	0.000000	-0.000015	-0.000002	0.000000	0.000000
63.098520	12.415450	24.277664	-0.100599	0.177510	2.131898	0.000000	0.004466	0.000000	-0.000016	-0.000002	0.000000	0.000000
63.433103	12.491875	24.163636	-0.127821	0.163294	2.133393	0.000000	0.004466	0.000000	-0.000016	-0.000002	0.000000	0.000000
63.730426	12.575075	24.070290	-0.121168	0.091624	2.134722	0.000000	-0.000770	0.000000	-0.000017	-0.000002	0.000000	0.000000
64.171386	12.842126	23.724419	-0.486744	0.689750	2.147928	0.000000	0.060723	0.000000	-0.000018	-0.000002	0.000000	0.000000
64.612346	13.440136	22.862925	-0.874557	1.256493	2.188377	0.000000	0.122906	0.000000	-0.000019	-0.000002	0.000000	0.000000
65.053306	14.396426	21.525007	-1.302327	1.766066	2.256529	0.000000	0.186490	0.000000	-0.000020	-0.000003	0.000000	0.000000
65.494266	15.754686	19.771537	-1.789596	2.195285	2.353160	0.000000	0.252198	0.000000	-0.000021	-0.000003	0.000000	0.000000
65.940226	17.600136	17.657496	-2.363317	2.525369	2.480945	0.000000	0.321180	0.000000	-0.000023	-0.000004	0.000000	0.000000
66.489286	19.966025	15.292644	-1.920160	1.807147	2.636917	0.000000	0.246118	0.000000	-0.000025	-0.000003	0.000000	0.000000
67.038346	21.767465	13.641599	-1.341374	1.217644	2.750413	0.000000	0.166690	0.000000	-0.000026	-0.000002	0.000000	0.000000
67.587406	22.877212	12.586759	-0.667839	0.714871	2.819422	0.000000	0.084306	0.000000	-0.000027	-0.000002	0.000000	0.000000
68.136466	23.216877	12.052992	0.052869	0.263016	2.842719	0.000000	0.000427	0.000000	-0.000028	-0.000001	0.000000	0.000000
68.435038	23.225379	11.885161	-0.020668	0.267595	2.845064	0.000000	0.007856	0.000000	-0.000028	-0.000001	0.000000	0.000000
68.768372	23.243944	11.716782	-0.035026	0.237541	2.847683	0.000000	0.007856	0.000000	-0.000029	-0.000001	0.000000	0.000000
69.101705	23.272081	11.568440	-0.049385	0.207486	2.850302	0.000000	0.007856	0.000000	-0.000029	-0.000001	0.000000	0.000000
69.436288	23.309950	11.439690	-0.063797	0.177319	2.852931	0.000000	0.007856	0.000000	-0.000029	-0.000001	0.000000	0.000000
69.733611	23.351694	11.342219	-0.137632	0.180154	2.855267	0.000000	0.015318	0.000000	-0.000029	-0.000001	0.000000	0.000000
70.282671	23.101761	11.371621	0.590139	-0.234020	2.840479	0.000000	-0.069106	0.000000	-0.000029	0.000000	0.000000	0.000000
