#ParticleID	Turn	x[m]	xp	y[m]	yp	z[m]	dE[GeV]# s	beta_x	beta_y	alpha_x	alpha_y	D_x	D_y	D_px	D_py	orbit_x	orbit_px	orbit_y	orbit_py
0.300000	11.831527	24.949174	-0.013316	-0.027760	2.618281	0.000000	-0.000053	0.000000	0.000000	0.000000	0.000000	0.000000
0.601250	11.847222	24.969540	-0.038782	-0.039844	2.618265	0.000000	-0.000053	0.000000	0.000001	0.000000	0.000000	0.000000
0.898573	11.877756	24.996779	-0.034788	-0.113069	2.618249	0.000000	-0.006473	0.000000	0.000001	0.000000	0.000000	0.000000
1.339533	12.060787	24.819254	-0.381861	0.514124	2.631689	0.000000	0.067487	0.000000	0.000001	0.000000	0.000000	0.000000
1.780493	12.556416	24.096836	-0.746380	1.117926	2.677880	0.000000	0.142216	0.000000	0.000001	0.000000	0.000000	0.000000
2.221453	13.387287	22.862395	-1.144999	1.670862	2.757349	0.000000	0.218565	0.000000	0.000001	0.000000	0.000000	0.000000
2.662413	14.591359	21.172096	-1.595930	2.147776	2.871002	0.000000	0.297403	0.000000	0.000001	0.000000	0.000000	0.000000
3.108373	16.244452	19.078054	-2.124074	2.528098	3.021993	0.000000	0.380118	0.000000	0.000001	0.000000	0.000000	0.000000
3.657433	18.364220	16.726251	-1.713794	1.780511	3.205429	0.000000	0.287081	0.000000	0.000001	0.000000	0.000000	0.000000
4.206493	19.963907	15.121347	-1.182460	1.159747	3.336307	0.000000	0.188951	0.000000	0.000001	0.000000	0.000000	0.000000
4.755553	20.930518	14.149026	-0.567602	0.621589	3.412304	0.000000	0.087470	0.000000	0.000001	0.000000	0.000000	0.000000
5.304613	21.195777	13.740033	0.087347	0.127705	3.432074	0.000000	-0.015563	0.000000	0.000001	0.000000	0.000000	0.000000
5.603185	21.180898	13.648999	0.017867	0.141293	3.430105	0.000000	-0.006595	0.000000	0.000001	0.000000	0.000000	0.000000
5.936519	21.174234	13.563107	0.002124	0.116384	3.427906	0.000000	-0.006595	0.000000	0.000001	0.000000	0.000000	0.000000
6.269852	21.178066	13.493821	-0.013618	0.091474	3.425708	0.000000	-0.006595	0.000000	0.000001	0.000000	0.000000	0.000000
6.604435	21.192466	13.440975	-0.029420	0.066471	3.423501	0.000000	-0.006595	0.000000	0.000001	0.000000	0.000000	0.000000
6.901758	21.214135	13.408054	-0.098890	0.079285	3.421540	0.000000	0.002344	0.000000	0.000001	0.000000	0.000000	0.000000
7.450818	20.961095	13.581474	0.557022	-0.396999	3.394628	0.000000	-0.100231	0.000000	0.000001	0.000000	0.000000	0.000000
7.999878	20.005227	14.290277	1.173589	-0.901560	3.311801	0.000000	-0.201029	0.000000	0.000001	-0.000000	0.000000	0.000000
8.548938	18.414050	15.584949	1.707259	-1.470338	3.174529	0.000000	-0.298261	0.000000	0.000001	-0.000000	0.000000	0.000000
9.097998	16.299956	17.557707	2.120337	-2.143844	2.985246	0.000000	-0.390202	0.000000	0.000001	-0.000000	0.000000	0.000000
9.543958	14.650441	19.315604	1.591610	-1.781324	2.829537	0.000000	-0.308502	0.000000	0.000001	-0.000000	0.000000	0.000000
9.984918	13.450507	20.696792	1.139897	-1.338985	2.710745	0.000000	-0.230799	0.000000	0.000001	-0.000000	0.000000	0.000000
10.425878	12.624565	21.659414	0.740264	-0.835722	2.625605	0.000000	-0.155725	0.000000	0.000001	0.000000	0.000000	0.000000
10.866838	12.134878	22.159671	0.374450	-0.294435	2.573148	0.000000	-0.082424	0.000000	0.000001	0.000000	0.000000	0.000000
11.309048	11.958937	22.174288	0.054967	0.205812	2.552756	0.000000	-0.016322	0.000000	0.000001	0.000000	0.000000	0.000000
11.606371	11.933666	22.056059	0.030030	0.191836	2.547903	0.000000	-0.016322	0.000000	0.000001	0.000000	0.000000	0.000000
12.086371	11.924162	21.882727	-0.010229	0.169272	2.540068	0.000000	-0.016322	0.000000	0.000001	0.000000	0.000000	0.000000
12.566371	11.953305	21.731057	-0.050487	0.146708	2.532233	0.000000	-0.016322	0.000000	0.000001	0.000000	0.000000	0.000000
13.046371	12.021098	21.601047	-0.090746	0.124145	2.524398	0.000000	-0.016322	0.000000	0.000001	0.000000	0.000000	0.000000
13.526371	12.127538	21.492699	-0.131005	0.101581	2.516564	0.000000	-0.016322	0.000000	0.000001	0.000000	0.000000	0.000000
14.007621	12.273055	21.405814	-0.171368	0.078959	2.508709	0.000000	-0.016322	0.000000	0.000001	0.000000	0.000000	0.000000
14.304943	12.382372	21.363017	-0.165940	0.012595	2.503856	0.000000	-0.022462	0.000000	0.000001	0.000000	0.000000	0.000000
14.745903	12.687457	21.118063	-0.528548	0.540794	2.509580	0.000000	0.048450	0.000000	0.000002	0.000000	0.000000	0.000000
15.186863	13.321731	20.416391	-0.915303	1.044388	2.546665	0.000000	0.119913	0.000000	0.000002	0.000000	0.000000	0.000000
15.627823	14.314173	19.289927	-1.343876	1.500463	2.615534	0.000000	0.192743	0.000000	0.000002	0.000000	0.000000	0.000000
16.068783	15.710126	17.789924	-1.833847	1.888268	2.716970	0.000000	0.267767	0.000000	0.000002	0.000000	0.000000	0.000000
16.514743	17.597021	15.963131	-2.412359	2.190908	2.853825	0.000000	0.346304	0.000000	0.000002	0.000000	0.000000	0.000000
17.063803	20.020193	13.923215	-1.974826	1.546310	3.020241	0.000000	0.258991	0.000000	0.000002	0.000000	0.000000	0.000000
17.612863	21.882996	12.526873	-1.397802	1.011852	3.137384	0.000000	0.167084	0.000000	0.000002	0.000000	0.000000	0.000000
18.161923	23.053850	11.674646	-0.722045	0.549466	3.203175	0.000000	0.072214	0.000000	0.000002	0.000000	0.000000	0.000000
18.710983	23.450053	11.305832	0.004715	0.126218	3.216448	0.000000	-0.023937	0.000000	0.000002	0.000000	0.000000	0.000000
19.009556	23.487638	11.220899	-0.069328	0.128708	3.211810	0.000000	-0.015534	0.000000	0.000002	0.000000	0.000000	0.000000
19.342889	23.538609	11.145160	-0.083588	0.098509	3.206632	0.000000	-0.015534	0.000000	0.000002	0.000000	0.000000	0.000000
19.676223	23.599088	11.089553	-0.097848	0.068310	3.201454	0.000000	-0.015534	0.000000	0.000002	0.000000	0.000000	0.000000
20.010806	23.669647	11.053847	-0.229434	0.092766	3.196277	0.000000	0.000303	0.000000	0.000002	0.000000	0.000000	0.000000
20.308129	23.810010	11.006750	-0.304867	0.094395	3.196367	0.000000	0.008654	0.000000	0.000002	0.000000	0.000000	0.000000
20.857189	23.734138	11.125659	0.442234	-0.312242	3.174906	0.000000	-0.086714	0.000000	0.000002	-0.000000	0.000000	0.000000
21.406249	22.850227	11.700623	1.158098	-0.741119	3.101427	0.000000	-0.180544	0.000000	0.000002	-0.000000	0.000000	0.000000
21.955309	21.220713	12.772597	1.792159	-1.222784	2.977235	0.000000	-0.271171	0.000000	0.000002	-0.000000	0.000000	0.000000
22.504369	18.960696	14.417933	2.299631	-1.791546	2.804532	0.000000	-0.356989	0.000000	0.000002	-0.000000	0.000000	0.000000
22.950329	17.179770	15.894968	1.707934	-1.506518	2.662619	0.000000	-0.279797	0.000000	0.000002	-0.000000	0.000000	0.000000
23.391289	15.902788	17.072544	1.198965	-1.153802	2.555558	0.000000	-0.206246	0.000000	0.000002	-0.000000	0.000000	0.000000
23.832249	15.048917	17.914628	0.744773	-0.748590	2.480382	0.000000	-0.135044	0.000000	0.000002	-0.000000	0.000000	0.000000
24.273209	14.579145	18.382904	0.324608	-0.309317	2.436235	0.000000	-0.065380	0.000000	0.000002	-0.000000	0.000000	0.000000
24.715418	14.472123	18.455821	-0.045325	0.098702	2.422610	0.000000	-0.002401	0.000000	0.000002	-0.000000	0.000000	0.000000
25.012741	14.505196	18.401965	-0.065911	0.082435	2.421896	0.000000	-0.002401	0.000000	0.000002	-0.000000	0.000000	0.000000
25.346075	14.556830	18.353087	-0.088991	0.064198	2.421096	0.000000	-0.002401	0.000000	0.000002	-0.000000	0.000000	0.000000
25.679408	14.623851	18.316367	-0.112072	0.045961	2.420295	0.000000	-0.002401	0.000000	0.000002	-0.000000	0.000000	0.000000
26.013991	14.706299	18.292107	-0.015931	-0.120739	2.419467	0.000000	-0.022030	0.000000	0.000002	-0.000000	0.000000	0.000000
26.311314	14.721785	18.368807	-0.000052	-0.182275	2.412917	0.000000	-0.027947	0.000000	0.000002	-0.000000	0.000000	0.000000
26.752274	14.903238	18.330292	-0.413005	0.269287	2.415700	0.000000	0.040583	0.000000	0.000002	0.000000	0.000000	0.000000
27.193234	15.455796	17.897437	-0.844828	0.708597	2.448776	0.000000	0.109575	0.000000	0.000002	0.000000	0.000000	0.000000
27.634194	16.404703	17.089938	-1.315248	1.115666	2.512520	0.000000	0.179815	0.000000	0.000002	0.000000	0.000000	0.000000
28.075154	17.793313	15.944534	-1.845758	1.471973	2.607658	0.000000	0.252102	0.000000	0.000002	0.000000	0.000000	0.000000
28.521114	19.709198	14.496091	-2.465551	1.762220	2.736877	0.000000	0.327705	0.000000	0.000002	0.000000	0.000000	0.000000
29.070174	22.144293	12.882073	-1.943220	1.194733	2.894149	0.000000	0.244329	0.000000	0.000002	0.000000	0.000000	0.000000
29.619234	23.926577	11.841118	-1.283630	0.712344	3.004384	0.000000	0.156620	0.000000	0.000002	0.000000	0.000000	0.000000
30.168294	24.930160	11.299080	-0.533370	0.280694	3.065626	0.000000	0.066132	0.000000	0.000002	-0.000000	0.000000	0.000000
30.717354	25.084153	11.217351	0.254564	-0.130963	3.076790	0.000000	-0.025528	0.000000	0.000002	-0.000000	0.000000	0.000000
31.015927	24.974959	11.286083	0.176696	-0.128547	3.071568	0.000000	-0.017489	0.000000	0.000002	-0.000000	0.000000	0.000000
31.349260	24.861749	11.381788	0.162933	-0.158570	3.065739	0.000000	-0.017489	0.000000	0.000002	-0.000000	0.000000	0.000000
31.682593	24.757715	11.497509	0.149170	-0.188593	3.059909	0.000000	-0.017489	0.000000	0.000002	-0.000000	0.000000	0.000000
32.017177	24.662518	11.633792	0.135355	-0.218728	3.054057	0.000000	-0.017489	0.000000	0.000002	-0.000000	0.000000	0.000000
32.314499	24.585680	11.771820	0.058841	-0.214751	3.048858	0.000000	-0.009523	0.000000	0.000002	-0.000000	0.000000	0.000000
32.863559	24.099908	12.247001	0.820656	-0.655803	3.018754	0.000000	-0.099972	0.000000	0.000002	-0.000000	0.000000	0.000000
33.412619	22.804606	13.229165	1.524505	-1.143566	2.939403	0.000000	-0.188647	0.000000	0.000002	-0.000000	0.000000	0.000000
33.961679	20.791268	14.788269	2.120669	-1.712783	2.812212	0.000000	-0.273976	0.000000	0.000002	-0.000000	0.000000	0.000000
34.510739	18.202107	17.035365	2.567041	-2.403998	2.639437	0.000000	-0.354446	0.000000	0.000001	-0.000000	0.000000	0.000000
34.956699	16.189074	19.045233	1.963065	-2.084018	2.497706	0.000000	-0.281534	0.000000	0.000001	-0.000000	0.000000	0.000000
35.397659	14.688076	20.706913	1.453779	-1.669966	2.388939	0.000000	-0.212256	0.000000	0.000001	-0.000000	0.000000	0.000000
35.838619	13.605354	21.968404	1.010911	-1.179931	2.310159	0.000000	-0.145396	0.000000	0.000001	-0.000000	0.000000	0.000000
36.279579	12.891441	22.772309	0.614229	-0.636211	2.260469	0.000000	-0.080191	0.000000	0.000001	-0.000000	0.000000	0.000000
36.721789	12.513029	23.082353	0.276189	-0.120202	2.239276	0.000000	-0.021392	0.000000	0.000001	-0.000000	0.000000	0.000000
37.019112	12.356398	23.157715	0.250615	-0.133269	2.232916	0.000000	-0.021392	0.000000	0.000001	-0.000000	0.000000	0.000000
37.352445	12.198878	23.251445	0.221945	-0.147919	2.225785	0.000000	-0.021392	0.000000	0.000001	-0.000000	0.000000	0.000000
37.685779	12.060472	23.354941	0.193274	-0.162569	2.218655	0.000000	-0.021392	0.000000	0.000001	-0.000000	0.000000	0.000000
38.020362	11.940768	23.468646	0.164495	-0.177273	2.211497	0.000000	-0.021392	0.000000	0.000001	-0.000000	0.000000	0.000000
38.317684	11.850556	23.577946	0.167983	-0.248160	2.205137	0.000000	-0.026800	0.000000	0.000001	-0.000000	0.000000	0.000000
38.758644	11.853572	23.535667	-0.174850	0.343674	2.207244	0.000000	0.036365	0.000000	0.000001	-0.000000	0.000000	0.000000
39.199604	12.161306	22.976366	-0.525670	0.919871	2.237269	0.000000	0.099943	0.000000	0.000001	-0.000000	0.000000	0.000000
39.640564	12.787817	21.925490	-0.900507	1.454215	2.295553	0.000000	0.164660	0.000000	0.000001	-0.000000	0.000000	0.000000
40.081524	13.761727	20.430854	-1.316486	1.922393	2.382761	0.000000	0.231253	0.000000	0.000001	-0.000000	0.000000	0.000000
40.527484	15.145095	18.537894	-1.796434	2.304381	2.501357	0.000000	0.300884	0.000000	0.000001	-0.000000	0.000000	0.000000
41.076544	16.910701	16.410786	-1.400218	1.592577	2.646036	0.000000	0.225343	0.000000	0.000001	-0.000000	0.000000	0.000000
41.625604	18.183995	14.998820	-0.905098	0.994209	2.748077	0.000000	0.145806	0.000000	0.000001	-0.000000	0.000000	0.000000
42.174664	18.875039	14.201424	-0.346046	0.466655	2.805673	0.000000	0.063682	0.000000	0.000000	-0.000000	0.000000	0.000000
42.723724	18.935020	13.961803	0.237449	-0.027659	2.817801	0.000000	-0.019571	0.000000	0.000000	-0.000000	0.000000	0.000000
43.022297	18.827646	13.962922	0.171650	-0.012566	2.814156	0.000000	-0.012209	0.000000	0.000000	-0.000000	0.000000	0.000000
43.502297	18.675460	13.991488	0.145404	-0.046948	2.808296	0.000000	-0.012209	0.000000	0.000000	-0.000000	0.000000	0.000000
43.982297	18.548469	14.053062	0.119159	-0.081330	2.802436	0.000000	-0.012209	0.000000	0.000000	-0.000000	0.000000	0.000000
44.462297	18.446675	14.147643	0.092913	-0.115713	2.796575	0.000000	-0.012209	0.000000	0.000000	-0.000000	0.000000	0.000000
44.942297	18.370076	14.275230	0.066668	-0.150095	2.790715	0.000000	-0.012209	0.000000	0.000000	-0.000000	0.000000	0.000000
45.423547	18.318799	14.436107	-0.050408	-0.113041	2.784857	0.000000	0.001589	0.000000	0.000000	-0.000000	0.000000	0.000000
45.720870	18.353611	14.509528	-0.114634	-0.095989	2.785330	0.000000	0.008867	0.000000	0.000000	-0.000000	0.000000	0.000000
46.269930	18.170448	14.895646	0.446254	-0.611396	2.767630	0.000000	-0.073244	0.000000	0.000000	-0.000000	0.000000	0.000000
46.818990	17.385104	15.868192	0.975621	-1.170351	2.705138	0.000000	-0.154056	0.000000	0.000000	-0.000000	0.000000	0.000000
47.368050	16.053052	17.496437	1.436076	-1.812668	2.598961	0.000000	-0.232135	0.000000	-0.000000	-0.000000	0.000000	0.000000
47.917110	14.268382	19.896359	1.795093	-2.584097	2.450982	0.000000	-0.306097	0.000000	-0.000000	-0.000000	0.000000	0.000000
48.363070	12.879415	22.030211	1.330497	-2.180639	2.329765	0.000000	-0.237806	0.000000	-0.000000	-0.000000	0.000000	0.000000
48.804030	11.886194	23.738762	0.930454	-1.679233	2.239360	0.000000	-0.172621	0.000000	-0.000000	-0.000000	0.000000	0.000000
49.244990	11.225771	24.969604	0.572921	-1.101423	2.177239	0.000000	-0.109403	0.000000	-0.000000	-0.000000	0.000000	0.000000
49.685950	10.867973	25.666734	0.241564	-0.473499	2.142693	0.000000	-0.047430	0.000000	-0.000000	-0.000000	0.000000	0.000000
50.128160	10.796584	25.798153	-0.052397	0.112654	2.135341	0.000000	0.008766	0.000000	-0.000000	-0.000000	0.000000	0.000000
50.425482	10.835952	25.734634	-0.080012	0.100983	2.137948	0.000000	0.008766	0.000000	-0.000000	-0.000000	0.000000	0.000000
50.758816	10.899613	25.671674	-0.110970	0.087898	2.140870	0.000000	0.008766	0.000000	-0.000000	-0.000000	0.000000	0.000000
51.092149	10.983913	25.617437	-0.141929	0.074813	2.143792	0.000000	0.008766	0.000000	-0.000000	-0.000000	0.000000	0.000000
51.426732	11.089059	25.572287	-0.083042	-0.145776	2.146704	0.000000	-0.008649	0.000000	-0.000001	-0.000000	0.000000	0.000000
51.724055	11.146466	25.662503	-0.082705	-0.220582	2.144132	0.000000	-0.013907	0.000000	-0.000001	-0.000000	0.000000	0.000000
52.165015	11.364903	25.571570	-0.414540	0.426013	2.151587	0.000000	0.047754	0.000000	-0.000001	-0.000000	0.000000	0.000000
52.605975	11.883205	24.916793	-0.765314	1.053225	2.186327	0.000000	0.109958	0.000000	-0.000001	-0.000000	0.000000	0.000000
53.046935	12.725053	23.727965	-1.151054	1.632516	2.248745	0.000000	0.173415	0.000000	-0.000001	-0.000000	0.000000	0.000000
53.487895	13.928908	22.059176	-1.589381	2.137529	2.339555	0.000000	0.238847	0.000000	-0.000001	-0.000000	0.000000	0.000000
53.933855	15.570401	19.961400	-2.104562	2.546620	2.461293	0.000000	0.307398	0.000000	-0.000001	-0.000000	0.000000	0.000000
54.482915	17.683712	17.600976	-1.721616	1.777784	2.609893	0.000000	0.233092	0.000000	-0.000001	-0.000000	0.000000	0.000000
55.031975	19.306831	16.010753	-1.217063	1.135576	2.716497	0.000000	0.154652	0.000000	-0.000001	-0.000000	0.000000	0.000000
55.581035	20.325109	15.077463	-0.626543	0.574253	2.779216	0.000000	0.073469	0.000000	-0.000001	-0.000000	0.000000	0.000000
56.130095	20.666619	14.734630	0.008233	0.053833	2.796935	0.000000	-0.009018	0.000000	-0.000001	-0.000000	0.000000	0.000000
56.428668	20.698271	14.685596	-0.060243	0.071896	2.796425	0.000000	-0.001710	0.000000	-0.000001	-0.000000	0.000000	0.000000
56.762001	20.743820	14.645270	-0.076406	0.049081	2.795855	0.000000	-0.001710	0.000000	-0.000001	-0.000000	0.000000	0.000000
57.095334	20.800145	14.620155	-0.092569	0.026265	2.795285	0.000000	-0.001710	0.000000	-0.000001	-0.000000	0.000000	0.000000
57.429918	20.867517	14.610241	-0.108792	0.003365	2.794713	0.000000	-0.001710	0.000000	-0.000001	-0.000000	0.000000	0.000000
57.727240	20.936496	14.614291	-0.177913	0.021199	2.794204	0.000000	0.005591	0.000000	-0.000001	-0.000000	0.000000	0.000000
58.276300	20.774612	14.871731	0.471004	-0.492842	2.774633	0.000000	-0.076777	0.000000	-0.000001	-0.000000	0.000000	0.000000
58.825360	19.914273	15.709499	1.086652	-1.041986	2.710144	0.000000	-0.157784	0.000000	-0.000001	0.000000	0.000000	0.000000
59.374420	18.416248	17.187266	1.625543	-1.665350	2.601881	0.000000	-0.235991	0.000000	-0.000001	0.000000	0.000000	0.000000
59.923480	16.386349	19.410290	2.049615	-2.407332	2.451766	0.000000	-0.310013	0.000000	-0.000001	0.000000	0.000000	0.000000
60.369440	14.797452	21.386217	1.525871	-2.004694	2.328804	0.000000	-0.241725	0.000000	-0.000001	0.000000	0.000000	0.000000
60.810400	13.654445	22.942957	1.076052	-1.512214	2.236662	0.000000	-0.176587	0.000000	-0.000001	0.000000	0.000000	0.000000
61.251360	12.885045	24.033253	0.675396	-0.950929	2.172773	0.000000	-0.113461	0.000000	-0.000001	-0.000000	0.000000	0.000000
61.692320	12.454102	24.607499	0.305596	-0.346378	2.136409	0.000000	-0.051626	0.000000	-0.000001	-0.000000	0.000000	0.000000
62.134530	12.341976	24.639033	-0.020077	0.213456	2.127162	0.000000	0.004403	0.000000	-0.000001	-0.000000	0.000000	0.000000
62.431853	12.361080	24.515853	-0.044177	0.200839	2.128471	0.000000	0.004403	0.000000	-0.000001	-0.000000	0.000000	0.000000
62.765186	12.399538	24.386676	-0.071196	0.186694	2.129939	0.000000	0.004403	0.000000	-0.000001	-0.000000	0.000000	0.000000
63.098520	12.456008	24.266928	-0.098215	0.172549	2.131407	0.000000	0.004403	0.000000	-0.000001	-0.000000	0.000000	0.000000
63.433103	12.530804	24.156215	-0.125335	0.158351	2.132880	0.000000	0.004403	0.000000	-0.000001	-0.000000	0.000000	0.000000
63.730426	12.612499	24.065804	-0.118505	0.086716	2.134189	0.000000	-0.000830	0.000000	-0.000001	-0.000000	0.000000	0.000000
64.171386	12.877555	23.724274	-0.484864	0.684851	2.147365	0.000000	0.060648	0.000000	-0.000001	-0.000000	0.000000	0.000000
64.612346	13.474221	22.867015	-0.873375	1.251826	2.187777	0.000000	0.122816	0.000000	-0.000002	-0.000000	0.000000	0.000000
65.053306	14.429756	21.533031	-1.301789	1.761843	2.255885	0.000000	0.186384	0.000000	-0.000002	-0.000000	0.000000	0.000000
65.494266	15.787817	19.783018	-1.789677	2.191698	2.352464	0.000000	0.252074	0.000000	-0.000002	-0.000000	0.000000	0.000000
65.940226	17.633619	17.671825	-2.364025	2.522591	2.480188	0.000000	0.321038	0.000000	-0.000002	-0.000000	0.000000	0.000000
66.489286	19.999530	15.309972	-1.919489	1.804431	2.636087	0.000000	0.246002	0.000000	-0.000002	-0.000000	0.000000	0.000000
67.038346	21.799495	13.661963	-1.339371	1.214797	2.749526	0.000000	0.166602	0.000000	-0.000002	-0.000000	0.000000	0.000000
67.587406	22.906373	12.610413	-0.664647	0.711690	2.818493	0.000000	0.084247	0.000000	-0.000002	-0.000000	0.000000	0.000000
68.136466	23.241981	12.080423	0.057025	0.259275	2.841765	0.000000	0.000398	0.000000	-0.000002	-0.000000	0.000000	0.000000
68.435038	23.248027	11.914753	-0.016549	0.264034	2.844101	0.000000	0.007823	0.000000	-0.000002	-0.000000	0.000000	0.000000
68.768372	23.263841	11.748706	-0.030891	0.234107	2.846709	0.000000	0.007823	0.000000	-0.000002	-0.000000	0.000000	0.000000
69.101705	23.289216	11.602610	-0.045233	0.204180	2.849316	0.000000	0.007823	0.000000	-0.000002	-0.000000	0.000000	0.000000
69.436288	23.324301	11.476031	-0.059629	0.174141	2.851934	0.000000	0.007823	0.000000	-0.000002	-0.000000	0.000000	0.000000
69.733611	23.363563	11.380415	-0.133468	0.177183	2.854260	0.000000	0.015281	0.000000	-0.000002	-0.000000	0.000000	0.000000
70.282671	23.108880	11.413678	0.594575	-0.238122	2.839460	0.000000	-0.069110	0.000000	-0.000002	0.000000	0.000000	0.000000
