#ParticleID	Turn	x[m]	xp	y[m]	yp	z[m]	dE[GeV]# s	beta_x	beta_y	alpha_x	alpha_y	D_x	D_y	D_px	D_py	orbit_x	orbit_px	orbit_y	orbit_py
0.300000	11.827583	24.963396	-0.012772	-0.027701	2.618205	0.000000	-0.000022	0.000000	-0.000001	0.000000	0.000000	0.000000
0.601250	11.842953	24.983724	-0.038246	-0.039778	2.618198	0.000000	-0.000022	0.000000	-0.000000	0.000000	0.000000	0.000000
0.898573	11.873171	25.010922	-0.034272	-0.113031	2.618191	0.000000	-0.006443	0.000000	-0.000000	0.000000	0.000000	0.000000
1.339533	12.055697	24.833198	-0.381227	0.514535	2.631644	0.000000	0.067516	0.000000	-0.000000	0.000000	0.000000	0.000000
1.780493	12.550704	24.110260	-0.745599	1.118690	2.677848	0.000000	0.142244	0.000000	-0.000000	0.000000	0.000000	0.000000
2.221453	13.380808	22.875001	-1.144036	1.671946	2.757329	0.000000	0.218592	0.000000	0.000000	0.000000	0.000000	0.000000
2.662413	14.583935	21.183622	-1.594740	2.149130	2.870993	0.000000	0.297430	0.000000	0.000000	0.000000	0.000000	0.000000
3.108373	16.235844	19.088275	-2.122601	2.529661	3.021996	0.000000	0.380145	0.000000	0.000000	0.000000	0.000000	0.000000
3.657433	18.354103	16.734980	-1.712536	1.781682	3.205447	0.000000	0.287107	0.000000	0.000001	0.000000	0.000000	0.000000
4.206493	19.952569	15.128967	-1.181506	1.160608	3.336339	0.000000	0.188977	0.000000	0.000001	0.000000	0.000000	0.000000
4.755553	20.918332	14.155841	-0.567021	0.622202	3.412350	0.000000	0.087494	0.000000	0.000001	0.000000	0.000000	0.000000
5.304613	21.183177	13.746290	0.087516	0.128114	3.432133	0.000000	-0.015540	0.000000	0.000001	0.000000	0.000000	0.000000
5.603185	21.168180	13.655000	0.018059	0.141725	3.430170	0.000000	-0.006573	0.000000	0.000001	0.000000	0.000000	0.000000
5.936519	21.161392	13.568817	0.002307	0.116824	3.427979	0.000000	-0.006573	0.000000	0.000001	0.000000	0.000000	0.000000
6.269852	21.165104	13.499235	-0.013445	0.091923	3.425788	0.000000	-0.006573	0.000000	0.000001	0.000000	0.000000	0.000000
6.604435	21.179391	13.446086	-0.029256	0.066928	3.423589	0.000000	-0.006573	0.000000	0.000001	0.000000	0.000000	0.000000
6.901758	21.200966	13.412892	-0.098700	0.079762	3.421635	0.000000	0.002367	0.000000	0.000001	0.000000	0.000000	0.000000
7.450818	20.947961	13.585863	0.556769	-0.396652	3.394734	0.000000	-0.100211	0.000000	0.000001	0.000000	0.000000	0.000000
7.999878	19.992608	14.294343	1.172911	-0.901317	3.311917	0.000000	-0.201013	0.000000	0.000002	0.000000	0.000000	0.000000
8.548938	18.402388	15.588798	1.706204	-1.470182	3.174653	0.000000	-0.298249	0.000000	0.000002	0.000000	0.000000	0.000000
9.097998	16.289626	17.561427	2.118979	-2.143764	2.985376	0.000000	-0.390194	0.000000	0.000002	0.000000	0.000000	0.000000
9.543958	14.641184	19.319194	1.590554	-1.781112	2.829671	0.000000	-0.308490	0.000000	0.000002	0.000000	0.000000	0.000000
9.984918	13.442068	20.700138	1.139092	-1.338649	2.710885	0.000000	-0.230784	0.000000	0.000002	0.000000	0.000000	0.000000
10.425878	12.616739	21.662416	0.739672	-0.835280	2.625752	0.000000	-0.155706	0.000000	0.000002	0.000000	0.000000	0.000000
10.866838	12.127490	22.162244	0.374046	-0.293906	2.573304	0.000000	-0.082401	0.000000	0.000002	0.000000	0.000000	0.000000
11.309048	11.951831	22.176364	0.054713	0.206399	2.552923	0.000000	-0.016296	0.000000	0.000002	0.000000	0.000000	0.000000
11.606371	11.926715	22.057786	0.029762	0.192420	2.548078	0.000000	-0.016296	0.000000	0.000002	0.000000	0.000000	0.000000
12.086371	11.917479	21.883895	-0.010519	0.169854	2.540255	0.000000	-0.016296	0.000000	0.000002	0.000000	0.000000	0.000000
12.566371	11.946912	21.731667	-0.050801	0.147287	2.532433	0.000000	-0.016296	0.000000	0.000002	0.000000	0.000000	0.000000
13.046371	12.015016	21.601104	-0.091082	0.124720	2.524611	0.000000	-0.016296	0.000000	0.000002	0.000000	0.000000	0.000000
13.526371	12.121790	21.492205	-0.131364	0.102153	2.516789	0.000000	-0.016296	0.000000	0.000003	0.000000	0.000000	0.000000
14.007621	12.267664	21.404770	-0.171750	0.079528	2.508947	0.000000	-0.016296	0.000000	0.000003	0.000000	0.000000	0.000000
14.304943	12.377213	21.361636	-0.166349	0.013166	2.504101	0.000000	-0.022436	0.000000	0.000003	0.000000	0.000000	0.000000
14.745903	12.682610	21.116198	-0.528852	0.541315	2.509838	0.000000	0.048482	0.000000	0.000003	0.000000	0.000000	0.000000
15.186863	13.317112	20.414097	-0.915517	1.044835	2.546939	0.000000	0.119953	0.000000	0.000003	0.000000	0.000000	0.000000
15.627823	14.309707	19.287279	-1.344009	1.500816	2.615827	0.000000	0.192789	0.000000	0.000003	0.000000	0.000000	0.000000
16.068783	15.705744	17.787012	-1.833905	1.888511	2.717286	0.000000	0.267822	0.000000	0.000004	0.000001	0.000000	0.000000
16.514743	17.592659	15.960056	-2.412345	2.191029	2.854166	0.000000	0.346367	0.000000	0.000004	0.000001	0.000000	0.000000
17.063803	20.015920	13.919983	-1.975002	1.546478	3.020614	0.000000	0.259043	0.000000	0.000004	0.000001	0.000000	0.000000
17.612863	21.879016	12.523425	-1.398156	1.012079	3.137781	0.000000	0.167123	0.000000	0.000004	0.000000	0.000000	0.000000
18.161923	23.050345	11.670909	-0.722551	0.549769	3.203590	0.000000	0.072240	0.000000	0.000005	0.000000	0.000000	0.000000
18.710983	23.447171	11.301711	0.004092	0.126617	3.216874	0.000000	-0.023925	0.000000	0.000005	0.000000	0.000000	0.000000
19.009556	23.485123	11.216550	-0.069944	0.129083	3.212240	0.000000	-0.015520	0.000000	0.000005	0.000000	0.000000	0.000000
19.342889	23.536507	11.140566	-0.084207	0.098870	3.207066	0.000000	-0.015520	0.000000	0.000005	0.000000	0.000000	0.000000
19.676223	23.597399	11.084724	-0.098470	0.068657	3.201893	0.000000	-0.015520	0.000000	0.000005	0.000000	0.000000	0.000000
20.010806	23.668375	11.048791	-0.230052	0.093073	3.196719	0.000000	0.000318	0.000000	0.000005	0.000000	0.000000	0.000000
20.308129	23.809107	11.001516	-0.305485	0.094673	3.196814	0.000000	0.008670	0.000000	0.000005	0.000000	0.000000	0.000000
20.857189	23.733928	11.120038	0.441599	-0.311810	3.175357	0.000000	-0.086712	0.000000	0.000005	0.000000	0.000000	0.000000
21.406249	22.850703	11.694430	1.157491	-0.740503	3.101876	0.000000	-0.180557	0.000000	0.000005	-0.000000	0.000000	0.000000
21.955309	21.221820	12.765605	1.791623	-1.221940	2.977673	0.000000	-0.271199	0.000000	0.000005	-0.000000	0.000000	0.000000
22.504369	18.962335	14.409862	2.299204	-1.790413	2.804951	0.000000	-0.357030	0.000000	0.000005	-0.000000	0.000000	0.000000
22.950329	17.181784	15.885964	1.707514	-1.505567	2.663022	0.000000	-0.279827	0.000000	0.000004	-0.000000	0.000000	0.000000
23.391289	15.905178	17.062798	1.198531	-1.153077	2.555950	0.000000	-0.206266	0.000000	0.000004	-0.000000	0.000000	0.000000
23.832249	15.051701	17.904353	0.744307	-0.748122	2.480767	0.000000	-0.135054	0.000000	0.000004	-0.000000	0.000000	0.000000
24.273209	14.582363	18.372340	0.324088	-0.309129	2.436618	0.000000	-0.065380	0.000000	0.000004	-0.000000	0.000000	0.000000
24.715418	14.475833	18.445217	-0.045914	0.098629	2.422995	0.000000	-0.002393	0.000000	0.000004	0.000000	0.000000	0.000000
25.012741	14.509256	18.391407	-0.066497	0.082353	2.422284	0.000000	-0.002393	0.000000	0.000004	0.000000	0.000000	0.000000
25.346075	14.561279	18.342587	-0.089572	0.064106	2.421486	0.000000	-0.002393	0.000000	0.000004	0.000000	0.000000	0.000000
25.679408	14.628686	18.305932	-0.112648	0.045859	2.420689	0.000000	-0.002393	0.000000	0.000004	0.000000	0.000000	0.000000
26.013991	14.711517	18.281744	-0.016460	-0.120768	2.419864	0.000000	-0.022024	0.000000	0.000004	0.000000	0.000000	0.000000
26.311314	14.727316	18.358464	-0.000562	-0.182287	2.413315	0.000000	-0.027942	0.000000	0.000004	0.000000	0.000000	0.000000
26.752274	14.909280	18.320083	-0.413659	0.268996	2.416103	0.000000	0.040598	0.000000	0.000004	0.000000	0.000000	0.000000
27.193234	15.462489	17.887604	-0.845656	0.708039	2.449187	0.000000	0.109600	0.000000	0.000004	0.000000	0.000000	0.000000
27.634194	16.412217	17.080704	-1.316288	1.114867	2.512945	0.000000	0.179851	0.000000	0.000004	0.000000	0.000000	0.000000
28.075154	17.801854	15.936097	-1.847057	1.470970	2.608101	0.000000	0.252150	0.000000	0.000005	0.000000	0.000000	0.000000
28.521114	19.719037	14.488624	-2.467172	1.761058	2.737345	0.000000	0.327764	0.000000	0.000005	0.000001	0.000000	0.000000
29.070174	22.155784	12.875723	-1.944592	1.193849	2.894645	0.000000	0.244373	0.000000	0.000005	0.000000	0.000000	0.000000
29.619234	23.939393	11.835615	-1.284655	0.711675	3.004899	0.000000	0.156647	0.000000	0.000005	0.000000	0.000000	0.000000
30.168294	24.943878	11.294216	-0.533977	0.280193	3.066152	0.000000	0.066143	0.000000	0.000006	0.000000	0.000000	0.000000
30.717354	25.098286	11.212962	0.254418	-0.131333	3.077316	0.000000	-0.025534	0.000000	0.000006	-0.000000	0.000000	0.000000
31.015927	24.989198	11.281926	0.176524	-0.128941	3.072093	0.000000	-0.017494	0.000000	0.000005	-0.000000	0.000000	0.000000
31.349260	24.876100	11.377899	0.162769	-0.158978	3.066262	0.000000	-0.017494	0.000000	0.000005	-0.000000	0.000000	0.000000
31.682593	24.772172	11.493897	0.149014	-0.189015	3.060430	0.000000	-0.017494	0.000000	0.000005	-0.000000	0.000000	0.000000
32.017177	24.677076	11.630468	0.135208	-0.219165	3.054577	0.000000	-0.017494	0.000000	0.000005	-0.000000	0.000000	0.000000
32.314499	24.600324	11.768759	0.058666	-0.215209	3.049375	0.000000	-0.009527	0.000000	0.000005	-0.000000	0.000000	0.000000
32.863559	24.114475	12.244407	0.820969	-0.656200	3.019265	0.000000	-0.099992	0.000000	0.000005	-0.000000	0.000000	0.000000
33.412619	22.818570	13.226986	1.525283	-1.143930	2.939898	0.000000	-0.188684	0.000000	0.000005	-0.000000	0.000000	0.000000
33.961679	20.804145	14.786484	2.121859	-1.713140	2.812682	0.000000	-0.274029	0.000000	0.000005	-0.000001	0.000000	0.000000
34.510739	18.213489	17.033979	2.568557	-2.404373	2.639875	0.000000	-0.354513	0.000000	0.000005	-0.000001	0.000000	0.000000
34.956699	16.199258	19.044222	1.964244	-2.084481	2.498116	0.000000	-0.281590	0.000000	0.000004	-0.000001	0.000000	0.000000
35.397659	14.697348	20.706342	1.454676	-1.670495	2.389327	0.000000	-0.212302	0.000000	0.000004	-0.000000	0.000000	0.000000
35.838619	13.613943	21.968320	1.011569	-1.180503	2.310529	0.000000	-0.145432	0.000000	0.000004	-0.000000	0.000000	0.000000
36.279579	12.899544	22.772739	0.614677	-0.636799	2.260825	0.000000	-0.080219	0.000000	0.000004	-0.000000	0.000000	0.000000
36.721789	12.520821	23.083299	0.276465	-0.120780	2.239622	0.000000	-0.021411	0.000000	0.000004	-0.000000	0.000000	0.000000
37.019112	12.364022	23.159006	0.250904	-0.133849	2.233256	0.000000	-0.021411	0.000000	0.000003	-0.000000	0.000000	0.000000
37.352445	12.206305	23.253122	0.222247	-0.148500	2.226119	0.000000	-0.021411	0.000000	0.000003	-0.000000	0.000000	0.000000
37.685779	12.067693	23.357006	0.193590	-0.163151	2.218982	0.000000	-0.021411	0.000000	0.000003	-0.000000	0.000000	0.000000
38.020362	11.947774	23.471101	0.164825	-0.177857	2.211819	0.000000	-0.021411	0.000000	0.000003	-0.000000	0.000000	0.000000
38.317684	11.857361	23.580749	0.168341	-0.248751	2.205453	0.000000	-0.026819	0.000000	0.000003	-0.000000	0.000000	0.000000
38.758644	11.860129	23.538956	-0.174643	0.343166	2.207553	0.000000	0.036353	0.000000	0.000003	-0.000000	0.000000	0.000000
39.199604	12.167743	22.980058	-0.525605	0.919468	2.237574	0.000000	0.099940	0.000000	0.000003	-0.000000	0.000000	0.000000
39.640564	12.794257	21.929484	-0.900581	1.453936	2.295859	0.000000	0.164665	0.000000	0.000003	0.000000	0.000000	0.000000
40.081524	13.768295	20.435034	-1.316701	1.922250	2.383071	0.000000	0.231265	0.000000	0.000003	0.000000	0.000000	0.000000
40.527484	15.151922	18.542137	-1.796802	2.304383	2.501674	0.000000	0.300904	0.000000	0.000003	0.000000	0.000000	0.000000
41.076544	16.917795	16.415079	-1.400334	1.592484	2.646361	0.000000	0.225353	0.000000	0.000003	0.000000	0.000000	0.000000
41.625604	18.191074	15.003270	-0.904954	0.994013	2.748405	0.000000	0.145805	0.000000	0.000003	-0.000000	0.000000	0.000000
42.174664	18.881820	14.206152	-0.345651	0.466344	2.805998	0.000000	0.063671	0.000000	0.000003	-0.000000	0.000000	0.000000
42.723724	18.941243	13.966946	0.238066	-0.028109	2.818116	0.000000	-0.019592	0.000000	0.000003	-0.000000	0.000000	0.000000
43.022297	18.833509	13.968323	0.172253	-0.012995	2.814465	0.000000	-0.012229	0.000000	0.000003	-0.000000	0.000000	0.000000
43.502297	18.680742	13.997296	0.146011	-0.047364	2.808595	0.000000	-0.012229	0.000000	0.000003	-0.000000	0.000000	0.000000
43.982297	18.553168	14.059262	0.119768	-0.081734	2.802725	0.000000	-0.012229	0.000000	0.000003	-0.000000	0.000000	0.000000
44.462297	18.450787	14.154224	0.093525	-0.116103	2.796855	0.000000	-0.012229	0.000000	0.000003	-0.000000	0.000000	0.000000
44.942297	18.373600	14.282180	0.067283	-0.150472	2.790985	0.000000	-0.012229	0.000000	0.000003	-0.000000	0.000000	0.000000
45.423547	18.321729	14.443414	-0.049804	-0.113369	2.785117	0.000000	0.001570	0.000000	0.000002	-0.000000	0.000000	0.000000
45.720870	18.356182	14.517027	-0.114033	-0.096290	2.785584	0.000000	0.008848	0.000000	0.000002	-0.000000	0.000000	0.000000
46.269930	18.172316	14.903603	0.446925	-0.611934	2.767872	0.000000	-0.073271	0.000000	0.000002	-0.000000	0.000000	0.000000
46.818990	17.386219	15.876886	0.976314	-1.171165	2.705362	0.000000	-0.154090	0.000000	0.000002	-0.000000	0.000000	0.000000
47.368050	16.053418	17.506202	1.436741	-1.813816	2.599164	0.000000	-0.232176	0.000000	0.000002	-0.000000	0.000000	0.000000
47.917110	14.268054	19.907603	1.795684	-2.585660	2.451162	0.000000	-0.306144	0.000000	0.000002	-0.000000	0.000000	0.000000
48.363070	12.878582	22.042747	1.331040	-2.181959	2.329925	0.000000	-0.237850	0.000000	0.000001	-0.000000	0.000000	0.000000
48.804030	11.884893	23.752332	0.930976	-1.680249	2.239502	0.000000	-0.172661	0.000000	0.000001	-0.000000	0.000000	0.000000
49.244990	11.224011	24.983919	0.573445	-1.102090	2.177364	0.000000	-0.109439	0.000000	0.000001	-0.000000	0.000000	0.000000
49.685950	10.865742	25.681472	0.242113	-0.473787	2.142803	0.000000	-0.047463	0.000000	0.000001	-0.000000	0.000000	0.000000
50.128160	10.793847	25.812972	-0.051804	0.112723	2.135437	0.000000	0.008736	0.000000	0.000001	-0.000000	0.000000	0.000000
50.425482	10.832864	25.749410	-0.079424	0.101058	2.138035	0.000000	0.008736	0.000000	0.000001	-0.000000	0.000000	0.000000
50.758816	10.896135	25.686397	-0.110389	0.087981	2.140947	0.000000	0.008736	0.000000	0.000001	-0.000000	0.000000	0.000000
51.092149	10.980049	25.632102	-0.141353	0.074903	2.143859	0.000000	0.008736	0.000000	0.000000	-0.000000	0.000000	0.000000
51.426732	11.084812	25.586890	-0.082507	-0.145797	2.146760	0.000000	-0.008680	0.000000	0.000000	-0.000000	0.000000	0.000000
51.724055	11.141904	25.677116	-0.082189	-0.220632	2.144179	0.000000	-0.013938	0.000000	0.000000	-0.000000	0.000000	0.000000
52.165015	11.359835	25.586056	-0.413907	0.426350	2.151621	0.000000	0.047724	0.000000	0.000000	-0.000000	0.000000	0.000000
52.605975	11.877517	24.930817	-0.764535	1.053933	2.186348	0.000000	0.109929	0.000000	-0.000000	-0.000000	0.000000	0.000000
53.046935	12.718600	23.741212	-1.150092	1.633563	2.248754	0.000000	0.173386	0.000000	-0.000000	-0.000000	0.000000	0.000000
53.487895	13.921511	22.071367	-1.588194	2.138867	2.339550	0.000000	0.238818	0.000000	-0.000000	-0.000000	0.000000	0.000000
53.933855	15.561823	19.972289	-2.103092	2.548189	2.461276	0.000000	0.307369	0.000000	-0.000000	-0.000000	0.000000	0.000000
54.482915	17.673630	17.610375	-1.720361	1.778945	2.609860	0.000000	0.233064	0.000000	-0.000001	-0.000000	0.000000	0.000000
55.031975	19.295530	16.019061	-1.216111	1.136412	2.716449	0.000000	0.154625	0.000000	-0.000001	-0.000000	0.000000	0.000000
55.581035	20.312961	15.085004	-0.625962	0.574823	2.779153	0.000000	0.073443	0.000000	-0.000001	-0.000000	0.000000	0.000000
56.130095	20.654057	14.741672	0.008402	0.054177	2.796860	0.000000	-0.009041	0.000000	-0.000001	-0.000000	0.000000	0.000000
56.428668	20.685591	14.692418	-0.060049	0.072267	2.796342	0.000000	-0.001733	0.000000	-0.000001	-0.000000	0.000000	0.000000
56.762001	20.731014	14.651842	-0.076222	0.049461	2.795764	0.000000	-0.001733	0.000000	-0.000001	-0.000000	0.000000	0.000000
57.095334	20.787219	14.626470	-0.092394	0.026655	2.795187	0.000000	-0.001733	0.000000	-0.000001	-0.000000	0.000000	0.000000
57.429918	20.854478	14.616292	-0.108627	0.003764	2.794607	0.000000	-0.001733	0.000000	-0.000001	-0.000000	0.000000	0.000000
57.727240	20.923361	14.620102	-0.177722	0.021622	2.794092	0.000000	0.005567	0.000000	-0.000001	-0.000000	0.000000	0.000000
58.276300	20.761511	14.877168	0.470753	-0.492579	2.774508	0.000000	-0.076797	0.000000	-0.000002	-0.000000	0.000000	0.000000
58.825360	19.901683	15.714726	1.085977	-1.041865	2.710010	0.000000	-0.157799	0.000000	-0.000002	-0.000000	0.000000	0.000000
59.374420	18.404611	17.192433	1.624492	-1.665361	2.601740	0.000000	-0.236002	0.000000	-0.000002	-0.000000	0.000000	0.000000
59.923480	16.376041	19.415542	2.048262	-2.407476	2.451620	0.000000	-0.310019	0.000000	-0.000002	-0.000000	0.000000	0.000000
60.369440	14.788213	21.391524	1.524818	-2.004673	2.328654	0.000000	-0.241735	0.000000	-0.000002	-0.000000	0.000000	0.000000
60.810400	13.646021	22.948174	1.075250	-1.512030	2.236507	0.000000	-0.176601	0.000000	-0.000002	-0.000000	0.000000	0.000000
61.251360	12.877232	24.038239	0.674807	-0.950591	2.172611	0.000000	-0.113479	0.000000	-0.000002	-0.000000	0.000000	0.000000
61.692320	12.446724	24.612124	0.305194	-0.345900	2.136239	0.000000	-0.051649	0.000000	-0.000002	-0.000000	0.000000	0.000000
62.134530	12.334879	24.643181	-0.020328	0.214041	2.126980	0.000000	0.004377	0.000000	-0.000002	-0.000000	0.000000	0.000000
62.431853	12.354136	24.519654	-0.044442	0.201423	2.128282	0.000000	0.004377	0.000000	-0.000002	-0.000000	0.000000	0.000000
62.765186	12.392776	24.390088	-0.071477	0.187277	2.129741	0.000000	0.004377	0.000000	-0.000002	-0.000000	0.000000	0.000000
63.098520	12.449438	24.269952	-0.098512	0.173130	2.131200	0.000000	0.004377	0.000000	-0.000002	-0.000000	0.000000	0.000000
63.433103	12.524438	24.158850	-0.125648	0.158931	2.132664	0.000000	0.004377	0.000000	-0.000002	-0.000000	0.000000	0.000000
63.730426	12.606324	24.068094	-0.118847	0.087290	2.133966	0.000000	-0.000857	0.000000	-0.000003	-0.000000	0.000000	0.000000
64.171386	12.871622	23.726036	-0.485073	0.685470	2.147129	0.000000	0.060616	0.000000	-0.000003	-0.000000	0.000000	0.000000
64.612346	13.468418	22.868220	-0.873462	1.252463	2.187525	0.000000	0.122778	0.000000	-0.000003	-0.000000	0.000000	0.000000
65.053306	14.423976	21.533678	-1.301756	1.762469	2.255615	0.000000	0.186339	0.000000	-0.000003	-0.000000	0.000000	0.000000
65.494266	15.781955	19.783129	-1.789524	2.192284	2.352173	0.000000	0.252022	0.000000	-0.000003	-0.000001	0.000000	0.000000
65.940226	17.627564	17.671442	-2.363744	2.523109	2.479872	0.000000	0.320978	0.000000	-0.000004	-0.000001	0.000000	0.000000
66.489286	19.993293	15.309054	-1.919441	1.804893	2.635741	0.000000	0.245952	0.000000	-0.000004	-0.000001	0.000000	0.000000
67.038346	21.793335	13.660553	-1.339558	1.215235	2.749156	0.000000	0.166564	0.000000	-0.000004	-0.000000	0.000000	0.000000
67.587406	22.900542	12.608521	-0.665056	0.712136	2.818106	0.000000	0.084221	0.000000	-0.000004	-0.000000	0.000000	0.000000
68.136466	23.236709	12.078022	0.056422	0.259761	2.841367	0.000000	0.000385	0.000000	-0.000004	-0.000000	0.000000	0.000000
68.435038	23.243109	11.912069	-0.017143	0.264502	2.843699	0.000000	0.007809	0.000000	-0.000004	-0.000000	0.000000	0.000000
68.768372	23.259319	11.745714	-0.031488	0.234561	2.846302	0.000000	0.007809	0.000000	-0.000004	-0.000000	0.000000	0.000000
69.101705	23.285093	11.599320	-0.045833	0.204621	2.848905	0.000000	0.007809	0.000000	-0.000005	-0.000000	0.000000	0.000000
69.436288	23.320581	11.472450	-0.060233	0.174568	2.851518	0.000000	0.007809	0.000000	-0.000005	-0.000000	0.000000	0.000000
69.733611	23.360203	11.376584	-0.134067	0.177588	2.853840	0.000000	0.015266	0.000000	-0.000005	-0.000000	0.000000	0.000000
70.282671	23.106233	11.409341	0.593883	-0.237601	2.839036	0.000000	-0.069112	0.000000	-0.000005	0.000000	0.000000	0.000000
