#ParticleID	Turn	x[m]	xp	y[m]	yp	z[m]	dE[GeV]# s	beta_x	beta_y	alpha_x	alpha_y	D_x	D_y	D_px	D_py	orbit_x	orbit_px	orbit_y	orbit_py
0.300000	11.805992	25.048999	-0.010309	-0.026900	2.618251	0.000000	-0.000042	0.000000	-0.000001	0.000002	0.000000	0.000000
0.601250	11.819891	25.068832	-0.035828	-0.038935	2.618238	0.000000	-0.000042	0.000000	-0.000000	0.000002	0.000000	0.000000
0.898573	11.848685	25.095516	-0.031959	-0.112354	2.618225	0.000000	-0.006463	0.000000	0.000000	0.000002	0.000000	0.000000
1.339533	12.028907	24.916210	-0.378296	0.517433	2.631668	0.000000	0.067497	0.000000	0.000001	0.000002	0.000000	0.000000
1.780493	12.521009	24.189781	-0.741916	1.123678	2.677863	0.000000	0.142226	0.000000	0.000002	0.000002	0.000000	0.000000
2.221453	13.347474	22.949282	-1.139433	1.678796	2.757336	0.000000	0.218574	0.000000	0.000002	0.000002	0.000000	0.000000
2.662413	14.546060	21.251154	-1.589007	2.157530	2.870991	0.000000	0.297412	0.000000	0.000003	0.000002	0.000000	0.000000
3.108373	16.192251	19.147759	-2.115464	2.539232	3.021985	0.000000	0.380127	0.000000	0.000004	0.000002	0.000000	0.000000
3.657433	18.303250	16.785292	-1.706527	1.788914	3.205425	0.000000	0.287089	0.000000	0.000005	0.000002	0.000000	0.000000
4.206493	19.895934	15.172377	-1.177049	1.166018	3.336307	0.000000	0.188960	0.000000	0.000006	0.000002	0.000000	0.000000
4.755553	20.857806	14.194131	-0.564430	0.626174	3.412308	0.000000	0.087478	0.000000	0.000007	0.000001	0.000000	0.000000
5.304613	21.120921	13.780875	0.088057	0.130931	3.432082	0.000000	-0.015554	0.000000	0.000007	0.000001	0.000000	0.000000
5.603185	21.105515	13.687840	0.018723	0.144665	3.430115	0.000000	-0.006588	0.000000	0.000008	0.000001	0.000000	0.000000
5.936519	21.098299	13.599683	0.002924	0.119803	3.427918	0.000000	-0.006588	0.000000	0.000008	0.000001	0.000000	0.000000
6.269852	21.101616	13.528102	-0.012875	0.094941	3.425722	0.000000	-0.006588	0.000000	0.000009	0.000001	0.000000	0.000000
6.604435	21.115538	13.472920	-0.028733	0.069986	3.423518	0.000000	-0.006588	0.000000	0.000009	0.000001	0.000000	0.000000
6.901758	21.136814	13.437897	-0.098048	0.082918	3.421559	0.000000	0.002352	0.000000	0.000009	0.000001	0.000000	0.000000
7.450818	20.884276	13.607775	0.555272	-0.394142	3.394650	0.000000	-0.100225	0.000000	0.000010	0.000001	0.000000	0.000000
7.999878	19.931705	14.313772	1.169370	-0.899276	3.311826	0.000000	-0.201023	0.000000	0.000010	0.000001	0.000000	0.000000
8.548938	18.346386	15.606176	1.700870	-1.468464	3.174556	0.000000	-0.298256	0.000000	0.000010	0.000000	0.000000	0.000000
9.097998	16.240299	17.577039	2.112229	-2.142247	2.985276	0.000000	-0.390199	0.000000	0.000011	-0.000000	0.000000	0.000000
9.543958	14.597205	19.333153	1.585267	-1.778937	2.829569	0.000000	-0.308497	0.000000	0.000011	0.000000	0.000000	0.000000
9.984918	13.402202	20.711928	1.135016	-1.335922	2.710779	0.000000	-0.230793	0.000000	0.000011	0.000000	0.000000	0.000000
10.425878	12.580004	21.671602	0.736621	-0.832124	2.625642	0.000000	-0.155718	0.000000	0.000011	0.000001	0.000000	0.000000
10.866838	12.093046	22.168509	0.371881	-0.290464	2.573187	0.000000	-0.082417	0.000000	0.000011	0.000001	0.000000	0.000000
11.309048	11.918948	22.179516	0.053251	0.209966	2.552798	0.000000	-0.016313	0.000000	0.000012	0.000001	0.000000	0.000000
11.606371	11.894721	22.058823	0.028234	0.195969	2.547947	0.000000	-0.016313	0.000000	0.000012	0.000001	0.000000	0.000000
12.086371	11.887001	21.881538	-0.012152	0.173374	2.540116	0.000000	-0.016313	0.000000	0.000013	0.000001	0.000000	0.000000
12.566371	11.918052	21.725945	-0.052538	0.150778	2.532286	0.000000	-0.016313	0.000000	0.000013	0.000001	0.000000	0.000000
13.046371	11.987874	21.592044	-0.092924	0.128182	2.524455	0.000000	-0.016313	0.000000	0.000014	0.000001	0.000000	0.000000
13.526371	12.096467	21.479835	-0.133310	0.105587	2.516624	0.000000	-0.016313	0.000000	0.000015	0.000001	0.000000	0.000000
14.007621	12.244264	21.389111	-0.173802	0.082932	2.508772	0.000000	-0.016313	0.000000	0.000015	0.000001	0.000000	0.000000
14.304943	12.355052	21.343957	-0.168524	0.016602	2.503922	0.000000	-0.022453	0.000000	0.000016	0.000001	0.000000	0.000000
14.745903	12.662170	21.095721	-0.530593	0.544200	2.509650	0.000000	0.048461	0.000000	0.000016	0.000002	0.000000	0.000000
15.186863	13.298046	20.391368	-0.916903	1.047037	2.546740	0.000000	0.119927	0.000000	0.000017	0.000002	0.000000	0.000000
15.627823	14.291732	19.262946	-1.345104	1.502235	2.615614	0.000000	0.192758	0.000000	0.000018	0.000003	0.000000	0.000000
16.068783	15.688626	17.761798	-1.834759	1.889083	2.717057	0.000000	0.267785	0.000000	0.000019	0.000003	0.000000	0.000000
16.514743	17.576210	15.934724	-2.412997	2.190721	2.853919	0.000000	0.346324	0.000000	0.000021	0.000004	0.000000	0.000000
17.063803	20.000634	13.894691	-1.976452	1.546711	3.020344	0.000000	0.259008	0.000000	0.000023	0.000003	0.000000	0.000000
17.612863	21.865715	12.497574	-1.400299	1.012871	3.137494	0.000000	0.167098	0.000000	0.000024	0.000002	0.000000	0.000000
18.161923	23.039712	11.643858	-0.725236	0.551175	3.203291	0.000000	0.072224	0.000000	0.000025	0.000001	0.000000	0.000000
18.710983	23.439700	11.272736	0.001053	0.128738	3.216567	0.000000	-0.023932	0.000000	0.000025	0.000000	0.000000	0.000000
19.009556	23.479452	11.186383	-0.072961	0.131036	3.211931	0.000000	-0.015529	0.000000	0.000025	0.000001	0.000000	0.000000
19.342889	23.532850	11.109129	-0.087234	0.100726	3.206754	0.000000	-0.015529	0.000000	0.000026	0.000001	0.000000	0.000000
19.676223	23.595763	11.052082	-0.101506	0.070416	3.201578	0.000000	-0.015529	0.000000	0.000026	0.000001	0.000000	0.000000
20.010806	23.668774	11.015004	-0.233100	0.094568	3.196402	0.000000	0.000308	0.000000	0.000026	0.000001	0.000000	0.000000
20.308129	23.811323	10.966867	-0.308545	0.095982	3.196493	0.000000	0.008658	0.000000	0.000026	0.000001	0.000000	0.000000
20.857189	23.739448	11.083412	0.438678	-0.309498	3.175032	0.000000	-0.086714	0.000000	0.000026	-0.000000	0.000000	0.000000
21.406249	22.859259	11.654643	1.154915	-0.737022	3.101553	0.000000	-0.180548	0.000000	0.000026	-0.000001	0.000000	0.000000
21.955309	21.232929	12.721247	1.789574	-1.217044	2.977357	0.000000	-0.271180	0.000000	0.000025	-0.000002	0.000000	0.000000
22.504369	18.975335	14.359196	2.297827	-1.783752	2.804650	0.000000	-0.357002	0.000000	0.000024	-0.000003	0.000000	0.000000
22.950329	17.196060	15.829864	1.706016	-1.500093	2.662732	0.000000	-0.279806	0.000000	0.000023	-0.000002	0.000000	0.000000
23.391289	15.920852	17.002485	1.196844	-1.149032	2.555669	0.000000	-0.206252	0.000000	0.000022	-0.000001	0.000000	0.000000
23.832249	15.068975	17.841174	0.742353	-0.745692	2.480491	0.000000	-0.135048	0.000000	0.000022	-0.000001	0.000000	0.000000
24.273209	14.601510	18.307773	0.321778	-0.308423	2.436343	0.000000	-0.065381	0.000000	0.000022	-0.000000	0.000000	0.000000
24.715418	14.497219	18.380805	-0.048639	0.097743	2.422718	0.000000	-0.002399	0.000000	0.000022	0.000000	0.000000	0.000000
25.012741	14.532254	18.327538	-0.069196	0.081413	2.422005	0.000000	-0.002399	0.000000	0.000022	0.000000	0.000000	0.000000
25.346075	14.586067	18.279365	-0.092243	0.063105	2.421206	0.000000	-0.002399	0.000000	0.000022	0.000000	0.000000	0.000000
25.679408	14.655245	18.243398	-0.115291	0.044797	2.420406	0.000000	-0.002399	0.000000	0.000022	0.000000	0.000000	0.000000
26.013991	14.739835	18.219939	-0.018845	-0.121389	2.419579	0.000000	-0.022028	0.000000	0.000022	0.000000	0.000000	0.000000
26.311314	14.757041	18.297046	-0.002843	-0.182808	2.413029	0.000000	-0.027944	0.000000	0.000022	0.000000	0.000000	0.000000
26.752274	14.941346	18.259858	-0.416705	0.266821	2.415814	0.000000	0.040589	0.000000	0.000022	0.000001	0.000000	0.000000
27.193234	15.497628	17.829993	-0.849605	0.704310	2.448893	0.000000	0.109583	0.000000	0.000023	0.000001	0.000000	0.000000
27.634194	16.451302	17.027008	-1.321322	1.109753	2.512640	0.000000	0.179826	0.000000	0.000023	0.000002	0.000000	0.000000
28.075154	17.845940	15.887439	-1.853406	1.464703	2.607784	0.000000	0.252117	0.000000	0.000024	0.000002	0.000000	0.000000
28.521114	19.769485	14.445967	-2.475138	1.753922	2.737010	0.000000	0.327723	0.000000	0.000025	0.000003	0.000000	0.000000
29.070174	22.214310	12.839962	-1.951246	1.188351	2.894290	0.000000	0.244343	0.000000	0.000027	0.000002	0.000000	0.000000
29.619234	24.004287	11.805176	-1.289528	0.707423	3.004530	0.000000	0.156629	0.000000	0.000028	0.000001	0.000000	0.000000
30.168294	25.012981	11.267904	-0.536724	0.276883	3.065776	0.000000	0.066137	0.000000	0.000028	0.000000	0.000000	0.000000
30.717354	25.169142	11.189877	0.253992	-0.133935	3.076940	0.000000	-0.025528	0.000000	0.000028	-0.000001	0.000000	0.000000
31.015927	25.060400	11.260455	0.175962	-0.131679	3.071718	0.000000	-0.017491	0.000000	0.000028	-0.000000	0.000000	0.000000
31.349260	24.947663	11.358279	0.162249	-0.161795	3.065888	0.000000	-0.017491	0.000000	0.000028	-0.000000	0.000000	0.000000
31.682593	24.844068	11.476181	0.148536	-0.191910	3.060058	0.000000	-0.017491	0.000000	0.000028	-0.000000	0.000000	0.000000
32.017177	24.749279	11.614714	0.134771	-0.222138	3.054206	0.000000	-0.017491	0.000000	0.000027	-0.000000	0.000000	0.000000
32.314499	24.672774	11.754795	0.058089	-0.218294	3.049006	0.000000	-0.009526	0.000000	0.000027	-0.000000	0.000000	0.000000
32.863559	24.186235	12.233689	0.822796	-0.659061	3.018899	0.000000	-0.099979	0.000000	0.000027	-0.000001	0.000000	0.000000
33.412619	22.887055	13.219382	1.529385	-1.146772	2.939543	0.000000	-0.188659	0.000000	0.000026	-0.000002	0.000000	0.000000
33.961679	20.867002	14.782082	2.127945	-1.716165	2.812345	0.000000	-0.273993	0.000000	0.000024	-0.000003	0.000000	0.000000
34.510739	18.268763	17.033097	2.576198	-2.407796	2.639562	0.000000	-0.354467	0.000000	0.000023	-0.000004	0.000000	0.000000
34.956699	16.248482	19.046576	1.970216	-2.088284	2.497824	0.000000	-0.281552	0.000000	0.000021	-0.000003	0.000000	0.000000
35.397659	14.741932	20.712152	1.459266	-1.674500	2.389050	0.000000	-0.212271	0.000000	0.000020	-0.000003	0.000000	0.000000
35.838619	13.655009	21.977686	1.014985	-1.184528	2.310265	0.000000	-0.145408	0.000000	0.000019	-0.000002	0.000000	0.000000
36.279579	12.938055	22.785596	0.617077	-0.640661	2.260571	0.000000	-0.080201	0.000000	0.000018	-0.000002	0.000000	0.000000
36.721789	12.557618	23.099434	0.278045	-0.124336	2.239375	0.000000	-0.021398	0.000000	0.000017	-0.000001	0.000000	0.000000
37.019112	12.399863	23.177256	0.252538	-0.137406	2.233013	0.000000	-0.021398	0.000000	0.000017	-0.000001	0.000000	0.000000
37.352445	12.241037	23.273744	0.223941	-0.152059	2.225881	0.000000	-0.021398	0.000000	0.000017	-0.000001	0.000000	0.000000
37.685779	12.101275	23.380002	0.195345	-0.166713	2.218748	0.000000	-0.021398	0.000000	0.000016	-0.000001	0.000000	0.000000
38.020362	11.980160	23.496482	0.166641	-0.181421	2.211589	0.000000	-0.021398	0.000000	0.000016	-0.000001	0.000000	0.000000
38.317684	11.888651	23.608249	0.170284	-0.252378	2.205227	0.000000	-0.026805	0.000000	0.000015	-0.000001	0.000000	0.000000
38.758644	11.890016	23.569323	-0.173391	0.340317	2.207333	0.000000	0.036361	0.000000	0.000015	-0.000001	0.000000	0.000000
39.199604	12.196810	23.012545	-0.524989	0.917528	2.237356	0.000000	0.099942	0.000000	0.000015	-0.000000	0.000000	0.000000
39.640564	12.823050	21.963248	-0.900572	1.452992	2.295641	0.000000	0.164661	0.000000	0.000015	-0.000000	0.000000	0.000000
40.081524	13.797346	20.469174	-1.317299	1.922346	2.382850	0.000000	0.231256	0.000000	0.000015	0.000000	0.000000	0.000000
40.527484	15.181789	18.575723	-1.798038	2.305521	2.501448	0.000000	0.300890	0.000000	0.000015	0.000001	0.000000	0.000000
41.076544	16.948400	16.447898	-1.400432	1.592751	2.646128	0.000000	0.225346	0.000000	0.000015	0.000000	0.000000	0.000000
41.625604	18.221155	15.036262	-0.903907	0.993429	2.748171	0.000000	0.145806	0.000000	0.000015	-0.000000	0.000000	0.000000
42.174664	18.910153	14.240268	-0.343534	0.464867	2.805766	0.000000	0.063679	0.000000	0.000015	-0.000001	0.000000	0.000000
42.723724	18.966728	14.003219	0.241105	-0.030583	2.817891	0.000000	-0.019577	0.000000	0.000014	-0.000001	0.000000	0.000000
43.022297	18.857215	14.006002	0.175234	-0.015322	2.814244	0.000000	-0.012216	0.000000	0.000014	-0.000001	0.000000	0.000000
43.502297	18.701583	14.037165	0.148998	-0.049601	2.808382	0.000000	-0.012216	0.000000	0.000013	-0.000001	0.000000	0.000000
43.982297	18.571138	14.101236	0.122762	-0.083880	2.802519	0.000000	-0.012216	0.000000	0.000013	-0.000001	0.000000	0.000000
44.462297	18.465879	14.198215	0.096526	-0.118159	2.796656	0.000000	-0.012216	0.000000	0.000012	-0.000001	0.000000	0.000000
44.942297	18.385807	14.328101	0.070290	-0.152438	2.790793	0.000000	-0.012216	0.000000	0.000011	-0.000001	0.000000	0.000000
45.423547	18.331039	14.491183	-0.046836	-0.115008	2.784932	0.000000	0.001583	0.000000	0.000011	-0.000001	0.000000	0.000000
45.720870	18.363723	14.565754	-0.111068	-0.097743	2.785403	0.000000	0.008860	0.000000	0.000010	-0.000001	0.000000	0.000000
46.269930	18.176489	14.954747	0.450058	-0.614910	2.767699	0.000000	-0.073253	0.000000	0.000010	-0.000001	0.000000	0.000000
46.818990	17.386960	15.932227	0.979394	-1.175876	2.705202	0.000000	-0.154067	0.000000	0.000009	-0.000002	0.000000	0.000000
47.368050	16.050905	17.567816	1.439551	-1.820597	2.599019	0.000000	-0.232149	0.000000	0.000008	-0.000002	0.000000	0.000000
47.917110	14.262695	19.978015	1.798025	-2.594996	2.451033	0.000000	-0.306112	0.000000	0.000007	-0.000002	0.000000	0.000000
48.363070	12.871198	22.120818	1.333261	-2.189726	2.329811	0.000000	-0.237820	0.000000	0.000006	-0.000002	0.000000	0.000000
48.804030	11.875565	23.836432	0.933180	-1.686103	2.239401	0.000000	-0.172634	0.000000	0.000005	-0.000002	0.000000	0.000000
49.244990	11.212709	25.072236	0.575733	-1.105762	2.177275	0.000000	-0.109415	0.000000	0.000004	-0.000002	0.000000	0.000000
49.685950	10.852346	25.772001	0.244590	-0.475111	2.142725	0.000000	-0.047441	0.000000	0.000003	-0.000002	0.000000	0.000000
50.128160	10.778135	25.903604	-0.049064	0.113587	2.135369	0.000000	0.008756	0.000000	0.000002	-0.000002	0.000000	0.000000
50.425482	10.815532	25.839517	-0.076716	0.101961	2.137973	0.000000	0.008756	0.000000	0.000002	-0.000002	0.000000	0.000000
50.758816	10.877010	25.775888	-0.107718	0.088927	2.140892	0.000000	0.008756	0.000000	0.000001	-0.000002	0.000000	0.000000
51.092149	10.959156	25.720948	-0.138719	0.075892	2.143811	0.000000	0.008756	0.000000	0.000001	-0.000002	0.000000	0.000000
51.426732	11.062169	25.675062	-0.080093	-0.145479	2.146720	0.000000	-0.008659	0.000000	0.000000	-0.000002	0.000000	0.000000
51.724055	11.117838	25.765086	-0.079878	-0.220489	2.144146	0.000000	-0.013918	0.000000	-0.000000	-0.000002	0.000000	0.000000
52.165015	11.333473	25.672873	-0.410990	0.428812	2.151597	0.000000	0.047743	0.000000	-0.000001	-0.000002	0.000000	0.000000
52.605975	11.848267	25.014478	-0.760878	1.058602	2.186333	0.000000	0.109948	0.000000	-0.000002	-0.000002	0.000000	0.000000
53.046935	12.685738	23.819856	-1.145528	1.640227	2.248748	0.000000	0.173405	0.000000	-0.000003	-0.000002	0.000000	0.000000
53.487895	13.884149	22.143363	-1.582515	2.147223	2.339553	0.000000	0.238837	0.000000	-0.000004	-0.000002	0.000000	0.000000
53.933855	15.518799	20.036212	-2.096027	2.557860	2.461288	0.000000	0.307388	0.000000	-0.000005	-0.000002	0.000000	0.000000
54.482915	17.623413	17.665075	-1.714407	1.786172	2.609884	0.000000	0.233083	0.000000	-0.000006	-0.000002	0.000000	0.000000
55.031975	19.239582	16.066927	-1.211690	1.141708	2.716484	0.000000	0.154643	0.000000	-0.000007	-0.000002	0.000000	0.000000
55.581035	20.253149	15.127936	-0.623386	0.578566	2.779198	0.000000	0.073460	0.000000	-0.000007	-0.000001	0.000000	0.000000
56.130095	20.592518	14.781220	0.008952	0.056633	2.796914	0.000000	-0.009026	0.000000	-0.000008	-0.000001	0.000000	0.000000
56.428668	20.623642	14.730424	-0.059385	0.074874	2.796401	0.000000	-0.001718	0.000000	-0.000009	-0.000001	0.000000	0.000000
56.762001	20.668638	14.688093	-0.075605	0.052118	2.795829	0.000000	-0.001718	0.000000	-0.000009	-0.000001	0.000000	0.000000
57.095334	20.724448	14.660933	-0.091824	0.029362	2.795257	0.000000	-0.001718	0.000000	-0.000009	-0.000001	0.000000	0.000000
57.429918	20.791341	14.648927	-0.108105	0.006521	2.794682	0.000000	-0.001718	0.000000	-0.000010	-0.000001	0.000000	0.000000
57.727240	20.859926	14.651084	-0.177080	0.024507	2.794172	0.000000	0.005583	0.000000	-0.000010	-0.000001	0.000000	0.000000
58.276300	20.698542	14.905455	0.469269	-0.490526	2.774597	0.000000	-0.076783	0.000000	-0.000011	-0.000001	0.000000	0.000000
58.825360	19.841470	15.741146	1.082471	-1.040498	2.710106	0.000000	-0.157789	0.000000	-0.000011	-0.000001	0.000000	0.000000
59.374420	18.349250	17.217682	1.619212	-1.664583	2.601841	0.000000	-0.235995	0.000000	-0.000011	-0.000000	0.000000	0.000000
59.923480	16.327286	19.440234	2.041581	-2.407232	2.451724	0.000000	-0.310015	0.000000	-0.000011	0.000000	0.000000	0.000000
60.369440	14.744753	21.415615	1.519584	-2.003574	2.328761	0.000000	-0.241728	0.000000	-0.000011	-0.000000	0.000000	0.000000
60.810400	13.606633	22.970937	1.071212	-1.510131	2.236617	0.000000	-0.176592	0.000000	-0.000011	-0.000000	0.000000	0.000000
61.251360	12.840948	24.059005	0.671781	-0.947978	2.172726	0.000000	-0.113466	0.000000	-0.000012	-0.000001	0.000000	0.000000
61.692320	12.412715	24.630313	0.303042	-0.342694	2.136360	0.000000	-0.051634	0.000000	-0.000012	-0.000001	0.000000	0.000000
62.134530	12.302423	24.658324	-0.021782	0.217653	2.127110	0.000000	0.004394	0.000000	-0.000013	-0.000001	0.000000	0.000000
62.431853	12.322565	24.532653	-0.045961	0.205024	2.128417	0.000000	0.004394	0.000000	-0.000013	-0.000001	0.000000	0.000000
62.765186	12.362241	24.400690	-0.073069	0.190865	2.129882	0.000000	0.004394	0.000000	-0.000013	-0.000001	0.000000	0.000000
63.098520	12.419990	24.278166	-0.100177	0.176707	2.131347	0.000000	0.004394	0.000000	-0.000014	-0.000001	0.000000	0.000000
63.433103	12.496128	24.164674	-0.127386	0.162495	2.132818	0.000000	0.004394	0.000000	-0.000014	-0.000001	0.000000	0.000000
63.730426	12.579067	24.071802	-0.120714	0.090827	2.134125	0.000000	-0.000840	0.000000	-0.000015	-0.000001	0.000000	0.000000
64.171386	12.845753	23.726610	-0.486367	0.689013	2.147297	0.000000	0.060637	0.000000	-0.000015	-0.000002	0.000000	0.000000
64.612346	13.443460	22.865727	-0.874242	1.255850	2.187704	0.000000	0.122804	0.000000	-0.000016	-0.000002	0.000000	0.000000
65.053306	14.399493	21.528323	-1.302058	1.765547	2.255807	0.000000	0.186369	0.000000	-0.000017	-0.000002	0.000000	0.000000
65.494266	15.757532	19.775247	-1.789361	2.194913	2.352381	0.000000	0.252058	0.000000	-0.000018	-0.000003	0.000000	0.000000
65.940226	17.602784	17.661465	-2.363106	2.525163	2.480098	0.000000	0.321019	0.000000	-0.000020	-0.000003	0.000000	0.000000
66.489286	19.968365	15.296866	-1.919811	1.806889	2.635988	0.000000	0.245985	0.000000	-0.000021	-0.000003	0.000000	0.000000
67.038346	21.769356	13.646141	-1.340910	1.217315	2.749421	0.000000	0.166589	0.000000	-0.000023	-0.000002	0.000000	0.000000
67.587406	22.878546	12.591711	-0.667294	0.714448	2.818383	0.000000	0.084238	0.000000	-0.000024	-0.000001	0.000000	0.000000
68.136466	23.217587	12.058472	0.053456	0.262470	2.841651	0.000000	0.000392	0.000000	-0.000024	-0.000001	0.000000	0.000000
68.435038	23.225738	11.890953	-0.020080	0.267083	2.843985	0.000000	0.007819	0.000000	-0.000024	-0.000001	0.000000	0.000000
68.768372	23.243910	11.722909	-0.034438	0.237051	2.846592	0.000000	0.007819	0.000000	-0.000024	-0.000001	0.000000	0.000000
69.101705	23.271655	11.574886	-0.048796	0.207018	2.849198	0.000000	0.007819	0.000000	-0.000025	-0.000001	0.000000	0.000000
69.436288	23.309129	11.446442	-0.063207	0.176874	2.851814	0.000000	0.007819	0.000000	-0.000025	-0.000001	0.000000	0.000000
69.733611	23.350522	11.349229	-0.137037	0.179745	2.854139	0.000000	0.015277	0.000000	-0.000025	-0.000001	0.000000	0.000000
70.282671	23.099963	11.379189	0.590679	-0.234633	2.839339	0.000000	-0.069110	0.000000	-0.000025	0.000000	0.000000	0.000000
