#ParticleID	Turn	x[m]	xp	y[m]	yp	z[m]	dE[GeV]# s	beta_x	beta_y	alpha_x	alpha_y	D_x	D_y	D_px	D_py	orbit_x	orbit_px	orbit_y	orbit_py
0.300000	11.817042	25.004917	-0.011435	-0.027396	2.618099	0.000000	0.000016	0.000000	-0.000001	0.000001	0.000000	0.000000
0.601250	11.831612	25.025055	-0.036931	-0.039453	2.618104	0.000000	0.000016	0.000000	-0.000000	0.000001	0.000000	0.000000
0.898573	11.861055	25.052054	-0.033008	-0.112787	2.618108	0.000000	-0.006405	0.000000	-0.000000	0.000001	0.000000	0.000000
1.339533	12.042335	24.873636	-0.379654	0.515861	2.631577	0.000000	0.067553	0.000000	0.000000	0.000001	0.000000	0.000000
1.780493	12.535793	24.149072	-0.743645	1.121037	2.677796	0.000000	0.142279	0.000000	0.000001	0.000001	0.000000	0.000000
2.221453	13.363974	22.911330	-1.141612	1.675208	2.757292	0.000000	0.218626	0.000000	0.000001	0.000001	0.000000	0.000000
2.662413	14.564716	21.216725	-1.591736	2.153157	2.870971	0.000000	0.297463	0.000000	0.000002	0.000001	0.000000	0.000000
3.108373	16.213634	19.117509	-2.118873	2.534272	3.021988	0.000000	0.380178	0.000000	0.000003	0.000001	0.000000	0.000000
3.657433	18.328087	16.759802	-1.709372	1.785154	3.205456	0.000000	0.287140	0.000000	0.000003	0.000001	0.000000	0.000000
4.206493	19.923494	15.150483	-1.179131	1.163189	3.336365	0.000000	0.189009	0.000000	0.000004	0.000001	0.000000	0.000000
4.755553	20.887161	14.174926	-0.565601	0.624076	3.412394	0.000000	0.087525	0.000000	0.000004	0.000001	0.000000	0.000000
5.304613	21.151021	13.763643	0.087880	0.129413	3.432192	0.000000	-0.015511	0.000000	0.000005	0.000001	0.000000	0.000000
5.603185	21.135763	13.671545	0.018487	0.143088	3.430239	0.000000	-0.006543	0.000000	0.000005	0.000001	0.000000	0.000000
5.936519	21.128697	13.584447	0.002710	0.118207	3.428057	0.000000	-0.006543	0.000000	0.000005	0.000001	0.000000	0.000000
6.269852	21.132149	13.513936	-0.013066	0.093326	3.425876	0.000000	-0.006543	0.000000	0.000006	0.000001	0.000000	0.000000
6.604435	21.146190	13.459841	-0.028902	0.068352	3.423686	0.000000	-0.006543	0.000000	0.000006	0.000001	0.000000	0.000000
6.901758	21.167560	13.425794	-0.098278	0.081237	3.421740	0.000000	0.002396	0.000000	0.000006	0.000001	0.000000	0.000000
7.450818	20.914709	13.597339	0.556070	-0.395515	3.394854	0.000000	-0.100186	0.000000	0.000006	0.000001	0.000000	0.000000
7.999878	19.960720	14.304719	1.171139	-0.900437	3.312050	0.000000	-0.200991	0.000000	0.000007	0.000000	0.000000	0.000000
8.548938	18.372980	15.598319	1.703485	-1.469497	3.174796	0.000000	-0.298232	0.000000	0.000007	0.000000	0.000000	0.000000
9.097998	16.263638	17.570280	2.115506	-2.143225	2.985527	0.000000	-0.390182	0.000000	0.000007	-0.000000	0.000000	0.000000
9.543958	14.617943	19.327409	1.587844	-1.780226	2.829828	0.000000	-0.308474	0.000000	0.000007	0.000000	0.000000	0.000000
9.984918	13.420930	20.707436	1.137016	-1.337462	2.711050	0.000000	-0.230764	0.000000	0.000007	0.000000	0.000000	0.000000
10.425878	12.597189	21.668552	0.738135	-0.833843	2.625927	0.000000	-0.155681	0.000000	0.000007	0.000000	0.000000	0.000000
10.866838	12.109084	22.167027	0.372978	-0.292286	2.573491	0.000000	-0.082372	0.000000	0.000007	0.000001	0.000000	0.000000
11.309048	11.934181	22.179661	0.054020	0.208123	2.553123	0.000000	-0.016262	0.000000	0.000008	0.000001	0.000000	0.000000
11.606371	11.909488	22.060060	0.029033	0.194137	2.548288	0.000000	-0.016262	0.000000	0.000008	0.000001	0.000000	0.000000
12.086371	11.900978	21.884527	-0.011305	0.171558	2.540482	0.000000	-0.016262	0.000000	0.000008	0.000001	0.000000	0.000000
12.566371	11.931192	21.730669	-0.051643	0.148979	2.532676	0.000000	-0.016262	0.000000	0.000009	0.000001	0.000000	0.000000
13.046371	12.000131	21.598487	-0.091980	0.126400	2.524870	0.000000	-0.016262	0.000000	0.000009	0.000001	0.000000	0.000000
13.526371	12.107795	21.487981	-0.132318	0.103821	2.517064	0.000000	-0.016262	0.000000	0.000010	0.000001	0.000000	0.000000
14.007621	12.254615	21.398947	-0.172761	0.081184	2.509237	0.000000	-0.016262	0.000000	0.000010	0.000001	0.000000	0.000000
14.304943	12.364775	21.354830	-0.167429	0.014835	2.504402	0.000000	-0.022403	0.000000	0.000010	0.000001	0.000000	0.000000
14.745903	12.671012	21.108012	-0.529683	0.542764	2.510155	0.000000	0.048524	0.000000	0.000011	0.000001	0.000000	0.000000
15.186863	13.306152	20.404755	-0.916137	1.045998	2.547276	0.000000	0.120003	0.000000	0.000011	0.000001	0.000000	0.000000
15.627823	14.299212	19.277058	-1.344447	1.501639	2.616188	0.000000	0.192849	0.000000	0.000012	0.000002	0.000000	0.000000
16.068783	15.695562	17.776229	-1.834180	1.888958	2.717674	0.000000	0.267891	0.000000	0.000013	0.000002	0.000000	0.000000
16.514743	17.582655	15.949052	-2.412470	2.191075	2.854587	0.000000	0.346447	0.000000	0.000014	0.000002	0.000000	0.000000
17.063803	20.006307	13.908811	-1.975582	1.546739	3.021073	0.000000	0.259108	0.000000	0.000015	0.000002	0.000000	0.000000
17.612863	21.870270	12.511840	-1.399148	1.012573	3.138272	0.000000	0.167173	0.000000	0.000016	0.000001	0.000000	0.000000
18.161923	23.042885	11.658639	-0.723885	0.550530	3.204103	0.000000	0.072273	0.000000	0.000016	0.000001	0.000000	0.000000
18.710983	23.441322	11.288434	0.002510	0.127701	3.217400	0.000000	-0.023909	0.000000	0.000017	0.000000	0.000000	0.000000
19.009556	23.480208	11.202660	-0.071511	0.130088	3.212771	0.000000	-0.015503	0.000000	0.000017	0.000000	0.000000	0.000000
19.342889	23.532638	11.126021	-0.085779	0.099830	3.207603	0.000000	-0.015503	0.000000	0.000017	0.000000	0.000000	0.000000
19.676223	23.594581	11.069554	-0.100048	0.069572	3.202435	0.000000	-0.015503	0.000000	0.000017	0.000000	0.000000	0.000000
20.010806	23.666615	11.033024	-0.231628	0.093864	3.197268	0.000000	0.000338	0.000000	0.000017	0.000000	0.000000	0.000000
20.308129	23.808287	10.985291	-0.307063	0.095377	3.197368	0.000000	0.008691	0.000000	0.000017	0.000000	0.000000	0.000000
20.857189	23.734847	11.102787	0.440028	-0.310634	3.175918	0.000000	-0.086710	0.000000	0.000018	-0.000000	0.000000	0.000000
21.406249	22.853292	11.675592	1.156038	-0.738771	3.102433	0.000000	-0.180573	0.000000	0.000017	-0.000001	0.000000	0.000000
21.955309	21.225892	12.744506	1.790391	-1.219528	2.978216	0.000000	-0.271232	0.000000	0.000017	-0.000001	0.000000	0.000000
22.504369	18.967597	14.385666	2.298279	-1.787150	2.805472	0.000000	-0.357081	0.000000	0.000016	-0.000002	0.000000	0.000000
22.950329	17.187876	15.859097	1.706571	-1.502864	2.663523	0.000000	-0.279865	0.000000	0.000015	-0.000001	0.000000	0.000000
23.391289	15.912124	17.033839	1.197528	-1.151053	2.556438	0.000000	-0.206291	0.000000	0.000015	-0.000001	0.000000	0.000000
23.832249	15.059576	17.873945	0.743197	-0.746871	2.481247	0.000000	-0.135066	0.000000	0.000015	-0.000001	0.000000	0.000000
24.273209	14.591282	18.341190	0.322820	-0.308706	2.437095	0.000000	-0.065380	0.000000	0.000014	-0.000000	0.000000	0.000000
24.715418	14.485965	18.414070	-0.047376	0.098284	2.423475	0.000000	-0.002381	0.000000	0.000014	0.000000	0.000000	0.000000
25.012741	14.520253	18.360473	-0.067947	0.081982	2.422767	0.000000	-0.002381	0.000000	0.000014	0.000000	0.000000	0.000000
25.346075	14.573239	18.311911	-0.091010	0.063705	2.421974	0.000000	-0.002381	0.000000	0.000015	0.000000	0.000000	0.000000
25.679408	14.641599	18.275533	-0.114072	0.045428	2.421180	0.000000	-0.002381	0.000000	0.000015	0.000000	0.000000	0.000000
26.013991	14.725379	18.251642	-0.017759	-0.120984	2.420359	0.000000	-0.022016	0.000000	0.000015	0.000000	0.000000	0.000000
26.311314	14.741944	18.328499	-0.001810	-0.182453	2.413813	0.000000	-0.027935	0.000000	0.000015	0.000000	0.000000	0.000000
26.752274	14.925172	18.290622	-0.415287	0.268022	2.416606	0.000000	0.040618	0.000000	0.000015	0.000000	0.000000	0.000000
27.193234	15.480010	17.859344	-0.847737	0.706301	2.449702	0.000000	0.109633	0.000000	0.000015	0.000001	0.000000	0.000000
27.634194	16.431808	17.054286	-1.318917	1.112445	2.513477	0.000000	0.179898	0.000000	0.000015	0.000001	0.000000	0.000000
28.075154	17.824049	15.912077	-1.850356	1.467973	2.608657	0.000000	0.252211	0.000000	0.000016	0.000002	0.000000	0.000000
28.521114	19.744531	14.467484	-2.471297	1.757623	2.737930	0.000000	0.327840	0.000000	0.000017	0.000002	0.000000	0.000000
29.070174	22.185476	12.857896	-1.948064	1.191215	2.895265	0.000000	0.244429	0.000000	0.000018	0.000001	0.000000	0.000000
29.619234	23.972424	11.820328	-1.287229	0.709655	3.005544	0.000000	0.156683	0.000000	0.000018	0.000001	0.000000	0.000000
30.168294	24.979156	11.280877	-0.535471	0.278643	3.066810	0.000000	0.066157	0.000000	0.000019	0.000000	0.000000	0.000000
30.717354	25.134559	11.201119	0.254110	-0.132523	3.077977	0.000000	-0.025542	0.000000	0.000019	-0.000000	0.000000	0.000000
31.015927	25.025701	11.270825	0.176148	-0.130201	3.072752	0.000000	-0.017501	0.000000	0.000019	-0.000000	0.000000	0.000000
31.349260	24.912846	11.367650	0.162415	-0.160277	3.066918	0.000000	-0.017501	0.000000	0.000018	-0.000000	0.000000	0.000000
31.682593	24.809147	11.484527	0.148682	-0.190353	3.061085	0.000000	-0.017501	0.000000	0.000018	-0.000000	0.000000	0.000000
32.017177	24.714266	11.622006	0.134898	-0.220542	3.055230	0.000000	-0.017501	0.000000	0.000018	-0.000000	0.000000	0.000000
32.314499	24.637692	11.761127	0.058284	-0.216644	3.050026	0.000000	-0.009533	0.000000	0.000018	-0.000000	0.000000	0.000000
32.863559	24.151578	12.238267	0.821831	-0.657499	3.019907	0.000000	-0.100019	0.000000	0.000018	-0.000001	0.000000	0.000000
33.412619	22.854068	13.222241	1.527327	-1.145185	2.940520	0.000000	-0.188731	0.000000	0.000017	-0.000001	0.000000	0.000000
33.961679	20.836812	14.783133	2.124940	-1.714440	2.813274	0.000000	-0.274096	0.000000	0.000016	-0.000002	0.000000	0.000000
34.510739	18.242298	17.032124	2.572459	-2.405812	2.640425	0.000000	-0.354598	0.000000	0.000015	-0.000002	0.000000	0.000000
34.956699	16.224982	19.043751	1.967284	-2.086133	2.498633	0.000000	-0.281661	0.000000	0.000014	-0.000002	0.000000	0.000000
35.397659	14.720716	20.707394	1.457001	-1.672283	2.389815	0.000000	-0.212361	0.000000	0.000013	-0.000002	0.000000	0.000000
35.838619	13.635536	21.970979	1.013284	-1.182345	2.310995	0.000000	-0.145478	0.000000	0.000013	-0.000001	0.000000	0.000000
36.279579	12.919863	22.777016	0.615861	-0.638612	2.261273	0.000000	-0.080253	0.000000	0.000012	-0.000001	0.000000	0.000000
36.721789	12.540307	23.089136	0.277218	-0.122491	2.240058	0.000000	-0.021434	0.000000	0.000012	-0.000001	0.000000	0.000000
37.019112	12.383052	23.165861	0.251687	-0.135562	2.233685	0.000000	-0.021434	0.000000	0.000011	-0.000001	0.000000	0.000000
37.352445	12.224802	23.261120	0.223063	-0.150215	2.226541	0.000000	-0.021434	0.000000	0.000011	-0.000001	0.000000	0.000000
37.685779	12.085634	23.366148	0.194439	-0.164868	2.219396	0.000000	-0.021434	0.000000	0.000011	-0.000001	0.000000	0.000000
38.020362	11.965135	23.481393	0.165708	-0.179577	2.212225	0.000000	-0.021434	0.000000	0.000011	-0.000001	0.000000	0.000000
38.317684	11.874188	23.592064	0.169293	-0.250497	2.205852	0.000000	-0.026843	0.000000	0.000010	-0.000001	0.000000	0.000000
38.758644	11.876284	23.551674	-0.174064	0.341744	2.207944	0.000000	0.036340	0.000000	0.000010	-0.000001	0.000000	0.000000
39.199604	12.183542	22.993863	-0.525373	0.918435	2.237962	0.000000	0.099936	0.000000	0.000010	-0.000000	0.000000	0.000000
39.640564	12.809999	21.944011	-0.900685	1.453338	2.296247	0.000000	0.164671	0.000000	0.000010	-0.000000	0.000000	0.000000
40.081524	13.784278	20.449885	-1.317146	1.922115	2.383464	0.000000	0.231281	0.000000	0.000010	0.000000	0.000000	0.000000
40.527484	15.168463	18.556897	-1.797611	2.304720	2.502077	0.000000	0.300931	0.000000	0.000010	0.000000	0.000000	0.000000
41.076544	16.934887	16.429670	-1.400524	1.592455	2.646774	0.000000	0.225367	0.000000	0.000010	0.000000	0.000000	0.000000
41.625604	18.208027	15.018094	-0.904511	0.993617	2.748823	0.000000	0.145805	0.000000	0.000010	-0.000000	0.000000	0.000000
42.174664	18.897952	14.221624	-0.344608	0.465552	2.806411	0.000000	0.063658	0.000000	0.000010	-0.000001	0.000000	0.000000
42.723724	18.955932	13.983530	0.239636	-0.029353	2.818519	0.000000	-0.019619	0.000000	0.000009	-0.000001	0.000000	0.000000
43.022297	18.847280	13.985618	0.173792	-0.014172	2.814860	0.000000	-0.012256	0.000000	0.000009	-0.000001	0.000000	0.000000
43.502297	18.693034	14.015701	0.147554	-0.048500	2.808978	0.000000	-0.012256	0.000000	0.000009	-0.000001	0.000000	0.000000
43.982297	18.563975	14.078739	0.121317	-0.082828	2.803096	0.000000	-0.012256	0.000000	0.000008	-0.000001	0.000000	0.000000
44.462297	18.460105	14.174731	0.095080	-0.117156	2.797214	0.000000	-0.012256	0.000000	0.000008	-0.000001	0.000000	0.000000
44.942297	18.381421	14.303678	0.068843	-0.151484	2.791331	0.000000	-0.012256	0.000000	0.000008	-0.000001	0.000000	0.000000
45.423547	18.328046	14.465865	-0.048270	-0.114228	2.785451	0.000000	0.001545	0.000000	0.000007	-0.000001	0.000000	0.000000
45.720870	18.361584	14.539981	-0.112502	-0.097062	2.785911	0.000000	0.008824	0.000000	0.000007	-0.000001	0.000000	0.000000
46.269930	18.175951	14.927794	0.448593	-0.613427	2.768183	0.000000	-0.073305	0.000000	0.000007	-0.000001	0.000000	0.000000
46.818990	17.388000	15.903159	0.978002	-1.173486	2.705652	0.000000	-0.154134	0.000000	0.000006	-0.000001	0.000000	0.000000
47.368050	16.053388	17.535551	1.438330	-1.817129	2.599428	0.000000	-0.232230	0.000000	0.000005	-0.000001	0.000000	0.000000
47.917110	14.266385	19.941240	1.797061	-2.590203	2.451394	0.000000	-0.306205	0.000000	0.000004	-0.000002	0.000000	0.000000
48.363070	12.875732	22.080121	1.332322	-2.185760	2.330132	0.000000	-0.237905	0.000000	0.000004	-0.000001	0.000000	0.000000
48.804030	11.880933	23.792667	0.932222	-1.683139	2.239686	0.000000	-0.172711	0.000000	0.000003	-0.000001	0.000000	0.000000
49.244990	11.218947	25.026351	0.574712	-1.103937	2.177527	0.000000	-0.109484	0.000000	0.000003	-0.000001	0.000000	0.000000
49.685950	10.859529	25.725041	0.243459	-0.474507	2.142948	0.000000	-0.047505	0.000000	0.000002	-0.000001	0.000000	0.000000
50.128160	10.786385	25.856664	-0.050336	0.113056	2.135565	0.000000	0.008697	0.000000	0.000002	-0.000001	0.000000	0.000000
50.425482	10.824534	25.792898	-0.077970	0.101411	2.138151	0.000000	0.008697	0.000000	0.000001	-0.000001	0.000000	0.000000
50.758816	10.886841	25.729643	-0.108952	0.088354	2.141050	0.000000	0.008697	0.000000	0.000001	-0.000001	0.000000	0.000000
51.092149	10.969803	25.675092	-0.139933	0.075298	2.143950	0.000000	0.008697	0.000000	0.000000	-0.000001	0.000000	0.000000
51.426732	11.073621	25.629610	-0.081194	-0.145727	2.146838	0.000000	-0.008719	0.000000	0.000000	-0.000001	0.000000	0.000000
51.724055	11.129939	25.719788	-0.080927	-0.220648	2.144246	0.000000	-0.013978	0.000000	-0.000000	-0.000001	0.000000	0.000000
52.165015	11.346628	25.628244	-0.412340	0.427460	2.151671	0.000000	0.047686	0.000000	-0.000001	-0.000001	0.000000	0.000000
52.605975	11.862767	24.971545	-0.762591	1.056119	2.186381	0.000000	0.109892	0.000000	-0.000001	-0.000001	0.000000	0.000000
53.046935	12.701938	23.779573	-1.147683	1.636726	2.248772	0.000000	0.173350	0.000000	-0.000002	-0.000001	0.000000	0.000000
53.487895	13.902480	22.106559	-1.585210	2.142862	2.339553	0.000000	0.238782	0.000000	-0.000002	-0.000001	0.000000	0.000000
53.933855	15.539821	20.003611	-2.099390	2.552837	2.461263	0.000000	0.307333	0.000000	-0.000003	-0.000001	0.000000	0.000000
54.482915	17.647846	17.637271	-1.717217	1.782405	2.609828	0.000000	0.233029	0.000000	-0.000004	-0.000001	0.000000	0.000000
55.031975	19.266705	16.042695	-1.213749	1.138930	2.716398	0.000000	0.154591	0.000000	-0.000004	-0.000001	0.000000	0.000000
55.581035	20.282050	15.106305	-0.624547	0.576578	2.779085	0.000000	0.073411	0.000000	-0.000005	-0.000001	0.000000	0.000000
56.130095	20.622162	14.761405	0.008770	0.055295	2.796775	0.000000	-0.009071	0.000000	-0.000005	-0.000001	0.000000	0.000000
56.428668	20.653434	14.711446	-0.059623	0.073461	2.796249	0.000000	-0.001763	0.000000	-0.000006	-0.000001	0.000000	0.000000
56.762001	20.698581	14.670065	-0.075819	0.050680	2.795661	0.000000	-0.001763	0.000000	-0.000006	-0.000001	0.000000	0.000000
57.095334	20.754526	14.643872	-0.092016	0.027900	2.795074	0.000000	-0.001763	0.000000	-0.000006	-0.000001	0.000000	0.000000
57.429918	20.821539	14.632853	-0.108273	0.005034	2.794484	0.000000	-0.001763	0.000000	-0.000006	-0.000001	0.000000	0.000000
57.727240	20.890219	14.635900	-0.177306	0.022958	2.793961	0.000000	0.005538	0.000000	-0.000007	-0.000001	0.000000	0.000000
58.276300	20.728524	14.891742	0.470056	-0.491672	2.774362	0.000000	-0.076822	0.000000	-0.000007	-0.000001	0.000000	0.000000
58.825360	19.870053	15.728509	1.084216	-1.041322	2.709852	0.000000	-0.157819	0.000000	-0.000007	-0.000000	0.000000	0.000000
59.374420	18.375445	17.205801	1.621792	-1.665144	2.601573	0.000000	-0.236017	0.000000	-0.000007	-0.000000	0.000000	0.000000
59.923480	16.350271	19.428843	2.044813	-2.407570	2.451446	0.000000	-0.310028	0.000000	-0.000007	0.000000	0.000000	0.000000
60.369440	14.765172	21.404712	1.522127	-2.004325	2.328475	0.000000	-0.241749	0.000000	-0.000007	-0.000000	0.000000	0.000000
60.810400	13.625068	22.960865	1.073187	-1.511259	2.236321	0.000000	-0.176620	0.000000	-0.000008	-0.000000	0.000000	0.000000
61.251360	12.857857	24.050077	0.673278	-0.949432	2.172416	0.000000	-0.113502	0.000000	-0.000008	-0.000000	0.000000	0.000000
61.692320	12.428488	24.622788	0.304130	-0.344407	2.136032	0.000000	-0.051678	0.000000	-0.000008	-0.000001	0.000000	0.000000
62.134530	12.317396	24.652400	-0.021017	0.215775	2.126760	0.000000	0.004343	0.000000	-0.000008	-0.000001	0.000000	0.000000
62.431853	12.337074	24.527844	-0.045166	0.203153	2.128051	0.000000	0.004343	0.000000	-0.000009	-0.000001	0.000000	0.000000
62.765186	12.376209	24.397126	-0.072240	0.189002	2.129499	0.000000	0.004343	0.000000	-0.000009	-0.000001	0.000000	0.000000
63.098520	12.433394	24.275841	-0.099314	0.174851	2.130947	0.000000	0.004343	0.000000	-0.000009	-0.000001	0.000000	0.000000
63.433103	12.508944	24.163589	-0.126490	0.160647	2.132400	0.000000	0.004343	0.000000	-0.000009	-0.000001	0.000000	0.000000
63.730426	12.591341	24.071814	-0.119758	0.088988	2.133691	0.000000	-0.000890	0.000000	-0.000010	-0.000001	0.000000	0.000000
64.171386	12.857299	23.728229	-0.485666	0.687223	2.146839	0.000000	0.060575	0.000000	-0.000010	-0.000001	0.000000	0.000000
64.612346	13.454488	22.868874	-0.873763	1.254190	2.187216	0.000000	0.122729	0.000000	-0.000011	-0.000001	0.000000	0.000000
65.053306	14.410189	21.532848	-1.301780	1.764092	2.255282	0.000000	0.186282	0.000000	-0.000011	-0.000002	0.000000	0.000000
65.494266	15.768066	19.780941	-1.789271	2.193729	2.351814	0.000000	0.251956	0.000000	-0.000012	-0.000002	0.000000	0.000000
65.940226	17.613320	17.668071	-2.363200	2.524308	2.479482	0.000000	0.320902	0.000000	-0.000013	-0.000002	0.000000	0.000000
66.489286	19.978757	15.304420	-1.919457	1.806010	2.635314	0.000000	0.245890	0.000000	-0.000014	-0.000002	0.000000	0.000000
67.038346	21.779125	13.654701	-1.340133	1.216350	2.748699	0.000000	0.166516	0.000000	-0.000015	-0.000001	0.000000	0.000000
67.587406	22.887253	12.601409	-0.666149	0.713329	2.817627	0.000000	0.084189	0.000000	-0.000016	-0.000001	0.000000	0.000000
68.136466	23.224870	12.069520	0.054889	0.261116	2.840875	0.000000	0.000368	0.000000	-0.000016	-0.000000	0.000000	0.000000
68.435038	23.232173	11.902781	-0.018658	0.265799	2.843201	0.000000	0.007792	0.000000	-0.000016	-0.000000	0.000000	0.000000
68.768372	23.249396	11.735576	-0.033011	0.235816	2.845799	0.000000	0.007792	0.000000	-0.000016	-0.000000	0.000000	0.000000
69.101705	23.276187	11.588360	-0.047364	0.205833	2.848396	0.000000	0.007792	0.000000	-0.000016	-0.000000	0.000000	0.000000
69.436288	23.312702	11.460694	-0.061771	0.175737	2.851003	0.000000	0.007792	0.000000	-0.000017	-0.000000	0.000000	0.000000
69.733611	23.353240	11.364144	-0.135599	0.178689	2.853320	0.000000	0.015248	0.000000	-0.000017	-0.000000	0.000000	0.000000
70.282671	23.101066	11.395496	0.592165	-0.236128	2.838510	0.000000	-0.069113	0.000000	-0.000017	0.000000	0.000000	0.000000
