#ParticleID	Turn	x[m]	xp	y[m]	yp	z[m]	dE[GeV]# s	beta_x	beta_y	alpha_x	alpha_y	D_x	D_y	D_px	D_py	orbit_x	orbit_px	orbit_y	orbit_py
0.300000	11.805926	25.049253	-0.010303	-0.026896	2.618253	0.000000	-0.000043	0.000000	-0.000001	0.000002	0.000000	0.000000
0.601250	11.819822	25.069083	-0.035823	-0.038931	2.618239	0.000000	-0.000043	0.000000	-0.000000	0.000002	0.000000	0.000000
0.898573	11.848612	25.095765	-0.031953	-0.112351	2.618226	0.000000	-0.006464	0.000000	0.000000	0.000002	0.000000	0.000000
1.339533	12.028829	24.916453	-0.378289	0.517443	2.631669	0.000000	0.067496	0.000000	0.000001	0.000002	0.000000	0.000000
1.780493	12.520924	24.190014	-0.741907	1.123693	2.677864	0.000000	0.142225	0.000000	0.000002	0.000002	0.000000	0.000000
2.221453	13.347379	22.949498	-1.139421	1.678817	2.757336	0.000000	0.218573	0.000000	0.000002	0.000002	0.000000	0.000000
2.662413	14.545953	21.251350	-1.588992	2.157555	2.870991	0.000000	0.297411	0.000000	0.000003	0.000002	0.000000	0.000000
3.108373	16.192129	19.147930	-2.115445	2.539260	3.021985	0.000000	0.380126	0.000000	0.000004	0.000002	0.000000	0.000000
3.657433	18.303110	16.785436	-1.706511	1.788936	3.205425	0.000000	0.287089	0.000000	0.000005	0.000002	0.000000	0.000000
4.206493	19.895780	15.172500	-1.177038	1.166034	3.336306	0.000000	0.188959	0.000000	0.000006	0.000002	0.000000	0.000000
4.755553	20.857642	14.194239	-0.564425	0.626186	3.412307	0.000000	0.087478	0.000000	0.000007	0.000001	0.000000	0.000000
5.304613	21.120754	13.780971	0.088057	0.130940	3.432080	0.000000	-0.015555	0.000000	0.000007	0.000001	0.000000	0.000000
5.603185	21.105348	13.687930	0.018724	0.144675	3.430113	0.000000	-0.006588	0.000000	0.000008	0.000001	0.000000	0.000000
5.936519	21.098131	13.599767	0.002925	0.119813	3.427917	0.000000	-0.006588	0.000000	0.000008	0.000001	0.000000	0.000000
6.269852	21.101448	13.528179	-0.012874	0.094951	3.425720	0.000000	-0.006588	0.000000	0.000009	0.000001	0.000000	0.000000
6.604435	21.115369	13.472991	-0.028733	0.069995	3.423516	0.000000	-0.006588	0.000000	0.000009	0.000001	0.000000	0.000000
6.901758	21.136645	13.437962	-0.098047	0.082928	3.421556	0.000000	0.002351	0.000000	0.000009	0.000001	0.000000	0.000000
7.450818	20.884109	13.607830	0.555267	-0.394134	3.394647	0.000000	-0.100225	0.000000	0.000010	0.000001	0.000000	0.000000
7.999878	19.931547	14.313819	1.169360	-0.899269	3.311823	0.000000	-0.201023	0.000000	0.000010	0.000001	0.000000	0.000000
8.548938	18.346242	15.606214	1.700855	-1.468457	3.174553	0.000000	-0.298256	0.000000	0.000011	0.000000	0.000000	0.000000
9.097998	16.240173	17.577071	2.112211	-2.142240	2.985273	0.000000	-0.390199	0.000000	0.000011	-0.000000	0.000000	0.000000
9.543958	14.597094	19.333178	1.585253	-1.778928	2.829566	0.000000	-0.308497	0.000000	0.000011	0.000000	0.000000	0.000000
9.984918	13.402102	20.711945	1.135005	-1.335912	2.710776	0.000000	-0.230794	0.000000	0.000011	0.000000	0.000000	0.000000
10.425878	12.579913	21.671609	0.736613	-0.832113	2.625638	0.000000	-0.155719	0.000000	0.000011	0.000001	0.000000	0.000000
10.866838	12.092962	22.168507	0.371874	-0.290454	2.573183	0.000000	-0.082417	0.000000	0.000011	0.000001	0.000000	0.000000
11.309048	11.918869	22.179505	0.053246	0.209976	2.552794	0.000000	-0.016314	0.000000	0.000012	0.000001	0.000000	0.000000
11.606371	11.894644	22.058805	0.028230	0.195980	2.547943	0.000000	-0.016314	0.000000	0.000012	0.000001	0.000000	0.000000
12.086371	11.886929	21.881511	-0.012157	0.173384	2.540112	0.000000	-0.016314	0.000000	0.000013	0.000001	0.000000	0.000000
12.566371	11.917985	21.725908	-0.052543	0.150788	2.532281	0.000000	-0.016314	0.000000	0.000013	0.000001	0.000000	0.000000
13.046371	11.987812	21.591997	-0.092930	0.128193	2.524449	0.000000	-0.016314	0.000000	0.000014	0.000001	0.000000	0.000000
13.526371	12.096411	21.479778	-0.133316	0.105597	2.516618	0.000000	-0.016314	0.000000	0.000015	0.000001	0.000000	0.000000
14.007621	12.244214	21.389044	-0.173808	0.082942	2.508767	0.000000	-0.016314	0.000000	0.000015	0.000001	0.000000	0.000000
14.304943	12.355006	21.343884	-0.168531	0.016612	2.503916	0.000000	-0.022453	0.000000	0.000016	0.000001	0.000000	0.000000
14.745903	12.662129	21.095640	-0.530599	0.544208	2.509644	0.000000	0.048460	0.000000	0.000016	0.000002	0.000000	0.000000
15.186863	13.298010	20.391281	-0.916908	1.047043	2.546733	0.000000	0.119926	0.000000	0.000017	0.000002	0.000000	0.000000
15.627823	14.291700	19.262856	-1.345109	1.502238	2.615607	0.000000	0.192757	0.000000	0.000018	0.000003	0.000000	0.000000
16.068783	15.688598	17.761707	-1.834764	1.889082	2.717050	0.000000	0.267784	0.000000	0.000019	0.000003	0.000000	0.000000
16.514743	17.576186	15.934635	-2.413002	2.190717	2.853910	0.000000	0.346323	0.000000	0.000021	0.000004	0.000000	0.000000
17.063803	20.000616	13.894604	-1.976458	1.546710	3.020335	0.000000	0.259007	0.000000	0.000023	0.000003	0.000000	0.000000
17.612863	21.865704	12.497486	-1.400306	1.012872	3.137484	0.000000	0.167097	0.000000	0.000024	0.000002	0.000000	0.000000
18.161923	23.039710	11.643768	-0.725244	0.551178	3.203281	0.000000	0.072223	0.000000	0.000025	0.000001	0.000000	0.000000
18.710983	23.439707	11.272641	0.001045	0.128743	3.216557	0.000000	-0.023932	0.000000	0.000025	0.000000	0.000000	0.000000
19.009556	23.479463	11.186285	-0.072969	0.131041	3.211920	0.000000	-0.015529	0.000000	0.000026	0.000001	0.000000	0.000000
19.342889	23.532866	11.109028	-0.087242	0.100731	3.206744	0.000000	-0.015529	0.000000	0.000026	0.000001	0.000000	0.000000
19.676223	23.595785	11.051977	-0.101514	0.070421	3.201567	0.000000	-0.015529	0.000000	0.000026	0.000001	0.000000	0.000000
20.010806	23.668801	11.014897	-0.233108	0.094572	3.196391	0.000000	0.000307	0.000000	0.000026	0.000001	0.000000	0.000000
20.308129	23.811356	10.966758	-0.308554	0.095985	3.196482	0.000000	0.008657	0.000000	0.000026	0.000001	0.000000	0.000000
20.857189	23.739488	11.083297	0.438671	-0.309492	3.175021	0.000000	-0.086714	0.000000	0.000027	-0.000000	0.000000	0.000000
21.406249	22.859306	11.654519	1.154910	-0.737013	3.101542	0.000000	-0.180548	0.000000	0.000026	-0.000001	0.000000	0.000000
21.955309	21.232981	12.721111	1.789571	-1.217030	2.977347	0.000000	-0.271179	0.000000	0.000025	-0.000002	0.000000	0.000000
22.504369	18.975389	14.359042	2.297826	-1.783733	2.804639	0.000000	-0.357001	0.000000	0.000024	-0.000003	0.000000	0.000000
22.950329	17.196116	15.829694	1.706014	-1.500077	2.662722	0.000000	-0.279806	0.000000	0.000023	-0.000002	0.000000	0.000000
23.391289	15.920910	17.002303	1.196841	-1.149021	2.555659	0.000000	-0.206252	0.000000	0.000022	-0.000001	0.000000	0.000000
23.832249	15.069036	17.840984	0.742349	-0.745686	2.480481	0.000000	-0.135047	0.000000	0.000022	-0.000001	0.000000	0.000000
24.273209	14.601574	18.307579	0.321773	-0.308422	2.436333	0.000000	-0.065381	0.000000	0.000022	-0.000000	0.000000	0.000000
24.715418	14.497288	18.380614	-0.048645	0.097740	2.422709	0.000000	-0.002399	0.000000	0.000022	0.000000	0.000000	0.000000
25.012741	14.532327	18.327348	-0.069203	0.081409	2.421996	0.000000	-0.002399	0.000000	0.000022	0.000000	0.000000	0.000000
25.346075	14.586145	18.279178	-0.092250	0.063101	2.421196	0.000000	-0.002399	0.000000	0.000022	0.000000	0.000000	0.000000
25.679408	14.655327	18.243214	-0.115297	0.044793	2.420396	0.000000	-0.002399	0.000000	0.000022	0.000000	0.000000	0.000000
26.013991	14.739921	18.219758	-0.018851	-0.121392	2.419569	0.000000	-0.022028	0.000000	0.000022	0.000000	0.000000	0.000000
26.311314	14.757130	18.296866	-0.002848	-0.182811	2.413020	0.000000	-0.027944	0.000000	0.000022	0.000000	0.000000	0.000000
26.752274	14.941440	18.259683	-0.416712	0.266813	2.415805	0.000000	0.040588	0.000000	0.000022	0.000001	0.000000	0.000000
27.193234	15.497730	17.829826	-0.849615	0.704298	2.448882	0.000000	0.109583	0.000000	0.000023	0.000001	0.000000	0.000000
27.634194	16.451415	17.026853	-1.321335	1.109737	2.512630	0.000000	0.179826	0.000000	0.000023	0.000002	0.000000	0.000000
28.075154	17.846066	15.887300	-1.853422	1.464684	2.607773	0.000000	0.252116	0.000000	0.000024	0.000002	0.000000	0.000000
28.521114	19.769627	14.445846	-2.475159	1.753901	2.736998	0.000000	0.327722	0.000000	0.000025	0.000003	0.000000	0.000000
29.070174	22.214473	12.839861	-1.951264	1.188334	2.894277	0.000000	0.244342	0.000000	0.000027	0.000002	0.000000	0.000000
29.619234	24.004467	11.805091	-1.289541	0.707410	3.004517	0.000000	0.156629	0.000000	0.000028	0.000001	0.000000	0.000000
30.168294	25.013171	11.267832	-0.536730	0.276873	3.065763	0.000000	0.066137	0.000000	0.000028	0.000000	0.000000	0.000000
30.717354	25.169336	11.189816	0.253992	-0.133943	3.076928	0.000000	-0.025528	0.000000	0.000028	-0.000001	0.000000	0.000000
31.015927	25.060594	11.260399	0.175961	-0.131688	3.071705	0.000000	-0.017491	0.000000	0.000028	-0.000000	0.000000	0.000000
31.349260	24.947857	11.358229	0.162248	-0.161804	3.065875	0.000000	-0.017491	0.000000	0.000028	-0.000000	0.000000	0.000000
31.682593	24.844263	11.476137	0.148536	-0.191919	3.060045	0.000000	-0.017491	0.000000	0.000028	-0.000000	0.000000	0.000000
32.017177	24.749473	11.614677	0.134771	-0.222148	3.054193	0.000000	-0.017491	0.000000	0.000028	-0.000000	0.000000	0.000000
32.314499	24.672969	11.754763	0.058089	-0.218304	3.048993	0.000000	-0.009526	0.000000	0.000027	-0.000000	0.000000	0.000000
32.863559	24.186426	12.233668	0.822802	-0.659071	3.018887	0.000000	-0.099979	0.000000	0.000027	-0.000001	0.000000	0.000000
33.412619	22.887236	13.219371	1.529397	-1.146782	2.939531	0.000000	-0.188659	0.000000	0.000026	-0.000002	0.000000	0.000000
33.961679	20.867167	14.782083	2.127962	-1.716175	2.812334	0.000000	-0.273992	0.000000	0.000025	-0.000003	0.000000	0.000000
34.510739	18.268907	17.033111	2.576219	-2.407809	2.639551	0.000000	-0.354465	0.000000	0.000023	-0.000004	0.000000	0.000000
34.956699	16.248609	19.046602	1.970232	-2.088297	2.497813	0.000000	-0.281550	0.000000	0.000021	-0.000003	0.000000	0.000000
35.397659	14.742046	20.712190	1.459278	-1.674514	2.389041	0.000000	-0.212270	0.000000	0.000020	-0.000003	0.000000	0.000000
35.838619	13.655114	21.977735	1.014995	-1.184542	2.310256	0.000000	-0.145407	0.000000	0.000019	-0.000002	0.000000	0.000000
36.279579	12.938152	22.785656	0.617084	-0.640673	2.260562	0.000000	-0.080200	0.000000	0.000018	-0.000002	0.000000	0.000000
36.721789	12.557709	23.099505	0.278050	-0.124346	2.239366	0.000000	-0.021398	0.000000	0.000017	-0.000001	0.000000	0.000000
37.019112	12.399952	23.177333	0.252543	-0.137417	2.233005	0.000000	-0.021398	0.000000	0.000017	-0.000001	0.000000	0.000000
37.352445	12.241122	23.273828	0.223947	-0.152070	2.225872	0.000000	-0.021398	0.000000	0.000017	-0.000001	0.000000	0.000000
37.685779	12.101356	23.380093	0.195350	-0.166724	2.218740	0.000000	-0.021398	0.000000	0.000016	-0.000001	0.000000	0.000000
38.020362	11.980238	23.496580	0.166647	-0.181432	2.211581	0.000000	-0.021398	0.000000	0.000016	-0.000001	0.000000	0.000000
38.317684	11.888726	23.608354	0.170290	-0.252389	2.205219	0.000000	-0.026805	0.000000	0.000016	-0.000001	0.000000	0.000000
38.758644	11.890086	23.569436	-0.173387	0.340309	2.207325	0.000000	0.036362	0.000000	0.000015	-0.000001	0.000000	0.000000
39.199604	12.196877	23.012664	-0.524986	0.917523	2.237349	0.000000	0.099942	0.000000	0.000015	-0.000000	0.000000	0.000000
39.640564	12.823114	21.963369	-0.900570	1.452990	2.295633	0.000000	0.164661	0.000000	0.000015	-0.000000	0.000000	0.000000
40.081524	13.797410	20.469294	-1.317299	1.922348	2.382842	0.000000	0.231256	0.000000	0.000015	0.000000	0.000000	0.000000
40.527484	15.181854	18.575840	-1.798039	2.305527	2.501440	0.000000	0.300889	0.000000	0.000015	0.000001	0.000000	0.000000
41.076544	16.948464	16.448010	-1.400431	1.592753	2.646120	0.000000	0.225346	0.000000	0.000015	0.000000	0.000000	0.000000
41.625604	18.221216	15.036373	-0.903903	0.993429	2.748163	0.000000	0.145806	0.000000	0.000015	-0.000000	0.000000	0.000000
42.174664	18.910208	14.240381	-0.343527	0.464864	2.805758	0.000000	0.063679	0.000000	0.000015	-0.000001	0.000000	0.000000
42.723724	18.966774	14.003338	0.241113	-0.030590	2.817883	0.000000	-0.019577	0.000000	0.000014	-0.000001	0.000000	0.000000
43.022297	18.857257	14.006125	0.175242	-0.015328	2.814237	0.000000	-0.012215	0.000000	0.000014	-0.000001	0.000000	0.000000
43.502297	18.701617	14.037294	0.149006	-0.049607	2.808374	0.000000	-0.012215	0.000000	0.000013	-0.000001	0.000000	0.000000
43.982297	18.571164	14.101370	0.122770	-0.083886	2.802511	0.000000	-0.012215	0.000000	0.000013	-0.000001	0.000000	0.000000
44.462297	18.465898	14.198354	0.096534	-0.118165	2.796649	0.000000	-0.012215	0.000000	0.000012	-0.000001	0.000000	0.000000
44.942297	18.385819	14.328246	0.070298	-0.152443	2.790786	0.000000	-0.012215	0.000000	0.000011	-0.000001	0.000000	0.000000
45.423547	18.331043	14.491333	-0.046828	-0.115012	2.784926	0.000000	0.001583	0.000000	0.000011	-0.000001	0.000000	0.000000
45.720870	18.363722	14.565905	-0.111060	-0.097747	2.785397	0.000000	0.008860	0.000000	0.000010	-0.000001	0.000000	0.000000
46.269930	18.176480	14.954905	0.450065	-0.614919	2.767694	0.000000	-0.073253	0.000000	0.000010	-0.000001	0.000000	0.000000
46.818990	17.386943	15.932397	0.979401	-1.175890	2.705196	0.000000	-0.154067	0.000000	0.000009	-0.000002	0.000000	0.000000
47.368050	16.050880	17.568005	1.439556	-1.820617	2.599014	0.000000	-0.232148	0.000000	0.000008	-0.000002	0.000000	0.000000
47.917110	14.262666	19.978229	1.798029	-2.595023	2.451029	0.000000	-0.306111	0.000000	0.000007	-0.000002	0.000000	0.000000
48.363070	12.871164	22.121055	1.333265	-2.189749	2.329807	0.000000	-0.237819	0.000000	0.000006	-0.000002	0.000000	0.000000
48.804030	11.875528	23.836686	0.933184	-1.686119	2.239397	0.000000	-0.172633	0.000000	0.000005	-0.000002	0.000000	0.000000
49.244990	11.212668	25.072502	0.575738	-1.105773	2.177272	0.000000	-0.109414	0.000000	0.000004	-0.000002	0.000000	0.000000
49.685950	10.852300	25.772273	0.244596	-0.475114	2.142722	0.000000	-0.047440	0.000000	0.000003	-0.000002	0.000000	0.000000
50.128160	10.778084	25.903875	-0.049058	0.113590	2.135367	0.000000	0.008757	0.000000	0.000002	-0.000002	0.000000	0.000000
50.425482	10.815477	25.839786	-0.076710	0.101964	2.137971	0.000000	0.008757	0.000000	0.000002	-0.000002	0.000000	0.000000
50.758816	10.876951	25.776154	-0.107711	0.088930	2.140890	0.000000	0.008757	0.000000	0.000001	-0.000002	0.000000	0.000000
51.092149	10.959092	25.721212	-0.138713	0.075896	2.143810	0.000000	0.008757	0.000000	0.000001	-0.000002	0.000000	0.000000
51.426732	11.062101	25.675323	-0.080087	-0.145478	2.146718	0.000000	-0.008659	0.000000	0.000000	-0.000002	0.000000	0.000000
51.724055	11.117767	25.765346	-0.079873	-0.220488	2.144144	0.000000	-0.013917	0.000000	-0.000000	-0.000002	0.000000	0.000000
52.165015	11.333397	25.673129	-0.410983	0.428820	2.151596	0.000000	0.047744	0.000000	-0.000001	-0.000002	0.000000	0.000000
52.605975	11.848183	25.014724	-0.760869	1.058617	2.186332	0.000000	0.109949	0.000000	-0.000002	-0.000002	0.000000	0.000000
53.046935	12.685646	23.820086	-1.145517	1.640248	2.248748	0.000000	0.173406	0.000000	-0.000003	-0.000002	0.000000	0.000000
53.487895	13.884046	22.143573	-1.582500	2.147248	2.339553	0.000000	0.238838	0.000000	-0.000004	-0.000002	0.000000	0.000000
53.933855	15.518680	20.036398	-2.096008	2.557889	2.461289	0.000000	0.307389	0.000000	-0.000005	-0.000002	0.000000	0.000000
54.482915	17.623277	17.665232	-1.714392	1.786194	2.609884	0.000000	0.233083	0.000000	-0.000006	-0.000002	0.000000	0.000000
55.031975	19.239432	16.067063	-1.211679	1.141724	2.716485	0.000000	0.154643	0.000000	-0.000007	-0.000002	0.000000	0.000000
55.581035	20.252989	15.128057	-0.623380	0.578577	2.779199	0.000000	0.073460	0.000000	-0.000007	-0.000001	0.000000	0.000000
56.130095	20.592355	14.781331	0.008952	0.056641	2.796915	0.000000	-0.009026	0.000000	-0.000008	-0.000001	0.000000	0.000000
56.428668	20.623478	14.730530	-0.059384	0.074882	2.796403	0.000000	-0.001717	0.000000	-0.000009	-0.000001	0.000000	0.000000
56.762001	20.668474	14.688193	-0.075604	0.052127	2.795831	0.000000	-0.001717	0.000000	-0.000009	-0.000001	0.000000	0.000000
57.095334	20.724284	14.661027	-0.091824	0.029371	2.795259	0.000000	-0.001717	0.000000	-0.000009	-0.000001	0.000000	0.000000
57.429918	20.791176	14.649015	-0.108105	0.006530	2.794685	0.000000	-0.001717	0.000000	-0.000010	-0.000001	0.000000	0.000000
57.727240	20.859762	14.651167	-0.177079	0.024517	2.794175	0.000000	0.005584	0.000000	-0.000010	-0.000001	0.000000	0.000000
58.276300	20.698379	14.905529	0.469264	-0.490519	2.774600	0.000000	-0.076783	0.000000	-0.000011	-0.000001	0.000000	0.000000
58.825360	19.841316	15.741213	1.082461	-1.040493	2.710109	0.000000	-0.157788	0.000000	-0.000011	-0.000001	0.000000	0.000000
59.374420	18.349110	17.217744	1.619198	-1.664579	2.601845	0.000000	-0.235995	0.000000	-0.000011	-0.000000	0.000000	0.000000
59.923480	16.327164	19.440292	2.041563	-2.407229	2.451728	0.000000	-0.310015	0.000000	-0.000011	0.000000	0.000000	0.000000
60.369440	14.744645	21.415669	1.519570	-2.003568	2.328764	0.000000	-0.241728	0.000000	-0.000011	-0.000000	0.000000	0.000000
60.810400	13.606537	22.970985	1.071201	-1.510123	2.236621	0.000000	-0.176591	0.000000	-0.000011	-0.000000	0.000000	0.000000
61.251360	12.840860	24.059046	0.671773	-0.947969	2.172730	0.000000	-0.113466	0.000000	-0.000012	-0.000001	0.000000	0.000000
61.692320	12.412633	24.630346	0.303035	-0.342683	2.136364	0.000000	-0.051633	0.000000	-0.000012	-0.000001	0.000000	0.000000
62.134530	12.302346	24.658347	-0.021787	0.217664	2.127114	0.000000	0.004395	0.000000	-0.000013	-0.000001	0.000000	0.000000
62.431853	12.322491	24.532669	-0.045966	0.205035	2.128422	0.000000	0.004395	0.000000	-0.000013	-0.000001	0.000000	0.000000
62.765186	12.362171	24.400699	-0.073074	0.190876	2.129887	0.000000	0.004395	0.000000	-0.000013	-0.000001	0.000000	0.000000
63.098520	12.419923	24.278168	-0.100182	0.176718	2.131352	0.000000	0.004395	0.000000	-0.000014	-0.000001	0.000000	0.000000
63.433103	12.496065	24.164669	-0.127392	0.162506	2.132823	0.000000	0.004395	0.000000	-0.000014	-0.000001	0.000000	0.000000
63.730426	12.579007	24.071791	-0.120719	0.090837	2.134131	0.000000	-0.000839	0.000000	-0.000015	-0.000001	0.000000	0.000000
64.171386	12.845698	23.726590	-0.486372	0.689023	2.147303	0.000000	0.060637	0.000000	-0.000015	-0.000002	0.000000	0.000000
64.612346	13.443407	22.865698	-0.874245	1.255859	2.187711	0.000000	0.122805	0.000000	-0.000016	-0.000002	0.000000	0.000000
65.053306	14.399444	21.528287	-1.302061	1.765555	2.255814	0.000000	0.186370	0.000000	-0.000017	-0.000002	0.000000	0.000000
65.494266	15.757485	19.775205	-1.789363	2.194919	2.352388	0.000000	0.252059	0.000000	-0.000018	-0.000003	0.000000	0.000000
65.940226	17.602738	17.661418	-2.363108	2.525167	2.480106	0.000000	0.321020	0.000000	-0.000020	-0.000003	0.000000	0.000000
66.489286	19.968321	15.296816	-1.919815	1.806893	2.635997	0.000000	0.245987	0.000000	-0.000021	-0.000003	0.000000	0.000000
67.038346	21.769317	13.646085	-1.340916	1.217320	2.749430	0.000000	0.166590	0.000000	-0.000023	-0.000002	0.000000	0.000000
67.587406	22.878514	12.591650	-0.667301	0.714454	2.818392	0.000000	0.084238	0.000000	-0.000024	-0.000001	0.000000	0.000000
68.136466	23.217563	12.058403	0.053448	0.262478	2.841661	0.000000	0.000393	0.000000	-0.000024	-0.000001	0.000000	0.000000
68.435038	23.225718	11.890880	-0.020088	0.267090	2.843995	0.000000	0.007819	0.000000	-0.000024	-0.000001	0.000000	0.000000
68.768372	23.243896	11.722831	-0.034446	0.237057	2.846602	0.000000	0.007819	0.000000	-0.000025	-0.000001	0.000000	0.000000
69.101705	23.271646	11.574803	-0.048803	0.207025	2.849208	0.000000	0.007819	0.000000	-0.000025	-0.000001	0.000000	0.000000
69.436288	23.309126	11.446355	-0.063215	0.176880	2.851825	0.000000	0.007819	0.000000	-0.000025	-0.000001	0.000000	0.000000
69.733611	23.350524	11.349139	-0.137045	0.179751	2.854149	0.000000	0.015278	0.000000	-0.000025	-0.000001	0.000000	0.000000
70.282671	23.099973	11.379091	0.590671	-0.234625	2.839349	0.000000	-0.069110	0.000000	-0.000025	0.000000	0.000000	0.000000
