#ParticleID	Turn	x[m]	xp	y[m]	yp	z[m]	dE[GeV]# s	beta_x	beta_y	alpha_x	alpha_y	D_x	D_y	D_px	D_py	orbit_x	orbit_px	orbit_y	orbit_py
0.300000	11.815329	25.011947	-0.011238	-0.027329	2.618109	0.000000	0.000014	0.000000	-0.000002	0.000001	0.000000	0.000000
0.601250	11.829782	25.032044	-0.036738	-0.039382	2.618113	0.000000	0.000014	0.000000	-0.000002	0.000001	0.000000	0.000000
0.898573	11.859111	25.058999	-0.032823	-0.112731	2.618117	0.000000	-0.006406	0.000000	-0.000001	0.000001	0.000000	0.000000
1.339533	12.040207	24.880451	-0.379420	0.516099	2.631585	0.000000	0.067551	0.000000	-0.000001	0.000001	0.000000	0.000000
1.780493	12.533433	24.155600	-0.743352	1.121447	2.677804	0.000000	0.142278	0.000000	-0.000000	0.000001	0.000000	0.000000
2.221453	13.361324	22.917427	-1.141245	1.675771	2.757300	0.000000	0.218625	0.000000	0.000000	0.000001	0.000000	0.000000
2.662413	14.561704	21.222268	-1.591279	2.153847	2.870978	0.000000	0.297462	0.000000	0.000001	0.000001	0.000000	0.000000
3.108373	16.210166	19.122391	-2.118304	2.535058	3.021995	0.000000	0.380177	0.000000	0.000001	0.000001	0.000000	0.000000
3.657433	18.324041	16.763930	-1.708893	1.785749	3.205462	0.000000	0.287139	0.000000	0.000002	0.000001	0.000000	0.000000
4.206493	19.918986	15.154045	-1.178775	1.163634	3.336371	0.000000	0.189008	0.000000	0.000002	0.000001	0.000000	0.000000
4.755553	20.882342	14.178067	-0.565394	0.624402	3.412399	0.000000	0.087524	0.000000	0.000003	0.000001	0.000000	0.000000
5.304613	21.146064	13.766479	0.087923	0.129645	3.432197	0.000000	-0.015512	0.000000	0.000003	0.000001	0.000000	0.000000
5.603185	21.130773	13.674237	0.018540	0.143330	3.430242	0.000000	-0.006545	0.000000	0.000003	0.000001	0.000000	0.000000
5.936519	21.123673	13.586976	0.002759	0.118453	3.428061	0.000000	-0.006545	0.000000	0.000004	0.000001	0.000000	0.000000
6.269852	21.127094	13.516300	-0.013021	0.093575	3.425879	0.000000	-0.006545	0.000000	0.000004	0.000001	0.000000	0.000000
6.604435	21.141106	13.462038	-0.028860	0.068604	3.423689	0.000000	-0.006545	0.000000	0.000004	0.000001	0.000000	0.000000
6.901758	21.162453	13.427840	-0.098227	0.081498	3.421743	0.000000	0.002395	0.000000	0.000005	0.000001	0.000000	0.000000
7.450818	20.909640	13.599129	0.555949	-0.395307	3.394856	0.000000	-0.100187	0.000000	0.000005	0.000001	0.000000	0.000000
7.999878	19.955874	14.306303	1.170856	-0.900267	3.312051	0.000000	-0.200993	0.000000	0.000005	0.000001	0.000000	0.000000
8.548938	18.368525	15.599731	1.703060	-1.469352	3.174796	0.000000	-0.298233	0.000000	0.000006	0.000000	0.000000	0.000000
9.097998	16.259716	17.571544	2.114968	-2.143096	2.985526	0.000000	-0.390184	0.000000	0.000006	0.000000	0.000000	0.000000
9.543958	14.614448	19.328534	1.587422	-1.780044	2.829827	0.000000	-0.308476	0.000000	0.000006	0.000000	0.000000	0.000000
9.984918	13.417763	20.708380	1.136691	-1.337235	2.711048	0.000000	-0.230765	0.000000	0.000006	0.000000	0.000000	0.000000
10.425878	12.594271	21.669280	0.737891	-0.833582	2.625924	0.000000	-0.155683	0.000000	0.000006	0.000001	0.000000	0.000000
10.866838	12.106350	22.167513	0.372804	-0.292002	2.573487	0.000000	-0.082374	0.000000	0.000007	0.000001	0.000000	0.000000
11.309048	11.931572	22.179890	0.053903	0.208415	2.553119	0.000000	-0.016263	0.000000	0.000007	0.000001	0.000000	0.000000
11.606371	11.906950	22.060115	0.028911	0.194428	2.548283	0.000000	-0.016263	0.000000	0.000007	0.000001	0.000000	0.000000
12.086371	11.898561	21.884304	-0.011435	0.171847	2.540476	0.000000	-0.016263	0.000000	0.000008	0.000001	0.000000	0.000000
12.566371	11.928905	21.730170	-0.051781	0.149266	2.532669	0.000000	-0.016263	0.000000	0.000008	0.000001	0.000000	0.000000
13.046371	11.997981	21.597714	-0.092128	0.126684	2.524863	0.000000	-0.016263	0.000000	0.000009	0.000001	0.000000	0.000000
13.526371	12.105790	21.486936	-0.132474	0.104103	2.517056	0.000000	-0.016263	0.000000	0.000009	0.000001	0.000000	0.000000
14.007621	12.252763	21.397632	-0.172925	0.081463	2.509228	0.000000	-0.016263	0.000000	0.000009	0.000001	0.000000	0.000000
14.304943	12.363023	21.353349	-0.167602	0.015116	2.504393	0.000000	-0.022404	0.000000	0.000010	0.000001	0.000000	0.000000
14.745903	12.669397	21.106303	-0.529822	0.542999	2.510145	0.000000	0.048522	0.000000	0.000010	0.000001	0.000000	0.000000
15.186863	13.304646	20.402863	-0.916248	1.046176	2.547265	0.000000	0.120001	0.000000	0.000011	0.000001	0.000000	0.000000
15.627823	14.297793	19.275037	-1.344534	1.501753	2.616175	0.000000	0.192846	0.000000	0.000011	0.000002	0.000000	0.000000
16.068783	15.694212	17.774138	-1.834249	1.889001	2.717661	0.000000	0.267888	0.000000	0.000012	0.000002	0.000000	0.000000
16.514743	17.581359	15.946955	-2.412523	2.191046	2.854572	0.000000	0.346443	0.000000	0.000013	0.000002	0.000000	0.000000
17.063803	20.005105	13.906720	-1.975698	1.546755	3.021057	0.000000	0.259105	0.000000	0.000014	0.000002	0.000000	0.000000
17.612863	21.869227	12.509707	-1.399319	1.012636	3.138254	0.000000	0.167171	0.000000	0.000015	0.000001	0.000000	0.000000
18.161923	23.042054	11.656410	-0.724099	0.550644	3.204085	0.000000	0.072272	0.000000	0.000016	0.000001	0.000000	0.000000
18.710983	23.440742	11.286049	0.002268	0.127873	3.217381	0.000000	-0.023910	0.000000	0.000016	0.000000	0.000000	0.000000
19.009556	23.479772	11.200178	-0.071751	0.130248	3.212752	0.000000	-0.015504	0.000000	0.000016	0.000000	0.000000	0.000000
19.342889	23.532363	11.123435	-0.086021	0.099981	3.207583	0.000000	-0.015504	0.000000	0.000017	0.000000	0.000000	0.000000
19.676223	23.594466	11.066869	-0.100291	0.069715	3.202415	0.000000	-0.015504	0.000000	0.000017	0.000000	0.000000	0.000000
20.010806	23.666663	11.030246	-0.231872	0.093986	3.197247	0.000000	0.000337	0.000000	0.000017	0.000001	0.000000	0.000000
20.308129	23.808480	10.982443	-0.307308	0.095484	3.197347	0.000000	0.008690	0.000000	0.000017	0.000001	0.000000	0.000000
20.857189	23.735305	11.099778	0.439794	-0.310445	3.175896	0.000000	-0.086710	0.000000	0.000017	0.000000	0.000000	0.000000
21.406249	22.853992	11.672324	1.155832	-0.738486	3.102411	0.000000	-0.180572	0.000000	0.000017	-0.000001	0.000000	0.000000
21.955309	21.226796	12.740864	1.790228	-1.219127	2.978195	0.000000	-0.271231	0.000000	0.000017	-0.000001	0.000000	0.000000
22.504369	18.968651	14.381506	2.298171	-1.786604	2.805451	0.000000	-0.357080	0.000000	0.000016	-0.000002	0.000000	0.000000
22.950329	17.189031	15.854492	1.706452	-1.502415	2.663503	0.000000	-0.279864	0.000000	0.000015	-0.000001	0.000000	0.000000
23.391289	15.913390	17.028889	1.197394	-1.150722	2.556418	0.000000	-0.206290	0.000000	0.000015	-0.000001	0.000000	0.000000
23.832249	15.060970	17.868760	0.743041	-0.746672	2.481228	0.000000	-0.135066	0.000000	0.000015	-0.000000	0.000000	0.000000
24.273209	14.592825	18.335892	0.322635	-0.308649	2.437076	0.000000	-0.065381	0.000000	0.000014	-0.000000	0.000000	0.000000
24.715418	14.487687	18.408785	-0.047594	0.098210	2.423455	0.000000	-0.002382	0.000000	0.000014	0.000000	0.000000	0.000000
25.012741	14.522104	18.355233	-0.068163	0.081903	2.422747	0.000000	-0.002382	0.000000	0.000015	0.000000	0.000000	0.000000
25.346075	14.575233	18.306725	-0.091223	0.063622	2.421953	0.000000	-0.002382	0.000000	0.000015	0.000000	0.000000	0.000000
25.679408	14.643735	18.270405	-0.114283	0.045340	2.421159	0.000000	-0.002382	0.000000	0.000015	0.000000	0.000000	0.000000
26.013991	14.727655	18.246575	-0.017949	-0.121036	2.420338	0.000000	-0.022017	0.000000	0.000015	0.000000	0.000000	0.000000
26.311314	14.744333	18.323464	-0.001991	-0.182498	2.413791	0.000000	-0.027936	0.000000	0.000015	0.000000	0.000000	0.000000
26.752274	14.927747	18.285687	-0.415530	0.267841	2.416585	0.000000	0.040617	0.000000	0.000015	0.000000	0.000000	0.000000
27.193234	15.482830	17.854624	-0.848052	0.705994	2.449680	0.000000	0.109632	0.000000	0.000015	0.000001	0.000000	0.000000
27.634194	16.434943	17.049889	-1.319320	1.112024	2.513453	0.000000	0.179895	0.000000	0.000016	0.000001	0.000000	0.000000
28.075154	17.827584	15.908095	-1.850863	1.467458	2.608632	0.000000	0.252208	0.000000	0.000016	0.000002	0.000000	0.000000
28.521114	19.748575	14.463994	-2.471934	1.757037	2.737904	0.000000	0.327836	0.000000	0.000017	0.000002	0.000000	0.000000
29.070174	22.190165	12.854973	-1.948595	1.190763	2.895238	0.000000	0.244426	0.000000	0.000018	0.000002	0.000000	0.000000
29.619234	23.977622	11.817842	-1.287618	0.709306	3.005515	0.000000	0.156681	0.000000	0.000019	0.000001	0.000000	0.000000
30.168294	24.984689	11.278731	-0.535689	0.278370	3.066781	0.000000	0.066156	0.000000	0.000019	0.000000	0.000000	0.000000
30.717354	25.140232	11.199240	0.254077	-0.132738	3.077947	0.000000	-0.025541	0.000000	0.000019	-0.000000	0.000000	0.000000
31.015927	25.031401	11.269078	0.176104	-0.130427	3.072722	0.000000	-0.017501	0.000000	0.000019	-0.000000	0.000000	0.000000
31.349260	24.918575	11.366057	0.162374	-0.160509	3.066888	0.000000	-0.017501	0.000000	0.000019	-0.000000	0.000000	0.000000
31.682593	24.814902	11.483091	0.148644	-0.190592	3.061055	0.000000	-0.017501	0.000000	0.000019	-0.000000	0.000000	0.000000
32.017177	24.720045	11.620731	0.134863	-0.220787	3.055200	0.000000	-0.017501	0.000000	0.000019	-0.000000	0.000000	0.000000
32.314499	24.643490	11.759999	0.058238	-0.216898	3.049996	0.000000	-0.009533	0.000000	0.000019	-0.000000	0.000000	0.000000
32.863559	24.157321	12.237407	0.821977	-0.657735	3.019877	0.000000	-0.100018	0.000000	0.000019	-0.000001	0.000000	0.000000
33.412619	22.859549	13.221638	1.527655	-1.145420	2.940491	0.000000	-0.188729	0.000000	0.000018	-0.000001	0.000000	0.000000
33.961679	20.841842	14.782796	2.125428	-1.714691	2.813246	0.000000	-0.274093	0.000000	0.000017	-0.000002	0.000000	0.000000
34.510739	18.246722	17.032080	2.573070	-2.406096	2.640399	0.000000	-0.354595	0.000000	0.000016	-0.000003	0.000000	0.000000
34.956699	16.228921	19.043976	1.967762	-2.086448	2.498608	0.000000	-0.281658	0.000000	0.000015	-0.000002	0.000000	0.000000
35.397659	14.724283	20.707904	1.457368	-1.672614	2.389792	0.000000	-0.212358	0.000000	0.000014	-0.000002	0.000000	0.000000
35.838619	13.638822	21.971783	1.013557	-1.182677	2.310972	0.000000	-0.145477	0.000000	0.000013	-0.000001	0.000000	0.000000
36.279579	12.922945	22.778107	0.616053	-0.638930	2.261251	0.000000	-0.080252	0.000000	0.000013	-0.000001	0.000000	0.000000
36.721789	12.543252	23.090497	0.277345	-0.122783	2.240037	0.000000	-0.021434	0.000000	0.000013	-0.000001	0.000000	0.000000
37.019112	12.385920	23.167395	0.251818	-0.135853	2.233664	0.000000	-0.021434	0.000000	0.000012	-0.000001	0.000000	0.000000
37.352445	12.227581	23.262849	0.223199	-0.150507	2.226520	0.000000	-0.021434	0.000000	0.000012	-0.000001	0.000000	0.000000
37.685779	12.088321	23.368071	0.194580	-0.165161	2.219376	0.000000	-0.021434	0.000000	0.000012	-0.000001	0.000000	0.000000
38.020362	11.967726	23.483512	0.165854	-0.179869	2.212204	0.000000	-0.021434	0.000000	0.000012	-0.000001	0.000000	0.000000
38.317684	11.876692	23.594357	0.169449	-0.250794	2.205832	0.000000	-0.026842	0.000000	0.000011	-0.000001	0.000000	0.000000
38.758644	11.878675	23.554202	-0.173963	0.341511	2.207924	0.000000	0.036340	0.000000	0.000011	-0.000000	0.000000	0.000000
39.199604	12.185867	22.996563	-0.525323	0.918277	2.237942	0.000000	0.099936	0.000000	0.000011	-0.000000	0.000000	0.000000
39.640564	12.812303	21.946814	-0.900684	1.453263	2.296227	0.000000	0.164670	0.000000	0.000011	0.000000	0.000000	0.000000
40.081524	13.786602	20.452716	-1.317194	1.922126	2.383443	0.000000	0.231280	0.000000	0.000011	0.000000	0.000000	0.000000
40.527484	15.170852	18.559679	-1.797710	2.304818	2.502055	0.000000	0.300929	0.000000	0.000011	0.000001	0.000000	0.000000
41.076544	16.937336	16.432386	-1.400532	1.592480	2.646752	0.000000	0.225366	0.000000	0.000011	0.000000	0.000000	0.000000
41.625604	18.210433	15.020821	-0.904427	0.993571	2.748799	0.000000	0.145805	0.000000	0.000011	-0.000000	0.000000	0.000000
42.174664	18.900219	14.224441	-0.344439	0.465432	2.806388	0.000000	0.063658	0.000000	0.000011	-0.000000	0.000000	0.000000
42.723724	18.957970	13.986523	0.239879	-0.029555	2.818496	0.000000	-0.019618	0.000000	0.000011	-0.000001	0.000000	0.000000
43.022297	18.849176	13.988725	0.174030	-0.014362	2.814838	0.000000	-0.012255	0.000000	0.000011	-0.000001	0.000000	0.000000
43.502297	18.694700	14.018987	0.147794	-0.048683	2.808956	0.000000	-0.012255	0.000000	0.000010	-0.000001	0.000000	0.000000
43.982297	18.565411	14.082196	0.121557	-0.083003	2.803074	0.000000	-0.012255	0.000000	0.000010	-0.000001	0.000000	0.000000
44.462297	18.461310	14.178353	0.095321	-0.117324	2.797192	0.000000	-0.012255	0.000000	0.000010	-0.000001	0.000000	0.000000
44.942297	18.382396	14.307458	0.069084	-0.151644	2.791310	0.000000	-0.012255	0.000000	0.000009	-0.000001	0.000000	0.000000
45.423547	18.328788	14.469796	-0.048032	-0.114362	2.785431	0.000000	0.001546	0.000000	0.000009	-0.000001	0.000000	0.000000
45.720870	18.362184	14.543989	-0.112264	-0.097180	2.785890	0.000000	0.008825	0.000000	0.000009	-0.000001	0.000000	0.000000
46.269930	18.176281	14.931999	0.448844	-0.613671	2.768163	0.000000	-0.073304	0.000000	0.000008	-0.000001	0.000000	0.000000
46.818990	17.388055	15.907708	0.978249	-1.173872	2.705634	0.000000	-0.154132	0.000000	0.000008	-0.000001	0.000000	0.000000
47.368050	16.053182	17.540614	1.438555	-1.817685	2.599411	0.000000	-0.232227	0.000000	0.000007	-0.000001	0.000000	0.000000
47.917110	14.265951	19.947026	1.797249	-2.590969	2.451379	0.000000	-0.306202	0.000000	0.000006	-0.000002	0.000000	0.000000
48.363070	12.875136	22.086534	1.332500	-2.186397	2.330118	0.000000	-0.237902	0.000000	0.000005	-0.000002	0.000000	0.000000
48.804030	11.880181	23.799575	0.932398	-1.683619	2.239673	0.000000	-0.172709	0.000000	0.000005	-0.000001	0.000000	0.000000
49.244990	11.218037	25.033604	0.574895	-1.104238	2.177515	0.000000	-0.109482	0.000000	0.000004	-0.000001	0.000000	0.000000
49.685950	10.858452	25.732474	0.243658	-0.474615	2.142936	0.000000	-0.047503	0.000000	0.000003	-0.000001	0.000000	0.000000
50.128160	10.785122	25.864105	-0.050116	0.113129	2.135554	0.000000	0.008699	0.000000	0.000003	-0.000001	0.000000	0.000000
50.425482	10.823141	25.800294	-0.077753	0.101487	2.138140	0.000000	0.008699	0.000000	0.000003	-0.000001	0.000000	0.000000
50.758816	10.885304	25.736988	-0.108738	0.088434	2.141040	0.000000	0.008699	0.000000	0.000002	-0.000001	0.000000	0.000000
51.092149	10.968124	25.682383	-0.139722	0.075381	2.143940	0.000000	0.008699	0.000000	0.000002	-0.000001	0.000000	0.000000
51.426732	11.071803	25.636844	-0.081001	-0.145699	2.146829	0.000000	-0.008718	0.000000	0.000001	-0.000001	0.000000	0.000000
51.724055	11.128007	25.727005	-0.080742	-0.220633	2.144238	0.000000	-0.013976	0.000000	0.000001	-0.000001	0.000000	0.000000
52.165015	11.344512	25.635363	-0.412107	0.427665	2.151664	0.000000	0.047687	0.000000	0.000001	-0.000001	0.000000	0.000000
52.605975	11.860420	24.978404	-0.762299	1.056505	2.186375	0.000000	0.109893	0.000000	0.000000	-0.000001	0.000000	0.000000
53.046935	12.699303	23.786017	-1.147318	1.637275	2.248765	0.000000	0.173351	0.000000	-0.000000	-0.000001	0.000000	0.000000
53.487895	13.899484	22.112456	-1.584755	2.143550	2.339547	0.000000	0.238783	0.000000	-0.000001	-0.000001	0.000000	0.000000
53.933855	15.536373	20.008844	-2.098825	2.553632	2.461257	0.000000	0.307334	0.000000	-0.000002	-0.000001	0.000000	0.000000
54.482915	17.643822	17.641746	-1.716741	1.783000	2.609823	0.000000	0.233030	0.000000	-0.000002	-0.000001	0.000000	0.000000
55.031975	19.262223	16.046607	-1.213395	1.139366	2.716394	0.000000	0.154592	0.000000	-0.000003	-0.000001	0.000000	0.000000
55.581035	20.277259	15.109811	-0.624341	0.576887	2.779081	0.000000	0.073413	0.000000	-0.000003	-0.000001	0.000000	0.000000
56.130095	20.617233	14.764631	0.008813	0.055499	2.796771	0.000000	-0.009069	0.000000	-0.000004	-0.000001	0.000000	0.000000
56.428668	20.648472	14.714544	-0.059569	0.073676	2.796246	0.000000	-0.001762	0.000000	-0.000004	-0.000001	0.000000	0.000000
56.762001	20.693585	14.673019	-0.075769	0.050900	2.795659	0.000000	-0.001762	0.000000	-0.000004	-0.000001	0.000000	0.000000
57.095334	20.749498	14.646677	-0.091970	0.028124	2.795072	0.000000	-0.001762	0.000000	-0.000005	-0.000001	0.000000	0.000000
57.429918	20.816482	14.635507	-0.108231	0.005262	2.794483	0.000000	-0.001762	0.000000	-0.000005	-0.000001	0.000000	0.000000
57.727240	20.885138	14.638418	-0.177253	0.023195	2.793959	0.000000	0.005539	0.000000	-0.000005	-0.000001	0.000000	0.000000
58.276300	20.723478	14.894038	0.469939	-0.491502	2.774362	0.000000	-0.076821	0.000000	-0.000006	-0.000001	0.000000	0.000000
58.825360	19.865227	15.730649	1.083936	-1.041208	2.709852	0.000000	-0.157818	0.000000	-0.000006	-0.000001	0.000000	0.000000
59.374420	18.371006	17.207842	1.621370	-1.665077	2.601573	0.000000	-0.236016	0.000000	-0.000006	-0.000000	0.000000	0.000000
59.923480	16.346360	19.430834	2.044279	-2.407545	2.451447	0.000000	-0.310027	0.000000	-0.000006	-0.000000	0.000000	0.000000
60.369440	14.761684	21.406650	1.521708	-2.004231	2.328477	0.000000	-0.241748	0.000000	-0.000006	-0.000000	0.000000	0.000000
60.810400	13.621906	22.962692	1.072865	-1.511101	2.236324	0.000000	-0.176619	0.000000	-0.000006	-0.000000	0.000000	0.000000
61.251360	12.854943	24.051738	0.673037	-0.949216	2.172419	0.000000	-0.113501	0.000000	-0.000007	-0.000001	0.000000	0.000000
61.692320	12.425755	24.624236	0.303959	-0.344143	2.136036	0.000000	-0.051676	0.000000	-0.000007	-0.000001	0.000000	0.000000
62.134530	12.314787	24.653599	-0.021133	0.216072	2.126765	0.000000	0.004344	0.000000	-0.000007	-0.000001	0.000000	0.000000
62.431853	12.334535	24.528866	-0.045287	0.203449	2.128057	0.000000	0.004344	0.000000	-0.000008	-0.000001	0.000000	0.000000
62.765186	12.373753	24.397950	-0.072367	0.189297	2.129505	0.000000	0.004344	0.000000	-0.000008	-0.000001	0.000000	0.000000
63.098520	12.431024	24.276470	-0.099447	0.175145	2.130953	0.000000	0.004344	0.000000	-0.000008	-0.000001	0.000000	0.000000
63.433103	12.506665	24.164021	-0.126628	0.160940	2.132407	0.000000	0.004344	0.000000	-0.000009	-0.000001	0.000000	0.000000
63.730426	12.589146	24.072072	-0.119908	0.089280	2.133699	0.000000	-0.000889	0.000000	-0.000009	-0.000001	0.000000	0.000000
64.171386	12.855216	23.728229	-0.485770	0.687514	2.146847	0.000000	0.060576	0.000000	-0.000009	-0.000001	0.000000	0.000000
64.612346	13.452477	22.868622	-0.873825	1.254467	2.187225	0.000000	0.122731	0.000000	-0.000010	-0.000001	0.000000	0.000000
65.053306	14.408215	21.532364	-1.301803	1.764342	2.255293	0.000000	0.186284	0.000000	-0.000011	-0.000002	0.000000	0.000000
65.494266	15.766097	19.780252	-1.789257	2.193942	2.351825	0.000000	0.251959	0.000000	-0.000011	-0.000002	0.000000	0.000000
65.940226	17.611321	17.667213	-2.363148	2.524472	2.479495	0.000000	0.320905	0.000000	-0.000012	-0.000002	0.000000	0.000000
66.489286	19.976745	15.303384	-1.919486	1.806171	2.635328	0.000000	0.245892	0.000000	-0.000013	-0.000002	0.000000	0.000000
67.038346	21.777188	13.653485	-1.340241	1.216519	2.748715	0.000000	0.166518	0.000000	-0.000014	-0.000001	0.000000	0.000000
67.587406	22.885475	12.599998	-0.666328	0.713517	2.817643	0.000000	0.084190	0.000000	-0.000015	-0.000001	0.000000	0.000000
68.136466	23.223322	12.067885	0.054650	0.261338	2.840892	0.000000	0.000369	0.000000	-0.000015	-0.000000	0.000000	0.000000
68.435038	23.230765	11.901018	-0.018893	0.266010	2.843219	0.000000	0.007792	0.000000	-0.000016	-0.000000	0.000000	0.000000
68.768372	23.248145	11.733675	-0.033247	0.236019	2.845816	0.000000	0.007792	0.000000	-0.000016	-0.000000	0.000000	0.000000
69.101705	23.275094	11.586326	-0.047601	0.206028	2.848414	0.000000	0.007792	0.000000	-0.000016	-0.000000	0.000000	0.000000
69.436288	23.311768	11.458531	-0.062008	0.175925	2.851021	0.000000	0.007792	0.000000	-0.000016	-0.000000	0.000000	0.000000
69.733611	23.352447	11.361871	-0.135835	0.178865	2.853338	0.000000	0.015249	0.000000	-0.000016	-0.000001	0.000000	0.000000
70.282671	23.100544	11.392996	0.591909	-0.235886	2.838530	0.000000	-0.069112	0.000000	-0.000016	0.000000	0.000000	0.000000
