#ParticleID	Turn	x[m]	xp	y[m]	yp	z[m]	dE[GeV]# s	beta_x	beta_y	alpha_x	alpha_y	D_x	D_y	D_px	D_py	orbit_x	orbit_px	orbit_y	orbit_py
0.300000	11.805548	25.050726	-0.010270	-0.026877	2.618266	0.000000	-0.000048	0.000000	-0.000002	0.000002	0.000000	0.000000
0.601250	11.819424	25.070545	-0.035791	-0.038911	2.618251	0.000000	-0.000048	0.000000	-0.000001	0.000002	0.000000	0.000000
0.898573	11.848196	25.097215	-0.031923	-0.112334	2.618236	0.000000	-0.006468	0.000000	-0.000001	0.000002	0.000000	0.000000
1.339533	12.028381	24.917872	-0.378248	0.517498	2.631677	0.000000	0.067492	0.000000	0.000000	0.000002	0.000000	0.000000
1.780493	12.520435	24.191368	-0.741854	1.123784	2.677870	0.000000	0.142221	0.000000	0.000001	0.000002	0.000000	0.000000
2.221453	13.346837	22.950758	-1.139353	1.678938	2.757340	0.000000	0.218569	0.000000	0.000002	0.000002	0.000000	0.000000
2.662413	14.545345	21.252490	-1.588907	2.157703	2.870994	0.000000	0.297407	0.000000	0.000003	0.000002	0.000000	0.000000
3.108373	16.191435	19.148931	-2.115338	2.539427	3.021986	0.000000	0.380122	0.000000	0.000003	0.000002	0.000000	0.000000
3.657433	18.302308	16.786276	-1.706423	1.789063	3.205423	0.000000	0.287084	0.000000	0.000004	0.000002	0.000000	0.000000
4.206493	19.894894	15.173219	-1.176975	1.166130	3.336302	0.000000	0.188955	0.000000	0.000005	0.000002	0.000000	0.000000
4.755553	20.856702	14.194866	-0.564391	0.626258	3.412301	0.000000	0.087474	0.000000	0.000006	0.000001	0.000000	0.000000
5.304613	21.119795	13.781530	0.088059	0.130992	3.432072	0.000000	-0.015558	0.000000	0.000007	0.000001	0.000000	0.000000
5.603185	21.104386	13.688457	0.018728	0.144730	3.430104	0.000000	-0.006592	0.000000	0.000007	0.000001	0.000000	0.000000
5.936519	21.097167	13.600258	0.002928	0.119868	3.427906	0.000000	-0.006592	0.000000	0.000008	0.000001	0.000000	0.000000
6.269852	21.100482	13.528633	-0.012872	0.095007	3.425709	0.000000	-0.006592	0.000000	0.000008	0.000001	0.000000	0.000000
6.604435	21.114402	13.473407	-0.028731	0.070052	3.423503	0.000000	-0.006592	0.000000	0.000009	0.000001	0.000000	0.000000
6.901758	21.135677	13.438344	-0.098044	0.082986	3.421543	0.000000	0.002348	0.000000	0.000009	0.000001	0.000000	0.000000
7.450818	20.883156	13.608155	0.555238	-0.394086	3.394631	0.000000	-0.100228	0.000000	0.000010	0.000001	0.000000	0.000000
7.999878	19.930642	14.314094	1.169301	-0.899227	3.311806	0.000000	-0.201026	0.000000	0.000010	0.000001	0.000000	0.000000
8.548938	18.345417	15.606445	1.700770	-1.468418	3.174535	0.000000	-0.298258	0.000000	0.000010	0.000000	0.000000	0.000000
9.097998	16.239452	17.577259	2.112106	-2.142202	2.985254	0.000000	-0.390200	0.000000	0.000011	-0.000000	0.000000	0.000000
9.543958	14.596457	19.333328	1.585170	-1.778880	2.829545	0.000000	-0.308499	0.000000	0.000011	0.000000	0.000000	0.000000
9.984918	13.401530	20.712049	1.134940	-1.335857	2.710754	0.000000	-0.230796	0.000000	0.000011	0.000001	0.000000	0.000000
10.425878	12.579391	21.671662	0.736563	-0.832053	2.625616	0.000000	-0.155722	0.000000	0.000011	0.000001	0.000000	0.000000
10.866838	12.092479	22.168505	0.371837	-0.290391	2.573159	0.000000	-0.082421	0.000000	0.000011	0.000001	0.000000	0.000000
11.309048	11.918414	22.179448	0.053218	0.210038	2.552768	0.000000	-0.016318	0.000000	0.000012	0.000001	0.000000	0.000000
11.606371	11.894206	22.058712	0.028201	0.196041	2.547916	0.000000	-0.016318	0.000000	0.000012	0.000001	0.000000	0.000000
12.086371	11.886519	21.881358	-0.012187	0.173445	2.540083	0.000000	-0.016318	0.000000	0.000013	0.000001	0.000000	0.000000
12.566371	11.917604	21.725697	-0.052574	0.150849	2.532249	0.000000	-0.016318	0.000000	0.000014	0.000001	0.000000	0.000000
13.046371	11.987462	21.591729	-0.092962	0.128252	2.524416	0.000000	-0.016318	0.000000	0.000014	0.000001	0.000000	0.000000
13.526371	12.096092	21.479453	-0.133350	0.105656	2.516583	0.000000	-0.016318	0.000000	0.000015	0.000001	0.000000	0.000000
14.007621	12.243929	21.388662	-0.173843	0.083001	2.508729	0.000000	-0.016318	0.000000	0.000016	0.000001	0.000000	0.000000
14.304943	12.354742	21.343467	-0.168568	0.016672	2.503877	0.000000	-0.022457	0.000000	0.000016	0.000001	0.000000	0.000000
14.745903	12.661896	21.095176	-0.530631	0.544255	2.509603	0.000000	0.048455	0.000000	0.000017	0.000002	0.000000	0.000000
15.186863	13.297803	20.390783	-0.916937	1.047075	2.546690	0.000000	0.119920	0.000000	0.000018	0.000002	0.000000	0.000000
15.627823	14.291518	19.262336	-1.345136	1.502254	2.615561	0.000000	0.192750	0.000000	0.000019	0.000003	0.000000	0.000000
16.068783	15.688439	17.761180	-1.834790	1.889082	2.717000	0.000000	0.267775	0.000000	0.000020	0.000003	0.000000	0.000000
16.514743	17.576051	15.934116	-2.413029	2.190700	2.853856	0.000000	0.346313	0.000000	0.000022	0.000004	0.000000	0.000000
17.063803	20.000516	13.894098	-1.976494	1.546705	3.020276	0.000000	0.258999	0.000000	0.000024	0.000003	0.000000	0.000000
17.612863	21.865647	12.496979	-1.400349	1.012878	3.137421	0.000000	0.167091	0.000000	0.000025	0.000002	0.000000	0.000000
18.161923	23.039701	11.643247	-0.725290	0.551197	3.203215	0.000000	0.072219	0.000000	0.000026	0.000001	0.000000	0.000000
18.710983	23.439749	11.272091	0.001000	0.128776	3.216490	0.000000	-0.023934	0.000000	0.000026	0.000001	0.000000	0.000000
19.009556	23.479532	11.185716	-0.073015	0.131071	3.211852	0.000000	-0.015531	0.000000	0.000027	0.000001	0.000000	0.000000
19.342889	23.532966	11.108440	-0.087287	0.100759	3.206675	0.000000	-0.015531	0.000000	0.000027	0.000001	0.000000	0.000000
19.676223	23.595915	11.051371	-0.101559	0.070447	3.201498	0.000000	-0.015531	0.000000	0.000027	0.000001	0.000000	0.000000
20.010806	23.668961	11.014274	-0.233155	0.094593	3.196321	0.000000	0.000305	0.000000	0.000027	0.000001	0.000000	0.000000
20.308129	23.811544	10.966122	-0.308600	0.096003	3.196411	0.000000	0.008655	0.000000	0.000027	0.000001	0.000000	0.000000
20.857189	23.739723	11.082633	0.438632	-0.309455	3.174949	0.000000	-0.086715	0.000000	0.000028	-0.000000	0.000000	0.000000
21.406249	22.859579	11.653804	1.154880	-0.736956	3.101470	0.000000	-0.180546	0.000000	0.000027	-0.000001	0.000000	0.000000
21.955309	21.233280	12.720319	1.789554	-1.216948	2.977277	0.000000	-0.271175	0.000000	0.000027	-0.000002	0.000000	0.000000
22.504369	18.975699	14.358144	2.297822	-1.783620	2.804573	0.000000	-0.356994	0.000000	0.000025	-0.000003	0.000000	0.000000
22.950329	17.196432	15.828705	1.706004	-1.499986	2.662658	0.000000	-0.279801	0.000000	0.000024	-0.000002	0.000000	0.000000
23.391289	15.921237	17.001245	1.196826	-1.148956	2.555597	0.000000	-0.206249	0.000000	0.000024	-0.000001	0.000000	0.000000
23.832249	15.069379	17.839881	0.742327	-0.745649	2.480420	0.000000	-0.135046	0.000000	0.000023	-0.000001	0.000000	0.000000
24.273209	14.601939	18.306457	0.321744	-0.308415	2.436272	0.000000	-0.065381	0.000000	0.000023	-0.000000	0.000000	0.000000
24.715418	14.497683	18.379499	-0.048682	0.097719	2.422647	0.000000	-0.002400	0.000000	0.000023	0.000000	0.000000	0.000000
25.012741	14.532744	18.326246	-0.069239	0.081388	2.421934	0.000000	-0.002400	0.000000	0.000023	0.000000	0.000000	0.000000
25.346075	14.586586	18.278090	-0.092286	0.063079	2.421134	0.000000	-0.002400	0.000000	0.000023	0.000000	0.000000	0.000000
25.679408	14.655792	18.242141	-0.115333	0.044769	2.420333	0.000000	-0.002400	0.000000	0.000023	0.000000	0.000000	0.000000
26.013991	14.740410	18.218701	-0.018882	-0.121408	2.419506	0.000000	-0.022029	0.000000	0.000023	0.000000	0.000000	0.000000
26.311314	14.757637	18.295819	-0.002878	-0.182825	2.412956	0.000000	-0.027945	0.000000	0.000023	0.000000	0.000000	0.000000
26.752274	14.941979	18.258661	-0.416755	0.266771	2.415740	0.000000	0.040586	0.000000	0.000023	0.000001	0.000000	0.000000
27.193234	15.498313	17.828853	-0.849673	0.704229	2.448817	0.000000	0.109579	0.000000	0.000024	0.000001	0.000000	0.000000
27.634194	16.452055	17.025951	-1.321409	1.109646	2.512562	0.000000	0.179820	0.000000	0.000025	0.000002	0.000000	0.000000
28.075154	17.846781	15.886486	-1.853518	1.464574	2.607702	0.000000	0.252109	0.000000	0.000026	0.000003	0.000000	0.000000
28.521114	19.770439	14.445137	-2.475280	1.753777	2.736923	0.000000	0.327712	0.000000	0.000027	0.000003	0.000000	0.000000
29.070174	22.215406	12.839273	-1.951363	1.188238	2.894198	0.000000	0.244335	0.000000	0.000028	0.000002	0.000000	0.000000
29.619234	24.005493	11.804597	-1.289611	0.707334	3.004435	0.000000	0.156624	0.000000	0.000029	0.000001	0.000000	0.000000
30.168294	25.014257	11.267412	-0.536767	0.276813	3.065678	0.000000	0.066135	0.000000	0.000030	0.000000	0.000000	0.000000
30.717354	25.170442	11.189455	0.253992	-0.133992	3.076843	0.000000	-0.025527	0.000000	0.000030	-0.000001	0.000000	0.000000
31.015927	25.061701	11.260068	0.175960	-0.131740	3.071621	0.000000	-0.017490	0.000000	0.000030	-0.000000	0.000000	0.000000
31.349260	24.948965	11.357934	0.162248	-0.161856	3.065791	0.000000	-0.017490	0.000000	0.000030	-0.000000	0.000000	0.000000
31.682593	24.845371	11.475877	0.148535	-0.191973	3.059962	0.000000	-0.017490	0.000000	0.000029	-0.000000	0.000000	0.000000
32.017177	24.750581	11.614454	0.134772	-0.222203	3.054110	0.000000	-0.017490	0.000000	0.000029	-0.000000	0.000000	0.000000
32.314499	24.674076	11.754573	0.058088	-0.218362	3.048910	0.000000	-0.009526	0.000000	0.000029	-0.000000	0.000000	0.000000
32.863559	24.187515	12.233539	0.822837	-0.659126	3.018805	0.000000	-0.099976	0.000000	0.000029	-0.000001	0.000000	0.000000
33.412619	22.888267	13.219304	1.529466	-1.146839	2.939452	0.000000	-0.188653	0.000000	0.000028	-0.000002	0.000000	0.000000
33.961679	20.868105	14.782081	2.128061	-1.716238	2.812258	0.000000	-0.273984	0.000000	0.000026	-0.000003	0.000000	0.000000
34.510739	18.269723	17.033183	2.576340	-2.407882	2.639480	0.000000	-0.354455	0.000000	0.000024	-0.000004	0.000000	0.000000
34.956699	16.249329	19.046741	1.970327	-2.088375	2.497747	0.000000	-0.281541	0.000000	0.000023	-0.000003	0.000000	0.000000
35.397659	14.742692	20.712398	1.459353	-1.674593	2.388978	0.000000	-0.212263	0.000000	0.000021	-0.000003	0.000000	0.000000
35.838619	13.655702	21.978013	1.015052	-1.184618	2.310196	0.000000	-0.145402	0.000000	0.000020	-0.000002	0.000000	0.000000
36.279579	12.938697	22.785999	0.617126	-0.640744	2.260505	0.000000	-0.080196	0.000000	0.000019	-0.000002	0.000000	0.000000
36.721789	12.558223	23.099907	0.278080	-0.124408	2.239310	0.000000	-0.021395	0.000000	0.000019	-0.000001	0.000000	0.000000
37.019112	12.400448	23.177771	0.252573	-0.137479	2.232949	0.000000	-0.021395	0.000000	0.000018	-0.000001	0.000000	0.000000
37.352445	12.241598	23.274308	0.223978	-0.152132	2.225818	0.000000	-0.021395	0.000000	0.000018	-0.000001	0.000000	0.000000
37.685779	12.101811	23.380614	0.195382	-0.166785	2.218687	0.000000	-0.021395	0.000000	0.000018	-0.000001	0.000000	0.000000
38.020362	11.980671	23.497142	0.166679	-0.181494	2.211529	0.000000	-0.021395	0.000000	0.000017	-0.000001	0.000000	0.000000
38.317684	11.889140	23.608953	0.170324	-0.252452	2.205168	0.000000	-0.026802	0.000000	0.000017	-0.000001	0.000000	0.000000
38.758644	11.890474	23.570084	-0.173362	0.340263	2.207275	0.000000	0.036363	0.000000	0.000016	-0.000001	0.000000	0.000000
39.199604	12.197247	23.013344	-0.524969	0.917496	2.237299	0.000000	0.099943	0.000000	0.000016	-0.000000	0.000000	0.000000
39.640564	12.823473	21.964064	-0.900561	1.452983	2.295583	0.000000	0.164660	0.000000	0.000016	-0.000000	0.000000	0.000000
40.081524	13.797763	20.469986	-1.317296	1.922361	2.382792	0.000000	0.231254	0.000000	0.000016	0.000000	0.000000	0.000000
40.527484	15.182207	18.576511	-1.798043	2.305560	2.501388	0.000000	0.300886	0.000000	0.000016	0.000001	0.000000	0.000000
41.076544	16.948813	16.448654	-1.400420	1.592768	2.646067	0.000000	0.225344	0.000000	0.000016	0.000000	0.000000	0.000000
41.625604	18.221546	15.037011	-0.903878	0.993426	2.748109	0.000000	0.145806	0.000000	0.000016	-0.000000	0.000000	0.000000
42.174664	18.910505	14.241031	-0.343491	0.464844	2.805704	0.000000	0.063681	0.000000	0.000016	-0.000001	0.000000	0.000000
42.723724	18.967026	14.004021	0.241159	-0.030629	2.817832	0.000000	-0.019573	0.000000	0.000016	-0.000001	0.000000	0.000000
43.022297	18.857481	14.006830	0.175288	-0.015365	2.814186	0.000000	-0.012212	0.000000	0.000015	-0.000001	0.000000	0.000000
43.502297	18.701798	14.038033	0.149052	-0.049642	2.808325	0.000000	-0.012212	0.000000	0.000015	-0.000001	0.000000	0.000000
43.982297	18.571301	14.102143	0.122816	-0.083919	2.802464	0.000000	-0.012212	0.000000	0.000014	-0.000001	0.000000	0.000000
44.462297	18.465991	14.199158	0.096580	-0.118196	2.796603	0.000000	-0.012212	0.000000	0.000013	-0.000001	0.000000	0.000000
44.942297	18.385868	14.329079	0.070343	-0.152473	2.790742	0.000000	-0.012212	0.000000	0.000013	-0.000001	0.000000	0.000000
45.423547	18.331049	14.492194	-0.046783	-0.115036	2.784882	0.000000	0.001586	0.000000	0.000012	-0.000001	0.000000	0.000000
45.720870	18.363701	14.566781	-0.111015	-0.097768	2.785354	0.000000	0.008863	0.000000	0.000012	-0.000001	0.000000	0.000000
46.269930	18.176409	14.955818	0.450109	-0.614967	2.767653	0.000000	-0.073249	0.000000	0.000011	-0.000002	0.000000	0.000000
46.818990	17.386826	15.933379	0.979440	-1.175969	2.705159	0.000000	-0.154061	0.000000	0.000010	-0.000002	0.000000	0.000000
47.368050	16.050726	17.569093	1.439587	-1.820732	2.598980	0.000000	-0.232141	0.000000	0.000009	-0.000002	0.000000	0.000000
47.917110	14.262483	19.979468	1.798049	-2.595183	2.450999	0.000000	-0.306103	0.000000	0.000008	-0.000002	0.000000	0.000000
48.363070	12.870962	22.122423	1.333287	-2.189881	2.329780	0.000000	-0.237812	0.000000	0.000007	-0.000002	0.000000	0.000000
48.804030	11.875305	23.838156	0.933208	-1.686217	2.239373	0.000000	-0.172627	0.000000	0.000006	-0.000002	0.000000	0.000000
49.244990	11.212423	25.074041	0.575766	-1.105832	2.177250	0.000000	-0.109408	0.000000	0.000005	-0.000002	0.000000	0.000000
49.685950	10.852029	25.773846	0.244628	-0.475132	2.142703	0.000000	-0.047435	0.000000	0.000004	-0.000002	0.000000	0.000000
50.128160	10.777781	25.905447	-0.049020	0.113611	2.135350	0.000000	0.008761	0.000000	0.000003	-0.000002	0.000000	0.000000
50.425482	10.815153	25.841345	-0.076673	0.101985	2.137955	0.000000	0.008761	0.000000	0.000002	-0.000002	0.000000	0.000000
50.758816	10.876602	25.777699	-0.107675	0.088952	2.140876	0.000000	0.008761	0.000000	0.000002	-0.000002	0.000000	0.000000
51.092149	10.958720	25.722742	-0.138678	0.075918	2.143798	0.000000	0.008761	0.000000	0.000001	-0.000002	0.000000	0.000000
51.426732	11.061706	25.676838	-0.080056	-0.145467	2.146708	0.000000	-0.008654	0.000000	0.000001	-0.000002	0.000000	0.000000
51.724055	11.117354	25.766855	-0.079844	-0.220480	2.144135	0.000000	-0.013912	0.000000	0.000000	-0.000002	0.000000	0.000000
52.165015	11.332953	25.674613	-0.410943	0.428868	2.151589	0.000000	0.047749	0.000000	-0.000001	-0.000002	0.000000	0.000000
52.605975	11.847700	25.016149	-0.760818	1.058702	2.186327	0.000000	0.109953	0.000000	-0.000002	-0.000002	0.000000	0.000000
53.046935	12.685111	23.821421	-1.145452	1.640367	2.248745	0.000000	0.173410	0.000000	-0.000002	-0.000002	0.000000	0.000000
53.487895	13.883446	22.144789	-1.582418	2.147395	2.339553	0.000000	0.238842	0.000000	-0.000003	-0.000002	0.000000	0.000000
53.933855	15.517998	20.037473	-2.095905	2.558058	2.461290	0.000000	0.307393	0.000000	-0.000004	-0.000002	0.000000	0.000000
54.482915	17.622489	17.666146	-1.714307	1.786320	2.609888	0.000000	0.233088	0.000000	-0.000005	-0.000002	0.000000	0.000000
55.031975	19.238564	16.067857	-1.211619	1.141818	2.716491	0.000000	0.154647	0.000000	-0.000006	-0.000002	0.000000	0.000000
55.581035	20.252070	15.128762	-0.623348	0.578645	2.779207	0.000000	0.073464	0.000000	-0.000007	-0.000002	0.000000	0.000000
56.130095	20.591418	14.781973	0.008952	0.056688	2.796926	0.000000	-0.009022	0.000000	-0.000008	-0.000001	0.000000	0.000000
56.428668	20.622540	14.731142	-0.059382	0.074932	2.796414	0.000000	-0.001714	0.000000	-0.000008	-0.000001	0.000000	0.000000
56.762001	20.667534	14.688773	-0.075602	0.052177	2.795844	0.000000	-0.001714	0.000000	-0.000009	-0.000001	0.000000	0.000000
57.095334	20.723343	14.661573	-0.091823	0.029422	2.795273	0.000000	-0.001714	0.000000	-0.000009	-0.000001	0.000000	0.000000
57.429918	20.790235	14.649527	-0.108104	0.006582	2.794700	0.000000	-0.001714	0.000000	-0.000010	-0.000001	0.000000	0.000000
57.727240	20.858820	14.651648	-0.177077	0.024570	2.794191	0.000000	0.005588	0.000000	-0.000010	-0.000001	0.000000	0.000000
58.276300	20.697453	14.905958	0.469235	-0.490478	2.774618	0.000000	-0.076780	0.000000	-0.000011	-0.000001	0.000000	0.000000
58.825360	19.840438	15.741603	1.082402	-1.040462	2.710128	0.000000	-0.157786	0.000000	-0.000011	-0.000001	0.000000	0.000000
59.374420	18.348310	17.218104	1.619114	-1.664555	2.601865	0.000000	-0.235993	0.000000	-0.000011	-0.000000	0.000000	0.000000
59.923480	16.326467	19.440629	2.041460	-2.407211	2.451749	0.000000	-0.310014	0.000000	-0.000011	0.000000	0.000000	0.000000
60.369440	14.744030	21.415985	1.519488	-2.003537	2.328787	0.000000	-0.241726	0.000000	-0.000011	-0.000000	0.000000	0.000000
60.810400	13.605986	22.971268	1.071137	-1.510081	2.236644	0.000000	-0.176589	0.000000	-0.000012	-0.000000	0.000000	0.000000
61.251360	12.840359	24.059287	0.671723	-0.947918	2.172755	0.000000	-0.113463	0.000000	-0.000012	-0.000001	0.000000	0.000000
61.692320	12.412170	24.630538	0.302998	-0.342624	2.136390	0.000000	-0.051629	0.000000	-0.000012	-0.000001	0.000000	0.000000
62.134530	12.301912	24.658486	-0.021814	0.217727	2.127142	0.000000	0.004399	0.000000	-0.000013	-0.000001	0.000000	0.000000
62.431853	12.322073	24.532770	-0.045995	0.205097	2.128451	0.000000	0.004399	0.000000	-0.000013	-0.000001	0.000000	0.000000
62.765186	12.361772	24.400758	-0.073104	0.190939	2.129917	0.000000	0.004399	0.000000	-0.000014	-0.000001	0.000000	0.000000
63.098520	12.419545	24.278186	-0.100213	0.176780	2.131384	0.000000	0.004399	0.000000	-0.000014	-0.000001	0.000000	0.000000
63.433103	12.495708	24.164646	-0.127423	0.162568	2.132857	0.000000	0.004399	0.000000	-0.000015	-0.000001	0.000000	0.000000
63.730426	12.578669	24.071730	-0.120753	0.090899	2.134165	0.000000	-0.000835	0.000000	-0.000015	-0.000001	0.000000	0.000000
64.171386	12.845386	23.726476	-0.486398	0.689082	2.147340	0.000000	0.060642	0.000000	-0.000016	-0.000002	0.000000	0.000000
64.612346	13.443116	22.865536	-0.874266	1.255912	2.187750	0.000000	0.122811	0.000000	-0.000017	-0.000002	0.000000	0.000000
65.053306	14.399169	21.528081	-1.302077	1.765599	2.255856	0.000000	0.186377	0.000000	-0.000018	-0.000003	0.000000	0.000000
65.494266	15.757223	19.774966	-1.789376	2.194953	2.352433	0.000000	0.252067	0.000000	-0.000019	-0.000003	0.000000	0.000000
65.940226	17.602486	17.661154	-2.363117	2.525189	2.480155	0.000000	0.321029	0.000000	-0.000020	-0.000004	0.000000	0.000000
66.489286	19.968085	15.296526	-1.919836	1.806918	2.636051	0.000000	0.245994	0.000000	-0.000022	-0.000003	0.000000	0.000000
67.038346	21.769111	13.645766	-1.340947	1.217349	2.749488	0.000000	0.166596	0.000000	-0.000024	-0.000002	0.000000	0.000000
67.587406	22.878347	12.591296	-0.667341	0.714489	2.818453	0.000000	0.084242	0.000000	-0.000025	-0.000001	0.000000	0.000000
68.136466	23.217443	12.058007	0.053402	0.262521	2.841723	0.000000	0.000395	0.000000	-0.000025	-0.000001	0.000000	0.000000
68.435038	23.225626	11.890458	-0.020134	0.267131	2.844058	0.000000	0.007821	0.000000	-0.000025	-0.000001	0.000000	0.000000
68.768372	23.243834	11.722382	-0.034492	0.237097	2.846666	0.000000	0.007821	0.000000	-0.000026	-0.000001	0.000000	0.000000
69.101705	23.271614	11.574329	-0.048849	0.207063	2.849273	0.000000	0.007821	0.000000	-0.000026	-0.000001	0.000000	0.000000
69.436288	23.309124	11.445856	-0.063261	0.176916	2.851890	0.000000	0.007821	0.000000	-0.000026	-0.000001	0.000000	0.000000
69.733611	23.350550	11.348619	-0.137092	0.179785	2.854215	0.000000	0.015280	0.000000	-0.000026	-0.000001	0.000000	0.000000
70.282671	23.100049	11.378526	0.590626	-0.234576	2.839416	0.000000	-0.069110	0.000000	-0.000026	0.000000	0.000000	0.000000
