#ParticleID	Turn	x[m]	xp	y[m]	yp	z[m]	dE[GeV]# s	beta_x	beta_y	alpha_x	alpha_y	D_x	D_y	D_px	D_py	orbit_x	orbit_px	orbit_y	orbit_py
0.300000	11.824237	24.976051	-0.012328	-0.027626	2.618147	0.000000	-0.000002	0.000000	0.000001	0.000000	0.000000	0.000000
0.601250	11.839341	24.996332	-0.037810	-0.039697	2.618146	0.000000	-0.000002	0.000000	0.000001	0.000000	0.000000	0.000000
0.898573	11.869301	25.023479	-0.033852	-0.112975	2.618145	0.000000	-0.006422	0.000000	0.000001	0.000000	0.000000	0.000000
1.339533	12.051415	24.845559	-0.380708	0.514922	2.631606	0.000000	0.067536	0.000000	0.000001	0.000001	0.000000	0.000000
1.780493	12.545912	24.122140	-0.744957	1.119391	2.677819	0.000000	0.142263	0.000000	0.000002	0.000001	0.000000	0.000000
2.221453	13.375386	22.886135	-1.143242	1.672928	2.757308	0.000000	0.218610	0.000000	0.000002	0.000001	0.000000	0.000000
2.662413	14.577732	21.193784	-1.593757	2.150348	2.870980	0.000000	0.297448	0.000000	0.000002	0.000001	0.000000	0.000000
3.108373	16.228663	19.097264	-2.121383	2.531060	3.021990	0.000000	0.380162	0.000000	0.000002	0.000001	0.000000	0.000000
3.657433	18.345678	16.742632	-1.711500	1.782733	3.205450	0.000000	0.287124	0.000000	0.000003	0.000001	0.000000	0.000000
4.206493	19.943139	15.135620	-1.180725	1.161386	3.336352	0.000000	0.188994	0.000000	0.000003	0.000001	0.000000	0.000000
4.755553	20.908210	14.161764	-0.566549	0.622762	3.412372	0.000000	0.087511	0.000000	0.000003	0.000000	0.000000	0.000000
5.304613	21.172723	13.751698	0.087645	0.128496	3.432163	0.000000	-0.015524	0.000000	0.000004	0.000000	0.000000	0.000000
5.603185	21.157634	13.660170	0.018210	0.142127	3.430206	0.000000	-0.006557	0.000000	0.000004	0.000000	0.000000	0.000000
5.936519	21.150748	13.573717	0.002450	0.117232	3.428020	0.000000	-0.006557	0.000000	0.000004	0.000000	0.000000	0.000000
6.269852	21.154368	13.503860	-0.013310	0.092337	3.425834	0.000000	-0.006557	0.000000	0.000004	0.000000	0.000000	0.000000
6.604435	21.168567	13.450432	-0.029129	0.067349	3.423640	0.000000	-0.006557	0.000000	0.000004	0.000000	0.000000	0.000000
6.901758	21.190068	13.416985	-0.098550	0.080199	3.421690	0.000000	0.002383	0.000000	0.000004	0.000000	0.000000	0.000000
7.450818	20.937100	13.589537	0.556552	-0.396322	3.394798	0.000000	-0.100198	0.000000	0.000004	0.000000	0.000000	0.000000
7.999878	19.982180	14.297705	1.172343	-0.901073	3.311987	0.000000	-0.201001	0.000000	0.000004	0.000000	0.000000	0.000000
8.548938	18.392758	15.591929	1.705325	-1.470004	3.174729	0.000000	-0.298240	0.000000	0.000004	-0.000000	0.000000	0.000000
9.097998	16.281104	17.564394	2.117852	-2.143641	2.985456	0.000000	-0.390188	0.000000	0.000004	-0.000000	0.000000	0.000000
9.543958	14.633553	19.322001	1.589676	-1.780878	2.829755	0.000000	-0.308482	0.000000	0.000004	-0.000000	0.000000	0.000000
9.984918	13.435118	20.702695	1.138421	-1.338316	2.710973	0.000000	-0.230773	0.000000	0.000004	-0.000000	0.000000	0.000000
10.425878	12.610300	21.664640	0.739178	-0.834862	2.625846	0.000000	-0.155693	0.000000	0.000004	0.000000	0.000000	0.000000
10.866838	12.121417	22.164070	0.373706	-0.293423	2.573404	0.000000	-0.082386	0.000000	0.000004	0.000000	0.000000	0.000000
11.309048	11.945997	22.177742	0.054497	0.206923	2.553030	0.000000	-0.016278	0.000000	0.000004	0.000000	0.000000	0.000000
11.606371	11.921013	22.058853	0.029534	0.192942	2.548190	0.000000	-0.016278	0.000000	0.000004	0.000000	0.000000	0.000000
12.086371	11.912004	21.884462	-0.010766	0.170372	2.540377	0.000000	-0.016278	0.000000	0.000004	0.000000	0.000000	0.000000
12.566371	11.941684	21.731739	-0.051066	0.147802	2.532563	0.000000	-0.016278	0.000000	0.000005	0.000000	0.000000	0.000000
13.046371	12.010052	21.600682	-0.091367	0.125232	2.524750	0.000000	-0.016278	0.000000	0.000005	0.000000	0.000000	0.000000
13.526371	12.117108	21.491293	-0.131667	0.102662	2.516937	0.000000	-0.016278	0.000000	0.000005	0.000000	0.000000	0.000000
14.007621	12.263282	21.403371	-0.172072	0.080033	2.509103	0.000000	-0.016278	0.000000	0.000005	0.000000	0.000000	0.000000
14.304943	12.373025	21.359936	-0.166694	0.013675	2.504263	0.000000	-0.022419	0.000000	0.000005	0.000000	0.000000	0.000000
14.745903	12.678689	21.114073	-0.529112	0.541767	2.510009	0.000000	0.048504	0.000000	0.000005	0.000000	0.000000	0.000000
15.186863	13.313387	20.411607	-0.915704	1.045209	2.547120	0.000000	0.119979	0.000000	0.000006	0.000001	0.000000	0.000000
15.627823	14.306119	19.284499	-1.344132	1.501095	2.616021	0.000000	0.192821	0.000000	0.000006	0.000001	0.000000	0.000000
16.068783	15.702239	17.784033	-1.833970	1.888683	2.717495	0.000000	0.267859	0.000000	0.000006	0.000001	0.000000	0.000000
16.514743	17.589186	15.956975	-2.412354	2.191084	2.854392	0.000000	0.346410	0.000000	0.000007	0.000001	0.000000	0.000000
17.063803	20.012544	13.916811	-1.975166	1.546588	3.020861	0.000000	0.259077	0.000000	0.000007	0.000001	0.000000	0.000000
17.612863	21.875898	12.520098	-1.398461	1.012253	3.138046	0.000000	0.167150	0.000000	0.000008	0.000001	0.000000	0.000000
18.161923	23.047632	11.667351	-0.722976	0.550018	3.203867	0.000000	0.072257	0.000000	0.000008	0.000000	0.000000	0.000000
18.710983	23.444978	11.297832	0.003576	0.126959	3.217157	0.000000	-0.023917	0.000000	0.000008	0.000000	0.000000	0.000000
19.009556	23.483235	11.212477	-0.070455	0.129402	3.212526	0.000000	-0.015511	0.000000	0.000008	0.000000	0.000000	0.000000
19.342889	23.534960	11.136284	-0.084720	0.099175	3.207355	0.000000	-0.015511	0.000000	0.000008	0.000000	0.000000	0.000000
19.676223	23.596195	11.080243	-0.098985	0.068948	3.202185	0.000000	-0.015511	0.000000	0.000008	0.000000	0.000000	0.000000
20.010806	23.667516	11.044120	-0.230565	0.093328	3.197015	0.000000	0.000329	0.000000	0.000008	0.000000	0.000000	0.000000
20.308129	23.808554	10.996697	-0.305999	0.094902	3.197112	0.000000	0.008681	0.000000	0.000008	0.000000	0.000000	0.000000
20.857189	23.733946	11.114891	0.441078	-0.311440	3.175660	0.000000	-0.086711	0.000000	0.000008	-0.000000	0.000000	0.000000
21.406249	22.851280	11.688788	1.157000	-0.739965	3.102176	0.000000	-0.180565	0.000000	0.000008	-0.000000	0.000000	0.000000
21.955309	21.222904	12.759265	1.791196	-1.221197	2.977966	0.000000	-0.271217	0.000000	0.000008	-0.000001	0.000000	0.000000
22.504369	18.963838	14.402569	2.298872	-1.789411	2.805232	0.000000	-0.357058	0.000000	0.000007	-0.000001	0.000000	0.000000
22.950329	17.183582	15.877850	1.707182	-1.504733	2.663292	0.000000	-0.279847	0.000000	0.000007	-0.000001	0.000000	0.000000
23.391289	15.907273	17.054036	1.198185	-1.152447	2.556213	0.000000	-0.206279	0.000000	0.000007	-0.000000	0.000000	0.000000
23.832249	15.054114	17.895137	0.743931	-0.747725	2.481026	0.000000	-0.135061	0.000000	0.000006	-0.000000	0.000000	0.000000
24.273209	14.585127	18.362882	0.323664	-0.308983	2.436875	0.000000	-0.065380	0.000000	0.000006	-0.000000	0.000000	0.000000
24.715418	14.479000	18.435745	-0.046398	0.098542	2.423255	0.000000	-0.002386	0.000000	0.000006	-0.000000	0.000000	0.000000
25.012741	14.512709	18.381989	-0.066977	0.082258	2.422545	0.000000	-0.002386	0.000000	0.000006	-0.000000	0.000000	0.000000
25.346075	14.565051	18.333236	-0.090048	0.064001	2.421750	0.000000	-0.002386	0.000000	0.000006	-0.000000	0.000000	0.000000
25.679408	14.632774	18.296654	-0.113120	0.045745	2.420954	0.000000	-0.002386	0.000000	0.000006	-0.000000	0.000000	0.000000
26.013991	14.715919	18.272545	-0.016893	-0.120816	2.420131	0.000000	-0.022020	0.000000	0.000006	-0.000000	0.000000	0.000000
26.311314	14.731973	18.349296	-0.000977	-0.182320	2.413584	0.000000	-0.027938	0.000000	0.000006	-0.000000	0.000000	0.000000
26.752274	14.914356	18.311053	-0.414196	0.268715	2.416375	0.000000	0.040609	0.000000	0.000006	0.000000	0.000000	0.000000
27.193234	15.468101	17.878927	-0.846338	0.707524	2.449465	0.000000	0.109618	0.000000	0.000006	0.000000	0.000000	0.000000
27.634194	16.418506	17.072577	-1.317147	1.114141	2.513232	0.000000	0.179876	0.000000	0.000007	0.000000	0.000000	0.000000
28.075154	17.808993	15.928692	-1.848133	1.470065	2.608402	0.000000	0.252183	0.000000	0.000007	0.000001	0.000000	0.000000
28.521114	19.727250	14.482090	-2.468514	1.760016	2.737661	0.000000	0.327805	0.000000	0.000007	0.000001	0.000000	0.000000
29.070174	22.165366	12.870193	-1.945725	1.193053	2.894981	0.000000	0.244403	0.000000	0.000007	0.000001	0.000000	0.000000
29.619234	23.950068	11.830851	-1.285500	0.711068	3.005248	0.000000	0.156666	0.000000	0.000008	0.000000	0.000000	0.000000
30.168294	24.955293	11.290035	-0.534473	0.279731	3.066508	0.000000	0.066150	0.000000	0.000008	0.000000	0.000000	0.000000
30.717354	25.110038	11.209223	0.254306	-0.131681	3.077674	0.000000	-0.025539	0.000000	0.000008	-0.000000	0.000000	0.000000
31.015927	25.001032	11.278404	0.176388	-0.129311	3.072450	0.000000	-0.017498	0.000000	0.000008	-0.000000	0.000000	0.000000
31.349260	24.888022	11.374628	0.162641	-0.159360	3.066617	0.000000	-0.017498	0.000000	0.000008	-0.000000	0.000000	0.000000
31.682593	24.784178	11.490884	0.148893	-0.189409	3.060785	0.000000	-0.017498	0.000000	0.000007	-0.000000	0.000000	0.000000
32.017177	24.689160	11.627722	0.135094	-0.219571	3.054930	0.000000	-0.017498	0.000000	0.000007	-0.000000	0.000000	0.000000
32.314499	24.612473	11.766259	0.058528	-0.215633	3.049728	0.000000	-0.009530	0.000000	0.000007	-0.000000	0.000000	0.000000
32.863559	24.126554	12.242344	0.821236	-0.656576	3.019613	0.000000	-0.100006	0.000000	0.000007	-0.000000	0.000000	0.000000
33.412619	22.830142	13.225323	1.525936	-1.144286	2.940235	0.000000	-0.188709	0.000000	0.000007	-0.000001	0.000000	0.000000
33.961679	20.814809	14.785212	2.122851	-1.713501	2.813003	0.000000	-0.274065	0.000000	0.000006	-0.000001	0.000000	0.000000
34.510739	18.222908	17.033118	2.569819	-2.404765	2.640173	0.000000	-0.354559	0.000000	0.000006	-0.000001	0.000000	0.000000
34.956699	16.207680	19.043744	1.965226	-2.084944	2.498396	0.000000	-0.281628	0.000000	0.000006	-0.000001	0.000000	0.000000
35.397659	14.705010	20.706295	1.455425	-1.671007	2.389592	0.000000	-0.212333	0.000000	0.000005	-0.000001	0.000000	0.000000
35.838619	13.621034	21.968738	1.012118	-1.181041	2.310781	0.000000	-0.145457	0.000000	0.000005	-0.000001	0.000000	0.000000
36.279579	12.906229	22.773633	0.615052	-0.637338	2.261068	0.000000	-0.080237	0.000000	0.000005	-0.000001	0.000000	0.000000
36.721789	12.527244	23.084662	0.276700	-0.121299	2.239859	0.000000	-0.021423	0.000000	0.000004	-0.000000	0.000000	0.000000
37.019112	12.370302	23.160678	0.251149	-0.134368	2.233489	0.000000	-0.021423	0.000000	0.000004	-0.000000	0.000000	0.000000
37.352445	12.212418	23.255141	0.222503	-0.149020	2.226348	0.000000	-0.021423	0.000000	0.000004	-0.000000	0.000000	0.000000
37.685779	12.073632	23.359372	0.193857	-0.163673	2.219207	0.000000	-0.021423	0.000000	0.000004	-0.000000	0.000000	0.000000
38.020362	11.953529	23.473817	0.165104	-0.178380	2.212040	0.000000	-0.021423	0.000000	0.000004	-0.000000	0.000000	0.000000
38.317684	11.862948	23.583775	0.168643	-0.249281	2.205670	0.000000	-0.026832	0.000000	0.000004	-0.000000	0.000000	0.000000
38.758644	11.865505	23.542413	-0.174464	0.342723	2.207766	0.000000	0.036346	0.000000	0.000004	-0.000000	0.000000	0.000000
39.199604	12.173014	22.983860	-0.525543	0.919133	2.237785	0.000000	0.099938	0.000000	0.000003	-0.000000	0.000000	0.000000
39.640564	12.799523	21.933529	-0.900631	1.453723	2.296070	0.000000	0.164668	0.000000	0.000003	-0.000000	0.000000	0.000000
40.081524	13.773655	20.439208	-1.316867	1.922170	2.383285	0.000000	0.231274	0.000000	0.000003	-0.000000	0.000000	0.000000
40.527484	15.157485	18.546321	-1.797092	2.304440	2.501894	0.000000	0.300919	0.000000	0.000003	0.000000	0.000000	0.000000
41.076544	16.923565	16.419255	-1.400418	1.592441	2.646586	0.000000	0.225361	0.000000	0.000003	-0.000000	0.000000	0.000000
41.625604	18.196818	15.007549	-0.904825	0.993868	2.748633	0.000000	0.145806	0.000000	0.000003	-0.000000	0.000000	0.000000
42.174664	18.887310	14.210651	-0.345319	0.466086	2.806224	0.000000	0.063664	0.000000	0.000003	-0.000000	0.000000	0.000000
42.723724	18.946267	13.971799	0.238578	-0.028498	2.818337	0.000000	-0.019607	0.000000	0.000003	-0.000000	0.000000	0.000000
43.022297	18.838234	13.973399	0.172753	-0.013364	2.814681	0.000000	-0.012243	0.000000	0.000003	-0.000000	0.000000	0.000000
43.502297	18.684987	14.002720	0.146513	-0.047722	2.808805	0.000000	-0.012243	0.000000	0.000003	-0.000000	0.000000	0.000000
43.982297	18.556930	14.065024	0.120272	-0.082079	2.802928	0.000000	-0.012243	0.000000	0.000002	-0.000000	0.000000	0.000000
44.462297	18.454064	14.160311	0.094032	-0.116436	2.797051	0.000000	-0.012243	0.000000	0.000002	-0.000000	0.000000	0.000000
44.942297	18.376389	14.288581	0.067791	-0.150793	2.791175	0.000000	-0.012243	0.000000	0.000002	-0.000000	0.000000	0.000000
45.423547	18.324028	14.450118	-0.049305	-0.113645	2.785300	0.000000	0.001557	0.000000	0.000002	-0.000000	0.000000	0.000000
45.720870	18.358183	14.523893	-0.113536	-0.096539	2.785763	0.000000	0.008835	0.000000	0.000002	-0.000000	0.000000	0.000000
46.269930	18.173738	14.910858	0.447475	-0.612399	2.768043	0.000000	-0.073289	0.000000	0.000002	-0.000000	0.000000	0.000000
46.818990	17.387026	15.884786	0.976878	-1.171880	2.705522	0.000000	-0.154114	0.000000	0.000001	-0.000000	0.000000	0.000000
47.368050	16.053616	17.515046	1.437279	-1.814831	2.599310	0.000000	-0.232205	0.000000	0.000001	-0.000001	0.000000	0.000000
47.917110	14.267693	19.917759	1.796158	-2.587048	2.451290	0.000000	-0.306177	0.000000	0.000001	-0.000001	0.000000	0.000000
48.363070	12.877816	22.054047	1.331478	-2.183125	2.330039	0.000000	-0.237879	0.000000	0.000001	-0.000001	0.000000	0.000000
48.804030	11.883749	23.764542	0.931398	-1.681141	2.239604	0.000000	-0.172688	0.000000	0.000000	-0.000001	0.000000	0.000000
49.244990	11.222495	24.996779	0.573870	-1.102667	2.177454	0.000000	-0.109463	0.000000	0.000000	-0.000001	0.000000	0.000000
49.685950	10.863842	25.694692	0.242561	-0.474022	2.142884	0.000000	-0.047485	0.000000	-0.000000	-0.000001	0.000000	0.000000
50.128160	10.791532	25.826244	-0.051319	0.112807	2.135508	0.000000	0.008715	0.000000	-0.000000	-0.000001	0.000000	0.000000
50.425482	10.830262	25.762630	-0.078943	0.101148	2.138100	0.000000	0.008715	0.000000	-0.000001	-0.000001	0.000000	0.000000
50.758816	10.893214	25.699555	-0.109912	0.088077	2.141005	0.000000	0.008715	0.000000	-0.000001	-0.000001	0.000000	0.000000
51.092149	10.976812	25.645195	-0.140882	0.075006	2.143910	0.000000	0.008715	0.000000	-0.000001	-0.000001	0.000000	0.000000
51.426732	11.081262	25.599912	-0.082070	-0.145793	2.146805	0.000000	-0.008701	0.000000	-0.000001	-0.000001	0.000000	0.000000
51.724055	11.138095	25.690134	-0.081767	-0.220655	2.144218	0.000000	-0.013959	0.000000	-0.000001	-0.000000	0.000000	0.000000
52.165015	11.355613	25.598943	-0.413387	0.426670	2.151651	0.000000	0.047703	0.000000	-0.000001	-0.000001	0.000000	0.000000
52.605975	11.872785	24.943274	-0.763894	1.054583	2.186368	0.000000	0.109909	0.000000	-0.000002	-0.000001	0.000000	0.000000
53.046935	12.713239	23.752961	-1.149301	1.634513	2.248766	0.000000	0.173367	0.000000	-0.000002	-0.000001	0.000000	0.000000
53.487895	13.915373	22.082162	-1.587216	2.140073	2.339554	0.000000	0.238799	0.000000	-0.000002	-0.000001	0.000000	0.000000
53.933855	15.554712	19.981914	-2.101881	2.549597	2.461272	0.000000	0.307350	0.000000	-0.000003	-0.000001	0.000000	0.000000
54.482915	17.665278	17.618660	-1.719328	1.779991	2.609845	0.000000	0.233045	0.000000	-0.000003	-0.000001	0.000000	0.000000
55.031975	19.286176	16.026363	-1.215330	1.137169	2.716425	0.000000	0.154607	0.000000	-0.000003	-0.000001	0.000000	0.000000
55.581035	20.302914	15.091607	-0.625488	0.575345	2.779119	0.000000	0.073426	0.000000	-0.000003	-0.000000	0.000000	0.000000
56.130095	20.643675	14.747813	0.008536	0.054502	2.796817	0.000000	-0.009057	0.000000	-0.000004	-0.000000	0.000000	0.000000
56.428668	20.675115	14.698353	-0.059897	0.072616	2.796295	0.000000	-0.001749	0.000000	-0.000004	-0.000000	0.000000	0.000000
56.762001	20.720440	14.657542	-0.076077	0.049818	2.795712	0.000000	-0.001749	0.000000	-0.000004	-0.000000	0.000000	0.000000
57.095334	20.776551	14.631929	-0.092257	0.027020	2.795129	0.000000	-0.001749	0.000000	-0.000004	-0.000000	0.000000	0.000000
57.429918	20.843721	14.621504	-0.108498	0.004137	2.794544	0.000000	-0.001749	0.000000	-0.000004	-0.000000	0.000000	0.000000
57.727240	20.912530	14.625090	-0.177573	0.022016	2.794024	0.000000	0.005551	0.000000	-0.000004	-0.000000	0.000000	0.000000
58.276300	20.750717	14.881800	0.470538	-0.492321	2.774432	0.000000	-0.076810	0.000000	-0.000004	-0.000000	0.000000	0.000000
58.825360	19.891319	15.719141	1.085412	-1.041725	2.709927	0.000000	-0.157810	0.000000	-0.000004	-0.000000	0.000000	0.000000
59.374420	18.395042	17.196754	1.623619	-1.665329	2.601652	0.000000	-0.236010	0.000000	-0.000004	0.000000	0.000000	0.000000
59.923480	16.367572	19.419886	2.047141	-2.407550	2.451528	0.000000	-0.310024	0.000000	-0.000004	0.000000	0.000000	0.000000
60.369440	14.780631	21.395872	1.523945	-2.004607	2.328560	0.000000	-0.241743	0.000000	-0.000004	0.000000	0.000000	0.000000
60.810400	13.639114	22.952402	1.074583	-1.511827	2.236409	0.000000	-0.176611	0.000000	-0.000004	0.000000	0.000000	0.000000
61.251360	12.870835	24.042231	0.674316	-0.950261	2.172508	0.000000	-0.113492	0.000000	-0.000004	-0.000000	0.000000	0.000000
61.692320	12.440691	24.615774	0.304856	-0.345458	2.136129	0.000000	-0.051664	0.000000	-0.000004	-0.000000	0.000000	0.000000
62.134530	12.329083	24.646397	-0.020542	0.214566	2.126863	0.000000	0.004358	0.000000	-0.000004	-0.000000	0.000000	0.000000
62.431853	12.348471	24.522558	-0.044668	0.201947	2.128159	0.000000	0.004358	0.000000	-0.000005	-0.000000	0.000000	0.000000
62.765186	12.387265	24.392643	-0.071715	0.187800	2.129612	0.000000	0.004358	0.000000	-0.000005	-0.000000	0.000000	0.000000
63.098520	12.444092	24.272159	-0.098763	0.173652	2.131065	0.000000	0.004358	0.000000	-0.000005	-0.000000	0.000000	0.000000
63.433103	12.519264	24.160708	-0.125912	0.159452	2.132523	0.000000	0.004358	0.000000	-0.000005	-0.000000	0.000000	0.000000
63.730426	12.601311	24.069642	-0.119134	0.087804	2.133819	0.000000	-0.000875	0.000000	-0.000005	-0.000000	0.000000	0.000000
64.171386	12.866814	23.727116	-0.485254	0.686013	2.146974	0.000000	0.060594	0.000000	-0.000005	-0.000000	0.000000	0.000000
64.612346	13.463725	22.868820	-0.873543	1.253008	2.187360	0.000000	0.122752	0.000000	-0.000005	-0.000001	0.000000	0.000000
65.053306	14.419314	21.533805	-1.301743	1.762992	2.255437	0.000000	0.186309	0.000000	-0.000006	-0.000001	0.000000	0.000000
65.494266	15.777239	19.782813	-1.789415	2.192761	2.351981	0.000000	0.251987	0.000000	-0.000006	-0.000001	0.000000	0.000000
65.940226	17.622705	17.670729	-2.363533	2.523518	2.479663	0.000000	0.320937	0.000000	-0.000006	-0.000001	0.000000	0.000000
66.489286	19.988305	15.307914	-1.919418	1.805266	2.635512	0.000000	0.245919	0.000000	-0.000007	-0.000001	0.000000	0.000000
67.038346	21.788426	13.659012	-1.339725	1.215598	2.748911	0.000000	0.166538	0.000000	-0.000007	-0.000001	0.000000	0.000000
67.587406	22.895916	12.606574	-0.665401	0.712515	2.817849	0.000000	0.084204	0.000000	-0.000008	-0.000000	0.000000	0.000000
68.136466	23.232549	12.075638	0.055924	0.260183	2.841103	0.000000	0.000376	0.000000	-0.000008	-0.000000	0.000000	0.000000
68.435038	23.239242	11.909439	-0.017634	0.264907	2.843432	0.000000	0.007800	0.000000	-0.000008	-0.000000	0.000000	0.000000
68.768372	23.255781	11.742819	-0.031982	0.234954	2.846032	0.000000	0.007800	0.000000	-0.000008	-0.000000	0.000000	0.000000
69.101705	23.281885	11.596167	-0.046330	0.205001	2.848632	0.000000	0.007800	0.000000	-0.000008	-0.000000	0.000000	0.000000
69.436288	23.317706	11.469047	-0.060732	0.174935	2.851241	0.000000	0.007800	0.000000	-0.000008	-0.000000	0.000000	0.000000
69.733611	23.357626	11.372966	-0.134563	0.177936	2.853560	0.000000	0.015256	0.000000	-0.000008	-0.000000	0.000000	0.000000
70.282671	23.104243	11.405285	0.593315	-0.237145	2.838753	0.000000	-0.069112	0.000000	-0.000008	0.000000	0.000000	0.000000
