#ParticleID	Turn	x[m]	xp	y[m]	yp	z[m]	dE[GeV]# s	beta_x	beta_y	alpha_x	alpha_y	D_x	D_y	D_px	D_py	orbit_x	orbit_px	orbit_y	orbit_py
0.300000	11.808744	25.038329	-0.010558	-0.027036	2.618182	0.000000	-0.000017	0.000000	-0.000001	0.000002	0.000000	0.000000
0.601250	11.822791	25.058246	-0.036071	-0.039076	2.618177	0.000000	-0.000017	0.000000	-0.000000	0.000002	0.000000	0.000000
0.898573	11.851727	25.085015	-0.032188	-0.112474	2.618171	0.000000	-0.006437	0.000000	0.000000	0.000002	0.000000	0.000000
1.339533	12.032184	24.905937	-0.378601	0.517038	2.631626	0.000000	0.067522	0.000000	0.000001	0.000002	0.000000	0.000000
1.780493	12.524593	24.179973	-0.742310	1.123025	2.677832	0.000000	0.142249	0.000000	0.000002	0.000002	0.000000	0.000000
2.221453	13.351451	22.940151	-1.139934	1.677916	2.757315	0.000000	0.218597	0.000000	0.000002	0.000002	0.000000	0.000000
2.662413	14.550535	21.242885	-1.589638	2.156463	2.870980	0.000000	0.297434	0.000000	0.000003	0.000002	0.000000	0.000000
3.108373	16.197358	19.140508	-2.116256	2.538026	3.021984	0.000000	0.380149	0.000000	0.000004	0.000002	0.000000	0.000000
3.657433	18.309156	16.779200	-1.707182	1.787998	3.205437	0.000000	0.287111	0.000000	0.000005	0.000002	0.000000	0.000000
4.206493	19.902463	15.167163	-1.177521	1.165325	3.336330	0.000000	0.188981	0.000000	0.000006	0.000002	0.000000	0.000000
4.755553	20.864735	14.189578	-0.564686	0.625656	3.412344	0.000000	0.087499	0.000000	0.000007	0.000001	0.000000	0.000000
5.304613	21.128004	13.776811	0.088036	0.130551	3.432128	0.000000	-0.015535	0.000000	0.000007	0.000001	0.000000	0.000000
5.603185	21.112620	13.684010	0.018689	0.144272	3.430167	0.000000	-0.006568	0.000000	0.000008	0.000001	0.000000	0.000000
5.936519	21.105425	13.596117	0.002895	0.119405	3.427977	0.000000	-0.006568	0.000000	0.000008	0.000001	0.000000	0.000000
6.269852	21.108760	13.524802	-0.012899	0.094539	3.425788	0.000000	-0.006568	0.000000	0.000008	0.000001	0.000000	0.000000
6.604435	21.122695	13.469891	-0.028752	0.069579	3.423590	0.000000	-0.006568	0.000000	0.000009	0.000001	0.000000	0.000000
6.901758	21.143981	13.435111	-0.098081	0.082500	3.421637	0.000000	0.002371	0.000000	0.000009	0.000001	0.000000	0.000000
7.450818	20.891347	13.605406	0.555478	-0.394489	3.394738	0.000000	-0.100207	0.000000	0.000009	0.000001	0.000000	0.000000
7.999878	19.938425	14.311758	1.169801	-0.899578	3.311922	0.000000	-0.201009	0.000000	0.000010	0.000001	0.000000	0.000000
8.548938	18.352523	15.604477	1.701495	-1.468741	3.174660	0.000000	-0.298245	0.000000	0.000010	0.000000	0.000000	0.000000
9.097998	16.245663	17.575641	2.113003	-2.142520	2.985385	0.000000	-0.390191	0.000000	0.000010	-0.000000	0.000000	0.000000
9.543958	14.601953	19.332031	1.585879	-1.779280	2.829682	0.000000	-0.308487	0.000000	0.000010	0.000000	0.000000	0.000000
9.984918	13.406472	20.711135	1.135494	-1.336320	2.710897	0.000000	-0.230780	0.000000	0.000010	0.000000	0.000000	0.000000
10.425878	12.583903	21.671176	0.736987	-0.832558	2.625766	0.000000	-0.155702	0.000000	0.000010	0.000001	0.000000	0.000000
10.866838	12.096666	22.168475	0.372151	-0.290915	2.573320	0.000000	-0.082397	0.000000	0.000011	0.000001	0.000000	0.000000
11.309048	11.922366	22.179880	0.053447	0.209518	2.552940	0.000000	-0.016290	0.000000	0.000011	0.000001	0.000000	0.000000
11.606371	11.898020	22.059452	0.028437	0.195525	2.548096	0.000000	-0.016290	0.000000	0.000012	0.000001	0.000000	0.000000
12.086371	11.890100	21.882592	-0.011938	0.172934	2.540276	0.000000	-0.016290	0.000000	0.000012	0.000001	0.000000	0.000000
12.566371	11.920941	21.727419	-0.052313	0.150342	2.532456	0.000000	-0.016290	0.000000	0.000013	0.000001	0.000000	0.000000
13.046371	11.990542	21.593934	-0.092689	0.127751	2.524636	0.000000	-0.016290	0.000000	0.000013	0.000001	0.000000	0.000000
13.526371	12.098904	21.482137	-0.133064	0.105160	2.516816	0.000000	-0.016290	0.000000	0.000014	0.000001	0.000000	0.000000
14.007621	12.246459	21.391821	-0.173545	0.082510	2.508976	0.000000	-0.016290	0.000000	0.000014	0.000001	0.000000	0.000000
14.304943	12.357093	21.346918	-0.168255	0.016175	2.504132	0.000000	-0.022430	0.000000	0.000015	0.000001	0.000000	0.000000
14.745903	12.663991	21.099020	-0.530362	0.543862	2.509872	0.000000	0.048489	0.000000	0.000015	0.000002	0.000000	0.000000
15.186863	13.299676	20.394921	-0.916699	1.046803	2.546975	0.000000	0.119961	0.000000	0.000016	0.000002	0.000000	0.000000
15.627823	14.293190	19.266656	-1.344918	1.502116	2.615866	0.000000	0.192798	0.000000	0.000017	0.000002	0.000000	0.000000
16.068783	15.689924	17.765560	-1.834582	1.889084	2.717328	0.000000	0.267832	0.000000	0.000018	0.000003	0.000000	0.000000
16.514743	17.577351	15.938431	-2.412821	2.190843	2.854212	0.000000	0.346378	0.000000	0.000020	0.000003	0.000000	0.000000
17.063803	20.001541	13.898312	-1.976205	1.546745	3.020664	0.000000	0.259052	0.000000	0.000021	0.000003	0.000000	0.000000
17.612863	21.866320	12.501204	-1.400000	1.012819	3.137836	0.000000	0.167131	0.000000	0.000022	0.000002	0.000000	0.000000
18.161923	23.039969	11.647594	-0.724905	0.551034	3.203648	0.000000	0.072246	0.000000	0.000023	0.000001	0.000000	0.000000
18.710983	23.439587	11.276680	0.001393	0.128497	3.216934	0.000000	-0.023921	0.000000	0.000024	0.000000	0.000000	0.000000
19.009556	23.479136	11.190460	-0.072622	0.130817	3.212300	0.000000	-0.015518	0.000000	0.000024	0.000000	0.000000	0.000000
19.342889	23.532308	11.113348	-0.086894	0.100520	3.207128	0.000000	-0.015518	0.000000	0.000024	0.000000	0.000000	0.000000
19.676223	23.594995	11.056433	-0.101166	0.070223	3.201955	0.000000	-0.015518	0.000000	0.000024	0.000000	0.000000	0.000000
20.010806	23.667778	11.019480	-0.232754	0.094410	3.196783	0.000000	0.000321	0.000000	0.000024	0.000001	0.000000	0.000000
20.308129	23.810121	10.971434	-0.308196	0.095848	3.196878	0.000000	0.008672	0.000000	0.000025	0.000001	0.000000	0.000000
20.857189	23.737886	11.088196	0.438980	-0.309763	3.175422	0.000000	-0.086712	0.000000	0.000025	-0.000000	0.000000	0.000000
21.406249	22.857401	11.659798	1.155149	-0.737437	3.101940	0.000000	-0.180559	0.000000	0.000024	-0.000001	0.000000	0.000000
21.955309	21.230860	12.726953	1.789723	-1.217638	2.977735	0.000000	-0.271203	0.000000	0.000024	-0.000002	0.000000	0.000000
22.504369	18.973154	14.365672	2.297880	-1.784569	2.805011	0.000000	-0.357037	0.000000	0.000023	-0.000002	0.000000	0.000000
22.950329	17.193817	15.837002	1.706104	-1.500754	2.663080	0.000000	-0.279832	0.000000	0.000022	-0.000002	0.000000	0.000000
23.391289	15.918514	17.010127	1.196972	-1.149510	2.556007	0.000000	-0.206269	0.000000	0.000021	-0.000001	0.000000	0.000000
23.832249	15.066504	17.849148	0.742526	-0.745964	2.480824	0.000000	-0.135056	0.000000	0.000020	-0.000001	0.000000	0.000000
24.273209	14.598863	18.315891	0.322004	-0.308477	2.436674	0.000000	-0.065381	0.000000	0.000020	-0.000000	0.000000	0.000000
24.715418	14.494345	18.388873	-0.048355	0.097890	2.423052	0.000000	-0.002391	0.000000	0.000020	0.000000	0.000000	0.000000
25.012741	14.529212	18.335516	-0.068916	0.081567	2.422341	0.000000	-0.002391	0.000000	0.000020	0.000000	0.000000	0.000000
25.346075	14.582840	18.287239	-0.091968	0.063266	2.421544	0.000000	-0.002391	0.000000	0.000020	0.000000	0.000000	0.000000
25.679408	14.651836	18.251162	-0.115019	0.044965	2.420747	0.000000	-0.002391	0.000000	0.000020	0.000000	0.000000	0.000000
26.013991	14.736245	18.227588	-0.018606	-0.121275	2.419922	0.000000	-0.022023	0.000000	0.000021	0.000000	0.000000	0.000000
26.311314	14.753310	18.304625	-0.002617	-0.182706	2.413374	0.000000	-0.027940	0.000000	0.000021	-0.000000	0.000000	0.000000
26.752274	14.937376	18.267257	-0.416385	0.267126	2.416163	0.000000	0.040602	0.000000	0.000021	0.000001	0.000000	0.000000
27.193234	15.493328	17.837037	-0.849176	0.704805	2.449249	0.000000	0.109606	0.000000	0.000021	0.000001	0.000000	0.000000
27.634194	16.446569	17.033539	-1.320764	1.110415	2.513009	0.000000	0.179858	0.000000	0.000022	0.000002	0.000000	0.000000
28.075154	17.840649	15.893324	-1.852693	1.465503	2.608169	0.000000	0.252159	0.000000	0.000022	0.000002	0.000000	0.000000
28.521114	19.763476	14.451090	-2.474237	1.754823	2.737415	0.000000	0.327775	0.000000	0.000023	0.000003	0.000000	0.000000
29.070174	22.207395	12.844212	-1.950507	1.189050	2.894719	0.000000	0.244381	0.000000	0.000025	0.000002	0.000000	0.000000
29.619234	23.996672	11.808745	-1.289002	0.707971	3.004977	0.000000	0.156653	0.000000	0.000026	0.000001	0.000000	0.000000
30.168294	25.004923	11.270936	-0.536448	0.277319	3.066232	0.000000	0.066146	0.000000	0.000026	0.000000	0.000000	0.000000
30.717354	25.160928	11.192477	0.253998	-0.133580	3.077397	0.000000	-0.025534	0.000000	0.000026	-0.000001	0.000000	0.000000
31.015927	25.052172	11.262836	0.175984	-0.131309	3.072174	0.000000	-0.017495	0.000000	0.000026	-0.000000	0.000000	0.000000
31.349260	24.939421	11.360411	0.162266	-0.161415	3.066342	0.000000	-0.017495	0.000000	0.000026	-0.000000	0.000000	0.000000
31.682593	24.835816	11.478056	0.148549	-0.191521	3.060511	0.000000	-0.017495	0.000000	0.000026	-0.000000	0.000000	0.000000
32.017177	24.741019	11.616326	0.134780	-0.221740	3.054657	0.000000	-0.017495	0.000000	0.000025	-0.000000	0.000000	0.000000
32.314499	24.664511	11.756167	0.058114	-0.217884	3.049456	0.000000	-0.009529	0.000000	0.000025	-0.000000	0.000000	0.000000
32.863559	24.178095	12.234621	0.822548	-0.658666	3.019344	0.000000	-0.099997	0.000000	0.000025	-0.000001	0.000000	0.000000
33.412619	22.879329	13.219877	1.528882	-1.146365	2.939974	0.000000	-0.188691	0.000000	0.000024	-0.000002	0.000000	0.000000
33.961679	20.859953	14.782110	2.127223	-1.715716	2.812755	0.000000	-0.274038	0.000000	0.000023	-0.000003	0.000000	0.000000
34.510739	18.262605	17.032596	2.575307	-2.407274	2.639943	0.000000	-0.354525	0.000000	0.000021	-0.000003	0.000000	0.000000
34.956699	16.243031	19.045592	1.969515	-2.087727	2.498181	0.000000	-0.281600	0.000000	0.000020	-0.000003	0.000000	0.000000
35.397659	14.737028	20.710671	1.458721	-1.673935	2.389388	0.000000	-0.212311	0.000000	0.000018	-0.000002	0.000000	0.000000
35.838619	13.650526	21.975711	1.014572	-1.183979	2.310587	0.000000	-0.145439	0.000000	0.000017	-0.000002	0.000000	0.000000
36.279579	12.933884	22.783154	0.616777	-0.640154	2.260881	0.000000	-0.080224	0.000000	0.000017	-0.000002	0.000000	0.000000
36.721789	12.553668	23.096570	0.277835	-0.123887	2.239676	0.000000	-0.021414	0.000000	0.000016	-0.000001	0.000000	0.000000
37.019112	12.396040	23.174125	0.252322	-0.136957	2.233310	0.000000	-0.021414	0.000000	0.000016	-0.000001	0.000000	0.000000
37.352445	12.237359	23.270315	0.223720	-0.151611	2.226172	0.000000	-0.021414	0.000000	0.000015	-0.000001	0.000000	0.000000
37.685779	12.097747	23.376273	0.195118	-0.166265	2.219034	0.000000	-0.021414	0.000000	0.000015	-0.000001	0.000000	0.000000
38.020362	11.976786	23.492453	0.166408	-0.180973	2.211870	0.000000	-0.021414	0.000000	0.000015	-0.000001	0.000000	0.000000
38.317684	11.885418	23.603954	0.170038	-0.251920	2.205503	0.000000	-0.026822	0.000000	0.000014	-0.000001	0.000000	0.000000
38.758644	11.886968	23.564677	-0.173566	0.340655	2.207603	0.000000	0.036352	0.000000	0.000014	-0.000001	0.000000	0.000000
39.199604	12.193887	23.007660	-0.525101	0.917730	2.237624	0.000000	0.099940	0.000000	0.000014	-0.000000	0.000000	0.000000
39.640564	12.820200	21.958247	-0.900626	1.453049	2.295909	0.000000	0.164666	0.000000	0.000013	-0.000000	0.000000	0.000000
40.081524	13.794519	20.464187	-1.317297	1.922256	2.383121	0.000000	0.231267	0.000000	0.000013	0.000000	0.000000	0.000000
40.527484	15.178936	18.570882	-1.797981	2.305287	2.501726	0.000000	0.300908	0.000000	0.000014	0.000001	0.000000	0.000000
41.076544	16.945545	16.443239	-1.400489	1.592650	2.646414	0.000000	0.225355	0.000000	0.000014	0.000000	0.000000	0.000000
41.625604	18.218424	15.031646	-0.904074	0.993453	2.748459	0.000000	0.145806	0.000000	0.000014	-0.000000	0.000000	0.000000
42.174664	18.907661	14.235556	-0.343799	0.465019	2.806051	0.000000	0.063670	0.000000	0.000013	-0.000001	0.000000	0.000000
42.723724	18.964573	13.998267	0.240759	-0.030294	2.818169	0.000000	-0.019596	0.000000	0.000013	-0.000001	0.000000	0.000000
43.022297	18.855263	14.000887	0.174895	-0.015053	2.814517	0.000000	-0.012233	0.000000	0.000013	-0.000001	0.000000	0.000000
43.502297	18.699957	14.031798	0.148659	-0.049344	2.808646	0.000000	-0.012233	0.000000	0.000012	-0.000001	0.000000	0.000000
43.982297	18.569838	14.095628	0.122423	-0.083635	2.802774	0.000000	-0.012233	0.000000	0.000011	-0.000001	0.000000	0.000000
44.462297	18.464905	14.192378	0.096187	-0.117927	2.796903	0.000000	-0.012233	0.000000	0.000011	-0.000001	0.000000	0.000000
44.942297	18.385158	14.322047	0.069951	-0.152218	2.791031	0.000000	-0.012233	0.000000	0.000010	-0.000001	0.000000	0.000000
45.423547	18.330716	14.484923	-0.047173	-0.114831	2.785162	0.000000	0.001566	0.000000	0.000010	-0.000001	0.000000	0.000000
45.720870	18.363600	14.559391	-0.111406	-0.097591	2.785628	0.000000	0.008844	0.000000	0.000009	-0.000001	0.000000	0.000000
46.269930	18.176736	14.948110	0.449726	-0.614561	2.767914	0.000000	-0.073276	0.000000	0.000009	-0.000001	0.000000	0.000000
46.818990	17.387558	15.925087	0.979091	-1.175304	2.705402	0.000000	-0.154097	0.000000	0.000008	-0.000002	0.000000	0.000000
47.368050	16.051809	17.559908	1.439298	-1.819763	2.599200	0.000000	-0.232184	0.000000	0.000007	-0.000002	0.000000	0.000000
47.917110	14.263842	19.969020	1.797840	-2.593838	2.451194	0.000000	-0.306153	0.000000	0.000006	-0.000002	0.000000	0.000000
48.363070	12.872509	22.110878	1.333074	-2.188773	2.329954	0.000000	-0.237858	0.000000	0.000005	-0.000002	0.000000	0.000000
48.804030	11.877045	23.825756	0.932981	-1.685395	2.239528	0.000000	-0.172668	0.000000	0.000004	-0.000002	0.000000	0.000000
49.244990	11.214373	25.061057	0.575514	-1.105333	2.177387	0.000000	-0.109446	0.000000	0.000003	-0.000002	0.000000	0.000000
49.685950	10.854215	25.760573	0.244341	-0.474979	2.142824	0.000000	-0.047469	0.000000	0.000003	-0.000002	0.000000	0.000000
50.128160	10.780242	25.892194	-0.049350	0.113443	2.135456	0.000000	0.008730	0.000000	0.000002	-0.000002	0.000000	0.000000
50.425482	10.817808	25.828194	-0.076998	0.101812	2.138052	0.000000	0.008730	0.000000	0.000001	-0.000002	0.000000	0.000000
50.758816	10.879472	25.764666	-0.107994	0.088772	2.140963	0.000000	0.008730	0.000000	0.000001	-0.000002	0.000000	0.000000
51.092149	10.961800	25.709832	-0.138990	0.075733	2.143873	0.000000	0.008730	0.000000	0.000000	-0.000002	0.000000	0.000000
51.426732	11.064992	25.664054	-0.080336	-0.145555	2.146773	0.000000	-0.008686	0.000000	-0.000000	-0.000002	0.000000	0.000000
51.724055	11.120804	25.754125	-0.080108	-0.220544	2.144191	0.000000	-0.013944	0.000000	-0.000001	-0.000002	0.000000	0.000000
52.165015	11.336673	25.662088	-0.411292	0.428469	2.151631	0.000000	0.047718	0.000000	-0.000001	-0.000002	0.000000	0.000000
52.605975	11.851771	25.004117	-0.761267	1.057987	2.186355	0.000000	0.109923	0.000000	-0.000002	-0.000002	0.000000	0.000000
53.046935	12.689630	23.810148	-1.146023	1.639367	2.248759	0.000000	0.173381	0.000000	-0.000003	-0.000002	0.000000	0.000000
53.487895	13.888532	22.134507	-1.583136	2.146157	2.339554	0.000000	0.238813	0.000000	-0.000004	-0.000002	0.000000	0.000000
53.933855	15.523803	20.028382	-2.096805	2.556637	2.461278	0.000000	0.307364	0.000000	-0.000005	-0.000002	0.000000	0.000000
54.482915	17.629203	17.658415	-1.715051	1.785252	2.609860	0.000000	0.233059	0.000000	-0.000006	-0.000002	0.000000	0.000000
55.031975	19.245985	16.061141	-1.212155	1.141026	2.716448	0.000000	0.154620	0.000000	-0.000006	-0.000002	0.000000	0.000000
55.581035	20.259947	15.122791	-0.623638	0.578073	2.779149	0.000000	0.073438	0.000000	-0.000007	-0.000001	0.000000	0.000000
56.130095	20.599468	14.776529	0.008930	0.056295	2.796854	0.000000	-0.009046	0.000000	-0.000008	-0.000001	0.000000	0.000000
56.428668	20.630614	14.725943	-0.059420	0.074519	2.796335	0.000000	-0.001738	0.000000	-0.000008	-0.000001	0.000000	0.000000
56.762001	20.675632	14.683851	-0.075634	0.051757	2.795756	0.000000	-0.001738	0.000000	-0.000009	-0.000001	0.000000	0.000000
57.095334	20.731460	14.656934	-0.091848	0.028996	2.795177	0.000000	-0.001738	0.000000	-0.000009	-0.000001	0.000000	0.000000
57.429918	20.798367	14.645175	-0.108123	0.006149	2.794596	0.000000	-0.001738	0.000000	-0.000009	-0.000001	0.000000	0.000000
57.727240	20.866962	14.647555	-0.177112	0.024121	2.794080	0.000000	0.005563	0.000000	-0.000010	-0.000001	0.000000	0.000000
58.276300	20.705483	14.902297	0.469472	-0.490820	2.774495	0.000000	-0.076801	0.000000	-0.000010	-0.000001	0.000000	0.000000
58.825360	19.848066	15.738270	1.082894	-1.040720	2.709995	0.000000	-0.157802	0.000000	-0.000011	-0.000000	0.000000	0.000000
59.374420	18.355273	17.215017	1.619826	-1.664749	2.601724	0.000000	-0.236005	0.000000	-0.000011	-0.000000	0.000000	0.000000
59.923480	16.332550	19.437725	2.042342	-2.407354	2.451602	0.000000	-0.310021	0.000000	-0.000011	0.000000	0.000000	0.000000
60.369440	14.749411	21.413258	1.520186	-2.003790	2.328636	0.000000	-0.241738	0.000000	-0.000011	-0.000000	0.000000	0.000000
60.810400	13.610821	22.968809	1.071683	-1.510432	2.236488	0.000000	-0.176604	0.000000	-0.000011	-0.000000	0.000000	0.000000
61.251360	12.844770	24.057175	0.672142	-0.948350	2.172590	0.000000	-0.113482	0.000000	-0.000011	-0.000001	0.000000	0.000000
61.692320	12.416260	24.628837	0.303310	-0.343120	2.136216	0.000000	-0.051653	0.000000	-0.000011	-0.000001	0.000000	0.000000
62.134530	12.305768	24.657241	-0.021586	0.217195	2.126956	0.000000	0.004371	0.000000	-0.000012	-0.000001	0.000000	0.000000
62.431853	12.325792	24.531842	-0.045759	0.204568	2.128257	0.000000	0.004371	0.000000	-0.000012	-0.000001	0.000000	0.000000
62.765186	12.365331	24.400182	-0.072859	0.190412	2.129714	0.000000	0.004371	0.000000	-0.000013	-0.000001	0.000000	0.000000
63.098520	12.422937	24.277960	-0.099959	0.176255	2.131172	0.000000	0.004371	0.000000	-0.000013	-0.000001	0.000000	0.000000
63.433103	12.498928	24.164770	-0.127161	0.162046	2.132635	0.000000	0.004371	0.000000	-0.000013	-0.000001	0.000000	0.000000
63.730426	12.581731	24.072164	-0.120476	0.090378	2.133935	0.000000	-0.000862	0.000000	-0.000014	-0.000001	0.000000	0.000000
64.171386	12.848232	23.727360	-0.486184	0.688586	2.147096	0.000000	0.060609	0.000000	-0.000014	-0.000002	0.000000	0.000000
64.612346	13.445797	22.866837	-0.874104	1.255464	2.187490	0.000000	0.122771	0.000000	-0.000015	-0.000002	0.000000	0.000000
65.053306	14.401726	21.529749	-1.301959	1.765219	2.255576	0.000000	0.186331	0.000000	-0.000016	-0.000002	0.000000	0.000000
65.494266	15.759695	19.776932	-1.789298	2.194658	2.352132	0.000000	0.252013	0.000000	-0.000017	-0.000003	0.000000	0.000000
65.940226	17.604905	17.663338	-2.363075	2.524994	2.479827	0.000000	0.320967	0.000000	-0.000019	-0.000003	0.000000	0.000000
66.489286	19.970398	15.298934	-1.919684	1.806704	2.635692	0.000000	0.245943	0.000000	-0.000020	-0.000003	0.000000	0.000000
67.038346	21.771201	13.648426	-1.340697	1.217102	2.749104	0.000000	0.166557	0.000000	-0.000021	-0.000002	0.000000	0.000000
67.587406	22.880116	12.594253	-0.667009	0.714191	2.818051	0.000000	0.084216	0.000000	-0.000022	-0.000001	0.000000	0.000000
68.136466	23.218813	12.061330	0.053793	0.262150	2.841310	0.000000	0.000381	0.000000	-0.000023	-0.000000	0.000000	0.000000
68.435038	23.226764	11.893994	-0.019745	0.266780	2.843641	0.000000	0.007807	0.000000	-0.000023	-0.000001	0.000000	0.000000
68.768372	23.244713	11.726147	-0.034102	0.236761	2.846243	0.000000	0.007807	0.000000	-0.000023	-0.000001	0.000000	0.000000
69.101705	23.272233	11.578314	-0.048459	0.206741	2.848845	0.000000	0.007807	0.000000	-0.000023	-0.000001	0.000000	0.000000
69.436288	23.309482	11.450052	-0.062869	0.176608	2.851457	0.000000	0.007807	0.000000	-0.000023	-0.000001	0.000000	0.000000
69.733611	23.350674	11.352994	-0.136698	0.179500	2.853779	0.000000	0.015264	0.000000	-0.000024	-0.000001	0.000000	0.000000
70.282671	23.099743	11.383282	0.591012	-0.234989	2.838974	0.000000	-0.069111	0.000000	-0.000024	0.000000	0.000000	0.000000
