#ParticleID	Turn	x[m]	xp	y[m]	yp	z[m]	dE[GeV]# s	beta_x	beta_y	alpha_x	alpha_y	D_x	D_y	D_px	D_py	orbit_x	orbit_px	orbit_y	orbit_py
0.300000	11.804166	25.055847	-0.010159	-0.026806	2.618311	0.000000	-0.000064	0.000000	-0.000001	0.000002	0.000000	0.000000
0.601250	11.817976	25.075622	-0.035682	-0.038837	2.618291	0.000000	-0.000064	0.000000	-0.000001	0.000002	0.000000	0.000000
0.898573	11.846683	25.102247	-0.031821	-0.112270	2.618272	0.000000	-0.006485	0.000000	-0.000000	0.000002	0.000000	0.000000
1.339533	12.026763	24.922789	-0.378109	0.517693	2.631705	0.000000	0.067476	0.000000	0.000000	0.000002	0.000000	0.000000
1.780493	12.518676	24.196057	-0.741672	1.124102	2.677891	0.000000	0.142205	0.000000	0.000001	0.000002	0.000000	0.000000
2.221453	13.344895	22.955118	-1.139119	1.679365	2.757355	0.000000	0.218554	0.000000	0.000002	0.000002	0.000000	0.000000
2.662413	14.543169	21.256433	-1.588610	2.158218	2.871002	0.000000	0.297392	0.000000	0.000003	0.000002	0.000000	0.000000
3.108373	16.188961	19.152382	-2.114965	2.540008	3.021988	0.000000	0.380107	0.000000	0.000004	0.000002	0.000000	0.000000
3.657433	18.299458	16.789169	-1.706117	1.789505	3.205417	0.000000	0.287070	0.000000	0.000005	0.000002	0.000000	0.000000
4.206493	19.891756	15.175687	-1.176758	1.166465	3.336288	0.000000	0.188941	0.000000	0.000005	0.000002	0.000000	0.000000
4.755553	20.853382	14.197013	-0.564278	0.626510	3.412280	0.000000	0.087461	0.000000	0.000006	0.000001	0.000000	0.000000
5.304613	21.116411	13.783437	0.088060	0.131179	3.432044	0.000000	-0.015571	0.000000	0.000007	0.000001	0.000000	0.000000
5.603185	21.100998	13.690249	0.018735	0.144923	3.430072	0.000000	-0.006604	0.000000	0.000007	0.000001	0.000000	0.000000
5.936519	21.093775	13.601920	0.002932	0.120064	3.427870	0.000000	-0.006604	0.000000	0.000008	0.000001	0.000000	0.000000
6.269852	21.097088	13.530164	-0.012870	0.095204	3.425668	0.000000	-0.006604	0.000000	0.000008	0.000001	0.000000	0.000000
6.604435	21.111007	13.474805	-0.028732	0.070251	3.423458	0.000000	-0.006604	0.000000	0.000009	0.000001	0.000000	0.000000
6.901758	21.132283	13.439623	-0.098038	0.083190	3.421494	0.000000	0.002335	0.000000	0.000009	0.000001	0.000000	0.000000
7.450818	20.879817	13.609228	0.555131	-0.393913	3.394576	0.000000	-0.100239	0.000000	0.000010	0.000001	0.000000	0.000000
7.999878	19.927480	14.314989	1.169089	-0.899074	3.311745	0.000000	-0.201035	0.000000	0.000010	0.000001	0.000000	0.000000
8.548938	18.342539	15.607178	1.700468	-1.468274	3.174469	0.000000	-0.298265	0.000000	0.000010	0.000000	0.000000	0.000000
9.097998	16.236947	17.577834	2.111734	-2.142056	2.985185	0.000000	-0.390205	0.000000	0.000010	-0.000000	0.000000	0.000000
9.543958	14.594247	19.333757	1.584875	-1.778702	2.829474	0.000000	-0.308506	0.000000	0.000010	0.000000	0.000000	0.000000
9.984918	13.399551	20.712310	1.134709	-1.335655	2.710679	0.000000	-0.230805	0.000000	0.000010	0.000000	0.000000	0.000000
10.425878	12.577593	21.671739	0.736384	-0.831837	2.625536	0.000000	-0.155732	0.000000	0.000011	0.000001	0.000000	0.000000
10.866838	12.090818	22.168390	0.371702	-0.290171	2.573075	0.000000	-0.082434	0.000000	0.000011	0.000001	0.000000	0.000000
11.309048	11.916855	22.179140	0.053118	0.210253	2.552678	0.000000	-0.016333	0.000000	0.000012	0.000001	0.000000	0.000000
11.606371	11.892708	22.058276	0.028098	0.196255	2.547821	0.000000	-0.016333	0.000000	0.000012	0.000001	0.000000	0.000000
12.086371	11.885122	21.880719	-0.012295	0.173656	2.539981	0.000000	-0.016333	0.000000	0.000013	0.000001	0.000000	0.000000
12.566371	11.916314	21.724856	-0.052688	0.151058	2.532140	0.000000	-0.016333	0.000000	0.000013	0.000001	0.000000	0.000000
13.046371	11.986283	21.590688	-0.093080	0.128459	2.524300	0.000000	-0.016333	0.000000	0.000014	0.000001	0.000000	0.000000
13.526371	12.095029	21.478215	-0.133473	0.105860	2.516459	0.000000	-0.016333	0.000000	0.000015	0.000001	0.000000	0.000000
14.007621	12.242986	21.387228	-0.173971	0.083203	2.508599	0.000000	-0.016333	0.000000	0.000015	0.000001	0.000000	0.000000
14.304943	12.353876	21.341914	-0.168700	0.016876	2.503742	0.000000	-0.022472	0.000000	0.000016	0.000001	0.000000	0.000000
14.745903	12.661140	21.093462	-0.530748	0.544413	2.509461	0.000000	0.048437	0.000000	0.000016	0.000002	0.000000	0.000000
15.186863	13.297146	20.388952	-0.917045	1.047180	2.546539	0.000000	0.119898	0.000000	0.000017	0.000002	0.000000	0.000000
15.627823	14.290953	19.260439	-1.345238	1.502301	2.615400	0.000000	0.192724	0.000000	0.000018	0.000003	0.000000	0.000000
16.068783	15.687965	17.759268	-1.834892	1.889068	2.716826	0.000000	0.267745	0.000000	0.000019	0.000003	0.000000	0.000000
16.514743	17.575669	15.932244	-2.413135	2.190626	2.853668	0.000000	0.346278	0.000000	0.000021	0.000004	0.000000	0.000000
17.063803	20.000268	13.892281	-1.976629	1.546677	3.020070	0.000000	0.258970	0.000000	0.000023	0.000003	0.000000	0.000000
17.612863	21.865560	12.495169	-1.400504	1.012895	3.137202	0.000000	0.167069	0.000000	0.000024	0.000002	0.000000	0.000000
18.161923	23.039790	11.641394	-0.725453	0.551258	3.202986	0.000000	0.072205	0.000000	0.000025	0.000001	0.000000	0.000000
18.710983	23.440016	11.270145	0.000839	0.128887	3.216255	0.000000	-0.023941	0.000000	0.000025	0.000001	0.000000	0.000000
19.009556	23.479896	11.183708	-0.073176	0.131171	3.211615	0.000000	-0.015539	0.000000	0.000026	0.000001	0.000000	0.000000
19.342889	23.533437	11.106367	-0.087449	0.100853	3.206435	0.000000	-0.015539	0.000000	0.000026	0.000001	0.000000	0.000000
19.676223	23.596494	11.049238	-0.101721	0.070535	3.201255	0.000000	-0.015539	0.000000	0.000026	0.000001	0.000000	0.000000
20.010806	23.669649	11.012084	-0.233320	0.094664	3.196076	0.000000	0.000296	0.000000	0.000026	0.000001	0.000000	0.000000
20.308129	23.812330	10.963892	-0.308769	0.096063	3.196164	0.000000	0.008645	0.000000	0.000026	0.000001	0.000000	0.000000
20.857189	23.740680	11.080302	0.438492	-0.309332	3.174699	0.000000	-0.086716	0.000000	0.000027	-0.000000	0.000000	0.000000
21.406249	22.860667	11.651299	1.154781	-0.736760	3.101222	0.000000	-0.180539	0.000000	0.000026	-0.000001	0.000000	0.000000
21.955309	21.234453	12.717553	1.789501	-1.216665	2.977034	0.000000	-0.271160	0.000000	0.000026	-0.000002	0.000000	0.000000
22.504369	18.976903	14.355011	2.297819	-1.783231	2.804340	0.000000	-0.356972	0.000000	0.000024	-0.000003	0.000000	0.000000
22.950329	17.197649	15.825257	1.705980	-1.499672	2.662435	0.000000	-0.279784	0.000000	0.000023	-0.000002	0.000000	0.000000
23.391289	15.922485	16.997558	1.196778	-1.148731	2.555379	0.000000	-0.206238	0.000000	0.000023	-0.000001	0.000000	0.000000
23.832249	15.070680	17.836039	0.742255	-0.745523	2.480206	0.000000	-0.135040	0.000000	0.000022	-0.000001	0.000000	0.000000
24.273209	14.603317	18.302550	0.321642	-0.308395	2.436059	0.000000	-0.065381	0.000000	0.000022	-0.000000	0.000000	0.000000
24.715418	14.499165	18.375621	-0.048813	0.097642	2.422433	0.000000	-0.002405	0.000000	0.000022	0.000000	0.000000	0.000000
25.012741	14.534302	18.322415	-0.069368	0.081308	2.421718	0.000000	-0.002405	0.000000	0.000022	0.000000	0.000000	0.000000
25.346075	14.588229	18.274314	-0.092412	0.062995	2.420916	0.000000	-0.002405	0.000000	0.000022	0.000000	0.000000	0.000000
25.679408	14.657519	18.238422	-0.115457	0.044682	2.420114	0.000000	-0.002405	0.000000	0.000022	0.000000	0.000000	0.000000
26.013991	14.742219	18.215042	-0.018989	-0.121469	2.419285	0.000000	-0.022032	0.000000	0.000022	0.000000	0.000000	0.000000
26.311314	14.759509	18.292198	-0.002978	-0.182881	2.412734	0.000000	-0.027948	0.000000	0.000022	0.000000	0.000000	0.000000
26.752274	14.943960	18.255132	-0.416902	0.266618	2.415516	0.000000	0.040577	0.000000	0.000022	0.000001	0.000000	0.000000
27.193234	15.500447	17.825499	-0.849874	0.703986	2.448587	0.000000	0.109564	0.000000	0.000023	0.000001	0.000000	0.000000
27.634194	16.454394	17.022848	-1.321674	1.109323	2.512325	0.000000	0.179799	0.000000	0.000023	0.000002	0.000000	0.000000
28.075154	17.849385	15.883698	-1.853857	1.464187	2.607455	0.000000	0.252082	0.000000	0.000024	0.000002	0.000000	0.000000
28.521114	19.773384	14.442717	-2.475711	1.753343	2.736663	0.000000	0.327679	0.000000	0.000026	0.000003	0.000000	0.000000
29.070174	22.218784	12.837275	-1.951714	1.187899	2.893921	0.000000	0.244311	0.000000	0.000027	0.000002	0.000000	0.000000
29.619234	24.009200	11.802929	-1.289857	0.707068	3.004147	0.000000	0.156609	0.000000	0.000028	0.000001	0.000000	0.000000
30.168294	25.018167	11.266006	-0.536891	0.276599	3.065385	0.000000	0.066129	0.000000	0.000028	0.000000	0.000000	0.000000
30.717354	25.174417	11.188262	0.253999	-0.134168	3.076549	0.000000	-0.025524	0.000000	0.000028	-0.000001	0.000000	0.000000
31.015927	25.065678	11.258984	0.175958	-0.131923	3.071328	0.000000	-0.017487	0.000000	0.000028	-0.000000	0.000000	0.000000
31.349260	24.952943	11.356973	0.162248	-0.162044	3.065499	0.000000	-0.017487	0.000000	0.000028	-0.000000	0.000000	0.000000
31.682593	24.849348	11.475042	0.148538	-0.192165	3.059670	0.000000	-0.017487	0.000000	0.000028	-0.000000	0.000000	0.000000
32.017177	24.754556	11.613748	0.134776	-0.222399	3.053819	0.000000	-0.017487	0.000000	0.000028	-0.000000	0.000000	0.000000
32.314499	24.678048	11.753985	0.058083	-0.218563	3.048620	0.000000	-0.009523	0.000000	0.000028	-0.000000	0.000000	0.000000
32.863559	24.191420	12.233168	0.822963	-0.659322	3.018518	0.000000	-0.099964	0.000000	0.000027	-0.000001	0.000000	0.000000
33.412619	22.891965	13.219151	1.529714	-1.147043	2.939174	0.000000	-0.188632	0.000000	0.000026	-0.000002	0.000000	0.000000
33.961679	20.871472	14.782164	2.128413	-1.716466	2.811994	0.000000	-0.273954	0.000000	0.000025	-0.000003	0.000000	0.000000
34.510739	18.272658	17.033536	2.576771	-2.408148	2.639235	0.000000	-0.354417	0.000000	0.000023	-0.000004	0.000000	0.000000
34.956699	16.251921	19.047340	1.970668	-2.088657	2.497517	0.000000	-0.281510	0.000000	0.000022	-0.000003	0.000000	0.000000
35.397659	14.745018	20.713247	1.459618	-1.674876	2.388761	0.000000	-0.212237	0.000000	0.000020	-0.000003	0.000000	0.000000
35.838619	13.657823	21.979106	1.015254	-1.184889	2.309989	0.000000	-0.145381	0.000000	0.000019	-0.000002	0.000000	0.000000
36.279579	12.940663	22.787322	0.617274	-0.640991	2.260305	0.000000	-0.080181	0.000000	0.000018	-0.000002	0.000000	0.000000
36.721789	12.560079	23.101433	0.278186	-0.124625	2.239116	0.000000	-0.021385	0.000000	0.000018	-0.000001	0.000000	0.000000
37.019112	12.402240	23.179427	0.252683	-0.137695	2.232758	0.000000	-0.021385	0.000000	0.000017	-0.000001	0.000000	0.000000
37.352445	12.243316	23.276108	0.224090	-0.152348	2.225630	0.000000	-0.021385	0.000000	0.000017	-0.000001	0.000000	0.000000
37.685779	12.103453	23.382557	0.195497	-0.167001	2.218502	0.000000	-0.021385	0.000000	0.000017	-0.000001	0.000000	0.000000
38.020362	11.982236	23.499230	0.166797	-0.181709	2.211348	0.000000	-0.021385	0.000000	0.000016	-0.000001	0.000000	0.000000
38.317684	11.890634	23.611169	0.170448	-0.252673	2.204990	0.000000	-0.026791	0.000000	0.000016	-0.000001	0.000000	0.000000
38.758644	11.891875	23.572468	-0.173272	0.340103	2.207100	0.000000	0.036369	0.000000	0.000015	-0.000001	0.000000	0.000000
39.199604	12.198580	23.015839	-0.524907	0.917405	2.237126	0.000000	0.099944	0.000000	0.000015	-0.000000	0.000000	0.000000
39.640564	12.824763	21.966607	-0.900524	1.452966	2.295411	0.000000	0.164658	0.000000	0.000015	-0.000000	0.000000	0.000000
40.081524	13.799032	20.472512	-1.317284	1.922418	2.382616	0.000000	0.231246	0.000000	0.000015	0.000000	0.000000	0.000000
40.527484	15.183476	18.578954	-1.798055	2.305688	2.501209	0.000000	0.300874	0.000000	0.000015	0.000001	0.000000	0.000000
41.076544	16.950066	16.450995	-1.400380	1.592829	2.645883	0.000000	0.225338	0.000000	0.000016	0.000000	0.000000	0.000000
41.625604	18.222727	15.039320	-0.903789	0.993423	2.747923	0.000000	0.145806	0.000000	0.000015	-0.000000	0.000000	0.000000
42.174664	18.911563	14.243379	-0.343358	0.464776	2.805520	0.000000	0.063687	0.000000	0.000015	-0.000001	0.000000	0.000000
42.723724	18.967919	14.006480	0.241325	-0.030765	2.817652	0.000000	-0.019561	0.000000	0.000015	-0.000001	0.000000	0.000000
43.022297	18.858276	14.009365	0.175451	-0.015491	2.814010	0.000000	-0.012200	0.000000	0.000014	-0.000001	0.000000	0.000000
43.502297	18.702437	14.040686	0.149215	-0.049762	2.808154	0.000000	-0.012200	0.000000	0.000014	-0.000001	0.000000	0.000000
43.982297	18.571784	14.104907	0.122978	-0.084033	2.802299	0.000000	-0.012200	0.000000	0.000013	-0.000001	0.000000	0.000000
44.462297	18.466318	14.202029	0.096742	-0.118304	2.796443	0.000000	-0.012200	0.000000	0.000012	-0.000001	0.000000	0.000000
44.942297	18.386040	14.332050	0.070505	-0.152575	2.790588	0.000000	-0.012200	0.000000	0.000012	-0.000001	0.000000	0.000000
45.423547	18.331064	14.495260	-0.046622	-0.115116	2.784734	0.000000	0.001597	0.000000	0.000011	-0.000001	0.000000	0.000000
45.720870	18.363621	14.569893	-0.110853	-0.097835	2.785209	0.000000	0.008873	0.000000	0.000011	-0.000001	0.000000	0.000000
46.269930	18.176154	14.959057	0.450263	-0.615131	2.767515	0.000000	-0.073234	0.000000	0.000010	-0.000001	0.000000	0.000000
46.818990	17.386411	15.936855	0.979576	-1.176240	2.705030	0.000000	-0.154042	0.000000	0.000009	-0.000002	0.000000	0.000000
47.368050	16.050176	17.572935	1.439695	-1.821131	2.598862	0.000000	-0.232118	0.000000	0.000008	-0.000002	0.000000	0.000000
47.917110	14.261833	19.983830	1.798122	-2.595737	2.450895	0.000000	-0.306076	0.000000	0.000007	-0.000002	0.000000	0.000000
48.363070	12.870246	22.127238	1.333364	-2.190336	2.329688	0.000000	-0.237788	0.000000	0.000006	-0.000002	0.000000	0.000000
48.804030	11.874518	23.843321	0.933293	-1.686553	2.239292	0.000000	-0.172605	0.000000	0.000005	-0.000002	0.000000	0.000000
49.244990	11.211555	25.079444	0.575862	-1.106033	2.177178	0.000000	-0.109388	0.000000	0.000004	-0.000002	0.000000	0.000000
49.685950	10.851069	25.779363	0.244741	-0.475189	2.142639	0.000000	-0.047417	0.000000	0.000003	-0.000002	0.000000	0.000000
50.128160	10.776712	25.910948	-0.048888	0.113687	2.135293	0.000000	0.008778	0.000000	0.000003	-0.000002	0.000000	0.000000
50.425482	10.814006	25.846801	-0.076544	0.102064	2.137904	0.000000	0.008778	0.000000	0.000002	-0.000002	0.000000	0.000000
50.758816	10.875370	25.783102	-0.107549	0.089033	2.140831	0.000000	0.008778	0.000000	0.000002	-0.000002	0.000000	0.000000
51.092149	10.957404	25.728091	-0.138553	0.076002	2.143757	0.000000	0.008778	0.000000	0.000001	-0.000002	0.000000	0.000000
51.426732	11.060308	25.682130	-0.079946	-0.145424	2.146673	0.000000	-0.008637	0.000000	0.000000	-0.000002	0.000000	0.000000
51.724055	11.115891	25.772120	-0.079740	-0.220447	2.144106	0.000000	-0.013895	0.000000	-0.000000	-0.000002	0.000000	0.000000
52.165015	11.331384	25.679789	-0.410804	0.429039	2.151567	0.000000	0.047765	0.000000	-0.000001	-0.000002	0.000000	0.000000
52.605975	11.845989	25.021115	-0.760636	1.059004	2.186312	0.000000	0.109970	0.000000	-0.000002	-0.000002	0.000000	0.000000
53.046935	12.683219	23.826068	-1.145219	1.640785	2.248737	0.000000	0.173426	0.000000	-0.000003	-0.000002	0.000000	0.000000
53.487895	13.881323	22.149023	-1.582125	2.147912	2.339552	0.000000	0.238858	0.000000	-0.000003	-0.000002	0.000000	0.000000
53.933855	15.515581	20.041211	-2.095536	2.558649	2.461296	0.000000	0.307409	0.000000	-0.000004	-0.000002	0.000000	0.000000
54.482915	17.619702	17.669318	-1.714004	1.786766	2.609902	0.000000	0.233103	0.000000	-0.000005	-0.000002	0.000000	0.000000
55.031975	19.235491	16.070604	-1.211403	1.142150	2.716514	0.000000	0.154662	0.000000	-0.000006	-0.000002	0.000000	0.000000
55.581035	20.248815	15.131197	-0.623235	0.578886	2.779238	0.000000	0.073478	0.000000	-0.000007	-0.000001	0.000000	0.000000
56.130095	20.588099	14.784185	0.008955	0.056856	2.796964	0.000000	-0.009009	0.000000	-0.000008	-0.000001	0.000000	0.000000
56.428668	20.619215	14.733250	-0.059372	0.075108	2.796456	0.000000	-0.001701	0.000000	-0.000008	-0.000001	0.000000	0.000000
56.762001	20.664204	14.690762	-0.075596	0.052355	2.795890	0.000000	-0.001701	0.000000	-0.000009	-0.000001	0.000000	0.000000
57.095334	20.720009	14.663443	-0.091819	0.029603	2.795323	0.000000	-0.001701	0.000000	-0.000009	-0.000001	0.000000	0.000000
57.429918	20.786899	14.651275	-0.108103	0.006766	2.794755	0.000000	-0.001701	0.000000	-0.000009	-0.000001	0.000000	0.000000
57.727240	20.855484	14.653285	-0.177069	0.024761	2.794249	0.000000	0.005601	0.000000	-0.000010	-0.000001	0.000000	0.000000
58.276300	20.694169	14.907411	0.469132	-0.490330	2.774683	0.000000	-0.076769	0.000000	-0.000010	-0.000001	0.000000	0.000000
58.825360	19.837325	15.742912	1.082195	-1.040346	2.710199	0.000000	-0.157777	0.000000	-0.000011	-0.000001	0.000000	0.000000
59.374420	18.345476	17.219300	1.618818	-1.664464	2.601940	0.000000	-0.235986	0.000000	-0.000011	-0.000000	0.000000	0.000000
59.923480	16.323998	19.441735	2.041096	-2.407137	2.451827	0.000000	-0.310010	0.000000	-0.000011	0.000000	0.000000	0.000000
60.369440	14.741851	21.417005	1.519199	-2.003420	2.328867	0.000000	-0.241720	0.000000	-0.000011	-0.000000	0.000000	0.000000
60.810400	13.604033	22.972167	1.070910	-1.509925	2.236728	0.000000	-0.176581	0.000000	-0.000011	-0.000000	0.000000	0.000000
61.251360	12.838584	24.060034	0.671547	-0.947731	2.172842	0.000000	-0.113453	0.000000	-0.000012	-0.000001	0.000000	0.000000
61.692320	12.410531	24.631110	0.302865	-0.342415	2.136483	0.000000	-0.051617	0.000000	-0.000012	-0.000001	0.000000	0.000000
62.134530	12.300372	24.658866	-0.021913	0.217948	2.127241	0.000000	0.004414	0.000000	-0.000012	-0.000001	0.000000	0.000000
62.431853	12.320593	24.533019	-0.046097	0.205318	2.128553	0.000000	0.004414	0.000000	-0.000013	-0.000001	0.000000	0.000000
62.765186	12.360362	24.400860	-0.073209	0.191158	2.130025	0.000000	0.004414	0.000000	-0.000013	-0.000001	0.000000	0.000000
63.098520	12.418206	24.278142	-0.100322	0.176998	2.131497	0.000000	0.004414	0.000000	-0.000014	-0.000001	0.000000	0.000000
63.433103	12.494443	24.164456	-0.127536	0.162785	2.132975	0.000000	0.004414	0.000000	-0.000014	-0.000001	0.000000	0.000000
63.730426	12.577472	24.071412	-0.120871	0.091116	2.134287	0.000000	-0.000820	0.000000	-0.000015	-0.000001	0.000000	0.000000
64.171386	12.844283	23.725971	-0.486493	0.689285	2.147469	0.000000	0.060660	0.000000	-0.000015	-0.000002	0.000000	0.000000
64.612346	13.442089	22.864861	-0.874342	1.256092	2.187888	0.000000	0.122832	0.000000	-0.000016	-0.000002	0.000000	0.000000
65.053306	14.398201	21.527261	-1.302136	1.765748	2.256004	0.000000	0.186402	0.000000	-0.000017	-0.000003	0.000000	0.000000
65.494266	15.756301	19.774031	-1.789421	2.195063	2.352593	0.000000	0.252096	0.000000	-0.000018	-0.000003	0.000000	0.000000
65.940226	17.601599	17.660140	-2.363151	2.525255	2.480329	0.000000	0.321063	0.000000	-0.000020	-0.000003	0.000000	0.000000
66.489286	19.967260	15.295433	-1.919912	1.806996	2.636242	0.000000	0.246022	0.000000	-0.000021	-0.000003	0.000000	0.000000
67.038346	21.768391	13.644579	-1.341061	1.217444	2.749692	0.000000	0.166617	0.000000	-0.000023	-0.000002	0.000000	0.000000
67.587406	22.877768	12.589992	-0.667484	0.714608	2.818666	0.000000	0.084257	0.000000	-0.000024	-0.000001	0.000000	0.000000
68.136466	23.217032	12.056555	0.053241	0.262673	2.841943	0.000000	0.000402	0.000000	-0.000024	-0.000001	0.000000	0.000000
68.435038	23.225311	11.888920	-0.020294	0.267273	2.844280	0.000000	0.007829	0.000000	-0.000024	-0.000001	0.000000	0.000000
68.768372	23.243626	11.720752	-0.034652	0.237233	2.846890	0.000000	0.007829	0.000000	-0.000025	-0.000001	0.000000	0.000000
69.101705	23.271513	11.572610	-0.049010	0.207193	2.849500	0.000000	0.007829	0.000000	-0.000025	-0.000001	0.000000	0.000000
69.436288	23.309131	11.444052	-0.063422	0.177040	2.852119	0.000000	0.007829	0.000000	-0.000025	-0.000001	0.000000	0.000000
69.733611	23.350652	11.346743	-0.137253	0.179898	2.854447	0.000000	0.015289	0.000000	-0.000025	-0.000001	0.000000	0.000000
70.282671	23.100325	11.376496	0.590474	-0.234407	2.839650	0.000000	-0.069109	0.000000	-0.000025	0.000000	0.000000	0.000000
