#ParticleID	Turn	x[m]	xp	y[m]	yp	z[m]	dE[GeV]# s	beta_x	beta_y	alpha_x	alpha_y	D_x	D_y	D_px	D_py	orbit_x	orbit_px	orbit_y	orbit_py
0.300000	11.822819	24.981653	-0.012143	-0.027588	2.618132	0.000000	0.000004	0.000000	0.000000	0.000001	0.000000	0.000000
0.601250	11.837812	25.001911	-0.037628	-0.039656	2.618133	0.000000	0.000004	0.000000	0.000000	0.000001	0.000000	0.000000
0.898573	11.867665	25.029033	-0.033677	-0.112945	2.618134	0.000000	-0.006416	0.000000	0.000000	0.000001	0.000000	0.000000
1.339533	12.049607	24.851023	-0.380491	0.515098	2.631598	0.000000	0.067542	0.000000	0.000001	0.000001	0.000000	0.000000
1.780493	12.543890	24.127387	-0.744688	1.119704	2.677813	0.000000	0.142269	0.000000	0.000001	0.000001	0.000000	0.000000
2.221453	13.373100	22.891050	-1.142909	1.673365	2.757305	0.000000	0.218616	0.000000	0.000001	0.000001	0.000000	0.000000
2.662413	14.575118	21.198265	-1.593345	2.150889	2.870979	0.000000	0.297453	0.000000	0.000001	0.000001	0.000000	0.000000
3.108373	16.225640	19.101226	-2.120872	2.531681	3.021993	0.000000	0.380168	0.000000	0.000002	0.000001	0.000000	0.000000
3.657433	18.342132	16.746000	-1.711065	1.783200	3.205456	0.000000	0.287130	0.000000	0.000002	0.000001	0.000000	0.000000
4.206493	19.939173	15.138543	-1.180397	1.161732	3.336360	0.000000	0.188999	0.000000	0.000002	0.000001	0.000000	0.000000
4.755553	20.903954	14.164362	-0.566352	0.623013	3.412383	0.000000	0.087516	0.000000	0.000003	0.000000	0.000000	0.000000
5.304613	21.168329	13.754065	0.087698	0.128669	3.432177	0.000000	-0.015520	0.000000	0.000003	0.000000	0.000000	0.000000
5.603185	21.153203	13.662430	0.018271	0.142308	3.430221	0.000000	-0.006552	0.000000	0.000003	0.000000	0.000000	0.000000
5.936519	21.146276	13.575855	0.002508	0.117416	3.428037	0.000000	-0.006552	0.000000	0.000003	0.000000	0.000000	0.000000
6.269852	21.149859	13.505874	-0.013256	0.092524	3.425853	0.000000	-0.006552	0.000000	0.000003	0.000000	0.000000	0.000000
6.604435	21.164023	13.452320	-0.029078	0.067539	3.423660	0.000000	-0.006552	0.000000	0.000004	0.000000	0.000000	0.000000
6.901758	21.185495	13.418759	-0.098490	0.080396	3.421712	0.000000	0.002388	0.000000	0.000004	0.000000	0.000000	0.000000
7.450818	20.932546	13.591122	0.556459	-0.396172	3.394822	0.000000	-0.100194	0.000000	0.000004	0.000000	0.000000	0.000000
7.999878	19.977810	14.299145	1.172102	-0.900958	3.312014	0.000000	-0.200998	0.000000	0.000004	0.000000	0.000000	0.000000
8.548938	18.388726	15.593259	1.704955	-1.469918	3.174756	0.000000	-0.298237	0.000000	0.000004	0.000000	0.000000	0.000000
9.097998	16.277539	17.565641	2.117378	-2.143576	2.985485	0.000000	-0.390186	0.000000	0.000004	-0.000000	0.000000	0.000000
9.543958	14.630363	19.323169	1.589306	-1.780765	2.829784	0.000000	-0.308479	0.000000	0.000004	0.000000	0.000000	0.000000
9.984918	13.432215	20.703744	1.138138	-1.338161	2.711004	0.000000	-0.230770	0.000000	0.000004	0.000000	0.000000	0.000000
10.425878	12.607614	21.665536	0.738969	-0.834672	2.625878	0.000000	-0.155689	0.000000	0.000004	0.000000	0.000000	0.000000
10.866838	12.118886	22.164785	0.373561	-0.293206	2.573438	0.000000	-0.082381	0.000000	0.000004	0.000000	0.000000	0.000000
11.309048	11.943568	22.178258	0.054404	0.207155	2.553067	0.000000	-0.016272	0.000000	0.000004	0.000000	0.000000	0.000000
11.606371	11.918641	22.059231	0.029436	0.193174	2.548228	0.000000	-0.016272	0.000000	0.000005	0.000000	0.000000	0.000000
12.086371	11.909730	21.884619	-0.010872	0.170602	2.540418	0.000000	-0.016272	0.000000	0.000005	0.000000	0.000000	0.000000
12.566371	11.939515	21.731675	-0.051180	0.148030	2.532607	0.000000	-0.016272	0.000000	0.000005	0.000000	0.000000	0.000000
13.046371	12.007995	21.600400	-0.091488	0.125459	2.524796	0.000000	-0.016272	0.000000	0.000005	0.000000	0.000000	0.000000
13.526371	12.115171	21.490794	-0.131796	0.102887	2.516985	0.000000	-0.016272	0.000000	0.000005	0.000000	0.000000	0.000000
14.007621	12.261473	21.402656	-0.172209	0.080257	2.509154	0.000000	-0.016272	0.000000	0.000006	0.000000	0.000000	0.000000
14.304943	12.371300	21.359089	-0.166840	0.013900	2.504316	0.000000	-0.022413	0.000000	0.000006	0.000000	0.000000	0.000000
14.745903	12.677076	21.113039	-0.529224	0.541964	2.510065	0.000000	0.048511	0.000000	0.000006	0.000001	0.000000	0.000000
15.186863	13.311860	20.410414	-0.915786	1.045369	2.547180	0.000000	0.119988	0.000000	0.000006	0.000001	0.000000	0.000000
15.627823	14.304652	19.283185	-1.344189	1.501211	2.616084	0.000000	0.192831	0.000000	0.000007	0.000001	0.000000	0.000000
16.068783	15.700811	17.782637	-1.834003	1.888749	2.717563	0.000000	0.267871	0.000000	0.000007	0.000001	0.000000	0.000000
16.514743	17.587778	15.955543	-2.412366	2.191098	2.854466	0.000000	0.346423	0.000000	0.000008	0.000001	0.000000	0.000000
17.063803	20.011183	13.915349	-1.975240	1.546629	3.020941	0.000000	0.259088	0.000000	0.000008	0.000001	0.000000	0.000000
17.612863	21.874652	12.518575	-1.398593	1.012324	3.138131	0.000000	0.167158	0.000000	0.000009	0.000001	0.000000	0.000000
18.161923	23.046558	11.665732	-0.723157	0.550123	3.203956	0.000000	0.072263	0.000000	0.000009	0.000000	0.000000	0.000000
18.710983	23.444123	11.296073	0.003359	0.127107	3.217249	0.000000	-0.023914	0.000000	0.000009	0.000000	0.000000	0.000000
19.009556	23.482508	11.210634	-0.070669	0.129540	3.212618	0.000000	-0.015509	0.000000	0.000009	0.000000	0.000000	0.000000
19.342889	23.534376	11.134352	-0.084935	0.099307	3.207449	0.000000	-0.015509	0.000000	0.000009	0.000000	0.000000	0.000000
19.676223	23.595755	11.078225	-0.099201	0.069074	3.202279	0.000000	-0.015509	0.000000	0.000009	0.000000	0.000000	0.000000
20.010806	23.667221	11.042019	-0.230781	0.093437	3.197110	0.000000	0.000332	0.000000	0.000009	0.000000	0.000000	0.000000
20.308129	23.808388	10.994533	-0.306215	0.095000	3.197208	0.000000	0.008685	0.000000	0.000009	0.000000	0.000000	0.000000
20.857189	23.734018	11.112586	0.440862	-0.311279	3.175756	0.000000	-0.086711	0.000000	0.000009	-0.000000	0.000000	0.000000
21.406249	22.851584	11.686267	1.156797	-0.739730	3.102272	0.000000	-0.180568	0.000000	0.000009	-0.000000	0.000000	0.000000
21.955309	21.223415	12.756437	1.791023	-1.220870	2.978060	0.000000	-0.271223	0.000000	0.000009	-0.000001	0.000000	0.000000
22.504369	18.964518	14.399322	2.298739	-1.788970	2.805322	0.000000	-0.357066	0.000000	0.000009	-0.000001	0.000000	0.000000
22.950329	17.184380	15.874241	1.707048	-1.504366	2.663379	0.000000	-0.279854	0.000000	0.000008	-0.000001	0.000000	0.000000
23.391289	15.908192	17.050143	1.198044	-1.152171	2.556297	0.000000	-0.206284	0.000000	0.000008	-0.000001	0.000000	0.000000
23.832249	15.055162	17.891046	0.743776	-0.747554	2.481109	0.000000	-0.135063	0.000000	0.000008	-0.000000	0.000000	0.000000
24.273209	14.586320	18.358689	0.323488	-0.308922	2.436957	0.000000	-0.065380	0.000000	0.000008	-0.000000	0.000000	0.000000
24.715418	14.480361	18.431549	-0.046599	0.098499	2.423337	0.000000	-0.002384	0.000000	0.000008	0.000000	0.000000	0.000000
25.012741	14.514190	18.377820	-0.067177	0.082211	2.422628	0.000000	-0.002384	0.000000	0.000008	0.000000	0.000000	0.000000
25.346075	14.566664	18.329099	-0.090247	0.063951	2.421833	0.000000	-0.002384	0.000000	0.000008	0.000000	0.000000	0.000000
25.679408	14.634518	18.292552	-0.113316	0.045690	2.421038	0.000000	-0.002384	0.000000	0.000008	0.000000	0.000000	0.000000
26.013991	14.717795	18.268481	-0.017072	-0.120841	2.420216	0.000000	-0.022019	0.000000	0.000008	-0.000000	0.000000	0.000000
26.311314	14.733955	18.345248	-0.001150	-0.182339	2.413669	0.000000	-0.027937	0.000000	0.000008	-0.000000	0.000000	0.000000
26.752274	14.916512	18.307071	-0.414420	0.268587	2.416461	0.000000	0.040612	0.000000	0.000008	0.000000	0.000000	0.000000
27.193234	15.470481	17.875103	-0.846624	0.707292	2.449553	0.000000	0.109623	0.000000	0.000008	0.000000	0.000000	0.000000
27.634194	16.421170	17.068999	-1.317508	1.113817	2.513323	0.000000	0.179884	0.000000	0.000008	0.000001	0.000000	0.000000
28.075154	17.812014	15.925436	-1.848585	1.469663	2.608496	0.000000	0.252193	0.000000	0.000008	0.000001	0.000000	0.000000
28.521114	19.730723	14.479221	-2.469079	1.759554	2.737761	0.000000	0.327817	0.000000	0.000009	0.000001	0.000000	0.000000
29.070174	22.169413	12.867769	-1.946201	1.192699	2.895086	0.000000	0.244412	0.000000	0.000009	0.000001	0.000000	0.000000
29.619234	23.954573	11.828768	-1.285854	0.710797	3.005358	0.000000	0.156672	0.000000	0.000010	0.000000	0.000000	0.000000
30.168294	24.960108	11.288213	-0.534680	0.279525	3.066620	0.000000	0.066153	0.000000	0.000010	0.000000	0.000000	0.000000
30.717354	25.114991	11.207600	0.254261	-0.131839	3.077786	0.000000	-0.025540	0.000000	0.000010	-0.000000	0.000000	0.000000
31.015927	25.006018	11.276880	0.176335	-0.129478	3.072561	0.000000	-0.017499	0.000000	0.000010	-0.000000	0.000000	0.000000
31.349260	24.893043	11.373216	0.162590	-0.159533	3.066728	0.000000	-0.017499	0.000000	0.000010	-0.000000	0.000000	0.000000
31.682593	24.789231	11.489590	0.148845	-0.189587	3.060895	0.000000	-0.017499	0.000000	0.000010	-0.000000	0.000000	0.000000
32.017177	24.694245	11.626548	0.135049	-0.219754	3.055041	0.000000	-0.017499	0.000000	0.000010	-0.000000	0.000000	0.000000
32.314499	24.617584	11.765195	0.058473	-0.215824	3.049838	0.000000	-0.009531	0.000000	0.000009	-0.000000	0.000000	0.000000
32.863559	24.131630	12.241478	0.821351	-0.656748	3.019721	0.000000	-0.100011	0.000000	0.000009	-0.000000	0.000000	0.000000
33.412619	22.835000	13.224641	1.526213	-1.144451	2.940340	0.000000	-0.188717	0.000000	0.000009	-0.000001	0.000000	0.000000
33.961679	20.819282	14.784712	2.123271	-1.713670	2.813103	0.000000	-0.274076	0.000000	0.000008	-0.000001	0.000000	0.000000
34.510739	18.226854	17.032812	2.570352	-2.404950	2.640266	0.000000	-0.354573	0.000000	0.000008	-0.000001	0.000000	0.000000
34.956699	16.211205	19.043617	1.965640	-2.085159	2.498483	0.000000	-0.281640	0.000000	0.000007	-0.000001	0.000000	0.000000
35.397659	14.708214	20.706367	1.455742	-1.671242	2.389674	0.000000	-0.212343	0.000000	0.000007	-0.000001	0.000000	0.000000
35.838619	13.623997	21.969022	1.012352	-1.181285	2.310860	0.000000	-0.145465	0.000000	0.000006	-0.000001	0.000000	0.000000
36.279579	12.909018	22.774133	0.615213	-0.637580	2.261143	0.000000	-0.080243	0.000000	0.000006	-0.000001	0.000000	0.000000
36.721789	12.529920	23.085371	0.276802	-0.121529	2.239932	0.000000	-0.021427	0.000000	0.000006	-0.000000	0.000000	0.000000
37.019112	12.372917	23.161523	0.251254	-0.134599	2.233561	0.000000	-0.021427	0.000000	0.000006	-0.000000	0.000000	0.000000
37.352445	12.214961	23.256140	0.222613	-0.149251	2.226419	0.000000	-0.021427	0.000000	0.000006	-0.000000	0.000000	0.000000
37.685779	12.076100	23.360525	0.193972	-0.163904	2.219276	0.000000	-0.021427	0.000000	0.000006	-0.000000	0.000000	0.000000
38.020362	11.955919	23.475125	0.165223	-0.178611	2.212107	0.000000	-0.021427	0.000000	0.000005	-0.000000	0.000000	0.000000
38.317684	11.865266	23.585221	0.168772	-0.249516	2.205737	0.000000	-0.026836	0.000000	0.000005	-0.000000	0.000000	0.000000
38.758644	11.867732	23.544048	-0.174387	0.342530	2.207831	0.000000	0.036344	0.000000	0.000005	-0.000000	0.000000	0.000000
39.199604	12.175194	22.985644	-0.525513	0.918990	2.237850	0.000000	0.099937	0.000000	0.000005	-0.000000	0.000000	0.000000
39.640564	12.801697	21.935413	-0.900648	1.453637	2.296135	0.000000	0.164669	0.000000	0.000005	-0.000000	0.000000	0.000000
40.081524	13.775866	20.441142	-1.316932	1.922145	2.383350	0.000000	0.231276	0.000000	0.000005	0.000000	0.000000	0.000000
40.527484	15.159776	18.548249	-1.797207	2.304477	2.501960	0.000000	0.300923	0.000000	0.000005	0.000000	0.000000	0.000000
41.076544	16.925935	16.421168	-1.400447	1.592431	2.646654	0.000000	0.225363	0.000000	0.000005	0.000000	0.000000	0.000000
41.625604	18.199173	15.009499	-0.904767	0.993810	2.748702	0.000000	0.145805	0.000000	0.000005	-0.000000	0.000000	0.000000
42.174664	18.889555	14.212692	-0.345178	0.465976	2.806291	0.000000	0.063662	0.000000	0.000005	-0.000000	0.000000	0.000000
42.723724	18.948315	13.973993	0.238792	-0.028668	2.818402	0.000000	-0.019611	0.000000	0.000005	-0.000000	0.000000	0.000000
43.022297	18.840157	13.975689	0.172964	-0.013525	2.814746	0.000000	-0.012248	0.000000	0.000004	-0.000000	0.000000	0.000000
43.502297	18.686707	14.005162	0.146724	-0.047877	2.808867	0.000000	-0.012248	0.000000	0.000004	-0.000000	0.000000	0.000000
43.982297	18.558446	14.067613	0.120485	-0.082228	2.802988	0.000000	-0.012248	0.000000	0.000004	-0.000000	0.000000	0.000000
44.462297	18.455376	14.163041	0.094245	-0.116580	2.797109	0.000000	-0.012248	0.000000	0.000004	-0.000000	0.000000	0.000000
44.942297	18.377496	14.291446	0.068005	-0.150932	2.791231	0.000000	-0.012248	0.000000	0.000004	-0.000000	0.000000	0.000000
45.423547	18.324929	14.453114	-0.049095	-0.113763	2.785354	0.000000	0.001552	0.000000	0.000003	-0.000000	0.000000	0.000000
45.720870	18.358959	14.526958	-0.113326	-0.096646	2.785816	0.000000	0.008831	0.000000	0.000003	-0.000000	0.000000	0.000000
46.269930	18.174271	14.914093	0.447705	-0.612603	2.768092	0.000000	-0.073295	0.000000	0.000003	-0.000001	0.000000	0.000000
46.818990	17.387303	15.888303	0.977112	-1.172195	2.705568	0.000000	-0.154121	0.000000	0.000003	-0.000001	0.000000	0.000000
47.368050	16.053641	17.518980	1.437500	-1.815279	2.599351	0.000000	-0.232214	0.000000	0.000002	-0.000001	0.000000	0.000000
47.917110	14.267489	19.922272	1.796351	-2.587662	2.451327	0.000000	-0.306187	0.000000	0.000002	-0.000001	0.000000	0.000000
48.363070	12.877447	22.059064	1.331657	-2.183639	2.330072	0.000000	-0.237889	0.000000	0.000002	-0.000001	0.000000	0.000000
48.804030	11.883225	23.769961	0.931571	-1.681533	2.239632	0.000000	-0.172696	0.000000	0.000001	-0.000001	0.000000	0.000000
49.244990	11.221818	25.002483	0.574046	-1.102919	2.177480	0.000000	-0.109471	0.000000	0.000001	-0.000001	0.000000	0.000000
49.685950	10.863006	25.700552	0.242747	-0.474123	2.142906	0.000000	-0.047492	0.000000	0.000001	-0.000001	0.000000	0.000000
50.128160	10.790524	25.832123	-0.051116	0.112848	2.135527	0.000000	0.008709	0.000000	0.000000	-0.000001	0.000000	0.000000
50.425482	10.829134	25.768484	-0.078742	0.101192	2.138117	0.000000	0.008709	0.000000	0.000000	-0.000001	0.000000	0.000000
50.758816	10.891952	25.705379	-0.109714	0.088124	2.141020	0.000000	0.008709	0.000000	0.000000	-0.000001	0.000000	0.000000
51.092149	10.975419	25.650986	-0.140686	0.075056	2.143923	0.000000	0.008709	0.000000	-0.000000	-0.000001	0.000000	0.000000
51.426732	11.079738	25.605669	-0.081888	-0.145787	2.146815	0.000000	-0.008708	0.000000	-0.000000	-0.000001	0.000000	0.000000
51.724055	11.136465	25.695886	-0.081593	-0.220660	2.144226	0.000000	-0.013966	0.000000	-0.000000	-0.000001	0.000000	0.000000
52.165015	11.353812	25.604632	-0.413171	0.426817	2.151657	0.000000	0.047697	0.000000	-0.000001	-0.000001	0.000000	0.000000
52.605975	11.870771	24.948769	-0.763627	1.054875	2.186371	0.000000	0.109903	0.000000	-0.000001	-0.000001	0.000000	0.000000
53.046935	12.710962	23.758139	-1.148970	1.634937	2.248766	0.000000	0.173361	0.000000	-0.000001	-0.000001	0.000000	0.000000
53.487895	13.912770	22.086915	-1.586806	2.140610	2.339552	0.000000	0.238793	0.000000	-0.000002	-0.000001	0.000000	0.000000
53.933855	15.551702	19.986146	-2.101372	2.550223	2.461266	0.000000	0.307344	0.000000	-0.000002	-0.000001	0.000000	0.000000
54.482915	17.661749	17.622297	-1.718896	1.780456	2.609837	0.000000	0.233039	0.000000	-0.000002	-0.000001	0.000000	0.000000
55.031975	19.282228	16.029562	-1.215005	1.137507	2.716413	0.000000	0.154601	0.000000	-0.000003	-0.000001	0.000000	0.000000
55.581035	20.298679	15.094494	-0.625292	0.575580	2.779104	0.000000	0.073421	0.000000	-0.000003	-0.000001	0.000000	0.000000
56.130095	20.639303	14.750490	0.008588	0.054650	2.796799	0.000000	-0.009062	0.000000	-0.000003	-0.000000	0.000000	0.000000
56.428668	20.670705	14.700937	-0.059836	0.072774	2.796275	0.000000	-0.001754	0.000000	-0.000003	-0.000000	0.000000	0.000000
56.762001	20.715991	14.660019	-0.076020	0.049980	2.795691	0.000000	-0.001754	0.000000	-0.000004	-0.000000	0.000000	0.000000
57.095334	20.772065	14.634297	-0.092203	0.027186	2.795106	0.000000	-0.001754	0.000000	-0.000004	-0.000000	0.000000	0.000000
57.429918	20.839200	14.623761	-0.108448	0.004306	2.794519	0.000000	-0.001754	0.000000	-0.000004	-0.000000	0.000000	0.000000
57.727240	20.907980	14.627245	-0.177514	0.022193	2.793998	0.000000	0.005546	0.000000	-0.000004	-0.000000	0.000000	0.000000
58.276300	20.746185	14.883794	0.470445	-0.492202	2.774404	0.000000	-0.076815	0.000000	-0.000004	-0.000000	0.000000	0.000000
58.825360	19.886971	15.721032	1.085173	-1.041657	2.709897	0.000000	-0.157813	0.000000	-0.000004	-0.000000	0.000000	0.000000
59.374420	18.391029	17.198595	1.623250	-1.665306	2.601621	0.000000	-0.236013	0.000000	-0.000004	-0.000000	0.000000	0.000000
59.923480	16.364025	19.421726	2.046669	-2.407571	2.451496	0.000000	-0.310026	0.000000	-0.000004	0.000000	0.000000	0.000000
60.369440	14.777456	21.397704	1.523577	-2.004567	2.328527	0.000000	-0.241745	0.000000	-0.000004	0.000000	0.000000	0.000000
60.810400	13.636225	22.954172	1.074301	-1.511729	2.236374	0.000000	-0.176614	0.000000	-0.000004	-0.000000	0.000000	0.000000
61.251360	12.868161	24.043891	0.674107	-0.950109	2.172472	0.000000	-0.113495	0.000000	-0.000004	-0.000000	0.000000	0.000000
61.692320	12.438172	24.617278	0.304712	-0.345259	2.136091	0.000000	-0.051669	0.000000	-0.000005	-0.000000	0.000000	0.000000
62.134530	12.326665	24.647709	-0.020635	0.214799	2.126823	0.000000	0.004353	0.000000	-0.000005	-0.000000	0.000000	0.000000
62.431853	12.346110	24.523731	-0.044765	0.202180	2.128118	0.000000	0.004353	0.000000	-0.000005	-0.000000	0.000000	0.000000
62.765186	12.384971	24.393661	-0.071818	0.188032	2.129569	0.000000	0.004353	0.000000	-0.000005	-0.000000	0.000000	0.000000
63.098520	12.441868	24.273022	-0.098871	0.173884	2.131020	0.000000	0.004353	0.000000	-0.000005	-0.000000	0.000000	0.000000
63.433103	12.517115	24.161417	-0.126026	0.159683	2.132476	0.000000	0.004353	0.000000	-0.000005	-0.000000	0.000000	0.000000
63.730426	12.599230	24.070214	-0.119258	0.088033	2.133771	0.000000	-0.000880	0.000000	-0.000005	-0.000000	0.000000	0.000000
64.171386	12.864823	23.727482	-0.485333	0.686250	2.146922	0.000000	0.060587	0.000000	-0.000006	-0.000001	0.000000	0.000000
64.612346	13.461785	22.868976	-0.873582	1.253244	2.187305	0.000000	0.122744	0.000000	-0.000006	-0.000001	0.000000	0.000000
65.053306	14.417391	21.533757	-1.301742	1.763216	2.255378	0.000000	0.186299	0.000000	-0.000006	-0.000001	0.000000	0.000000
65.494266	15.775298	19.782576	-1.789375	2.192963	2.351917	0.000000	0.251976	0.000000	-0.000007	-0.000001	0.000000	0.000000
65.940226	17.620711	17.670327	-2.363452	2.523687	2.479595	0.000000	0.320924	0.000000	-0.000007	-0.000001	0.000000	0.000000
66.489286	19.986265	15.307335	-1.919415	1.805422	2.635437	0.000000	0.245908	0.000000	-0.000008	-0.000001	0.000000	0.000000
67.038346	21.786425	13.658263	-1.339801	1.215753	2.748831	0.000000	0.166530	0.000000	-0.000008	-0.000001	0.000000	0.000000
67.587406	22.894039	12.605652	-0.665549	0.712679	2.817765	0.000000	0.084198	0.000000	-0.000009	-0.000000	0.000000	0.000000
68.136466	23.230869	12.074526	0.055713	0.260368	2.841017	0.000000	0.000373	0.000000	-0.000009	-0.000000	0.000000	0.000000
68.435038	23.237686	11.908220	-0.017842	0.265084	2.843345	0.000000	0.007797	0.000000	-0.000009	-0.000000	0.000000	0.000000
68.768372	23.254363	11.741484	-0.032191	0.235125	2.845944	0.000000	0.007797	0.000000	-0.000009	-0.000000	0.000000	0.000000
69.101705	23.280607	11.594720	-0.046540	0.205166	2.848543	0.000000	0.007797	0.000000	-0.000009	-0.000000	0.000000	0.000000
69.436288	23.316569	11.467491	-0.060943	0.175095	2.851152	0.000000	0.007797	0.000000	-0.000009	-0.000000	0.000000	0.000000
69.733611	23.356614	11.371317	-0.134773	0.178086	2.853470	0.000000	0.015253	0.000000	-0.000009	-0.000000	0.000000	0.000000
70.282671	23.103478	11.403444	0.593078	-0.236945	2.838662	0.000000	-0.069113	0.000000	-0.000009	0.000000	0.000000	0.000000
