#ParticleID	Turn	x[m]	xp	y[m]	yp	z[m]	dE[GeV]# s	beta_x	beta_y	alpha_x	alpha_y	D_x	D_y	D_px	D_py	orbit_x	orbit_px	orbit_y	orbit_py
0.300000	11.819083	24.996566	-0.011679	-0.027471	2.618105	0.000000	0.000015	0.000000	-0.000000	0.000001	0.000000	0.000000
0.601250	11.833799	25.016750	-0.037171	-0.039531	2.618109	0.000000	0.000015	0.000000	0.000000	0.000001	0.000000	0.000000
0.898573	11.863384	25.043797	-0.033238	-0.112849	2.618114	0.000000	-0.006405	0.000000	0.000000	0.000001	0.000000	0.000000
1.339533	12.044891	24.865529	-0.379943	0.515582	2.631582	0.000000	0.067552	0.000000	0.000001	0.000001	0.000000	0.000000
1.780493	12.538636	24.141303	-0.744007	1.120554	2.677801	0.000000	0.142279	0.000000	0.000001	0.000001	0.000000	0.000000
2.221453	13.367174	22.904069	-1.142062	1.674542	2.757298	0.000000	0.218626	0.000000	0.000001	0.000001	0.000000	0.000000
2.662413	14.568359	21.210121	-1.592295	2.152340	2.870977	0.000000	0.297463	0.000000	0.000002	0.000001	0.000000	0.000000
3.108373	16.217835	19.111688	-2.119568	2.533340	3.021994	0.000000	0.380178	0.000000	0.000002	0.000001	0.000000	0.000000
3.657433	18.332997	16.754874	-1.709960	1.784451	3.205462	0.000000	0.287140	0.000000	0.000002	0.000001	0.000000	0.000000
4.206493	19.928970	15.146227	-1.179569	1.162664	3.336372	0.000000	0.189009	0.000000	0.000003	0.000001	0.000000	0.000000
4.755553	20.893022	14.171166	-0.565860	0.623691	3.412400	0.000000	0.087525	0.000000	0.000003	0.000001	0.000000	0.000000
5.304613	21.157058	13.760242	0.087820	0.129142	3.432199	0.000000	-0.015511	0.000000	0.000003	0.000000	0.000000	0.000000
5.603185	21.141843	13.668312	0.018415	0.142804	3.430245	0.000000	-0.006544	0.000000	0.000004	0.000000	0.000000	0.000000
5.936519	21.134824	13.581404	0.002643	0.117919	3.428063	0.000000	-0.006544	0.000000	0.000004	0.000000	0.000000	0.000000
6.269852	21.138319	13.511086	-0.013129	0.093035	3.425882	0.000000	-0.006544	0.000000	0.000004	0.000000	0.000000	0.000000
6.604435	21.152402	13.457188	-0.028960	0.068057	3.423692	0.000000	-0.006544	0.000000	0.000004	0.000000	0.000000	0.000000
6.901758	21.173805	13.423317	-0.098349	0.080932	3.421746	0.000000	0.002396	0.000000	0.000004	0.000001	0.000000	0.000000
7.450818	20.920916	13.595160	0.556208	-0.395755	3.394860	0.000000	-0.100186	0.000000	0.000004	0.000000	0.000000	0.000000
7.999878	19.966665	14.302776	1.171477	-0.900631	3.312056	0.000000	-0.200992	0.000000	0.000005	0.000000	0.000000	0.000000
8.548938	18.378455	15.596569	1.703999	-1.469656	3.174801	0.000000	-0.298233	0.000000	0.000005	0.000000	0.000000	0.000000
9.097998	16.268469	17.568692	2.116159	-2.143362	2.985532	0.000000	-0.390183	0.000000	0.000005	-0.000000	0.000000	0.000000
9.543958	14.622257	19.325974	1.588354	-1.780429	2.829833	0.000000	-0.308475	0.000000	0.000005	0.000000	0.000000	0.000000
9.984918	13.424847	20.706205	1.137408	-1.337720	2.711054	0.000000	-0.230765	0.000000	0.000005	0.000000	0.000000	0.000000
10.425878	12.600805	21.667570	0.738427	-0.834146	2.625931	0.000000	-0.155682	0.000000	0.000005	0.000000	0.000000	0.000000
10.866838	12.112482	22.166327	0.373183	-0.292619	2.573495	0.000000	-0.082373	0.000000	0.000005	0.000000	0.000000	0.000000
11.309048	11.937433	22.179262	0.054156	0.207774	2.553127	0.000000	-0.016262	0.000000	0.000005	0.000001	0.000000	0.000000
11.606371	11.912656	22.059868	0.029176	0.193790	2.548291	0.000000	-0.016262	0.000000	0.000005	0.000001	0.000000	0.000000
12.086371	11.904004	21.884666	-0.011151	0.171214	2.540485	0.000000	-0.016262	0.000000	0.000006	0.000001	0.000000	0.000000
12.566371	11.934067	21.731137	-0.051479	0.148638	2.532679	0.000000	-0.016262	0.000000	0.000006	0.000001	0.000000	0.000000
13.046371	12.002844	21.599281	-0.091807	0.126062	2.524873	0.000000	-0.016262	0.000000	0.000006	0.000001	0.000000	0.000000
13.526371	12.110336	21.489098	-0.132134	0.103486	2.517067	0.000000	-0.016262	0.000000	0.000006	0.000001	0.000000	0.000000
14.007621	12.256973	21.400386	-0.172567	0.080851	2.509240	0.000000	-0.016262	0.000000	0.000007	0.000001	0.000000	0.000000
14.304943	12.367016	21.356466	-0.167221	0.014498	2.504405	0.000000	-0.022404	0.000000	0.000007	0.000001	0.000000	0.000000
14.745903	12.673089	21.109924	-0.529519	0.542478	2.510158	0.000000	0.048523	0.000000	0.000007	0.000001	0.000000	0.000000
15.186863	13.308101	20.406892	-0.916010	1.045777	2.547278	0.000000	0.120002	0.000000	0.000007	0.000001	0.000000	0.000000
15.627823	14.301063	19.279357	-1.344351	1.501493	2.616190	0.000000	0.192848	0.000000	0.000008	0.000001	0.000000	0.000000
16.068783	15.697341	17.778622	-1.834111	1.888892	2.717676	0.000000	0.267890	0.000000	0.000008	0.000001	0.000000	0.000000
16.514743	17.584383	15.951466	-2.412425	2.191095	2.854589	0.000000	0.346446	0.000000	0.000009	0.000002	0.000000	0.000000
17.063803	20.007939	13.911230	-1.975455	1.546708	3.021075	0.000000	0.259107	0.000000	0.000010	0.000001	0.000000	0.000000
17.612863	21.871723	12.514323	-1.398949	1.012489	3.138274	0.000000	0.167172	0.000000	0.000010	0.000001	0.000000	0.000000
18.161923	23.044085	11.661245	-0.723628	0.550388	3.204105	0.000000	0.072272	0.000000	0.000011	0.000001	0.000000	0.000000
18.710983	23.442217	11.291233	0.002806	0.127490	3.217402	0.000000	-0.023910	0.000000	0.000011	0.000000	0.000000	0.000000
19.009556	23.480929	11.205577	-0.071218	0.129895	3.212773	0.000000	-0.015504	0.000000	0.000011	0.000000	0.000000	0.000000
19.342889	23.533164	11.129064	-0.085486	0.099646	3.207605	0.000000	-0.015504	0.000000	0.000011	0.000000	0.000000	0.000000
19.676223	23.594911	11.072717	-0.099754	0.069397	3.202437	0.000000	-0.015504	0.000000	0.000011	0.000000	0.000000	0.000000
20.010806	23.666748	11.036301	-0.231334	0.093715	3.197269	0.000000	0.000337	0.000000	0.000011	0.000000	0.000000	0.000000
20.308129	23.808244	10.988654	-0.306770	0.095247	3.197369	0.000000	0.008691	0.000000	0.000011	0.000000	0.000000	0.000000
20.857189	23.734484	11.106345	0.440313	-0.310862	3.175919	0.000000	-0.086710	0.000000	0.000011	-0.000000	0.000000	0.000000
21.406249	22.852630	11.679461	1.156295	-0.739112	3.102434	0.000000	-0.180573	0.000000	0.000011	-0.000000	0.000000	0.000000
21.955309	21.224971	12.748823	1.790602	-1.220008	2.978217	0.000000	-0.271232	0.000000	0.000011	-0.000001	0.000000	0.000000
22.504369	18.966477	14.390600	2.298430	-1.787802	2.805472	0.000000	-0.357081	0.000000	0.000010	-0.000001	0.000000	0.000000
22.950329	17.186619	15.864563	1.706729	-1.503400	2.663524	0.000000	-0.279865	0.000000	0.000010	-0.000001	0.000000	0.000000
23.391289	15.910722	17.039718	1.197701	-1.151451	2.556438	0.000000	-0.206291	0.000000	0.000010	-0.000001	0.000000	0.000000
23.832249	15.058012	17.880105	0.743393	-0.747111	2.481247	0.000000	-0.135067	0.000000	0.000009	-0.000000	0.000000	0.000000
24.273209	14.589531	18.347489	0.323048	-0.308778	2.437095	0.000000	-0.065380	0.000000	0.000009	-0.000000	0.000000	0.000000
24.715418	14.483995	18.420356	-0.047109	0.098366	2.423475	0.000000	-0.002381	0.000000	0.000009	0.000000	0.000000	0.000000
25.012741	14.518125	18.366709	-0.067682	0.082069	2.422767	0.000000	-0.002381	0.000000	0.000009	0.000000	0.000000	0.000000
25.346075	14.570935	18.318086	-0.090747	0.063798	2.421973	0.000000	-0.002381	0.000000	0.000009	0.000000	0.000000	0.000000
25.679408	14.639121	18.281645	-0.113812	0.045527	2.421180	0.000000	-0.002381	0.000000	0.000009	0.000000	0.000000	0.000000
26.013991	14.722728	18.257686	-0.017523	-0.120928	2.420358	0.000000	-0.022017	0.000000	0.000009	0.000000	0.000000	0.000000
26.311314	14.739155	18.334507	-0.001583	-0.182408	2.413812	0.000000	-0.027936	0.000000	0.000009	-0.000000	0.000000	0.000000
26.752274	14.922151	18.296520	-0.414987	0.268228	2.416606	0.000000	0.040617	0.000000	0.000009	0.000000	0.000000	0.000000
27.193234	15.476689	17.864991	-0.847352	0.706660	2.449701	0.000000	0.109633	0.000000	0.000010	0.000000	0.000000	0.000000
27.634194	16.428102	17.059554	-1.318429	1.112940	2.513475	0.000000	0.179897	0.000000	0.000010	0.000001	0.000000	0.000000
28.075154	17.819859	15.916858	-1.849742	1.468582	2.608655	0.000000	0.252210	0.000000	0.000010	0.000001	0.000000	0.000000
28.521114	19.739726	14.471681	-2.470527	1.758317	2.737928	0.000000	0.327839	0.000000	0.000011	0.000001	0.000000	0.000000
29.070174	22.179889	12.861422	-1.947418	1.191749	2.895264	0.000000	0.244428	0.000000	0.000011	0.000001	0.000000	0.000000
29.619234	23.966218	11.823338	-1.286753	0.710067	3.005542	0.000000	0.156682	0.000000	0.000012	0.000001	0.000000	0.000000
30.168294	24.972536	11.283488	-0.535198	0.278962	3.066808	0.000000	0.066157	0.000000	0.000012	0.000000	0.000000	0.000000
30.717354	25.127761	11.203420	0.254160	-0.132274	3.077975	0.000000	-0.025542	0.000000	0.000012	-0.000000	0.000000	0.000000
31.015927	25.018865	11.272970	0.176208	-0.129937	3.072750	0.000000	-0.017501	0.000000	0.000012	-0.000000	0.000000	0.000000
31.349260	24.905972	11.369618	0.162471	-0.160006	3.066916	0.000000	-0.017501	0.000000	0.000012	-0.000000	0.000000	0.000000
31.682593	24.802237	11.486311	0.148734	-0.190074	3.061082	0.000000	-0.017501	0.000000	0.000012	-0.000000	0.000000	0.000000
32.017177	24.707322	11.623601	0.134946	-0.220255	3.055227	0.000000	-0.017501	0.000000	0.000011	-0.000000	0.000000	0.000000
32.314499	24.630720	11.762549	0.058344	-0.216345	3.050024	0.000000	-0.009532	0.000000	0.000011	-0.000000	0.000000	0.000000
32.863559	24.144669	12.239375	0.821658	-0.657223	3.019905	0.000000	-0.100018	0.000000	0.000011	-0.000001	0.000000	0.000000
33.412619	22.847471	13.223050	1.526935	-1.144913	2.940518	0.000000	-0.188730	0.000000	0.000011	-0.000001	0.000000	0.000000
33.961679	20.830753	14.783638	2.124357	-1.714153	2.813272	0.000000	-0.274095	0.000000	0.000010	-0.000001	0.000000	0.000000
34.510739	18.236967	17.032296	2.571725	-2.405489	2.640423	0.000000	-0.354598	0.000000	0.000009	-0.000002	0.000000	0.000000
34.956699	16.220232	19.043617	1.966711	-2.085771	2.498630	0.000000	-0.281661	0.000000	0.000009	-0.000001	0.000000	0.000000
35.397659	14.716411	20.706929	1.456561	-1.671899	2.389813	0.000000	-0.212360	0.000000	0.000008	-0.000001	0.000000	0.000000
35.838619	13.631567	21.970172	1.012957	-1.181957	2.310992	0.000000	-0.145478	0.000000	0.000008	-0.000001	0.000000	0.000000
36.279579	12.916139	22.775871	0.615632	-0.638237	2.261271	0.000000	-0.080252	0.000000	0.000007	-0.000001	0.000000	0.000000
36.721789	12.536746	23.087671	0.277070	-0.122145	2.240056	0.000000	-0.021434	0.000000	0.000007	-0.000001	0.000000	0.000000
37.019112	12.379580	23.164190	0.251533	-0.135215	2.233683	0.000000	-0.021434	0.000000	0.000007	-0.000001	0.000000	0.000000
37.352445	12.221435	23.259218	0.222903	-0.149868	2.226538	0.000000	-0.021434	0.000000	0.000007	-0.000001	0.000000	0.000000
37.685779	12.082376	23.364015	0.194274	-0.164521	2.219394	0.000000	-0.021434	0.000000	0.000007	-0.000001	0.000000	0.000000
38.020362	11.961989	23.479028	0.165537	-0.179229	2.212223	0.000000	-0.021434	0.000000	0.000007	-0.000001	0.000000	0.000000
38.317684	11.871146	23.589492	0.169110	-0.250145	2.205850	0.000000	-0.026843	0.000000	0.000006	-0.000001	0.000000	0.000000
38.758644	11.873373	23.548822	-0.174179	0.342023	2.207942	0.000000	0.036339	0.000000	0.000006	-0.000000	0.000000	0.000000
39.199604	12.180705	22.990802	-0.525426	0.918628	2.237959	0.000000	0.099936	0.000000	0.000006	-0.000000	0.000000	0.000000
39.640564	12.807184	21.940821	-0.900679	1.453437	2.296244	0.000000	0.164671	0.000000	0.000006	-0.000000	0.000000	0.000000
40.081524	13.781431	20.446652	-1.317080	1.922115	2.383461	0.000000	0.231281	0.000000	0.000006	0.000000	0.000000	0.000000
40.527484	15.165529	18.553709	-1.797482	2.304620	2.502074	0.000000	0.300930	0.000000	0.000006	0.000000	0.000000	0.000000
41.076544	16.931872	16.426547	-1.400506	1.592437	2.646771	0.000000	0.225366	0.000000	0.000006	0.000000	0.000000	0.000000
41.625604	18.205053	15.014946	-0.904605	0.993679	2.748819	0.000000	0.145805	0.000000	0.000006	-0.000000	0.000000	0.000000
42.174664	18.895141	14.218362	-0.344808	0.465699	2.806407	0.000000	0.063657	0.000000	0.000006	-0.000000	0.000000	0.000000
42.723724	18.953392	13.980056	0.239345	-0.029111	2.818515	0.000000	-0.019619	0.000000	0.000006	-0.000001	0.000000	0.000000
43.022297	18.844912	13.982005	0.173505	-0.013943	2.814856	0.000000	-0.012255	0.000000	0.000006	-0.000001	0.000000	0.000000
43.502297	18.690941	14.011872	0.147267	-0.048280	2.808974	0.000000	-0.012255	0.000000	0.000005	-0.000001	0.000000	0.000000
43.982297	18.562159	14.074702	0.121029	-0.082616	2.803092	0.000000	-0.012255	0.000000	0.000005	-0.000001	0.000000	0.000000
44.462297	18.458566	14.170495	0.094791	-0.116953	2.797209	0.000000	-0.012255	0.000000	0.000005	-0.000001	0.000000	0.000000
44.942297	18.380161	14.299251	0.068553	-0.151289	2.791327	0.000000	-0.012255	0.000000	0.000005	-0.000001	0.000000	0.000000
45.423547	18.327065	14.461255	-0.048555	-0.114065	2.785447	0.000000	0.001545	0.000000	0.000004	-0.000001	0.000000	0.000000
45.720870	18.360773	14.535276	-0.112788	-0.096916	2.785906	0.000000	0.008824	0.000000	0.000004	-0.000000	0.000000	0.000000
46.269930	18.175467	14.922848	0.448288	-0.613134	2.768179	0.000000	-0.073305	0.000000	0.000004	-0.000001	0.000000	0.000000
46.818990	17.387852	15.897801	0.977699	-1.173024	2.705648	0.000000	-0.154134	0.000000	0.000003	-0.000001	0.000000	0.000000
47.368050	16.053561	17.529579	1.438051	-1.816467	2.599424	0.000000	-0.232229	0.000000	0.000003	-0.000001	0.000000	0.000000
47.917110	14.266843	19.934410	1.796826	-2.589292	2.451391	0.000000	-0.306205	0.000000	0.000003	-0.000001	0.000000	0.000000
48.363070	12.876393	22.072542	1.332100	-2.185000	2.330129	0.000000	-0.237904	0.000000	0.000002	-0.000001	0.000000	0.000000
48.804030	11.881787	23.784498	0.932003	-1.682565	2.239683	0.000000	-0.172710	0.000000	0.000002	-0.000001	0.000000	0.000000
49.244990	11.219996	25.017768	0.574486	-1.103575	2.177524	0.000000	-0.109484	0.000000	0.000001	-0.000001	0.000000	0.000000
49.685950	10.860785	25.716238	0.243216	-0.474373	2.142945	0.000000	-0.047504	0.000000	0.000001	-0.000001	0.000000	0.000000
50.128160	10.787868	25.847846	-0.050603	0.112977	2.135561	0.000000	0.008698	0.000000	0.000001	-0.000001	0.000000	0.000000
50.425482	10.826174	25.784128	-0.078235	0.101328	2.138148	0.000000	0.008698	0.000000	0.000000	-0.000001	0.000000	0.000000
50.758816	10.888656	25.720930	-0.109213	0.088267	2.141047	0.000000	0.008698	0.000000	0.000000	-0.000001	0.000000	0.000000
51.092149	10.971791	25.666439	-0.140191	0.075206	2.143946	0.000000	0.008698	0.000000	0.000000	-0.000001	0.000000	0.000000
51.426732	11.075781	25.621019	-0.081431	-0.145753	2.146835	0.000000	-0.008719	0.000000	-0.000000	-0.000001	0.000000	0.000000
51.724055	11.132237	25.711214	-0.081154	-0.220657	2.144243	0.000000	-0.013977	0.000000	-0.000000	-0.000001	0.000000	0.000000
52.165015	11.349151	25.619778	-0.412625	0.427225	2.151668	0.000000	0.047686	0.000000	-0.000001	-0.000001	0.000000	0.000000
52.605975	11.865572	24.963383	-0.762947	1.055669	2.186378	0.000000	0.109892	0.000000	-0.000001	-0.000001	0.000000	0.000000
53.046935	12.705094	23.771895	-1.148127	1.636080	2.248769	0.000000	0.173350	0.000000	-0.000001	-0.000001	0.000000	0.000000
53.487895	13.906072	22.099526	-1.585761	2.142051	2.339549	0.000000	0.238782	0.000000	-0.000002	-0.000001	0.000000	0.000000
53.933855	15.543963	19.997362	-2.100075	2.551897	2.461260	0.000000	0.307333	0.000000	-0.000002	-0.000001	0.000000	0.000000
54.482915	17.652686	17.631919	-1.717796	1.781703	2.609824	0.000000	0.233029	0.000000	-0.000003	-0.000001	0.000000	0.000000
55.031975	19.272102	16.038006	-1.214180	1.138417	2.716395	0.000000	0.154591	0.000000	-0.000003	-0.000001	0.000000	0.000000
55.581035	20.287825	15.102094	-0.624800	0.576217	2.779081	0.000000	0.073412	0.000000	-0.000003	-0.000001	0.000000	0.000000
56.130095	20.628108	14.757519	0.008712	0.055060	2.796771	0.000000	-0.009070	0.000000	-0.000004	-0.000000	0.000000	0.000000
56.428668	20.659422	14.707708	-0.059691	0.073211	2.796245	0.000000	-0.001762	0.000000	-0.000004	-0.000001	0.000000	0.000000
56.762001	20.704613	14.666496	-0.075883	0.050425	2.795658	0.000000	-0.001762	0.000000	-0.000004	-0.000001	0.000000	0.000000
57.095334	20.760599	14.640474	-0.092075	0.027640	2.795070	0.000000	-0.001762	0.000000	-0.000004	-0.000001	0.000000	0.000000
57.429918	20.827650	14.629631	-0.108328	0.004769	2.794481	0.000000	-0.001762	0.000000	-0.000004	-0.000001	0.000000	0.000000
57.727240	20.896361	14.632837	-0.177371	0.022680	2.793957	0.000000	0.005538	0.000000	-0.000005	-0.000001	0.000000	0.000000
58.276300	20.734624	14.888938	0.470197	-0.491868	2.774359	0.000000	-0.076822	0.000000	-0.000005	-0.000000	0.000000	0.000000
58.825360	19.875890	15.725881	1.084553	-1.041449	2.709848	0.000000	-0.157819	0.000000	-0.000005	-0.000000	0.000000	0.000000
59.374420	18.380815	17.203279	1.622301	-1.665211	2.601569	0.000000	-0.236016	0.000000	-0.000005	-0.000000	0.000000	0.000000
59.923480	16.355003	19.426365	2.045458	-2.407583	2.451443	0.000000	-0.310028	0.000000	-0.000005	0.000000	0.000000	0.000000
60.369440	14.769393	21.402284	1.522632	-2.004423	2.328472	0.000000	-0.241748	0.000000	-0.000005	-0.000000	0.000000	0.000000
60.810400	13.628896	22.958559	1.073576	-1.511437	2.236318	0.000000	-0.176619	0.000000	-0.000005	-0.000000	0.000000	0.000000
61.251360	12.861386	24.047960	0.673569	-0.949682	2.172413	0.000000	-0.113502	0.000000	-0.000005	-0.000000	0.000000	0.000000
61.692320	12.431799	24.620918	0.304336	-0.344717	2.136030	0.000000	-0.051677	0.000000	-0.000005	-0.000000	0.000000	0.000000
62.134530	12.320559	24.650826	-0.020880	0.215424	2.126758	0.000000	0.004343	0.000000	-0.000006	-0.000001	0.000000	0.000000
62.431853	12.340153	24.526477	-0.045022	0.202803	2.128049	0.000000	0.004343	0.000000	-0.000006	-0.000001	0.000000	0.000000
62.765186	12.379190	24.395992	-0.072089	0.188653	2.129497	0.000000	0.004343	0.000000	-0.000006	-0.000001	0.000000	0.000000
63.098520	12.436272	24.274940	-0.099156	0.174504	2.130945	0.000000	0.004343	0.000000	-0.000006	-0.000001	0.000000	0.000000
63.433103	12.511714	24.162920	-0.126324	0.160301	2.132398	0.000000	0.004343	0.000000	-0.000006	-0.000001	0.000000	0.000000
63.730426	12.594010	24.071350	-0.119581	0.088646	2.133690	0.000000	-0.000890	0.000000	-0.000006	-0.000001	0.000000	0.000000
64.171386	12.859838	23.728069	-0.485545	0.686877	2.146837	0.000000	0.060575	0.000000	-0.000007	-0.000001	0.000000	0.000000
64.612346	13.456943	22.869014	-0.873693	1.253857	2.187214	0.000000	0.122730	0.000000	-0.000007	-0.000001	0.000000	0.000000
65.053306	14.412604	21.533271	-1.301757	1.763786	2.255281	0.000000	0.186283	0.000000	-0.000007	-0.000001	0.000000	0.000000
65.494266	15.770482	19.781616	-1.789295	2.193465	2.351812	0.000000	0.251957	0.000000	-0.000008	-0.000001	0.000000	0.000000
65.940226	17.615779	17.668959	-2.363273	2.524097	2.479481	0.000000	0.320903	0.000000	-0.000009	-0.000001	0.000000	0.000000
66.489286	19.981242	15.305531	-1.919430	1.805808	2.635312	0.000000	0.245890	0.000000	-0.000009	-0.000001	0.000000	0.000000
67.038346	21.781526	13.656036	-1.340009	1.216143	2.748698	0.000000	0.166517	0.000000	-0.000010	-0.000001	0.000000	0.000000
67.587406	22.889469	12.602981	-0.665937	0.713101	2.817626	0.000000	0.084189	0.000000	-0.000010	-0.000001	0.000000	0.000000
68.136466	23.226811	12.071362	0.055174	0.260851	2.840874	0.000000	0.000369	0.000000	-0.000010	-0.000000	0.000000	0.000000
68.435038	23.233944	11.904776	-0.018373	0.265545	2.843200	0.000000	0.007792	0.000000	-0.000010	-0.000000	0.000000	0.000000
68.768372	23.250977	11.737738	-0.032725	0.235571	2.845798	0.000000	0.007792	0.000000	-0.000011	-0.000000	0.000000	0.000000
69.101705	23.277578	11.590682	-0.047077	0.205597	2.848395	0.000000	0.007792	0.000000	-0.000011	-0.000000	0.000000	0.000000
69.436288	23.313900	11.463170	-0.061482	0.175510	2.851002	0.000000	0.007792	0.000000	-0.000011	-0.000000	0.000000	0.000000
69.733611	23.354266	11.366753	-0.135309	0.178475	2.853319	0.000000	0.015248	0.000000	-0.000011	-0.000000	0.000000	0.000000
70.282671	23.101757	11.398382	0.592480	-0.236420	2.838510	0.000000	-0.069113	0.000000	-0.000011	0.000000	0.000000	0.000000
