#ParticleID	Turn	x[m]	xp	y[m]	yp	z[m]	dE[GeV]# s	beta_x	beta_y	alpha_x	alpha_y	D_x	D_y	D_px	D_py	orbit_x	orbit_px	orbit_y	orbit_py
0.300000	11.827504	24.963692	-0.012761	-0.027699	2.618204	0.000000	-0.000022	0.000000	-0.000001	0.000000	0.000000	0.000000
0.601250	11.842867	24.984019	-0.038236	-0.039776	2.618197	0.000000	-0.000022	0.000000	-0.000001	0.000000	0.000000	0.000000
0.898573	11.873079	25.011215	-0.034262	-0.113030	2.618191	0.000000	-0.006442	0.000000	-0.000000	0.000000	0.000000	0.000000
1.339533	12.055595	24.833488	-0.381214	0.514544	2.631643	0.000000	0.067517	0.000000	-0.000000	0.000000	0.000000	0.000000
1.780493	12.550590	24.110539	-0.745584	1.118706	2.677847	0.000000	0.142245	0.000000	-0.000000	0.000000	0.000000	0.000000
2.221453	13.380679	22.875262	-1.144016	1.671969	2.757329	0.000000	0.218593	0.000000	-0.000000	0.000000	0.000000	0.000000
2.662413	14.583787	21.183861	-1.594716	2.149158	2.870993	0.000000	0.297431	0.000000	0.000000	0.000000	0.000000	0.000000
3.108373	16.235672	19.088486	-2.122571	2.529693	3.021997	0.000000	0.380145	0.000000	0.000000	0.000000	0.000000	0.000000
3.657433	18.353902	16.735161	-1.712511	1.781706	3.205447	0.000000	0.287108	0.000000	0.000000	0.000000	0.000000	0.000000
4.206493	19.952343	15.129124	-1.181488	1.160626	3.336339	0.000000	0.188977	0.000000	0.000001	0.000000	0.000000	0.000000
4.755553	20.918090	14.155982	-0.567010	0.622215	3.412351	0.000000	0.087495	0.000000	0.000001	0.000000	0.000000	0.000000
5.304613	21.182926	13.746419	0.087519	0.128122	3.432134	0.000000	-0.015540	0.000000	0.000001	0.000000	0.000000	0.000000
5.603185	21.167927	13.655123	0.018063	0.141734	3.430172	0.000000	-0.006572	0.000000	0.000001	0.000000	0.000000	0.000000
5.936519	21.161136	13.568934	0.002311	0.116833	3.427981	0.000000	-0.006572	0.000000	0.000001	0.000000	0.000000	0.000000
6.269852	21.164847	13.499346	-0.013442	0.091932	3.425790	0.000000	-0.006572	0.000000	0.000001	0.000000	0.000000	0.000000
6.604435	21.179131	13.446191	-0.029253	0.066937	3.423591	0.000000	-0.006572	0.000000	0.000001	0.000000	0.000000	0.000000
6.901758	21.200704	13.412991	-0.098696	0.079772	3.421637	0.000000	0.002368	0.000000	0.000001	0.000000	0.000000	0.000000
7.450818	20.947700	13.585952	0.556764	-0.396644	3.394736	0.000000	-0.100211	0.000000	0.000001	0.000000	0.000000	0.000000
7.999878	19.992357	14.294425	1.172897	-0.901312	3.311919	0.000000	-0.201012	0.000000	0.000001	0.000000	0.000000	0.000000
8.548938	18.402156	15.588875	1.706183	-1.470178	3.174655	0.000000	-0.298248	0.000000	0.000002	0.000000	0.000000	0.000000
9.097998	16.289421	17.561501	2.118952	-2.143762	2.985378	0.000000	-0.390194	0.000000	0.000002	0.000000	0.000000	0.000000
9.543958	14.641000	19.319264	1.590533	-1.781107	2.829674	0.000000	-0.308490	0.000000	0.000002	0.000000	0.000000	0.000000
9.984918	13.441901	20.700204	1.139076	-1.338642	2.710887	0.000000	-0.230784	0.000000	0.000002	0.000000	0.000000	0.000000
10.425878	12.616584	21.662474	0.739660	-0.835270	2.625755	0.000000	-0.155706	0.000000	0.000002	0.000000	0.000000	0.000000
10.866838	12.127344	22.162293	0.374038	-0.293895	2.573307	0.000000	-0.082401	0.000000	0.000002	0.000000	0.000000	0.000000
11.309048	11.951691	22.176402	0.054708	0.206411	2.552926	0.000000	-0.016295	0.000000	0.000002	0.000000	0.000000	0.000000
11.606371	11.926578	22.057817	0.029757	0.192432	2.548081	0.000000	-0.016295	0.000000	0.000002	0.000000	0.000000	0.000000
12.086371	11.917347	21.883914	-0.010525	0.169866	2.540259	0.000000	-0.016295	0.000000	0.000002	0.000000	0.000000	0.000000
12.566371	11.946786	21.731675	-0.050807	0.147299	2.532437	0.000000	-0.016295	0.000000	0.000002	0.000000	0.000000	0.000000
13.046371	12.014896	21.601100	-0.091089	0.124732	2.524615	0.000000	-0.016295	0.000000	0.000002	0.000000	0.000000	0.000000
13.526371	12.121677	21.492189	-0.131371	0.102165	2.516793	0.000000	-0.016295	0.000000	0.000003	0.000000	0.000000	0.000000
14.007621	12.267558	21.404744	-0.171758	0.079540	2.508951	0.000000	-0.016295	0.000000	0.000003	0.000000	0.000000	0.000000
14.304943	12.377111	21.361602	-0.166358	0.013178	2.504106	0.000000	-0.022436	0.000000	0.000003	0.000000	0.000000	0.000000
14.745903	12.682515	21.116154	-0.528858	0.541326	2.509843	0.000000	0.048483	0.000000	0.000003	0.000000	0.000000	0.000000
15.186863	13.317022	20.414045	-0.915521	1.044844	2.546944	0.000000	0.119953	0.000000	0.000003	0.000000	0.000000	0.000000
15.627823	14.309620	19.287219	-1.344012	1.500823	2.615832	0.000000	0.192790	0.000000	0.000003	0.000000	0.000000	0.000000
16.068783	15.705659	17.786948	-1.833906	1.888515	2.717292	0.000000	0.267823	0.000000	0.000004	0.000001	0.000000	0.000000
16.514743	17.592574	15.959989	-2.412345	2.191030	2.854172	0.000000	0.346368	0.000000	0.000004	0.000001	0.000000	0.000000
17.063803	20.015838	13.919913	-1.975006	1.546481	3.020621	0.000000	0.259044	0.000000	0.000004	0.000001	0.000000	0.000000
17.612863	21.878939	12.523351	-1.398163	1.012084	3.137789	0.000000	0.167124	0.000000	0.000004	0.000000	0.000000	0.000000
18.161923	23.050277	11.670829	-0.722561	0.549775	3.203598	0.000000	0.072240	0.000000	0.000005	0.000000	0.000000	0.000000
18.710983	23.447116	11.301624	0.004080	0.126625	3.216881	0.000000	-0.023925	0.000000	0.000005	0.000000	0.000000	0.000000
19.009556	23.485076	11.216458	-0.069956	0.129090	3.212247	0.000000	-0.015520	0.000000	0.000005	0.000000	0.000000	0.000000
19.342889	23.536467	11.140469	-0.084219	0.098877	3.207074	0.000000	-0.015520	0.000000	0.000005	0.000000	0.000000	0.000000
19.676223	23.597368	11.084622	-0.098482	0.068664	3.201901	0.000000	-0.015520	0.000000	0.000005	0.000000	0.000000	0.000000
20.010806	23.668352	11.048684	-0.230065	0.093079	3.196728	0.000000	0.000318	0.000000	0.000005	0.000000	0.000000	0.000000
20.308129	23.809092	11.001406	-0.305498	0.094679	3.196822	0.000000	0.008671	0.000000	0.000005	0.000000	0.000000	0.000000
20.857189	23.733926	11.119919	0.441586	-0.311801	3.175366	0.000000	-0.086712	0.000000	0.000005	0.000000	0.000000	0.000000
21.406249	22.850715	11.694300	1.157479	-0.740490	3.101884	0.000000	-0.180557	0.000000	0.000005	-0.000000	0.000000	0.000000
21.955309	21.221844	12.765459	1.791613	-1.221922	2.977681	0.000000	-0.271199	0.000000	0.000005	-0.000000	0.000000	0.000000
22.504369	18.962369	14.409693	2.299196	-1.790389	2.804959	0.000000	-0.357031	0.000000	0.000005	-0.000000	0.000000	0.000000
22.950329	17.181826	15.885776	1.707505	-1.505548	2.663029	0.000000	-0.279828	0.000000	0.000004	-0.000000	0.000000	0.000000
23.391289	15.905227	17.062595	1.198523	-1.153062	2.555957	0.000000	-0.206266	0.000000	0.000004	-0.000000	0.000000	0.000000
23.832249	15.051758	17.904139	0.744298	-0.748113	2.480775	0.000000	-0.135054	0.000000	0.000004	-0.000000	0.000000	0.000000
24.273209	14.582428	18.372120	0.324077	-0.309125	2.436625	0.000000	-0.065380	0.000000	0.000004	-0.000000	0.000000	0.000000
24.715418	14.475909	18.444997	-0.045926	0.098628	2.423002	0.000000	-0.002392	0.000000	0.000004	0.000000	0.000000	0.000000
25.012741	14.509338	18.391188	-0.066509	0.082351	2.422291	0.000000	-0.002392	0.000000	0.000004	0.000000	0.000000	0.000000
25.346075	14.561369	18.342369	-0.089584	0.064104	2.421493	0.000000	-0.002392	0.000000	0.000004	0.000000	0.000000	0.000000
25.679408	14.628783	18.305716	-0.112659	0.045856	2.420696	0.000000	-0.002392	0.000000	0.000004	0.000000	0.000000	0.000000
26.013991	14.711622	18.281529	-0.016471	-0.120768	2.419871	0.000000	-0.022024	0.000000	0.000004	0.000000	0.000000	0.000000
26.311314	14.727427	18.358250	-0.000572	-0.182287	2.413323	0.000000	-0.027942	0.000000	0.000004	0.000000	0.000000	0.000000
26.752274	14.909402	18.319871	-0.413672	0.268990	2.416110	0.000000	0.040598	0.000000	0.000004	0.000000	0.000000	0.000000
27.193234	15.462623	17.887400	-0.845672	0.708027	2.449195	0.000000	0.109601	0.000000	0.000004	0.000000	0.000000	0.000000
27.634194	16.412368	17.080513	-1.316309	1.114851	2.512952	0.000000	0.179852	0.000000	0.000005	0.000000	0.000000	0.000000
28.075154	17.802025	15.935923	-1.847083	1.470949	2.608110	0.000000	0.252151	0.000000	0.000005	0.000000	0.000000	0.000000
28.521114	19.719234	14.488470	-2.467204	1.761034	2.737353	0.000000	0.327765	0.000000	0.000005	0.000001	0.000000	0.000000
29.070174	22.156014	12.875592	-1.944619	1.193831	2.894654	0.000000	0.244374	0.000000	0.000005	0.000000	0.000000	0.000000
29.619234	23.939649	11.835502	-1.284676	0.711661	3.004908	0.000000	0.156648	0.000000	0.000005	0.000000	0.000000	0.000000
30.168294	24.944152	11.294116	-0.533989	0.280182	3.066161	0.000000	0.066143	0.000000	0.000006	0.000000	0.000000	0.000000
30.717354	25.098569	11.212873	0.254415	-0.131341	3.077326	0.000000	-0.025535	0.000000	0.000006	-0.000000	0.000000	0.000000
31.015927	24.989482	11.281842	0.176520	-0.128950	3.072103	0.000000	-0.017494	0.000000	0.000006	-0.000000	0.000000	0.000000
31.349260	24.876386	11.377820	0.162766	-0.158987	3.066271	0.000000	-0.017494	0.000000	0.000006	-0.000000	0.000000	0.000000
31.682593	24.772461	11.493824	0.149011	-0.189024	3.060440	0.000000	-0.017494	0.000000	0.000006	-0.000000	0.000000	0.000000
32.017177	24.677367	11.630401	0.135205	-0.219174	3.054586	0.000000	-0.017494	0.000000	0.000006	-0.000000	0.000000	0.000000
32.314499	24.600615	11.768698	0.058662	-0.215219	3.049385	0.000000	-0.009527	0.000000	0.000005	-0.000000	0.000000	0.000000
32.863559	24.114765	12.244355	0.820976	-0.656208	3.019274	0.000000	-0.099993	0.000000	0.000005	-0.000000	0.000000	0.000000
33.412619	22.818848	13.226944	1.525299	-1.143938	2.939907	0.000000	-0.188685	0.000000	0.000005	-0.000000	0.000000	0.000000
33.961679	20.804402	14.786450	2.121883	-1.713148	2.812691	0.000000	-0.274030	0.000000	0.000005	-0.000001	0.000000	0.000000
34.510739	18.213716	17.033954	2.568588	-2.404381	2.639882	0.000000	-0.354514	0.000000	0.000005	-0.000001	0.000000	0.000000
34.956699	16.199461	19.044206	1.964268	-2.084491	2.498124	0.000000	-0.281591	0.000000	0.000004	-0.000001	0.000000	0.000000
35.397659	14.697533	20.706335	1.454694	-1.670507	2.389334	0.000000	-0.212303	0.000000	0.000004	-0.000000	0.000000	0.000000
35.838619	13.614114	21.968324	1.011582	-1.180515	2.310535	0.000000	-0.145433	0.000000	0.000004	-0.000000	0.000000	0.000000
36.279579	12.899705	22.772753	0.614686	-0.636811	2.260831	0.000000	-0.080219	0.000000	0.000004	-0.000000	0.000000	0.000000
36.721789	12.520976	23.083324	0.276471	-0.120792	2.239628	0.000000	-0.021411	0.000000	0.000004	-0.000000	0.000000	0.000000
37.019112	12.364174	23.159038	0.250910	-0.133861	2.233262	0.000000	-0.021411	0.000000	0.000004	-0.000000	0.000000	0.000000
37.352445	12.206453	23.253163	0.222253	-0.148512	2.226125	0.000000	-0.021411	0.000000	0.000003	-0.000000	0.000000	0.000000
37.685779	12.067836	23.357054	0.193596	-0.163163	2.218988	0.000000	-0.021411	0.000000	0.000003	-0.000000	0.000000	0.000000
38.020362	11.947912	23.471158	0.164832	-0.177869	2.211824	0.000000	-0.021411	0.000000	0.000003	-0.000000	0.000000	0.000000
38.317684	11.857496	23.580812	0.168348	-0.248763	2.205458	0.000000	-0.026819	0.000000	0.000003	-0.000000	0.000000	0.000000
38.758644	11.860259	23.539030	-0.174638	0.343155	2.207558	0.000000	0.036353	0.000000	0.000003	-0.000000	0.000000	0.000000
39.199604	12.167871	22.980140	-0.525603	0.919460	2.237580	0.000000	0.099940	0.000000	0.000003	-0.000000	0.000000	0.000000
39.640564	12.794385	21.929572	-0.900582	1.453930	2.295864	0.000000	0.164665	0.000000	0.000003	0.000000	0.000000	0.000000
40.081524	13.768424	20.435126	-1.316705	1.922248	2.383076	0.000000	0.231265	0.000000	0.000003	0.000000	0.000000	0.000000
40.527484	15.152057	18.542229	-1.796810	2.304384	2.501680	0.000000	0.300905	0.000000	0.000003	0.000000	0.000000	0.000000
41.076544	16.917935	16.415171	-1.400336	1.592482	2.646366	0.000000	0.225354	0.000000	0.000003	0.000000	0.000000	0.000000
41.625604	18.191213	15.003366	-0.904951	0.994009	2.748411	0.000000	0.145805	0.000000	0.000003	-0.000000	0.000000	0.000000
42.174664	18.881953	14.206253	-0.345644	0.466338	2.806003	0.000000	0.063671	0.000000	0.000003	-0.000000	0.000000	0.000000
42.723724	18.941365	13.967056	0.238078	-0.028118	2.818122	0.000000	-0.019593	0.000000	0.000003	-0.000000	0.000000	0.000000
43.022297	18.833624	13.968438	0.172265	-0.013004	2.814471	0.000000	-0.012230	0.000000	0.000003	-0.000000	0.000000	0.000000
43.502297	18.680845	13.997419	0.146023	-0.047373	2.808600	0.000000	-0.012230	0.000000	0.000003	-0.000000	0.000000	0.000000
43.982297	18.553260	14.059394	0.119780	-0.081742	2.802730	0.000000	-0.012230	0.000000	0.000003	-0.000000	0.000000	0.000000
44.462297	18.450867	14.154363	0.093538	-0.116111	2.796860	0.000000	-0.012230	0.000000	0.000003	-0.000000	0.000000	0.000000
44.942297	18.373668	14.282326	0.067295	-0.150480	2.790990	0.000000	-0.012230	0.000000	0.000003	-0.000000	0.000000	0.000000
45.423547	18.321786	14.443567	-0.049792	-0.113376	2.785122	0.000000	0.001569	0.000000	0.000003	-0.000000	0.000000	0.000000
45.720870	18.356231	14.517185	-0.114021	-0.096296	2.785588	0.000000	0.008847	0.000000	0.000003	-0.000000	0.000000	0.000000
46.269930	18.172351	14.903769	0.446938	-0.611945	2.767876	0.000000	-0.073272	0.000000	0.000002	-0.000000	0.000000	0.000000
46.818990	17.386240	15.877068	0.976327	-1.171182	2.705366	0.000000	-0.154091	0.000000	0.000002	-0.000000	0.000000	0.000000
47.368050	16.053423	17.506406	1.436754	-1.813839	2.599168	0.000000	-0.232177	0.000000	0.000002	-0.000000	0.000000	0.000000
47.917110	14.268046	19.907838	1.795695	-2.585693	2.451165	0.000000	-0.306145	0.000000	0.000002	-0.000000	0.000000	0.000000
48.363070	12.878564	22.043008	1.331051	-2.181986	2.329928	0.000000	-0.237850	0.000000	0.000002	-0.000000	0.000000	0.000000
48.804030	11.884866	23.752615	0.930986	-1.680270	2.239504	0.000000	-0.172662	0.000000	0.000001	-0.000000	0.000000	0.000000
49.244990	11.223975	24.984217	0.573455	-1.102104	2.177366	0.000000	-0.109439	0.000000	0.000001	-0.000000	0.000000	0.000000
49.685950	10.865696	25.681779	0.242124	-0.473793	2.142805	0.000000	-0.047463	0.000000	0.000001	-0.000000	0.000000	0.000000
50.128160	10.793791	25.813280	-0.051793	0.112725	2.135439	0.000000	0.008735	0.000000	0.000001	-0.000000	0.000000	0.000000
50.425482	10.832801	25.749717	-0.079412	0.101060	2.138036	0.000000	0.008735	0.000000	0.000001	-0.000000	0.000000	0.000000
50.758816	10.896065	25.686703	-0.110377	0.087983	2.140948	0.000000	0.008735	0.000000	0.000001	-0.000000	0.000000	0.000000
51.092149	10.979971	25.632407	-0.141342	0.074905	2.143860	0.000000	0.008735	0.000000	0.000001	-0.000000	0.000000	0.000000
51.426732	11.084727	25.587194	-0.082496	-0.145797	2.146761	0.000000	-0.008681	0.000000	0.000000	-0.000000	0.000000	0.000000
51.724055	11.141812	25.677419	-0.082179	-0.220632	2.144180	0.000000	-0.013939	0.000000	0.000000	-0.000000	0.000000	0.000000
52.165015	11.359733	25.586356	-0.413894	0.426357	2.151622	0.000000	0.047723	0.000000	0.000000	-0.000000	0.000000	0.000000
52.605975	11.877403	24.931107	-0.764519	1.053948	2.186348	0.000000	0.109928	0.000000	0.000000	-0.000000	0.000000	0.000000
53.046935	12.718470	23.741486	-1.150073	1.633585	2.248754	0.000000	0.173386	0.000000	-0.000000	-0.000000	0.000000	0.000000
53.487895	13.921363	22.071619	-1.588170	2.138895	2.339550	0.000000	0.238818	0.000000	-0.000000	-0.000000	0.000000	0.000000
53.933855	15.561652	19.972514	-2.103063	2.548222	2.461275	0.000000	0.307368	0.000000	-0.000000	-0.000000	0.000000	0.000000
54.482915	17.673428	17.610569	-1.720336	1.778970	2.609859	0.000000	0.233063	0.000000	-0.000001	-0.000000	0.000000	0.000000
55.031975	19.295304	16.019233	-1.216092	1.136430	2.716448	0.000000	0.154624	0.000000	-0.000001	-0.000000	0.000000	0.000000
55.581035	20.312719	15.085159	-0.625950	0.574835	2.779152	0.000000	0.073443	0.000000	-0.000001	-0.000000	0.000000	0.000000
56.130095	20.653807	14.741816	0.008406	0.054185	2.796858	0.000000	-0.009041	0.000000	-0.000001	-0.000000	0.000000	0.000000
56.428668	20.685338	14.692558	-0.060046	0.072275	2.796340	0.000000	-0.001734	0.000000	-0.000001	-0.000000	0.000000	0.000000
56.762001	20.730759	14.651977	-0.076218	0.049470	2.795763	0.000000	-0.001734	0.000000	-0.000001	-0.000000	0.000000	0.000000
57.095334	20.786962	14.626599	-0.092391	0.026664	2.795185	0.000000	-0.001734	0.000000	-0.000001	-0.000000	0.000000	0.000000
57.429918	20.854218	14.616415	-0.108624	0.003773	2.794605	0.000000	-0.001734	0.000000	-0.000001	-0.000000	0.000000	0.000000
57.727240	20.923100	14.620220	-0.177718	0.021631	2.794089	0.000000	0.005567	0.000000	-0.000001	-0.000000	0.000000	0.000000
58.276300	20.761251	14.877278	0.470748	-0.492573	2.774506	0.000000	-0.076797	0.000000	-0.000002	-0.000000	0.000000	0.000000
58.825360	19.901433	15.714832	1.085963	-1.041862	2.710007	0.000000	-0.157799	0.000000	-0.000002	-0.000000	0.000000	0.000000
59.374420	18.404380	17.192537	1.624471	-1.665360	2.601737	0.000000	-0.236002	0.000000	-0.000002	-0.000000	0.000000	0.000000
59.923480	16.375836	19.415647	2.048235	-2.407479	2.451617	0.000000	-0.310019	0.000000	-0.000002	-0.000000	0.000000	0.000000
60.369440	14.788030	21.391630	1.524797	-2.004672	2.328651	0.000000	-0.241735	0.000000	-0.000002	-0.000000	0.000000	0.000000
60.810400	13.645853	22.948277	1.075234	-1.512026	2.236504	0.000000	-0.176602	0.000000	-0.000002	-0.000000	0.000000	0.000000
61.251360	12.877077	24.038337	0.674795	-0.950584	2.172608	0.000000	-0.113479	0.000000	-0.000002	-0.000000	0.000000	0.000000
61.692320	12.446578	24.612214	0.305186	-0.345890	2.136235	0.000000	-0.051649	0.000000	-0.000002	-0.000000	0.000000	0.000000
62.134530	12.334738	24.643262	-0.020333	0.214053	2.126977	0.000000	0.004376	0.000000	-0.000002	-0.000000	0.000000	0.000000
62.431853	12.353998	24.519728	-0.044447	0.201435	2.128278	0.000000	0.004376	0.000000	-0.000002	-0.000000	0.000000	0.000000
62.765186	12.392642	24.390153	-0.071482	0.187289	2.129737	0.000000	0.004376	0.000000	-0.000002	-0.000000	0.000000	0.000000
63.098520	12.449308	24.270009	-0.098518	0.173143	2.131196	0.000000	0.004376	0.000000	-0.000002	-0.000000	0.000000	0.000000
63.433103	12.524312	24.158899	-0.125654	0.158943	2.132660	0.000000	0.004376	0.000000	-0.000002	-0.000000	0.000000	0.000000
63.730426	12.606202	24.068136	-0.118854	0.087302	2.133961	0.000000	-0.000857	0.000000	-0.000003	-0.000000	0.000000	0.000000
64.171386	12.871505	23.726067	-0.485078	0.685483	2.147124	0.000000	0.060615	0.000000	-0.000003	-0.000000	0.000000	0.000000
64.612346	13.468303	22.868240	-0.873464	1.252476	2.187520	0.000000	0.122777	0.000000	-0.000003	-0.000000	0.000000	0.000000
65.053306	14.423862	21.533686	-1.301756	1.762481	2.255610	0.000000	0.186338	0.000000	-0.000003	-0.000000	0.000000	0.000000
65.494266	15.781840	19.783126	-1.789521	2.192296	2.352167	0.000000	0.252021	0.000000	-0.000003	-0.000001	0.000000	0.000000
65.940226	17.627445	17.671430	-2.363738	2.523119	2.479866	0.000000	0.320977	0.000000	-0.000004	-0.000001	0.000000	0.000000
66.489286	19.993171	15.309031	-1.919440	1.804902	2.635734	0.000000	0.245951	0.000000	-0.000004	-0.000001	0.000000	0.000000
67.038346	21.793214	13.660521	-1.339562	1.215244	2.749149	0.000000	0.166563	0.000000	-0.000004	-0.000000	0.000000	0.000000
67.587406	22.900428	12.608478	-0.665064	0.712145	2.818099	0.000000	0.084221	0.000000	-0.000004	-0.000000	0.000000	0.000000
68.136466	23.236606	12.077969	0.056410	0.259771	2.841360	0.000000	0.000385	0.000000	-0.000004	-0.000000	0.000000	0.000000
68.435038	23.243013	11.912010	-0.017155	0.264511	2.843691	0.000000	0.007809	0.000000	-0.000004	-0.000000	0.000000	0.000000
68.768372	23.259231	11.745649	-0.031500	0.234571	2.846294	0.000000	0.007809	0.000000	-0.000004	-0.000000	0.000000	0.000000
69.101705	23.285013	11.599249	-0.045845	0.204630	2.848897	0.000000	0.007809	0.000000	-0.000005	-0.000000	0.000000	0.000000
69.436288	23.320509	11.472373	-0.060245	0.174577	2.851510	0.000000	0.007809	0.000000	-0.000005	-0.000000	0.000000	0.000000
69.733611	23.360138	11.376502	-0.134078	0.177596	2.853832	0.000000	0.015266	0.000000	-0.000005	-0.000000	0.000000	0.000000
70.282671	23.106182	11.409249	0.593869	-0.237590	2.839028	0.000000	-0.069112	0.000000	-0.000005	0.000000	0.000000	0.000000
