#ParticleID	Turn	x[m]	xp	y[m]	yp	z[m]	dE[GeV]# s	beta_x	beta_y	alpha_x	alpha_y	D_x	D_y	D_px	D_py	orbit_x	orbit_px	orbit_y	orbit_py
0.300000	11.822899	24.981340	-0.012154	-0.027591	2.618133	0.000000	0.000004	0.000000	-0.000000	0.000001	0.000000	0.000000
0.601250	11.837898	25.001599	-0.037638	-0.039659	2.618134	0.000000	0.000004	0.000000	0.000000	0.000001	0.000000	0.000000
0.898573	11.867758	25.028723	-0.033686	-0.112947	2.618135	0.000000	-0.006416	0.000000	0.000000	0.000001	0.000000	0.000000
1.339533	12.049708	24.850718	-0.380503	0.515088	2.631599	0.000000	0.067541	0.000000	0.000001	0.000001	0.000000	0.000000
1.780493	12.544004	24.127094	-0.744703	1.119687	2.677814	0.000000	0.142268	0.000000	0.000001	0.000001	0.000000	0.000000
2.221453	13.373228	22.890777	-1.142927	1.673341	2.757305	0.000000	0.218616	0.000000	0.000001	0.000001	0.000000	0.000000
2.662413	14.575265	21.198016	-1.593368	2.150859	2.870980	0.000000	0.297453	0.000000	0.000001	0.000001	0.000000	0.000000
3.108373	16.225809	19.101005	-2.120901	2.531646	3.021993	0.000000	0.380168	0.000000	0.000002	0.000001	0.000000	0.000000
3.657433	18.342330	16.745813	-1.711089	1.783174	3.205456	0.000000	0.287130	0.000000	0.000002	0.000001	0.000000	0.000000
4.206493	19.939394	15.138381	-1.180415	1.161713	3.336360	0.000000	0.188999	0.000000	0.000002	0.000001	0.000000	0.000000
4.755553	20.904191	14.164218	-0.566363	0.622998	3.412383	0.000000	0.087516	0.000000	0.000003	0.000000	0.000000	0.000000
5.304613	21.168574	13.753935	0.087695	0.128659	3.432177	0.000000	-0.015520	0.000000	0.000003	0.000000	0.000000	0.000000
5.603185	21.153449	13.662305	0.018268	0.142298	3.430221	0.000000	-0.006552	0.000000	0.000003	0.000000	0.000000	0.000000
5.936519	21.146525	13.575737	0.002505	0.117406	3.428036	0.000000	-0.006552	0.000000	0.000003	0.000000	0.000000	0.000000
6.269852	21.150110	13.505764	-0.013259	0.092514	3.425852	0.000000	-0.006552	0.000000	0.000003	0.000000	0.000000	0.000000
6.604435	21.164276	13.452216	-0.029081	0.067528	3.423660	0.000000	-0.006552	0.000000	0.000003	0.000000	0.000000	0.000000
6.901758	21.185749	13.418662	-0.098494	0.080385	3.421711	0.000000	0.002388	0.000000	0.000004	0.000000	0.000000	0.000000
7.450818	20.932799	13.591035	0.556464	-0.396180	3.394821	0.000000	-0.100194	0.000000	0.000004	0.000000	0.000000	0.000000
7.999878	19.978053	14.299066	1.172116	-0.900965	3.312013	0.000000	-0.200998	0.000000	0.000004	0.000000	0.000000	0.000000
8.548938	18.388951	15.593187	1.704975	-1.469923	3.174755	0.000000	-0.298237	0.000000	0.000004	0.000000	0.000000	0.000000
9.097998	16.277738	17.565575	2.117404	-2.143580	2.985484	0.000000	-0.390186	0.000000	0.000004	-0.000000	0.000000	0.000000
9.543958	14.630540	19.323107	1.589326	-1.780771	2.829783	0.000000	-0.308480	0.000000	0.000004	0.000000	0.000000	0.000000
9.984918	13.432376	20.703689	1.138154	-1.338170	2.711002	0.000000	-0.230770	0.000000	0.000004	0.000000	0.000000	0.000000
10.425878	12.607763	21.665490	0.738981	-0.834683	2.625877	0.000000	-0.155689	0.000000	0.000004	0.000000	0.000000	0.000000
10.866838	12.119027	22.164749	0.373569	-0.293218	2.573437	0.000000	-0.082381	0.000000	0.000004	0.000000	0.000000	0.000000
11.309048	11.943703	22.178232	0.054409	0.207142	2.553065	0.000000	-0.016272	0.000000	0.000004	0.000000	0.000000	0.000000
11.606371	11.918773	22.059213	0.029442	0.193161	2.548227	0.000000	-0.016272	0.000000	0.000004	0.000000	0.000000	0.000000
12.086371	11.909856	21.884614	-0.010866	0.170589	2.540416	0.000000	-0.016272	0.000000	0.000005	0.000000	0.000000	0.000000
12.566371	11.939635	21.731682	-0.051173	0.148018	2.532605	0.000000	-0.016272	0.000000	0.000005	0.000000	0.000000	0.000000
13.046371	12.008109	21.600420	-0.091481	0.125446	2.524794	0.000000	-0.016272	0.000000	0.000005	0.000000	0.000000	0.000000
13.526371	12.115279	21.490826	-0.131789	0.102875	2.516983	0.000000	-0.016272	0.000000	0.000005	0.000000	0.000000	0.000000
14.007621	12.261574	21.402700	-0.172201	0.080244	2.509152	0.000000	-0.016272	0.000000	0.000005	0.000000	0.000000	0.000000
14.304943	12.371396	21.359140	-0.166832	0.013887	2.504314	0.000000	-0.022413	0.000000	0.000006	0.000000	0.000000	0.000000
14.745903	12.677165	21.113100	-0.529217	0.541953	2.510062	0.000000	0.048511	0.000000	0.000006	0.000001	0.000000	0.000000
15.186863	13.311944	20.410485	-0.915782	1.045361	2.547177	0.000000	0.119987	0.000000	0.000006	0.000001	0.000000	0.000000
15.627823	14.304733	19.283261	-1.344185	1.501205	2.616081	0.000000	0.192831	0.000000	0.000006	0.000001	0.000000	0.000000
16.068783	15.700890	17.782718	-1.834001	1.888746	2.717559	0.000000	0.267870	0.000000	0.000007	0.000001	0.000000	0.000000
16.514743	17.587856	15.955626	-2.412365	2.191098	2.854462	0.000000	0.346422	0.000000	0.000007	0.000001	0.000000	0.000000
17.063803	20.011258	13.915433	-1.975236	1.546627	3.020937	0.000000	0.259088	0.000000	0.000008	0.000001	0.000000	0.000000
17.612863	21.874720	12.518662	-1.398586	1.012320	3.138127	0.000000	0.167158	0.000000	0.000008	0.000001	0.000000	0.000000
18.161923	23.046616	11.665824	-0.723147	0.550118	3.203951	0.000000	0.072263	0.000000	0.000009	0.000000	0.000000	0.000000
18.710983	23.444170	11.296173	0.003372	0.127099	3.217244	0.000000	-0.023914	0.000000	0.000009	0.000000	0.000000	0.000000
19.009556	23.482547	11.210739	-0.070657	0.129532	3.212614	0.000000	-0.015509	0.000000	0.000009	0.000000	0.000000	0.000000
19.342889	23.534407	11.134462	-0.084923	0.099300	3.207444	0.000000	-0.015509	0.000000	0.000009	0.000000	0.000000	0.000000
19.676223	23.595778	11.078339	-0.099189	0.069067	3.202274	0.000000	-0.015509	0.000000	0.000009	0.000000	0.000000	0.000000
20.010806	23.667236	11.042138	-0.230769	0.093431	3.197105	0.000000	0.000332	0.000000	0.000009	0.000000	0.000000	0.000000
20.308129	23.808396	10.994655	-0.306203	0.094995	3.197204	0.000000	0.008685	0.000000	0.000009	0.000000	0.000000	0.000000
20.857189	23.734013	11.112716	0.440874	-0.311288	3.175752	0.000000	-0.086711	0.000000	0.000009	-0.000000	0.000000	0.000000
21.406249	22.851566	11.686409	1.156809	-0.739743	3.102268	0.000000	-0.180568	0.000000	0.000009	-0.000000	0.000000	0.000000
21.955309	21.223386	12.756596	1.791032	-1.220888	2.978055	0.000000	-0.271222	0.000000	0.000009	-0.000001	0.000000	0.000000
22.504369	18.964479	14.399505	2.298747	-1.788995	2.805317	0.000000	-0.357066	0.000000	0.000008	-0.000001	0.000000	0.000000
22.950329	17.184335	15.874444	1.707056	-1.504387	2.663374	0.000000	-0.279854	0.000000	0.000008	-0.000001	0.000000	0.000000
23.391289	15.908140	17.050361	1.198052	-1.152187	2.556293	0.000000	-0.206284	0.000000	0.000008	-0.000001	0.000000	0.000000
23.832249	15.055104	17.891275	0.743784	-0.747563	2.481105	0.000000	-0.135063	0.000000	0.000008	-0.000000	0.000000	0.000000
24.273209	14.586253	18.358924	0.323498	-0.308926	2.436953	0.000000	-0.065380	0.000000	0.000008	-0.000000	0.000000	0.000000
24.715418	14.480285	18.431784	-0.046588	0.098501	2.423333	0.000000	-0.002385	0.000000	0.000008	0.000000	0.000000	0.000000
25.012741	14.514107	18.378053	-0.067166	0.082214	2.422624	0.000000	-0.002385	0.000000	0.000008	0.000000	0.000000	0.000000
25.346075	14.566574	18.329331	-0.090236	0.063954	2.421829	0.000000	-0.002385	0.000000	0.000008	0.000000	0.000000	0.000000
25.679408	14.634421	18.292781	-0.113305	0.045694	2.421034	0.000000	-0.002385	0.000000	0.000008	0.000000	0.000000	0.000000
26.013991	14.717690	18.268708	-0.017062	-0.120840	2.420211	0.000000	-0.022019	0.000000	0.000008	0.000000	0.000000	0.000000
26.311314	14.733844	18.345474	-0.001141	-0.182338	2.413665	0.000000	-0.027937	0.000000	0.000008	-0.000000	0.000000	0.000000
26.752274	14.916392	18.307293	-0.414408	0.268594	2.416456	0.000000	0.040612	0.000000	0.000008	0.000000	0.000000	0.000000
27.193234	15.470348	17.875316	-0.846608	0.707306	2.449549	0.000000	0.109623	0.000000	0.000008	0.000000	0.000000	0.000000
27.634194	16.421022	17.069198	-1.317488	1.113835	2.513318	0.000000	0.179883	0.000000	0.000008	0.000001	0.000000	0.000000
28.075154	17.811846	15.925617	-1.848559	1.469686	2.608491	0.000000	0.252192	0.000000	0.000008	0.000001	0.000000	0.000000
28.521114	19.730530	14.479381	-2.469048	1.759580	2.737755	0.000000	0.327817	0.000000	0.000009	0.000001	0.000000	0.000000
29.070174	22.169188	12.867904	-1.946175	1.192719	2.895080	0.000000	0.244412	0.000000	0.000009	0.000001	0.000000	0.000000
29.619234	23.954323	11.828884	-1.285834	0.710813	3.005352	0.000000	0.156672	0.000000	0.000010	0.000000	0.000000	0.000000
30.168294	24.959840	11.288313	-0.534668	0.279536	3.066614	0.000000	0.066153	0.000000	0.000010	0.000000	0.000000	0.000000
30.717354	25.114716	11.207690	0.254264	-0.131830	3.077780	0.000000	-0.025540	0.000000	0.000010	-0.000000	0.000000	0.000000
31.015927	25.005741	11.276963	0.176338	-0.129468	3.072555	0.000000	-0.017499	0.000000	0.000010	-0.000000	0.000000	0.000000
31.349260	24.892764	11.373294	0.162593	-0.159523	3.066722	0.000000	-0.017499	0.000000	0.000010	-0.000000	0.000000	0.000000
31.682593	24.788951	11.489660	0.148848	-0.189577	3.060889	0.000000	-0.017499	0.000000	0.000009	-0.000000	0.000000	0.000000
32.017177	24.693962	11.626612	0.135052	-0.219744	3.055035	0.000000	-0.017499	0.000000	0.000009	-0.000000	0.000000	0.000000
32.314499	24.617300	11.765252	0.058476	-0.215813	3.049832	0.000000	-0.009531	0.000000	0.000009	-0.000000	0.000000	0.000000
32.863559	24.131348	12.241524	0.821345	-0.656738	3.019715	0.000000	-0.100011	0.000000	0.000009	-0.000000	0.000000	0.000000
33.412619	22.834730	13.224677	1.526198	-1.144441	2.940335	0.000000	-0.188717	0.000000	0.000009	-0.000001	0.000000	0.000000
33.961679	20.819033	14.784737	2.123248	-1.713660	2.813097	0.000000	-0.274075	0.000000	0.000008	-0.000001	0.000000	0.000000
34.510739	18.226635	17.032826	2.570322	-2.404939	2.640261	0.000000	-0.354573	0.000000	0.000008	-0.000001	0.000000	0.000000
34.956699	16.211009	19.043621	1.965617	-2.085147	2.498479	0.000000	-0.281640	0.000000	0.000007	-0.000001	0.000000	0.000000
35.397659	14.708036	20.706359	1.455724	-1.671229	2.389669	0.000000	-0.212343	0.000000	0.000007	-0.000001	0.000000	0.000000
35.838619	13.623832	21.969002	1.012339	-1.181271	2.310855	0.000000	-0.145464	0.000000	0.000006	-0.000001	0.000000	0.000000
36.279579	12.908863	22.774101	0.615204	-0.637567	2.261139	0.000000	-0.080242	0.000000	0.000006	-0.000001	0.000000	0.000000
36.721789	12.529772	23.085327	0.276796	-0.121516	2.239928	0.000000	-0.021427	0.000000	0.000006	-0.000000	0.000000	0.000000
37.019112	12.372772	23.161472	0.251249	-0.134586	2.233557	0.000000	-0.021427	0.000000	0.000006	-0.000000	0.000000	0.000000
37.352445	12.214820	23.256080	0.222607	-0.149238	2.226415	0.000000	-0.021427	0.000000	0.000006	-0.000000	0.000000	0.000000
37.685779	12.075963	23.360456	0.193966	-0.163891	2.219273	0.000000	-0.021427	0.000000	0.000005	-0.000000	0.000000	0.000000
38.020362	11.955786	23.475047	0.165217	-0.178598	2.212104	0.000000	-0.021427	0.000000	0.000005	-0.000000	0.000000	0.000000
38.317684	11.865137	23.585136	0.168765	-0.249502	2.205733	0.000000	-0.026836	0.000000	0.000005	-0.000000	0.000000	0.000000
38.758644	11.867609	23.543953	-0.174391	0.342540	2.207827	0.000000	0.036344	0.000000	0.000005	-0.000000	0.000000	0.000000
39.199604	12.175073	22.985540	-0.525515	0.918998	2.237846	0.000000	0.099937	0.000000	0.000005	-0.000000	0.000000	0.000000
39.640564	12.801576	21.935304	-0.900647	1.453642	2.296131	0.000000	0.164669	0.000000	0.000005	-0.000000	0.000000	0.000000
40.081524	13.775743	20.441030	-1.316928	1.922146	2.383346	0.000000	0.231276	0.000000	0.000005	0.000000	0.000000	0.000000
40.527484	15.159649	18.548138	-1.797201	2.304475	2.501956	0.000000	0.300923	0.000000	0.000005	0.000000	0.000000	0.000000
41.076544	16.925804	16.421058	-1.400446	1.592431	2.646651	0.000000	0.225363	0.000000	0.000005	0.000000	0.000000	0.000000
41.625604	18.199043	15.009387	-0.904770	0.993813	2.748698	0.000000	0.145805	0.000000	0.000005	-0.000000	0.000000	0.000000
42.174664	18.889430	14.212575	-0.345186	0.465982	2.806287	0.000000	0.063662	0.000000	0.000005	-0.000000	0.000000	0.000000
42.723724	18.948201	13.973867	0.238780	-0.028658	2.818399	0.000000	-0.019611	0.000000	0.000005	-0.000000	0.000000	0.000000
43.022297	18.840050	13.975559	0.172952	-0.013516	2.814742	0.000000	-0.012248	0.000000	0.000005	-0.000000	0.000000	0.000000
43.502297	18.686611	14.005023	0.146713	-0.047868	2.808863	0.000000	-0.012248	0.000000	0.000004	-0.000000	0.000000	0.000000
43.982297	18.558362	14.067466	0.120473	-0.082220	2.802985	0.000000	-0.012248	0.000000	0.000004	-0.000000	0.000000	0.000000
44.462297	18.455304	14.162886	0.094233	-0.116572	2.797106	0.000000	-0.012248	0.000000	0.000004	-0.000000	0.000000	0.000000
44.942297	18.377435	14.291284	0.067993	-0.150924	2.791227	0.000000	-0.012248	0.000000	0.000004	-0.000000	0.000000	0.000000
45.423547	18.324879	14.452944	-0.049106	-0.113757	2.785351	0.000000	0.001553	0.000000	0.000003	-0.000000	0.000000	0.000000
45.720870	18.358916	14.526785	-0.113338	-0.096640	2.785812	0.000000	0.008831	0.000000	0.000003	-0.000000	0.000000	0.000000
46.269930	18.174242	14.913910	0.447692	-0.612592	2.768089	0.000000	-0.073295	0.000000	0.000003	-0.000001	0.000000	0.000000
46.818990	17.387288	15.888105	0.977099	-1.172177	2.705565	0.000000	-0.154121	0.000000	0.000003	-0.000001	0.000000	0.000000
47.368050	16.053640	17.518758	1.437488	-1.815254	2.599349	0.000000	-0.232213	0.000000	0.000002	-0.000001	0.000000	0.000000
47.917110	14.267500	19.922019	1.796341	-2.587627	2.451324	0.000000	-0.306187	0.000000	0.000002	-0.000001	0.000000	0.000000
48.363070	12.877467	22.058782	1.331647	-2.183610	2.330070	0.000000	-0.237888	0.000000	0.000002	-0.000001	0.000000	0.000000
48.804030	11.883254	23.769657	0.931562	-1.681511	2.239631	0.000000	-0.172696	0.000000	0.000001	-0.000001	0.000000	0.000000
49.244990	11.221855	25.002163	0.574036	-1.102905	2.177478	0.000000	-0.109470	0.000000	0.000001	-0.000001	0.000000	0.000000
49.685950	10.863052	25.700223	0.242737	-0.474117	2.142904	0.000000	-0.047492	0.000000	0.000001	-0.000001	0.000000	0.000000
50.128160	10.790579	25.831793	-0.051127	0.112846	2.135526	0.000000	0.008709	0.000000	0.000001	-0.000001	0.000000	0.000000
50.425482	10.829196	25.768156	-0.078753	0.101189	2.138116	0.000000	0.008709	0.000000	0.000000	-0.000001	0.000000	0.000000
50.758816	10.892022	25.705053	-0.109725	0.088121	2.141019	0.000000	0.008709	0.000000	0.000000	-0.000001	0.000000	0.000000
51.092149	10.975496	25.650661	-0.140697	0.075053	2.143922	0.000000	0.008709	0.000000	-0.000000	-0.000001	0.000000	0.000000
51.426732	11.079823	25.605347	-0.081898	-0.145788	2.146814	0.000000	-0.008707	0.000000	-0.000000	-0.000001	0.000000	0.000000
51.724055	11.136555	25.695564	-0.081603	-0.220660	2.144226	0.000000	-0.013966	0.000000	-0.000000	-0.000001	0.000000	0.000000
52.165015	11.353911	25.604314	-0.413183	0.426809	2.151656	0.000000	0.047697	0.000000	-0.000001	-0.000001	0.000000	0.000000
52.605975	11.870883	24.948462	-0.763641	1.054859	2.186371	0.000000	0.109903	0.000000	-0.000001	-0.000001	0.000000	0.000000
53.046935	12.711088	23.757849	-1.148988	1.634913	2.248766	0.000000	0.173361	0.000000	-0.000001	-0.000001	0.000000	0.000000
53.487895	13.912914	22.086649	-1.586829	2.140580	2.339551	0.000000	0.238793	0.000000	-0.000002	-0.000001	0.000000	0.000000
53.933855	15.551868	19.985909	-2.101401	2.550188	2.461266	0.000000	0.307344	0.000000	-0.000002	-0.000001	0.000000	0.000000
54.482915	17.661944	17.622094	-1.718920	1.780430	2.609837	0.000000	0.233039	0.000000	-0.000002	-0.000001	0.000000	0.000000
55.031975	19.282447	16.029383	-1.215023	1.137488	2.716413	0.000000	0.154601	0.000000	-0.000003	-0.000001	0.000000	0.000000
55.581035	20.298913	15.094333	-0.625303	0.575567	2.779104	0.000000	0.073421	0.000000	-0.000003	-0.000001	0.000000	0.000000
56.130095	20.639545	14.750341	0.008585	0.054642	2.796799	0.000000	-0.009061	0.000000	-0.000003	-0.000000	0.000000	0.000000
56.428668	20.670949	14.700793	-0.059840	0.072766	2.796276	0.000000	-0.001754	0.000000	-0.000003	-0.000000	0.000000	0.000000
56.762001	20.716237	14.659881	-0.076023	0.049971	2.795691	0.000000	-0.001754	0.000000	-0.000003	-0.000000	0.000000	0.000000
57.095334	20.772313	14.634165	-0.092206	0.027176	2.795107	0.000000	-0.001754	0.000000	-0.000004	-0.000000	0.000000	0.000000
57.429918	20.839450	14.623635	-0.108451	0.004296	2.794520	0.000000	-0.001754	0.000000	-0.000004	-0.000000	0.000000	0.000000
57.727240	20.908231	14.627125	-0.177517	0.022183	2.793999	0.000000	0.005547	0.000000	-0.000004	-0.000000	0.000000	0.000000
58.276300	20.746436	14.883683	0.470450	-0.492209	2.774405	0.000000	-0.076814	0.000000	-0.000004	-0.000000	0.000000	0.000000
58.825360	19.887212	15.720928	1.085186	-1.041661	2.709898	0.000000	-0.157813	0.000000	-0.000004	-0.000000	0.000000	0.000000
59.374420	18.391251	17.198494	1.623271	-1.665307	2.601622	0.000000	-0.236012	0.000000	-0.000004	-0.000000	0.000000	0.000000
59.923480	16.364221	19.421625	2.046695	-2.407570	2.451497	0.000000	-0.310025	0.000000	-0.000004	0.000000	0.000000	0.000000
60.369440	14.777632	21.397603	1.523597	-2.004570	2.328528	0.000000	-0.241745	0.000000	-0.000004	-0.000000	0.000000	0.000000
60.810400	13.636385	22.954076	1.074317	-1.511735	2.236376	0.000000	-0.176614	0.000000	-0.000004	-0.000000	0.000000	0.000000
61.251360	12.868308	24.043801	0.674119	-0.950117	2.172474	0.000000	-0.113495	0.000000	-0.000004	-0.000000	0.000000	0.000000
61.692320	12.438311	24.617197	0.304720	-0.345270	2.136093	0.000000	-0.051669	0.000000	-0.000004	-0.000000	0.000000	0.000000
62.134530	12.326799	24.647638	-0.020629	0.214786	2.126825	0.000000	0.004353	0.000000	-0.000005	-0.000000	0.000000	0.000000
62.431853	12.346240	24.523669	-0.044760	0.202167	2.128119	0.000000	0.004353	0.000000	-0.000005	-0.000000	0.000000	0.000000
62.765186	12.385098	24.393607	-0.071812	0.188019	2.129571	0.000000	0.004353	0.000000	-0.000005	-0.000000	0.000000	0.000000
63.098520	12.441990	24.272977	-0.098865	0.173871	2.131022	0.000000	0.004353	0.000000	-0.000005	-0.000000	0.000000	0.000000
63.433103	12.517233	24.161380	-0.126020	0.159670	2.132478	0.000000	0.004353	0.000000	-0.000005	-0.000000	0.000000	0.000000
63.730426	12.599344	24.070185	-0.119251	0.088020	2.133773	0.000000	-0.000880	0.000000	-0.000005	-0.000000	0.000000	0.000000
64.171386	12.864932	23.727464	-0.485329	0.686237	2.146925	0.000000	0.060587	0.000000	-0.000005	-0.000001	0.000000	0.000000
64.612346	13.461892	22.868970	-0.873580	1.253231	2.187307	0.000000	0.122744	0.000000	-0.000006	-0.000001	0.000000	0.000000
65.053306	14.417496	21.533762	-1.301742	1.763203	2.255381	0.000000	0.186299	0.000000	-0.000006	-0.000001	0.000000	0.000000
65.494266	15.775404	19.782592	-1.789377	2.192952	2.351920	0.000000	0.251976	0.000000	-0.000007	-0.000001	0.000000	0.000000
65.940226	17.620820	17.670352	-2.363457	2.523678	2.479598	0.000000	0.320925	0.000000	-0.000007	-0.000001	0.000000	0.000000
66.489286	19.986376	15.307369	-1.919415	1.805414	2.635441	0.000000	0.245909	0.000000	-0.000008	-0.000001	0.000000	0.000000
67.038346	21.786535	13.658306	-1.339796	1.215744	2.748835	0.000000	0.166531	0.000000	-0.000008	-0.000001	0.000000	0.000000
67.587406	22.894141	12.605705	-0.665541	0.712670	2.817769	0.000000	0.084199	0.000000	-0.000008	-0.000000	0.000000	0.000000
68.136466	23.230961	12.074589	0.055725	0.260357	2.841021	0.000000	0.000373	0.000000	-0.000009	-0.000000	0.000000	0.000000
68.435038	23.237770	11.908290	-0.017830	0.265074	2.843349	0.000000	0.007797	0.000000	-0.000009	-0.000000	0.000000	0.000000
68.768372	23.254440	11.741560	-0.032179	0.235115	2.845948	0.000000	0.007797	0.000000	-0.000009	-0.000000	0.000000	0.000000
69.101705	23.280676	11.594802	-0.046528	0.205157	2.848547	0.000000	0.007797	0.000000	-0.000009	-0.000000	0.000000	0.000000
69.436288	23.316630	11.467579	-0.060931	0.175086	2.851156	0.000000	0.007797	0.000000	-0.000009	-0.000000	0.000000	0.000000
69.733611	23.356668	11.371410	-0.134761	0.178078	2.853474	0.000000	0.015253	0.000000	-0.000009	-0.000000	0.000000	0.000000
70.282671	23.103519	11.403548	0.593091	-0.236956	2.838667	0.000000	-0.069113	0.000000	-0.000009	0.000000	0.000000	0.000000
