#ParticleID	Turn	x[m]	xp	y[m]	yp	z[m]	dE[GeV]# s	beta_x	beta_y	alpha_x	alpha_y	D_x	D_y	D_px	D_py	orbit_x	orbit_px	orbit_y	orbit_py
0.300000	11.832071	24.947260	-0.013393	-0.027766	2.618290	0.000000	-0.000057	0.000000	0.000001	0.000000	0.000000	0.000000
0.601250	11.847812	24.967630	-0.038858	-0.039850	2.618273	0.000000	-0.000057	0.000000	0.000001	0.000000	0.000000	0.000000
0.898573	11.878391	24.994873	-0.034862	-0.113072	2.618256	0.000000	-0.006478	0.000000	0.000001	0.000000	0.000000	0.000000
1.339533	12.061494	24.817372	-0.381951	0.514072	2.631694	0.000000	0.067483	0.000000	0.000001	0.000000	0.000000	0.000000
1.780493	12.557211	24.095022	-0.746490	1.117825	2.677883	0.000000	0.142212	0.000000	0.000001	0.000000	0.000000	0.000000
2.221453	13.388190	22.860689	-1.145135	1.670719	2.757351	0.000000	0.218561	0.000000	0.000001	0.000000	0.000000	0.000000
2.662413	14.592395	21.170533	-1.596097	2.147596	2.871001	0.000000	0.297399	0.000000	0.000002	0.000000	0.000000	0.000000
3.108373	16.245654	19.076667	-2.124282	2.527888	3.021991	0.000000	0.380114	0.000000	0.000002	0.000000	0.000000	0.000000
3.657433	18.365635	16.725063	-1.713971	1.780355	3.205424	0.000000	0.287077	0.000000	0.000002	0.000000	0.000000	0.000000
4.206493	19.965494	15.120306	-1.182594	1.159633	3.336300	0.000000	0.188947	0.000000	0.000002	0.000000	0.000000	0.000000
4.755553	20.932225	14.148092	-0.567685	0.621508	3.412296	0.000000	0.087466	0.000000	0.000002	0.000000	0.000000	0.000000
5.304613	21.197543	13.739172	0.087323	0.127652	3.432064	0.000000	-0.015566	0.000000	0.000002	0.000000	0.000000	0.000000
5.603185	21.182681	13.648171	0.017839	0.141237	3.430093	0.000000	-0.006599	0.000000	0.000002	0.000000	0.000000	0.000000
5.936519	21.176036	13.562317	0.002098	0.116326	3.427894	0.000000	-0.006599	0.000000	0.000002	0.000000	0.000000	0.000000
6.269852	21.179885	13.493070	-0.013644	0.091416	3.425694	0.000000	-0.006599	0.000000	0.000002	0.000000	0.000000	0.000000
6.604435	21.194301	13.440263	-0.029444	0.066412	3.423486	0.000000	-0.006599	0.000000	0.000002	0.000000	0.000000	0.000000
6.901758	21.215984	13.407378	-0.098917	0.079223	3.421525	0.000000	0.002341	0.000000	0.000002	0.000000	0.000000	0.000000
7.450818	20.962940	13.580857	0.557057	-0.397043	3.394610	0.000000	-0.100234	0.000000	0.000002	-0.000000	0.000000	0.000000
7.999878	20.007000	14.289700	1.173683	-0.901590	3.311782	0.000000	-0.201031	0.000000	0.000002	-0.000000	0.000000	0.000000
8.548938	18.415689	15.584397	1.707407	-1.470354	3.174509	0.000000	-0.298263	0.000000	0.000002	-0.000000	0.000000	0.000000
9.097998	16.301408	17.557167	2.120527	-2.143849	2.985226	0.000000	-0.390203	0.000000	0.000002	-0.000000	0.000000	0.000000
9.543958	14.651743	19.315078	1.591758	-1.781348	2.829516	0.000000	-0.308504	0.000000	0.000002	-0.000000	0.000000	0.000000
9.984918	13.451695	20.696294	1.140010	-1.339026	2.710723	0.000000	-0.230801	0.000000	0.000002	-0.000000	0.000000	0.000000
10.425878	12.625666	21.658959	0.740346	-0.835779	2.625583	0.000000	-0.155727	0.000000	0.000002	-0.000000	0.000000	0.000000
10.866838	12.135919	22.159272	0.374507	-0.294505	2.573124	0.000000	-0.082427	0.000000	0.000002	-0.000000	0.000000	0.000000
11.309048	11.959939	22.173956	0.055002	0.205733	2.552730	0.000000	-0.016326	0.000000	0.000002	-0.000000	0.000000	0.000000
11.606371	11.934646	22.055773	0.030067	0.191757	2.547876	0.000000	-0.016326	0.000000	0.000001	-0.000000	0.000000	0.000000
12.086371	11.925104	21.882517	-0.010189	0.169194	2.540039	0.000000	-0.016326	0.000000	0.000001	-0.000000	0.000000	0.000000
12.566371	11.954208	21.730921	-0.050444	0.146630	2.532203	0.000000	-0.016326	0.000000	0.000001	-0.000000	0.000000	0.000000
13.046371	12.021957	21.600987	-0.090699	0.124067	2.524366	0.000000	-0.016326	0.000000	0.000001	-0.000000	0.000000	0.000000
13.526371	12.128351	21.492712	-0.130955	0.101504	2.516530	0.000000	-0.016326	0.000000	0.000001	-0.000000	0.000000	0.000000
14.007621	12.273818	21.405902	-0.171315	0.078882	2.508673	0.000000	-0.016326	0.000000	0.000001	-0.000000	0.000000	0.000000
14.304943	12.383104	21.363150	-0.165883	0.012518	2.503819	0.000000	-0.022466	0.000000	0.000001	-0.000000	0.000000	0.000000
14.745903	12.688144	21.118262	-0.528506	0.540723	2.509541	0.000000	0.048445	0.000000	0.000001	0.000000	0.000000	0.000000
15.186863	13.322387	20.416649	-0.915274	1.044325	2.546624	0.000000	0.119908	0.000000	0.000001	0.000000	0.000000	0.000000
15.627823	14.314809	19.290236	-1.343858	1.500411	2.615490	0.000000	0.192736	0.000000	0.000001	0.000000	0.000000	0.000000
16.068783	15.710751	17.790273	-1.833840	1.888230	2.716924	0.000000	0.267759	0.000000	0.000002	0.000000	0.000000	0.000000
16.514743	17.597645	15.963506	-2.412362	2.190886	2.853774	0.000000	0.346295	0.000000	0.000002	0.000000	0.000000	0.000000
17.063803	20.020806	13.923617	-1.974803	1.546283	3.020186	0.000000	0.258984	0.000000	0.000002	0.000000	0.000000	0.000000
17.612863	21.883569	12.527308	-1.397754	1.011818	3.137325	0.000000	0.167079	0.000000	0.000002	0.000000	0.000000	0.000000
18.161923	23.054358	11.675123	-0.721974	0.549423	3.203114	0.000000	0.072210	0.000000	0.000002	0.000000	0.000000	0.000000
18.710983	23.450473	11.306363	0.004802	0.126162	3.216385	0.000000	-0.023939	0.000000	0.000002	-0.000000	0.000000	0.000000
19.009556	23.488007	11.221461	-0.069241	0.128655	3.211747	0.000000	-0.015535	0.000000	0.000002	-0.000000	0.000000	0.000000
19.342889	23.538921	11.145757	-0.083501	0.098459	3.206568	0.000000	-0.015535	0.000000	0.000002	-0.000000	0.000000	0.000000
19.676223	23.599341	11.090183	-0.097761	0.068262	3.201390	0.000000	-0.015535	0.000000	0.000002	-0.000000	0.000000	0.000000
20.010806	23.669842	11.054508	-0.229347	0.092723	3.196212	0.000000	0.000300	0.000000	0.000002	-0.000000	0.000000	0.000000
20.308129	23.810153	11.007437	-0.304780	0.094356	3.196301	0.000000	0.008652	0.000000	0.000002	-0.000000	0.000000	0.000000
20.857189	23.734184	11.126400	0.442324	-0.312301	3.174839	0.000000	-0.086714	0.000000	0.000002	-0.000000	0.000000	0.000000
21.406249	22.850176	11.701442	1.158184	-0.741203	3.101361	0.000000	-0.180542	0.000000	0.000002	-0.000000	0.000000	0.000000
21.955309	21.220572	12.773524	1.792235	-1.222899	2.977171	0.000000	-0.271167	0.000000	0.000001	-0.000000	0.000000	0.000000
22.504369	18.960479	14.419006	2.299693	-1.791699	2.804470	0.000000	-0.356983	0.000000	0.000001	-0.000000	0.000000	0.000000
22.950329	17.179499	15.896168	1.707994	-1.506647	2.662560	0.000000	-0.279792	0.000000	0.000001	-0.000000	0.000000	0.000000
23.391289	15.902464	17.073846	1.199026	-1.153902	2.555500	0.000000	-0.206243	0.000000	0.000001	-0.000000	0.000000	0.000000
23.832249	15.048536	17.916002	0.744839	-0.748655	2.480326	0.000000	-0.135042	0.000000	0.000001	-0.000000	0.000000	0.000000
24.273209	14.578703	18.384319	0.324681	-0.309345	2.436179	0.000000	-0.065380	0.000000	0.000001	-0.000000	0.000000	0.000000
24.715418	14.471612	18.457243	-0.045242	0.098709	2.422554	0.000000	-0.002403	0.000000	0.000001	-0.000000	0.000000	0.000000
25.012741	14.504636	18.403382	-0.065829	0.082444	2.421839	0.000000	-0.002403	0.000000	0.000001	-0.000000	0.000000	0.000000
25.346075	14.556215	18.354498	-0.088910	0.064208	2.421038	0.000000	-0.002403	0.000000	0.000001	-0.000000	0.000000	0.000000
25.679408	14.623182	18.317772	-0.111990	0.045972	2.420238	0.000000	-0.002403	0.000000	0.000001	-0.000000	0.000000	0.000000
26.013991	14.705575	18.293504	-0.015856	-0.120738	2.419409	0.000000	-0.022031	0.000000	0.000001	-0.000000	0.000000	0.000000
26.311314	14.721017	18.370203	0.000020	-0.182276	2.412859	0.000000	-0.027948	0.000000	0.000001	-0.000000	0.000000	0.000000
26.752274	14.902398	18.331672	-0.412913	0.269323	2.415642	0.000000	0.040581	0.000000	0.000001	-0.000000	0.000000	0.000000
27.193234	15.454865	17.898769	-0.844711	0.708669	2.448716	0.000000	0.109571	0.000000	0.000001	-0.000000	0.000000	0.000000
27.634194	16.403657	17.091190	-1.315102	1.115771	2.512458	0.000000	0.179809	0.000000	0.000001	-0.000000	0.000000	0.000000
28.075154	17.792122	15.945681	-1.845576	1.472106	2.607594	0.000000	0.252095	0.000000	0.000001	-0.000000	0.000000	0.000000
28.521114	19.707825	14.497109	-2.465324	1.762376	2.736810	0.000000	0.327696	0.000000	0.000001	0.000000	0.000000	0.000000
29.070174	22.142688	12.882942	-1.943028	1.194851	2.894077	0.000000	0.244323	0.000000	0.000001	-0.000000	0.000000	0.000000
29.619234	23.924787	11.841874	-1.283485	0.712433	3.004309	0.000000	0.156616	0.000000	0.000001	-0.000000	0.000000	0.000000
30.168294	24.928242	11.299752	-0.533285	0.280760	3.065550	0.000000	0.066131	0.000000	0.000001	-0.000000	0.000000	0.000000
30.717354	25.082176	11.217961	0.254585	-0.130916	3.076714	0.000000	-0.025527	0.000000	0.000001	-0.000000	0.000000	0.000000
31.015927	24.972967	11.286663	0.176721	-0.128496	3.071492	0.000000	-0.017488	0.000000	0.000001	-0.000000	0.000000	0.000000
31.349260	24.859741	11.382334	0.162956	-0.158517	3.065663	0.000000	-0.017488	0.000000	0.000001	-0.000000	0.000000	0.000000
31.682593	24.755692	11.498019	0.149192	-0.188538	3.059834	0.000000	-0.017488	0.000000	0.000001	-0.000000	0.000000	0.000000
32.017177	24.660480	11.634265	0.135376	-0.218671	3.053982	0.000000	-0.017488	0.000000	0.000001	-0.000000	0.000000	0.000000
32.314499	24.583630	11.772258	0.058866	-0.214691	3.048783	0.000000	-0.009522	0.000000	0.000001	-0.000000	0.000000	0.000000
32.863559	24.097868	12.247379	0.820613	-0.655752	3.018680	0.000000	-0.099968	0.000000	0.000000	-0.000000	0.000000	0.000000
33.412619	22.802651	13.229490	1.524396	-1.143521	2.939331	0.000000	-0.188641	0.000000	0.000000	-0.000000	0.000000	0.000000
33.961679	20.789465	14.788546	2.120503	-1.712740	2.812144	0.000000	-0.273968	0.000000	0.000000	-0.000000	0.000000	0.000000
34.510739	18.200514	17.035594	2.566828	-2.403954	2.639374	0.000000	-0.354436	0.000000	0.000000	-0.000000	0.000000	0.000000
34.956699	16.187648	19.045417	1.962900	-2.083961	2.497647	0.000000	-0.281525	0.000000	0.000000	-0.000000	0.000000	0.000000
35.397659	14.686778	20.707043	1.453653	-1.669899	2.388883	0.000000	-0.212249	0.000000	0.000000	-0.000000	0.000000	0.000000
35.838619	13.604152	21.968472	1.010819	-1.179858	2.310106	0.000000	-0.145390	0.000000	0.000000	-0.000000	0.000000	0.000000
36.279579	12.890306	22.772310	0.614166	-0.636134	2.260418	0.000000	-0.080187	0.000000	0.000000	-0.000000	0.000000	0.000000
36.721789	12.511938	23.082284	0.276151	-0.120125	2.239227	0.000000	-0.021389	0.000000	-0.000000	-0.000000	0.000000	0.000000
37.019112	12.355330	23.157601	0.250575	-0.133192	2.232867	0.000000	-0.021389	0.000000	-0.000000	-0.000000	0.000000	0.000000
37.352445	12.197838	23.251279	0.221902	-0.147841	2.225737	0.000000	-0.021389	0.000000	-0.000000	-0.000000	0.000000	0.000000
37.685779	12.059460	23.354723	0.193230	-0.162491	2.218608	0.000000	-0.021389	0.000000	-0.000000	-0.000000	0.000000	0.000000
38.020362	11.939787	23.468376	0.164449	-0.177195	2.211451	0.000000	-0.021389	0.000000	-0.000000	-0.000000	0.000000	0.000000
38.317684	11.849602	23.577630	0.167933	-0.248082	2.205092	0.000000	-0.026797	0.000000	-0.000000	-0.000000	0.000000	0.000000
38.758644	11.852653	23.535286	-0.174878	0.343743	2.207200	0.000000	0.036367	0.000000	-0.000000	-0.000000	0.000000	0.000000
39.199604	12.160404	22.975929	-0.525679	0.919927	2.237225	0.000000	0.099944	0.000000	-0.000000	-0.000000	0.000000	0.000000
39.640564	12.786913	21.925010	-0.900497	1.454256	2.295510	0.000000	0.164660	0.000000	-0.000000	-0.000000	0.000000	0.000000
40.081524	13.760805	20.430344	-1.316455	1.922417	2.382717	0.000000	0.231251	0.000000	-0.000000	-0.000000	0.000000	0.000000
40.527484	15.144136	18.537371	-1.796382	2.304387	2.501313	0.000000	0.300881	0.000000	-0.000001	-0.000000	0.000000	0.000000
41.076544	16.909704	16.410250	-1.400201	1.592594	2.645990	0.000000	0.225342	0.000000	-0.000001	-0.000000	0.000000	0.000000
41.625604	18.182999	14.998259	-0.905118	0.994238	2.748031	0.000000	0.145806	0.000000	-0.000001	-0.000000	0.000000	0.000000
42.174664	18.874084	14.200824	-0.346101	0.466699	2.805627	0.000000	0.063684	0.000000	-0.000001	-0.000000	0.000000	0.000000
42.723724	18.934143	13.961145	0.237363	-0.027598	2.817756	0.000000	-0.019568	0.000000	-0.000001	-0.000000	0.000000	0.000000
43.022297	18.826820	13.962228	0.171565	-0.012507	2.814112	0.000000	-0.012206	0.000000	-0.000001	-0.000000	0.000000	0.000000
43.502297	18.674715	13.990739	0.145319	-0.046891	2.808254	0.000000	-0.012206	0.000000	-0.000001	-0.000000	0.000000	0.000000
43.982297	18.547807	14.052258	0.119073	-0.081275	2.802395	0.000000	-0.012206	0.000000	-0.000001	-0.000000	0.000000	0.000000
44.462297	18.446094	14.146786	0.092827	-0.115659	2.796536	0.000000	-0.012206	0.000000	-0.000001	-0.000000	0.000000	0.000000
44.942297	18.369578	14.274323	0.066581	-0.150042	2.790678	0.000000	-0.012206	0.000000	-0.000001	-0.000000	0.000000	0.000000
45.423547	18.318384	14.435150	-0.050492	-0.112995	2.784821	0.000000	0.001592	0.000000	-0.000001	-0.000000	0.000000	0.000000
45.720870	18.353247	14.508544	-0.114719	-0.095947	2.785295	0.000000	0.008870	0.000000	-0.000001	-0.000000	0.000000	0.000000
46.269930	18.170183	14.894599	0.446160	-0.611322	2.767597	0.000000	-0.073240	0.000000	-0.000001	-0.000000	0.000000	0.000000
46.818990	17.384945	15.867043	0.975524	-1.170241	2.705107	0.000000	-0.154051	0.000000	-0.000001	-0.000000	0.000000	0.000000
47.368050	16.052999	17.495144	1.435982	-1.812513	2.598933	0.000000	-0.232129	0.000000	-0.000001	0.000000	0.000000	0.000000
47.917110	14.268428	19.894866	1.795009	-2.583886	2.450958	0.000000	-0.306090	0.000000	-0.000001	0.000000	0.000000	0.000000
48.363070	12.879532	22.028544	1.330420	-2.180461	2.329744	0.000000	-0.237800	0.000000	-0.000001	0.000000	0.000000	0.000000
48.804030	11.886377	23.736955	0.930381	-1.679095	2.239341	0.000000	-0.172616	0.000000	-0.000001	-0.000000	0.000000	0.000000
49.244990	11.226018	24.967694	0.572848	-1.101331	2.177222	0.000000	-0.109397	0.000000	-0.000001	-0.000000	0.000000	0.000000
49.685950	10.868287	25.664766	0.241486	-0.473458	2.142679	0.000000	-0.047425	0.000000	-0.000001	-0.000000	0.000000	0.000000
50.128160	10.796969	25.796171	-0.052481	0.112647	2.135329	0.000000	0.008771	0.000000	-0.000001	-0.000000	0.000000	0.000000
50.425482	10.836387	25.732657	-0.080094	0.100975	2.137937	0.000000	0.008771	0.000000	-0.000001	-0.000000	0.000000	0.000000
50.758816	10.900102	25.669702	-0.111052	0.087889	2.140860	0.000000	0.008771	0.000000	-0.000001	-0.000000	0.000000	0.000000
51.092149	10.984456	25.615471	-0.142010	0.074803	2.143784	0.000000	0.008771	0.000000	-0.000001	-0.000000	0.000000	0.000000
51.426732	11.089657	25.570329	-0.083117	-0.145770	2.146697	0.000000	-0.008645	0.000000	-0.000001	-0.000000	0.000000	0.000000
51.724055	11.147109	25.660541	-0.082777	-0.220573	2.144127	0.000000	-0.013903	0.000000	-0.000001	-0.000000	0.000000	0.000000
52.165015	11.365616	25.569623	-0.414629	0.425970	2.151584	0.000000	0.047758	0.000000	-0.000001	-0.000000	0.000000	0.000000
52.605975	11.884005	24.914907	-0.765424	1.053132	2.186325	0.000000	0.109962	0.000000	-0.000001	-0.000000	0.000000	0.000000
53.046935	12.725961	23.726181	-1.151189	1.632377	2.248746	0.000000	0.173419	0.000000	-0.000001	-0.000000	0.000000	0.000000
53.487895	13.929948	22.057532	-1.589548	2.137351	2.339557	0.000000	0.238851	0.000000	-0.000002	-0.000000	0.000000	0.000000
53.933855	15.571608	19.959931	-2.104769	2.546410	2.461298	0.000000	0.307403	0.000000	-0.000002	-0.000000	0.000000	0.000000
54.482915	17.685130	17.599706	-1.721792	1.777629	2.609900	0.000000	0.233097	0.000000	-0.000002	-0.000000	0.000000	0.000000
55.031975	19.308421	16.009628	-1.217197	1.135466	2.716507	0.000000	0.154656	0.000000	-0.000002	-0.000000	0.000000	0.000000
55.581035	20.326817	15.076439	-0.626624	0.574178	2.779227	0.000000	0.073472	0.000000	-0.000002	-0.000000	0.000000	0.000000
56.130095	20.668386	14.733671	0.008209	0.053788	2.796949	0.000000	-0.009015	0.000000	-0.000002	-0.000000	0.000000	0.000000
56.428668	20.700054	14.684665	-0.060270	0.071848	2.796439	0.000000	-0.001707	0.000000	-0.000002	-0.000000	0.000000	0.000000
56.762001	20.745621	14.644372	-0.076432	0.049032	2.795870	0.000000	-0.001707	0.000000	-0.000002	-0.000000	0.000000	0.000000
57.095334	20.801963	14.619290	-0.092593	0.026215	2.795301	0.000000	-0.001707	0.000000	-0.000002	-0.000000	0.000000	0.000000
57.429918	20.869351	14.609410	-0.108815	0.003313	2.794730	0.000000	-0.001707	0.000000	-0.000002	-0.000000	0.000000	0.000000
57.727240	20.938344	14.613491	-0.177940	0.021144	2.794223	0.000000	0.005594	0.000000	-0.000002	-0.000000	0.000000	0.000000
58.276300	20.776456	14.870979	0.471039	-0.492874	2.774653	0.000000	-0.076775	0.000000	-0.000002	0.000000	0.000000	0.000000
58.825360	19.916046	15.708772	1.086746	-1.041999	2.710165	0.000000	-0.157781	0.000000	-0.000002	0.000000	0.000000	0.000000
59.374420	18.417886	17.186542	1.625691	-1.665343	2.601904	0.000000	-0.235990	0.000000	-0.000002	0.000000	0.000000	0.000000
59.923480	16.387801	19.409550	2.049805	-2.407306	2.451789	0.000000	-0.310012	0.000000	-0.000002	0.000000	0.000000	0.000000
60.369440	14.798755	21.385464	1.526018	-2.004691	2.328827	0.000000	-0.241724	0.000000	-0.000002	0.000000	0.000000	0.000000
60.810400	13.655633	22.942211	1.076165	-1.512234	2.236686	0.000000	-0.176585	0.000000	-0.000002	0.000000	0.000000	0.000000
61.251360	12.886147	24.032535	0.675478	-0.950971	2.172798	0.000000	-0.113458	0.000000	-0.000002	0.000000	0.000000	0.000000
61.692320	12.455143	24.606827	0.305652	-0.346440	2.136436	0.000000	-0.051623	0.000000	-0.000002	0.000000	0.000000	0.000000
62.134530	12.342979	24.638424	-0.020042	0.213378	2.127190	0.000000	0.004407	0.000000	-0.000002	0.000000	0.000000	0.000000
62.431853	12.362061	24.515291	-0.044140	0.200761	2.128500	0.000000	0.004407	0.000000	-0.000002	0.000000	0.000000	0.000000
62.765186	12.400493	24.386165	-0.071157	0.186616	2.129969	0.000000	0.004407	0.000000	-0.000002	0.000000	0.000000	0.000000
63.098520	12.456937	24.266469	-0.098173	0.172471	2.131438	0.000000	0.004407	0.000000	-0.000002	0.000000	0.000000	0.000000
63.433103	12.531704	24.155808	-0.125291	0.158273	2.132913	0.000000	0.004407	0.000000	-0.000001	0.000000	0.000000	0.000000
63.730426	12.613373	24.065443	-0.118457	0.086640	2.134223	0.000000	-0.000827	0.000000	-0.000001	0.000000	0.000000	0.000000
64.171386	12.878395	23.723984	-0.484835	0.684767	2.147401	0.000000	0.060652	0.000000	-0.000001	-0.000000	0.000000	0.000000
64.612346	13.475043	22.866801	-0.873364	1.251738	2.187815	0.000000	0.122822	0.000000	-0.000002	-0.000000	0.000000	0.000000
65.053306	14.430576	21.532895	-1.301794	1.761756	2.255925	0.000000	0.186391	0.000000	-0.000002	-0.000000	0.000000	0.000000
65.494266	15.788648	19.782957	-1.789699	2.191615	2.352508	0.000000	0.252082	0.000000	-0.000002	-0.000000	0.000000	0.000000
65.940226	17.634478	17.671836	-2.364065	2.522516	2.480236	0.000000	0.321047	0.000000	-0.000002	-0.000000	0.000000	0.000000
66.489286	20.000416	15.310060	-1.919497	1.804365	2.636139	0.000000	0.246009	0.000000	-0.000002	-0.000000	0.000000	0.000000
67.038346	21.800372	13.662120	-1.339346	1.214735	2.749581	0.000000	0.166607	0.000000	-0.000002	-0.000000	0.000000	0.000000
67.587406	22.907204	12.610638	-0.664589	0.711628	2.818551	0.000000	0.084251	0.000000	-0.000002	-0.000000	0.000000	0.000000
68.136466	23.242733	12.080718	0.057110	0.259209	2.841824	0.000000	0.000400	0.000000	-0.000002	0.000000	0.000000	0.000000
68.435038	23.248730	11.915087	-0.016466	0.263970	2.844161	0.000000	0.007825	0.000000	-0.000002	0.000000	0.000000	0.000000
68.768372	23.264488	11.749082	-0.030807	0.234044	2.846769	0.000000	0.007825	0.000000	-0.000002	0.000000	0.000000	0.000000
69.101705	23.289806	11.603028	-0.045149	0.204119	2.849377	0.000000	0.007825	0.000000	-0.000002	0.000000	0.000000	0.000000
69.436288	23.324835	11.476488	-0.059544	0.174082	2.851995	0.000000	0.007825	0.000000	-0.000002	0.000000	0.000000	0.000000
69.733611	23.364046	11.380907	-0.133383	0.177127	2.854322	0.000000	0.015283	0.000000	-0.000002	0.000000	0.000000	0.000000
70.282671	23.109263	11.414239	0.594673	-0.238192	2.839523	0.000000	-0.069110	0.000000	-0.000002	0.000000	0.000000	0.000000
