#ParticleID	Turn	x[m]	xp	y[m]	yp	z[m]	dE[GeV]# s	beta_x	beta_y	alpha_x	alpha_y	D_x	D_y	D_px	D_py	orbit_x	orbit_px	orbit_y	orbit_py
0.300000	11.818447	24.999126	-0.011603	-0.027448	2.618102	0.000000	0.000016	0.000000	0.000000	0.000001	0.000000	0.000000
0.601250	11.833117	25.019297	-0.037096	-0.039508	2.618107	0.000000	0.000016	0.000000	0.000000	0.000001	0.000000	0.000000
0.898573	11.862657	25.046329	-0.033167	-0.112830	2.618112	0.000000	-0.006404	0.000000	0.000001	0.000001	0.000000	0.000000
1.339533	12.044095	24.868015	-0.379853	0.515667	2.631581	0.000000	0.067553	0.000000	0.000001	0.000001	0.000000	0.000000
1.780493	12.537750	24.143685	-0.743895	1.120702	2.677800	0.000000	0.142280	0.000000	0.000001	0.000001	0.000000	0.000000
2.221453	13.366177	22.906296	-1.141922	1.674746	2.757297	0.000000	0.218627	0.000000	0.000001	0.000001	0.000000	0.000000
2.662413	14.567225	21.212146	-1.592121	2.152591	2.870976	0.000000	0.297464	0.000000	0.000002	0.000001	0.000000	0.000000
3.108373	16.216527	19.113473	-2.119352	2.533626	3.021994	0.000000	0.380179	0.000000	0.000002	0.000001	0.000000	0.000000
3.657433	18.331469	16.756385	-1.709778	1.784666	3.205463	0.000000	0.287141	0.000000	0.000003	0.000001	0.000000	0.000000
4.206493	19.927266	15.147532	-1.179433	1.162825	3.336373	0.000000	0.189009	0.000000	0.000003	0.000001	0.000000	0.000000
4.755553	20.891198	14.172319	-0.565779	0.623809	3.412401	0.000000	0.087526	0.000000	0.000003	0.000001	0.000000	0.000000
5.304613	21.155180	13.761285	0.087838	0.129225	3.432200	0.000000	-0.015511	0.000000	0.000004	0.000000	0.000000	0.000000
5.603185	21.139952	13.669303	0.018437	0.142891	3.430247	0.000000	-0.006543	0.000000	0.000004	0.000000	0.000000	0.000000
5.936519	21.132918	13.582337	0.002664	0.118008	3.428065	0.000000	-0.006543	0.000000	0.000004	0.000000	0.000000	0.000000
6.269852	21.136400	13.511960	-0.013110	0.093124	3.425884	0.000000	-0.006543	0.000000	0.000004	0.000000	0.000000	0.000000
6.604435	21.150470	13.458001	-0.028942	0.068147	3.423695	0.000000	-0.006543	0.000000	0.000004	0.000000	0.000000	0.000000
6.901758	21.171864	13.424077	-0.098328	0.081026	3.421749	0.000000	0.002397	0.000000	0.000004	0.000000	0.000000	0.000000
7.450818	20.918987	13.595828	0.556164	-0.395681	3.394863	0.000000	-0.100186	0.000000	0.000005	0.000000	0.000000	0.000000
7.999878	19.964818	14.303372	1.171371	-0.900571	3.312059	0.000000	-0.200992	0.000000	0.000005	0.000000	0.000000	0.000000
8.548938	18.376754	15.597105	1.703839	-1.469607	3.174805	0.000000	-0.298232	0.000000	0.000005	0.000000	0.000000	0.000000
9.097998	16.266969	17.569178	2.115955	-2.143320	2.985536	0.000000	-0.390183	0.000000	0.000005	-0.000000	0.000000	0.000000
9.543958	14.620918	19.326413	1.588195	-1.780367	2.829837	0.000000	-0.308475	0.000000	0.000005	0.000000	0.000000	0.000000
9.984918	13.423632	20.706581	1.137286	-1.337641	2.711058	0.000000	-0.230764	0.000000	0.000005	0.000000	0.000000	0.000000
10.425878	12.599684	21.667870	0.738336	-0.834053	2.625936	0.000000	-0.155682	0.000000	0.000005	0.000000	0.000000	0.000000
10.866838	12.111429	22.166540	0.373119	-0.292517	2.573499	0.000000	-0.082372	0.000000	0.000005	0.000000	0.000000	0.000000
11.309048	11.936425	22.179383	0.054113	0.207881	2.553132	0.000000	-0.016262	0.000000	0.000005	0.000001	0.000000	0.000000
11.606371	11.911675	22.059925	0.029132	0.193896	2.548297	0.000000	-0.016262	0.000000	0.000005	0.000001	0.000000	0.000000
12.086371	11.903067	21.884622	-0.011199	0.171319	2.540491	0.000000	-0.016262	0.000000	0.000006	0.000001	0.000000	0.000000
12.566371	11.933177	21.730992	-0.051530	0.148742	2.532685	0.000000	-0.016262	0.000000	0.000006	0.000001	0.000000	0.000000
13.046371	12.002005	21.599036	-0.091861	0.126165	2.524879	0.000000	-0.016262	0.000000	0.000006	0.000001	0.000000	0.000000
13.526371	12.109550	21.488755	-0.132192	0.103588	2.517073	0.000000	-0.016262	0.000000	0.000006	0.000001	0.000000	0.000000
14.007621	12.256244	21.399944	-0.172627	0.080953	2.509247	0.000000	-0.016262	0.000000	0.000007	0.000001	0.000000	0.000000
14.304943	12.366324	21.355964	-0.167285	0.014600	2.504412	0.000000	-0.022403	0.000000	0.000007	0.000000	0.000000	0.000000
14.745903	12.672448	21.109338	-0.529570	0.542565	2.510166	0.000000	0.048524	0.000000	0.000007	0.000001	0.000000	0.000000
15.186863	13.307499	20.406238	-0.916050	1.045844	2.547287	0.000000	0.120003	0.000000	0.000007	0.000001	0.000000	0.000000
15.627823	14.300492	19.278654	-1.344381	1.501537	2.616199	0.000000	0.192849	0.000000	0.000008	0.000001	0.000000	0.000000
16.068783	15.696793	17.777890	-1.834133	1.888912	2.717686	0.000000	0.267892	0.000000	0.000008	0.000001	0.000000	0.000000
16.514743	17.583850	15.950728	-2.412439	2.191088	2.854599	0.000000	0.346448	0.000000	0.000009	0.000001	0.000000	0.000000
17.063803	20.007436	13.910492	-1.975494	1.546717	3.021087	0.000000	0.259109	0.000000	0.000010	0.000001	0.000000	0.000000
17.612863	21.871275	12.513566	-1.399011	1.012514	3.138286	0.000000	0.167173	0.000000	0.000010	0.000001	0.000000	0.000000
18.161923	23.043716	11.660450	-0.723708	0.550431	3.204118	0.000000	0.072273	0.000000	0.000011	0.000001	0.000000	0.000000
18.710983	23.441942	11.290380	0.002714	0.127554	3.217415	0.000000	-0.023909	0.000000	0.000011	0.000000	0.000000	0.000000
19.009556	23.480709	11.204688	-0.071310	0.129954	3.212786	0.000000	-0.015503	0.000000	0.000011	0.000000	0.000000	0.000000
19.342889	23.533005	11.128136	-0.085578	0.099702	3.207618	0.000000	-0.015503	0.000000	0.000011	0.000000	0.000000	0.000000
19.676223	23.594813	11.071752	-0.099846	0.069450	3.202450	0.000000	-0.015503	0.000000	0.000011	0.000000	0.000000	0.000000
20.010806	23.666712	11.035301	-0.231426	0.093761	3.197283	0.000000	0.000338	0.000000	0.000011	0.000000	0.000000	0.000000
20.308129	23.808264	10.987628	-0.306863	0.095287	3.197383	0.000000	0.008691	0.000000	0.000011	0.000000	0.000000	0.000000
20.857189	23.734605	11.105259	0.440223	-0.310792	3.175933	0.000000	-0.086710	0.000000	0.000011	-0.000000	0.000000	0.000000
21.406249	22.852845	11.678279	1.156214	-0.739007	3.102448	0.000000	-0.180573	0.000000	0.000011	-0.000000	0.000000	0.000000
21.955309	21.225268	12.747504	1.790535	-1.219861	2.978231	0.000000	-0.271233	0.000000	0.000011	-0.000001	0.000000	0.000000
22.504369	18.966837	14.389091	2.298383	-1.787602	2.805485	0.000000	-0.357083	0.000000	0.000010	-0.000001	0.000000	0.000000
22.950329	17.187022	15.862891	1.706679	-1.503236	2.663536	0.000000	-0.279866	0.000000	0.000010	-0.000001	0.000000	0.000000
23.391289	15.911170	17.037919	1.197647	-1.151328	2.556450	0.000000	-0.206292	0.000000	0.000009	-0.000001	0.000000	0.000000
23.832249	15.058511	17.878220	0.743331	-0.747037	2.481259	0.000000	-0.135067	0.000000	0.000009	-0.000000	0.000000	0.000000
24.273209	14.590090	18.345561	0.322976	-0.308756	2.437107	0.000000	-0.065380	0.000000	0.000009	-0.000000	0.000000	0.000000
24.715418	14.484623	18.418432	-0.047193	0.098341	2.423487	0.000000	-0.002381	0.000000	0.000009	0.000000	0.000000	0.000000
25.012741	14.518802	18.364800	-0.067766	0.082042	2.422779	0.000000	-0.002381	0.000000	0.000009	0.000000	0.000000	0.000000
25.346075	14.571667	18.316196	-0.090830	0.063769	2.421985	0.000000	-0.002381	0.000000	0.000009	0.000000	0.000000	0.000000
25.679408	14.639909	18.279774	-0.113894	0.045497	2.421192	0.000000	-0.002381	0.000000	0.000009	0.000000	0.000000	0.000000
26.013991	14.723570	18.255836	-0.017597	-0.120945	2.420371	0.000000	-0.022017	0.000000	0.000009	-0.000000	0.000000	0.000000
26.311314	14.740040	18.332668	-0.001653	-0.182423	2.413824	0.000000	-0.027936	0.000000	0.000009	-0.000000	0.000000	0.000000
26.752274	14.923109	18.294715	-0.415081	0.268164	2.416618	0.000000	0.040618	0.000000	0.000009	0.000000	0.000000	0.000000
27.193234	15.477740	17.863264	-0.847472	0.706550	2.449714	0.000000	0.109633	0.000000	0.000009	0.000000	0.000000	0.000000
27.634194	16.429274	17.057944	-1.318582	1.112788	2.513489	0.000000	0.179898	0.000000	0.000010	0.000001	0.000000	0.000000
28.075154	17.821182	15.915398	-1.849934	1.468395	2.608669	0.000000	0.252211	0.000000	0.000010	0.000001	0.000000	0.000000
28.521114	19.741242	14.470400	-2.470769	1.758104	2.737943	0.000000	0.327841	0.000000	0.000010	0.000001	0.000000	0.000000
29.070174	22.181650	12.860347	-1.947620	1.191585	2.895279	0.000000	0.244429	0.000000	0.000011	0.000001	0.000000	0.000000
29.619234	23.968173	11.822422	-1.286902	0.709941	3.005558	0.000000	0.156683	0.000000	0.000011	0.000000	0.000000	0.000000
30.168294	24.974619	11.282695	-0.535283	0.278863	3.066825	0.000000	0.066157	0.000000	0.000012	0.000000	0.000000	0.000000
30.717354	25.129900	11.202723	0.254146	-0.132351	3.077991	0.000000	-0.025542	0.000000	0.000011	-0.000000	0.000000	0.000000
31.015927	25.021016	11.272320	0.176189	-0.130018	3.072766	0.000000	-0.017501	0.000000	0.000011	-0.000000	0.000000	0.000000
31.349260	24.908135	11.369023	0.162453	-0.160089	3.066932	0.000000	-0.017501	0.000000	0.000011	-0.000000	0.000000	0.000000
31.682593	24.804412	11.485772	0.148718	-0.190160	3.061099	0.000000	-0.017501	0.000000	0.000011	-0.000000	0.000000	0.000000
32.017177	24.709508	11.623120	0.134930	-0.220343	3.055243	0.000000	-0.017501	0.000000	0.000011	-0.000000	0.000000	0.000000
32.314499	24.632915	11.762121	0.058323	-0.216436	3.050040	0.000000	-0.009533	0.000000	0.000011	-0.000000	0.000000	0.000000
32.863559	24.146846	12.239044	0.821711	-0.657307	3.019920	0.000000	-0.100019	0.000000	0.000011	-0.000001	0.000000	0.000000
33.412619	22.849551	13.222810	1.527057	-1.144996	2.940533	0.000000	-0.188732	0.000000	0.000011	-0.000001	0.000000	0.000000
33.961679	20.832666	14.783491	2.124539	-1.714241	2.813286	0.000000	-0.274097	0.000000	0.000010	-0.000001	0.000000	0.000000
34.510739	18.238652	17.032250	2.571955	-2.405588	2.640436	0.000000	-0.354600	0.000000	0.000009	-0.000002	0.000000	0.000000
34.956699	16.221735	19.043665	1.966890	-2.085882	2.498643	0.000000	-0.281663	0.000000	0.000009	-0.000001	0.000000	0.000000
35.397659	14.717774	20.707078	1.456698	-1.672017	2.389825	0.000000	-0.212361	0.000000	0.000008	-0.000001	0.000000	0.000000
35.838619	13.632826	21.970426	1.013059	-1.182075	2.311004	0.000000	-0.145479	0.000000	0.000008	-0.000001	0.000000	0.000000
36.279579	12.917321	22.776228	0.615703	-0.638351	2.261282	0.000000	-0.080253	0.000000	0.000007	-0.000001	0.000000	0.000000
36.721789	12.537878	23.088125	0.277116	-0.122251	2.240066	0.000000	-0.021435	0.000000	0.000007	-0.000001	0.000000	0.000000
37.019112	12.380685	23.164707	0.251581	-0.135321	2.233693	0.000000	-0.021435	0.000000	0.000007	-0.000001	0.000000	0.000000
37.352445	12.222507	23.259806	0.222953	-0.149975	2.226549	0.000000	-0.021435	0.000000	0.000007	-0.000001	0.000000	0.000000
37.685779	12.083414	23.364673	0.194325	-0.164628	2.219404	0.000000	-0.021435	0.000000	0.000006	-0.000001	0.000000	0.000000
38.020362	11.962993	23.479758	0.165590	-0.179336	2.212232	0.000000	-0.021435	0.000000	0.000006	-0.000001	0.000000	0.000000
38.317684	11.872117	23.590285	0.169167	-0.250253	2.205860	0.000000	-0.026844	0.000000	0.000006	-0.000001	0.000000	0.000000
38.758644	11.874303	23.549702	-0.174143	0.341936	2.207951	0.000000	0.036339	0.000000	0.000006	-0.000000	0.000000	0.000000
39.199604	12.181613	22.991747	-0.525410	0.918568	2.237969	0.000000	0.099936	0.000000	0.000006	-0.000000	0.000000	0.000000
39.640564	12.808086	21.941806	-0.900682	1.453406	2.296254	0.000000	0.164671	0.000000	0.000006	-0.000000	0.000000	0.000000
40.081524	13.782344	20.447650	-1.317103	1.922115	2.383470	0.000000	0.231281	0.000000	0.000006	0.000000	0.000000	0.000000
40.527484	15.166470	18.554693	-1.797524	2.304651	2.502084	0.000000	0.300931	0.000000	0.000006	0.000000	0.000000	0.000000
41.076544	16.932841	16.427511	-1.400513	1.592442	2.646781	0.000000	0.225367	0.000000	0.000006	0.000000	0.000000	0.000000
41.625604	18.206011	15.015918	-0.904577	0.993660	2.748829	0.000000	0.145805	0.000000	0.000006	-0.000000	0.000000	0.000000
42.174664	18.896048	14.219369	-0.344745	0.465653	2.806418	0.000000	0.063657	0.000000	0.000006	-0.000000	0.000000	0.000000
42.723724	18.954213	13.981129	0.239437	-0.029186	2.818525	0.000000	-0.019620	0.000000	0.000005	-0.000001	0.000000	0.000000
43.022297	18.845679	13.983120	0.173595	-0.014014	2.814866	0.000000	-0.012256	0.000000	0.000005	-0.000001	0.000000	0.000000
43.502297	18.691622	14.013053	0.147357	-0.048347	2.808983	0.000000	-0.012256	0.000000	0.000005	-0.000001	0.000000	0.000000
43.982297	18.562753	14.075947	0.121120	-0.082681	2.803101	0.000000	-0.012256	0.000000	0.000005	-0.000001	0.000000	0.000000
44.462297	18.459072	14.171801	0.094882	-0.117015	2.797218	0.000000	-0.012256	0.000000	0.000004	-0.000001	0.000000	0.000000
44.942297	18.380579	14.300616	0.068645	-0.151349	2.791336	0.000000	-0.012256	0.000000	0.000004	-0.000001	0.000000	0.000000
45.423547	18.327395	14.462676	-0.048465	-0.114115	2.785455	0.000000	0.001545	0.000000	0.000004	-0.000001	0.000000	0.000000
45.720870	18.361050	14.536726	-0.112699	-0.096960	2.785914	0.000000	0.008824	0.000000	0.000004	-0.000000	0.000000	0.000000
46.269930	18.175641	14.924372	0.448384	-0.613224	2.768186	0.000000	-0.073306	0.000000	0.000003	-0.000001	0.000000	0.000000
46.818990	17.387919	15.899451	0.977795	-1.173166	2.705655	0.000000	-0.154135	0.000000	0.000003	-0.000001	0.000000	0.000000
47.368050	16.053527	17.531417	1.438140	-1.816670	2.599431	0.000000	-0.232230	0.000000	0.000003	-0.000001	0.000000	0.000000
47.917110	14.266717	19.936512	1.796902	-2.589571	2.451396	0.000000	-0.306206	0.000000	0.000002	-0.000001	0.000000	0.000000
48.363070	12.876202	22.074873	1.332171	-2.185233	2.330134	0.000000	-0.237905	0.000000	0.000002	-0.000001	0.000000	0.000000
48.804030	11.881534	23.787010	0.932073	-1.682741	2.239687	0.000000	-0.172712	0.000000	0.000001	-0.000001	0.000000	0.000000
49.244990	11.219680	25.020407	0.574558	-1.103686	2.177528	0.000000	-0.109485	0.000000	0.000001	-0.000001	0.000000	0.000000
49.685950	10.860403	25.718944	0.243293	-0.474414	2.142948	0.000000	-0.047505	0.000000	0.000001	-0.000001	0.000000	0.000000
50.128160	10.787414	25.850556	-0.050519	0.113002	2.135564	0.000000	0.008697	0.000000	0.000000	-0.000001	0.000000	0.000000
50.425482	10.825671	25.786823	-0.078151	0.101353	2.138150	0.000000	0.008697	0.000000	0.000000	-0.000001	0.000000	0.000000
50.758816	10.888098	25.723607	-0.109130	0.088294	2.141050	0.000000	0.008697	0.000000	0.000000	-0.000001	0.000000	0.000000
51.092149	10.971177	25.669097	-0.140109	0.075235	2.143949	0.000000	0.008697	0.000000	-0.000000	-0.000001	0.000000	0.000000
51.426732	11.075113	25.623658	-0.081356	-0.145745	2.146837	0.000000	-0.008720	0.000000	-0.000000	-0.000001	0.000000	0.000000
51.724055	11.131526	25.713848	-0.081081	-0.220654	2.144244	0.000000	-0.013978	0.000000	-0.000001	-0.000001	0.000000	0.000000
52.165015	11.348368	25.622378	-0.412534	0.427298	2.151669	0.000000	0.047685	0.000000	-0.000001	-0.000001	0.000000	0.000000
52.605975	11.864700	24.965890	-0.762835	1.055807	2.186379	0.000000	0.109891	0.000000	-0.000001	-0.000001	0.000000	0.000000
53.046935	12.704111	23.774253	-1.147987	1.636279	2.248769	0.000000	0.173349	0.000000	-0.000002	-0.000001	0.000000	0.000000
53.487895	13.904952	22.101686	-1.585587	2.142301	2.339550	0.000000	0.238781	0.000000	-0.000002	-0.000001	0.000000	0.000000
53.933855	15.542670	19.999281	-2.099860	2.552186	2.461259	0.000000	0.307332	0.000000	-0.000002	-0.000001	0.000000	0.000000
54.482915	17.651173	17.633562	-1.717613	1.781919	2.609823	0.000000	0.233028	0.000000	-0.000003	-0.000001	0.000000	0.000000
55.031975	19.270414	16.039445	-1.214043	1.138575	2.716393	0.000000	0.154590	0.000000	-0.000003	-0.000001	0.000000	0.000000
55.581035	20.286017	15.103386	-0.624719	0.576328	2.779079	0.000000	0.073411	0.000000	-0.000004	-0.000001	0.000000	0.000000
56.130095	20.626245	14.758711	0.008732	0.055132	2.796769	0.000000	-0.009071	0.000000	-0.000004	-0.000000	0.000000	0.000000
56.428668	20.657544	14.708855	-0.059668	0.073288	2.796243	0.000000	-0.001763	0.000000	-0.000004	-0.000000	0.000000	0.000000
56.762001	20.702720	14.667591	-0.075861	0.050504	2.795655	0.000000	-0.001763	0.000000	-0.000004	-0.000000	0.000000	0.000000
57.095334	20.758693	14.641516	-0.092055	0.027720	2.795068	0.000000	-0.001763	0.000000	-0.000004	-0.000000	0.000000	0.000000
57.429918	20.825731	14.630619	-0.108309	0.004851	2.794478	0.000000	-0.001763	0.000000	-0.000005	-0.000000	0.000000	0.000000
57.727240	20.894431	14.633777	-0.177349	0.022765	2.793954	0.000000	0.005537	0.000000	-0.000005	-0.000001	0.000000	0.000000
58.276300	20.732706	14.889798	0.470154	-0.491808	2.774355	0.000000	-0.076822	0.000000	-0.000005	-0.000000	0.000000	0.000000
58.825360	19.874053	15.726687	1.084448	-1.041410	2.709844	0.000000	-0.157819	0.000000	-0.000005	-0.000000	0.000000	0.000000
59.374420	18.379123	17.204052	1.622142	-1.665191	2.601565	0.000000	-0.236017	0.000000	-0.000005	-0.000000	0.000000	0.000000
59.923480	16.353510	19.427125	2.045256	-2.407579	2.451439	0.000000	-0.310028	0.000000	-0.000005	0.000000	0.000000	0.000000
60.369440	14.768059	21.403028	1.522474	-2.004393	2.328468	0.000000	-0.241749	0.000000	-0.000005	0.000000	0.000000	0.000000
60.810400	13.627685	22.959266	1.073455	-1.511382	2.236314	0.000000	-0.176620	0.000000	-0.000005	-0.000000	0.000000	0.000000
61.251360	12.860268	24.048608	0.673479	-0.949605	2.172409	0.000000	-0.113502	0.000000	-0.000005	-0.000000	0.000000	0.000000
61.692320	12.430748	24.621490	0.304273	-0.344622	2.136024	0.000000	-0.051678	0.000000	-0.000005	-0.000000	0.000000	0.000000
62.134530	12.319554	24.651308	-0.020922	0.215532	2.126752	0.000000	0.004342	0.000000	-0.000006	-0.000001	0.000000	0.000000
62.431853	12.339173	24.526895	-0.045066	0.202911	2.128043	0.000000	0.004342	0.000000	-0.000006	-0.000001	0.000000	0.000000
62.765186	12.378241	24.396338	-0.072135	0.188761	2.129491	0.000000	0.004342	0.000000	-0.000006	-0.000001	0.000000	0.000000
63.098520	12.435354	24.275214	-0.099205	0.174611	2.130939	0.000000	0.004342	0.000000	-0.000006	-0.000001	0.000000	0.000000
63.433103	12.510829	24.163123	-0.126375	0.160408	2.132392	0.000000	0.004342	0.000000	-0.000006	-0.000001	0.000000	0.000000
63.730426	12.593156	24.071490	-0.119636	0.088752	2.133683	0.000000	-0.000890	0.000000	-0.000006	-0.000000	0.000000	0.000000
64.171386	12.859025	23.728114	-0.485582	0.686984	2.146830	0.000000	0.060574	0.000000	-0.000007	-0.000001	0.000000	0.000000
64.612346	13.456154	22.868966	-0.873713	1.253960	2.187206	0.000000	0.122729	0.000000	-0.000007	-0.000001	0.000000	0.000000
65.053306	14.411826	21.533137	-1.301762	1.763881	2.255273	0.000000	0.186281	0.000000	-0.000007	-0.000001	0.000000	0.000000
65.494266	15.769702	19.781404	-1.789285	2.193546	2.351804	0.000000	0.251955	0.000000	-0.000008	-0.000001	0.000000	0.000000
65.940226	17.614983	17.668681	-2.363246	2.524162	2.479471	0.000000	0.320901	0.000000	-0.000009	-0.000001	0.000000	0.000000
66.489286	19.980435	15.305184	-1.919436	1.805871	2.635302	0.000000	0.245889	0.000000	-0.000009	-0.000001	0.000000	0.000000
67.038346	21.780743	13.655620	-1.340046	1.216207	2.748686	0.000000	0.166515	0.000000	-0.000010	-0.000001	0.000000	0.000000
67.587406	22.888742	12.602492	-0.666002	0.713171	2.817614	0.000000	0.084188	0.000000	-0.000010	-0.000001	0.000000	0.000000
68.136466	23.226170	12.070789	0.055085	0.260933	2.840862	0.000000	0.000368	0.000000	-0.000010	-0.000000	0.000000	0.000000
68.435038	23.233356	11.904156	-0.018462	0.265623	2.843188	0.000000	0.007791	0.000000	-0.000010	-0.000000	0.000000	0.000000
68.768372	23.250448	11.737066	-0.032814	0.235646	2.845785	0.000000	0.007791	0.000000	-0.000010	-0.000000	0.000000	0.000000
69.101705	23.277108	11.589961	-0.047166	0.205669	2.848382	0.000000	0.007791	0.000000	-0.000011	-0.000000	0.000000	0.000000
69.436288	23.313490	11.462402	-0.061572	0.175580	2.850989	0.000000	0.007791	0.000000	-0.000011	-0.000000	0.000000	0.000000
69.733611	23.353909	11.365944	-0.135398	0.178541	2.853306	0.000000	0.015247	0.000000	-0.000011	-0.000000	0.000000	0.000000
70.282671	23.101504	11.397488	0.592382	-0.236331	2.838497	0.000000	-0.069113	0.000000	-0.000011	0.000000	0.000000	0.000000
