#ParticleID	Turn	x[m]	xp	y[m]	yp	z[m]	dE[GeV]# s	beta_x	beta_y	alpha_x	alpha_y	D_x	D_y	D_px	D_py	orbit_x	orbit_px	orbit_y	orbit_py
0.300000	11.827662	24.963101	-0.012783	-0.027702	2.618206	0.000000	-0.000023	0.000000	-0.000000	0.000000	0.000000	0.000000
0.601250	11.843038	24.983430	-0.038257	-0.039779	2.618199	0.000000	-0.000023	0.000000	-0.000000	0.000000	0.000000	0.000000
0.898573	11.873263	25.010629	-0.034282	-0.113032	2.618192	0.000000	-0.006444	0.000000	-0.000000	0.000000	0.000000	0.000000
1.339533	12.055799	24.832910	-0.381240	0.514526	2.631645	0.000000	0.067516	0.000000	-0.000000	0.000000	0.000000	0.000000
1.780493	12.550818	24.109982	-0.745615	1.118674	2.677848	0.000000	0.142244	0.000000	-0.000000	0.000000	0.000000	0.000000
2.221453	13.380938	22.874740	-1.144055	1.671924	2.757329	0.000000	0.218592	0.000000	0.000000	0.000000	0.000000	0.000000
2.662413	14.584083	21.183384	-1.594763	2.149102	2.870993	0.000000	0.297430	0.000000	0.000000	0.000000	0.000000	0.000000
3.108373	16.236015	19.088064	-2.122630	2.529628	3.021996	0.000000	0.380144	0.000000	0.000000	0.000000	0.000000	0.000000
3.657433	18.354305	16.734800	-1.712561	1.781657	3.205446	0.000000	0.287107	0.000000	0.000001	0.000000	0.000000	0.000000
4.206493	19.952794	15.128810	-1.181525	1.160590	3.336338	0.000000	0.188976	0.000000	0.000001	0.000000	0.000000	0.000000
4.755553	20.918574	14.155701	-0.567033	0.622189	3.412349	0.000000	0.087494	0.000000	0.000001	0.000000	0.000000	0.000000
5.304613	21.183428	13.746162	0.087513	0.128105	3.432131	0.000000	-0.015540	0.000000	0.000001	0.000000	0.000000	0.000000
5.603185	21.168433	13.654877	0.018055	0.141716	3.430169	0.000000	-0.006573	0.000000	0.000001	0.000000	0.000000	0.000000
5.936519	21.161647	13.568700	0.002304	0.116815	3.427978	0.000000	-0.006573	0.000000	0.000001	0.000000	0.000000	0.000000
6.269852	21.165362	13.499124	-0.013448	0.091913	3.425787	0.000000	-0.006573	0.000000	0.000001	0.000000	0.000000	0.000000
6.604435	21.179651	13.445982	-0.029259	0.066918	3.423587	0.000000	-0.006573	0.000000	0.000001	0.000000	0.000000	0.000000
6.901758	21.201227	13.412794	-0.098704	0.079751	3.421633	0.000000	0.002367	0.000000	0.000001	0.000000	0.000000	0.000000
7.450818	20.948222	13.585774	0.556774	-0.396659	3.394732	0.000000	-0.100212	0.000000	0.000001	0.000000	0.000000	0.000000
7.999878	19.992858	14.294262	1.172924	-0.901323	3.311915	0.000000	-0.201013	0.000000	0.000002	0.000000	0.000000	0.000000
8.548938	18.402619	15.588721	1.706225	-1.470185	3.174650	0.000000	-0.298249	0.000000	0.000002	0.000000	0.000000	0.000000
9.097998	16.289831	17.561353	2.119006	-2.143766	2.985373	0.000000	-0.390194	0.000000	0.000002	0.000000	0.000000	0.000000
9.543958	14.641367	19.319123	1.590575	-1.781116	2.829668	0.000000	-0.308491	0.000000	0.000002	0.000000	0.000000	0.000000
9.984918	13.442235	20.700073	1.139108	-1.338657	2.710882	0.000000	-0.230784	0.000000	0.000002	0.000000	0.000000	0.000000
10.425878	12.616894	21.662358	0.739684	-0.835289	2.625750	0.000000	-0.155706	0.000000	0.000002	0.000000	0.000000	0.000000
10.866838	12.127636	22.162195	0.374054	-0.293917	2.573301	0.000000	-0.082402	0.000000	0.000002	0.000000	0.000000	0.000000
11.309048	11.951972	22.176326	0.054718	0.206386	2.552920	0.000000	-0.016296	0.000000	0.000002	0.000000	0.000000	0.000000
11.606371	11.926852	22.057755	0.029767	0.192408	2.548074	0.000000	-0.016296	0.000000	0.000002	0.000000	0.000000	0.000000
12.086371	11.917610	21.883875	-0.010514	0.169842	2.540252	0.000000	-0.016296	0.000000	0.000002	0.000000	0.000000	0.000000
12.566371	11.947038	21.731659	-0.050795	0.147275	2.532430	0.000000	-0.016296	0.000000	0.000002	0.000000	0.000000	0.000000
13.046371	12.015136	21.601107	-0.091076	0.124708	2.524607	0.000000	-0.016296	0.000000	0.000002	0.000000	0.000000	0.000000
13.526371	12.121903	21.492220	-0.131356	0.102142	2.516785	0.000000	-0.016296	0.000000	0.000003	0.000000	0.000000	0.000000
14.007621	12.267770	21.404797	-0.171742	0.079516	2.508942	0.000000	-0.016296	0.000000	0.000003	0.000000	0.000000	0.000000
14.304943	12.377314	21.361669	-0.166341	0.013154	2.504097	0.000000	-0.022437	0.000000	0.000003	0.000000	0.000000	0.000000
14.745903	12.682705	21.116241	-0.528846	0.541305	2.509834	0.000000	0.048481	0.000000	0.000003	0.000000	0.000000	0.000000
15.186863	13.317203	20.414149	-0.915513	1.044826	2.546934	0.000000	0.119952	0.000000	0.000003	0.000000	0.000000	0.000000
15.627823	14.309795	19.287338	-1.344006	1.500809	2.615822	0.000000	0.192789	0.000000	0.000003	0.000000	0.000000	0.000000
16.068783	15.705830	17.787076	-1.833904	1.888506	2.717280	0.000000	0.267821	0.000000	0.000004	0.000001	0.000000	0.000000
16.514743	17.592743	15.960123	-2.412345	2.191027	2.854160	0.000000	0.346366	0.000000	0.000004	0.000001	0.000000	0.000000
17.063803	20.016003	13.920053	-1.974999	1.546475	3.020607	0.000000	0.259042	0.000000	0.000004	0.000001	0.000000	0.000000
17.612863	21.879092	12.523499	-1.398149	1.012075	3.137774	0.000000	0.167123	0.000000	0.000004	0.000000	0.000000	0.000000
18.161923	23.050412	11.670988	-0.722540	0.549763	3.203583	0.000000	0.072239	0.000000	0.000005	0.000000	0.000000	0.000000
18.710983	23.447225	11.301799	0.004104	0.126609	3.216866	0.000000	-0.023925	0.000000	0.000005	0.000000	0.000000	0.000000
19.009556	23.485171	11.216642	-0.069932	0.129075	3.212232	0.000000	-0.015521	0.000000	0.000005	0.000000	0.000000	0.000000
19.342889	23.536546	11.140663	-0.084195	0.098862	3.207058	0.000000	-0.015521	0.000000	0.000005	0.000000	0.000000	0.000000
19.676223	23.597430	11.084826	-0.098457	0.068650	3.201884	0.000000	-0.015521	0.000000	0.000005	0.000000	0.000000	0.000000
20.010806	23.668398	11.048897	-0.230040	0.093066	3.196711	0.000000	0.000318	0.000000	0.000005	0.000000	0.000000	0.000000
20.308129	23.809122	11.001626	-0.305473	0.094668	3.196806	0.000000	0.008670	0.000000	0.000005	0.000000	0.000000	0.000000
20.857189	23.733929	11.120155	0.441611	-0.311819	3.175349	0.000000	-0.086712	0.000000	0.000005	-0.000000	0.000000	0.000000
21.406249	22.850691	11.694559	1.157503	-0.740515	3.101868	0.000000	-0.180557	0.000000	0.000005	-0.000000	0.000000	0.000000
21.955309	21.221796	12.765751	1.791634	-1.221957	2.977665	0.000000	-0.271198	0.000000	0.000005	-0.000000	0.000000	0.000000
22.504369	18.962300	14.410030	2.299213	-1.790436	2.804943	0.000000	-0.357029	0.000000	0.000005	-0.000000	0.000000	0.000000
22.950329	17.181743	15.886152	1.707522	-1.505587	2.663015	0.000000	-0.279827	0.000000	0.000004	-0.000000	0.000000	0.000000
23.391289	15.905129	17.063001	1.198540	-1.153092	2.555943	0.000000	-0.206266	0.000000	0.000004	-0.000000	0.000000	0.000000
23.832249	15.051645	17.904567	0.744316	-0.748132	2.480760	0.000000	-0.135054	0.000000	0.000004	-0.000000	0.000000	0.000000
24.273209	14.582297	18.372559	0.324098	-0.309132	2.436611	0.000000	-0.065380	0.000000	0.000004	-0.000000	0.000000	0.000000
24.715418	14.475758	18.445437	-0.045903	0.098631	2.422988	0.000000	-0.002393	0.000000	0.000004	0.000000	0.000000	0.000000
25.012741	14.509174	18.391626	-0.066485	0.082355	2.422277	0.000000	-0.002393	0.000000	0.000004	0.000000	0.000000	0.000000
25.346075	14.561189	18.342805	-0.089561	0.064108	2.421479	0.000000	-0.002393	0.000000	0.000004	0.000000	0.000000	0.000000
25.679408	14.628588	18.306149	-0.112636	0.045861	2.420682	0.000000	-0.002393	0.000000	0.000004	0.000000	0.000000	0.000000
26.013991	14.711412	18.281959	-0.016450	-0.120767	2.419856	0.000000	-0.022024	0.000000	0.000004	0.000000	0.000000	0.000000
26.311314	14.727205	18.358678	-0.000552	-0.182286	2.413308	0.000000	-0.027942	0.000000	0.000004	0.000000	0.000000	0.000000
26.752274	14.909159	18.320294	-0.413646	0.269002	2.416096	0.000000	0.040598	0.000000	0.000004	0.000000	0.000000	0.000000
27.193234	15.462355	17.887807	-0.845639	0.708051	2.449180	0.000000	0.109600	0.000000	0.000004	0.000000	0.000000	0.000000
27.634194	16.412067	17.080894	-1.316267	1.114884	2.512937	0.000000	0.179850	0.000000	0.000004	0.000000	0.000000	0.000000
28.075154	17.801683	15.936271	-1.847032	1.470991	2.608093	0.000000	0.252149	0.000000	0.000005	0.000000	0.000000	0.000000
28.521114	19.718840	14.488777	-2.467139	1.761082	2.737336	0.000000	0.327763	0.000000	0.000005	0.000001	0.000000	0.000000
29.070174	22.155555	12.875853	-1.944564	1.193868	2.894636	0.000000	0.244372	0.000000	0.000005	0.000000	0.000000	0.000000
29.619234	23.939137	11.835728	-1.284635	0.711689	3.004890	0.000000	0.156647	0.000000	0.000005	0.000000	0.000000	0.000000
30.168294	24.943604	11.294315	-0.533965	0.280203	3.066142	0.000000	0.066143	0.000000	0.000005	0.000000	0.000000	0.000000
30.717354	25.098004	11.213051	0.254421	-0.131325	3.077307	0.000000	-0.025534	0.000000	0.000005	-0.000000	0.000000	0.000000
31.015927	24.988914	11.282010	0.176527	-0.128933	3.072083	0.000000	-0.017494	0.000000	0.000005	-0.000000	0.000000	0.000000
31.349260	24.875814	11.377978	0.162772	-0.158970	3.066252	0.000000	-0.017494	0.000000	0.000005	-0.000000	0.000000	0.000000
31.682593	24.771884	11.493970	0.149017	-0.189006	3.060421	0.000000	-0.017494	0.000000	0.000005	-0.000000	0.000000	0.000000
32.017177	24.676786	11.630534	0.135211	-0.219156	3.054567	0.000000	-0.017494	0.000000	0.000005	-0.000000	0.000000	0.000000
32.314499	24.600032	11.768820	0.058669	-0.215199	3.049366	0.000000	-0.009527	0.000000	0.000005	-0.000000	0.000000	0.000000
32.863559	24.114185	12.244458	0.820963	-0.656191	3.019256	0.000000	-0.099992	0.000000	0.000005	-0.000000	0.000000	0.000000
33.412619	22.818292	13.227028	1.525268	-1.143922	2.939889	0.000000	-0.188683	0.000000	0.000005	-0.000000	0.000000	0.000000
33.961679	20.803889	14.786517	2.121835	-1.713132	2.812674	0.000000	-0.274028	0.000000	0.000005	-0.000001	0.000000	0.000000
34.510739	18.213263	17.034004	2.568527	-2.404365	2.639867	0.000000	-0.354512	0.000000	0.000004	-0.000001	0.000000	0.000000
34.956699	16.199056	19.044239	1.964221	-2.084471	2.498109	0.000000	-0.281589	0.000000	0.000004	-0.000001	0.000000	0.000000
35.397659	14.697164	20.706349	1.454658	-1.670484	2.389320	0.000000	-0.212301	0.000000	0.000004	-0.000000	0.000000	0.000000
35.838619	13.613772	21.968317	1.011555	-1.180491	2.310522	0.000000	-0.145432	0.000000	0.000004	-0.000000	0.000000	0.000000
36.279579	12.899383	22.772725	0.614668	-0.636787	2.260818	0.000000	-0.080218	0.000000	0.000004	-0.000000	0.000000	0.000000
36.721789	12.520667	23.083274	0.276460	-0.120768	2.239616	0.000000	-0.021410	0.000000	0.000003	-0.000000	0.000000	0.000000
37.019112	12.363871	23.158974	0.250898	-0.133837	2.233250	0.000000	-0.021410	0.000000	0.000003	-0.000000	0.000000	0.000000
37.352445	12.206158	23.253082	0.222241	-0.148488	2.226113	0.000000	-0.021410	0.000000	0.000003	-0.000000	0.000000	0.000000
37.685779	12.067550	23.356958	0.193583	-0.163139	2.218976	0.000000	-0.021410	0.000000	0.000003	-0.000000	0.000000	0.000000
38.020362	11.947635	23.471045	0.164819	-0.177845	2.211813	0.000000	-0.021410	0.000000	0.000003	-0.000000	0.000000	0.000000
38.317684	11.857226	23.580685	0.168334	-0.248738	2.205447	0.000000	-0.026819	0.000000	0.000003	-0.000000	0.000000	0.000000
38.758644	11.860000	23.538883	-0.174647	0.343176	2.207547	0.000000	0.036354	0.000000	0.000003	-0.000000	0.000000	0.000000
39.199604	12.167616	22.979977	-0.525606	0.919476	2.237569	0.000000	0.099940	0.000000	0.000003	-0.000000	0.000000	0.000000
39.640564	12.794130	21.929396	-0.900579	1.453941	2.295853	0.000000	0.164665	0.000000	0.000003	0.000000	0.000000	0.000000
40.081524	13.768165	20.434943	-1.316697	1.922253	2.383065	0.000000	0.231265	0.000000	0.000003	0.000000	0.000000	0.000000
40.527484	15.151787	18.542045	-1.796795	2.304383	2.501669	0.000000	0.300904	0.000000	0.000003	0.000000	0.000000	0.000000
41.076544	16.917656	16.414986	-1.400332	1.592485	2.646355	0.000000	0.225353	0.000000	0.000003	0.000000	0.000000	0.000000
41.625604	18.190935	15.003175	-0.904957	0.994017	2.748399	0.000000	0.145805	0.000000	0.000003	-0.000000	0.000000	0.000000
42.174664	18.881687	14.206051	-0.345659	0.466350	2.805992	0.000000	0.063671	0.000000	0.000003	-0.000000	0.000000	0.000000
42.723724	18.941121	13.966837	0.238053	-0.028099	2.818111	0.000000	-0.019592	0.000000	0.000003	-0.000000	0.000000	0.000000
43.022297	18.833394	13.968209	0.172241	-0.012986	2.814460	0.000000	-0.012229	0.000000	0.000003	-0.000000	0.000000	0.000000
43.502297	18.680639	13.997173	0.145999	-0.047356	2.808590	0.000000	-0.012229	0.000000	0.000003	-0.000000	0.000000	0.000000
43.982297	18.553076	14.059132	0.119756	-0.081725	2.802720	0.000000	-0.012229	0.000000	0.000003	-0.000000	0.000000	0.000000
44.462297	18.450707	14.154085	0.093513	-0.116095	2.796850	0.000000	-0.012229	0.000000	0.000003	-0.000000	0.000000	0.000000
44.942297	18.373531	14.282034	0.067270	-0.150464	2.790980	0.000000	-0.012229	0.000000	0.000003	-0.000000	0.000000	0.000000
45.423547	18.321673	14.443260	-0.049816	-0.113363	2.785113	0.000000	0.001570	0.000000	0.000002	-0.000000	0.000000	0.000000
45.720870	18.356133	14.516870	-0.114045	-0.096284	2.785579	0.000000	0.008848	0.000000	0.000002	-0.000000	0.000000	0.000000
46.269930	18.172281	14.903436	0.446911	-0.611923	2.767868	0.000000	-0.073271	0.000000	0.000002	-0.000000	0.000000	0.000000
46.818990	17.386199	15.876704	0.976300	-1.171148	2.705358	0.000000	-0.154090	0.000000	0.000002	-0.000000	0.000000	0.000000
47.368050	16.053412	17.505998	1.436728	-1.813792	2.599161	0.000000	-0.232176	0.000000	0.000002	-0.000000	0.000000	0.000000
47.917110	14.268062	19.907369	1.795672	-2.585628	2.451158	0.000000	-0.306144	0.000000	0.000002	-0.000000	0.000000	0.000000
48.363070	12.878600	22.042486	1.331030	-2.181931	2.329922	0.000000	-0.237849	0.000000	0.000001	-0.000000	0.000000	0.000000
48.804030	11.884920	23.752049	0.930965	-1.680229	2.239499	0.000000	-0.172660	0.000000	0.000001	-0.000000	0.000000	0.000000
49.244990	11.224047	24.983621	0.573434	-1.102077	2.177362	0.000000	-0.109438	0.000000	0.000001	-0.000000	0.000000	0.000000
49.685950	10.865787	25.681166	0.242102	-0.473781	2.142801	0.000000	-0.047462	0.000000	0.000001	-0.000000	0.000000	0.000000
50.128160	10.793902	25.812664	-0.051816	0.112721	2.135436	0.000000	0.008736	0.000000	0.000001	-0.000000	0.000000	0.000000
50.425482	10.832926	25.749103	-0.079436	0.101056	2.138033	0.000000	0.008736	0.000000	0.000001	-0.000000	0.000000	0.000000
50.758816	10.896205	25.686091	-0.110400	0.087979	2.140945	0.000000	0.008736	0.000000	0.000001	-0.000000	0.000000	0.000000
51.092149	10.980127	25.631798	-0.141365	0.074901	2.143858	0.000000	0.008736	0.000000	0.000000	-0.000000	0.000000	0.000000
51.426732	11.084897	25.586587	-0.082517	-0.145796	2.146759	0.000000	-0.008680	0.000000	0.000000	-0.000000	0.000000	0.000000
51.724055	11.141995	25.676813	-0.082199	-0.220631	2.144179	0.000000	-0.013938	0.000000	0.000000	-0.000000	0.000000	0.000000
52.165015	11.359937	25.585756	-0.413919	0.426343	2.151621	0.000000	0.047724	0.000000	0.000000	-0.000000	0.000000	0.000000
52.605975	11.877631	24.930527	-0.764550	1.053918	2.186347	0.000000	0.109929	0.000000	-0.000000	-0.000000	0.000000	0.000000
53.046935	12.718729	23.740938	-1.150111	1.633541	2.248754	0.000000	0.173387	0.000000	-0.000000	-0.000000	0.000000	0.000000
53.487895	13.921659	22.071115	-1.588218	2.138839	2.339550	0.000000	0.238819	0.000000	-0.000000	-0.000000	0.000000	0.000000
53.933855	15.561995	19.972064	-2.103122	2.548156	2.461276	0.000000	0.307369	0.000000	-0.000001	-0.000000	0.000000	0.000000
54.482915	17.673831	17.610181	-1.720386	1.778921	2.609861	0.000000	0.233064	0.000000	-0.000001	-0.000000	0.000000	0.000000
55.031975	19.295755	16.018891	-1.216130	1.136395	2.716450	0.000000	0.154625	0.000000	-0.000001	-0.000000	0.000000	0.000000
55.581035	20.313203	15.084849	-0.625973	0.574811	2.779154	0.000000	0.073444	0.000000	-0.000001	-0.000000	0.000000	0.000000
56.130095	20.654308	14.741527	0.008399	0.054170	2.796861	0.000000	-0.009041	0.000000	-0.000001	-0.000000	0.000000	0.000000
56.428668	20.685843	14.692279	-0.060053	0.072259	2.796344	0.000000	-0.001733	0.000000	-0.000001	-0.000000	0.000000	0.000000
56.762001	20.731269	14.651708	-0.076225	0.049453	2.795766	0.000000	-0.001733	0.000000	-0.000001	-0.000000	0.000000	0.000000
57.095334	20.787477	14.626341	-0.092397	0.026647	2.795189	0.000000	-0.001733	0.000000	-0.000001	-0.000000	0.000000	0.000000
57.429918	20.854737	14.616169	-0.108630	0.003756	2.794609	0.000000	-0.001733	0.000000	-0.000001	-0.000000	0.000000	0.000000
57.727240	20.923623	14.619984	-0.177726	0.021613	2.794094	0.000000	0.005568	0.000000	-0.000002	-0.000000	0.000000	0.000000
58.276300	20.761772	14.877058	0.470758	-0.492585	2.774511	0.000000	-0.076797	0.000000	-0.000002	-0.000000	0.000000	0.000000
58.825360	19.901934	15.714620	1.085990	-1.041868	2.710012	0.000000	-0.157799	0.000000	-0.000002	-0.000000	0.000000	0.000000
59.374420	18.404843	17.192329	1.624513	-1.665361	2.601743	0.000000	-0.236002	0.000000	-0.000002	-0.000000	0.000000	0.000000
59.923480	16.376246	19.415437	2.048289	-2.407474	2.451623	0.000000	-0.310019	0.000000	-0.000002	-0.000000	0.000000	0.000000
60.369440	14.788397	21.391419	1.524839	-2.004674	2.328657	0.000000	-0.241735	0.000000	-0.000002	-0.000000	0.000000	0.000000
60.810400	13.646188	22.948070	1.075266	-1.512034	2.236510	0.000000	-0.176601	0.000000	-0.000002	-0.000000	0.000000	0.000000
61.251360	12.877387	24.038141	0.674819	-0.950598	2.172614	0.000000	-0.113479	0.000000	-0.000002	-0.000000	0.000000	0.000000
61.692320	12.446870	24.612033	0.305202	-0.345910	2.136242	0.000000	-0.051649	0.000000	-0.000002	-0.000000	0.000000	0.000000
62.134530	12.335019	24.643100	-0.020323	0.214028	2.126984	0.000000	0.004377	0.000000	-0.000002	-0.000000	0.000000	0.000000
62.431853	12.354274	24.519581	-0.044437	0.201410	2.128285	0.000000	0.004377	0.000000	-0.000002	-0.000000	0.000000	0.000000
62.765186	12.392910	24.390022	-0.071471	0.187264	2.129744	0.000000	0.004377	0.000000	-0.000002	-0.000000	0.000000	0.000000
63.098520	12.449569	24.269895	-0.098506	0.173118	2.131204	0.000000	0.004377	0.000000	-0.000002	-0.000000	0.000000	0.000000
63.433103	12.524564	24.158801	-0.125641	0.158919	2.132668	0.000000	0.004377	0.000000	-0.000002	-0.000000	0.000000	0.000000
63.730426	12.606446	24.068052	-0.118840	0.087278	2.133970	0.000000	-0.000856	0.000000	-0.000003	-0.000000	0.000000	0.000000
64.171386	12.871739	23.726004	-0.485069	0.685458	2.147133	0.000000	0.060616	0.000000	-0.000003	-0.000000	0.000000	0.000000
64.612346	13.468532	22.868201	-0.873460	1.252450	2.187530	0.000000	0.122779	0.000000	-0.000003	-0.000000	0.000000	0.000000
65.053306	14.424090	21.533669	-1.301757	1.762456	2.255620	0.000000	0.186340	0.000000	-0.000003	-0.000000	0.000000	0.000000
65.494266	15.782071	19.783131	-1.789527	2.192272	2.352178	0.000000	0.252023	0.000000	-0.000003	-0.000001	0.000000	0.000000
65.940226	17.627683	17.671454	-2.363749	2.523099	2.479878	0.000000	0.320979	0.000000	-0.000004	-0.000001	0.000000	0.000000
66.489286	19.993416	15.309077	-1.919442	1.804884	2.635747	0.000000	0.245953	0.000000	-0.000004	-0.000001	0.000000	0.000000
67.038346	21.793455	13.660586	-1.339554	1.215227	2.749163	0.000000	0.166565	0.000000	-0.000004	-0.000000	0.000000	0.000000
67.587406	22.900656	12.608563	-0.665048	0.712127	2.818113	0.000000	0.084222	0.000000	-0.000004	-0.000000	0.000000	0.000000
68.136466	23.236812	12.078075	0.056434	0.259751	2.841375	0.000000	0.000385	0.000000	-0.000004	-0.000000	0.000000	0.000000
68.435038	23.243205	11.912127	-0.017131	0.264492	2.843706	0.000000	0.007809	0.000000	-0.000004	-0.000000	0.000000	0.000000
68.768372	23.259407	11.745779	-0.031476	0.234552	2.846309	0.000000	0.007809	0.000000	-0.000004	-0.000000	0.000000	0.000000
69.101705	23.285173	11.599391	-0.045822	0.204612	2.848913	0.000000	0.007809	0.000000	-0.000005	-0.000000	0.000000	0.000000
69.436288	23.320653	11.472527	-0.060221	0.174559	2.851526	0.000000	0.007809	0.000000	-0.000005	-0.000000	0.000000	0.000000
69.733611	23.360267	11.376666	-0.134055	0.177580	2.853848	0.000000	0.015266	0.000000	-0.000005	-0.000000	0.000000	0.000000
70.282671	23.106283	11.409434	0.593896	-0.237611	2.839044	0.000000	-0.069111	0.000000	-0.000005	0.000000	0.000000	0.000000
