#ParticleID	Turn	x[m]	xp	y[m]	yp	z[m]	dE[GeV]# s	beta_x	beta_y	alpha_x	alpha_y	D_x	D_y	D_px	D_py	orbit_x	orbit_px	orbit_y	orbit_py
0.300000	11.818135	25.000411	-0.011565	-0.027437	2.618102	0.000000	0.000016	0.000000	-0.000000	0.000001	0.000000	0.000000
0.601250	11.832783	25.020574	-0.037059	-0.039496	2.618107	0.000000	0.000016	0.000000	0.000000	0.000001	0.000000	0.000000
0.898573	11.862301	25.047599	-0.033131	-0.112821	2.618111	0.000000	-0.006404	0.000000	0.000000	0.000001	0.000000	0.000000
1.339533	12.043703	24.869262	-0.379809	0.515710	2.631580	0.000000	0.067553	0.000000	0.000001	0.000001	0.000000	0.000000
1.780493	12.537315	24.144881	-0.743839	1.120776	2.677800	0.000000	0.142280	0.000000	0.000001	0.000001	0.000000	0.000000
2.221453	13.365687	22.907413	-1.141853	1.674848	2.757297	0.000000	0.218627	0.000000	0.000001	0.000001	0.000000	0.000000
2.662413	14.566667	21.213163	-1.592035	2.152716	2.870976	0.000000	0.297464	0.000000	0.000002	0.000001	0.000000	0.000000
3.108373	16.215883	19.114370	-2.119245	2.533769	3.021994	0.000000	0.380179	0.000000	0.000002	0.000001	0.000000	0.000000
3.657433	18.330716	16.757144	-1.709687	1.784775	3.205463	0.000000	0.287141	0.000000	0.000003	0.000001	0.000000	0.000000
4.206493	19.926425	15.148188	-1.179366	1.162906	3.336372	0.000000	0.189009	0.000000	0.000003	0.000001	0.000000	0.000000
4.755553	20.890299	14.172899	-0.565740	0.623868	3.412401	0.000000	0.087526	0.000000	0.000003	0.000001	0.000000	0.000000
5.304613	21.154253	13.761810	0.087848	0.129267	3.432200	0.000000	-0.015511	0.000000	0.000004	0.000001	0.000000	0.000000
5.603185	21.139018	13.669802	0.018448	0.142934	3.430246	0.000000	-0.006543	0.000000	0.000004	0.000001	0.000000	0.000000
5.936519	21.131977	13.582807	0.002674	0.118052	3.428065	0.000000	-0.006543	0.000000	0.000004	0.000001	0.000000	0.000000
6.269852	21.135453	13.512400	-0.013100	0.093169	3.425884	0.000000	-0.006543	0.000000	0.000004	0.000001	0.000000	0.000000
6.604435	21.149516	13.458411	-0.028933	0.068193	3.423695	0.000000	-0.006543	0.000000	0.000004	0.000001	0.000000	0.000000
6.901758	21.170904	13.424460	-0.098316	0.081072	3.421749	0.000000	0.002397	0.000000	0.000005	0.000001	0.000000	0.000000
7.450818	20.918033	13.596165	0.556143	-0.395644	3.394863	0.000000	-0.100186	0.000000	0.000005	0.000000	0.000000	0.000000
7.999878	19.963905	14.303673	1.171320	-0.900542	3.312059	0.000000	-0.200992	0.000000	0.000005	0.000000	0.000000	0.000000
8.548938	18.375913	15.597377	1.703760	-1.469583	3.174805	0.000000	-0.298232	0.000000	0.000005	0.000000	0.000000	0.000000
9.097998	16.266227	17.569426	2.115855	-2.143299	2.985536	0.000000	-0.390183	0.000000	0.000005	-0.000000	0.000000	0.000000
9.543958	14.620255	19.326637	1.588117	-1.780336	2.829837	0.000000	-0.308475	0.000000	0.000005	0.000000	0.000000	0.000000
9.984918	13.423030	20.706774	1.137226	-1.337601	2.711058	0.000000	-0.230764	0.000000	0.000005	0.000000	0.000000	0.000000
10.425878	12.599128	21.668025	0.738291	-0.834007	2.625936	0.000000	-0.155681	0.000000	0.000005	0.000000	0.000000	0.000000
10.866838	12.110907	22.166651	0.373087	-0.292466	2.573499	0.000000	-0.082372	0.000000	0.000005	0.000000	0.000000	0.000000
11.309048	11.935926	22.179448	0.054093	0.207934	2.553132	0.000000	-0.016261	0.000000	0.000006	0.000001	0.000000	0.000000
11.606371	11.911188	22.059958	0.029110	0.193949	2.548297	0.000000	-0.016261	0.000000	0.000006	0.000001	0.000000	0.000000
12.086371	11.902602	21.884604	-0.011223	0.171372	2.540491	0.000000	-0.016261	0.000000	0.000006	0.000001	0.000000	0.000000
12.566371	11.932735	21.730924	-0.051555	0.148795	2.532685	0.000000	-0.016261	0.000000	0.000006	0.000001	0.000000	0.000000
13.046371	12.001588	21.598918	-0.091887	0.126217	2.524879	0.000000	-0.016261	0.000000	0.000007	0.000001	0.000000	0.000000
13.526371	12.109159	21.488587	-0.132220	0.103640	2.517074	0.000000	-0.016261	0.000000	0.000007	0.000001	0.000000	0.000000
14.007621	12.255881	21.399727	-0.172657	0.081004	2.509248	0.000000	-0.016261	0.000000	0.000007	0.000001	0.000000	0.000000
14.304943	12.365979	21.355716	-0.167317	0.014652	2.504413	0.000000	-0.022403	0.000000	0.000007	0.000001	0.000000	0.000000
14.745903	12.672128	21.109048	-0.529595	0.542609	2.510166	0.000000	0.048524	0.000000	0.000008	0.000001	0.000000	0.000000
15.186863	13.307199	20.405913	-0.916069	1.045878	2.547287	0.000000	0.120003	0.000000	0.000008	0.000001	0.000000	0.000000
15.627823	14.300206	19.278304	-1.344395	1.501560	2.616199	0.000000	0.192849	0.000000	0.000008	0.000001	0.000000	0.000000
16.068783	15.696518	17.777526	-1.834143	1.888922	2.717686	0.000000	0.267892	0.000000	0.000009	0.000001	0.000000	0.000000
16.514743	17.583583	15.950360	-2.412446	2.191086	2.854600	0.000000	0.346448	0.000000	0.000010	0.000002	0.000000	0.000000
17.063803	20.007183	13.910122	-1.975514	1.546722	3.021087	0.000000	0.259109	0.000000	0.000010	0.000001	0.000000	0.000000
17.612863	21.871050	12.513186	-1.399041	1.012528	3.138287	0.000000	0.167174	0.000000	0.000011	0.000001	0.000000	0.000000
18.161923	23.043529	11.660052	-0.723747	0.550453	3.204119	0.000000	0.072273	0.000000	0.000011	0.000001	0.000000	0.000000
18.710983	23.441802	11.289952	0.002669	0.127587	3.217415	0.000000	-0.023909	0.000000	0.000012	0.000000	0.000000	0.000000
19.009556	23.480595	11.204241	-0.071355	0.129984	3.212786	0.000000	-0.015503	0.000000	0.000012	0.000000	0.000000	0.000000
19.342889	23.532921	11.127670	-0.085623	0.099731	3.207619	0.000000	-0.015503	0.000000	0.000012	0.000000	0.000000	0.000000
19.676223	23.594760	11.071267	-0.099892	0.069477	3.202451	0.000000	-0.015503	0.000000	0.000012	0.000000	0.000000	0.000000
20.010806	23.666689	11.034799	-0.231471	0.093784	3.197283	0.000000	0.000338	0.000000	0.000012	0.000000	0.000000	0.000000
20.308129	23.808268	10.987112	-0.306908	0.095307	3.197384	0.000000	0.008691	0.000000	0.000012	0.000000	0.000000	0.000000
20.857189	23.734658	11.104713	0.440179	-0.310756	3.175934	0.000000	-0.086710	0.000000	0.000012	-0.000000	0.000000	0.000000
21.406249	22.852944	11.677685	1.156174	-0.738955	3.102448	0.000000	-0.180573	0.000000	0.000012	-0.000000	0.000000	0.000000
21.955309	21.225407	12.746841	1.790503	-1.219787	2.978231	0.000000	-0.271233	0.000000	0.000012	-0.000001	0.000000	0.000000
22.504369	18.967007	14.388334	2.298359	-1.787502	2.805486	0.000000	-0.357083	0.000000	0.000011	-0.000001	0.000000	0.000000
22.950329	17.187213	15.862052	1.706655	-1.503153	2.663537	0.000000	-0.279866	0.000000	0.000011	-0.000001	0.000000	0.000000
23.391289	15.911384	17.037016	1.197620	-1.151267	2.556451	0.000000	-0.206292	0.000000	0.000010	-0.000001	0.000000	0.000000
23.832249	15.058750	17.877274	0.743300	-0.747000	2.481260	0.000000	-0.135067	0.000000	0.000010	-0.000000	0.000000	0.000000
24.273209	14.590358	18.344593	0.322940	-0.308744	2.437108	0.000000	-0.065380	0.000000	0.000010	-0.000000	0.000000	0.000000
24.715418	14.484924	18.417465	-0.047234	0.098329	2.423488	0.000000	-0.002381	0.000000	0.000010	0.000000	0.000000	0.000000
25.012741	14.519129	18.363841	-0.067806	0.082029	2.422780	0.000000	-0.002381	0.000000	0.000010	0.000000	0.000000	0.000000
25.346075	14.572021	18.315246	-0.090870	0.063755	2.421986	0.000000	-0.002381	0.000000	0.000010	0.000000	0.000000	0.000000
25.679408	14.640289	18.278834	-0.113934	0.045482	2.421192	0.000000	-0.002381	0.000000	0.000010	0.000000	0.000000	0.000000
26.013991	14.723976	18.254906	-0.017634	-0.120953	2.420371	0.000000	-0.022017	0.000000	0.000010	0.000000	0.000000	0.000000
26.311314	14.740468	18.331744	-0.001688	-0.182430	2.413825	0.000000	-0.027935	0.000000	0.000010	-0.000000	0.000000	0.000000
26.752274	14.923572	18.293808	-0.415127	0.268132	2.416619	0.000000	0.040618	0.000000	0.000010	0.000000	0.000000	0.000000
27.193234	15.478250	17.862395	-0.847531	0.706495	2.449714	0.000000	0.109634	0.000000	0.000010	0.000000	0.000000	0.000000
27.634194	16.429843	17.057133	-1.318657	1.112712	2.513489	0.000000	0.179898	0.000000	0.000010	0.000001	0.000000	0.000000
28.075154	17.821826	15.914662	-1.850029	1.468302	2.608670	0.000000	0.252211	0.000000	0.000011	0.000001	0.000000	0.000000
28.521114	19.741980	14.469754	-2.470887	1.757997	2.737943	0.000000	0.327841	0.000000	0.000011	0.000001	0.000000	0.000000
29.070174	22.182508	12.859804	-1.947720	1.191503	2.895280	0.000000	0.244430	0.000000	0.000012	0.000001	0.000000	0.000000
29.619234	23.969126	11.821958	-1.286975	0.709877	3.005559	0.000000	0.156683	0.000000	0.000012	0.000001	0.000000	0.000000
30.168294	24.975637	11.282292	-0.535325	0.278814	3.066825	0.000000	0.066157	0.000000	0.000013	0.000000	0.000000	0.000000
30.717354	25.130944	11.202368	0.254138	-0.132389	3.077992	0.000000	-0.025542	0.000000	0.000013	-0.000000	0.000000	0.000000
31.015927	25.022066	11.271989	0.176180	-0.130059	3.072767	0.000000	-0.017501	0.000000	0.000012	-0.000000	0.000000	0.000000
31.349260	24.909192	11.368719	0.162444	-0.160131	3.066933	0.000000	-0.017501	0.000000	0.000012	-0.000000	0.000000	0.000000
31.682593	24.805474	11.485497	0.148709	-0.190203	3.061100	0.000000	-0.017501	0.000000	0.000012	-0.000000	0.000000	0.000000
32.017177	24.710575	11.622873	0.134923	-0.220387	3.055244	0.000000	-0.017501	0.000000	0.000012	-0.000000	0.000000	0.000000
32.314499	24.633987	11.761901	0.058314	-0.216482	3.050041	0.000000	-0.009533	0.000000	0.000012	-0.000000	0.000000	0.000000
32.863559	24.147908	12.238871	0.821737	-0.657349	3.019921	0.000000	-0.100019	0.000000	0.000012	-0.000001	0.000000	0.000000
33.412619	22.850565	13.222683	1.527117	-1.145038	2.940534	0.000000	-0.188732	0.000000	0.000012	-0.000001	0.000000	0.000000
33.961679	20.833597	14.783411	2.124629	-1.714285	2.813287	0.000000	-0.274097	0.000000	0.000011	-0.000001	0.000000	0.000000
34.510739	18.239472	17.032221	2.572068	-2.405637	2.640437	0.000000	-0.354600	0.000000	0.000010	-0.000002	0.000000	0.000000
34.956699	16.222465	19.043683	1.966978	-2.085937	2.498644	0.000000	-0.281663	0.000000	0.000009	-0.000001	0.000000	0.000000
35.397659	14.718436	20.707146	1.456766	-1.672075	2.389825	0.000000	-0.212362	0.000000	0.000009	-0.000001	0.000000	0.000000
35.838619	13.633436	21.970546	1.013109	-1.182135	2.311004	0.000000	-0.145479	0.000000	0.000008	-0.000001	0.000000	0.000000
36.279579	12.917894	22.776400	0.615738	-0.638409	2.261282	0.000000	-0.080253	0.000000	0.000008	-0.000001	0.000000	0.000000
36.721789	12.538426	23.088347	0.277138	-0.122304	2.240067	0.000000	-0.021435	0.000000	0.000008	-0.000001	0.000000	0.000000
37.019112	12.381219	23.164960	0.251604	-0.135375	2.233694	0.000000	-0.021435	0.000000	0.000008	-0.000001	0.000000	0.000000
37.352445	12.223025	23.260094	0.222977	-0.150028	2.226549	0.000000	-0.021435	0.000000	0.000007	-0.000001	0.000000	0.000000
37.685779	12.083916	23.364997	0.194351	-0.164681	2.219405	0.000000	-0.021435	0.000000	0.000007	-0.000001	0.000000	0.000000
38.020362	11.963477	23.480118	0.165616	-0.179389	2.212233	0.000000	-0.021435	0.000000	0.000007	-0.000001	0.000000	0.000000
38.317684	11.872586	23.590677	0.169195	-0.250307	2.205860	0.000000	-0.026844	0.000000	0.000007	-0.000001	0.000000	0.000000
38.758644	11.874752	23.550136	-0.174126	0.341894	2.207952	0.000000	0.036339	0.000000	0.000007	-0.000000	0.000000	0.000000
39.199604	12.182049	22.992213	-0.525402	0.918538	2.237969	0.000000	0.099936	0.000000	0.000006	-0.000000	0.000000	0.000000
39.640564	12.808519	21.942292	-0.900683	1.453391	2.296254	0.000000	0.164671	0.000000	0.000006	-0.000000	0.000000	0.000000
40.081524	13.782782	20.448143	-1.317113	1.922115	2.383471	0.000000	0.231281	0.000000	0.000006	0.000000	0.000000	0.000000
40.527484	15.166923	18.555180	-1.797544	2.304666	2.502084	0.000000	0.300931	0.000000	0.000006	0.000000	0.000000	0.000000
41.076544	16.933306	16.427988	-1.400516	1.592445	2.646782	0.000000	0.225367	0.000000	0.000006	0.000000	0.000000	0.000000
41.625604	18.206469	15.016399	-0.904562	0.993650	2.748830	0.000000	0.145805	0.000000	0.000006	-0.000000	0.000000	0.000000
42.174664	18.896482	14.219868	-0.344715	0.465631	2.806418	0.000000	0.063657	0.000000	0.000006	-0.000000	0.000000	0.000000
42.723724	18.954605	13.981660	0.239482	-0.029223	2.818526	0.000000	-0.019620	0.000000	0.000006	-0.000001	0.000000	0.000000
43.022297	18.846044	13.983673	0.173639	-0.014049	2.814867	0.000000	-0.012256	0.000000	0.000006	-0.000001	0.000000	0.000000
43.502297	18.691945	14.013640	0.147402	-0.048381	2.808984	0.000000	-0.012256	0.000000	0.000006	-0.000001	0.000000	0.000000
43.982297	18.563034	14.076566	0.121164	-0.082714	2.803101	0.000000	-0.012256	0.000000	0.000005	-0.000001	0.000000	0.000000
44.462297	18.459310	14.172451	0.094927	-0.117046	2.797219	0.000000	-0.012256	0.000000	0.000005	-0.000001	0.000000	0.000000
44.942297	18.380774	14.301295	0.068689	-0.151379	2.791336	0.000000	-0.012256	0.000000	0.000005	-0.000001	0.000000	0.000000
45.423547	18.327548	14.463383	-0.048421	-0.114140	2.785455	0.000000	0.001545	0.000000	0.000005	-0.000001	0.000000	0.000000
45.720870	18.361176	14.537448	-0.112655	-0.096983	2.785915	0.000000	0.008824	0.000000	0.000004	-0.000001	0.000000	0.000000
46.269930	18.175717	14.925131	0.448431	-0.613269	2.768187	0.000000	-0.073306	0.000000	0.000004	-0.000001	0.000000	0.000000
46.818990	17.387944	15.900274	0.977842	-1.173237	2.705656	0.000000	-0.154135	0.000000	0.000004	-0.000001	0.000000	0.000000
47.368050	16.053501	17.532334	1.438183	-1.816772	2.599431	0.000000	-0.232230	0.000000	0.000003	-0.000001	0.000000	0.000000
47.917110	14.266647	19.937560	1.796938	-2.589711	2.451397	0.000000	-0.306206	0.000000	0.000003	-0.000001	0.000000	0.000000
48.363070	12.876101	22.076037	1.332206	-2.185350	2.330134	0.000000	-0.237906	0.000000	0.000002	-0.000001	0.000000	0.000000
48.804030	11.881403	23.788265	0.932107	-1.682830	2.239687	0.000000	-0.172712	0.000000	0.000002	-0.000001	0.000000	0.000000
49.244990	11.219519	25.021725	0.574593	-1.103742	2.177528	0.000000	-0.109485	0.000000	0.000001	-0.000001	0.000000	0.000000
49.685950	10.860211	25.720296	0.243331	-0.474434	2.142948	0.000000	-0.047505	0.000000	0.000001	-0.000001	0.000000	0.000000
50.128160	10.787187	25.851911	-0.050477	0.113014	2.135565	0.000000	0.008697	0.000000	0.000001	-0.000001	0.000000	0.000000
50.425482	10.825419	25.788171	-0.078110	0.101366	2.138151	0.000000	0.008697	0.000000	0.000001	-0.000001	0.000000	0.000000
50.758816	10.887819	25.724946	-0.109090	0.088307	2.141050	0.000000	0.008697	0.000000	0.000000	-0.000001	0.000000	0.000000
51.092149	10.970872	25.670427	-0.140069	0.075249	2.143949	0.000000	0.008697	0.000000	-0.000000	-0.000001	0.000000	0.000000
51.426732	11.074781	25.624979	-0.081319	-0.145741	2.146837	0.000000	-0.008720	0.000000	-0.000000	-0.000001	0.000000	0.000000
51.724055	11.131172	25.715166	-0.081047	-0.220652	2.144245	0.000000	-0.013978	0.000000	-0.000001	-0.000001	0.000000	0.000000
52.165015	11.347980	25.623680	-0.412491	0.427334	2.151669	0.000000	0.047685	0.000000	-0.000001	-0.000001	0.000000	0.000000
52.605975	11.864268	24.967145	-0.762780	1.055877	2.186379	0.000000	0.109891	0.000000	-0.000001	-0.000001	0.000000	0.000000
53.046935	12.703625	23.775433	-1.147919	1.636378	2.248769	0.000000	0.173349	0.000000	-0.000002	-0.000001	0.000000	0.000000
53.487895	13.904399	22.102767	-1.585503	2.142425	2.339549	0.000000	0.238781	0.000000	-0.000002	-0.000001	0.000000	0.000000
53.933855	15.542033	20.000242	-2.099755	2.552330	2.461259	0.000000	0.307332	0.000000	-0.000002	-0.000001	0.000000	0.000000
54.482915	17.650429	17.634385	-1.717524	1.782027	2.609823	0.000000	0.233028	0.000000	-0.000003	-0.000001	0.000000	0.000000
55.031975	19.269583	16.040166	-1.213977	1.138653	2.716393	0.000000	0.154590	0.000000	-0.000003	-0.000001	0.000000	0.000000
55.581035	20.285128	15.104034	-0.624680	0.576384	2.779079	0.000000	0.073411	0.000000	-0.000004	-0.000001	0.000000	0.000000
56.130095	20.625329	14.759309	0.008740	0.055168	2.796769	0.000000	-0.009071	0.000000	-0.000004	-0.000001	0.000000	0.000000
56.428668	20.656622	14.709430	-0.059657	0.073326	2.796242	0.000000	-0.001763	0.000000	-0.000004	-0.000001	0.000000	0.000000
56.762001	20.701792	14.668140	-0.075851	0.050543	2.795655	0.000000	-0.001763	0.000000	-0.000004	-0.000001	0.000000	0.000000
57.095334	20.757758	14.642039	-0.092046	0.027760	2.795067	0.000000	-0.001763	0.000000	-0.000005	-0.000001	0.000000	0.000000
57.429918	20.824790	14.631115	-0.108301	0.004891	2.794478	0.000000	-0.001763	0.000000	-0.000005	-0.000001	0.000000	0.000000
57.727240	20.893485	14.634248	-0.177339	0.022808	2.793953	0.000000	0.005537	0.000000	-0.000005	-0.000001	0.000000	0.000000
58.276300	20.731766	14.890230	0.470133	-0.491778	2.774355	0.000000	-0.076822	0.000000	-0.000005	-0.000000	0.000000	0.000000
58.825360	19.873153	15.727092	1.084397	-1.041391	2.709844	0.000000	-0.157819	0.000000	-0.000005	-0.000000	0.000000	0.000000
59.374420	18.378295	17.204441	1.622064	-1.665181	2.601565	0.000000	-0.236017	0.000000	-0.000005	-0.000000	0.000000	0.000000
59.923480	16.352781	19.427507	2.045157	-2.407577	2.451438	0.000000	-0.310028	0.000000	-0.000005	0.000000	0.000000	0.000000
60.369440	14.767409	21.403403	1.522396	-2.004378	2.328468	0.000000	-0.241749	0.000000	-0.000005	-0.000000	0.000000	0.000000
60.810400	13.627094	22.959623	1.073395	-1.511355	2.236313	0.000000	-0.176620	0.000000	-0.000005	-0.000000	0.000000	0.000000
61.251360	12.859724	24.048936	0.673434	-0.949567	2.172408	0.000000	-0.113503	0.000000	-0.000006	-0.000000	0.000000	0.000000
61.692320	12.430237	24.621780	0.304241	-0.344574	2.136024	0.000000	-0.051678	0.000000	-0.000006	-0.000000	0.000000	0.000000
62.134530	12.319065	24.651553	-0.020943	0.215586	2.126752	0.000000	0.004342	0.000000	-0.000006	-0.000001	0.000000	0.000000
62.431853	12.338698	24.527108	-0.045088	0.202965	2.128043	0.000000	0.004342	0.000000	-0.000006	-0.000001	0.000000	0.000000
62.765186	12.377780	24.396515	-0.072159	0.188814	2.129491	0.000000	0.004342	0.000000	-0.000006	-0.000001	0.000000	0.000000
63.098520	12.434909	24.275356	-0.099229	0.174664	2.130938	0.000000	0.004342	0.000000	-0.000006	-0.000001	0.000000	0.000000
63.433103	12.510401	24.163228	-0.126400	0.160461	2.132391	0.000000	0.004342	0.000000	-0.000007	-0.000001	0.000000	0.000000
63.730426	12.592743	24.071564	-0.119663	0.088805	2.133683	0.000000	-0.000890	0.000000	-0.000007	-0.000001	0.000000	0.000000
64.171386	12.858632	23.728142	-0.485601	0.687038	2.146829	0.000000	0.060574	0.000000	-0.000007	-0.000001	0.000000	0.000000
64.612346	13.455774	22.868948	-0.873724	1.254011	2.187206	0.000000	0.122729	0.000000	-0.000007	-0.000001	0.000000	0.000000
65.053306	14.411452	21.533074	-1.301765	1.763928	2.255272	0.000000	0.186281	0.000000	-0.000008	-0.000001	0.000000	0.000000
65.494266	15.769328	19.781302	-1.789281	2.193587	2.351803	0.000000	0.251955	0.000000	-0.000008	-0.000001	0.000000	0.000000
65.940226	17.614602	17.668546	-2.363235	2.524195	2.479470	0.000000	0.320901	0.000000	-0.000009	-0.000002	0.000000	0.000000
66.489286	19.980049	15.305015	-1.919440	1.805902	2.635301	0.000000	0.245889	0.000000	-0.000010	-0.000001	0.000000	0.000000
67.038346	21.780369	13.655416	-1.340065	1.216239	2.748686	0.000000	0.166515	0.000000	-0.000010	-0.000001	0.000000	0.000000
67.587406	22.888397	12.602251	-0.666035	0.713206	2.817613	0.000000	0.084188	0.000000	-0.000011	-0.000001	0.000000	0.000000
68.136466	23.225867	12.070507	0.055041	0.260974	2.840861	0.000000	0.000368	0.000000	-0.000011	-0.000000	0.000000	0.000000
68.435038	23.233079	11.903850	-0.018506	0.265662	2.843187	0.000000	0.007791	0.000000	-0.000011	-0.000000	0.000000	0.000000
68.768372	23.250201	11.736735	-0.032858	0.235684	2.845784	0.000000	0.007791	0.000000	-0.000011	-0.000000	0.000000	0.000000
69.101705	23.276890	11.589605	-0.047210	0.205705	2.848382	0.000000	0.007791	0.000000	-0.000011	-0.000000	0.000000	0.000000
69.436288	23.313301	11.462022	-0.061616	0.175615	2.850989	0.000000	0.007791	0.000000	-0.000011	-0.000000	0.000000	0.000000
69.733611	23.353747	11.365544	-0.135443	0.178574	2.853305	0.000000	0.015247	0.000000	-0.000011	-0.000000	0.000000	0.000000
70.282671	23.101393	11.397045	0.592333	-0.236286	2.838496	0.000000	-0.069113	0.000000	-0.000012	0.000000	0.000000	0.000000
