#ParticleID	Turn	x[m]	xp	y[m]	yp	z[m]	dE[GeV]# s	beta_x	beta_y	alpha_x	alpha_y	D_x	D_y	D_px	D_py	orbit_x	orbit_px	orbit_y	orbit_py
0.300000	11.811310	25.028089	-0.010811	-0.027156	2.618140	0.000000	0.000001	0.000000	-0.000001	0.000001	0.000000	0.000000
0.601250	11.825508	25.048080	-0.036319	-0.039201	2.618140	0.000000	0.000001	0.000000	-0.000000	0.000001	0.000000	0.000000
0.898573	11.854590	25.074925	-0.032424	-0.112580	2.618140	0.000000	-0.006420	0.000000	0.000000	0.000001	0.000000	0.000000
1.339533	12.035286	24.896058	-0.378908	0.516668	2.631602	0.000000	0.067538	0.000000	0.000001	0.000001	0.000000	0.000000
1.780493	12.528002	24.170530	-0.742703	1.122408	2.677815	0.000000	0.142265	0.000000	0.000001	0.000001	0.000000	0.000000
2.221453	13.355250	22.931353	-1.140430	1.677079	2.757305	0.000000	0.218613	0.000000	0.000002	0.000001	0.000000	0.000000
2.662413	14.554824	21.234908	-1.590260	2.155444	2.870978	0.000000	0.297450	0.000000	0.000003	0.000001	0.000000	0.000000
3.108373	16.202269	19.133504	-2.117033	2.536872	3.021990	0.000000	0.380165	0.000000	0.000003	0.000001	0.000000	0.000000
3.657433	18.314854	16.773303	-1.707829	1.787122	3.205450	0.000000	0.287127	0.000000	0.000004	0.000001	0.000000	0.000000
4.206493	19.908778	15.162105	-1.177992	1.164666	3.336352	0.000000	0.188996	0.000000	0.000005	0.000001	0.000000	0.000000
4.755553	20.871457	14.185147	-0.564948	0.625166	3.412374	0.000000	0.087513	0.000000	0.000005	0.000001	0.000000	0.000000
5.304613	21.134889	13.772843	0.088001	0.130195	3.432166	0.000000	-0.015522	0.000000	0.000006	0.000001	0.000000	0.000000
5.603185	21.119536	13.680261	0.018640	0.143902	3.430209	0.000000	-0.006555	0.000000	0.000006	0.000001	0.000000	0.000000
5.936519	21.112373	13.592617	0.002851	0.119031	3.428024	0.000000	-0.006555	0.000000	0.000006	0.000001	0.000000	0.000000
6.269852	21.115735	13.521553	-0.012938	0.094160	3.425838	0.000000	-0.006555	0.000000	0.000007	0.000001	0.000000	0.000000
6.604435	21.129695	13.466897	-0.028786	0.069197	3.423645	0.000000	-0.006555	0.000000	0.000007	0.000001	0.000000	0.000000
6.901758	21.150999	13.432345	-0.098129	0.082107	3.421696	0.000000	0.002385	0.000000	0.000007	0.000001	0.000000	0.000000
7.450818	20.898289	13.603031	0.555664	-0.394812	3.394804	0.000000	-0.100196	0.000000	0.000008	0.000001	0.000000	0.000000
7.999878	19.945039	14.309709	1.170208	-0.899854	3.311994	0.000000	-0.201000	0.000000	0.000008	0.000000	0.000000	0.000000
8.548938	18.358581	15.602714	1.702095	-1.468989	3.174736	0.000000	-0.298238	0.000000	0.000008	0.000000	0.000000	0.000000
9.097998	16.250975	17.574143	2.113753	-2.142758	2.985464	0.000000	-0.390187	0.000000	0.000008	-0.000000	0.000000	0.000000
9.543958	14.606670	19.330778	1.586469	-1.779589	2.829763	0.000000	-0.308481	0.000000	0.000008	0.000000	0.000000	0.000000
9.984918	13.410728	20.710179	1.135953	-1.336684	2.710982	0.000000	-0.230772	0.000000	0.000008	0.000000	0.000000	0.000000
10.425878	12.587805	21.670561	0.737335	-0.832962	2.625855	0.000000	-0.155691	0.000000	0.000008	0.000001	0.000000	0.000000
10.866838	12.100303	22.168227	0.372405	-0.291340	2.573414	0.000000	-0.082384	0.000000	0.000009	0.000001	0.000000	0.000000
11.309048	11.925817	22.180011	0.053626	0.209090	2.553041	0.000000	-0.016275	0.000000	0.000009	0.000001	0.000000	0.000000
11.606371	11.901362	22.059837	0.028624	0.195099	2.548201	0.000000	-0.016275	0.000000	0.000009	0.000001	0.000000	0.000000
12.086371	11.893258	21.883384	-0.011741	0.172511	2.540389	0.000000	-0.016275	0.000000	0.000010	0.000001	0.000000	0.000000
12.566371	11.923904	21.728615	-0.052105	0.149924	2.532576	0.000000	-0.016275	0.000000	0.000010	0.000001	0.000000	0.000000
13.046371	11.993301	21.595530	-0.092470	0.127337	2.524764	0.000000	-0.016275	0.000000	0.000011	0.000001	0.000000	0.000000
13.526371	12.101447	21.484129	-0.132835	0.104750	2.516951	0.000000	-0.016275	0.000000	0.000011	0.000001	0.000000	0.000000
14.007621	12.248776	21.394206	-0.173304	0.082104	2.509118	0.000000	-0.016275	0.000000	0.000012	0.000001	0.000000	0.000000
14.304943	12.359264	21.349543	-0.168002	0.015763	2.504279	0.000000	-0.022416	0.000000	0.000012	0.000001	0.000000	0.000000
14.745903	12.665958	21.101975	-0.530149	0.543530	2.510026	0.000000	0.048507	0.000000	0.000012	0.000001	0.000000	0.000000
15.186863	13.301470	20.398128	-0.916518	1.046566	2.547139	0.000000	0.119983	0.000000	0.000013	0.000002	0.000000	0.000000
15.627823	14.294834	19.270026	-1.344759	1.501984	2.616040	0.000000	0.192825	0.000000	0.000014	0.000002	0.000000	0.000000
16.068783	15.691436	17.768997	-1.834439	1.889063	2.717516	0.000000	0.267864	0.000000	0.000015	0.000002	0.000000	0.000000
16.514743	17.578740	15.941836	-2.412687	2.190936	2.854415	0.000000	0.346415	0.000000	0.000016	0.000003	0.000000	0.000000
17.063803	20.002741	13.901659	-1.975996	1.546759	3.020886	0.000000	0.259082	0.000000	0.000017	0.000002	0.000000	0.000000
17.612863	21.867255	12.504578	-1.399729	1.012755	3.138072	0.000000	0.167154	0.000000	0.000018	0.000002	0.000000	0.000000
18.161923	23.040581	11.651082	-0.724592	0.550888	3.203894	0.000000	0.072260	0.000000	0.000019	0.000001	0.000000	0.000000
18.710983	23.439842	11.280378	0.001726	0.128258	3.217186	0.000000	-0.023915	0.000000	0.000019	0.000000	0.000000	0.000000
19.009556	23.479194	11.194292	-0.072292	0.130600	3.212555	0.000000	-0.015510	0.000000	0.000019	0.000000	0.000000	0.000000
19.342889	23.532145	11.117320	-0.086563	0.100315	3.207385	0.000000	-0.015510	0.000000	0.000019	0.000000	0.000000	0.000000
19.676223	23.594611	11.060538	-0.100834	0.070030	3.202215	0.000000	-0.015510	0.000000	0.000019	0.000000	0.000000	0.000000
20.010806	23.667171	11.023710	-0.232419	0.094250	3.197045	0.000000	0.000330	0.000000	0.000020	0.000000	0.000000	0.000000
20.308129	23.809315	10.975755	-0.307859	0.095712	3.197143	0.000000	0.008682	0.000000	0.000020	0.000001	0.000000	0.000000
20.857189	23.736726	11.092734	0.439283	-0.310023	3.175690	0.000000	-0.086711	0.000000	0.000020	-0.000000	0.000000	0.000000
21.406249	22.855937	11.664698	1.155396	-0.737841	3.102206	0.000000	-0.180567	0.000000	0.000020	-0.000001	0.000000	0.000000
21.955309	21.229163	12.732387	1.789898	-1.218213	2.977995	0.000000	-0.271219	0.000000	0.000019	-0.000001	0.000000	0.000000
22.504369	18.971312	14.371850	2.297970	-1.785356	2.805260	0.000000	-0.357061	0.000000	0.000018	-0.000002	0.000000	0.000000
22.950329	17.191883	15.843820	1.706220	-1.501395	2.663319	0.000000	-0.279850	0.000000	0.000017	-0.000001	0.000000	0.000000
23.391289	15.916464	17.017434	1.197119	-1.149976	2.556239	0.000000	-0.206281	0.000000	0.000017	-0.000001	0.000000	0.000000
23.832249	15.064309	17.856781	0.742712	-0.746233	2.481052	0.000000	-0.135062	0.000000	0.000016	-0.000001	0.000000	0.000000
24.273209	14.596484	18.323669	0.322236	-0.308537	2.436901	0.000000	-0.065381	0.000000	0.000016	-0.000000	0.000000	0.000000
24.715418	14.491736	18.396611	-0.048071	0.098020	2.423280	0.000000	-0.002386	0.000000	0.000016	0.000000	0.000000	0.000000
25.012741	14.526436	18.343175	-0.068635	0.081703	2.422570	0.000000	-0.002386	0.000000	0.000016	0.000000	0.000000	0.000000
25.346075	14.579878	18.294804	-0.091690	0.063410	2.421775	0.000000	-0.002386	0.000000	0.000016	0.000000	0.000000	0.000000
25.679408	14.648689	18.258628	-0.114745	0.045117	2.420980	0.000000	-0.002386	0.000000	0.000016	0.000000	0.000000	0.000000
26.013991	14.732916	18.234951	-0.018363	-0.121176	2.420157	0.000000	-0.022020	0.000000	0.000016	0.000000	0.000000	0.000000
26.311314	14.749838	18.311927	-0.002385	-0.182620	2.413610	0.000000	-0.027938	0.000000	0.000016	-0.000000	0.000000	0.000000
26.752274	14.933660	18.274395	-0.416064	0.267409	2.416401	0.000000	0.040610	0.000000	0.000016	0.000000	0.000000	0.000000
27.193234	15.489286	17.843844	-0.848752	0.705271	2.449492	0.000000	0.109620	0.000000	0.000017	0.000001	0.000000	0.000000
27.634194	16.442101	17.039863	-1.320217	1.111043	2.513260	0.000000	0.179879	0.000000	0.000017	0.000001	0.000000	0.000000
28.075154	17.835635	15.899032	-1.851999	1.466264	2.608431	0.000000	0.252186	0.000000	0.000018	0.000002	0.000000	0.000000
28.521114	19.757765	14.456072	-2.473362	1.755683	2.737691	0.000000	0.327809	0.000000	0.000019	0.000002	0.000000	0.000000
29.070174	22.200801	12.848360	-1.949783	1.189717	2.895012	0.000000	0.244407	0.000000	0.000020	0.000002	0.000000	0.000000
29.619234	23.989390	11.812245	-1.288480	0.708492	3.005281	0.000000	0.156669	0.000000	0.000021	0.000001	0.000000	0.000000
30.168294	24.997197	11.273927	-0.536166	0.277730	3.066542	0.000000	0.066152	0.000000	0.000021	0.000000	0.000000	0.000000
30.717354	25.153034	11.195064	0.254021	-0.133248	3.077708	0.000000	-0.025538	0.000000	0.000021	-0.000000	0.000000	0.000000
31.015927	25.044254	11.265218	0.176021	-0.130961	3.072484	0.000000	-0.017498	0.000000	0.000021	-0.000000	0.000000	0.000000
31.349260	24.931481	11.362557	0.162299	-0.161058	3.066651	0.000000	-0.017498	0.000000	0.000021	-0.000000	0.000000	0.000000
31.682593	24.827856	11.479962	0.148576	-0.191156	3.060819	0.000000	-0.017498	0.000000	0.000020	-0.000000	0.000000	0.000000
32.017177	24.733042	11.617985	0.134803	-0.221366	3.054964	0.000000	-0.017498	0.000000	0.000020	-0.000000	0.000000	0.000000
32.314499	24.656521	11.757601	0.058151	-0.217496	3.049762	0.000000	-0.009531	0.000000	0.000020	-0.000000	0.000000	0.000000
32.863559	24.170210	12.235642	0.822321	-0.658298	3.019646	0.000000	-0.100009	0.000000	0.000020	-0.000001	0.000000	0.000000
33.412619	22.871832	13.220491	1.528407	-1.145989	2.940267	0.000000	-0.188713	0.000000	0.000019	-0.000002	0.000000	0.000000
33.961679	20.853100	14.782295	2.126533	-1.715306	2.813033	0.000000	-0.274069	0.000000	0.000018	-0.000002	0.000000	0.000000
34.510739	18.256605	17.032298	2.574452	-2.406801	2.640201	0.000000	-0.354564	0.000000	0.000017	-0.000003	0.000000	0.000000
34.956699	16.237710	19.044854	1.968844	-2.087217	2.498423	0.000000	-0.281633	0.000000	0.000016	-0.000002	0.000000	0.000000
35.397659	14.732230	20.709475	1.458202	-1.673410	2.389616	0.000000	-0.212337	0.000000	0.000015	-0.000002	0.000000	0.000000
35.838619	13.646128	21.974055	1.014181	-1.183465	2.310805	0.000000	-0.145460	0.000000	0.000014	-0.000002	0.000000	0.000000
36.279579	12.929783	22.781057	0.616495	-0.639673	2.261091	0.000000	-0.080240	0.000000	0.000013	-0.000001	0.000000	0.000000
36.721789	12.549771	23.094072	0.277642	-0.123457	2.239880	0.000000	-0.021425	0.000000	0.000013	-0.000001	0.000000	0.000000
37.019112	12.392260	23.171372	0.252124	-0.136528	2.233510	0.000000	-0.021425	0.000000	0.000013	-0.000001	0.000000	0.000000
37.352445	12.233714	23.267275	0.223515	-0.151182	2.226369	0.000000	-0.021425	0.000000	0.000012	-0.000001	0.000000	0.000000
37.685779	12.094240	23.372947	0.194907	-0.165835	2.219228	0.000000	-0.021425	0.000000	0.000012	-0.000001	0.000000	0.000000
38.020362	11.973422	23.488840	0.166191	-0.180544	2.212059	0.000000	-0.021425	0.000000	0.000012	-0.000001	0.000000	0.000000
38.317684	11.882184	23.600086	0.169809	-0.251483	2.205690	0.000000	-0.026834	0.000000	0.000011	-0.000001	0.000000	0.000000
38.758644	11.883904	23.560469	-0.173724	0.340983	2.207785	0.000000	0.036345	0.000000	0.000011	-0.000001	0.000000	0.000000
39.199604	12.190934	23.003216	-0.525195	0.917935	2.237804	0.000000	0.099937	0.000000	0.000011	-0.000000	0.000000	0.000000
39.640564	12.817303	21.953681	-0.900660	1.453121	2.296089	0.000000	0.164668	0.000000	0.000011	-0.000000	0.000000	0.000000
40.081524	13.791626	20.459617	-1.317273	1.922192	2.383304	0.000000	0.231274	0.000000	0.000011	0.000000	0.000000	0.000000
40.527484	15.175995	18.566429	-1.797897	2.305089	2.501913	0.000000	0.300920	0.000000	0.000011	0.000000	0.000000	0.000000
41.076544	16.942575	16.438937	-1.400520	1.592572	2.646606	0.000000	0.225361	0.000000	0.000011	0.000000	0.000000	0.000000
41.625604	18.215551	15.027366	-0.904219	0.993490	2.748652	0.000000	0.145805	0.000000	0.000011	-0.000000	0.000000	0.000000
42.174664	18.905005	14.231172	-0.344047	0.465173	2.806242	0.000000	0.063663	0.000000	0.000011	-0.000001	0.000000	0.000000
42.723724	18.962238	13.993644	0.240426	-0.030011	2.818355	0.000000	-0.019608	0.000000	0.000010	-0.000001	0.000000	0.000000
43.022297	18.853124	13.996104	0.174566	-0.014789	2.814699	0.000000	-0.012245	0.000000	0.000010	-0.000001	0.000000	0.000000
43.502297	18.698134	14.026767	0.148330	-0.049091	2.808822	0.000000	-0.012245	0.000000	0.000010	-0.000001	0.000000	0.000000
43.982297	18.568330	14.090360	0.122094	-0.083394	2.802945	0.000000	-0.012245	0.000000	0.000009	-0.000001	0.000000	0.000000
44.462297	18.463713	14.186883	0.095859	-0.117697	2.797067	0.000000	-0.012245	0.000000	0.000009	-0.000001	0.000000	0.000000
44.942297	18.384282	14.316338	0.069623	-0.152000	2.791190	0.000000	-0.012245	0.000000	0.000008	-0.000001	0.000000	0.000000
45.423547	18.330156	14.479009	-0.047499	-0.114654	2.785315	0.000000	0.001555	0.000000	0.000008	-0.000001	0.000000	0.000000
45.720870	18.363234	14.553373	-0.111733	-0.097436	2.785777	0.000000	0.008833	0.000000	0.000008	-0.000001	0.000000	0.000000
46.269930	18.176733	14.941821	0.449396	-0.614219	2.768056	0.000000	-0.073292	0.000000	0.000007	-0.000001	0.000000	0.000000
46.818990	17.387908	15.918309	0.978781	-1.174751	2.705534	0.000000	-0.154117	0.000000	0.000006	-0.000001	0.000000	0.000000
47.368050	16.052478	17.552390	1.439031	-1.818958	2.599320	0.000000	-0.232208	0.000000	0.000006	-0.000002	0.000000	0.000000
47.917110	14.264772	19.960455	1.797634	-2.592726	2.451299	0.000000	-0.306181	0.000000	0.000005	-0.000002	0.000000	0.000000
48.363070	12.873621	22.101403	1.332871	-2.187853	2.330047	0.000000	-0.237883	0.000000	0.000004	-0.000002	0.000000	0.000000
48.804030	11.878339	23.815571	0.932772	-1.684709	2.239611	0.000000	-0.172691	0.000000	0.000003	-0.000001	0.000000	0.000000
49.244990	11.215857	25.050381	0.575288	-1.104912	2.177460	0.000000	-0.109466	0.000000	0.000003	-0.000001	0.000000	0.000000
49.685950	10.855910	25.749651	0.244088	-0.474843	2.142888	0.000000	-0.047488	0.000000	0.000002	-0.000001	0.000000	0.000000
50.128160	10.782176	25.881280	-0.049636	0.113315	2.135512	0.000000	0.008712	0.000000	0.000002	-0.000001	0.000000	0.000000
50.425482	10.819911	25.817358	-0.077279	0.101680	2.138103	0.000000	0.008712	0.000000	0.000001	-0.000001	0.000000	0.000000
50.758816	10.881761	25.753919	-0.108270	0.088635	2.141008	0.000000	0.008712	0.000000	0.000001	-0.000001	0.000000	0.000000
51.092149	10.964271	25.699178	-0.139262	0.075590	2.143912	0.000000	0.008712	0.000000	0.000000	-0.000001	0.000000	0.000000
51.426732	11.067644	25.653496	-0.080581	-0.145617	2.146806	0.000000	-0.008704	0.000000	-0.000000	-0.000001	0.000000	0.000000
51.724055	11.123601	25.743606	-0.080341	-0.220585	2.144218	0.000000	-0.013962	0.000000	-0.000001	-0.000001	0.000000	0.000000
52.165015	11.339705	25.651728	-0.411595	0.428151	2.151650	0.000000	0.047700	0.000000	-0.000001	-0.000001	0.000000	0.000000
52.605975	11.855105	24.994154	-0.761654	1.057406	2.186367	0.000000	0.109906	0.000000	-0.000002	-0.000001	0.000000	0.000000
53.046935	12.693349	23.800804	-1.146510	1.638550	2.248764	0.000000	0.173364	0.000000	-0.000002	-0.000001	0.000000	0.000000
53.487895	13.892732	22.125974	-1.583747	2.145141	2.339551	0.000000	0.238796	0.000000	-0.000003	-0.000001	0.000000	0.000000
53.933855	15.528614	20.020827	-2.097568	2.555468	2.461268	0.000000	0.307347	0.000000	-0.000004	-0.000002	0.000000	0.000000
54.482915	17.634786	17.651976	-1.715686	1.784375	2.609840	0.000000	0.233042	0.000000	-0.000004	-0.000001	0.000000	0.000000
55.031975	19.252175	16.055534	-1.212618	1.140379	2.716418	0.000000	0.154604	0.000000	-0.000005	-0.000001	0.000000	0.000000
55.581035	20.266535	15.117791	-0.623896	0.577609	2.779112	0.000000	0.073424	0.000000	-0.000006	-0.000001	0.000000	0.000000
56.130095	20.606218	14.771954	0.008895	0.055981	2.796808	0.000000	-0.009059	0.000000	-0.000006	-0.000001	0.000000	0.000000
56.428668	20.637393	14.721565	-0.059467	0.074187	2.796286	0.000000	-0.001751	0.000000	-0.000007	-0.000001	0.000000	0.000000
56.762001	20.682441	14.679696	-0.075676	0.051420	2.795702	0.000000	-0.001751	0.000000	-0.000007	-0.000001	0.000000	0.000000
57.095334	20.738294	14.653005	-0.091885	0.028653	2.795119	0.000000	-0.001751	0.000000	-0.000007	-0.000001	0.000000	0.000000
57.429918	20.805224	14.641478	-0.108155	0.005800	2.794533	0.000000	-0.001751	0.000000	-0.000008	-0.000001	0.000000	0.000000
57.727240	20.873836	14.644067	-0.177156	0.023757	2.794013	0.000000	0.005550	0.000000	-0.000008	-0.000001	0.000000	0.000000
58.276300	20.712278	14.899156	0.469658	-0.491091	2.774421	0.000000	-0.076812	0.000000	-0.000008	-0.000001	0.000000	0.000000
58.825360	19.854536	15.735385	1.083297	-1.040918	2.709915	0.000000	-0.157811	0.000000	-0.000009	-0.000000	0.000000	0.000000
59.374420	18.361194	17.212316	1.620417	-1.664888	2.601640	0.000000	-0.236011	0.000000	-0.000009	-0.000000	0.000000	0.000000
59.923480	16.337737	19.435149	2.043080	-2.407444	2.451516	0.000000	-0.310025	0.000000	-0.000009	0.000000	0.000000	0.000000
60.369440	14.754013	21.410805	1.520767	-2.003975	2.328547	0.000000	-0.241743	0.000000	-0.000009	-0.000000	0.000000	0.000000
60.810400	13.614968	22.966557	1.072135	-1.510702	2.236396	0.000000	-0.176612	0.000000	-0.000009	-0.000000	0.000000	0.000000
61.251360	12.848567	24.055195	0.672487	-0.948694	2.172494	0.000000	-0.113493	0.000000	-0.000009	-0.000001	0.000000	0.000000
61.692320	12.419795	24.627187	0.303562	-0.343521	2.136115	0.000000	-0.051666	0.000000	-0.000009	-0.000001	0.000000	0.000000
62.134530	12.309115	24.655966	-0.021407	0.216758	2.126849	0.000000	0.004356	0.000000	-0.000010	-0.000001	0.000000	0.000000
62.431853	12.329030	24.530825	-0.045572	0.204133	2.128144	0.000000	0.004356	0.000000	-0.000010	-0.000001	0.000000	0.000000
62.765186	12.368442	24.399455	-0.072665	0.189978	2.129597	0.000000	0.004356	0.000000	-0.000010	-0.000001	0.000000	0.000000
63.098520	12.425917	24.277521	-0.099758	0.175824	2.131049	0.000000	0.004356	0.000000	-0.000010	-0.000001	0.000000	0.000000
63.433103	12.501770	24.164619	-0.126952	0.161616	2.132507	0.000000	0.004356	0.000000	-0.000011	-0.000001	0.000000	0.000000
63.730426	12.584446	24.072268	-0.120254	0.089952	2.133802	0.000000	-0.000877	0.000000	-0.000011	-0.000001	0.000000	0.000000
64.171386	12.850777	23.727835	-0.486018	0.688174	2.146956	0.000000	0.060591	0.000000	-0.000012	-0.000001	0.000000	0.000000
64.612346	13.448217	22.867663	-0.873986	1.255084	2.187341	0.000000	0.122749	0.000000	-0.000012	-0.000002	0.000000	0.000000
65.053306	14.404063	21.530889	-1.301885	1.764889	2.255417	0.000000	0.186305	0.000000	-0.000013	-0.000002	0.000000	0.000000
65.494266	15.761983	19.778335	-1.789263	2.194393	2.351959	0.000000	0.251982	0.000000	-0.000014	-0.000002	0.000000	0.000000
65.940226	17.607179	17.664945	-2.363078	2.524807	2.479640	0.000000	0.320932	0.000000	-0.000015	-0.000003	0.000000	0.000000
66.489286	19.972622	15.300748	-1.919589	1.806509	2.635487	0.000000	0.245914	0.000000	-0.000016	-0.000002	0.000000	0.000000
67.038346	21.773269	13.650466	-1.340509	1.216884	2.748884	0.000000	0.166535	0.000000	-0.000017	-0.000002	0.000000	0.000000
67.587406	22.881933	12.596552	-0.666743	0.713935	2.817821	0.000000	0.084201	0.000000	-0.000018	-0.000001	0.000000	0.000000
68.136466	23.220304	12.063938	0.054119	0.261839	2.841074	0.000000	0.000374	0.000000	-0.000018	-0.000000	0.000000	0.000000
68.435038	23.228061	11.896782	-0.019420	0.266485	2.843403	0.000000	0.007799	0.000000	-0.000018	-0.000000	0.000000	0.000000
68.768372	23.245793	11.729128	-0.033776	0.236477	2.846003	0.000000	0.007799	0.000000	-0.000018	-0.000000	0.000000	0.000000
69.101705	23.273095	11.581480	-0.048132	0.206468	2.848602	0.000000	0.007799	0.000000	-0.000019	-0.000000	0.000000	0.000000
69.436288	23.310124	11.453396	-0.062541	0.176347	2.851212	0.000000	0.007799	0.000000	-0.000019	-0.000000	0.000000	0.000000
69.733611	23.351121	11.356491	-0.136368	0.179257	2.853531	0.000000	0.015256	0.000000	-0.000019	-0.000000	0.000000	0.000000
70.282671	23.099822	11.387100	0.591348	-0.235335	2.838724	0.000000	-0.069112	0.000000	-0.000019	0.000000	0.000000	0.000000
