#ParticleID	Turn	x[m]	xp	y[m]	yp	z[m]	dE[GeV]# s	beta_x	beta_y	alpha_x	alpha_y	D_x	D_y	D_px	D_py	orbit_x	orbit_px	orbit_y	orbit_py
0.300000	11.823456	24.979162	-0.012225	-0.027606	2.618141	0.000000	0.000002	0.000000	-0.000000	0.000001	0.000000	0.000000
0.601250	11.838498	24.999430	-0.037708	-0.039675	2.618141	0.000000	0.000002	0.000000	-0.000000	0.000001	0.000000	0.000000
0.898573	11.868399	25.026565	-0.033754	-0.112960	2.618141	0.000000	-0.006419	0.000000	-0.000000	0.000001	0.000000	0.000000
1.339533	12.050416	24.848596	-0.380587	0.515019	2.631604	0.000000	0.067539	0.000000	0.000000	0.000001	0.000000	0.000000
1.780493	12.544795	24.125057	-0.744807	1.119564	2.677818	0.000000	0.142266	0.000000	0.000000	0.000001	0.000000	0.000000
2.221453	13.374121	22.888869	-1.143056	1.673170	2.757309	0.000000	0.218614	0.000000	0.000001	0.000001	0.000000	0.000000
2.662413	14.576285	21.196278	-1.593528	2.150648	2.870982	0.000000	0.297451	0.000000	0.000001	0.000001	0.000000	0.000000
3.108373	16.226988	19.099470	-2.121099	2.531404	3.021995	0.000000	0.380166	0.000000	0.000001	0.000001	0.000000	0.000000
3.657433	18.343712	16.744508	-1.711258	1.782992	3.205456	0.000000	0.287128	0.000000	0.000002	0.000001	0.000000	0.000000
4.206493	19.940939	15.137250	-1.180542	1.161578	3.336359	0.000000	0.188997	0.000000	0.000002	0.000001	0.000000	0.000000
4.755553	20.905848	14.163214	-0.566438	0.622900	3.412382	0.000000	0.087514	0.000000	0.000002	0.000000	0.000000	0.000000
5.304613	21.170283	13.753022	0.087675	0.128591	3.432174	0.000000	-0.015522	0.000000	0.000002	0.000000	0.000000	0.000000
5.603185	21.155174	13.661434	0.018244	0.142227	3.430217	0.000000	-0.006554	0.000000	0.000002	0.000000	0.000000	0.000000
5.936519	21.148265	13.574914	0.002482	0.117334	3.428033	0.000000	-0.006554	0.000000	0.000003	0.000000	0.000000	0.000000
6.269852	21.151864	13.504989	-0.013279	0.092441	3.425848	0.000000	-0.006554	0.000000	0.000003	0.000000	0.000000	0.000000
6.604435	21.166043	13.451491	-0.029100	0.067454	3.423655	0.000000	-0.006554	0.000000	0.000003	0.000000	0.000000	0.000000
6.901758	21.187528	13.417982	-0.098517	0.080308	3.421706	0.000000	0.002386	0.000000	0.000003	0.000000	0.000000	0.000000
7.450818	20.934570	13.590429	0.556500	-0.396239	3.394814	0.000000	-0.100195	0.000000	0.000003	0.000000	0.000000	0.000000
7.999878	19.979752	14.298517	1.172209	-0.901010	3.312005	0.000000	-0.201000	0.000000	0.000003	0.000000	0.000000	0.000000
8.548938	18.390519	15.592682	1.705119	-1.469958	3.174747	0.000000	-0.298238	0.000000	0.000003	0.000000	0.000000	0.000000
9.097998	16.279124	17.565103	2.117588	-2.143607	2.985475	0.000000	-0.390187	0.000000	0.000003	-0.000000	0.000000	0.000000
9.543958	14.631781	19.322667	1.589470	-1.780817	2.829774	0.000000	-0.308481	0.000000	0.000003	0.000000	0.000000	0.000000
9.984918	13.433505	20.703297	1.138264	-1.338231	2.710993	0.000000	-0.230772	0.000000	0.000003	0.000000	0.000000	0.000000
10.425878	12.608808	21.665158	0.739062	-0.834758	2.625866	0.000000	-0.155691	0.000000	0.000003	0.000000	0.000000	0.000000
10.866838	12.120012	22.164488	0.373626	-0.293303	2.573426	0.000000	-0.082383	0.000000	0.000004	0.000000	0.000000	0.000000
11.309048	11.944648	22.178049	0.054445	0.207051	2.553053	0.000000	-0.016274	0.000000	0.000004	0.000000	0.000000	0.000000
11.606371	11.919695	22.059084	0.029480	0.193071	2.548214	0.000000	-0.016274	0.000000	0.000004	0.000000	0.000000	0.000000
12.086371	11.910741	21.884570	-0.010825	0.170500	2.540402	0.000000	-0.016274	0.000000	0.000004	0.000000	0.000000	0.000000
12.566371	11.940479	21.731724	-0.051129	0.147929	2.532590	0.000000	-0.016274	0.000000	0.000004	0.000000	0.000000	0.000000
13.046371	12.008909	21.600547	-0.091434	0.125358	2.524778	0.000000	-0.016274	0.000000	0.000004	0.000000	0.000000	0.000000
13.526371	12.116031	21.491037	-0.131738	0.102787	2.516966	0.000000	-0.016274	0.000000	0.000005	0.000000	0.000000	0.000000
14.007621	12.262276	21.402995	-0.172148	0.080157	2.509134	0.000000	-0.016274	0.000000	0.000005	0.000000	0.000000	0.000000
14.304943	12.372066	21.359487	-0.166775	0.013799	2.504295	0.000000	-0.022415	0.000000	0.000005	0.000000	0.000000	0.000000
14.745903	12.677792	21.113520	-0.529174	0.541877	2.510042	0.000000	0.048508	0.000000	0.000005	0.000001	0.000000	0.000000
15.186863	13.312537	20.410965	-0.915749	1.045299	2.547156	0.000000	0.119984	0.000000	0.000005	0.000001	0.000000	0.000000
15.627823	14.305302	19.283789	-1.344163	1.501161	2.616059	0.000000	0.192827	0.000000	0.000006	0.000001	0.000000	0.000000
16.068783	15.701443	17.783276	-1.833988	1.888722	2.717535	0.000000	0.267866	0.000000	0.000006	0.000001	0.000000	0.000000
16.514743	17.588401	15.956196	-2.412360	2.191094	2.854436	0.000000	0.346417	0.000000	0.000007	0.000001	0.000000	0.000000
17.063803	20.011784	13.916013	-1.975206	1.546613	3.020909	0.000000	0.259084	0.000000	0.000007	0.000001	0.000000	0.000000
17.612863	21.875202	12.519265	-1.398534	1.012293	3.138096	0.000000	0.167155	0.000000	0.000008	0.000001	0.000000	0.000000
18.161923	23.047030	11.666464	-0.723076	0.550077	3.203919	0.000000	0.072261	0.000000	0.000008	0.000000	0.000000	0.000000
18.710983	23.444498	11.296866	0.003456	0.127042	3.217211	0.000000	-0.023915	0.000000	0.000008	0.000000	0.000000	0.000000
19.009556	23.482826	11.211464	-0.070574	0.129479	3.212580	0.000000	-0.015510	0.000000	0.000008	0.000000	0.000000	0.000000
19.342889	23.534630	11.135221	-0.084839	0.099249	3.207410	0.000000	-0.015510	0.000000	0.000008	0.000000	0.000000	0.000000
19.676223	23.595945	11.079132	-0.099105	0.069019	3.202240	0.000000	-0.015510	0.000000	0.000008	0.000000	0.000000	0.000000
20.010806	23.667347	11.042962	-0.230685	0.093389	3.197071	0.000000	0.000330	0.000000	0.000008	0.000000	0.000000	0.000000
20.308129	23.808456	10.995504	-0.306119	0.094958	3.197169	0.000000	0.008683	0.000000	0.000008	0.000000	0.000000	0.000000
20.857189	23.733981	11.113619	0.440958	-0.311350	3.175716	0.000000	-0.086711	0.000000	0.000008	-0.000000	0.000000	0.000000
21.406249	22.851444	11.687395	1.156887	-0.739834	3.102232	0.000000	-0.180567	0.000000	0.000008	-0.000000	0.000000	0.000000
21.955309	21.223184	12.757702	1.791099	-1.221015	2.978021	0.000000	-0.271220	0.000000	0.000008	-0.000001	0.000000	0.000000
22.504369	18.964212	14.400773	2.298798	-1.789166	2.805284	0.000000	-0.357063	0.000000	0.000008	-0.000001	0.000000	0.000000
22.950329	17.184023	15.875853	1.707107	-1.504529	2.663343	0.000000	-0.279851	0.000000	0.000007	-0.000001	0.000000	0.000000
23.391289	15.907781	17.051880	1.198107	-1.152293	2.556262	0.000000	-0.206282	0.000000	0.000007	-0.000000	0.000000	0.000000
23.832249	15.054695	17.892870	0.743844	-0.747629	2.481074	0.000000	-0.135062	0.000000	0.000007	-0.000000	0.000000	0.000000
24.273209	14.585788	18.360558	0.323566	-0.308948	2.436923	0.000000	-0.065380	0.000000	0.000007	-0.000000	0.000000	0.000000
24.715418	14.479755	18.433419	-0.046510	0.098519	2.423302	0.000000	-0.002385	0.000000	0.000007	0.000000	0.000000	0.000000
25.012741	14.513531	18.379677	-0.067088	0.082233	2.422593	0.000000	-0.002385	0.000000	0.000007	0.000000	0.000000	0.000000
25.346075	14.565946	18.330941	-0.090159	0.063974	2.421798	0.000000	-0.002385	0.000000	0.000007	0.000000	0.000000	0.000000
25.679408	14.633742	18.294378	-0.113229	0.045716	2.421003	0.000000	-0.002385	0.000000	0.000007	0.000000	0.000000	0.000000
26.013991	14.716961	18.270289	-0.016993	-0.120829	2.420180	0.000000	-0.022019	0.000000	0.000007	0.000000	0.000000	0.000000
26.311314	14.733074	18.347048	-0.001074	-0.182329	2.413633	0.000000	-0.027938	0.000000	0.000007	0.000000	0.000000	0.000000
26.752274	14.915554	18.308841	-0.414321	0.268645	2.416424	0.000000	0.040610	0.000000	0.000007	0.000000	0.000000	0.000000
27.193234	15.469423	17.876802	-0.846497	0.707396	2.449516	0.000000	0.109621	0.000000	0.000007	0.000000	0.000000	0.000000
27.634194	16.419986	17.070588	-1.317348	1.113962	2.513284	0.000000	0.179880	0.000000	0.000007	0.000001	0.000000	0.000000
28.075154	17.810672	15.926881	-1.848384	1.469843	2.608456	0.000000	0.252188	0.000000	0.000008	0.000001	0.000000	0.000000
28.521114	19.729181	14.480493	-2.468829	1.759760	2.737718	0.000000	0.327812	0.000000	0.000008	0.000001	0.000000	0.000000
29.070174	22.167616	12.868843	-1.945990	1.192857	2.895041	0.000000	0.244408	0.000000	0.000009	0.000001	0.000000	0.000000
29.619234	23.952573	11.829689	-1.285697	0.710919	3.005311	0.000000	0.156669	0.000000	0.000009	0.000000	0.000000	0.000000
30.168294	24.957970	11.289017	-0.534588	0.279617	3.066572	0.000000	0.066152	0.000000	0.000009	0.000000	0.000000	0.000000
30.717354	25.112793	11.208315	0.254281	-0.131768	3.077737	0.000000	-0.025539	0.000000	0.000009	-0.000000	0.000000	0.000000
31.015927	25.003805	11.277550	0.176358	-0.129403	3.072513	0.000000	-0.017498	0.000000	0.000009	-0.000000	0.000000	0.000000
31.349260	24.890814	11.373836	0.162612	-0.159455	3.066680	0.000000	-0.017498	0.000000	0.000009	-0.000000	0.000000	0.000000
31.682593	24.786988	11.490157	0.148867	-0.189507	3.060847	0.000000	-0.017498	0.000000	0.000009	-0.000000	0.000000	0.000000
32.017177	24.691988	11.627061	0.135069	-0.219672	3.054993	0.000000	-0.017498	0.000000	0.000009	-0.000000	0.000000	0.000000
32.314499	24.615315	11.765658	0.058498	-0.215738	3.049790	0.000000	-0.009530	0.000000	0.000009	-0.000000	0.000000	0.000000
32.863559	24.129377	12.241852	0.821300	-0.656671	3.019674	0.000000	-0.100009	0.000000	0.000009	-0.000000	0.000000	0.000000
33.412619	22.832844	13.224932	1.526090	-1.144376	2.940294	0.000000	-0.188714	0.000000	0.000008	-0.000001	0.000000	0.000000
33.961679	20.817296	14.784921	2.123085	-1.713593	2.813059	0.000000	-0.274071	0.000000	0.000008	-0.000001	0.000000	0.000000
34.510739	18.225102	17.032932	2.570115	-2.404865	2.640225	0.000000	-0.354567	0.000000	0.000007	-0.000001	0.000000	0.000000
34.956699	16.209640	19.043655	1.965456	-2.085061	2.498445	0.000000	-0.281635	0.000000	0.000007	-0.000001	0.000000	0.000000
35.397659	14.706791	20.706315	1.455601	-1.671136	2.389638	0.000000	-0.212339	0.000000	0.000006	-0.000001	0.000000	0.000000
35.838619	13.622681	21.968874	1.012248	-1.181175	2.310825	0.000000	-0.145461	0.000000	0.000006	-0.000001	0.000000	0.000000
36.279579	12.907779	22.773888	0.615142	-0.637472	2.261110	0.000000	-0.080240	0.000000	0.000006	-0.000001	0.000000	0.000000
36.721789	12.528732	23.085033	0.276757	-0.121427	2.239899	0.000000	-0.021426	0.000000	0.000006	-0.000000	0.000000	0.000000
37.019112	12.371756	23.161124	0.251208	-0.134496	2.233529	0.000000	-0.021426	0.000000	0.000006	-0.000000	0.000000	0.000000
37.352445	12.213832	23.255672	0.222564	-0.149148	2.226387	0.000000	-0.021426	0.000000	0.000005	-0.000000	0.000000	0.000000
37.685779	12.075004	23.359989	0.193921	-0.163800	2.219246	0.000000	-0.021426	0.000000	0.000005	-0.000000	0.000000	0.000000
38.020362	11.954858	23.474519	0.165170	-0.178508	2.212077	0.000000	-0.021426	0.000000	0.000005	-0.000000	0.000000	0.000000
38.317684	11.864236	23.584554	0.168714	-0.249411	2.205707	0.000000	-0.026834	0.000000	0.000005	-0.000000	0.000000	0.000000
38.758644	11.866743	23.543297	-0.174422	0.342615	2.207802	0.000000	0.036344	0.000000	0.000005	-0.000000	0.000000	0.000000
39.199604	12.174226	22.984827	-0.525526	0.919053	2.237821	0.000000	0.099937	0.000000	0.000005	-0.000000	0.000000	0.000000
39.640564	12.800732	21.934552	-0.900641	1.453674	2.296106	0.000000	0.164669	0.000000	0.000005	-0.000000	0.000000	0.000000
40.081524	13.774885	20.440260	-1.316903	1.922155	2.383320	0.000000	0.231275	0.000000	0.000005	0.000000	0.000000	0.000000
40.527484	15.158759	18.547372	-1.797156	2.304459	2.501930	0.000000	0.300921	0.000000	0.000005	0.000000	0.000000	0.000000
41.076544	16.924884	16.420299	-1.400434	1.592434	2.646623	0.000000	0.225362	0.000000	0.000005	0.000000	0.000000	0.000000
41.625604	18.198129	15.008615	-0.904793	0.993835	2.748670	0.000000	0.145805	0.000000	0.000005	-0.000000	0.000000	0.000000
42.174664	18.888560	14.211769	-0.345241	0.466024	2.806260	0.000000	0.063662	0.000000	0.000005	-0.000000	0.000000	0.000000
42.723724	18.947407	13.973002	0.238697	-0.028592	2.818372	0.000000	-0.019610	0.000000	0.000005	-0.000000	0.000000	0.000000
43.022297	18.839305	13.974656	0.172871	-0.013454	2.814716	0.000000	-0.012246	0.000000	0.000004	-0.000000	0.000000	0.000000
43.502297	18.685944	14.004062	0.146631	-0.047808	2.808838	0.000000	-0.012246	0.000000	0.000004	-0.000000	0.000000	0.000000
43.982297	18.557774	14.066447	0.120391	-0.082162	2.802960	0.000000	-0.012246	0.000000	0.000004	-0.000000	0.000000	0.000000
44.462297	18.454794	14.161813	0.094150	-0.116516	2.797082	0.000000	-0.012246	0.000000	0.000004	-0.000000	0.000000	0.000000
44.942297	18.377005	14.290159	0.067910	-0.150871	2.791204	0.000000	-0.012246	0.000000	0.000004	-0.000000	0.000000	0.000000
45.423547	18.324529	14.451769	-0.049188	-0.113711	2.785328	0.000000	0.001554	0.000000	0.000004	-0.000000	0.000000	0.000000
45.720870	18.358614	14.525582	-0.113419	-0.096599	2.785791	0.000000	0.008833	0.000000	0.000003	-0.000000	0.000000	0.000000
46.269930	18.174034	14.912643	0.447603	-0.612513	2.768069	0.000000	-0.073293	0.000000	0.000003	-0.000000	0.000000	0.000000
46.818990	17.387179	15.886728	0.977008	-1.172055	2.705546	0.000000	-0.154118	0.000000	0.000003	-0.000001	0.000000	0.000000
47.368050	16.053629	17.517220	1.437403	-1.815080	2.599331	0.000000	-0.232210	0.000000	0.000003	-0.000001	0.000000	0.000000
47.917110	14.267578	19.920255	1.796266	-2.587389	2.451309	0.000000	-0.306183	0.000000	0.000002	-0.000001	0.000000	0.000000
48.363070	12.877609	22.056822	1.331578	-2.183410	2.330055	0.000000	-0.237884	0.000000	0.000002	-0.000001	0.000000	0.000000
48.804030	11.883455	23.767541	0.931495	-1.681359	2.239618	0.000000	-0.172693	0.000000	0.000002	-0.000001	0.000000	0.000000
49.244990	11.222115	24.999937	0.573968	-1.102808	2.177467	0.000000	-0.109467	0.000000	0.000001	-0.000001	0.000000	0.000000
49.685950	10.863374	25.697937	0.242665	-0.474079	2.142894	0.000000	-0.047489	0.000000	0.000001	-0.000001	0.000000	0.000000
50.128160	10.790968	25.829501	-0.051206	0.112829	2.135517	0.000000	0.008711	0.000000	0.000001	-0.000001	0.000000	0.000000
50.425482	10.829631	25.765874	-0.078831	0.101171	2.138107	0.000000	0.008711	0.000000	0.000001	-0.000001	0.000000	0.000000
50.758816	10.892508	25.702782	-0.109802	0.088102	2.141011	0.000000	0.008711	0.000000	0.000000	-0.000001	0.000000	0.000000
51.092149	10.976033	25.648404	-0.140773	0.075033	2.143915	0.000000	0.008711	0.000000	0.000000	-0.000001	0.000000	0.000000
51.426732	11.080410	25.603103	-0.081969	-0.145791	2.146808	0.000000	-0.008705	0.000000	0.000000	-0.000001	0.000000	0.000000
51.724055	11.137184	25.693323	-0.081670	-0.220658	2.144220	0.000000	-0.013963	0.000000	-0.000000	-0.000001	0.000000	0.000000
52.165015	11.354607	25.602097	-0.413267	0.426752	2.151652	0.000000	0.047700	0.000000	-0.000000	-0.000001	0.000000	0.000000
52.605975	11.871661	24.946321	-0.763745	1.054744	2.186368	0.000000	0.109905	0.000000	-0.000001	-0.000001	0.000000	0.000000
53.046935	12.711968	23.755833	-1.149116	1.634747	2.248764	0.000000	0.173363	0.000000	-0.000001	-0.000001	0.000000	0.000000
53.487895	13.913920	22.084798	-1.586987	2.140370	2.339550	0.000000	0.238795	0.000000	-0.000001	-0.000001	0.000000	0.000000
53.933855	15.553033	19.984262	-2.101597	2.549944	2.461266	0.000000	0.307346	0.000000	-0.000001	-0.000001	0.000000	0.000000
54.482915	17.663310	17.620678	-1.719087	1.780248	2.609837	0.000000	0.233041	0.000000	-0.000002	-0.000001	0.000000	0.000000
55.031975	19.283975	16.028138	-1.215149	1.137356	2.716415	0.000000	0.154603	0.000000	-0.000002	-0.000001	0.000000	0.000000
55.581035	20.300553	15.093210	-0.625379	0.575475	2.779108	0.000000	0.073423	0.000000	-0.000002	-0.000000	0.000000	0.000000
56.130095	20.641237	14.749300	0.008565	0.054584	2.796803	0.000000	-0.009060	0.000000	-0.000003	-0.000000	0.000000	0.000000
56.428668	20.672657	14.699789	-0.059863	0.072703	2.796281	0.000000	-0.001752	0.000000	-0.000003	-0.000000	0.000000	0.000000
56.762001	20.717959	14.658918	-0.076045	0.049907	2.795697	0.000000	-0.001752	0.000000	-0.000003	-0.000000	0.000000	0.000000
57.095334	20.774050	14.633245	-0.092227	0.027111	2.795113	0.000000	-0.001752	0.000000	-0.000003	-0.000000	0.000000	0.000000
57.429918	20.841200	14.622759	-0.108470	0.004230	2.794527	0.000000	-0.001752	0.000000	-0.000003	-0.000000	0.000000	0.000000
57.727240	20.909993	14.626289	-0.177539	0.022114	2.794006	0.000000	0.005549	0.000000	-0.000003	-0.000000	0.000000	0.000000
58.276300	20.748189	14.882911	0.470486	-0.492256	2.774413	0.000000	-0.076813	0.000000	-0.000003	-0.000000	0.000000	0.000000
58.825360	19.888894	15.720196	1.085279	-1.041688	2.709907	0.000000	-0.157812	0.000000	-0.000004	-0.000000	0.000000	0.000000
59.374420	18.392803	17.197783	1.623414	-1.665318	2.601631	0.000000	-0.236011	0.000000	-0.000004	-0.000000	0.000000	0.000000
59.923480	16.365592	19.420917	2.046878	-2.407564	2.451507	0.000000	-0.310025	0.000000	-0.000004	0.000000	0.000000	0.000000
60.369440	14.778858	21.396900	1.523740	-2.004587	2.328538	0.000000	-0.241744	0.000000	-0.000004	-0.000000	0.000000	0.000000
60.810400	13.637501	22.953397	1.074426	-1.511774	2.236387	0.000000	-0.176613	0.000000	-0.000004	-0.000000	0.000000	0.000000
61.251360	12.869341	24.043167	0.674200	-0.950178	2.172485	0.000000	-0.113494	0.000000	-0.000004	-0.000000	0.000000	0.000000
61.692320	12.439283	24.616624	0.304776	-0.345349	2.136105	0.000000	-0.051667	0.000000	-0.000004	-0.000000	0.000000	0.000000
62.134530	12.327731	24.647141	-0.020593	0.214695	2.126838	0.000000	0.004355	0.000000	-0.000004	-0.000000	0.000000	0.000000
62.431853	12.347151	24.523225	-0.044722	0.202076	2.128133	0.000000	0.004355	0.000000	-0.000004	-0.000000	0.000000	0.000000
62.765186	12.385982	24.393224	-0.071772	0.187928	2.129585	0.000000	0.004355	0.000000	-0.000004	-0.000000	0.000000	0.000000
63.098520	12.442847	24.272654	-0.098823	0.173781	2.131037	0.000000	0.004355	0.000000	-0.000004	-0.000000	0.000000	0.000000
63.433103	12.518061	24.161117	-0.125975	0.159580	2.132495	0.000000	0.004355	0.000000	-0.000005	-0.000000	0.000000	0.000000
63.730426	12.600146	24.069976	-0.119203	0.087931	2.133790	0.000000	-0.000878	0.000000	-0.000005	-0.000000	0.000000	0.000000
64.171386	12.865699	23.727335	-0.485298	0.686145	2.146943	0.000000	0.060590	0.000000	-0.000005	-0.000001	0.000000	0.000000
64.612346	13.462638	22.868922	-0.873565	1.253140	2.187327	0.000000	0.122747	0.000000	-0.000005	-0.000001	0.000000	0.000000
65.053306	14.418236	21.533793	-1.301742	1.763117	2.255402	0.000000	0.186303	0.000000	-0.000005	-0.000001	0.000000	0.000000
65.494266	15.776151	19.782695	-1.789392	2.192875	2.351943	0.000000	0.251980	0.000000	-0.000006	-0.000001	0.000000	0.000000
65.940226	17.621587	17.670518	-2.363487	2.523614	2.479622	0.000000	0.320930	0.000000	-0.000006	-0.000001	0.000000	0.000000
66.489286	19.987160	15.307603	-1.919416	1.805354	2.635467	0.000000	0.245913	0.000000	-0.000007	-0.000001	0.000000	0.000000
67.038346	21.787303	13.658605	-1.339767	1.215685	2.748863	0.000000	0.166534	0.000000	-0.000007	-0.000001	0.000000	0.000000
67.587406	22.894861	12.606070	-0.665484	0.712607	2.817799	0.000000	0.084201	0.000000	-0.000008	-0.000000	0.000000	0.000000
68.136466	23.231604	12.075028	0.055806	0.260286	2.841052	0.000000	0.000374	0.000000	-0.000008	-0.000000	0.000000	0.000000
68.435038	23.238366	11.908770	-0.017750	0.265006	2.843380	0.000000	0.007798	0.000000	-0.000008	-0.000000	0.000000	0.000000
68.768372	23.254982	11.742085	-0.032099	0.235049	2.845980	0.000000	0.007798	0.000000	-0.000008	-0.000000	0.000000	0.000000
69.101705	23.281164	11.595371	-0.046447	0.205093	2.848579	0.000000	0.007798	0.000000	-0.000008	-0.000000	0.000000	0.000000
69.436288	23.317064	11.468190	-0.060850	0.175024	2.851188	0.000000	0.007798	0.000000	-0.000008	-0.000000	0.000000	0.000000
69.733611	23.357053	11.372057	-0.134680	0.178019	2.853507	0.000000	0.015254	0.000000	-0.000008	-0.000000	0.000000	0.000000
70.282671	23.103808	11.404269	0.593183	-0.237034	2.838700	0.000000	-0.069112	0.000000	-0.000008	0.000000	0.000000	0.000000
