#ParticleID	Turn	x[m]	xp	y[m]	yp	z[m]	dE[GeV]# s	beta_x	beta_y	alpha_x	alpha_y	D_x	D_y	D_px	D_py	orbit_x	orbit_px	orbit_y	orbit_py
0.300000	11.830823	24.951662	-0.013217	-0.027752	2.618266	0.000000	-0.000047	0.000000	-0.000000	0.000000	0.000000	0.000000
0.601250	11.846459	24.972023	-0.038684	-0.039835	2.618252	0.000000	-0.000047	0.000000	0.000000	0.000000	0.000000	0.000000
0.898573	11.876935	24.999256	-0.034694	-0.113065	2.618238	0.000000	-0.006468	0.000000	0.000000	0.000000	0.000000	0.000000
1.339533	12.059875	24.821698	-0.381746	0.514194	2.631680	0.000000	0.067492	0.000000	0.000000	0.000000	0.000000	0.000000
1.780493	12.555391	24.099191	-0.746239	1.118058	2.677874	0.000000	0.142221	0.000000	0.000000	0.000000	0.000000	0.000000
2.221453	13.386123	22.864608	-1.144825	1.671050	2.757345	0.000000	0.218570	0.000000	0.000000	0.000000	0.000000	0.000000
2.662413	14.590024	21.174122	-1.595715	2.148012	2.871000	0.000000	0.297408	0.000000	0.000001	0.000000	0.000000	0.000000
3.108373	16.242902	19.079853	-2.123808	2.528370	3.021993	0.000000	0.380123	0.000000	0.000001	0.000000	0.000000	0.000000
3.657433	18.362397	16.727790	-1.713566	1.780715	3.205432	0.000000	0.287085	0.000000	0.000001	0.000000	0.000000	0.000000
4.206493	19.961863	15.122692	-1.182287	1.159896	3.336312	0.000000	0.188956	0.000000	0.000001	0.000000	0.000000	0.000000
4.755553	20.928320	14.150232	-0.567496	0.621694	3.412312	0.000000	0.087474	0.000000	0.000001	0.000000	0.000000	0.000000
5.304613	21.193503	13.741144	0.087379	0.127775	3.432084	0.000000	-0.015558	0.000000	0.000001	0.000000	0.000000	0.000000
5.603185	21.178602	13.650066	0.017903	0.141367	3.430116	0.000000	-0.006591	0.000000	0.000001	0.000000	0.000000	0.000000
5.936519	21.171915	13.564124	0.002158	0.116459	3.427919	0.000000	-0.006591	0.000000	0.000001	0.000000	0.000000	0.000000
6.269852	21.175724	13.494787	-0.013586	0.091551	3.425722	0.000000	-0.006591	0.000000	0.000001	0.000000	0.000000	0.000000
6.604435	21.190103	13.441890	-0.029389	0.066550	3.423516	0.000000	-0.006591	0.000000	0.000001	0.000000	0.000000	0.000000
6.901758	21.211754	13.408922	-0.098854	0.079367	3.421557	0.000000	0.002349	0.000000	0.000001	0.000000	0.000000	0.000000
7.450818	20.958719	13.582265	0.556978	-0.396940	3.394646	0.000000	-0.100227	0.000000	0.000001	0.000000	0.000000	0.000000
7.999878	20.002943	14.291015	1.173467	-0.901521	3.311821	0.000000	-0.201026	0.000000	0.000002	0.000000	0.000000	0.000000
8.548938	18.411938	15.585653	1.707069	-1.470315	3.174551	0.000000	-0.298259	0.000000	0.000002	0.000000	0.000000	0.000000
9.097998	16.298084	17.558394	2.120092	-2.143836	2.985269	0.000000	-0.390201	0.000000	0.000002	-0.000000	0.000000	0.000000
9.543958	14.648763	19.316273	1.591419	-1.781292	2.829561	0.000000	-0.308500	0.000000	0.000002	0.000000	0.000000	0.000000
9.984918	13.448977	20.697422	1.139752	-1.338930	2.710770	0.000000	-0.230796	0.000000	0.000002	0.000000	0.000000	0.000000
10.425878	12.623144	21.659986	0.740157	-0.835647	2.625632	0.000000	-0.155721	0.000000	0.000002	0.000000	0.000000	0.000000
10.866838	12.133536	22.160170	0.374378	-0.294344	2.573176	0.000000	-0.082420	0.000000	0.000002	0.000000	0.000000	0.000000
11.309048	11.957646	22.174701	0.054922	0.205915	2.552786	0.000000	-0.016317	0.000000	0.000002	0.000000	0.000000	0.000000
11.606371	11.932402	22.056411	0.029982	0.191938	2.547934	0.000000	-0.016317	0.000000	0.000002	0.000000	0.000000	0.000000
12.086371	11.922945	21.882981	-0.010281	0.169374	2.540102	0.000000	-0.016317	0.000000	0.000002	0.000000	0.000000	0.000000
12.566371	11.952141	21.731213	-0.050543	0.146810	2.532269	0.000000	-0.016317	0.000000	0.000002	0.000000	0.000000	0.000000
13.046371	12.019988	21.601107	-0.090806	0.124245	2.524437	0.000000	-0.016317	0.000000	0.000002	0.000000	0.000000	0.000000
13.526371	12.126488	21.492662	-0.131069	0.101681	2.516604	0.000000	-0.016317	0.000000	0.000002	0.000000	0.000000	0.000000
14.007621	12.272069	21.405681	-0.171436	0.079059	2.508751	0.000000	-0.016317	0.000000	0.000002	0.000000	0.000000	0.000000
14.304943	12.381428	21.362824	-0.166014	0.012695	2.503900	0.000000	-0.022458	0.000000	0.000002	0.000000	0.000000	0.000000
14.745903	12.686568	21.117784	-0.528602	0.540887	2.509626	0.000000	0.048456	0.000000	0.000002	0.000000	0.000000	0.000000
15.186863	13.320883	20.416035	-0.915341	1.044469	2.546714	0.000000	0.119920	0.000000	0.000002	0.000000	0.000000	0.000000
15.627823	14.313352	19.289506	-1.343899	1.500529	2.615587	0.000000	0.192751	0.000000	0.000003	0.000000	0.000000	0.000000
16.068783	15.709319	17.789453	-1.833855	1.888315	2.717027	0.000000	0.267777	0.000000	0.000003	0.000000	0.000000	0.000000
16.514743	17.596215	15.962627	-2.412354	2.190935	2.853886	0.000000	0.346316	0.000000	0.000003	0.000001	0.000000	0.000000
17.063803	20.019401	13.922678	-1.974856	1.546344	3.020308	0.000000	0.259001	0.000000	0.000003	0.000000	0.000000	0.000000
17.612863	21.882255	12.526294	-1.397865	1.011895	3.137455	0.000000	0.167092	0.000000	0.000003	0.000000	0.000000	0.000000
18.161923	23.053194	11.674014	-0.722135	0.549522	3.203250	0.000000	0.072219	0.000000	0.000004	0.000000	0.000000	0.000000
18.710983	23.449509	11.305130	0.004602	0.126289	3.216525	0.000000	-0.023935	0.000000	0.000004	0.000000	0.000000	0.000000
19.009556	23.487160	11.220156	-0.069439	0.128775	3.211888	0.000000	-0.015531	0.000000	0.000004	0.000000	0.000000	0.000000
19.342889	23.538206	11.144373	-0.083699	0.098574	3.206711	0.000000	-0.015531	0.000000	0.000004	0.000000	0.000000	0.000000
19.676223	23.598759	11.088724	-0.097960	0.068373	3.201533	0.000000	-0.015531	0.000000	0.000004	0.000000	0.000000	0.000000
20.010806	23.669393	11.052977	-0.229545	0.092822	3.196357	0.000000	0.000305	0.000000	0.000004	0.000000	0.000000	0.000000
20.308129	23.809823	11.005848	-0.304977	0.094445	3.196448	0.000000	0.008657	0.000000	0.000004	0.000000	0.000000	0.000000
20.857189	23.734075	11.124688	0.442120	-0.312165	3.174987	0.000000	-0.086714	0.000000	0.000004	-0.000000	0.000000	0.000000
21.406249	22.850288	11.699551	1.157988	-0.741010	3.101508	0.000000	-0.180546	0.000000	0.000004	-0.000000	0.000000	0.000000
21.955309	21.220889	12.771383	1.792061	-1.222636	2.977314	0.000000	-0.271176	0.000000	0.000004	-0.000000	0.000000	0.000000
22.504369	18.960970	14.416530	2.299552	-1.791347	2.804608	0.000000	-0.356997	0.000000	0.000003	-0.000000	0.000000	0.000000
22.950329	17.180113	15.893401	1.707856	-1.506350	2.662691	0.000000	-0.279802	0.000000	0.000003	-0.000000	0.000000	0.000000
23.391289	15.903200	17.070846	1.198885	-1.153674	2.555629	0.000000	-0.206250	0.000000	0.000003	-0.000000	0.000000	0.000000
23.832249	15.049401	17.912836	0.744688	-0.748506	2.480452	0.000000	-0.135046	0.000000	0.000003	-0.000000	0.000000	0.000000
24.273209	14.579708	18.381060	0.324514	-0.309282	2.436304	0.000000	-0.065380	0.000000	0.000003	-0.000000	0.000000	0.000000
24.715418	14.472775	18.453968	-0.045431	0.098692	2.422680	0.000000	-0.002400	0.000000	0.000003	0.000000	0.000000	0.000000
25.012741	14.505911	18.400118	-0.066017	0.082423	2.421966	0.000000	-0.002400	0.000000	0.000003	0.000000	0.000000	0.000000
25.346075	14.557615	18.351249	-0.089097	0.064184	2.421166	0.000000	-0.002400	0.000000	0.000003	0.000000	0.000000	0.000000
25.679408	14.624706	18.314539	-0.112176	0.045946	2.420366	0.000000	-0.002400	0.000000	0.000003	0.000000	0.000000	0.000000
26.013991	14.707223	18.290290	-0.016027	-0.120741	2.419539	0.000000	-0.022029	0.000000	0.000003	0.000000	0.000000	0.000000
26.311314	14.722766	18.366992	-0.000145	-0.182274	2.412989	0.000000	-0.027946	0.000000	0.000003	-0.000000	0.000000	0.000000
26.752274	14.904312	18.328498	-0.413124	0.269239	2.415773	0.000000	0.040586	0.000000	0.000003	0.000000	0.000000	0.000000
27.193234	15.456988	17.895706	-0.844977	0.708501	2.448850	0.000000	0.109579	0.000000	0.000003	0.000000	0.000000	0.000000
27.634194	16.406043	17.088310	-1.315435	1.115528	2.512596	0.000000	0.179821	0.000000	0.000003	0.000000	0.000000	0.000000
28.075154	17.794838	15.943044	-1.845992	1.471799	2.607738	0.000000	0.252111	0.000000	0.000003	0.000000	0.000000	0.000000
28.521114	19.710956	14.494769	-2.465842	1.762018	2.736962	0.000000	0.327716	0.000000	0.000004	0.000000	0.000000	0.000000
29.070174	22.146348	12.880946	-1.943467	1.194580	2.894239	0.000000	0.244337	0.000000	0.000004	0.000000	0.000000	0.000000
29.619234	23.928872	11.840137	-1.283815	0.712229	3.004477	0.000000	0.156625	0.000000	0.000004	0.000000	0.000000	0.000000
30.168294	24.932618	11.298209	-0.533481	0.280608	3.065721	0.000000	0.066134	0.000000	0.000004	0.000000	0.000000	0.000000
30.717354	25.086687	11.216561	0.254536	-0.131025	3.076885	0.000000	-0.025529	0.000000	0.000004	-0.000000	0.000000	0.000000
31.015927	24.977513	11.285332	0.176665	-0.128614	3.071663	0.000000	-0.017490	0.000000	0.000004	-0.000000	0.000000	0.000000
31.349260	24.864323	11.381083	0.162903	-0.158639	3.065833	0.000000	-0.017490	0.000000	0.000004	-0.000000	0.000000	0.000000
31.682593	24.760309	11.496852	0.149141	-0.188665	3.060003	0.000000	-0.017490	0.000000	0.000004	-0.000000	0.000000	0.000000
32.017177	24.665130	11.633183	0.135328	-0.218803	3.054151	0.000000	-0.017490	0.000000	0.000004	-0.000000	0.000000	0.000000
32.314499	24.588308	11.771256	0.058810	-0.214829	3.048951	0.000000	-0.009524	0.000000	0.000004	-0.000000	0.000000	0.000000
32.863559	24.102522	12.246517	0.820713	-0.655870	3.018846	0.000000	-0.099975	0.000000	0.000004	-0.000000	0.000000	0.000000
33.412619	22.807111	13.228751	1.524644	-1.143626	2.939492	0.000000	-0.188654	0.000000	0.000004	-0.000000	0.000000	0.000000
33.961679	20.793579	14.787920	2.120883	-1.712841	2.812297	0.000000	-0.273986	0.000000	0.000003	-0.000000	0.000000	0.000000
34.510739	18.204149	17.035080	2.567313	-2.404058	2.639516	0.000000	-0.354458	0.000000	0.000003	-0.000001	0.000000	0.000000
34.956699	16.190901	19.045008	1.963277	-2.084094	2.497780	0.000000	-0.281544	0.000000	0.000003	-0.000000	0.000000	0.000000
35.397659	14.689740	20.706761	1.453940	-1.670054	2.389009	0.000000	-0.212264	0.000000	0.000003	-0.000000	0.000000	0.000000
35.838619	13.606895	21.968335	1.011029	-1.180029	2.310226	0.000000	-0.145402	0.000000	0.000003	-0.000000	0.000000	0.000000
36.279579	12.892894	22.772328	0.614309	-0.636313	2.260533	0.000000	-0.080196	0.000000	0.000003	-0.000000	0.000000	0.000000
36.721789	12.514426	23.082461	0.276238	-0.120303	2.239339	0.000000	-0.021395	0.000000	0.000002	-0.000000	0.000000	0.000000
37.019112	12.357765	23.157884	0.250667	-0.133370	2.232977	0.000000	-0.021395	0.000000	0.000002	-0.000000	0.000000	0.000000
37.352445	12.200210	23.251681	0.221999	-0.148020	2.225846	0.000000	-0.021395	0.000000	0.000002	-0.000000	0.000000	0.000000
37.685779	12.061767	23.355244	0.193330	-0.162670	2.218714	0.000000	-0.021395	0.000000	0.000002	-0.000000	0.000000	0.000000
38.020362	11.942025	23.469018	0.164554	-0.177375	2.211555	0.000000	-0.021395	0.000000	0.000002	-0.000000	0.000000	0.000000
38.317684	11.851776	23.578378	0.168046	-0.248263	2.205194	0.000000	-0.026803	0.000000	0.000002	-0.000000	0.000000	0.000000
38.758644	11.854749	23.536185	-0.174813	0.343584	2.207300	0.000000	0.036363	0.000000	0.000002	-0.000000	0.000000	0.000000
39.199604	12.162462	22.976955	-0.525659	0.919798	2.237324	0.000000	0.099943	0.000000	0.000002	-0.000000	0.000000	0.000000
39.640564	12.788973	21.926135	-0.900521	1.454162	2.295608	0.000000	0.164661	0.000000	0.000002	-0.000000	0.000000	0.000000
40.081524	13.762907	20.431535	-1.316525	1.922363	2.382817	0.000000	0.231255	0.000000	0.000002	0.000000	0.000000	0.000000
40.527484	15.146322	18.538591	-1.796501	2.304376	2.501415	0.000000	0.300888	0.000000	0.000002	0.000000	0.000000	0.000000
41.076544	16.911976	16.411496	-1.400240	1.592557	2.646094	0.000000	0.225345	0.000000	0.000002	0.000000	0.000000	0.000000
41.625604	18.185269	14.999562	-0.905073	0.994172	2.748137	0.000000	0.145806	0.000000	0.000002	-0.000000	0.000000	0.000000
42.174664	18.876260	14.202217	-0.345976	0.466599	2.805732	0.000000	0.063680	0.000000	0.000002	-0.000000	0.000000	0.000000
42.723724	18.936141	13.962671	0.237559	-0.027738	2.817858	0.000000	-0.019575	0.000000	0.000002	-0.000000	0.000000	0.000000
43.022297	18.828702	13.963835	0.171758	-0.012642	2.814212	0.000000	-0.012212	0.000000	0.000002	-0.000000	0.000000	0.000000
43.502297	18.676412	13.992474	0.145513	-0.047022	2.808350	0.000000	-0.012212	0.000000	0.000002	-0.000000	0.000000	0.000000
43.982297	18.549316	14.054118	0.119268	-0.081402	2.802488	0.000000	-0.012212	0.000000	0.000002	-0.000000	0.000000	0.000000
44.462297	18.447417	14.148766	0.093023	-0.115782	2.796626	0.000000	-0.012212	0.000000	0.000002	-0.000000	0.000000	0.000000
44.942297	18.370712	14.276420	0.066778	-0.150162	2.790764	0.000000	-0.012212	0.000000	0.000002	-0.000000	0.000000	0.000000
45.423547	18.319328	14.437360	-0.050299	-0.113100	2.784904	0.000000	0.001586	0.000000	0.000001	-0.000000	0.000000	0.000000
45.720870	18.354076	14.510816	-0.114526	-0.096044	2.785376	0.000000	0.008863	0.000000	0.000001	-0.000000	0.000000	0.000000
46.269930	18.170786	14.897016	0.446375	-0.611492	2.767674	0.000000	-0.073249	0.000000	0.000001	-0.000000	0.000000	0.000000
46.818990	17.385306	15.869692	0.975746	-1.170495	2.705178	0.000000	-0.154062	0.000000	0.000001	-0.000000	0.000000	0.000000
47.368050	16.053119	17.498126	1.436196	-1.812869	2.598998	0.000000	-0.232143	0.000000	0.000001	-0.000000	0.000000	0.000000
47.917110	14.268324	19.898307	1.795199	-2.584371	2.451015	0.000000	-0.306105	0.000000	0.000001	-0.000000	0.000000	0.000000
48.363070	12.879266	22.032385	1.330595	-2.180871	2.329794	0.000000	-0.237814	0.000000	0.000001	-0.000000	0.000000	0.000000
48.804030	11.885960	23.741118	0.930548	-1.679412	2.239386	0.000000	-0.172629	0.000000	0.000001	-0.000000	0.000000	0.000000
49.244990	11.225454	24.972092	0.573016	-1.101542	2.177262	0.000000	-0.109409	0.000000	0.000000	-0.000000	0.000000	0.000000
49.685950	10.867571	25.669298	0.241663	-0.473552	2.142713	0.000000	-0.047436	0.000000	0.000000	-0.000000	0.000000	0.000000
50.128160	10.796091	25.800733	-0.052290	0.112663	2.135359	0.000000	0.008761	0.000000	0.000000	-0.000000	0.000000	0.000000
50.425482	10.835396	25.737208	-0.079906	0.100993	2.137964	0.000000	0.008761	0.000000	0.000000	-0.000000	0.000000	0.000000
50.758816	10.898986	25.674241	-0.110865	0.087910	2.140884	0.000000	0.008761	0.000000	0.000000	-0.000000	0.000000	0.000000
51.092149	10.983217	25.619995	-0.141825	0.074826	2.143804	0.000000	0.008761	0.000000	0.000000	-0.000000	0.000000	0.000000
51.426732	11.088294	25.574837	-0.082946	-0.145782	2.146714	0.000000	-0.008655	0.000000	-0.000000	-0.000000	0.000000	0.000000
51.724055	11.145644	25.665055	-0.082612	-0.220593	2.144141	0.000000	-0.013913	0.000000	-0.000000	-0.000000	0.000000	0.000000
52.165015	11.363990	25.574102	-0.414426	0.426070	2.151594	0.000000	0.047748	0.000000	-0.000000	-0.000000	0.000000	0.000000
52.605975	11.882180	24.919247	-0.765174	1.053347	2.186331	0.000000	0.109953	0.000000	-0.000000	-0.000000	0.000000	0.000000
53.046935	12.723890	23.730285	-1.150880	1.632697	2.248747	0.000000	0.173410	0.000000	-0.000000	-0.000000	0.000000	0.000000
53.487895	13.927575	22.061313	-1.589167	2.137761	2.339554	0.000000	0.238842	0.000000	-0.000001	-0.000000	0.000000	0.000000
53.933855	15.568856	19.963311	-2.104298	2.546893	2.461290	0.000000	0.307393	0.000000	-0.000001	-0.000000	0.000000	0.000000
54.482915	17.681896	17.602628	-1.721390	1.777986	2.609887	0.000000	0.233087	0.000000	-0.000001	-0.000000	0.000000	0.000000
55.031975	19.304795	16.012216	-1.216891	1.135721	2.716489	0.000000	0.154647	0.000000	-0.000001	-0.000000	0.000000	0.000000
55.581035	20.322921	15.078793	-0.626438	0.574351	2.779205	0.000000	0.073464	0.000000	-0.000001	-0.000000	0.000000	0.000000
56.130095	20.664357	14.735875	0.008264	0.053891	2.796922	0.000000	-0.009022	0.000000	-0.000001	-0.000000	0.000000	0.000000
56.428668	20.695987	14.686804	-0.060208	0.071959	2.796410	0.000000	-0.001714	0.000000	-0.000001	-0.000000	0.000000	0.000000
56.762001	20.741513	14.646436	-0.076373	0.049145	2.795839	0.000000	-0.001714	0.000000	-0.000001	-0.000000	0.000000	0.000000
57.095334	20.797817	14.621277	-0.092537	0.026332	2.795267	0.000000	-0.001714	0.000000	-0.000001	-0.000000	0.000000	0.000000
57.429918	20.865168	14.611318	-0.108762	0.003433	2.794694	0.000000	-0.001714	0.000000	-0.000001	-0.000000	0.000000	0.000000
57.727240	20.934130	14.615327	-0.177878	0.021271	2.794184	0.000000	0.005586	0.000000	-0.000002	-0.000000	0.000000	0.000000
58.276300	20.772253	14.872705	0.470959	-0.492798	2.774610	0.000000	-0.076781	0.000000	-0.000002	-0.000000	0.000000	0.000000
58.825360	19.912006	15.710439	1.086530	-1.041969	2.710120	0.000000	-0.157786	0.000000	-0.000002	-0.000000	0.000000	0.000000
59.374420	18.414152	17.188199	1.625354	-1.665356	2.601856	0.000000	-0.235993	0.000000	-0.000002	-0.000000	0.000000	0.000000
59.923480	16.384493	19.411244	2.049371	-2.407363	2.451740	0.000000	-0.310014	0.000000	-0.000002	0.000000	0.000000	0.000000
60.369440	14.795788	21.387186	1.525681	-2.004695	2.328777	0.000000	-0.241727	0.000000	-0.000002	-0.000000	0.000000	0.000000
60.810400	13.652928	22.943914	1.075908	-1.512186	2.236634	0.000000	-0.176590	0.000000	-0.000002	-0.000000	0.000000	0.000000
61.251360	12.883638	24.034173	0.675290	-0.950873	2.172744	0.000000	-0.113464	0.000000	-0.000002	-0.000000	0.000000	0.000000
61.692320	12.452773	24.608358	0.305524	-0.346296	2.136379	0.000000	-0.051631	0.000000	-0.000002	-0.000000	0.000000	0.000000
62.134530	12.340698	24.639809	-0.020122	0.213557	2.127129	0.000000	0.004398	0.000000	-0.000002	-0.000000	0.000000	0.000000
62.431853	12.359830	24.516569	-0.044224	0.200940	2.128437	0.000000	0.004398	0.000000	-0.000002	-0.000000	0.000000	0.000000
62.765186	12.398320	24.387324	-0.071246	0.186795	2.129903	0.000000	0.004398	0.000000	-0.000002	-0.000000	0.000000	0.000000
63.098520	12.454825	24.267509	-0.098268	0.172650	2.131369	0.000000	0.004398	0.000000	-0.000002	-0.000000	0.000000	0.000000
63.433103	12.529657	24.156728	-0.125391	0.158451	2.132841	0.000000	0.004398	0.000000	-0.000002	-0.000000	0.000000	0.000000
63.730426	12.611387	24.066257	-0.118566	0.086816	2.134149	0.000000	-0.000835	0.000000	-0.000002	-0.000000	0.000000	0.000000
64.171386	12.876486	23.724635	-0.484902	0.684960	2.147323	0.000000	0.060642	0.000000	-0.000002	-0.000000	0.000000	0.000000
64.612346	13.473175	22.867278	-0.873391	1.251939	2.187732	0.000000	0.122809	0.000000	-0.000002	-0.000000	0.000000	0.000000
65.053306	14.428715	21.533194	-1.301782	1.761956	2.255836	0.000000	0.186376	0.000000	-0.000002	-0.000000	0.000000	0.000000
65.494266	15.786760	19.783084	-1.789649	2.191805	2.352412	0.000000	0.252065	0.000000	-0.000003	-0.000000	0.000000	0.000000
65.940226	17.632527	17.671801	-2.363974	2.522687	2.480131	0.000000	0.321027	0.000000	-0.000003	-0.000000	0.000000	0.000000
66.489286	19.998405	15.309849	-1.919480	1.804516	2.636025	0.000000	0.245993	0.000000	-0.000003	-0.000000	0.000000	0.000000
67.038346	21.798383	13.661750	-1.339405	1.214876	2.749459	0.000000	0.166595	0.000000	-0.000003	-0.000000	0.000000	0.000000
67.587406	22.905320	12.610114	-0.664720	0.711770	2.818423	0.000000	0.084242	0.000000	-0.000003	-0.000000	0.000000	0.000000
68.136466	23.241028	12.080034	0.056917	0.259361	2.841693	0.000000	0.000395	0.000000	-0.000003	-0.000000	0.000000	0.000000
68.435038	23.247139	11.914314	-0.016656	0.264117	2.844028	0.000000	0.007820	0.000000	-0.000003	-0.000000	0.000000	0.000000
68.768372	23.263024	11.748212	-0.030999	0.234187	2.846635	0.000000	0.007820	0.000000	-0.000004	-0.000000	0.000000	0.000000
69.101705	23.288471	11.602064	-0.045342	0.204258	2.849242	0.000000	0.007820	0.000000	-0.000004	-0.000000	0.000000	0.000000
69.436288	23.323629	11.475432	-0.059738	0.174217	2.851859	0.000000	0.007820	0.000000	-0.000004	-0.000000	0.000000	0.000000
69.733611	23.362956	11.379772	-0.133576	0.177255	2.854184	0.000000	0.015278	0.000000	-0.000004	-0.000000	0.000000	0.000000
70.282671	23.108402	11.412945	0.594449	-0.238030	2.839383	0.000000	-0.069111	0.000000	-0.000004	0.000000	0.000000	0.000000
