#ParticleID	Turn	x[m]	xp	y[m]	yp	z[m]	dE[GeV]# s	beta_x	beta_y	alpha_x	alpha_y	D_x	D_y	D_px	D_py	orbit_x	orbit_px	orbit_y	orbit_py
0.300000	11.824000	24.976977	-0.012297	-0.027620	2.618144	0.000000	-0.000001	0.000000	0.000001	0.000000	0.000000	0.000000
0.601250	11.839085	24.997254	-0.037779	-0.039690	2.618144	0.000000	-0.000001	0.000000	0.000001	0.000000	0.000000	0.000000
0.898573	11.869028	25.024398	-0.033823	-0.112970	2.618143	0.000000	-0.006421	0.000000	0.000001	0.000000	0.000000	0.000000
1.339533	12.051112	24.846463	-0.380671	0.514951	2.631605	0.000000	0.067537	0.000000	0.000001	0.000001	0.000000	0.000000
1.780493	12.545574	24.123008	-0.744912	1.119442	2.677818	0.000000	0.142264	0.000000	0.000001	0.000001	0.000000	0.000000
2.221453	13.375003	22.886949	-1.143186	1.673000	2.757308	0.000000	0.218611	0.000000	0.000002	0.000001	0.000000	0.000000
2.662413	14.577294	21.194525	-1.593688	2.150437	2.870980	0.000000	0.297449	0.000000	0.000002	0.000001	0.000000	0.000000
3.108373	16.228158	19.097920	-2.121298	2.531162	3.021991	0.000000	0.380163	0.000000	0.000002	0.000001	0.000000	0.000000
3.657433	18.345085	16.743190	-1.711427	1.782810	3.205452	0.000000	0.287126	0.000000	0.000003	0.000001	0.000000	0.000000
4.206493	19.942476	15.136104	-1.180670	1.161443	3.336354	0.000000	0.188995	0.000000	0.000003	0.000001	0.000000	0.000000
4.755553	20.907498	14.162194	-0.566516	0.622803	3.412375	0.000000	0.087512	0.000000	0.000003	0.000000	0.000000	0.000000
5.304613	21.171988	13.752091	0.087654	0.128525	3.432167	0.000000	-0.015523	0.000000	0.000003	0.000000	0.000000	0.000000
5.603185	21.156893	13.660545	0.018220	0.142157	3.430209	0.000000	-0.006556	0.000000	0.000003	0.000000	0.000000	0.000000
5.936519	21.149999	13.574072	0.002460	0.117263	3.428023	0.000000	-0.006556	0.000000	0.000004	0.000000	0.000000	0.000000
6.269852	21.153613	13.504195	-0.013301	0.092368	3.425838	0.000000	-0.006556	0.000000	0.000004	0.000000	0.000000	0.000000
6.604435	21.167807	13.450746	-0.029121	0.067381	3.423644	0.000000	-0.006556	0.000000	0.000004	0.000000	0.000000	0.000000
6.901758	21.189303	13.417280	-0.098540	0.080232	3.421695	0.000000	0.002384	0.000000	0.000004	0.000000	0.000000	0.000000
7.450818	20.936338	13.589801	0.556537	-0.396297	3.394803	0.000000	-0.100197	0.000000	0.000004	0.000000	0.000000	0.000000
7.999878	19.981449	14.297945	1.172303	-0.901054	3.311993	0.000000	-0.201001	0.000000	0.000004	0.000000	0.000000	0.000000
8.548938	18.392084	15.592151	1.705263	-1.469990	3.174734	0.000000	-0.298239	0.000000	0.000004	-0.000000	0.000000	0.000000
9.097998	16.280508	17.564603	2.117773	-2.143631	2.985462	0.000000	-0.390188	0.000000	0.000004	-0.000000	0.000000	0.000000
9.543958	14.633019	19.322197	1.589614	-1.780859	2.829761	0.000000	-0.308481	0.000000	0.000004	-0.000000	0.000000	0.000000
9.984918	13.434632	20.702872	1.138374	-1.338291	2.710979	0.000000	-0.230773	0.000000	0.000004	0.000000	0.000000	0.000000
10.425878	12.609851	21.664792	0.739143	-0.834831	2.625852	0.000000	-0.155692	0.000000	0.000004	0.000000	0.000000	0.000000
10.866838	12.120994	22.164192	0.373682	-0.293387	2.573411	0.000000	-0.082385	0.000000	0.000004	0.000000	0.000000	0.000000
11.309048	11.945591	22.177831	0.054481	0.206961	2.553037	0.000000	-0.016277	0.000000	0.000004	0.000000	0.000000	0.000000
11.606371	11.920616	22.058919	0.029518	0.192980	2.548198	0.000000	-0.016277	0.000000	0.000004	0.000000	0.000000	0.000000
12.086371	11.911624	21.884492	-0.010784	0.170410	2.540385	0.000000	-0.016277	0.000000	0.000004	0.000000	0.000000	0.000000
12.566371	11.941322	21.731732	-0.051085	0.147840	2.532572	0.000000	-0.016277	0.000000	0.000005	0.000000	0.000000	0.000000
13.046371	12.009708	21.600639	-0.091387	0.125270	2.524759	0.000000	-0.016277	0.000000	0.000005	0.000000	0.000000	0.000000
13.526371	12.116784	21.491214	-0.131688	0.102699	2.516946	0.000000	-0.016277	0.000000	0.000005	0.000000	0.000000	0.000000
14.007621	12.262980	21.403256	-0.172095	0.080070	2.509113	0.000000	-0.016277	0.000000	0.000005	0.000000	0.000000	0.000000
14.304943	12.372737	21.359800	-0.166718	0.013712	2.504273	0.000000	-0.022417	0.000000	0.000005	0.000000	0.000000	0.000000
14.745903	12.678419	21.113906	-0.529131	0.541799	2.510020	0.000000	0.048506	0.000000	0.000005	0.000000	0.000000	0.000000
15.186863	13.313132	20.411414	-0.915718	1.045236	2.547132	0.000000	0.119981	0.000000	0.000005	0.000001	0.000000	0.000000
15.627823	14.305874	19.284286	-1.344142	1.501115	2.616033	0.000000	0.192823	0.000000	0.000006	0.000001	0.000000	0.000000
16.068783	15.702000	17.783806	-1.833976	1.888694	2.717508	0.000000	0.267861	0.000000	0.000006	0.000001	0.000000	0.000000
16.514743	17.588951	15.956742	-2.412356	2.191087	2.854407	0.000000	0.346412	0.000000	0.000006	0.000001	0.000000	0.000000
17.063803	20.012317	13.916572	-1.975178	1.546595	3.020877	0.000000	0.259079	0.000000	0.000007	0.000001	0.000000	0.000000
17.612863	21.875690	12.519849	-1.398483	1.012265	3.138062	0.000000	0.167151	0.000000	0.000007	0.000001	0.000000	0.000000
18.161923	23.047452	11.667086	-0.723007	0.550035	3.203884	0.000000	0.072258	0.000000	0.000008	0.000000	0.000000	0.000000
18.710983	23.444835	11.297544	0.003540	0.126983	3.217175	0.000000	-0.023916	0.000000	0.000008	0.000000	0.000000	0.000000
19.009556	23.483113	11.212174	-0.070491	0.129425	3.212544	0.000000	-0.015511	0.000000	0.000008	0.000000	0.000000	0.000000
19.342889	23.534862	11.135967	-0.084756	0.099197	3.207373	0.000000	-0.015511	0.000000	0.000008	0.000000	0.000000	0.000000
19.676223	23.596121	11.079912	-0.099021	0.068969	3.202203	0.000000	-0.015511	0.000000	0.000008	0.000000	0.000000	0.000000
20.010806	23.667467	11.043775	-0.230602	0.093346	3.197033	0.000000	0.000329	0.000000	0.000008	0.000000	0.000000	0.000000
20.308129	23.808527	10.996341	-0.306035	0.094919	3.197131	0.000000	0.008682	0.000000	0.000008	0.000000	0.000000	0.000000
20.857189	23.733959	11.114512	0.441042	-0.311413	3.175678	0.000000	-0.086711	0.000000	0.000008	-0.000000	0.000000	0.000000
21.406249	22.851332	11.688373	1.156966	-0.739926	3.102195	0.000000	-0.180566	0.000000	0.000008	-0.000000	0.000000	0.000000
21.955309	21.222990	12.758799	1.791167	-1.221143	2.977984	0.000000	-0.271218	0.000000	0.000008	-0.000001	0.000000	0.000000
22.504369	18.963953	14.402034	2.298850	-1.789338	2.805249	0.000000	-0.357059	0.000000	0.000007	-0.000001	0.000000	0.000000
22.950329	17.183717	15.877255	1.707160	-1.504672	2.663309	0.000000	-0.279849	0.000000	0.000007	-0.000001	0.000000	0.000000
23.391289	15.907428	17.053394	1.198162	-1.152401	2.556230	0.000000	-0.206280	0.000000	0.000007	-0.000000	0.000000	0.000000
23.832249	15.054291	17.894462	0.743904	-0.747697	2.481042	0.000000	-0.135061	0.000000	0.000006	-0.000000	0.000000	0.000000
24.273209	14.585328	18.362190	0.323634	-0.308973	2.436891	0.000000	-0.065380	0.000000	0.000006	-0.000000	0.000000	0.000000
24.715418	14.479230	18.435052	-0.046432	0.098535	2.423270	0.000000	-0.002386	0.000000	0.000006	-0.000000	0.000000	0.000000
25.012741	14.512959	18.381301	-0.067011	0.082250	2.422561	0.000000	-0.002386	0.000000	0.000006	-0.000000	0.000000	0.000000
25.346075	14.565323	18.332553	-0.090082	0.063993	2.421766	0.000000	-0.002386	0.000000	0.000006	-0.000000	0.000000	0.000000
25.679408	14.633068	18.295977	-0.113153	0.045736	2.420970	0.000000	-0.002386	0.000000	0.000006	-0.000000	0.000000	0.000000
26.013991	14.716236	18.271873	-0.016923	-0.120820	2.420148	0.000000	-0.022020	0.000000	0.000006	-0.000000	0.000000	0.000000
26.311314	14.732308	18.348627	-0.001006	-0.182323	2.413601	0.000000	-0.027938	0.000000	0.000006	-0.000000	0.000000	0.000000
26.752274	14.914720	18.310395	-0.414234	0.268694	2.416392	0.000000	0.040609	0.000000	0.000006	0.000000	0.000000	0.000000
27.193234	15.468502	17.878295	-0.846386	0.707486	2.449482	0.000000	0.109619	0.000000	0.000006	0.000000	0.000000	0.000000
27.634194	16.418955	17.071986	-1.317208	1.114087	2.513250	0.000000	0.179877	0.000000	0.000006	0.000000	0.000000	0.000000
28.075154	17.809502	15.928154	-1.848209	1.469999	2.608420	0.000000	0.252184	0.000000	0.000007	0.000001	0.000000	0.000000
28.521114	19.727835	14.481616	-2.468609	1.759940	2.737680	0.000000	0.327807	0.000000	0.000007	0.000001	0.000000	0.000000
29.070174	22.166047	12.869792	-1.945805	1.192994	2.895001	0.000000	0.244405	0.000000	0.000007	0.000001	0.000000	0.000000
29.619234	23.950826	11.830507	-1.285559	0.711023	3.005269	0.000000	0.156667	0.000000	0.000008	0.000000	0.000000	0.000000
30.168294	24.956103	11.289734	-0.534508	0.279697	3.066530	0.000000	0.066151	0.000000	0.000008	0.000000	0.000000	0.000000
30.717354	25.110871	11.208955	0.254299	-0.131707	3.077695	0.000000	-0.025539	0.000000	0.000008	-0.000000	0.000000	0.000000
31.015927	25.001870	11.278152	0.176379	-0.129338	3.072471	0.000000	-0.017498	0.000000	0.000008	-0.000000	0.000000	0.000000
31.349260	24.888866	11.374394	0.162632	-0.159388	3.066638	0.000000	-0.017498	0.000000	0.000008	-0.000000	0.000000	0.000000
31.682593	24.785027	11.490670	0.148885	-0.189439	3.060806	0.000000	-0.017498	0.000000	0.000007	-0.000000	0.000000	0.000000
32.017177	24.690015	11.627528	0.135086	-0.219601	3.054951	0.000000	-0.017498	0.000000	0.000007	-0.000000	0.000000	0.000000
32.314499	24.613333	11.766082	0.058518	-0.215664	3.049749	0.000000	-0.009530	0.000000	0.000007	-0.000000	0.000000	0.000000
32.863559	24.127408	12.242200	0.821255	-0.656604	3.019634	0.000000	-0.100007	0.000000	0.000007	-0.000000	0.000000	0.000000
33.412619	22.830959	13.225209	1.525982	-1.144313	2.940255	0.000000	-0.188711	0.000000	0.000007	-0.000001	0.000000	0.000000
33.961679	20.815561	14.785128	2.122921	-1.713528	2.813022	0.000000	-0.274067	0.000000	0.000007	-0.000001	0.000000	0.000000
34.510739	18.223572	17.033066	2.569908	-2.404795	2.640191	0.000000	-0.354562	0.000000	0.000006	-0.000001	0.000000	0.000000
34.956699	16.208273	19.043721	1.965295	-2.084979	2.498413	0.000000	-0.281631	0.000000	0.000006	-0.000001	0.000000	0.000000
35.397659	14.705550	20.706304	1.455478	-1.671045	2.389607	0.000000	-0.212335	0.000000	0.000005	-0.000001	0.000000	0.000000
35.838619	13.621534	21.968782	1.012157	-1.181081	2.310796	0.000000	-0.145458	0.000000	0.000005	-0.000001	0.000000	0.000000
36.279579	12.906699	22.773713	0.615079	-0.637378	2.261082	0.000000	-0.080238	0.000000	0.000005	-0.000001	0.000000	0.000000
36.721789	12.527696	23.084776	0.276717	-0.121337	2.239873	0.000000	-0.021424	0.000000	0.000004	-0.000000	0.000000	0.000000
37.019112	12.370744	23.160814	0.251167	-0.134406	2.233503	0.000000	-0.021424	0.000000	0.000004	-0.000000	0.000000	0.000000
37.352445	12.212848	23.255302	0.222521	-0.149059	2.226362	0.000000	-0.021424	0.000000	0.000004	-0.000000	0.000000	0.000000
37.685779	12.074049	23.359559	0.193876	-0.163711	2.219220	0.000000	-0.021424	0.000000	0.000004	-0.000000	0.000000	0.000000
38.020362	11.953933	23.474029	0.165124	-0.178418	2.212052	0.000000	-0.021424	0.000000	0.000004	-0.000000	0.000000	0.000000
38.317684	11.863340	23.584010	0.168665	-0.249320	2.205683	0.000000	-0.026833	0.000000	0.000004	-0.000000	0.000000	0.000000
38.758644	11.865882	23.542680	-0.174451	0.342691	2.207778	0.000000	0.036346	0.000000	0.000004	-0.000000	0.000000	0.000000
39.199604	12.173382	22.984152	-0.525538	0.919109	2.237798	0.000000	0.099938	0.000000	0.000004	-0.000000	0.000000	0.000000
39.640564	12.799891	21.933837	-0.900634	1.453709	2.296083	0.000000	0.164668	0.000000	0.000003	-0.000000	0.000000	0.000000
40.081524	13.774029	20.439525	-1.316878	1.922166	2.383297	0.000000	0.231274	0.000000	0.000003	-0.000000	0.000000	0.000000
40.527484	15.157873	18.546637	-1.797112	2.304446	2.501906	0.000000	0.300920	0.000000	0.000003	0.000000	0.000000	0.000000
41.076544	16.923966	16.419569	-1.400423	1.592439	2.646599	0.000000	0.225361	0.000000	0.000003	-0.000000	0.000000	0.000000
41.625604	18.197218	15.007870	-0.904815	0.993858	2.748646	0.000000	0.145805	0.000000	0.000003	-0.000000	0.000000	0.000000
42.174664	18.887691	14.210987	-0.345296	0.466067	2.806236	0.000000	0.063663	0.000000	0.000003	-0.000000	0.000000	0.000000
42.723724	18.946614	13.972160	0.238614	-0.028526	2.818349	0.000000	-0.019608	0.000000	0.000003	-0.000000	0.000000	0.000000
43.022297	18.838561	13.973776	0.172789	-0.013391	2.814693	0.000000	-0.012244	0.000000	0.000003	-0.000000	0.000000	0.000000
43.502297	18.685279	14.003123	0.146548	-0.047747	2.808816	0.000000	-0.012244	0.000000	0.000003	-0.000000	0.000000	0.000000
43.982297	18.557188	14.065451	0.120308	-0.082104	2.802939	0.000000	-0.012244	0.000000	0.000003	-0.000000	0.000000	0.000000
44.462297	18.454288	14.160761	0.094068	-0.116460	2.797062	0.000000	-0.012244	0.000000	0.000002	-0.000000	0.000000	0.000000
44.942297	18.376578	14.289054	0.067827	-0.150816	2.791185	0.000000	-0.012244	0.000000	0.000002	-0.000000	0.000000	0.000000
45.423547	18.324182	14.450612	-0.049270	-0.113664	2.785310	0.000000	0.001556	0.000000	0.000002	-0.000000	0.000000	0.000000
45.720870	18.358316	14.524399	-0.113501	-0.096556	2.785773	0.000000	0.008834	0.000000	0.000002	-0.000000	0.000000	0.000000
46.269930	18.173831	14.911392	0.447513	-0.612433	2.768052	0.000000	-0.073290	0.000000	0.000002	-0.000000	0.000000	0.000000
46.818990	17.387076	15.885367	0.976917	-1.171932	2.705530	0.000000	-0.154115	0.000000	0.000001	-0.000000	0.000000	0.000000
47.368050	16.053623	17.515696	1.437317	-1.814905	2.599317	0.000000	-0.232207	0.000000	0.000001	-0.000001	0.000000	0.000000
47.917110	14.267661	19.918505	1.796191	-2.587150	2.451297	0.000000	-0.306179	0.000000	0.000001	-0.000001	0.000000	0.000000
48.363070	12.877756	22.054876	1.331509	-2.183210	2.330045	0.000000	-0.237881	0.000000	0.000001	-0.000001	0.000000	0.000000
48.804030	11.883663	23.765438	0.931427	-1.681206	2.239609	0.000000	-0.172689	0.000000	0.000000	-0.000001	0.000000	0.000000
49.244990	11.222383	24.997722	0.573900	-1.102709	2.177459	0.000000	-0.109465	0.000000	0.000000	-0.000001	0.000000	0.000000
49.685950	10.863703	25.695660	0.242592	-0.474039	2.142888	0.000000	-0.047486	0.000000	-0.000000	-0.000001	0.000000	0.000000
50.128160	10.791365	25.827216	-0.051284	0.112813	2.135512	0.000000	0.008714	0.000000	-0.000000	-0.000001	0.000000	0.000000
50.425482	10.830074	25.763598	-0.078909	0.101155	2.138103	0.000000	0.008714	0.000000	-0.000000	-0.000001	0.000000	0.000000
50.758816	10.893003	25.700518	-0.109879	0.088084	2.141008	0.000000	0.008714	0.000000	-0.000001	-0.000001	0.000000	0.000000
51.092149	10.976579	25.646152	-0.140849	0.075014	2.143912	0.000000	0.008714	0.000000	-0.000001	-0.000001	0.000000	0.000000
51.426732	11.081007	25.600864	-0.082039	-0.145792	2.146806	0.000000	-0.008702	0.000000	-0.000001	-0.000000	0.000000	0.000000
51.724055	11.137822	25.691085	-0.081738	-0.220656	2.144219	0.000000	-0.013961	0.000000	-0.000001	-0.000000	0.000000	0.000000
52.165015	11.355312	25.599883	-0.413351	0.426695	2.151652	0.000000	0.047702	0.000000	-0.000001	-0.000001	0.000000	0.000000
52.605975	11.872448	24.944183	-0.763849	1.054631	2.186369	0.000000	0.109908	0.000000	-0.000002	-0.000001	0.000000	0.000000
53.046935	12.712857	23.753818	-1.149245	1.634583	2.248766	0.000000	0.173366	0.000000	-0.000002	-0.000001	0.000000	0.000000
53.487895	13.914936	22.082948	-1.587147	2.140162	2.339553	0.000000	0.238798	0.000000	-0.000002	-0.000001	0.000000	0.000000
53.933855	15.554207	19.982614	-2.101795	2.549701	2.461270	0.000000	0.307349	0.000000	-0.000002	-0.000001	0.000000	0.000000
54.482915	17.664686	17.619261	-1.719255	1.780068	2.609843	0.000000	0.233044	0.000000	-0.000003	-0.000001	0.000000	0.000000
55.031975	19.285513	16.026892	-1.215275	1.137225	2.716422	0.000000	0.154606	0.000000	-0.000003	-0.000001	0.000000	0.000000
55.581035	20.302203	15.092085	-0.625455	0.575384	2.779116	0.000000	0.073425	0.000000	-0.000003	-0.000000	0.000000	0.000000
56.130095	20.642940	14.748256	0.008545	0.054527	2.796813	0.000000	-0.009058	0.000000	-0.000004	-0.000000	0.000000	0.000000
56.428668	20.674374	14.698781	-0.059886	0.072642	2.796291	0.000000	-0.001750	0.000000	-0.000004	-0.000000	0.000000	0.000000
56.762001	20.719692	14.657952	-0.076067	0.049845	2.795707	0.000000	-0.001750	0.000000	-0.000004	-0.000000	0.000000	0.000000
57.095334	20.775797	14.632321	-0.092248	0.027048	2.795124	0.000000	-0.001750	0.000000	-0.000004	-0.000000	0.000000	0.000000
57.429918	20.842961	14.621878	-0.108490	0.004165	2.794539	0.000000	-0.001750	0.000000	-0.000004	-0.000000	0.000000	0.000000
57.727240	20.911765	14.625447	-0.177563	0.022045	2.794019	0.000000	0.005551	0.000000	-0.000004	-0.000000	0.000000	0.000000
58.276300	20.749954	14.882131	0.470522	-0.492302	2.774427	0.000000	-0.076811	0.000000	-0.000004	-0.000000	0.000000	0.000000
58.825360	19.890588	15.719455	1.085372	-1.041714	2.709921	0.000000	-0.157811	0.000000	-0.000004	-0.000000	0.000000	0.000000
59.374420	18.394366	17.197060	1.623557	-1.665325	2.601646	0.000000	-0.236011	0.000000	-0.000004	0.000000	0.000000	0.000000
59.923480	16.366975	19.420193	2.047062	-2.407554	2.451522	0.000000	-0.310025	0.000000	-0.000004	0.000000	0.000000	0.000000
60.369440	14.780096	21.396178	1.523883	-2.004601	2.328553	0.000000	-0.241743	0.000000	-0.000004	0.000000	0.000000	0.000000
60.810400	13.638627	22.952698	1.074536	-1.511811	2.236402	0.000000	-0.176612	0.000000	-0.000004	-0.000000	0.000000	0.000000
61.251360	12.870383	24.042509	0.674281	-0.950236	2.172501	0.000000	-0.113492	0.000000	-0.000004	-0.000000	0.000000	0.000000
61.692320	12.440266	24.616026	0.304832	-0.345425	2.136121	0.000000	-0.051665	0.000000	-0.000004	-0.000000	0.000000	0.000000
62.134530	12.328674	24.646617	-0.020557	0.214604	2.126855	0.000000	0.004357	0.000000	-0.000004	-0.000000	0.000000	0.000000
62.431853	12.348072	24.522756	-0.044684	0.201985	2.128151	0.000000	0.004357	0.000000	-0.000004	-0.000000	0.000000	0.000000
62.765186	12.386878	24.392815	-0.071732	0.187838	2.129604	0.000000	0.004357	0.000000	-0.000005	-0.000000	0.000000	0.000000
63.098520	12.443715	24.272305	-0.098781	0.173691	2.131056	0.000000	0.004357	0.000000	-0.000005	-0.000000	0.000000	0.000000
63.433103	12.518900	24.160828	-0.125931	0.159490	2.132514	0.000000	0.004357	0.000000	-0.000005	-0.000000	0.000000	0.000000
63.730426	12.600958	24.069740	-0.119155	0.087842	2.133810	0.000000	-0.000876	0.000000	-0.000005	-0.000000	0.000000	0.000000
64.171386	12.866477	23.727180	-0.485267	0.686052	2.146964	0.000000	0.060592	0.000000	-0.000005	-0.000000	0.000000	0.000000
64.612346	13.463396	22.868848	-0.873550	1.253047	2.187349	0.000000	0.122751	0.000000	-0.000005	-0.000001	0.000000	0.000000
65.053306	14.418987	21.533799	-1.301742	1.763029	2.255425	0.000000	0.186307	0.000000	-0.000006	-0.000001	0.000000	0.000000
65.494266	15.776909	19.782776	-1.789407	2.192795	2.351968	0.000000	0.251985	0.000000	-0.000006	-0.000001	0.000000	0.000000
65.940226	17.622366	17.670664	-2.363519	2.523547	2.479650	0.000000	0.320935	0.000000	-0.000006	-0.000001	0.000000	0.000000
66.489286	19.987958	15.307820	-1.919417	1.805292	2.635497	0.000000	0.245917	0.000000	-0.000007	-0.000001	0.000000	0.000000
67.038346	21.788085	13.658889	-1.339738	1.215624	2.748895	0.000000	0.166537	0.000000	-0.000007	-0.000001	0.000000	0.000000
67.587406	22.895596	12.606422	-0.665426	0.712543	2.817833	0.000000	0.084203	0.000000	-0.000007	-0.000000	0.000000	0.000000
68.136466	23.232261	12.075455	0.055888	0.260214	2.841086	0.000000	0.000375	0.000000	-0.000008	-0.000000	0.000000	0.000000
68.435038	23.238975	11.909238	-0.017669	0.264937	2.843415	0.000000	0.007799	0.000000	-0.000008	-0.000000	0.000000	0.000000
68.768372	23.255537	11.742599	-0.032017	0.234982	2.846015	0.000000	0.007799	0.000000	-0.000008	-0.000000	0.000000	0.000000
69.101705	23.281665	11.595928	-0.046365	0.205028	2.848615	0.000000	0.007799	0.000000	-0.000008	-0.000000	0.000000	0.000000
69.436288	23.317509	11.468790	-0.060767	0.174962	2.851224	0.000000	0.007799	0.000000	-0.000008	-0.000000	0.000000	0.000000
69.733611	23.357450	11.372694	-0.134598	0.177960	2.853543	0.000000	0.015255	0.000000	-0.000008	-0.000000	0.000000	0.000000
70.282671	23.104109	11.404981	0.593275	-0.237112	2.838736	0.000000	-0.069112	0.000000	-0.000008	0.000000	0.000000	0.000000
