#ParticleID	Turn	x[m]	xp	y[m]	yp	z[m]	dE[GeV]# s	beta_x	beta_y	alpha_x	alpha_y	D_x	D_y	D_px	D_py	orbit_x	orbit_px	orbit_y	orbit_py
0.300000	11.814079	25.017002	-0.011100	-0.027278	2.618113	0.000000	0.000011	0.000000	-0.000002	0.000001	0.000000	0.000000
0.601250	11.828450	25.037067	-0.036603	-0.039328	2.618116	0.000000	0.000011	0.000000	-0.000001	0.000001	0.000000	0.000000
0.898573	11.857699	25.063989	-0.032694	-0.112686	2.618119	0.000000	-0.006409	0.000000	-0.000001	0.000001	0.000000	0.000000
1.339533	12.038666	24.885343	-0.379255	0.516275	2.631586	0.000000	0.067548	0.000000	-0.000000	0.000001	0.000000	0.000000
1.780493	12.531729	24.160282	-0.743144	1.121746	2.677803	0.000000	0.142275	0.000000	0.000000	0.000001	0.000000	0.000000
2.221453	13.359415	22.921797	-1.140985	1.676178	2.757298	0.000000	0.218622	0.000000	0.000001	0.000001	0.000000	0.000000
2.662413	14.559538	21.226236	-1.590954	2.154346	2.870975	0.000000	0.297459	0.000000	0.000002	0.000001	0.000000	0.000000
3.108373	16.207676	19.125882	-2.117900	2.535625	3.021990	0.000000	0.380174	0.000000	0.000002	0.000001	0.000000	0.000000
3.657433	18.321140	16.766877	-1.708554	1.786178	3.205456	0.000000	0.287136	0.000000	0.000003	0.000001	0.000000	0.000000
4.206493	19.915759	15.156582	-1.178524	1.163956	3.336363	0.000000	0.189005	0.000000	0.000004	0.000001	0.000000	0.000000
4.755553	20.878898	14.180299	-0.565250	0.624640	3.412389	0.000000	0.087522	0.000000	0.000004	0.000001	0.000000	0.000000
5.304613	21.142524	13.768488	0.087951	0.129815	3.432186	0.000000	-0.015514	0.000000	0.000005	0.000001	0.000000	0.000000
5.603185	21.127211	13.676141	0.018575	0.143507	3.430231	0.000000	-0.006547	0.000000	0.000005	0.000001	0.000000	0.000000
5.936519	21.120089	13.588762	0.002792	0.118632	3.428048	0.000000	-0.006547	0.000000	0.000005	0.000001	0.000000	0.000000
6.269852	21.123489	13.517966	-0.012991	0.093756	3.425866	0.000000	-0.006547	0.000000	0.000006	0.000001	0.000000	0.000000
6.604435	21.137482	13.463581	-0.028833	0.068788	3.423675	0.000000	-0.006547	0.000000	0.000006	0.000001	0.000000	0.000000
6.901758	21.158813	13.429274	-0.098192	0.081686	3.421728	0.000000	0.002393	0.000000	0.000006	0.000001	0.000000	0.000000
7.450818	20.906029	13.600376	0.555863	-0.395155	3.394840	0.000000	-0.100189	0.000000	0.000007	0.000001	0.000000	0.000000
7.999878	19.952423	14.307398	1.170654	-0.900142	3.312034	0.000000	-0.200994	0.000000	0.000007	0.000001	0.000000	0.000000
8.548938	18.365354	15.600699	1.702756	-1.469244	3.174779	0.000000	-0.298234	0.000000	0.000007	0.000000	0.000000	0.000000
9.097998	16.256924	17.572398	2.114584	-2.142997	2.985509	0.000000	-0.390184	0.000000	0.000007	0.000000	0.000000	0.000000
9.543958	14.611960	19.329282	1.587121	-1.779907	2.829809	0.000000	-0.308476	0.000000	0.000007	0.000000	0.000000	0.000000
9.984918	13.415509	20.708993	1.136458	-1.337067	2.711030	0.000000	-0.230766	0.000000	0.000007	0.000000	0.000000	0.000000
10.425878	12.592196	21.669734	0.737717	-0.833391	2.625906	0.000000	-0.155684	0.000000	0.000008	0.000001	0.000000	0.000000
10.866838	12.104406	22.167792	0.372680	-0.291797	2.573468	0.000000	-0.082376	0.000000	0.000008	0.000001	0.000000	0.000000
11.309048	11.929718	22.179984	0.053818	0.208626	2.553099	0.000000	-0.016266	0.000000	0.000008	0.000001	0.000000	0.000000
11.606371	11.905147	22.060085	0.028823	0.194638	2.548262	0.000000	-0.016266	0.000000	0.000009	0.000001	0.000000	0.000000
12.086371	11.896847	21.884072	-0.011529	0.172055	2.540454	0.000000	-0.016266	0.000000	0.000009	0.000001	0.000000	0.000000
12.566371	11.927284	21.729739	-0.051882	0.149472	2.532646	0.000000	-0.016266	0.000000	0.000010	0.000001	0.000000	0.000000
13.046371	11.996459	21.597086	-0.092234	0.126889	2.524838	0.000000	-0.016266	0.000000	0.000010	0.000001	0.000000	0.000000
13.526371	12.104373	21.486113	-0.132586	0.104306	2.517030	0.000000	-0.016266	0.000000	0.000011	0.000001	0.000000	0.000000
14.007621	12.251457	21.396615	-0.173043	0.081664	2.509201	0.000000	-0.016266	0.000000	0.000011	0.000001	0.000000	0.000000
14.304943	12.361788	21.352213	-0.167727	0.015320	2.504365	0.000000	-0.022407	0.000000	0.000012	0.000001	0.000000	0.000000
14.745903	12.668261	21.105001	-0.529923	0.543167	2.510116	0.000000	0.048519	0.000000	0.000012	0.000001	0.000000	0.000000
15.186863	13.303591	20.401432	-0.916329	1.046302	2.547234	0.000000	0.119997	0.000000	0.000013	0.000002	0.000000	0.000000
15.627823	14.296803	19.273515	-1.344601	1.501830	2.616143	0.000000	0.192842	0.000000	0.000013	0.000002	0.000000	0.000000
16.068783	15.693275	17.772571	-1.834303	1.889026	2.717626	0.000000	0.267883	0.000000	0.000014	0.000002	0.000000	0.000000
16.514743	17.580465	15.945389	-2.412567	2.191018	2.854534	0.000000	0.346437	0.000000	0.000016	0.000003	0.000000	0.000000
17.063803	20.004283	13.905166	-1.975785	1.546761	3.021016	0.000000	0.259100	0.000000	0.000017	0.000002	0.000000	0.000000
17.612863	21.868524	12.508127	-1.399444	1.012677	3.138211	0.000000	0.167167	0.000000	0.000018	0.000002	0.000000	0.000000
18.161923	23.041505	11.654763	-0.724253	0.550723	3.204039	0.000000	0.072269	0.000000	0.000019	0.000001	0.000000	0.000000
18.710983	23.440375	11.284292	0.002096	0.127996	3.217335	0.000000	-0.023910	0.000000	0.000019	0.000000	0.000000	0.000000
19.009556	23.479506	11.198353	-0.071922	0.130360	3.212705	0.000000	-0.015505	0.000000	0.000019	0.000000	0.000000	0.000000
19.342889	23.532211	11.121537	-0.086192	0.100088	3.207536	0.000000	-0.015505	0.000000	0.000019	0.000000	0.000000	0.000000
19.676223	23.594429	11.064902	-0.100463	0.069816	3.202368	0.000000	-0.015505	0.000000	0.000019	0.000000	0.000000	0.000000
20.010806	23.666741	11.028214	-0.232045	0.094071	3.197199	0.000000	0.000335	0.000000	0.000020	0.000001	0.000000	0.000000
20.308129	23.808662	10.980362	-0.307481	0.095557	3.197299	0.000000	0.008688	0.000000	0.000020	0.000001	0.000000	0.000000
20.857189	23.735672	11.097583	0.439631	-0.310311	3.175848	0.000000	-0.086711	0.000000	0.000020	-0.000000	0.000000	0.000000
21.406249	22.854528	11.669945	1.155690	-0.738282	3.102363	0.000000	-0.180571	0.000000	0.000020	-0.000001	0.000000	0.000000
21.955309	21.227470	12.738217	1.790117	-1.218840	2.978148	0.000000	-0.271228	0.000000	0.000019	-0.000001	0.000000	0.000000
22.504369	18.969427	14.378490	2.298099	-1.786212	2.805406	0.000000	-0.357075	0.000000	0.000018	-0.000002	0.000000	0.000000
22.950329	17.189874	15.851156	1.706372	-1.502094	2.663460	0.000000	-0.279861	0.000000	0.000018	-0.000001	0.000000	0.000000
23.391289	15.914308	17.025306	1.197302	-1.150487	2.556377	0.000000	-0.206288	0.000000	0.000017	-0.000001	0.000000	0.000000
23.832249	15.061975	17.865012	0.742933	-0.746533	2.481187	0.000000	-0.135065	0.000000	0.000017	-0.000001	0.000000	0.000000
24.273209	14.593934	18.332066	0.322507	-0.308612	2.437035	0.000000	-0.065380	0.000000	0.000017	-0.000000	0.000000	0.000000
24.715418	14.488921	18.404972	-0.047746	0.098154	2.423415	0.000000	-0.002382	0.000000	0.000017	0.000000	0.000000	0.000000
25.012741	14.523428	18.351455	-0.068314	0.081844	2.422706	0.000000	-0.002382	0.000000	0.000017	0.000000	0.000000	0.000000
25.346075	14.576657	18.302988	-0.091372	0.063558	2.421912	0.000000	-0.002382	0.000000	0.000017	0.000000	0.000000	0.000000
25.679408	14.645258	18.266711	-0.114431	0.045272	2.421118	0.000000	-0.002382	0.000000	0.000017	0.000000	0.000000	0.000000
26.013991	14.729276	18.242927	-0.018082	-0.121077	2.420296	0.000000	-0.022017	0.000000	0.000017	0.000000	0.000000	0.000000
26.311314	14.746033	18.319842	-0.002119	-0.182533	2.413750	0.000000	-0.027936	0.000000	0.000017	0.000000	0.000000	0.000000
26.752274	14.929578	18.282139	-0.415701	0.267709	2.416543	0.000000	0.040616	0.000000	0.000017	0.000001	0.000000	0.000000
27.193234	15.484835	17.851234	-0.848275	0.705770	2.449637	0.000000	0.109629	0.000000	0.000017	0.000001	0.000000	0.000000
27.634194	16.437170	17.046732	-1.319604	1.111719	2.513409	0.000000	0.179892	0.000000	0.000018	0.000001	0.000000	0.000000
28.075154	17.830094	15.905238	-1.851222	1.467086	2.608586	0.000000	0.252203	0.000000	0.000019	0.000002	0.000000	0.000000
28.521114	19.751445	14.461494	-2.472385	1.756614	2.737855	0.000000	0.327830	0.000000	0.000020	0.000002	0.000000	0.000000
29.070174	22.193492	12.852881	-1.948972	1.190437	2.895186	0.000000	0.244422	0.000000	0.000021	0.000002	0.000000	0.000000
29.619234	23.981309	11.816067	-1.287893	0.709052	3.005462	0.000000	0.156678	0.000000	0.000021	0.000001	0.000000	0.000000
30.168294	24.988613	11.277203	-0.535843	0.278172	3.066726	0.000000	0.066156	0.000000	0.000022	0.000000	0.000000	0.000000
30.717354	25.144253	11.197905	0.254055	-0.132895	3.077893	0.000000	-0.025540	0.000000	0.000022	-0.000000	0.000000	0.000000
31.015927	25.035440	11.267841	0.176074	-0.130592	3.072668	0.000000	-0.017500	0.000000	0.000022	-0.000000	0.000000	0.000000
31.349260	24.922632	11.364931	0.162347	-0.160679	3.066835	0.000000	-0.017500	0.000000	0.000022	-0.000000	0.000000	0.000000
31.682593	24.818977	11.482080	0.148620	-0.190766	3.061002	0.000000	-0.017500	0.000000	0.000021	-0.000000	0.000000	0.000000
32.017177	24.724135	11.619839	0.134841	-0.220966	3.055146	0.000000	-0.017500	0.000000	0.000021	-0.000000	0.000000	0.000000
32.314499	24.647593	11.759214	0.058209	-0.217084	3.049943	0.000000	-0.009532	0.000000	0.000021	-0.000000	0.000000	0.000000
32.863559	24.161382	12.236819	0.822083	-0.657909	3.019825	0.000000	-0.100016	0.000000	0.000021	-0.000001	0.000000	0.000000
33.412619	22.863421	13.221240	1.527890	-1.145595	2.940441	0.000000	-0.188726	0.000000	0.000020	-0.000002	0.000000	0.000000
33.961679	20.845392	14.782595	2.125774	-1.714879	2.813198	0.000000	-0.274088	0.000000	0.000019	-0.000002	0.000000	0.000000
34.510739	18.249840	17.032098	2.573504	-2.406310	2.640355	0.000000	-0.354588	0.000000	0.000018	-0.000003	0.000000	0.000000
34.956699	16.231696	19.044194	1.968101	-2.086683	2.498567	0.000000	-0.281653	0.000000	0.000017	-0.000002	0.000000	0.000000
35.397659	14.726794	20.708335	1.457629	-1.672859	2.389753	0.000000	-0.212354	0.000000	0.000016	-0.000002	0.000000	0.000000
35.838619	13.641132	21.972430	1.013752	-1.182921	2.310935	0.000000	-0.145473	0.000000	0.000015	-0.000002	0.000000	0.000000
36.279579	12.925108	22.778965	0.616191	-0.639161	2.261216	0.000000	-0.080249	0.000000	0.000014	-0.000001	0.000000	0.000000
36.721789	12.545316	23.091550	0.277436	-0.122994	2.240002	0.000000	-0.021432	0.000000	0.000014	-0.000001	0.000000	0.000000
37.019112	12.387929	23.168574	0.251912	-0.136064	2.233630	0.000000	-0.021432	0.000000	0.000013	-0.000001	0.000000	0.000000
37.352445	12.229526	23.264168	0.223297	-0.150718	2.226487	0.000000	-0.021432	0.000000	0.000013	-0.000001	0.000000	0.000000
37.685779	12.090200	23.369531	0.194681	-0.165372	2.219343	0.000000	-0.021432	0.000000	0.000013	-0.000001	0.000000	0.000000
38.020362	11.969536	23.485114	0.165958	-0.180080	2.212173	0.000000	-0.021432	0.000000	0.000013	-0.000001	0.000000	0.000000
38.317684	11.878438	23.596084	0.169560	-0.251009	2.205801	0.000000	-0.026840	0.000000	0.000012	-0.000001	0.000000	0.000000
38.758644	11.880340	23.556098	-0.173890	0.341345	2.207894	0.000000	0.036341	0.000000	0.000012	-0.000001	0.000000	0.000000
39.199604	12.187484	22.998581	-0.525285	0.918167	2.237912	0.000000	0.099936	0.000000	0.000012	-0.000000	0.000000	0.000000
39.640564	12.813901	21.948902	-0.900679	1.453214	2.296197	0.000000	0.164670	0.000000	0.000012	0.000000	0.000000	0.000000
40.081524	13.788211	20.454820	-1.317223	1.922141	2.383413	0.000000	0.231279	0.000000	0.000012	0.000000	0.000000	0.000000
40.527484	15.172502	18.561741	-1.797774	2.304896	2.502024	0.000000	0.300927	0.000000	0.000012	0.000001	0.000000	0.000000
41.076544	16.939022	16.434392	-1.400533	1.592504	2.646720	0.000000	0.225365	0.000000	0.000012	0.000000	0.000000	0.000000
41.625604	18.212085	15.022829	-0.904365	0.993542	2.748768	0.000000	0.145805	0.000000	0.000012	-0.000000	0.000000	0.000000
42.174664	18.901769	14.226511	-0.344317	0.465349	2.806357	0.000000	0.063659	0.000000	0.000012	-0.000001	0.000000	0.000000
42.723724	18.959358	13.988717	0.240051	-0.029699	2.818466	0.000000	-0.019616	0.000000	0.000012	-0.000001	0.000000	0.000000
43.022297	18.850464	13.991001	0.174199	-0.014497	2.814808	0.000000	-0.012253	0.000000	0.000011	-0.000001	0.000000	0.000000
43.502297	18.695826	14.021390	0.147963	-0.048812	2.808928	0.000000	-0.012253	0.000000	0.000011	-0.000001	0.000000	0.000000
43.982297	18.566375	14.084721	0.121726	-0.083127	2.803047	0.000000	-0.012253	0.000000	0.000010	-0.000001	0.000000	0.000000
44.462297	18.462111	14.180994	0.095490	-0.117442	2.797166	0.000000	-0.012253	0.000000	0.000010	-0.000001	0.000000	0.000000
44.942297	18.383034	14.310210	0.069254	-0.151757	2.791285	0.000000	-0.012253	0.000000	0.000010	-0.000001	0.000000	0.000000
45.423547	18.329263	14.472654	-0.047864	-0.114455	2.785407	0.000000	0.001548	0.000000	0.000009	-0.000001	0.000000	0.000000
45.720870	18.362559	14.546903	-0.112097	-0.097263	2.785867	0.000000	0.008826	0.000000	0.000009	-0.000001	0.000000	0.000000
46.269930	18.176466	14.935052	0.449020	-0.613844	2.768141	0.000000	-0.073301	0.000000	0.000008	-0.000001	0.000000	0.000000
46.818990	17.388049	15.911006	0.978420	-1.174149	2.705613	0.000000	-0.154129	0.000000	0.000008	-0.000001	0.000000	0.000000
47.368050	16.052997	17.544281	1.438709	-1.818085	2.599393	0.000000	-0.232223	0.000000	0.000007	-0.000002	0.000000	0.000000
47.917110	14.265611	19.951211	1.797375	-2.591519	2.451363	0.000000	-0.306198	0.000000	0.000006	-0.000002	0.000000	0.000000
48.363070	12.874686	22.091171	1.332620	-2.186854	2.330104	0.000000	-0.237898	0.000000	0.000005	-0.000002	0.000000	0.000000
48.804030	11.879625	23.804566	0.932519	-1.683962	2.239661	0.000000	-0.172705	0.000000	0.000004	-0.000002	0.000000	0.000000
49.244990	11.217372	25.038842	0.575022	-1.104451	2.177505	0.000000	-0.109479	0.000000	0.000004	-0.000001	0.000000	0.000000
49.685950	10.857670	25.737839	0.243796	-0.474689	2.142928	0.000000	-0.047500	0.000000	0.000003	-0.000001	0.000000	0.000000
50.128160	10.784212	25.869472	-0.049963	0.113184	2.135547	0.000000	0.008702	0.000000	0.000002	-0.000001	0.000000	0.000000
50.425482	10.822140	25.805628	-0.077602	0.101544	2.138134	0.000000	0.008702	0.000000	0.000002	-0.000001	0.000000	0.000000
50.758816	10.884203	25.742282	-0.108589	0.088494	2.141035	0.000000	0.008702	0.000000	0.000002	-0.000001	0.000000	0.000000
51.092149	10.966925	25.687637	-0.139575	0.075443	2.143936	0.000000	0.008702	0.000000	0.000001	-0.000001	0.000000	0.000000
51.426732	11.070506	25.642055	-0.080867	-0.145677	2.146826	0.000000	-0.008715	0.000000	0.000001	-0.000001	0.000000	0.000000
51.724055	11.126630	25.732202	-0.080614	-0.220621	2.144236	0.000000	-0.013973	0.000000	0.000000	-0.000001	0.000000	0.000000
52.165015	11.343007	25.640489	-0.411944	0.427814	2.151663	0.000000	0.047690	0.000000	-0.000000	-0.000001	0.000000	0.000000
52.605975	11.858754	24.983340	-0.762094	1.056784	2.186375	0.000000	0.109896	0.000000	-0.000001	-0.000001	0.000000	0.000000
53.046935	12.697433	23.790654	-1.147062	1.637672	2.248767	0.000000	0.173354	0.000000	-0.000001	-0.000001	0.000000	0.000000
53.487895	13.897362	22.116698	-1.584436	2.144046	2.339550	0.000000	0.238786	0.000000	-0.000002	-0.000001	0.000000	0.000000
53.933855	15.533932	20.012607	-2.098427	2.554205	2.461262	0.000000	0.307337	0.000000	-0.000003	-0.000001	0.000000	0.000000
54.482915	17.640976	17.644962	-1.716406	1.783428	2.609829	0.000000	0.233033	0.000000	-0.000003	-0.000001	0.000000	0.000000
55.031975	19.259055	16.049417	-1.213148	1.139681	2.716402	0.000000	0.154595	0.000000	-0.000004	-0.000001	0.000000	0.000000
55.581035	20.273875	15.112327	-0.624198	0.577111	2.779091	0.000000	0.073415	0.000000	-0.000005	-0.000001	0.000000	0.000000
56.130095	20.613755	14.766944	0.008841	0.055647	2.796783	0.000000	-0.009067	0.000000	-0.000005	-0.000001	0.000000	0.000000
56.428668	20.644973	14.716764	-0.059535	0.073834	2.796258	0.000000	-0.001759	0.000000	-0.000006	-0.000001	0.000000	0.000000
56.762001	20.690063	14.675132	-0.075738	0.051060	2.795672	0.000000	-0.001759	0.000000	-0.000006	-0.000001	0.000000	0.000000
57.095334	20.745956	14.648683	-0.091941	0.028287	2.795086	0.000000	-0.001759	0.000000	-0.000006	-0.000001	0.000000	0.000000
57.429918	20.812922	14.637402	-0.108205	0.005428	2.794497	0.000000	-0.001759	0.000000	-0.000007	-0.000001	0.000000	0.000000
57.727240	20.881563	14.640214	-0.177221	0.023369	2.793974	0.000000	0.005541	0.000000	-0.000007	-0.000001	0.000000	0.000000
58.276300	20.719934	14.895670	0.469851	-0.491376	2.774378	0.000000	-0.076819	0.000000	-0.000007	-0.000001	0.000000	0.000000
58.825360	19.861842	15.732165	1.083735	-1.041121	2.709869	0.000000	-0.157817	0.000000	-0.000008	-0.000000	0.000000	0.000000
59.374420	18.367898	17.209282	1.621070	-1.665023	2.601591	0.000000	-0.236015	0.000000	-0.000008	-0.000000	0.000000	0.000000
59.923480	16.343627	19.432230	2.043900	-2.407520	2.451466	0.000000	-0.310027	0.000000	-0.000008	0.000000	0.000000	0.000000
60.369440	14.759251	21.408002	1.521411	-2.004157	2.328495	0.000000	-0.241747	0.000000	-0.000008	-0.000000	0.000000	0.000000
60.810400	13.619704	22.963958	1.072635	-1.510981	2.236342	0.000000	-0.176617	0.000000	-0.000008	-0.000000	0.000000	0.000000
61.251360	12.852917	24.052879	0.672864	-0.949056	2.172438	0.000000	-0.113499	0.000000	-0.000008	-0.000001	0.000000	0.000000
61.692320	12.423860	24.625221	0.303834	-0.343950	2.136056	0.000000	-0.051674	0.000000	-0.000009	-0.000001	0.000000	0.000000
62.134530	12.312982	24.654402	-0.021218	0.216286	2.126786	0.000000	0.004347	0.000000	-0.000009	-0.000001	0.000000	0.000000
62.431853	12.332782	24.529542	-0.045376	0.203662	2.128079	0.000000	0.004347	0.000000	-0.000009	-0.000001	0.000000	0.000000
62.765186	12.372061	24.398485	-0.072460	0.189509	2.129528	0.000000	0.004347	0.000000	-0.000010	-0.000001	0.000000	0.000000
63.098520	12.429395	24.276863	-0.099544	0.175357	2.130977	0.000000	0.004347	0.000000	-0.000010	-0.000001	0.000000	0.000000
63.433103	12.505102	24.164273	-0.126729	0.161151	2.132432	0.000000	0.004347	0.000000	-0.000010	-0.000001	0.000000	0.000000
63.730426	12.587643	24.072199	-0.120015	0.089489	2.133724	0.000000	-0.000886	0.000000	-0.000011	-0.000001	0.000000	0.000000
64.171386	12.853794	23.728171	-0.485846	0.687721	2.146874	0.000000	0.060579	0.000000	-0.000011	-0.000001	0.000000	0.000000
64.612346	13.451109	22.868386	-0.873873	1.254662	2.187253	0.000000	0.122735	0.000000	-0.000012	-0.000002	0.000000	0.000000
65.053306	14.406879	21.531964	-1.301825	1.764517	2.255323	0.000000	0.186289	0.000000	-0.000013	-0.000002	0.000000	0.000000
65.494266	15.764769	19.779710	-1.789254	2.194088	2.351858	0.000000	0.251964	0.000000	-0.000013	-0.000002	0.000000	0.000000
65.940226	17.609980	17.666556	-2.363120	2.524583	2.479530	0.000000	0.320911	0.000000	-0.000015	-0.000003	0.000000	0.000000
66.489286	19.975404	15.302606	-1.919514	1.806281	2.635366	0.000000	0.245897	0.000000	-0.000016	-0.000002	0.000000	0.000000
67.038346	21.775907	13.652583	-1.340322	1.216636	2.748755	0.000000	0.166522	0.000000	-0.000017	-0.000002	0.000000	0.000000
67.587406	22.884310	12.598959	-0.666457	0.713650	2.817686	0.000000	0.084192	0.000000	-0.000018	-0.000001	0.000000	0.000000
68.136466	23.222321	12.066688	0.054483	0.261495	2.840935	0.000000	0.000370	0.000000	-0.000018	-0.000000	0.000000	0.000000
68.435038	23.229864	11.899730	-0.019060	0.266160	2.843263	0.000000	0.007794	0.000000	-0.000018	-0.000000	0.000000	0.000000
68.768372	23.247355	11.732289	-0.033414	0.236164	2.845861	0.000000	0.007794	0.000000	-0.000018	-0.000000	0.000000	0.000000
69.101705	23.274416	11.584845	-0.047769	0.206167	2.848459	0.000000	0.007794	0.000000	-0.000018	-0.000000	0.000000	0.000000
69.436288	23.311202	11.456958	-0.062177	0.176059	2.851067	0.000000	0.007794	0.000000	-0.000019	-0.000000	0.000000	0.000000
69.733611	23.351982	11.360221	-0.136005	0.178990	2.853384	0.000000	0.015250	0.000000	-0.000019	-0.000001	0.000000	0.000000
70.282671	23.100272	11.391182	0.591729	-0.235712	2.838575	0.000000	-0.069112	0.000000	-0.000019	0.000000	0.000000	0.000000
