#ParticleID	Turn	x[m]	xp	y[m]	yp	z[m]	dE[GeV]# s	beta_x	beta_y	alpha_x	alpha_y	D_x	D_y	D_px	D_py	orbit_x	orbit_px	orbit_y	orbit_py
0.300000	11.807201	25.044352	-0.010416	-0.026960	2.618219	0.000000	-0.000030	0.000000	-0.000001	0.000002	0.000000	0.000000
0.601250	11.821163	25.064222	-0.035932	-0.038998	2.618210	0.000000	-0.000030	0.000000	-0.000000	0.000002	0.000000	0.000000
0.898573	11.850018	25.090944	-0.032057	-0.112408	2.618201	0.000000	-0.006450	0.000000	0.000000	0.000002	0.000000	0.000000
1.339533	12.030341	24.911738	-0.378427	0.517260	2.631650	0.000000	0.067509	0.000000	0.000001	0.000002	0.000000	0.000000
1.780493	12.522575	24.185513	-0.742086	1.123392	2.677850	0.000000	0.142237	0.000000	0.000001	0.000002	0.000000	0.000000
2.221453	13.349210	22.945310	-1.139650	1.678412	2.757328	0.000000	0.218585	0.000000	0.000002	0.000002	0.000000	0.000000
2.662413	14.548011	21.247558	-1.589280	2.157064	2.870988	0.000000	0.297423	0.000000	0.000003	0.000002	0.000000	0.000000
3.108373	16.194476	19.144607	-2.115807	2.538706	3.021988	0.000000	0.380138	0.000000	0.000004	0.000002	0.000000	0.000000
3.657433	18.305821	16.782645	-1.706810	1.788515	3.205434	0.000000	0.287100	0.000000	0.000004	0.000002	0.000000	0.000000
4.206493	19.898774	15.170114	-1.177252	1.165715	3.336321	0.000000	0.188970	0.000000	0.000005	0.000001	0.000000	0.000000
4.755553	20.860818	14.192156	-0.564540	0.625947	3.412329	0.000000	0.087489	0.000000	0.000006	0.000001	0.000000	0.000000
5.304613	21.123998	13.779114	0.088049	0.130764	3.432108	0.000000	-0.015545	0.000000	0.000007	0.000001	0.000000	0.000000
5.603185	21.108601	13.686181	0.018710	0.144493	3.430144	0.000000	-0.006578	0.000000	0.000007	0.000001	0.000000	0.000000
5.936519	21.101393	13.598141	0.002913	0.119629	3.427951	0.000000	-0.006578	0.000000	0.000007	0.000001	0.000000	0.000000
6.269852	21.104717	13.526676	-0.012884	0.094765	3.425758	0.000000	-0.006578	0.000000	0.000008	0.000001	0.000000	0.000000
6.604435	21.118643	13.471613	-0.028740	0.069808	3.423556	0.000000	-0.006578	0.000000	0.000008	0.000001	0.000000	0.000000
6.901758	21.139923	13.436696	-0.098061	0.082735	3.421600	0.000000	0.002361	0.000000	0.000008	0.000001	0.000000	0.000000
7.450818	20.887342	13.606756	0.555362	-0.394294	3.394696	0.000000	-0.100216	0.000000	0.000009	0.000001	0.000000	0.000000
7.999878	19.934617	14.312909	1.169558	-0.899409	3.311876	0.000000	-0.201016	0.000000	0.000009	0.000001	0.000000	0.000000
8.548938	18.349045	15.605452	1.701142	-1.468587	3.174610	0.000000	-0.298251	0.000000	0.000010	0.000000	0.000000	0.000000
9.097998	16.242622	17.576449	2.112565	-2.142368	2.985332	0.000000	-0.390195	0.000000	0.000010	-0.000000	0.000000	0.000000
9.543958	14.599260	19.332685	1.585533	-1.779088	2.829627	0.000000	-0.308492	0.000000	0.000010	0.000000	0.000000	0.000000
9.984918	13.404049	20.711605	1.135224	-1.336097	2.710839	0.000000	-0.230787	0.000000	0.000010	0.000000	0.000000	0.000000
10.425878	12.581690	21.671440	0.736781	-0.832314	2.625705	0.000000	-0.155710	0.000000	0.000010	0.000001	0.000000	0.000000
10.866838	12.094610	22.168518	0.371999	-0.290661	2.573255	0.000000	-0.082407	0.000000	0.000010	0.000001	0.000000	0.000000
11.309048	11.920424	22.179699	0.053337	0.209771	2.552870	0.000000	-0.016302	0.000000	0.000011	0.000001	0.000000	0.000000
11.606371	11.896144	22.059121	0.028324	0.195775	2.548023	0.000000	-0.016302	0.000000	0.000011	0.000001	0.000000	0.000000
12.086371	11.888337	21.882021	-0.012058	0.173182	2.540197	0.000000	-0.016302	0.000000	0.000012	0.000001	0.000000	0.000000
12.566371	11.919295	21.726612	-0.052440	0.150588	2.532372	0.000000	-0.016302	0.000000	0.000012	0.000001	0.000000	0.000000
13.046371	11.989021	21.592892	-0.092821	0.127994	2.524546	0.000000	-0.016302	0.000000	0.000013	0.000001	0.000000	0.000000
13.526371	12.097512	21.480863	-0.133203	0.105401	2.516720	0.000000	-0.016302	0.000000	0.000013	0.000001	0.000000	0.000000
14.007621	12.245204	21.390316	-0.173689	0.082748	2.508875	0.000000	-0.016302	0.000000	0.000014	0.000001	0.000000	0.000000
14.304943	12.355924	21.345271	-0.168406	0.016416	2.504027	0.000000	-0.022442	0.000000	0.000014	0.000001	0.000000	0.000000
14.745903	12.662946	21.097183	-0.530491	0.544053	2.509761	0.000000	0.048475	0.000000	0.000015	0.000002	0.000000	0.000000
15.186863	13.298737	20.392941	-0.916813	1.046936	2.546858	0.000000	0.119943	0.000000	0.000016	0.000002	0.000000	0.000000
15.627823	14.292346	19.264586	-1.345021	1.502185	2.615740	0.000000	0.192778	0.000000	0.000017	0.000002	0.000000	0.000000
16.068783	15.689168	17.763459	-1.834679	1.889085	2.717192	0.000000	0.267808	0.000000	0.000018	0.000003	0.000000	0.000000
16.514743	17.576681	15.936360	-2.412917	2.190776	2.854065	0.000000	0.346351	0.000000	0.000019	0.000003	0.000000	0.000000
17.063803	20.000999	13.896287	-1.976341	1.546728	3.020504	0.000000	0.259030	0.000000	0.000021	0.000003	0.000000	0.000000
17.612863	21.865946	12.499172	-1.400167	1.012849	3.137664	0.000000	0.167114	0.000000	0.000022	0.000002	0.000000	0.000000
18.161923	23.039790	11.645501	-0.725091	0.551114	3.203469	0.000000	0.072234	0.000000	0.000023	0.000001	0.000000	0.000000
18.710983	23.439616	11.274470	0.001201	0.128633	3.216750	0.000000	-0.023927	0.000000	0.000023	0.000000	0.000000	0.000000
19.009556	23.479280	11.188174	-0.072814	0.130941	3.212115	0.000000	-0.015524	0.000000	0.000023	0.000001	0.000000	0.000000
19.342889	23.532581	11.110981	-0.087087	0.100637	3.206940	0.000000	-0.015524	0.000000	0.000023	0.000001	0.000000	0.000000
19.676223	23.595396	11.053991	-0.101359	0.070333	3.201765	0.000000	-0.015524	0.000000	0.000024	0.000001	0.000000	0.000000
20.010806	23.668308	11.016968	-0.232950	0.094500	3.196591	0.000000	0.000314	0.000000	0.000024	0.000001	0.000000	0.000000
20.308129	23.810768	10.968869	-0.308395	0.095925	3.196684	0.000000	0.008665	0.000000	0.000024	0.000001	0.000000	0.000000
20.857189	23.738738	11.085508	0.438807	-0.309612	3.175226	0.000000	-0.086713	0.000000	0.000024	-0.000000	0.000000	0.000000
21.406249	22.858424	11.656899	1.155013	-0.737202	3.101745	0.000000	-0.180554	0.000000	0.000024	-0.000001	0.000000	0.000000
21.955309	21.232007	12.723742	1.789635	-1.217302	2.977545	0.000000	-0.271192	0.000000	0.000023	-0.000002	0.000000	0.000000
22.504369	18.974369	14.362027	2.297846	-1.784108	2.804829	0.000000	-0.357019	0.000000	0.000022	-0.000002	0.000000	0.000000
22.950329	17.195071	15.832983	1.706051	-1.500380	2.662905	0.000000	-0.279819	0.000000	0.000021	-0.000002	0.000000	0.000000
23.391289	15.919824	17.005822	1.196897	-1.149239	2.555836	0.000000	-0.206261	0.000000	0.000020	-0.000001	0.000000	0.000000
23.832249	15.067892	17.844655	0.742426	-0.745809	2.480656	0.000000	-0.135052	0.000000	0.000020	-0.000001	0.000000	0.000000
24.273209	14.600352	18.311315	0.321874	-0.308445	2.436507	0.000000	-0.065381	0.000000	0.000020	-0.000000	0.000000	0.000000
24.715418	14.495965	18.384324	-0.048517	0.097808	2.422883	0.000000	-0.002395	0.000000	0.000020	0.000000	0.000000	0.000000
25.012741	14.530928	18.331017	-0.069076	0.081481	2.422171	0.000000	-0.002395	0.000000	0.000020	0.000000	0.000000	0.000000
25.346075	14.584662	18.282798	-0.092125	0.063176	2.421373	0.000000	-0.002395	0.000000	0.000020	0.000000	0.000000	0.000000
25.679408	14.653762	18.246782	-0.115174	0.044871	2.420574	0.000000	-0.002395	0.000000	0.000020	0.000000	0.000000	0.000000
26.013991	14.738275	18.223273	-0.018743	-0.121338	2.419749	0.000000	-0.022025	0.000000	0.000020	0.000000	0.000000	0.000000
26.311314	14.755420	18.300348	-0.002746	-0.182763	2.413200	0.000000	-0.027942	0.000000	0.000020	0.000000	0.000000	0.000000
26.752274	14.939622	18.263081	-0.416567	0.266954	2.415987	0.000000	0.040595	0.000000	0.000020	0.000001	0.000000	0.000000
27.193234	15.495763	17.833061	-0.849420	0.704526	2.449069	0.000000	0.109594	0.000000	0.000021	0.000001	0.000000	0.000000
27.634194	16.449250	17.029852	-1.321081	1.110042	2.512822	0.000000	0.179842	0.000000	0.000021	0.000002	0.000000	0.000000
28.075154	17.843647	15.890001	-1.853098	1.465052	2.607974	0.000000	0.252138	0.000000	0.000022	0.000002	0.000000	0.000000
28.521114	19.766881	14.448197	-2.474749	1.754315	2.737210	0.000000	0.327749	0.000000	0.000023	0.000003	0.000000	0.000000
29.070174	22.211315	12.841811	-1.950927	1.188656	2.894502	0.000000	0.244362	0.000000	0.000024	0.000002	0.000000	0.000000
29.619234	24.000990	11.806728	-1.289301	0.707662	3.004750	0.000000	0.156641	0.000000	0.000025	0.000001	0.000000	0.000000
30.168294	25.009493	11.269222	-0.536606	0.277074	3.066000	0.000000	0.066141	0.000000	0.000026	0.000000	0.000000	0.000000
30.717354	25.165588	11.191006	0.253993	-0.133779	3.077166	0.000000	-0.025531	0.000000	0.000026	-0.000000	0.000000	0.000000
31.015927	25.056841	11.261488	0.175969	-0.131517	3.071943	0.000000	-0.017493	0.000000	0.000025	-0.000000	0.000000	0.000000
31.349260	24.944100	11.359203	0.162254	-0.161628	3.066112	0.000000	-0.017493	0.000000	0.000025	-0.000000	0.000000	0.000000
31.682593	24.840502	11.476992	0.148539	-0.191740	3.060281	0.000000	-0.017493	0.000000	0.000025	-0.000000	0.000000	0.000000
32.017177	24.745710	11.615411	0.134773	-0.221964	3.054428	0.000000	-0.017493	0.000000	0.000025	-0.000000	0.000000	0.000000
32.314499	24.669205	11.755386	0.058097	-0.218114	3.049227	0.000000	-0.009528	0.000000	0.000025	-0.000000	0.000000	0.000000
32.863559	24.182722	12.234087	0.822686	-0.658888	3.019118	0.000000	-0.099988	0.000000	0.000024	-0.000001	0.000000	0.000000
33.412619	22.883724	13.219588	1.529165	-1.146593	2.939755	0.000000	-0.188675	0.000000	0.000024	-0.000002	0.000000	0.000000
33.961679	20.863966	14.782082	2.127631	-1.715967	2.812547	0.000000	-0.274015	0.000000	0.000022	-0.000003	0.000000	0.000000
34.510739	18.266113	17.032864	2.575812	-2.407566	2.639749	0.000000	-0.354496	0.000000	0.000021	-0.000003	0.000000	0.000000
34.956699	16.246139	19.046129	1.969912	-2.088039	2.497999	0.000000	-0.281576	0.000000	0.000019	-0.000003	0.000000	0.000000
35.397659	14.739827	20.711487	1.459029	-1.674252	2.389216	0.000000	-0.212291	0.000000	0.000018	-0.000002	0.000000	0.000000
35.838619	13.653087	21.976803	1.014805	-1.184287	2.310423	0.000000	-0.145423	0.000000	0.000017	-0.000002	0.000000	0.000000
36.279579	12.936269	22.784508	0.616945	-0.640439	2.260723	0.000000	-0.080212	0.000000	0.000016	-0.000001	0.000000	0.000000
36.721789	12.555929	23.098162	0.277952	-0.124140	2.239523	0.000000	-0.021406	0.000000	0.000016	-0.000001	0.000000	0.000000
37.019112	12.398230	23.175867	0.252443	-0.137210	2.233159	0.000000	-0.021406	0.000000	0.000016	-0.000001	0.000000	0.000000
37.352445	12.239468	23.272225	0.223844	-0.151864	2.226023	0.000000	-0.021406	0.000000	0.000015	-0.000001	0.000000	0.000000
37.685779	12.099772	23.378352	0.195245	-0.166517	2.218888	0.000000	-0.021406	0.000000	0.000015	-0.000001	0.000000	0.000000
38.020362	11.978725	23.494701	0.166539	-0.181226	2.211727	0.000000	-0.021406	0.000000	0.000014	-0.000001	0.000000	0.000000
38.317684	11.887277	23.606353	0.170177	-0.252179	2.205362	0.000000	-0.026814	0.000000	0.000014	-0.000001	0.000000	0.000000
38.758644	11.888723	23.567274	-0.173469	0.340463	2.207465	0.000000	0.036356	0.000000	0.000014	-0.000001	0.000000	0.000000
39.199604	12.195573	23.010393	-0.525040	0.917614	2.237487	0.000000	0.099941	0.000000	0.000013	-0.000000	0.000000	0.000000
39.640564	12.821847	21.961047	-0.900598	1.453015	2.295772	0.000000	0.164663	0.000000	0.000013	-0.000000	0.000000	0.000000
40.081524	13.796156	20.466981	-1.317302	1.922304	2.382982	0.000000	0.231261	0.000000	0.000013	0.000000	0.000000	0.000000
40.527484	15.180591	18.573596	-1.798018	2.305416	2.501584	0.000000	0.300898	0.000000	0.000014	0.000001	0.000000	0.000000
41.076544	16.947206	16.445853	-1.400461	1.592705	2.646268	0.000000	0.225350	0.000000	0.000014	0.000000	0.000000	0.000000
41.625604	18.220018	15.034238	-0.903982	0.993438	2.748311	0.000000	0.145805	0.000000	0.000014	-0.000000	0.000000	0.000000
42.174664	18.909122	14.238204	-0.343650	0.464932	2.805905	0.000000	0.063674	0.000000	0.000013	-0.000001	0.000000	0.000000
42.723724	18.965842	14.001051	0.240956	-0.030458	2.818026	0.000000	-0.019586	0.000000	0.000013	-0.000001	0.000000	0.000000
43.022297	18.856417	14.003764	0.175088	-0.015205	2.814377	0.000000	-0.012224	0.000000	0.000013	-0.000001	0.000000	0.000000
43.502297	18.700926	14.034817	0.148852	-0.049490	2.808510	0.000000	-0.012224	0.000000	0.000012	-0.000001	0.000000	0.000000
43.982297	18.570621	14.098784	0.122616	-0.083774	2.802643	0.000000	-0.012224	0.000000	0.000011	-0.000001	0.000000	0.000000
44.462297	18.465503	14.195664	0.096380	-0.118059	2.796776	0.000000	-0.012224	0.000000	0.000011	-0.000001	0.000000	0.000000
44.942297	18.385572	14.325457	0.070144	-0.152343	2.790908	0.000000	-0.012224	0.000000	0.000010	-0.000001	0.000000	0.000000
45.423547	18.330944	14.488450	-0.046982	-0.114932	2.785043	0.000000	0.001574	0.000000	0.000010	-0.000001	0.000000	0.000000
45.720870	18.363714	14.562976	-0.111214	-0.097677	2.785512	0.000000	0.008852	0.000000	0.000010	-0.000001	0.000000	0.000000
46.269930	18.176639	14.951850	0.449916	-0.614759	2.767803	0.000000	-0.073265	0.000000	0.000009	-0.000001	0.000000	0.000000
46.818990	17.387260	15.929112	0.979266	-1.175628	2.705298	0.000000	-0.154082	0.000000	0.000008	-0.000002	0.000000	0.000000
47.368050	16.051333	17.564367	1.439446	-1.820234	2.599106	0.000000	-0.232166	0.000000	0.000007	-0.000002	0.000000	0.000000
47.917110	14.263223	19.974093	1.797950	-2.594492	2.451110	0.000000	-0.306132	0.000000	0.000006	-0.000002	0.000000	0.000000
48.363070	12.871793	22.116484	1.333184	-2.189311	2.329880	0.000000	-0.237839	0.000000	0.000005	-0.000002	0.000000	0.000000
48.804030	11.876230	23.831779	0.933097	-1.685795	2.239462	0.000000	-0.172651	0.000000	0.000004	-0.000002	0.000000	0.000000
49.244990	11.213451	25.067363	0.575641	-1.105576	2.177328	0.000000	-0.109430	0.000000	0.000004	-0.000002	0.000000	0.000000
49.685950	10.853175	25.767021	0.244484	-0.475054	2.142772	0.000000	-0.047455	0.000000	0.000003	-0.000002	0.000000	0.000000
50.128160	10.779065	25.898633	-0.049186	0.113523	2.135410	0.000000	0.008743	0.000000	0.000002	-0.000002	0.000000	0.000000
50.425482	10.816535	25.834584	-0.076836	0.101895	2.138010	0.000000	0.008743	0.000000	0.000002	-0.000002	0.000000	0.000000
50.758816	10.878092	25.770999	-0.107835	0.088858	2.140925	0.000000	0.008743	0.000000	0.000001	-0.000002	0.000000	0.000000
51.092149	10.960315	25.716106	-0.138834	0.075822	2.143840	0.000000	0.008743	0.000000	0.000001	-0.000002	0.000000	0.000000
51.426732	11.063405	25.670267	-0.080196	-0.145513	2.146744	0.000000	-0.008672	0.000000	0.000000	-0.000002	0.000000	0.000000
51.724055	11.119135	25.760313	-0.079976	-0.220514	2.144166	0.000000	-0.013931	0.000000	-0.000000	-0.000002	0.000000	0.000000
52.165015	11.334869	25.668177	-0.411119	0.428662	2.151612	0.000000	0.047731	0.000000	-0.000001	-0.000002	0.000000	0.000000
52.605975	11.849792	25.009967	-0.761045	1.058333	2.186342	0.000000	0.109936	0.000000	-0.000002	-0.000002	0.000000	0.000000
53.046935	12.687430	23.815631	-1.145741	1.639852	2.248752	0.000000	0.173393	0.000000	-0.000003	-0.000002	0.000000	0.000000
53.487895	13.886052	22.139509	-1.582782	2.146758	2.339552	0.000000	0.238825	0.000000	-0.000003	-0.000002	0.000000	0.000000
53.933855	15.520969	20.032806	-2.096362	2.557327	2.461281	0.000000	0.307376	0.000000	-0.000004	-0.000002	0.000000	0.000000
54.482915	17.625922	17.662178	-1.714684	1.785771	2.609870	0.000000	0.233071	0.000000	-0.000005	-0.000002	0.000000	0.000000
55.031975	19.242354	16.064411	-1.211889	1.141411	2.716463	0.000000	0.154631	0.000000	-0.000006	-0.000002	0.000000	0.000000
55.581035	20.256088	15.125700	-0.623492	0.578351	2.779171	0.000000	0.073449	0.000000	-0.000007	-0.000001	0.000000	0.000000
56.130095	20.595521	14.779182	0.008945	0.056485	2.796882	0.000000	-0.009036	0.000000	-0.000007	-0.000001	0.000000	0.000000
56.428668	20.626653	14.728478	-0.059397	0.074718	2.796366	0.000000	-0.001728	0.000000	-0.000008	-0.000001	0.000000	0.000000
56.762001	20.671657	14.686252	-0.075615	0.051960	2.795791	0.000000	-0.001728	0.000000	-0.000008	-0.000001	0.000000	0.000000
57.095334	20.727472	14.659198	-0.091832	0.029202	2.795215	0.000000	-0.001728	0.000000	-0.000008	-0.000001	0.000000	0.000000
57.429918	20.794369	14.647300	-0.108110	0.006358	2.794638	0.000000	-0.001728	0.000000	-0.000009	-0.000001	0.000000	0.000000
57.727240	20.862957	14.649555	-0.177091	0.024338	2.794124	0.000000	0.005574	0.000000	-0.000009	-0.000001	0.000000	0.000000
58.276300	20.701528	14.904089	0.469359	-0.490655	2.774544	0.000000	-0.076792	0.000000	-0.000010	-0.000001	0.000000	0.000000
58.825360	19.844305	15.739904	1.082656	-1.040597	2.710049	0.000000	-0.157795	0.000000	-0.000010	-0.000001	0.000000	0.000000
59.374420	18.351836	17.216534	1.619479	-1.664657	2.601781	0.000000	-0.235999	0.000000	-0.000010	-0.000000	0.000000	0.000000
59.923480	16.329542	19.439157	2.041911	-2.407288	2.451662	0.000000	-0.310018	0.000000	-0.000010	0.000000	0.000000	0.000000
60.369440	14.746747	21.414606	1.519845	-2.003670	2.328697	0.000000	-0.241733	0.000000	-0.000010	-0.000000	0.000000	0.000000
60.810400	13.608423	22.970029	1.071417	-1.510264	2.236552	0.000000	-0.176598	0.000000	-0.000010	-0.000000	0.000000	0.000000
61.251360	12.842578	24.058229	0.671939	-0.948142	2.172658	0.000000	-0.113474	0.000000	-0.000011	-0.000001	0.000000	0.000000
61.692320	12.414224	24.629693	0.303159	-0.342880	2.136287	0.000000	-0.051643	0.000000	-0.000011	-0.000001	0.000000	0.000000
62.134530	12.303844	24.657875	-0.021695	0.217453	2.127033	0.000000	0.004383	0.000000	-0.000011	-0.000001	0.000000	0.000000
62.431853	12.323933	24.532322	-0.045872	0.204825	2.128336	0.000000	0.004383	0.000000	-0.000012	-0.000001	0.000000	0.000000
62.765186	12.363549	24.400491	-0.072976	0.190668	2.129798	0.000000	0.004383	0.000000	-0.000012	-0.000001	0.000000	0.000000
63.098520	12.421235	24.278099	-0.100081	0.176510	2.131259	0.000000	0.004383	0.000000	-0.000013	-0.000001	0.000000	0.000000
63.433103	12.497308	24.164739	-0.127287	0.162300	2.132726	0.000000	0.004383	0.000000	-0.000013	-0.000001	0.000000	0.000000
63.730426	12.580187	24.071982	-0.120609	0.090632	2.134030	0.000000	-0.000851	0.000000	-0.000013	-0.000001	0.000000	0.000000
64.171386	12.846791	23.726959	-0.486286	0.688829	2.147196	0.000000	0.060623	0.000000	-0.000014	-0.000002	0.000000	0.000000
64.612346	13.444434	22.866231	-0.874179	1.255684	2.187597	0.000000	0.122788	0.000000	-0.000015	-0.000002	0.000000	0.000000
65.053306	14.400420	21.528963	-1.302011	1.765407	2.255692	0.000000	0.186350	0.000000	-0.000016	-0.000002	0.000000	0.000000
65.494266	15.758424	19.775998	-1.789328	2.194805	2.352256	0.000000	0.252036	0.000000	-0.000017	-0.000003	0.000000	0.000000
65.940226	17.603652	17.662295	-2.363086	2.525092	2.479963	0.000000	0.320993	0.000000	-0.000018	-0.000003	0.000000	0.000000
66.489286	19.969188	15.297778	-1.919751	1.806811	2.635841	0.000000	0.245965	0.000000	-0.000020	-0.000003	0.000000	0.000000
67.038346	21.770093	13.647145	-1.340814	1.217224	2.749263	0.000000	0.166573	0.000000	-0.000021	-0.000002	0.000000	0.000000
67.587406	22.879161	12.592826	-0.667169	0.714338	2.818217	0.000000	0.084227	0.000000	-0.000022	-0.000001	0.000000	0.000000
68.136466	23.218052	12.059723	0.053601	0.262332	2.841481	0.000000	0.000387	0.000000	-0.000022	-0.000000	0.000000	0.000000
68.435038	23.226117	11.892284	-0.019935	0.266952	2.843814	0.000000	0.007813	0.000000	-0.000022	-0.000001	0.000000	0.000000
68.768372	23.244192	11.724325	-0.034292	0.236925	2.846418	0.000000	0.007813	0.000000	-0.000022	-0.000001	0.000000	0.000000
69.101705	23.271839	11.576384	-0.048649	0.206898	2.849023	0.000000	0.007813	0.000000	-0.000023	-0.000001	0.000000	0.000000
69.436288	23.309216	11.448019	-0.063061	0.176759	2.851637	0.000000	0.007813	0.000000	-0.000023	-0.000001	0.000000	0.000000
69.733611	23.350522	11.350873	-0.136889	0.179639	2.853960	0.000000	0.015271	0.000000	-0.000023	-0.000001	0.000000	0.000000
70.282671	23.099802	11.380975	0.590822	-0.234788	2.839158	0.000000	-0.069110	0.000000	-0.000023	0.000000	0.000000	0.000000
