#ParticleID	Turn	x[m]	xp	y[m]	yp	z[m]	dE[GeV]# s	beta_x	beta_y	alpha_x	alpha_y	D_x	D_y	D_px	D_py	orbit_x	orbit_px	orbit_y	orbit_py
0.300000	11.819323	24.995613	-0.011708	-0.027479	2.618106	0.000000	0.000015	0.000000	-0.000000	0.000001	0.000000	0.000000
0.601250	11.834056	25.015802	-0.037199	-0.039540	2.618110	0.000000	0.000015	0.000000	-0.000000	0.000001	0.000000	0.000000
0.898573	11.863657	25.042854	-0.033265	-0.112856	2.618114	0.000000	-0.006406	0.000000	0.000000	0.000001	0.000000	0.000000
1.339533	12.045191	24.864604	-0.379977	0.515550	2.631583	0.000000	0.067552	0.000000	0.000000	0.000001	0.000000	0.000000
1.780493	12.538969	24.140416	-0.744049	1.120499	2.677802	0.000000	0.142278	0.000000	0.000001	0.000001	0.000000	0.000000
2.221453	13.367548	22.903240	-1.142115	1.674466	2.757298	0.000000	0.218626	0.000000	0.000001	0.000001	0.000000	0.000000
2.662413	14.568786	21.209367	-1.592360	2.152247	2.870977	0.000000	0.297463	0.000000	0.000001	0.000001	0.000000	0.000000
3.108373	16.218326	19.111024	-2.119649	2.533234	3.021994	0.000000	0.380177	0.000000	0.000002	0.000001	0.000000	0.000000
3.657433	18.333571	16.754311	-1.710029	1.784370	3.205462	0.000000	0.287139	0.000000	0.000002	0.000001	0.000000	0.000000
4.206493	19.929610	15.145741	-1.179620	1.162604	3.336371	0.000000	0.189008	0.000000	0.000003	0.000001	0.000000	0.000000
4.755553	20.893707	14.170737	-0.565890	0.623647	3.412399	0.000000	0.087524	0.000000	0.000003	0.000001	0.000000	0.000000
5.304613	21.157763	13.759853	0.087813	0.129111	3.432198	0.000000	-0.015512	0.000000	0.000003	0.000001	0.000000	0.000000
5.603185	21.142554	13.667943	0.018407	0.142772	3.430244	0.000000	-0.006544	0.000000	0.000003	0.000001	0.000000	0.000000
5.936519	21.135540	13.581057	0.002635	0.117887	3.428062	0.000000	-0.006544	0.000000	0.000004	0.000001	0.000000	0.000000
6.269852	21.139040	13.510761	-0.013136	0.093001	3.425880	0.000000	-0.006544	0.000000	0.000004	0.000001	0.000000	0.000000
6.604435	21.153127	13.456885	-0.028967	0.068023	3.423691	0.000000	-0.006544	0.000000	0.000004	0.000001	0.000000	0.000000
6.901758	21.174534	13.423035	-0.098357	0.080897	3.421745	0.000000	0.002396	0.000000	0.000004	0.000001	0.000000	0.000000
7.450818	20.921641	13.594911	0.556224	-0.395782	3.394858	0.000000	-0.100187	0.000000	0.000004	0.000000	0.000000	0.000000
7.999878	19.967359	14.302555	1.171517	-0.900653	3.312054	0.000000	-0.200992	0.000000	0.000005	0.000000	0.000000	0.000000
8.548938	18.379094	15.596370	1.704059	-1.469675	3.174799	0.000000	-0.298233	0.000000	0.000005	0.000000	0.000000	0.000000
9.097998	16.269032	17.568511	2.116235	-2.143378	2.985530	0.000000	-0.390183	0.000000	0.000005	-0.000000	0.000000	0.000000
9.543958	14.622760	19.325810	1.588414	-1.780453	2.829830	0.000000	-0.308475	0.000000	0.000005	0.000000	0.000000	0.000000
9.984918	13.425304	20.706065	1.137454	-1.337750	2.711052	0.000000	-0.230765	0.000000	0.000005	0.000000	0.000000	0.000000
10.425878	12.601226	21.667458	0.738461	-0.834181	2.625929	0.000000	-0.155682	0.000000	0.000005	0.000000	0.000000	0.000000
10.866838	12.112878	22.166247	0.373207	-0.292657	2.573492	0.000000	-0.082373	0.000000	0.000005	0.000000	0.000000	0.000000
11.309048	11.937811	22.179217	0.054172	0.207735	2.553124	0.000000	-0.016263	0.000000	0.000005	0.000001	0.000000	0.000000
11.606371	11.913025	22.059846	0.029193	0.193751	2.548289	0.000000	-0.016263	0.000000	0.000005	0.000001	0.000000	0.000000
12.086371	11.904356	21.884682	-0.011133	0.171175	2.540482	0.000000	-0.016263	0.000000	0.000006	0.000001	0.000000	0.000000
12.566371	11.934401	21.731190	-0.051460	0.148599	2.532676	0.000000	-0.016263	0.000000	0.000006	0.000001	0.000000	0.000000
13.046371	12.003159	21.599372	-0.091786	0.126023	2.524869	0.000000	-0.016263	0.000000	0.000006	0.000001	0.000000	0.000000
13.526371	12.110630	21.489225	-0.132112	0.103448	2.517063	0.000000	-0.016263	0.000000	0.000006	0.000001	0.000000	0.000000
14.007621	12.257246	21.400550	-0.172544	0.080813	2.509236	0.000000	-0.016263	0.000000	0.000007	0.000001	0.000000	0.000000
14.304943	12.367275	21.356653	-0.167197	0.014460	2.504401	0.000000	-0.022404	0.000000	0.000007	0.000001	0.000000	0.000000
14.745903	12.673330	21.110141	-0.529500	0.542446	2.510154	0.000000	0.048522	0.000000	0.000007	0.000001	0.000000	0.000000
15.186863	13.308327	20.407135	-0.915995	1.045752	2.547274	0.000000	0.120001	0.000000	0.000008	0.000001	0.000000	0.000000
15.627823	14.301278	19.279618	-1.344340	1.501476	2.616185	0.000000	0.192847	0.000000	0.000008	0.000001	0.000000	0.000000
16.068783	15.697547	17.778894	-1.834103	1.888885	2.717671	0.000000	0.267889	0.000000	0.000008	0.000001	0.000000	0.000000
16.514743	17.584583	15.951739	-2.412419	2.191097	2.854583	0.000000	0.346445	0.000000	0.000009	0.000002	0.000000	0.000000
17.063803	20.008128	13.911505	-1.975440	1.546704	3.021070	0.000000	0.259106	0.000000	0.000010	0.000001	0.000000	0.000000
17.612863	21.871891	12.514604	-1.398926	1.012480	3.138268	0.000000	0.167172	0.000000	0.000010	0.000001	0.000000	0.000000
18.161923	23.044224	11.661540	-0.723598	0.550372	3.204099	0.000000	0.072272	0.000000	0.000011	0.000001	0.000000	0.000000
18.710983	23.442320	11.291550	0.002841	0.127466	3.217395	0.000000	-0.023910	0.000000	0.000011	0.000000	0.000000	0.000000
19.009556	23.481011	11.205908	-0.071184	0.129873	3.212766	0.000000	-0.015504	0.000000	0.000011	0.000000	0.000000	0.000000
19.342889	23.533223	11.129409	-0.085452	0.099625	3.207598	0.000000	-0.015504	0.000000	0.000011	0.000000	0.000000	0.000000
19.676223	23.594947	11.073075	-0.099720	0.069377	3.202430	0.000000	-0.015504	0.000000	0.000011	0.000000	0.000000	0.000000
20.010806	23.666761	11.036672	-0.231299	0.093698	3.197262	0.000000	0.000337	0.000000	0.000011	0.000000	0.000000	0.000000
20.308129	23.808237	10.989035	-0.306735	0.095231	3.197362	0.000000	0.008690	0.000000	0.000011	0.000000	0.000000	0.000000
20.857189	23.734439	11.106749	0.440348	-0.310888	3.175912	0.000000	-0.086710	0.000000	0.000012	-0.000000	0.000000	0.000000
21.406249	22.852548	11.679900	1.156326	-0.739151	3.102427	0.000000	-0.180572	0.000000	0.000011	-0.000000	0.000000	0.000000
21.955309	21.224859	12.749313	1.790627	-1.220062	2.978210	0.000000	-0.271232	0.000000	0.000011	-0.000001	0.000000	0.000000
22.504369	18.966341	14.391161	2.298447	-1.787876	2.805466	0.000000	-0.357081	0.000000	0.000011	-0.000001	0.000000	0.000000
22.950329	17.186467	15.865185	1.706748	-1.503461	2.663517	0.000000	-0.279865	0.000000	0.000010	-0.000001	0.000000	0.000000
23.391289	15.910552	17.040387	1.197722	-1.151496	2.556432	0.000000	-0.206291	0.000000	0.000010	-0.000001	0.000000	0.000000
23.832249	15.057823	17.880807	0.743416	-0.747138	2.481241	0.000000	-0.135066	0.000000	0.000010	-0.000000	0.000000	0.000000
24.273209	14.589320	18.348206	0.323075	-0.308787	2.437089	0.000000	-0.065380	0.000000	0.000009	-0.000000	0.000000	0.000000
24.715418	14.483757	18.421073	-0.047078	0.098376	2.423469	0.000000	-0.002381	0.000000	0.000009	0.000000	0.000000	0.000000
25.012741	14.517869	18.367419	-0.067651	0.082079	2.422761	0.000000	-0.002381	0.000000	0.000009	0.000000	0.000000	0.000000
25.346075	14.570658	18.318790	-0.090716	0.063809	2.421967	0.000000	-0.002381	0.000000	0.000010	0.000000	0.000000	0.000000
25.679408	14.638824	18.282341	-0.113782	0.045539	2.421173	0.000000	-0.002381	0.000000	0.000010	0.000000	0.000000	0.000000
26.013991	14.722410	18.258374	-0.017496	-0.120921	2.420352	0.000000	-0.022017	0.000000	0.000010	0.000000	0.000000	0.000000
26.311314	14.738820	18.335192	-0.001556	-0.182403	2.413806	0.000000	-0.027936	0.000000	0.000010	-0.000000	0.000000	0.000000
26.752274	14.921790	18.297191	-0.414952	0.268252	2.416599	0.000000	0.040617	0.000000	0.000010	0.000000	0.000000	0.000000
27.193234	15.476292	17.865633	-0.847306	0.706702	2.449694	0.000000	0.109632	0.000000	0.000010	0.000000	0.000000	0.000000
27.634194	16.427660	17.060153	-1.318371	1.112997	2.513469	0.000000	0.179896	0.000000	0.000010	0.000001	0.000000	0.000000
28.075154	17.819360	15.917401	-1.849669	1.468652	2.608648	0.000000	0.252209	0.000000	0.000010	0.000001	0.000000	0.000000
28.521114	19.739154	14.472157	-2.470436	1.758397	2.737921	0.000000	0.327838	0.000000	0.000011	0.000001	0.000000	0.000000
29.070174	22.179225	12.861821	-1.947342	1.191811	2.895256	0.000000	0.244427	0.000000	0.000012	0.000001	0.000000	0.000000
29.619234	23.965481	11.823678	-1.286697	0.710115	3.005534	0.000000	0.156682	0.000000	0.000012	0.000001	0.000000	0.000000
30.168294	24.971750	11.283782	-0.535166	0.278998	3.066800	0.000000	0.066156	0.000000	0.000012	0.000000	0.000000	0.000000
30.717354	25.126955	11.203679	0.254166	-0.132245	3.077966	0.000000	-0.025542	0.000000	0.000012	-0.000000	0.000000	0.000000
31.015927	25.018055	11.273211	0.176216	-0.129907	3.072741	0.000000	-0.017501	0.000000	0.000012	-0.000000	0.000000	0.000000
31.349260	24.905157	11.369838	0.162478	-0.159975	3.066908	0.000000	-0.017501	0.000000	0.000012	-0.000000	0.000000	0.000000
31.682593	24.801417	11.486511	0.148741	-0.190042	3.061074	0.000000	-0.017501	0.000000	0.000012	-0.000000	0.000000	0.000000
32.017177	24.706498	11.623779	0.134952	-0.220223	3.055219	0.000000	-0.017501	0.000000	0.000012	-0.000000	0.000000	0.000000
32.314499	24.629893	11.762707	0.058352	-0.216311	3.050015	0.000000	-0.009532	0.000000	0.000012	-0.000000	0.000000	0.000000
32.863559	24.143848	12.239498	0.821639	-0.657192	3.019896	0.000000	-0.100018	0.000000	0.000012	-0.000001	0.000000	0.000000
33.412619	22.846686	13.223139	1.526890	-1.144883	2.940510	0.000000	-0.188730	0.000000	0.000011	-0.000001	0.000000	0.000000
33.961679	20.830031	14.783692	2.124289	-1.714121	2.813264	0.000000	-0.274094	0.000000	0.000011	-0.000001	0.000000	0.000000
34.510739	18.236331	17.032312	2.571638	-2.405452	2.640416	0.000000	-0.354597	0.000000	0.000010	-0.000002	0.000000	0.000000
34.956699	16.219664	19.043598	1.966643	-2.085730	2.498624	0.000000	-0.281660	0.000000	0.000009	-0.000001	0.000000	0.000000
35.397659	14.715895	20.706873	1.456509	-1.671856	2.389807	0.000000	-0.212359	0.000000	0.000009	-0.000001	0.000000	0.000000
35.838619	13.631092	21.970078	1.012919	-1.181913	2.310986	0.000000	-0.145477	0.000000	0.000008	-0.000001	0.000000	0.000000
36.279579	12.915691	22.775738	0.615606	-0.638194	2.261265	0.000000	-0.080252	0.000000	0.000008	-0.000001	0.000000	0.000000
36.721789	12.536317	23.087502	0.277053	-0.122105	2.240050	0.000000	-0.021434	0.000000	0.000008	-0.000001	0.000000	0.000000
37.019112	12.379162	23.163998	0.251515	-0.135176	2.233677	0.000000	-0.021434	0.000000	0.000007	-0.000001	0.000000	0.000000
37.352445	12.221029	23.258999	0.222885	-0.149829	2.226533	0.000000	-0.021434	0.000000	0.000007	-0.000001	0.000000	0.000000
37.685779	12.081982	23.363769	0.194254	-0.164482	2.219389	0.000000	-0.021434	0.000000	0.000007	-0.000001	0.000000	0.000000
38.020362	11.961609	23.478756	0.165517	-0.179190	2.212217	0.000000	-0.021434	0.000000	0.000007	-0.000001	0.000000	0.000000
38.317684	11.870778	23.589196	0.169088	-0.250104	2.205845	0.000000	-0.026843	0.000000	0.000007	-0.000001	0.000000	0.000000
38.758644	11.873020	23.548495	-0.174193	0.342055	2.207937	0.000000	0.036340	0.000000	0.000006	-0.000000	0.000000	0.000000
39.199604	12.180361	22.990451	-0.525432	0.918650	2.237954	0.000000	0.099936	0.000000	0.000006	-0.000000	0.000000	0.000000
39.640564	12.806842	21.940455	-0.900677	1.453448	2.296239	0.000000	0.164671	0.000000	0.000006	-0.000000	0.000000	0.000000
40.081524	13.781084	20.446280	-1.317072	1.922115	2.383456	0.000000	0.231281	0.000000	0.000006	0.000000	0.000000	0.000000
40.527484	15.165171	18.553342	-1.797465	2.304609	2.502069	0.000000	0.300930	0.000000	0.000006	0.000000	0.000000	0.000000
41.076544	16.931504	16.426187	-1.400503	1.592435	2.646766	0.000000	0.225366	0.000000	0.000006	0.000000	0.000000	0.000000
41.625604	18.204689	15.014584	-0.904616	0.993686	2.748814	0.000000	0.145805	0.000000	0.000006	-0.000000	0.000000	0.000000
42.174664	18.894796	14.217987	-0.344832	0.465716	2.806402	0.000000	0.063658	0.000000	0.000006	-0.000000	0.000000	0.000000
42.723724	18.953079	13.979655	0.239310	-0.029083	2.818510	0.000000	-0.019619	0.000000	0.000006	-0.000001	0.000000	0.000000
43.022297	18.844619	13.981589	0.173471	-0.013917	2.814851	0.000000	-0.012255	0.000000	0.000006	-0.000001	0.000000	0.000000
43.502297	18.690682	14.011431	0.147233	-0.048254	2.808969	0.000000	-0.012255	0.000000	0.000006	-0.000001	0.000000	0.000000
43.982297	18.561933	14.074237	0.120995	-0.082592	2.803087	0.000000	-0.012255	0.000000	0.000005	-0.000001	0.000000	0.000000
44.462297	18.458372	14.170007	0.094757	-0.116929	2.797205	0.000000	-0.012255	0.000000	0.000005	-0.000001	0.000000	0.000000
44.942297	18.380000	14.298741	0.068519	-0.151267	2.791323	0.000000	-0.012255	0.000000	0.000005	-0.000001	0.000000	0.000000
45.423547	18.326937	14.460725	-0.048589	-0.114046	2.785443	0.000000	0.001546	0.000000	0.000005	-0.000001	0.000000	0.000000
45.720870	18.360666	14.534734	-0.112822	-0.096900	2.785902	0.000000	0.008824	0.000000	0.000004	-0.000001	0.000000	0.000000
46.269930	18.175398	14.922280	0.448251	-0.613101	2.768175	0.000000	-0.073305	0.000000	0.000004	-0.000001	0.000000	0.000000
46.818990	17.387823	15.897186	0.977663	-1.172972	2.705645	0.000000	-0.154133	0.000000	0.000004	-0.000001	0.000000	0.000000
47.368050	16.053571	17.528894	1.438017	-1.816391	2.599421	0.000000	-0.232228	0.000000	0.000003	-0.000001	0.000000	0.000000
47.917110	14.266888	19.933626	1.796797	-2.589187	2.451388	0.000000	-0.306204	0.000000	0.000003	-0.000001	0.000000	0.000000
48.363070	12.876463	22.071673	1.332073	-2.184914	2.330126	0.000000	-0.237903	0.000000	0.000002	-0.000001	0.000000	0.000000
48.804030	11.881881	23.783562	0.931976	-1.682500	2.239680	0.000000	-0.172710	0.000000	0.000002	-0.000001	0.000000	0.000000
49.244990	11.220113	25.016784	0.574459	-1.103534	2.177522	0.000000	-0.109483	0.000000	0.000002	-0.000001	0.000000	0.000000
49.685950	10.860927	25.715229	0.243187	-0.474358	2.142943	0.000000	-0.047504	0.000000	0.000001	-0.000001	0.000000	0.000000
50.128160	10.788036	25.846836	-0.050635	0.112968	2.135560	0.000000	0.008698	0.000000	0.000001	-0.000001	0.000000	0.000000
50.425482	10.826362	25.783124	-0.078266	0.101318	2.138146	0.000000	0.008698	0.000000	0.000001	-0.000001	0.000000	0.000000
50.758816	10.888865	25.719932	-0.109244	0.088257	2.141046	0.000000	0.008698	0.000000	0.000000	-0.000001	0.000000	0.000000
51.092149	10.972020	25.665448	-0.140221	0.075196	2.143945	0.000000	0.008698	0.000000	0.000000	-0.000001	0.000000	0.000000
51.426732	11.076030	25.620036	-0.081459	-0.145756	2.146834	0.000000	-0.008718	0.000000	-0.000000	-0.000001	0.000000	0.000000
51.724055	11.132504	25.710233	-0.081181	-0.220658	2.144242	0.000000	-0.013977	0.000000	-0.000000	-0.000001	0.000000	0.000000
52.165015	11.349444	25.618809	-0.412659	0.427198	2.151668	0.000000	0.047686	0.000000	-0.000001	-0.000001	0.000000	0.000000
52.605975	11.865899	24.962449	-0.762990	1.055617	2.186378	0.000000	0.109893	0.000000	-0.000001	-0.000001	0.000000	0.000000
53.046935	12.705463	23.771016	-1.148179	1.636006	2.248768	0.000000	0.173351	0.000000	-0.000001	-0.000001	0.000000	0.000000
53.487895	13.906493	22.098722	-1.585826	2.141958	2.339549	0.000000	0.238783	0.000000	-0.000002	-0.000001	0.000000	0.000000
53.933855	15.544449	19.996647	-2.100156	2.551789	2.461260	0.000000	0.307333	0.000000	-0.000002	-0.000001	0.000000	0.000000
54.482915	17.653254	17.631306	-1.717864	1.781623	2.609825	0.000000	0.233029	0.000000	-0.000003	-0.000001	0.000000	0.000000
55.031975	19.272737	16.037469	-1.214231	1.138358	2.716395	0.000000	0.154592	0.000000	-0.000003	-0.000001	0.000000	0.000000
55.581035	20.288505	15.101612	-0.624831	0.576176	2.779082	0.000000	0.073412	0.000000	-0.000003	-0.000001	0.000000	0.000000
56.130095	20.628810	14.757074	0.008705	0.055033	2.796772	0.000000	-0.009070	0.000000	-0.000004	-0.000001	0.000000	0.000000
56.428668	20.660128	14.707280	-0.059699	0.073182	2.796246	0.000000	-0.001762	0.000000	-0.000004	-0.000001	0.000000	0.000000
56.762001	20.705325	14.666088	-0.075891	0.050396	2.795659	0.000000	-0.001762	0.000000	-0.000004	-0.000001	0.000000	0.000000
57.095334	20.761316	14.640086	-0.092083	0.027610	2.795072	0.000000	-0.001762	0.000000	-0.000004	-0.000001	0.000000	0.000000
57.429918	20.828373	14.629262	-0.108335	0.004739	2.794482	0.000000	-0.001762	0.000000	-0.000004	-0.000001	0.000000	0.000000
57.727240	20.897088	14.632487	-0.177380	0.022648	2.793959	0.000000	0.005538	0.000000	-0.000005	-0.000001	0.000000	0.000000
58.276300	20.735347	14.888617	0.470213	-0.491890	2.774361	0.000000	-0.076821	0.000000	-0.000005	-0.000000	0.000000	0.000000
58.825360	19.876583	15.725580	1.084592	-1.041464	2.709850	0.000000	-0.157818	0.000000	-0.000005	-0.000000	0.000000	0.000000
59.374420	18.381453	17.202991	1.622361	-1.665219	2.601572	0.000000	-0.236016	0.000000	-0.000005	-0.000000	0.000000	0.000000
59.923480	16.355566	19.426082	2.045534	-2.407584	2.451445	0.000000	-0.310028	0.000000	-0.000005	0.000000	0.000000	0.000000
60.369440	14.769896	21.402006	1.522691	-2.004434	2.328475	0.000000	-0.241748	0.000000	-0.000005	-0.000000	0.000000	0.000000
60.810400	13.629353	22.958295	1.073622	-1.511457	2.236321	0.000000	-0.176619	0.000000	-0.000005	-0.000000	0.000000	0.000000
61.251360	12.861808	24.047717	0.673603	-0.949710	2.172416	0.000000	-0.113502	0.000000	-0.000005	-0.000000	0.000000	0.000000
61.692320	12.432196	24.620704	0.304360	-0.344752	2.136032	0.000000	-0.051677	0.000000	-0.000005	-0.000000	0.000000	0.000000
62.134530	12.320939	24.650646	-0.020864	0.215384	2.126761	0.000000	0.004344	0.000000	-0.000006	-0.000001	0.000000	0.000000
62.431853	12.340523	24.526321	-0.045006	0.202763	2.128052	0.000000	0.004344	0.000000	-0.000006	-0.000001	0.000000	0.000000
62.765186	12.379549	24.395862	-0.072072	0.188613	2.129500	0.000000	0.004344	0.000000	-0.000006	-0.000001	0.000000	0.000000
63.098520	12.436619	24.274837	-0.099138	0.174464	2.130948	0.000000	0.004344	0.000000	-0.000006	-0.000001	0.000000	0.000000
63.433103	12.512049	24.162843	-0.126305	0.160261	2.132402	0.000000	0.004344	0.000000	-0.000006	-0.000001	0.000000	0.000000
63.730426	12.594334	24.071297	-0.119561	0.088606	2.133693	0.000000	-0.000889	0.000000	-0.000006	-0.000001	0.000000	0.000000
64.171386	12.860147	23.728051	-0.485532	0.686838	2.146841	0.000000	0.060576	0.000000	-0.000007	-0.000001	0.000000	0.000000
64.612346	13.457242	22.869031	-0.873686	1.253818	2.187218	0.000000	0.122731	0.000000	-0.000007	-0.000001	0.000000	0.000000
65.053306	14.412899	21.533321	-1.301756	1.763751	2.255285	0.000000	0.186283	0.000000	-0.000008	-0.000001	0.000000	0.000000
65.494266	15.770779	19.781695	-1.789299	2.193434	2.351817	0.000000	0.251958	0.000000	-0.000008	-0.000001	0.000000	0.000000
65.940226	17.616082	17.669062	-2.363283	2.524073	2.479486	0.000000	0.320903	0.000000	-0.000009	-0.000001	0.000000	0.000000
66.489286	19.981550	15.305661	-1.919429	1.805785	2.635318	0.000000	0.245891	0.000000	-0.000009	-0.000001	0.000000	0.000000
67.038346	21.781825	13.656191	-1.339995	1.216119	2.748704	0.000000	0.166517	0.000000	-0.000010	-0.000001	0.000000	0.000000
67.587406	22.889747	12.603164	-0.665912	0.713074	2.817632	0.000000	0.084190	0.000000	-0.000010	-0.000001	0.000000	0.000000
68.136466	23.227056	12.071576	0.055208	0.260820	2.840880	0.000000	0.000369	0.000000	-0.000011	-0.000000	0.000000	0.000000
68.435038	23.234170	11.905008	-0.018340	0.265516	2.843207	0.000000	0.007792	0.000000	-0.000011	-0.000000	0.000000	0.000000
68.768372	23.251181	11.737988	-0.032692	0.235543	2.845804	0.000000	0.007792	0.000000	-0.000011	-0.000000	0.000000	0.000000
69.101705	23.277759	11.590951	-0.047043	0.205569	2.848402	0.000000	0.007792	0.000000	-0.000011	-0.000000	0.000000	0.000000
69.436288	23.314058	11.463457	-0.061448	0.175484	2.851009	0.000000	0.007792	0.000000	-0.000011	-0.000000	0.000000	0.000000
69.733611	23.354404	11.367055	-0.135276	0.178451	2.853326	0.000000	0.015248	0.000000	-0.000011	-0.000000	0.000000	0.000000
70.282671	23.101857	11.398715	0.592517	-0.236453	2.838516	0.000000	-0.069113	0.000000	-0.000011	0.000000	0.000000	0.000000
