#ParticleID	Turn	x[m]	xp	y[m]	yp	z[m]	dE[GeV]# s	beta_x	beta_y	alpha_x	alpha_y	D_x	D_y	D_px	D_py	orbit_x	orbit_px	orbit_y	orbit_py
0.300000	11.830667	24.952220	-0.013195	-0.027750	2.618263	0.000000	-0.000046	0.000000	-0.000000	0.000000	0.000000	0.000000
0.601250	11.846289	24.972579	-0.038663	-0.039832	2.618249	0.000000	-0.000046	0.000000	-0.000000	0.000000	0.000000	0.000000
0.898573	11.876753	24.999810	-0.034673	-0.113064	2.618236	0.000000	-0.006466	0.000000	0.000000	0.000000	0.000000	0.000000
1.339533	12.059672	24.822245	-0.381720	0.514210	2.631678	0.000000	0.067494	0.000000	0.000000	0.000000	0.000000	0.000000
1.780493	12.555163	24.099718	-0.746207	1.118087	2.677872	0.000000	0.142222	0.000000	0.000000	0.000000	0.000000	0.000000
2.221453	13.385864	22.865104	-1.144786	1.671093	2.757344	0.000000	0.218571	0.000000	0.000000	0.000000	0.000000	0.000000
2.662413	14.589726	21.174575	-1.595667	2.148065	2.870999	0.000000	0.297409	0.000000	0.000001	0.000000	0.000000	0.000000
3.108373	16.242557	19.080255	-2.123749	2.528431	3.021993	0.000000	0.380124	0.000000	0.000001	0.000000	0.000000	0.000000
3.657433	18.361992	16.728134	-1.713515	1.780761	3.205432	0.000000	0.287086	0.000000	0.000001	0.000000	0.000000	0.000000
4.206493	19.961408	15.122993	-1.182248	1.159930	3.336313	0.000000	0.188957	0.000000	0.000001	0.000000	0.000000	0.000000
4.755553	20.927830	14.150502	-0.567473	0.621718	3.412313	0.000000	0.087475	0.000000	0.000001	0.000000	0.000000	0.000000
5.304613	21.192997	13.741391	0.087386	0.127790	3.432086	0.000000	-0.015558	0.000000	0.000001	0.000000	0.000000	0.000000
5.603185	21.178091	13.650304	0.017910	0.141383	3.430118	0.000000	-0.006590	0.000000	0.000001	0.000000	0.000000	0.000000
5.936519	21.171399	13.564351	0.002166	0.116476	3.427921	0.000000	-0.006590	0.000000	0.000001	0.000000	0.000000	0.000000
6.269852	21.175203	13.495003	-0.013579	0.091568	3.425725	0.000000	-0.006590	0.000000	0.000001	0.000000	0.000000	0.000000
6.604435	21.189577	13.442093	-0.029382	0.066567	3.423519	0.000000	-0.006590	0.000000	0.000001	0.000000	0.000000	0.000000
6.901758	21.211224	13.409115	-0.098846	0.079386	3.421560	0.000000	0.002350	0.000000	0.000002	0.000000	0.000000	0.000000
7.450818	20.958191	13.582441	0.556968	-0.396927	3.394650	0.000000	-0.100227	0.000000	0.000002	0.000000	0.000000	0.000000
7.999878	20.002435	14.291179	1.173440	-0.901512	3.311825	0.000000	-0.201025	0.000000	0.000002	0.000000	0.000000	0.000000
8.548938	18.411468	15.585809	1.707027	-1.470309	3.174555	0.000000	-0.298258	0.000000	0.000002	0.000000	0.000000	0.000000
9.097998	16.297668	17.558545	2.120037	-2.143834	2.985274	0.000000	-0.390200	0.000000	0.000002	-0.000000	0.000000	0.000000
9.543958	14.648389	19.316420	1.591377	-1.781284	2.829566	0.000000	-0.308499	0.000000	0.000002	0.000000	0.000000	0.000000
9.984918	13.448636	20.697560	1.139720	-1.338917	2.710775	0.000000	-0.230796	0.000000	0.000002	0.000000	0.000000	0.000000
10.425878	12.622828	21.660112	0.740134	-0.835630	2.625637	0.000000	-0.155721	0.000000	0.000002	0.000000	0.000000	0.000000
10.866838	12.133238	22.160279	0.374362	-0.294323	2.573182	0.000000	-0.082419	0.000000	0.000002	0.000000	0.000000	0.000000
11.309048	11.957358	22.174791	0.054912	0.205938	2.552792	0.000000	-0.016316	0.000000	0.000002	0.000000	0.000000	0.000000
11.606371	11.932120	22.056487	0.029972	0.191961	2.547941	0.000000	-0.016316	0.000000	0.000002	0.000000	0.000000	0.000000
12.086371	11.922674	21.883035	-0.010292	0.169397	2.540109	0.000000	-0.016316	0.000000	0.000002	0.000000	0.000000	0.000000
12.566371	11.951881	21.731245	-0.050556	0.146832	2.532277	0.000000	-0.016316	0.000000	0.000002	0.000000	0.000000	0.000000
13.046371	12.019741	21.601117	-0.090819	0.124268	2.524445	0.000000	-0.016316	0.000000	0.000002	0.000000	0.000000	0.000000
13.526371	12.126254	21.492651	-0.131083	0.101704	2.516613	0.000000	-0.016316	0.000000	0.000002	0.000000	0.000000	0.000000
14.007621	12.271849	21.405648	-0.171452	0.079081	2.508760	0.000000	-0.016316	0.000000	0.000002	0.000000	0.000000	0.000000
14.304943	12.381218	21.362779	-0.166030	0.012718	2.503909	0.000000	-0.022457	0.000000	0.000003	0.000000	0.000000	0.000000
14.745903	12.686370	21.117719	-0.528614	0.540908	2.509636	0.000000	0.048457	0.000000	0.000003	0.000000	0.000000	0.000000
15.186863	13.320694	20.415953	-0.915349	1.044487	2.546725	0.000000	0.119922	0.000000	0.000003	0.000000	0.000000	0.000000
15.627823	14.313169	19.289410	-1.343904	1.500543	2.615598	0.000000	0.192753	0.000000	0.000003	0.000000	0.000000	0.000000
16.068783	15.709139	17.789346	-1.833857	1.888326	2.717039	0.000000	0.267780	0.000000	0.000003	0.000000	0.000000	0.000000
16.514743	17.596036	15.962512	-2.412353	2.190940	2.853899	0.000000	0.346318	0.000000	0.000003	0.000001	0.000000	0.000000
17.063803	20.019225	13.922556	-1.974863	1.546351	3.020323	0.000000	0.259003	0.000000	0.000004	0.000000	0.000000	0.000000
17.612863	21.882090	12.526163	-1.397879	1.011905	3.137471	0.000000	0.167093	0.000000	0.000004	0.000000	0.000000	0.000000
18.161923	23.053048	11.673870	-0.722156	0.549534	3.203266	0.000000	0.072220	0.000000	0.000004	0.000000	0.000000	0.000000
18.710983	23.449388	11.304971	0.004577	0.126305	3.216541	0.000000	-0.023935	0.000000	0.000004	0.000000	0.000000	0.000000
19.009556	23.487054	11.219988	-0.069463	0.128790	3.211904	0.000000	-0.015531	0.000000	0.000004	0.000000	0.000000	0.000000
19.342889	23.538116	11.144195	-0.083724	0.098588	3.206727	0.000000	-0.015531	0.000000	0.000004	0.000000	0.000000	0.000000
19.676223	23.598686	11.088537	-0.097985	0.068387	3.201551	0.000000	-0.015531	0.000000	0.000004	0.000000	0.000000	0.000000
20.010806	23.669336	11.052781	-0.229570	0.092834	3.196374	0.000000	0.000306	0.000000	0.000004	0.000000	0.000000	0.000000
20.308129	23.809781	11.005645	-0.305002	0.094457	3.196465	0.000000	0.008658	0.000000	0.000004	0.000000	0.000000	0.000000
20.857189	23.734061	11.124469	0.442094	-0.312148	3.175005	0.000000	-0.086714	0.000000	0.000004	-0.000000	0.000000	0.000000
21.406249	22.850301	11.699309	1.157963	-0.740986	3.101526	0.000000	-0.180547	0.000000	0.000004	-0.000000	0.000000	0.000000
21.955309	21.220928	12.771110	1.792039	-1.222602	2.977331	0.000000	-0.271177	0.000000	0.000004	-0.000000	0.000000	0.000000
22.504369	18.961031	14.416214	2.299534	-1.791302	2.804624	0.000000	-0.356998	0.000000	0.000004	-0.000000	0.000000	0.000000
22.950329	17.180189	15.893049	1.707839	-1.506313	2.662707	0.000000	-0.279804	0.000000	0.000004	-0.000000	0.000000	0.000000
23.391289	15.903291	17.070465	1.198868	-1.153645	2.555644	0.000000	-0.206250	0.000000	0.000004	-0.000000	0.000000	0.000000
23.832249	15.049508	17.912433	0.744669	-0.748488	2.480467	0.000000	-0.135046	0.000000	0.000004	-0.000000	0.000000	0.000000
24.273209	14.579832	18.380646	0.324493	-0.309274	2.436319	0.000000	-0.065380	0.000000	0.000003	-0.000000	0.000000	0.000000
24.715418	14.472919	18.453552	-0.045455	0.098689	2.422695	0.000000	-0.002399	0.000000	0.000003	0.000000	0.000000	0.000000
25.012741	14.506069	18.399704	-0.066041	0.082421	2.421981	0.000000	-0.002399	0.000000	0.000003	0.000000	0.000000	0.000000
25.346075	14.557789	18.350837	-0.089120	0.064181	2.421181	0.000000	-0.002399	0.000000	0.000003	0.000000	0.000000	0.000000
25.679408	14.624896	18.314129	-0.112199	0.045942	2.420382	0.000000	-0.002399	0.000000	0.000003	0.000000	0.000000	0.000000
26.013991	14.707428	18.289883	-0.016048	-0.120742	2.419554	0.000000	-0.022028	0.000000	0.000004	0.000000	0.000000	0.000000
26.311314	14.722983	18.366585	-0.000165	-0.182274	2.413005	0.000000	-0.027946	0.000000	0.000004	0.000000	0.000000	0.000000
26.752274	14.904550	18.328095	-0.413150	0.269228	2.415789	0.000000	0.040586	0.000000	0.000004	0.000000	0.000000	0.000000
27.193234	15.457252	17.895319	-0.845011	0.708480	2.448866	0.000000	0.109580	0.000000	0.000004	0.000000	0.000000	0.000000
27.634194	16.406340	17.087945	-1.315477	1.115497	2.512613	0.000000	0.179823	0.000000	0.000004	0.000000	0.000000	0.000000
28.075154	17.795176	15.942710	-1.846044	1.471760	2.607756	0.000000	0.252113	0.000000	0.000004	0.000000	0.000000	0.000000
28.521114	19.711346	14.494474	-2.465907	1.761973	2.736980	0.000000	0.327718	0.000000	0.000004	0.000000	0.000000	0.000000
29.070174	22.146805	12.880694	-1.943522	1.194545	2.894258	0.000000	0.244339	0.000000	0.000004	0.000000	0.000000	0.000000
29.619234	23.929381	11.839918	-1.283856	0.712203	3.004497	0.000000	0.156626	0.000000	0.000004	0.000000	0.000000	0.000000
30.168294	24.933164	11.298015	-0.533505	0.280589	3.065742	0.000000	0.066135	0.000000	0.000004	0.000000	0.000000	0.000000
30.717354	25.087250	11.216385	0.254530	-0.131039	3.076906	0.000000	-0.025529	0.000000	0.000004	-0.000000	0.000000	0.000000
31.015927	24.978079	11.285165	0.176658	-0.128629	3.071684	0.000000	-0.017490	0.000000	0.000004	-0.000000	0.000000	0.000000
31.349260	24.864895	11.380926	0.162896	-0.158655	3.065854	0.000000	-0.017490	0.000000	0.000004	-0.000000	0.000000	0.000000
31.682593	24.760884	11.496705	0.149135	-0.188681	3.060024	0.000000	-0.017490	0.000000	0.000004	-0.000000	0.000000	0.000000
32.017177	24.665710	11.633048	0.135322	-0.218820	3.054172	0.000000	-0.017490	0.000000	0.000004	-0.000000	0.000000	0.000000
32.314499	24.588891	11.771131	0.058803	-0.214847	3.048972	0.000000	-0.009524	0.000000	0.000004	-0.000000	0.000000	0.000000
32.863559	24.103102	12.246410	0.820725	-0.655885	3.018866	0.000000	-0.099976	0.000000	0.000004	-0.000000	0.000000	0.000000
33.412619	22.807668	13.228659	1.524676	-1.143640	2.939512	0.000000	-0.188655	0.000000	0.000004	-0.000000	0.000000	0.000000
33.961679	20.794091	14.787843	2.120930	-1.712854	2.812315	0.000000	-0.273988	0.000000	0.000004	-0.000000	0.000000	0.000000
34.510739	18.204602	17.035018	2.567373	-2.404071	2.639533	0.000000	-0.354461	0.000000	0.000004	-0.000001	0.000000	0.000000
34.956699	16.191306	19.044960	1.963324	-2.084111	2.497797	0.000000	-0.281546	0.000000	0.000003	-0.000001	0.000000	0.000000
35.397659	14.690109	20.706730	1.453976	-1.670074	2.389025	0.000000	-0.212266	0.000000	0.000003	-0.000000	0.000000	0.000000
35.838619	13.607236	21.968322	1.011055	-1.180051	2.310241	0.000000	-0.145404	0.000000	0.000003	-0.000000	0.000000	0.000000
36.279579	12.893216	22.772335	0.614327	-0.636336	2.260547	0.000000	-0.080198	0.000000	0.000003	-0.000000	0.000000	0.000000
36.721789	12.514736	23.082488	0.276249	-0.120326	2.239352	0.000000	-0.021396	0.000000	0.000003	-0.000000	0.000000	0.000000
37.019112	12.358068	23.157925	0.250679	-0.133393	2.232991	0.000000	-0.021396	0.000000	0.000003	-0.000000	0.000000	0.000000
37.352445	12.200505	23.251737	0.222011	-0.148043	2.225859	0.000000	-0.021396	0.000000	0.000003	-0.000000	0.000000	0.000000
37.685779	12.062054	23.355315	0.193343	-0.162693	2.218727	0.000000	-0.021396	0.000000	0.000003	-0.000000	0.000000	0.000000
38.020362	11.942304	23.469104	0.164567	-0.177398	2.211568	0.000000	-0.021396	0.000000	0.000003	-0.000000	0.000000	0.000000
38.317684	11.852047	23.578478	0.168061	-0.248285	2.205207	0.000000	-0.026804	0.000000	0.000002	-0.000000	0.000000	0.000000
38.758644	11.855010	23.536304	-0.174805	0.343564	2.207312	0.000000	0.036362	0.000000	0.000002	-0.000000	0.000000	0.000000
39.199604	12.162718	22.977090	-0.525657	0.919782	2.237336	0.000000	0.099943	0.000000	0.000002	-0.000000	0.000000	0.000000
39.640564	12.789230	21.926282	-0.900524	1.454151	2.295621	0.000000	0.164661	0.000000	0.000002	-0.000000	0.000000	0.000000
40.081524	13.763169	20.431690	-1.316534	1.922357	2.382829	0.000000	0.231255	0.000000	0.000002	0.000000	0.000000	0.000000
40.527484	15.146594	18.538749	-1.796516	2.304375	2.501427	0.000000	0.300888	0.000000	0.000002	0.000000	0.000000	0.000000
41.076544	16.912259	16.411658	-1.400244	1.592552	2.646107	0.000000	0.225346	0.000000	0.000002	0.000000	0.000000	0.000000
41.625604	18.185551	14.999730	-0.905067	0.994163	2.748150	0.000000	0.145806	0.000000	0.000002	-0.000000	0.000000	0.000000
42.174664	18.876530	14.202397	-0.345960	0.466587	2.805745	0.000000	0.063680	0.000000	0.000002	-0.000000	0.000000	0.000000
42.723724	18.936389	13.962866	0.237584	-0.027756	2.817871	0.000000	-0.019576	0.000000	0.000002	-0.000000	0.000000	0.000000
43.022297	18.828936	13.964041	0.171782	-0.012659	2.814224	0.000000	-0.012213	0.000000	0.000002	-0.000000	0.000000	0.000000
43.502297	18.676623	13.992696	0.145537	-0.047039	2.808362	0.000000	-0.012213	0.000000	0.000002	-0.000000	0.000000	0.000000
43.982297	18.549504	14.054356	0.119293	-0.081418	2.802500	0.000000	-0.012213	0.000000	0.000002	-0.000000	0.000000	0.000000
44.462297	18.447581	14.149019	0.093048	-0.115798	2.796637	0.000000	-0.012213	0.000000	0.000002	-0.000000	0.000000	0.000000
44.942297	18.370853	14.276687	0.066803	-0.150177	2.790775	0.000000	-0.012213	0.000000	0.000002	-0.000000	0.000000	0.000000
45.423547	18.319446	14.437643	-0.050275	-0.113113	2.784915	0.000000	0.001585	0.000000	0.000002	-0.000000	0.000000	0.000000
45.720870	18.354179	14.511106	-0.114502	-0.096056	2.785386	0.000000	0.008862	0.000000	0.000002	-0.000000	0.000000	0.000000
46.269930	18.170861	14.897324	0.446402	-0.611513	2.767684	0.000000	-0.073250	0.000000	0.000002	-0.000000	0.000000	0.000000
46.818990	17.385351	15.870030	0.975774	-1.170527	2.705188	0.000000	-0.154064	0.000000	0.000001	-0.000000	0.000000	0.000000
47.368050	16.053134	17.498505	1.436222	-1.812914	2.599006	0.000000	-0.232144	0.000000	0.000001	-0.000000	0.000000	0.000000
47.917110	14.268311	19.898744	1.795223	-2.584432	2.451022	0.000000	-0.306107	0.000000	0.000001	-0.000000	0.000000	0.000000
48.363070	12.879233	22.032874	1.330617	-2.180923	2.329801	0.000000	-0.237816	0.000000	0.000001	-0.000000	0.000000	0.000000
48.804030	11.885908	23.741647	0.930569	-1.679452	2.239392	0.000000	-0.172630	0.000000	0.000001	-0.000000	0.000000	0.000000
49.244990	11.225384	24.972650	0.573037	-1.101568	2.177267	0.000000	-0.109411	0.000000	0.000001	-0.000000	0.000000	0.000000
49.685950	10.867482	25.669874	0.241685	-0.473564	2.142718	0.000000	-0.047437	0.000000	0.000000	-0.000000	0.000000	0.000000
50.128160	10.795982	25.801312	-0.052267	0.112666	2.135363	0.000000	0.008759	0.000000	0.000000	-0.000000	0.000000	0.000000
50.425482	10.835273	25.737786	-0.079882	0.100996	2.137967	0.000000	0.008759	0.000000	0.000000	-0.000000	0.000000	0.000000
50.758816	10.898847	25.674817	-0.110842	0.087913	2.140887	0.000000	0.008759	0.000000	0.000000	-0.000000	0.000000	0.000000
51.092149	10.983062	25.620569	-0.141802	0.074829	2.143807	0.000000	0.008759	0.000000	0.000000	-0.000000	0.000000	0.000000
51.426732	11.088124	25.575408	-0.082924	-0.145783	2.146716	0.000000	-0.008656	0.000000	-0.000000	-0.000000	0.000000	0.000000
51.724055	11.145462	25.665628	-0.082591	-0.220595	2.144143	0.000000	-0.013914	0.000000	-0.000000	-0.000000	0.000000	0.000000
52.165015	11.363787	25.574670	-0.414401	0.426082	2.151595	0.000000	0.047747	0.000000	-0.000000	-0.000000	0.000000	0.000000
52.605975	11.881953	24.919797	-0.765143	1.053374	2.186332	0.000000	0.109952	0.000000	-0.000000	-0.000000	0.000000	0.000000
53.046935	12.723632	23.730805	-1.150842	1.632738	2.248748	0.000000	0.173409	0.000000	-0.000000	-0.000000	0.000000	0.000000
53.487895	13.927280	22.061792	-1.589120	2.137813	2.339554	0.000000	0.238841	0.000000	-0.000001	-0.000000	0.000000	0.000000
53.933855	15.568513	19.963739	-2.104239	2.546954	2.461290	0.000000	0.307392	0.000000	-0.000001	-0.000000	0.000000	0.000000
54.482915	17.681493	17.602998	-1.721339	1.778031	2.609886	0.000000	0.233086	0.000000	-0.000001	-0.000000	0.000000	0.000000
55.031975	19.304344	16.012544	-1.216853	1.135753	2.716487	0.000000	0.154646	0.000000	-0.000001	-0.000000	0.000000	0.000000
55.581035	20.322435	15.079091	-0.626415	0.574373	2.779202	0.000000	0.073463	0.000000	-0.000001	-0.000000	0.000000	0.000000
56.130095	20.663855	14.736154	0.008270	0.053904	2.796919	0.000000	-0.009023	0.000000	-0.000001	-0.000000	0.000000	0.000000
56.428668	20.695480	14.687074	-0.060200	0.071973	2.796407	0.000000	-0.001715	0.000000	-0.000001	-0.000000	0.000000	0.000000
56.762001	20.741002	14.646697	-0.076365	0.049160	2.795835	0.000000	-0.001715	0.000000	-0.000001	-0.000000	0.000000	0.000000
57.095334	20.797300	14.621528	-0.092530	0.026347	2.795264	0.000000	-0.001715	0.000000	-0.000002	-0.000000	0.000000	0.000000
57.429918	20.864647	14.611559	-0.108756	0.003448	2.794690	0.000000	-0.001715	0.000000	-0.000002	-0.000000	0.000000	0.000000
57.727240	20.933605	14.615559	-0.177871	0.021287	2.794180	0.000000	0.005585	0.000000	-0.000002	-0.000000	0.000000	0.000000
58.276300	20.771729	14.872922	0.470949	-0.492788	2.774606	0.000000	-0.076782	0.000000	-0.000002	-0.000000	0.000000	0.000000
58.825360	19.911503	15.710648	1.086503	-1.041964	2.710115	0.000000	-0.157787	0.000000	-0.000002	-0.000000	0.000000	0.000000
59.374420	18.413687	17.188408	1.625312	-1.665357	2.601851	0.000000	-0.235994	0.000000	-0.000002	-0.000000	0.000000	0.000000
59.923480	16.384081	19.411457	2.049317	-2.407370	2.451734	0.000000	-0.310014	0.000000	-0.000002	0.000000	0.000000	0.000000
60.369440	14.795420	21.387401	1.525639	-2.004696	2.328771	0.000000	-0.241727	0.000000	-0.000002	-0.000000	0.000000	0.000000
60.810400	13.652592	22.944126	1.075876	-1.512179	2.236628	0.000000	-0.176590	0.000000	-0.000002	-0.000000	0.000000	0.000000
61.251360	12.883326	24.034377	0.675266	-0.950860	2.172738	0.000000	-0.113465	0.000000	-0.000002	-0.000000	0.000000	0.000000
61.692320	12.452479	24.608548	0.305507	-0.346278	2.136372	0.000000	-0.051632	0.000000	-0.000002	-0.000000	0.000000	0.000000
62.134530	12.340415	24.639981	-0.020132	0.213580	2.127122	0.000000	0.004397	0.000000	-0.000002	-0.000000	0.000000	0.000000
62.431853	12.359553	24.516728	-0.044235	0.200963	2.128430	0.000000	0.004397	0.000000	-0.000002	-0.000000	0.000000	0.000000
62.765186	12.398051	24.387467	-0.071257	0.186818	2.129896	0.000000	0.004397	0.000000	-0.000002	-0.000000	0.000000	0.000000
63.098520	12.454563	24.267637	-0.098280	0.172672	2.131361	0.000000	0.004397	0.000000	-0.000002	-0.000000	0.000000	0.000000
63.433103	12.529404	24.156841	-0.125404	0.158474	2.132833	0.000000	0.004397	0.000000	-0.000002	-0.000000	0.000000	0.000000
63.730426	12.611141	24.066357	-0.118580	0.086838	2.134140	0.000000	-0.000836	0.000000	-0.000002	-0.000000	0.000000	0.000000
64.171386	12.876250	23.724714	-0.484910	0.684984	2.147313	0.000000	0.060640	0.000000	-0.000002	-0.000000	0.000000	0.000000
64.612346	13.472944	22.867335	-0.873394	1.251964	2.187722	0.000000	0.122808	0.000000	-0.000003	-0.000000	0.000000	0.000000
65.053306	14.428484	21.533229	-1.301781	1.761981	2.255826	0.000000	0.186374	0.000000	-0.000003	-0.000000	0.000000	0.000000
65.494266	15.786526	19.783097	-1.789643	2.191829	2.352400	0.000000	0.252063	0.000000	-0.000003	-0.000000	0.000000	0.000000
65.940226	17.632286	17.671794	-2.363962	2.522708	2.480119	0.000000	0.321024	0.000000	-0.000003	-0.000001	0.000000	0.000000
66.489286	19.998156	15.309820	-1.919478	1.804534	2.636011	0.000000	0.245991	0.000000	-0.000003	-0.000000	0.000000	0.000000
67.038346	21.798138	13.661702	-1.339412	1.214894	2.749445	0.000000	0.166593	0.000000	-0.000004	-0.000000	0.000000	0.000000
67.587406	22.905088	12.610046	-0.664736	0.711787	2.818408	0.000000	0.084241	0.000000	-0.000004	-0.000000	0.000000	0.000000
68.136466	23.240818	12.079946	0.056893	0.259380	2.841678	0.000000	0.000395	0.000000	-0.000004	-0.000000	0.000000	0.000000
68.435038	23.246943	11.914214	-0.016680	0.264135	2.844013	0.000000	0.007820	0.000000	-0.000004	-0.000000	0.000000	0.000000
68.768372	23.262844	11.748101	-0.031023	0.234205	2.846619	0.000000	0.007820	0.000000	-0.000004	-0.000000	0.000000	0.000000
69.101705	23.288307	11.601940	-0.045366	0.204276	2.849226	0.000000	0.007820	0.000000	-0.000004	-0.000000	0.000000	0.000000
69.436288	23.323481	11.475297	-0.059762	0.174234	2.851842	0.000000	0.007820	0.000000	-0.000004	-0.000000	0.000000	0.000000
69.733611	23.362822	11.379627	-0.133601	0.177271	2.854167	0.000000	0.015278	0.000000	-0.000004	-0.000000	0.000000	0.000000
70.282671	23.108297	11.412780	0.594421	-0.238009	2.839367	0.000000	-0.069111	0.000000	-0.000004	0.000000	0.000000	0.000000
