#ParticleID	Turn	x[m]	xp	y[m]	yp	z[m]	dE[GeV]# s	beta_x	beta_y	alpha_x	alpha_y	D_x	D_y	D_px	D_py	orbit_x	orbit_px	orbit_y	orbit_py
0.300000	11.830745	24.951941	-0.013206	-0.027751	2.618265	0.000000	-0.000046	0.000000	-0.000000	0.000000	0.000000	0.000000
0.601250	11.846374	24.972300	-0.038674	-0.039833	2.618251	0.000000	-0.000046	0.000000	-0.000000	0.000000	0.000000	0.000000
0.898573	11.876844	24.999533	-0.034684	-0.113065	2.618237	0.000000	-0.006467	0.000000	0.000000	0.000000	0.000000	0.000000
1.339533	12.059773	24.821972	-0.381733	0.514202	2.631679	0.000000	0.067493	0.000000	0.000000	0.000000	0.000000	0.000000
1.780493	12.555277	24.099455	-0.746223	1.118072	2.677873	0.000000	0.142222	0.000000	0.000000	0.000000	0.000000	0.000000
2.221453	13.385993	22.864856	-1.144805	1.671071	2.757345	0.000000	0.218571	0.000000	0.000000	0.000000	0.000000	0.000000
2.662413	14.589875	21.174348	-1.595691	2.148038	2.870999	0.000000	0.297409	0.000000	0.000001	0.000000	0.000000	0.000000
3.108373	16.242730	19.080054	-2.123778	2.528401	3.021993	0.000000	0.380124	0.000000	0.000001	0.000000	0.000000	0.000000
3.657433	18.362195	16.727962	-1.713541	1.780738	3.205432	0.000000	0.287086	0.000000	0.000001	0.000000	0.000000	0.000000
4.206493	19.961635	15.122843	-1.182267	1.159913	3.336312	0.000000	0.188956	0.000000	0.000001	0.000000	0.000000	0.000000
4.755553	20.928075	14.150367	-0.567485	0.621706	3.412313	0.000000	0.087475	0.000000	0.000001	0.000000	0.000000	0.000000
5.304613	21.193250	13.741267	0.087383	0.127782	3.432085	0.000000	-0.015558	0.000000	0.000001	0.000000	0.000000	0.000000
5.603185	21.178346	13.650185	0.017906	0.141375	3.430117	0.000000	-0.006591	0.000000	0.000001	0.000000	0.000000	0.000000
5.936519	21.171657	13.564237	0.002162	0.116467	3.427920	0.000000	-0.006591	0.000000	0.000001	0.000000	0.000000	0.000000
6.269852	21.175463	13.494895	-0.013582	0.091560	3.425723	0.000000	-0.006591	0.000000	0.000001	0.000000	0.000000	0.000000
6.604435	21.189840	13.441991	-0.029386	0.066558	3.423518	0.000000	-0.006591	0.000000	0.000001	0.000000	0.000000	0.000000
6.901758	21.211489	13.409018	-0.098850	0.079376	3.421558	0.000000	0.002349	0.000000	0.000001	0.000000	0.000000	0.000000
7.450818	20.958455	13.582353	0.556973	-0.396934	3.394648	0.000000	-0.100227	0.000000	0.000002	0.000000	0.000000	0.000000
7.999878	20.002689	14.291097	1.173454	-0.901516	3.311823	0.000000	-0.201025	0.000000	0.000002	0.000000	0.000000	0.000000
8.548938	18.411703	15.585731	1.707048	-1.470312	3.174553	0.000000	-0.298258	0.000000	0.000002	0.000000	0.000000	0.000000
9.097998	16.297876	17.558470	2.120065	-2.143835	2.985272	0.000000	-0.390201	0.000000	0.000002	-0.000000	0.000000	0.000000
9.543958	14.648576	19.316347	1.591398	-1.781288	2.829563	0.000000	-0.308500	0.000000	0.000002	0.000000	0.000000	0.000000
9.984918	13.448806	20.697491	1.139736	-1.338924	2.710773	0.000000	-0.230796	0.000000	0.000002	0.000000	0.000000	0.000000
10.425878	12.622986	21.660049	0.740146	-0.835639	2.625634	0.000000	-0.155721	0.000000	0.000002	0.000000	0.000000	0.000000
10.866838	12.133387	22.160225	0.374370	-0.294333	2.573179	0.000000	-0.082419	0.000000	0.000002	0.000000	0.000000	0.000000
11.309048	11.957502	22.174746	0.054917	0.205926	2.552789	0.000000	-0.016317	0.000000	0.000002	0.000000	0.000000	0.000000
11.606371	11.932261	22.056449	0.029977	0.191949	2.547937	0.000000	-0.016317	0.000000	0.000002	0.000000	0.000000	0.000000
12.086371	11.922810	21.883008	-0.010286	0.169385	2.540105	0.000000	-0.016317	0.000000	0.000002	0.000000	0.000000	0.000000
12.566371	11.952011	21.731229	-0.050550	0.146821	2.532273	0.000000	-0.016317	0.000000	0.000002	0.000000	0.000000	0.000000
13.046371	12.019865	21.601112	-0.090813	0.124257	2.524441	0.000000	-0.016317	0.000000	0.000002	0.000000	0.000000	0.000000
13.526371	12.126371	21.492656	-0.131076	0.101693	2.516608	0.000000	-0.016317	0.000000	0.000002	0.000000	0.000000	0.000000
14.007621	12.271959	21.405664	-0.171444	0.079070	2.508756	0.000000	-0.016317	0.000000	0.000002	0.000000	0.000000	0.000000
14.304943	12.381323	21.362802	-0.166022	0.012706	2.503904	0.000000	-0.022457	0.000000	0.000002	0.000000	0.000000	0.000000
14.745903	12.686469	21.117752	-0.528608	0.540897	2.509631	0.000000	0.048456	0.000000	0.000002	0.000000	0.000000	0.000000
15.186863	13.320788	20.415994	-0.915345	1.044478	2.546720	0.000000	0.119921	0.000000	0.000003	0.000000	0.000000	0.000000
15.627823	14.313261	19.289458	-1.343901	1.500536	2.615592	0.000000	0.192752	0.000000	0.000003	0.000000	0.000000	0.000000
16.068783	15.709229	17.789400	-1.833856	1.888320	2.717033	0.000000	0.267778	0.000000	0.000003	0.000000	0.000000	0.000000
16.514743	17.596125	15.962569	-2.412353	2.190937	2.853893	0.000000	0.346317	0.000000	0.000003	0.000001	0.000000	0.000000
17.063803	20.019313	13.922617	-1.974860	1.546347	3.020315	0.000000	0.259002	0.000000	0.000003	0.000000	0.000000	0.000000
17.612863	21.882173	12.526229	-1.397872	1.011900	3.137463	0.000000	0.167092	0.000000	0.000004	0.000000	0.000000	0.000000
18.161923	23.053121	11.673942	-0.722146	0.549528	3.203258	0.000000	0.072219	0.000000	0.000004	0.000000	0.000000	0.000000
18.710983	23.449448	11.305051	0.004590	0.126297	3.216533	0.000000	-0.023935	0.000000	0.000004	0.000000	0.000000	0.000000
19.009556	23.487107	11.220072	-0.069451	0.128782	3.211896	0.000000	-0.015531	0.000000	0.000004	0.000000	0.000000	0.000000
19.342889	23.538161	11.144284	-0.083712	0.098581	3.206719	0.000000	-0.015531	0.000000	0.000004	0.000000	0.000000	0.000000
19.676223	23.598723	11.088631	-0.097972	0.068380	3.201542	0.000000	-0.015531	0.000000	0.000004	0.000000	0.000000	0.000000
20.010806	23.669365	11.052879	-0.229558	0.092828	3.196365	0.000000	0.000306	0.000000	0.000004	0.000000	0.000000	0.000000
20.308129	23.809802	11.005746	-0.304990	0.094451	3.196456	0.000000	0.008657	0.000000	0.000004	0.000000	0.000000	0.000000
20.857189	23.734068	11.124578	0.442107	-0.312156	3.174996	0.000000	-0.086714	0.000000	0.000004	-0.000000	0.000000	0.000000
21.406249	22.850295	11.699430	1.157975	-0.740998	3.101517	0.000000	-0.180546	0.000000	0.000004	-0.000000	0.000000	0.000000
21.955309	21.220908	12.771247	1.792050	-1.222619	2.977322	0.000000	-0.271177	0.000000	0.000004	-0.000000	0.000000	0.000000
22.504369	18.961000	14.416372	2.299543	-1.791325	2.804616	0.000000	-0.356997	0.000000	0.000004	-0.000000	0.000000	0.000000
22.950329	17.180151	15.893225	1.707848	-1.506332	2.662699	0.000000	-0.279803	0.000000	0.000003	-0.000000	0.000000	0.000000
23.391289	15.903246	17.070656	1.198877	-1.153660	2.555636	0.000000	-0.206250	0.000000	0.000003	-0.000000	0.000000	0.000000
23.832249	15.049455	17.912635	0.744679	-0.748497	2.480459	0.000000	-0.135046	0.000000	0.000003	-0.000000	0.000000	0.000000
24.273209	14.579770	18.380853	0.324503	-0.309278	2.436311	0.000000	-0.065380	0.000000	0.000003	-0.000000	0.000000	0.000000
24.715418	14.472847	18.453760	-0.045443	0.098691	2.422687	0.000000	-0.002400	0.000000	0.000003	0.000000	0.000000	0.000000
25.012741	14.505990	18.399911	-0.066029	0.082422	2.421974	0.000000	-0.002400	0.000000	0.000003	0.000000	0.000000	0.000000
25.346075	14.557702	18.351043	-0.089108	0.064183	2.421174	0.000000	-0.002400	0.000000	0.000003	0.000000	0.000000	0.000000
25.679408	14.624801	18.314334	-0.112187	0.045944	2.420374	0.000000	-0.002400	0.000000	0.000003	0.000000	0.000000	0.000000
26.013991	14.707325	18.290086	-0.016038	-0.120742	2.419546	0.000000	-0.022029	0.000000	0.000003	0.000000	0.000000	0.000000
26.311314	14.722874	18.366789	-0.000155	-0.182274	2.412997	0.000000	-0.027946	0.000000	0.000003	-0.000000	0.000000	0.000000
26.752274	14.904431	18.328297	-0.413137	0.269233	2.415781	0.000000	0.040586	0.000000	0.000003	0.000000	0.000000	0.000000
27.193234	15.457120	17.895513	-0.844994	0.708491	2.448858	0.000000	0.109580	0.000000	0.000003	0.000000	0.000000	0.000000
27.634194	16.406191	17.088128	-1.315456	1.115512	2.512605	0.000000	0.179822	0.000000	0.000003	0.000000	0.000000	0.000000
28.075154	17.795007	15.942877	-1.846018	1.471779	2.607747	0.000000	0.252112	0.000000	0.000004	0.000000	0.000000	0.000000
28.521114	19.711151	14.494622	-2.465875	1.761995	2.736971	0.000000	0.327717	0.000000	0.000004	0.000000	0.000000	0.000000
29.070174	22.146577	12.880820	-1.943495	1.194562	2.894249	0.000000	0.244338	0.000000	0.000004	0.000000	0.000000	0.000000
29.619234	23.929127	11.840028	-1.283836	0.712216	3.004487	0.000000	0.156625	0.000000	0.000004	0.000000	0.000000	0.000000
30.168294	24.932891	11.298112	-0.533493	0.280598	3.065732	0.000000	0.066135	0.000000	0.000004	0.000000	0.000000	0.000000
30.717354	25.086969	11.216473	0.254533	-0.131032	3.076896	0.000000	-0.025529	0.000000	0.000004	-0.000000	0.000000	0.000000
31.015927	24.977796	11.285249	0.176661	-0.128621	3.071674	0.000000	-0.017490	0.000000	0.000004	-0.000000	0.000000	0.000000
31.349260	24.864609	11.381005	0.162900	-0.158647	3.065844	0.000000	-0.017490	0.000000	0.000004	-0.000000	0.000000	0.000000
31.682593	24.760597	11.496778	0.149138	-0.188673	3.060014	0.000000	-0.017490	0.000000	0.000004	-0.000000	0.000000	0.000000
32.017177	24.665420	11.633116	0.135325	-0.218811	3.054162	0.000000	-0.017490	0.000000	0.000004	-0.000000	0.000000	0.000000
32.314499	24.588600	11.771194	0.058806	-0.214838	3.048961	0.000000	-0.009524	0.000000	0.000004	-0.000000	0.000000	0.000000
32.863559	24.102812	12.246463	0.820719	-0.655877	3.018856	0.000000	-0.099976	0.000000	0.000004	-0.000000	0.000000	0.000000
33.412619	22.807390	13.228705	1.524660	-1.143633	2.939502	0.000000	-0.188654	0.000000	0.000004	-0.000000	0.000000	0.000000
33.961679	20.793835	14.787881	2.120907	-1.712848	2.812306	0.000000	-0.273987	0.000000	0.000004	-0.000000	0.000000	0.000000
34.510739	18.204376	17.035049	2.567343	-2.404064	2.639525	0.000000	-0.354459	0.000000	0.000003	-0.000001	0.000000	0.000000
34.956699	16.191103	19.044984	1.963300	-2.084102	2.497788	0.000000	-0.281545	0.000000	0.000003	-0.000000	0.000000	0.000000
35.397659	14.689924	20.706745	1.453958	-1.670064	2.389017	0.000000	-0.212265	0.000000	0.000003	-0.000000	0.000000	0.000000
35.838619	13.607066	21.968328	1.011042	-1.180040	2.310233	0.000000	-0.145403	0.000000	0.000003	-0.000000	0.000000	0.000000
36.279579	12.893055	22.772331	0.614318	-0.636324	2.260540	0.000000	-0.080197	0.000000	0.000003	-0.000000	0.000000	0.000000
36.721789	12.514581	23.082475	0.276244	-0.120314	2.239345	0.000000	-0.021396	0.000000	0.000003	-0.000000	0.000000	0.000000
37.019112	12.357917	23.157904	0.250673	-0.133382	2.232984	0.000000	-0.021396	0.000000	0.000003	-0.000000	0.000000	0.000000
37.352445	12.200358	23.251709	0.222005	-0.148032	2.225852	0.000000	-0.021396	0.000000	0.000002	-0.000000	0.000000	0.000000
37.685779	12.061911	23.355280	0.193336	-0.162682	2.218720	0.000000	-0.021396	0.000000	0.000002	-0.000000	0.000000	0.000000
38.020362	11.942164	23.469061	0.164561	-0.177387	2.211562	0.000000	-0.021396	0.000000	0.000002	-0.000000	0.000000	0.000000
38.317684	11.851912	23.578428	0.168053	-0.248274	2.205200	0.000000	-0.026803	0.000000	0.000002	-0.000000	0.000000	0.000000
38.758644	11.854879	23.536244	-0.174809	0.343574	2.207306	0.000000	0.036363	0.000000	0.000002	-0.000000	0.000000	0.000000
39.199604	12.162590	22.977023	-0.525658	0.919790	2.237330	0.000000	0.099943	0.000000	0.000002	-0.000000	0.000000	0.000000
39.640564	12.789101	21.926208	-0.900522	1.454157	2.295615	0.000000	0.164661	0.000000	0.000002	-0.000000	0.000000	0.000000
40.081524	13.763038	20.431612	-1.316529	1.922360	2.382823	0.000000	0.231255	0.000000	0.000002	0.000000	0.000000	0.000000
40.527484	15.146458	18.538670	-1.796508	2.304375	2.501421	0.000000	0.300888	0.000000	0.000002	0.000000	0.000000	0.000000
41.076544	16.912118	16.411577	-1.400242	1.592554	2.646101	0.000000	0.225345	0.000000	0.000002	0.000000	0.000000	0.000000
41.625604	18.185410	14.999646	-0.905070	0.994167	2.748143	0.000000	0.145806	0.000000	0.000002	-0.000000	0.000000	0.000000
42.174664	18.876395	14.202307	-0.345968	0.466593	2.805738	0.000000	0.063680	0.000000	0.000002	-0.000000	0.000000	0.000000
42.723724	18.936265	13.962768	0.237572	-0.027747	2.817864	0.000000	-0.019575	0.000000	0.000002	-0.000000	0.000000	0.000000
43.022297	18.828819	13.963938	0.171770	-0.012651	2.814218	0.000000	-0.012213	0.000000	0.000002	-0.000000	0.000000	0.000000
43.502297	18.676517	13.992585	0.145525	-0.047031	2.808356	0.000000	-0.012213	0.000000	0.000002	-0.000000	0.000000	0.000000
43.982297	18.549410	14.054236	0.119280	-0.081410	2.802494	0.000000	-0.012213	0.000000	0.000002	-0.000000	0.000000	0.000000
44.462297	18.447499	14.148893	0.093035	-0.115790	2.796632	0.000000	-0.012213	0.000000	0.000002	-0.000000	0.000000	0.000000
44.942297	18.370782	14.276553	0.066790	-0.150170	2.790770	0.000000	-0.012213	0.000000	0.000002	-0.000000	0.000000	0.000000
45.423547	18.319387	14.437501	-0.050287	-0.113107	2.784910	0.000000	0.001585	0.000000	0.000002	-0.000000	0.000000	0.000000
45.720870	18.354128	14.510961	-0.114514	-0.096050	2.785381	0.000000	0.008863	0.000000	0.000002	-0.000000	0.000000	0.000000
46.269930	18.170823	14.897170	0.446389	-0.611502	2.767679	0.000000	-0.073250	0.000000	0.000001	-0.000000	0.000000	0.000000
46.818990	17.385329	15.869861	0.975760	-1.170511	2.705183	0.000000	-0.154063	0.000000	0.000001	-0.000000	0.000000	0.000000
47.368050	16.053127	17.498315	1.436209	-1.812892	2.599002	0.000000	-0.232143	0.000000	0.000001	-0.000000	0.000000	0.000000
47.917110	14.268318	19.898525	1.795211	-2.584401	2.451018	0.000000	-0.306106	0.000000	0.000001	-0.000000	0.000000	0.000000
48.363070	12.879249	22.032629	1.330606	-2.180897	2.329798	0.000000	-0.237815	0.000000	0.000001	-0.000000	0.000000	0.000000
48.804030	11.885934	23.741382	0.930559	-1.679432	2.239389	0.000000	-0.172629	0.000000	0.000001	-0.000000	0.000000	0.000000
49.244990	11.225419	24.972371	0.573026	-1.101555	2.177264	0.000000	-0.109410	0.000000	0.000001	-0.000000	0.000000	0.000000
49.685950	10.867527	25.669586	0.241674	-0.473558	2.142716	0.000000	-0.047437	0.000000	0.000000	-0.000000	0.000000	0.000000
50.128160	10.796036	25.801023	-0.052279	0.112664	2.135361	0.000000	0.008760	0.000000	0.000000	-0.000000	0.000000	0.000000
50.425482	10.835334	25.737497	-0.079894	0.100995	2.137966	0.000000	0.008760	0.000000	0.000000	-0.000000	0.000000	0.000000
50.758816	10.898917	25.674528	-0.110854	0.087911	2.140886	0.000000	0.008760	0.000000	0.000000	-0.000000	0.000000	0.000000
51.092149	10.983139	25.620282	-0.141814	0.074828	2.143806	0.000000	0.008760	0.000000	0.000000	-0.000000	0.000000	0.000000
51.426732	11.088209	25.575122	-0.082935	-0.145783	2.146715	0.000000	-0.008655	0.000000	-0.000000	-0.000000	0.000000	0.000000
51.724055	11.145553	25.665341	-0.082601	-0.220594	2.144142	0.000000	-0.013913	0.000000	-0.000000	-0.000000	0.000000	0.000000
52.165015	11.363888	25.574386	-0.414413	0.426076	2.151594	0.000000	0.047747	0.000000	-0.000000	-0.000000	0.000000	0.000000
52.605975	11.882066	24.919522	-0.765158	1.053360	2.186331	0.000000	0.109952	0.000000	-0.000000	-0.000000	0.000000	0.000000
53.046935	12.723761	23.730544	-1.150861	1.632717	2.248747	0.000000	0.173409	0.000000	-0.000000	-0.000000	0.000000	0.000000
53.487895	13.927427	22.061552	-1.589144	2.137787	2.339554	0.000000	0.238841	0.000000	-0.000001	-0.000000	0.000000	0.000000
53.933855	15.568685	19.963525	-2.104268	2.546923	2.461290	0.000000	0.307392	0.000000	-0.000001	-0.000000	0.000000	0.000000
54.482915	17.681695	17.602813	-1.721365	1.778008	2.609887	0.000000	0.233087	0.000000	-0.000001	-0.000000	0.000000	0.000000
55.031975	19.304570	16.012380	-1.216872	1.135737	2.716488	0.000000	0.154646	0.000000	-0.000001	-0.000000	0.000000	0.000000
55.581035	20.322678	15.078942	-0.626427	0.574362	2.779203	0.000000	0.073463	0.000000	-0.000001	-0.000000	0.000000	0.000000
56.130095	20.664106	14.736014	0.008267	0.053898	2.796921	0.000000	-0.009023	0.000000	-0.000001	-0.000000	0.000000	0.000000
56.428668	20.695733	14.686939	-0.060204	0.071966	2.796409	0.000000	-0.001715	0.000000	-0.000001	-0.000000	0.000000	0.000000
56.762001	20.741258	14.646566	-0.076369	0.049153	2.795837	0.000000	-0.001715	0.000000	-0.000001	-0.000000	0.000000	0.000000
57.095334	20.797558	14.621402	-0.092534	0.026339	2.795266	0.000000	-0.001715	0.000000	-0.000001	-0.000000	0.000000	0.000000
57.429918	20.864908	14.611439	-0.108759	0.003440	2.794692	0.000000	-0.001715	0.000000	-0.000002	-0.000000	0.000000	0.000000
57.727240	20.933868	14.615443	-0.177875	0.021279	2.794182	0.000000	0.005586	0.000000	-0.000002	-0.000000	0.000000	0.000000
58.276300	20.771991	14.872813	0.470954	-0.492793	2.774608	0.000000	-0.076781	0.000000	-0.000002	-0.000000	0.000000	0.000000
58.825360	19.911754	15.710544	1.086516	-1.041966	2.710117	0.000000	-0.157787	0.000000	-0.000002	-0.000000	0.000000	0.000000
59.374420	18.413920	17.188303	1.625333	-1.665356	2.601853	0.000000	-0.235993	0.000000	-0.000002	-0.000000	0.000000	0.000000
59.923480	16.384287	19.411350	2.049344	-2.407366	2.451737	0.000000	-0.310014	0.000000	-0.000002	0.000000	0.000000	0.000000
60.369440	14.795604	21.387293	1.525660	-2.004696	2.328774	0.000000	-0.241727	0.000000	-0.000002	-0.000000	0.000000	0.000000
60.810400	13.652760	22.944020	1.075892	-1.512183	2.236631	0.000000	-0.176590	0.000000	-0.000002	-0.000000	0.000000	0.000000
61.251360	12.883482	24.034275	0.675278	-0.950867	2.172741	0.000000	-0.113464	0.000000	-0.000002	-0.000000	0.000000	0.000000
61.692320	12.452626	24.608453	0.305516	-0.346287	2.136375	0.000000	-0.051631	0.000000	-0.000002	-0.000000	0.000000	0.000000
62.134530	12.340557	24.639895	-0.020127	0.213569	2.127126	0.000000	0.004398	0.000000	-0.000002	-0.000000	0.000000	0.000000
62.431853	12.359691	24.516649	-0.044230	0.200952	2.128433	0.000000	0.004398	0.000000	-0.000002	-0.000000	0.000000	0.000000
62.765186	12.398185	24.387396	-0.071252	0.186806	2.129899	0.000000	0.004398	0.000000	-0.000002	-0.000000	0.000000	0.000000
63.098520	12.454694	24.267573	-0.098274	0.172661	2.131365	0.000000	0.004398	0.000000	-0.000002	-0.000000	0.000000	0.000000
63.433103	12.529531	24.156785	-0.125397	0.158463	2.132837	0.000000	0.004398	0.000000	-0.000002	-0.000000	0.000000	0.000000
63.730426	12.611264	24.066307	-0.118573	0.086827	2.134145	0.000000	-0.000836	0.000000	-0.000002	-0.000000	0.000000	0.000000
64.171386	12.876368	23.724675	-0.484906	0.684972	2.147318	0.000000	0.060641	0.000000	-0.000002	-0.000000	0.000000	0.000000
64.612346	13.473060	22.867306	-0.873392	1.251952	2.187727	0.000000	0.122809	0.000000	-0.000002	-0.000000	0.000000	0.000000
65.053306	14.428599	21.533212	-1.301782	1.761968	2.255831	0.000000	0.186375	0.000000	-0.000003	-0.000000	0.000000	0.000000
65.494266	15.786643	19.783091	-1.789646	2.191817	2.352406	0.000000	0.252064	0.000000	-0.000003	-0.000000	0.000000	0.000000
65.940226	17.632406	17.671797	-2.363968	2.522697	2.480125	0.000000	0.321026	0.000000	-0.000003	-0.000001	0.000000	0.000000
66.489286	19.998280	15.309835	-1.919479	1.804525	2.636018	0.000000	0.245992	0.000000	-0.000003	-0.000000	0.000000	0.000000
67.038346	21.798260	13.661726	-1.339408	1.214885	2.749452	0.000000	0.166594	0.000000	-0.000003	-0.000000	0.000000	0.000000
67.587406	22.905204	12.610080	-0.664728	0.711779	2.818416	0.000000	0.084242	0.000000	-0.000004	-0.000000	0.000000	0.000000
68.136466	23.240923	12.079990	0.056905	0.259371	2.841686	0.000000	0.000395	0.000000	-0.000004	-0.000000	0.000000	0.000000
68.435038	23.247041	11.914264	-0.016668	0.264126	2.844020	0.000000	0.007820	0.000000	-0.000004	-0.000000	0.000000	0.000000
68.768372	23.262934	11.748157	-0.031011	0.234196	2.846627	0.000000	0.007820	0.000000	-0.000004	-0.000000	0.000000	0.000000
69.101705	23.288389	11.602002	-0.045354	0.204267	2.849234	0.000000	0.007820	0.000000	-0.000004	-0.000000	0.000000	0.000000
69.436288	23.323555	11.475365	-0.059750	0.174225	2.851850	0.000000	0.007820	0.000000	-0.000004	-0.000000	0.000000	0.000000
69.733611	23.362889	11.379700	-0.133588	0.177263	2.854176	0.000000	0.015278	0.000000	-0.000004	-0.000000	0.000000	0.000000
70.282671	23.108349	11.412863	0.594435	-0.238019	2.839375	0.000000	-0.069111	0.000000	-0.000004	0.000000	0.000000	0.000000
