#ParticleID	Turn	x[m]	xp	y[m]	yp	z[m]	dE[GeV]# s	beta_x	beta_y	alpha_x	alpha_y	D_x	D_y	D_px	D_py	orbit_x	orbit_px	orbit_y	orbit_py
0.300000	11.805422	25.051220	-0.010259	-0.026870	2.618270	0.000000	-0.000049	0.000000	-0.000002	0.000002	0.000000	0.000000
0.601250	11.819291	25.071034	-0.035780	-0.038904	2.618255	0.000000	-0.000049	0.000000	-0.000001	0.000002	0.000000	0.000000
0.898573	11.848056	25.097700	-0.031913	-0.112328	2.618240	0.000000	-0.006470	0.000000	-0.000001	0.000002	0.000000	0.000000
1.339533	12.028231	24.918346	-0.378234	0.517516	2.631680	0.000000	0.067490	0.000000	0.000000	0.000002	0.000000	0.000000
1.780493	12.520271	24.191821	-0.741836	1.123814	2.677872	0.000000	0.142219	0.000000	0.000001	0.000002	0.000000	0.000000
2.221453	13.346656	22.951180	-1.139331	1.678979	2.757342	0.000000	0.218568	0.000000	0.000002	0.000002	0.000000	0.000000
2.662413	14.545141	21.252872	-1.588878	2.157752	2.870995	0.000000	0.297406	0.000000	0.000002	0.000002	0.000000	0.000000
3.108373	16.191203	19.149265	-2.115303	2.539483	3.021986	0.000000	0.380120	0.000000	0.000003	0.000002	0.000000	0.000000
3.657433	18.302039	16.786557	-1.706394	1.789105	3.205422	0.000000	0.287083	0.000000	0.000004	0.000002	0.000000	0.000000
4.206493	19.894598	15.173460	-1.176954	1.166162	3.336301	0.000000	0.188954	0.000000	0.000005	0.000002	0.000000	0.000000
4.755553	20.856388	14.195076	-0.564379	0.626281	3.412299	0.000000	0.087473	0.000000	0.000006	0.000001	0.000000	0.000000
5.304613	21.119474	13.781718	0.088060	0.131010	3.432070	0.000000	-0.015560	0.000000	0.000007	0.000001	0.000000	0.000000
5.603185	21.104065	13.688633	0.018729	0.144748	3.430101	0.000000	-0.006593	0.000000	0.000007	0.000001	0.000000	0.000000
5.936519	21.096845	13.600422	0.002929	0.119887	3.427903	0.000000	-0.006593	0.000000	0.000008	0.000001	0.000000	0.000000
6.269852	21.100159	13.528785	-0.012871	0.095025	3.425705	0.000000	-0.006593	0.000000	0.000008	0.000001	0.000000	0.000000
6.604435	21.114079	13.473546	-0.028731	0.070071	3.423498	0.000000	-0.006593	0.000000	0.000009	0.000001	0.000000	0.000000
6.901758	21.135354	13.438472	-0.098043	0.083005	3.421538	0.000000	0.002346	0.000000	0.000009	0.000001	0.000000	0.000000
7.450818	20.882837	13.608263	0.555228	-0.394070	3.394626	0.000000	-0.100229	0.000000	0.000010	0.000001	0.000000	0.000000
7.999878	19.930339	14.314186	1.169281	-0.899213	3.311800	0.000000	-0.201027	0.000000	0.000010	0.000001	0.000000	0.000000
8.548938	18.345141	15.606522	1.700742	-1.468405	3.174528	0.000000	-0.298259	0.000000	0.000010	0.000000	0.000000	0.000000
9.097998	16.239212	17.577322	2.112070	-2.142189	2.985247	0.000000	-0.390201	0.000000	0.000011	0.000000	0.000000	0.000000
9.543958	14.596244	19.333378	1.585142	-1.778864	2.829538	0.000000	-0.308500	0.000000	0.000011	0.000000	0.000000	0.000000
9.984918	13.401339	20.712083	1.134918	-1.335838	2.710747	0.000000	-0.230797	0.000000	0.000011	0.000001	0.000000	0.000000
10.425878	12.579217	21.671679	0.736546	-0.832033	2.625608	0.000000	-0.155723	0.000000	0.000011	0.000001	0.000000	0.000000
10.866838	12.092317	22.168504	0.371824	-0.290370	2.573151	0.000000	-0.082422	0.000000	0.000012	0.000001	0.000000	0.000000
11.309048	11.918262	22.179429	0.053209	0.210059	2.552759	0.000000	-0.016319	0.000000	0.000012	0.000001	0.000000	0.000000
11.606371	11.894059	22.058680	0.028192	0.196062	2.547907	0.000000	-0.016319	0.000000	0.000013	0.000001	0.000000	0.000000
12.086371	11.886382	21.881307	-0.012197	0.173465	2.540073	0.000000	-0.016319	0.000000	0.000013	0.000001	0.000000	0.000000
12.566371	11.917477	21.725626	-0.052585	0.150869	2.532239	0.000000	-0.016319	0.000000	0.000014	0.000001	0.000000	0.000000
13.046371	11.987345	21.591639	-0.092973	0.128272	2.524405	0.000000	-0.016319	0.000000	0.000015	0.000001	0.000000	0.000000
13.526371	12.095985	21.479344	-0.133362	0.105676	2.516571	0.000000	-0.016319	0.000000	0.000015	0.000001	0.000000	0.000000
14.007621	12.243834	21.388534	-0.173855	0.083020	2.508717	0.000000	-0.016319	0.000000	0.000016	0.000001	0.000000	0.000000
14.304943	12.354654	21.343328	-0.168580	0.016692	2.503864	0.000000	-0.022459	0.000000	0.000016	0.000001	0.000000	0.000000
14.745903	12.661818	21.095021	-0.530642	0.544271	2.509589	0.000000	0.048454	0.000000	0.000017	0.000002	0.000000	0.000000
15.186863	13.297734	20.390616	-0.916947	1.047086	2.546676	0.000000	0.119918	0.000000	0.000018	0.000002	0.000000	0.000000
15.627823	14.291457	19.262162	-1.345145	1.502259	2.615546	0.000000	0.192747	0.000000	0.000019	0.000003	0.000000	0.000000
16.068783	15.688387	17.761003	-1.834799	1.889081	2.716983	0.000000	0.267772	0.000000	0.000020	0.000003	0.000000	0.000000
16.514743	17.576006	15.933942	-2.413038	2.190694	2.853838	0.000000	0.346310	0.000000	0.000022	0.000004	0.000000	0.000000
17.063803	20.000482	13.893928	-1.976506	1.546703	3.020256	0.000000	0.258996	0.000000	0.000024	0.000003	0.000000	0.000000
17.612863	21.865628	12.496809	-1.400363	1.012881	3.137400	0.000000	0.167089	0.000000	0.000025	0.000002	0.000000	0.000000
18.161923	23.039699	11.643072	-0.725305	0.551204	3.203193	0.000000	0.072218	0.000000	0.000026	0.000001	0.000000	0.000000
18.710983	23.439763	11.271907	0.000984	0.128788	3.216467	0.000000	-0.023934	0.000000	0.000027	0.000001	0.000000	0.000000
19.009556	23.479555	11.185526	-0.073030	0.131081	3.211829	0.000000	-0.015532	0.000000	0.000027	0.000001	0.000000	0.000000
19.342889	23.533000	11.108243	-0.087302	0.100768	3.206652	0.000000	-0.015532	0.000000	0.000027	0.000001	0.000000	0.000000
19.676223	23.595959	11.051168	-0.101575	0.070456	3.201474	0.000000	-0.015532	0.000000	0.000027	0.000001	0.000000	0.000000
20.010806	23.669015	11.014065	-0.233170	0.094600	3.196297	0.000000	0.000304	0.000000	0.000028	0.000001	0.000000	0.000000
20.308129	23.811607	10.965910	-0.308616	0.096009	3.196387	0.000000	0.008654	0.000000	0.000028	0.000001	0.000000	0.000000
20.857189	23.739803	11.082410	0.438618	-0.309443	3.174925	0.000000	-0.086715	0.000000	0.000028	-0.000000	0.000000	0.000000
21.406249	22.859671	11.653564	1.154871	-0.736937	3.101446	0.000000	-0.180546	0.000000	0.000028	-0.000001	0.000000	0.000000
21.955309	21.233380	12.720054	1.789548	-1.216920	2.977254	0.000000	-0.271174	0.000000	0.000027	-0.000002	0.000000	0.000000
22.504369	18.975803	14.357844	2.297821	-1.783583	2.804550	0.000000	-0.356992	0.000000	0.000026	-0.000003	0.000000	0.000000
22.950329	17.196538	15.828375	1.706001	-1.499955	2.662637	0.000000	-0.279799	0.000000	0.000025	-0.000002	0.000000	0.000000
23.391289	15.921346	17.000891	1.196821	-1.148934	2.555576	0.000000	-0.206248	0.000000	0.000024	-0.000001	0.000000	0.000000
23.832249	15.069494	17.839512	0.742320	-0.745636	2.480399	0.000000	-0.135045	0.000000	0.000023	-0.000001	0.000000	0.000000
24.273209	14.602061	18.306081	0.321734	-0.308413	2.436252	0.000000	-0.065381	0.000000	0.000023	-0.000000	0.000000	0.000000
24.715418	14.497815	18.379125	-0.048695	0.097712	2.422627	0.000000	-0.002401	0.000000	0.000023	0.000000	0.000000	0.000000
25.012741	14.532884	18.325877	-0.069252	0.081381	2.421913	0.000000	-0.002401	0.000000	0.000023	0.000000	0.000000	0.000000
25.346075	14.586733	18.277726	-0.092298	0.063071	2.421113	0.000000	-0.002401	0.000000	0.000023	0.000000	0.000000	0.000000
25.679408	14.655948	18.241782	-0.115345	0.044761	2.420312	0.000000	-0.002401	0.000000	0.000024	0.000000	0.000000	0.000000
26.013991	14.740573	18.218348	-0.018892	-0.121413	2.419484	0.000000	-0.022029	0.000000	0.000024	0.000000	0.000000	0.000000
26.311314	14.757807	18.295469	-0.002887	-0.182829	2.412934	0.000000	-0.027945	0.000000	0.000024	0.000000	0.000000	0.000000
26.752274	14.942159	18.258319	-0.416769	0.266757	2.415719	0.000000	0.040585	0.000000	0.000024	0.000001	0.000000	0.000000
27.193234	15.498508	17.828527	-0.849692	0.704207	2.448794	0.000000	0.109577	0.000000	0.000024	0.000001	0.000000	0.000000
27.634194	16.452270	17.025649	-1.321434	1.109615	2.512539	0.000000	0.179818	0.000000	0.000025	0.000002	0.000000	0.000000
28.075154	17.847020	15.886214	-1.853550	1.464537	2.607678	0.000000	0.252106	0.000000	0.000026	0.000003	0.000000	0.000000
28.521114	19.770710	14.444900	-2.475321	1.753735	2.736898	0.000000	0.327709	0.000000	0.000027	0.000003	0.000000	0.000000
29.070174	22.215719	12.839076	-1.951396	1.188205	2.894171	0.000000	0.244333	0.000000	0.000029	0.000002	0.000000	0.000000
29.619234	24.005837	11.804432	-1.289634	0.707309	3.004407	0.000000	0.156623	0.000000	0.000030	0.000001	0.000000	0.000000
30.168294	25.014620	11.267272	-0.536779	0.276793	3.065650	0.000000	0.066135	0.000000	0.000030	0.000000	0.000000	0.000000
30.717354	25.170812	11.189335	0.253992	-0.134008	3.076815	0.000000	-0.025527	0.000000	0.000030	-0.000001	0.000000	0.000000
31.015927	25.062071	11.259958	0.175960	-0.131757	3.071593	0.000000	-0.017490	0.000000	0.000030	-0.000000	0.000000	0.000000
31.349260	24.949335	11.357835	0.162247	-0.161874	3.065763	0.000000	-0.017490	0.000000	0.000030	-0.000000	0.000000	0.000000
31.682593	24.845741	11.475790	0.148535	-0.191991	3.059933	0.000000	-0.017490	0.000000	0.000030	-0.000000	0.000000	0.000000
32.017177	24.750951	11.614379	0.134772	-0.222222	3.054082	0.000000	-0.017490	0.000000	0.000030	-0.000000	0.000000	0.000000
32.314499	24.674446	11.754509	0.058087	-0.218381	3.048882	0.000000	-0.009525	0.000000	0.000030	-0.000000	0.000000	0.000000
32.863559	24.187879	12.233496	0.822849	-0.659145	3.018777	0.000000	-0.099975	0.000000	0.000029	-0.000001	0.000000	0.000000
33.412619	22.888611	13.219281	1.529489	-1.146858	2.939425	0.000000	-0.188651	0.000000	0.000028	-0.000002	0.000000	0.000000
33.961679	20.868418	14.782080	2.128094	-1.716259	2.812233	0.000000	-0.273981	0.000000	0.000027	-0.000003	0.000000	0.000000
34.510739	18.269996	17.033207	2.576380	-2.407906	2.639457	0.000000	-0.354451	0.000000	0.000025	-0.000004	0.000000	0.000000
34.956699	16.249570	19.046788	1.970359	-2.088401	2.497725	0.000000	-0.281538	0.000000	0.000023	-0.000003	0.000000	0.000000
35.397659	14.742908	20.712469	1.459377	-1.674620	2.388957	0.000000	-0.212260	0.000000	0.000022	-0.000003	0.000000	0.000000
35.838619	13.655899	21.978106	1.015071	-1.184644	2.310176	0.000000	-0.145400	0.000000	0.000021	-0.000002	0.000000	0.000000
36.279579	12.938879	22.786115	0.617140	-0.640768	2.260485	0.000000	-0.080195	0.000000	0.000020	-0.000002	0.000000	0.000000
36.721789	12.558395	23.100041	0.278090	-0.124429	2.239291	0.000000	-0.021394	0.000000	0.000019	-0.000001	0.000000	0.000000
37.019112	12.400614	23.177919	0.252583	-0.137499	2.232931	0.000000	-0.021394	0.000000	0.000019	-0.000001	0.000000	0.000000
37.352445	12.241757	23.274469	0.223988	-0.152153	2.225800	0.000000	-0.021394	0.000000	0.000018	-0.000001	0.000000	0.000000
37.685779	12.101963	23.380789	0.195393	-0.166806	2.218669	0.000000	-0.021394	0.000000	0.000018	-0.000001	0.000000	0.000000
38.020362	11.980816	23.497331	0.166690	-0.181514	2.211511	0.000000	-0.021394	0.000000	0.000017	-0.000001	0.000000	0.000000
38.317684	11.889278	23.609154	0.170336	-0.252473	2.205151	0.000000	-0.026801	0.000000	0.000017	-0.000001	0.000000	0.000000
38.758644	11.890604	23.570301	-0.173354	0.340248	2.207258	0.000000	0.036364	0.000000	0.000017	-0.000001	0.000000	0.000000
39.199604	12.197370	23.013571	-0.524964	0.917487	2.237282	0.000000	0.099943	0.000000	0.000016	-0.000000	0.000000	0.000000
39.640564	12.823592	21.964297	-0.900557	1.452981	2.295567	0.000000	0.164660	0.000000	0.000016	-0.000000	0.000000	0.000000
40.081524	13.797881	20.470218	-1.317295	1.922366	2.382775	0.000000	0.231253	0.000000	0.000016	0.000000	0.000000	0.000000
40.527484	15.182325	18.576736	-1.798044	2.305571	2.501371	0.000000	0.300884	0.000000	0.000017	0.000001	0.000000	0.000000
41.076544	16.948930	16.448870	-1.400417	1.592773	2.646049	0.000000	0.225344	0.000000	0.000017	0.000000	0.000000	0.000000
41.625604	18.221656	15.037224	-0.903870	0.993425	2.748091	0.000000	0.145806	0.000000	0.000017	-0.000000	0.000000	0.000000
42.174664	18.910604	14.241249	-0.343479	0.464837	2.805686	0.000000	0.063681	0.000000	0.000017	-0.000001	0.000000	0.000000
42.723724	18.967110	14.004249	0.241174	-0.030642	2.817814	0.000000	-0.019572	0.000000	0.000016	-0.000001	0.000000	0.000000
43.022297	18.857556	14.007066	0.175303	-0.015377	2.814169	0.000000	-0.012211	0.000000	0.000016	-0.000001	0.000000	0.000000
43.502297	18.701858	14.038281	0.149067	-0.049654	2.808308	0.000000	-0.012211	0.000000	0.000015	-0.000001	0.000000	0.000000
43.982297	18.571347	14.102401	0.122831	-0.083930	2.802448	0.000000	-0.012211	0.000000	0.000014	-0.000001	0.000000	0.000000
44.462297	18.466022	14.199427	0.096595	-0.118207	2.796587	0.000000	-0.012211	0.000000	0.000014	-0.000001	0.000000	0.000000
44.942297	18.385885	14.329358	0.070359	-0.152483	2.790727	0.000000	-0.012211	0.000000	0.000013	-0.000001	0.000000	0.000000
45.423547	18.331051	14.492483	-0.046768	-0.115044	2.784868	0.000000	0.001587	0.000000	0.000012	-0.000001	0.000000	0.000000
45.720870	18.363694	14.567074	-0.110999	-0.097775	2.785340	0.000000	0.008864	0.000000	0.000012	-0.000001	0.000000	0.000000
46.269930	18.176385	14.956124	0.450124	-0.614983	2.767640	0.000000	-0.073247	0.000000	0.000011	-0.000002	0.000000	0.000000
46.818990	17.386787	15.933708	0.979452	-1.175995	2.705146	0.000000	-0.154059	0.000000	0.000010	-0.000002	0.000000	0.000000
47.368050	16.050674	17.569457	1.439597	-1.820771	2.598968	0.000000	-0.232139	0.000000	0.000009	-0.000002	0.000000	0.000000
47.917110	14.262421	19.979882	1.798056	-2.595236	2.450989	0.000000	-0.306101	0.000000	0.000008	-0.000003	0.000000	0.000000
48.363070	12.870894	22.122882	1.333294	-2.189924	2.329771	0.000000	-0.237810	0.000000	0.000007	-0.000002	0.000000	0.000000
48.804030	11.875231	23.838649	0.933216	-1.686250	2.239365	0.000000	-0.172625	0.000000	0.000006	-0.000002	0.000000	0.000000
49.244990	11.212340	25.074557	0.575775	-1.105852	2.177243	0.000000	-0.109406	0.000000	0.000005	-0.000002	0.000000	0.000000
49.685950	10.851938	25.774373	0.244639	-0.475138	2.142697	0.000000	-0.047433	0.000000	0.000004	-0.000002	0.000000	0.000000
50.128160	10.777680	25.905973	-0.049008	0.113617	2.135344	0.000000	0.008763	0.000000	0.000003	-0.000002	0.000000	0.000000
50.425482	10.815044	25.841867	-0.076661	0.101992	2.137950	0.000000	0.008763	0.000000	0.000003	-0.000002	0.000000	0.000000
50.758816	10.876485	25.778216	-0.107663	0.088959	2.140872	0.000000	0.008763	0.000000	0.000002	-0.000002	0.000000	0.000000
51.092149	10.958595	25.723255	-0.138666	0.075926	2.143794	0.000000	0.008763	0.000000	0.000001	-0.000002	0.000000	0.000000
51.426732	11.061573	25.677345	-0.080046	-0.145463	2.146704	0.000000	-0.008652	0.000000	0.000001	-0.000002	0.000000	0.000000
51.724055	11.117215	25.767360	-0.079834	-0.220477	2.144132	0.000000	-0.013910	0.000000	0.000000	-0.000002	0.000000	0.000000
52.165015	11.332804	25.675110	-0.410930	0.428884	2.151587	0.000000	0.047750	0.000000	-0.000001	-0.000002	0.000000	0.000000
52.605975	11.847538	25.016626	-0.760801	1.058731	2.186326	0.000000	0.109955	0.000000	-0.000001	-0.000002	0.000000	0.000000
53.046935	12.684932	23.821868	-1.145430	1.640406	2.248744	0.000000	0.173412	0.000000	-0.000002	-0.000002	0.000000	0.000000
53.487895	13.883245	22.145197	-1.582390	2.147445	2.339552	0.000000	0.238844	0.000000	-0.000003	-0.000002	0.000000	0.000000
53.933855	15.517769	20.037833	-2.095870	2.558115	2.461290	0.000000	0.307395	0.000000	-0.000004	-0.000002	0.000000	0.000000
54.482915	17.622226	17.666452	-1.714278	1.786363	2.609889	0.000000	0.233089	0.000000	-0.000005	-0.000002	0.000000	0.000000
55.031975	19.238274	16.068122	-1.211599	1.141850	2.716493	0.000000	0.154649	0.000000	-0.000006	-0.000002	0.000000	0.000000
55.581035	20.251762	15.128998	-0.623338	0.578668	2.779210	0.000000	0.073466	0.000000	-0.000007	-0.000002	0.000000	0.000000
56.130095	20.591105	14.782188	0.008953	0.056704	2.796929	0.000000	-0.009021	0.000000	-0.000008	-0.000001	0.000000	0.000000
56.428668	20.622226	14.731347	-0.059381	0.074948	2.796418	0.000000	-0.001712	0.000000	-0.000008	-0.000001	0.000000	0.000000
56.762001	20.667220	14.688967	-0.075602	0.052194	2.795848	0.000000	-0.001712	0.000000	-0.000009	-0.000001	0.000000	0.000000
57.095334	20.723028	14.661756	-0.091822	0.029439	2.795277	0.000000	-0.001712	0.000000	-0.000009	-0.000001	0.000000	0.000000
57.429918	20.789920	14.649698	-0.108104	0.006599	2.794705	0.000000	-0.001712	0.000000	-0.000010	-0.000001	0.000000	0.000000
57.727240	20.858506	14.651809	-0.177076	0.024588	2.794196	0.000000	0.005589	0.000000	-0.000010	-0.000001	0.000000	0.000000
58.276300	20.697143	14.906101	0.469225	-0.490464	2.774624	0.000000	-0.076779	0.000000	-0.000011	-0.000001	0.000000	0.000000
58.825360	19.840144	15.741733	1.082383	-1.040451	2.710135	0.000000	-0.157785	0.000000	-0.000011	-0.000001	0.000000	0.000000
59.374420	18.348043	17.218224	1.619086	-1.664547	2.601872	0.000000	-0.235992	0.000000	-0.000011	-0.000000	0.000000	0.000000
59.923480	16.326234	19.440741	2.041426	-2.407205	2.451757	0.000000	-0.310013	0.000000	-0.000011	0.000000	0.000000	0.000000
60.369440	14.743825	21.416090	1.519461	-2.003527	2.328794	0.000000	-0.241726	0.000000	-0.000011	-0.000000	0.000000	0.000000
60.810400	13.605801	22.971363	1.071116	-1.510067	2.236652	0.000000	-0.176588	0.000000	-0.000012	-0.000001	0.000000	0.000000
61.251360	12.840191	24.059368	0.671706	-0.947900	2.172763	0.000000	-0.113462	0.000000	-0.000012	-0.000001	0.000000	0.000000
61.692320	12.412015	24.630603	0.302985	-0.342605	2.136399	0.000000	-0.051628	0.000000	-0.000012	-0.000001	0.000000	0.000000
62.134530	12.301767	24.658532	-0.021824	0.217748	2.127151	0.000000	0.004401	0.000000	-0.000013	-0.000001	0.000000	0.000000
62.431853	12.321933	24.532804	-0.046004	0.205118	2.128460	0.000000	0.004401	0.000000	-0.000013	-0.000001	0.000000	0.000000
62.765186	12.361639	24.400778	-0.073114	0.190959	2.129928	0.000000	0.004401	0.000000	-0.000014	-0.000001	0.000000	0.000000
63.098520	12.419418	24.278191	-0.100223	0.176801	2.131395	0.000000	0.004401	0.000000	-0.000014	-0.000001	0.000000	0.000000
63.433103	12.495588	24.164637	-0.127434	0.162589	2.132868	0.000000	0.004401	0.000000	-0.000015	-0.000001	0.000000	0.000000
63.730426	12.578556	24.071710	-0.120764	0.090919	2.134177	0.000000	-0.000834	0.000000	-0.000015	-0.000001	0.000000	0.000000
64.171386	12.845282	23.726438	-0.486407	0.689101	2.147352	0.000000	0.060644	0.000000	-0.000016	-0.000002	0.000000	0.000000
64.612346	13.443019	22.865481	-0.874273	1.255929	2.187763	0.000000	0.122813	0.000000	-0.000017	-0.000002	0.000000	0.000000
65.053306	14.399077	21.528012	-1.302082	1.765614	2.255870	0.000000	0.186380	0.000000	-0.000018	-0.000003	0.000000	0.000000
65.494266	15.757135	19.774885	-1.789380	2.194964	2.352448	0.000000	0.252070	0.000000	-0.000019	-0.000003	0.000000	0.000000
65.940226	17.602402	17.661065	-2.363120	2.525196	2.480172	0.000000	0.321033	0.000000	-0.000021	-0.000004	0.000000	0.000000
66.489286	19.968007	15.296428	-1.919843	1.806926	2.636069	0.000000	0.245997	0.000000	-0.000022	-0.000003	0.000000	0.000000
67.038346	21.769042	13.645659	-1.340958	1.217359	2.749507	0.000000	0.166598	0.000000	-0.000024	-0.000002	0.000000	0.000000
67.587406	22.878291	12.591177	-0.667355	0.714501	2.818473	0.000000	0.084244	0.000000	-0.000025	-0.000001	0.000000	0.000000
68.136466	23.217403	12.057874	0.053387	0.262536	2.841744	0.000000	0.000395	0.000000	-0.000025	-0.000001	0.000000	0.000000
68.435038	23.225595	11.890317	-0.020149	0.267145	2.844080	0.000000	0.007822	0.000000	-0.000026	-0.000001	0.000000	0.000000
68.768372	23.243813	11.722232	-0.034507	0.237110	2.846687	0.000000	0.007822	0.000000	-0.000026	-0.000001	0.000000	0.000000
69.101705	23.271604	11.574170	-0.048865	0.207076	2.849295	0.000000	0.007822	0.000000	-0.000026	-0.000001	0.000000	0.000000
69.436288	23.309124	11.445689	-0.063276	0.176928	2.851912	0.000000	0.007822	0.000000	-0.000026	-0.000001	0.000000	0.000000
69.733611	23.350559	11.348444	-0.137107	0.179796	2.854238	0.000000	0.015281	0.000000	-0.000027	-0.000001	0.000000	0.000000
70.282671	23.100075	11.378336	0.590612	-0.234559	2.839439	0.000000	-0.069109	0.000000	-0.000027	0.000000	0.000000	0.000000
