#ParticleID	Turn	x[m]	xp	y[m]	yp	z[m]	dE[GeV]# s	beta_x	beta_y	alpha_x	alpha_y	D_x	D_y	D_px	D_py	orbit_x	orbit_px	orbit_y	orbit_py
0.300000	11.814544	25.015108	-0.011151	-0.027297	2.618110	0.000000	0.000013	0.000000	-0.000001	0.000001	0.000000	0.000000
0.601250	11.828945	25.035185	-0.036653	-0.039349	2.618114	0.000000	0.000013	0.000000	-0.000001	0.000001	0.000000	0.000000
0.898573	11.858224	25.062120	-0.032742	-0.112703	2.618117	0.000000	-0.006408	0.000000	-0.000001	0.000001	0.000000	0.000000
1.339533	12.039239	24.883510	-0.379317	0.516209	2.631584	0.000000	0.067549	0.000000	-0.000000	0.000001	0.000000	0.000000
1.780493	12.532362	24.158528	-0.743221	1.121634	2.677802	0.000000	0.142276	0.000000	0.000000	0.000001	0.000000	0.000000
2.221453	13.360124	22.920160	-1.141082	1.676026	2.757297	0.000000	0.218623	0.000000	0.000001	0.000001	0.000000	0.000000
2.662413	14.560343	21.224750	-1.591075	2.154159	2.870975	0.000000	0.297460	0.000000	0.000001	0.000001	0.000000	0.000000
3.108373	16.208601	19.124574	-2.118050	2.535413	3.021991	0.000000	0.380175	0.000000	0.000002	0.000001	0.000000	0.000000
3.657433	18.322218	16.765773	-1.708680	1.786017	3.205457	0.000000	0.287137	0.000000	0.000003	0.000001	0.000000	0.000000
4.206493	19.916958	15.155631	-1.178617	1.163835	3.336365	0.000000	0.189006	0.000000	0.000003	0.000001	0.000000	0.000000
4.755553	20.880177	14.179462	-0.565303	0.624551	3.412392	0.000000	0.087523	0.000000	0.000004	0.000001	0.000000	0.000000
5.304613	21.143839	13.767735	0.087941	0.129752	3.432189	0.000000	-0.015513	0.000000	0.000005	0.000001	0.000000	0.000000
5.603185	21.128534	13.675427	0.018562	0.143441	3.430234	0.000000	-0.006546	0.000000	0.000005	0.000001	0.000000	0.000000
5.936519	21.121420	13.588092	0.002780	0.118565	3.428052	0.000000	-0.006546	0.000000	0.000005	0.000001	0.000000	0.000000
6.269852	21.124827	13.517341	-0.013002	0.093688	3.425870	0.000000	-0.006546	0.000000	0.000005	0.000001	0.000000	0.000000
6.604435	21.138828	13.463003	-0.028843	0.068719	3.423679	0.000000	-0.006546	0.000000	0.000006	0.000001	0.000000	0.000000
6.901758	21.160165	13.428736	-0.098205	0.081616	3.421733	0.000000	0.002394	0.000000	0.000006	0.000001	0.000000	0.000000
7.450818	20.907369	13.599909	0.555895	-0.395212	3.394845	0.000000	-0.100188	0.000000	0.000006	0.000001	0.000000	0.000000
7.999878	19.953703	14.306988	1.170729	-0.900189	3.312040	0.000000	-0.200993	0.000000	0.000007	0.000000	0.000000	0.000000
8.548938	18.366530	15.600337	1.702869	-1.469285	3.174785	0.000000	-0.298233	0.000000	0.000007	0.000000	0.000000	0.000000
9.097998	16.257959	17.572078	2.114726	-2.143034	2.985515	0.000000	-0.390184	0.000000	0.000007	0.000000	0.000000	0.000000
9.543958	14.612882	19.329002	1.587233	-1.779959	2.829815	0.000000	-0.308476	0.000000	0.000007	0.000000	0.000000	0.000000
9.984918	13.416344	20.708764	1.136545	-1.337130	2.711036	0.000000	-0.230766	0.000000	0.000007	0.000000	0.000000	0.000000
10.425878	12.592964	21.669565	0.737782	-0.833463	2.625913	0.000000	-0.155684	0.000000	0.000007	0.000001	0.000000	0.000000
10.866838	12.105125	22.167689	0.372726	-0.291874	2.573475	0.000000	-0.082375	0.000000	0.000008	0.000001	0.000000	0.000000
11.309048	11.930404	22.179950	0.053850	0.208547	2.553106	0.000000	-0.016265	0.000000	0.000008	0.000001	0.000000	0.000000
11.606371	11.905814	22.060098	0.028856	0.194559	2.548270	0.000000	-0.016265	0.000000	0.000008	0.000001	0.000000	0.000000
12.086371	11.897480	21.884160	-0.011494	0.171977	2.540462	0.000000	-0.016265	0.000000	0.000009	0.000001	0.000000	0.000000
12.566371	11.927882	21.729902	-0.051844	0.149395	2.532655	0.000000	-0.016265	0.000000	0.000009	0.000001	0.000000	0.000000
13.046371	11.997021	21.597323	-0.092194	0.126812	2.524847	0.000000	-0.016265	0.000000	0.000010	0.000001	0.000000	0.000000
13.526371	12.104895	21.486422	-0.132544	0.104230	2.517040	0.000000	-0.016265	0.000000	0.000010	0.000001	0.000000	0.000000
14.007621	12.251938	21.396997	-0.172999	0.081589	2.509212	0.000000	-0.016265	0.000000	0.000011	0.000001	0.000000	0.000000
14.304943	12.362242	21.352640	-0.167680	0.015243	2.504376	0.000000	-0.022406	0.000000	0.000011	0.000001	0.000000	0.000000
14.745903	12.668678	21.105490	-0.529885	0.543105	2.510128	0.000000	0.048520	0.000000	0.000012	0.000001	0.000000	0.000000
15.186863	13.303978	20.401969	-0.916299	1.046255	2.547247	0.000000	0.119999	0.000000	0.000012	0.000002	0.000000	0.000000
15.627823	14.297166	19.274086	-1.344576	1.501801	2.616156	0.000000	0.192844	0.000000	0.000013	0.000002	0.000000	0.000000
16.068783	15.693618	17.773159	-1.834282	1.889017	2.717640	0.000000	0.267885	0.000000	0.000014	0.000002	0.000000	0.000000
16.514743	17.580791	15.945976	-2.412550	2.191029	2.854549	0.000000	0.346440	0.000000	0.000015	0.000003	0.000000	0.000000
17.063803	20.004582	13.905748	-1.975752	1.546759	3.021033	0.000000	0.259102	0.000000	0.000016	0.000002	0.000000	0.000000
17.612863	21.868778	12.508719	-1.399397	1.012662	3.138228	0.000000	0.167169	0.000000	0.000017	0.000002	0.000000	0.000000
18.161923	23.041701	11.655380	-0.724196	0.550694	3.204058	0.000000	0.072270	0.000000	0.000018	0.000001	0.000000	0.000000
18.710983	23.440504	11.284950	0.002160	0.127950	3.217353	0.000000	-0.023910	0.000000	0.000018	0.000000	0.000000	0.000000
19.009556	23.479597	11.199036	-0.071859	0.130318	3.212724	0.000000	-0.015505	0.000000	0.000018	0.000000	0.000000	0.000000
19.342889	23.532260	11.122247	-0.086129	0.100048	3.207555	0.000000	-0.015505	0.000000	0.000019	0.000000	0.000000	0.000000
19.676223	23.594436	11.065638	-0.100399	0.069778	3.202387	0.000000	-0.015505	0.000000	0.000019	0.000000	0.000000	0.000000
20.010806	23.666705	11.028974	-0.231980	0.094039	3.197219	0.000000	0.000336	0.000000	0.000019	0.000001	0.000000	0.000000
20.308129	23.808587	10.981141	-0.307417	0.095529	3.197319	0.000000	0.008689	0.000000	0.000019	0.000001	0.000000	0.000000
20.857189	23.735527	11.098404	0.439692	-0.310361	3.175868	0.000000	-0.086710	0.000000	0.000019	-0.000000	0.000000	0.000000
21.406249	22.854321	11.670836	1.155743	-0.738358	3.102383	0.000000	-0.180571	0.000000	0.000019	-0.000001	0.000000	0.000000
21.955309	21.227213	12.739208	1.790158	-1.218947	2.978167	0.000000	-0.271230	0.000000	0.000018	-0.000001	0.000000	0.000000
22.504369	18.969132	14.379619	2.298125	-1.786359	2.805425	0.000000	-0.357077	0.000000	0.000018	-0.000002	0.000000	0.000000
22.950329	17.189555	15.852405	1.706402	-1.502214	2.663478	0.000000	-0.279862	0.000000	0.000017	-0.000001	0.000000	0.000000
23.391289	15.913961	17.026647	1.197336	-1.150575	2.556394	0.000000	-0.206289	0.000000	0.000016	-0.000001	0.000000	0.000000
23.832249	15.061596	17.866415	0.742973	-0.746585	2.481204	0.000000	-0.135066	0.000000	0.000016	-0.000001	0.000000	0.000000
24.273209	14.593517	18.333498	0.322554	-0.308626	2.437052	0.000000	-0.065380	0.000000	0.000016	-0.000000	0.000000	0.000000
24.715418	14.488457	18.406400	-0.047690	0.098175	2.423432	0.000000	-0.002382	0.000000	0.000016	0.000000	0.000000	0.000000
25.012741	14.522931	18.352869	-0.068258	0.081866	2.422723	0.000000	-0.002382	0.000000	0.000016	0.000000	0.000000	0.000000
25.346075	14.576123	18.304387	-0.091317	0.063582	2.421929	0.000000	-0.002382	0.000000	0.000016	0.000000	0.000000	0.000000
25.679408	14.644687	18.268093	-0.114376	0.045298	2.421135	0.000000	-0.002382	0.000000	0.000016	0.000000	0.000000	0.000000
26.013991	14.728669	18.244292	-0.018033	-0.121062	2.420314	0.000000	-0.022017	0.000000	0.000016	0.000000	0.000000	0.000000
26.311314	14.745397	18.321198	-0.002072	-0.182519	2.413767	0.000000	-0.027936	0.000000	0.000016	0.000000	0.000000	0.000000
26.752274	14.928894	18.283467	-0.415637	0.267759	2.416560	0.000000	0.040616	0.000000	0.000016	0.000000	0.000000	0.000000
27.193234	15.484086	17.852502	-0.848192	0.705854	2.449655	0.000000	0.109630	0.000000	0.000017	0.000001	0.000000	0.000000
27.634194	16.436338	17.047913	-1.319498	1.111833	2.513428	0.000000	0.179893	0.000000	0.000017	0.000001	0.000000	0.000000
28.075154	17.829157	15.906307	-1.851089	1.467225	2.608606	0.000000	0.252205	0.000000	0.000018	0.000002	0.000000	0.000000
28.521114	19.750374	14.462429	-2.472217	1.756772	2.737876	0.000000	0.327833	0.000000	0.000019	0.000002	0.000000	0.000000
29.070174	22.192251	12.853663	-1.948832	1.190559	2.895208	0.000000	0.244424	0.000000	0.000020	0.000002	0.000000	0.000000
29.619234	23.979934	11.816731	-1.287791	0.709147	3.005485	0.000000	0.156680	0.000000	0.000021	0.000001	0.000000	0.000000
30.168294	24.987150	11.277774	-0.535786	0.278246	3.066750	0.000000	0.066156	0.000000	0.000021	0.000000	0.000000	0.000000
30.717354	25.142754	11.198404	0.254063	-0.132836	3.077916	0.000000	-0.025541	0.000000	0.000021	-0.000000	0.000000	0.000000
31.015927	25.033935	11.268303	0.176085	-0.130530	3.072691	0.000000	-0.017500	0.000000	0.000021	-0.000000	0.000000	0.000000
31.349260	24.921121	11.365352	0.162357	-0.160615	3.066858	0.000000	-0.017500	0.000000	0.000021	-0.000000	0.000000	0.000000
31.682593	24.817459	11.482457	0.148629	-0.190701	3.061025	0.000000	-0.017500	0.000000	0.000021	-0.000000	0.000000	0.000000
32.017177	24.722612	11.620172	0.134849	-0.220899	3.055169	0.000000	-0.017500	0.000000	0.000021	-0.000000	0.000000	0.000000
32.314499	24.646065	11.759507	0.058219	-0.217014	3.049966	0.000000	-0.009533	0.000000	0.000020	-0.000000	0.000000	0.000000
32.863559	24.159870	12.237038	0.822043	-0.657843	3.019848	0.000000	-0.100017	0.000000	0.000020	-0.000001	0.000000	0.000000
33.412619	22.861980	13.221388	1.527802	-1.145529	2.940462	0.000000	-0.188727	0.000000	0.000019	-0.000002	0.000000	0.000000
33.961679	20.844071	14.782669	2.125645	-1.714808	2.813219	0.000000	-0.274090	0.000000	0.000018	-0.000002	0.000000	0.000000
34.510739	18.248680	17.032089	2.573342	-2.406230	2.640374	0.000000	-0.354591	0.000000	0.000017	-0.000003	0.000000	0.000000
34.956699	16.230664	19.044111	1.967975	-2.086595	2.498585	0.000000	-0.281655	0.000000	0.000016	-0.000002	0.000000	0.000000
35.397659	14.725861	20.708172	1.457532	-1.672767	2.389770	0.000000	-0.212356	0.000000	0.000015	-0.000002	0.000000	0.000000
35.838619	13.640273	21.972186	1.013679	-1.182830	2.310951	0.000000	-0.145474	0.000000	0.000014	-0.000002	0.000000	0.000000
36.279579	12.924304	22.778642	0.616139	-0.639074	2.261231	0.000000	-0.080250	0.000000	0.000014	-0.000001	0.000000	0.000000
36.721789	12.544550	23.091153	0.277402	-0.122915	2.240017	0.000000	-0.021432	0.000000	0.000013	-0.000001	0.000000	0.000000
37.019112	12.387183	23.168130	0.251877	-0.135986	2.233645	0.000000	-0.021432	0.000000	0.000013	-0.000001	0.000000	0.000000
37.352445	12.228804	23.263672	0.223260	-0.150639	2.226501	0.000000	-0.021432	0.000000	0.000013	-0.000001	0.000000	0.000000
37.685779	12.089503	23.368982	0.194643	-0.165293	2.219357	0.000000	-0.021432	0.000000	0.000012	-0.000001	0.000000	0.000000
38.020362	11.968865	23.484512	0.165919	-0.180001	2.212187	0.000000	-0.021432	0.000000	0.000012	-0.000001	0.000000	0.000000
38.317684	11.877791	23.595435	0.169519	-0.250929	2.205815	0.000000	-0.026841	0.000000	0.000012	-0.000001	0.000000	0.000000
38.758644	11.879723	23.555386	-0.173918	0.341407	2.207907	0.000000	0.036341	0.000000	0.000012	-0.000001	0.000000	0.000000
39.199604	12.186885	22.997824	-0.525300	0.918208	2.237925	0.000000	0.099936	0.000000	0.000011	-0.000000	0.000000	0.000000
39.640564	12.813309	21.948119	-0.900681	1.453232	2.296210	0.000000	0.164670	0.000000	0.000011	0.000000	0.000000	0.000000
40.081524	13.787616	20.454031	-1.317213	1.922135	2.383426	0.000000	0.231279	0.000000	0.000011	0.000000	0.000000	0.000000
40.527484	15.171892	18.560968	-1.797750	2.304866	2.502038	0.000000	0.300928	0.000000	0.000012	0.000001	0.000000	0.000000
41.076544	16.938399	16.433640	-1.400533	1.592495	2.646735	0.000000	0.225365	0.000000	0.000012	0.000000	0.000000	0.000000
41.625604	18.211475	15.022077	-0.904388	0.993553	2.748782	0.000000	0.145805	0.000000	0.000012	-0.000000	0.000000	0.000000
42.174664	18.901197	14.225735	-0.344363	0.465380	2.806371	0.000000	0.063659	0.000000	0.000012	-0.000001	0.000000	0.000000
42.723724	18.958847	13.987895	0.239987	-0.029645	2.818480	0.000000	-0.019617	0.000000	0.000011	-0.000001	0.000000	0.000000
43.022297	18.849990	13.990149	0.174136	-0.014447	2.814822	0.000000	-0.012253	0.000000	0.000011	-0.000001	0.000000	0.000000
43.502297	18.695412	14.020490	0.147900	-0.048764	2.808941	0.000000	-0.012253	0.000000	0.000010	-0.000001	0.000000	0.000000
43.982297	18.566022	14.083775	0.121663	-0.083081	2.803060	0.000000	-0.012253	0.000000	0.000010	-0.000001	0.000000	0.000000
44.462297	18.461819	14.180005	0.095427	-0.117398	2.797179	0.000000	-0.012253	0.000000	0.000010	-0.000001	0.000000	0.000000
44.942297	18.382802	14.309180	0.069191	-0.151715	2.791297	0.000000	-0.012253	0.000000	0.000009	-0.000001	0.000000	0.000000
45.423547	18.329092	14.471584	-0.047926	-0.114420	2.785418	0.000000	0.001547	0.000000	0.000009	-0.000001	0.000000	0.000000
45.720870	18.362426	14.545812	-0.112159	-0.097232	2.785878	0.000000	0.008826	0.000000	0.000009	-0.000001	0.000000	0.000000
46.269930	18.176403	14.933909	0.448955	-0.613779	2.768152	0.000000	-0.073303	0.000000	0.000008	-0.000001	0.000000	0.000000
46.818990	17.388057	15.909772	0.978356	-1.174045	2.705623	0.000000	-0.154131	0.000000	0.000007	-0.000001	0.000000	0.000000
47.368050	16.053071	17.542909	1.438652	-1.817935	2.599402	0.000000	-0.232225	0.000000	0.000007	-0.000002	0.000000	0.000000
47.917110	14.265743	19.949644	1.797328	-2.591313	2.451371	0.000000	-0.306200	0.000000	0.000006	-0.000002	0.000000	0.000000
48.363070	12.874858	22.089435	1.332576	-2.186683	2.330111	0.000000	-0.237900	0.000000	0.000005	-0.000002	0.000000	0.000000
48.804030	11.879836	23.802698	0.932474	-1.683834	2.239667	0.000000	-0.172707	0.000000	0.000004	-0.000002	0.000000	0.000000
49.244990	11.217623	25.036881	0.574975	-1.104371	2.177510	0.000000	-0.109480	0.000000	0.000004	-0.000001	0.000000	0.000000
49.685950	10.857965	25.735831	0.243745	-0.474661	2.142932	0.000000	-0.047501	0.000000	0.000003	-0.000001	0.000000	0.000000
50.128160	10.784554	25.867463	-0.050020	0.113164	2.135551	0.000000	0.008700	0.000000	0.000002	-0.000001	0.000000	0.000000
50.425482	10.822516	25.803632	-0.077658	0.101522	2.138138	0.000000	0.008700	0.000000	0.000002	-0.000001	0.000000	0.000000
50.758816	10.884617	25.740301	-0.108644	0.088471	2.141039	0.000000	0.008700	0.000000	0.000002	-0.000001	0.000000	0.000000
51.092149	10.967375	25.685670	-0.139630	0.075420	2.143939	0.000000	0.008700	0.000000	0.000001	-0.000001	0.000000	0.000000
51.426732	11.070992	25.640105	-0.080917	-0.145685	2.146829	0.000000	-0.008716	0.000000	0.000001	-0.000001	0.000000	0.000000
51.724055	11.127146	25.730257	-0.080662	-0.220626	2.144238	0.000000	-0.013974	0.000000	0.000000	-0.000001	0.000000	0.000000
52.165015	11.343571	25.638571	-0.412004	0.427758	2.151665	0.000000	0.047689	0.000000	-0.000000	-0.000001	0.000000	0.000000
52.605975	11.859377	24.981493	-0.762170	1.056679	2.186376	0.000000	0.109895	0.000000	-0.000001	-0.000001	0.000000	0.000000
53.046935	12.698132	23.788919	-1.147157	1.637523	2.248768	0.000000	0.173353	0.000000	-0.000001	-0.000001	0.000000	0.000000
53.487895	13.898155	22.115111	-1.584555	2.143860	2.339550	0.000000	0.238785	0.000000	-0.000002	-0.000001	0.000000	0.000000
53.933855	15.534843	20.011200	-2.098575	2.553990	2.461262	0.000000	0.307336	0.000000	-0.000003	-0.000001	0.000000	0.000000
54.482915	17.642038	17.643760	-1.716531	1.783268	2.609828	0.000000	0.233031	0.000000	-0.000003	-0.000001	0.000000	0.000000
55.031975	19.260237	16.048367	-1.213240	1.139563	2.716400	0.000000	0.154594	0.000000	-0.000004	-0.000001	0.000000	0.000000
55.581035	20.275137	15.111387	-0.624251	0.577027	2.779088	0.000000	0.073414	0.000000	-0.000005	-0.000001	0.000000	0.000000
56.130095	20.615051	14.766080	0.008831	0.055591	2.796779	0.000000	-0.009068	0.000000	-0.000005	-0.000001	0.000000	0.000000
56.428668	20.646277	14.715935	-0.059547	0.073775	2.796254	0.000000	-0.001760	0.000000	-0.000005	-0.000001	0.000000	0.000000
56.762001	20.691375	14.674343	-0.075749	0.051000	2.795668	0.000000	-0.001760	0.000000	-0.000006	-0.000001	0.000000	0.000000
57.095334	20.747276	14.647935	-0.091952	0.028226	2.795081	0.000000	-0.001760	0.000000	-0.000006	-0.000001	0.000000	0.000000
57.429918	20.814248	14.636696	-0.108215	0.005366	2.794493	0.000000	-0.001760	0.000000	-0.000006	-0.000001	0.000000	0.000000
57.727240	20.882894	14.639545	-0.177233	0.023304	2.793970	0.000000	0.005540	0.000000	-0.000007	-0.000001	0.000000	0.000000
58.276300	20.721254	14.895062	0.469884	-0.491423	2.774373	0.000000	-0.076820	0.000000	-0.000007	-0.000001	0.000000	0.000000
58.825360	19.863102	15.731601	1.083810	-1.041154	2.709863	0.000000	-0.157817	0.000000	-0.000007	-0.000000	0.000000	0.000000
59.374420	18.369055	17.208746	1.621182	-1.665043	2.601585	0.000000	-0.236015	0.000000	-0.000008	-0.000000	0.000000	0.000000
59.923480	16.344645	19.431711	2.044041	-2.407530	2.451459	0.000000	-0.310027	0.000000	-0.000008	0.000000	0.000000	0.000000
60.369440	14.760157	21.407499	1.521522	-2.004185	2.328489	0.000000	-0.241747	0.000000	-0.000008	-0.000000	0.000000	0.000000
60.810400	13.620524	22.963488	1.072720	-1.511026	2.236336	0.000000	-0.176618	0.000000	-0.000008	-0.000000	0.000000	0.000000
61.251360	12.853672	24.052456	0.672928	-0.949116	2.172431	0.000000	-0.113500	0.000000	-0.000008	-0.000001	0.000000	0.000000
61.692320	12.424566	24.624856	0.303881	-0.344023	2.136048	0.000000	-0.051675	0.000000	-0.000008	-0.000001	0.000000	0.000000
62.134530	12.313654	24.654105	-0.021186	0.216206	2.126778	0.000000	0.004346	0.000000	-0.000009	-0.000001	0.000000	0.000000
62.431853	12.333435	24.529293	-0.045343	0.203582	2.128070	0.000000	0.004346	0.000000	-0.000009	-0.000001	0.000000	0.000000
62.765186	12.372690	24.398289	-0.072425	0.189430	2.129519	0.000000	0.004346	0.000000	-0.000009	-0.000001	0.000000	0.000000
63.098520	12.430001	24.276720	-0.099507	0.175277	2.130968	0.000000	0.004346	0.000000	-0.000010	-0.000001	0.000000	0.000000
63.433103	12.505684	24.164183	-0.126691	0.161072	2.132422	0.000000	0.004346	0.000000	-0.000010	-0.000001	0.000000	0.000000
63.730426	12.588202	24.072155	-0.119975	0.089410	2.133715	0.000000	-0.000887	0.000000	-0.000010	-0.000001	0.000000	0.000000
64.171386	12.854323	23.728197	-0.485817	0.687643	2.146863	0.000000	0.060578	0.000000	-0.000011	-0.000001	0.000000	0.000000
64.612346	13.451617	22.868479	-0.873855	1.254589	2.187242	0.000000	0.122734	0.000000	-0.000011	-0.000002	0.000000	0.000000
65.053306	14.407375	21.532118	-1.301817	1.764452	2.255311	0.000000	0.186287	0.000000	-0.000012	-0.000002	0.000000	0.000000
65.494266	15.765262	19.779917	-1.789255	2.194034	2.351845	0.000000	0.251962	0.000000	-0.000013	-0.000002	0.000000	0.000000
65.940226	17.610478	17.666806	-2.363130	2.524542	2.479516	0.000000	0.320908	0.000000	-0.000014	-0.000003	0.000000	0.000000
66.489286	19.975901	15.302901	-1.919503	1.806240	2.635351	0.000000	0.245895	0.000000	-0.000015	-0.000002	0.000000	0.000000
67.038346	21.776381	13.652924	-1.340292	1.216593	2.748739	0.000000	0.166520	0.000000	-0.000016	-0.000002	0.000000	0.000000
67.587406	22.884740	12.599351	-0.666409	0.713600	2.817669	0.000000	0.084191	0.000000	-0.000017	-0.000001	0.000000	0.000000
68.136466	23.222690	12.067139	0.054545	0.261436	2.840918	0.000000	0.000369	0.000000	-0.000017	-0.000000	0.000000	0.000000
68.435038	23.230196	11.900215	-0.018997	0.266104	2.843245	0.000000	0.007793	0.000000	-0.000017	-0.000000	0.000000	0.000000
68.768372	23.247646	11.732811	-0.033352	0.236110	2.845843	0.000000	0.007793	0.000000	-0.000018	-0.000000	0.000000	0.000000
69.101705	23.274665	11.585402	-0.047706	0.206115	2.848441	0.000000	0.007793	0.000000	-0.000018	-0.000000	0.000000	0.000000
69.436288	23.311409	11.457550	-0.062114	0.176009	2.851048	0.000000	0.007793	0.000000	-0.000018	-0.000000	0.000000	0.000000
69.733611	23.352152	11.360842	-0.135942	0.178943	2.853365	0.000000	0.015250	0.000000	-0.000018	-0.000001	0.000000	0.000000
70.282671	23.100370	11.391864	0.591796	-0.235777	2.838557	0.000000	-0.069112	0.000000	-0.000018	0.000000	0.000000	0.000000
