#ParticleID	Turn	x[m]	xp	y[m]	yp	z[m]	dE[GeV]# s	beta_x	beta_y	alpha_x	alpha_y	D_x	D_y	D_px	D_py	orbit_x	orbit_px	orbit_y	orbit_py
0.300000	11.811012	25.029296	-0.010781	-0.027142	2.618146	0.000000	-0.000001	0.000000	-0.000001	0.000001	0.000000	0.000000
0.601250	11.825192	25.049278	-0.036289	-0.039187	2.618145	0.000000	-0.000001	0.000000	-0.000000	0.000001	0.000000	0.000000
0.898573	11.854257	25.076115	-0.032395	-0.112569	2.618145	0.000000	-0.006421	0.000000	-0.000000	0.000001	0.000000	0.000000
1.339533	12.034923	24.897224	-0.378871	0.516710	2.631606	0.000000	0.067537	0.000000	0.000000	0.000001	0.000000	0.000000
1.780493	12.527603	24.171645	-0.742656	1.122480	2.677818	0.000000	0.142264	0.000000	0.000001	0.000001	0.000000	0.000000
2.221453	13.354804	22.932393	-1.140371	1.677177	2.757308	0.000000	0.218611	0.000000	0.000002	0.000001	0.000000	0.000000
2.662413	14.554320	21.235852	-1.590186	2.155564	2.870980	0.000000	0.297449	0.000000	0.000002	0.000001	0.000000	0.000000
3.108373	16.201691	19.134333	-2.116940	2.537007	3.021991	0.000000	0.380163	0.000000	0.000003	0.000001	0.000000	0.000000
3.657433	18.314182	16.774003	-1.707752	1.787225	3.205451	0.000000	0.287126	0.000000	0.000004	0.000001	0.000000	0.000000
4.206493	19.908033	15.162706	-1.177936	1.164743	3.336352	0.000000	0.188995	0.000000	0.000004	0.000001	0.000000	0.000000
4.755553	20.870663	14.185675	-0.564917	0.625223	3.412373	0.000000	0.087512	0.000000	0.000005	0.000001	0.000000	0.000000
5.304613	21.134075	13.773316	0.088006	0.130236	3.432165	0.000000	-0.015523	0.000000	0.000005	0.000001	0.000000	0.000000
5.603185	21.118718	13.680709	0.018646	0.143945	3.430207	0.000000	-0.006556	0.000000	0.000006	0.000001	0.000000	0.000000
5.936519	21.111551	13.593036	0.002857	0.119075	3.428021	0.000000	-0.006556	0.000000	0.000006	0.000001	0.000000	0.000000
6.269852	21.114909	13.521943	-0.012933	0.094205	3.425836	0.000000	-0.006556	0.000000	0.000006	0.000001	0.000000	0.000000
6.604435	21.128866	13.467257	-0.028781	0.069241	3.423642	0.000000	-0.006556	0.000000	0.000007	0.000001	0.000000	0.000000
6.901758	21.150168	13.432678	-0.098123	0.082153	3.421692	0.000000	0.002384	0.000000	0.000007	0.000001	0.000000	0.000000
7.450818	20.897467	13.603319	0.555643	-0.394775	3.394799	0.000000	-0.100197	0.000000	0.000007	0.000001	0.000000	0.000000
7.999878	19.944255	14.309959	1.170160	-0.899822	3.311989	0.000000	-0.201001	0.000000	0.000008	0.000000	0.000000	0.000000
8.548938	18.357863	15.602931	1.702024	-1.468961	3.174731	0.000000	-0.298239	0.000000	0.000008	0.000000	0.000000	0.000000
9.097998	16.250345	17.574331	2.113665	-2.142731	2.985458	0.000000	-0.390187	0.000000	0.000008	-0.000000	0.000000	0.000000
9.543958	14.606111	19.330938	1.586399	-1.779554	2.829757	0.000000	-0.308481	0.000000	0.000008	0.000000	0.000000	0.000000
9.984918	13.410223	20.710305	1.135899	-1.336642	2.710975	0.000000	-0.230773	0.000000	0.000008	0.000000	0.000000	0.000000
10.425878	12.587342	21.670648	0.737294	-0.832915	2.625848	0.000000	-0.155692	0.000000	0.000008	0.000001	0.000000	0.000000
10.866838	12.099871	22.168271	0.372375	-0.291290	2.573406	0.000000	-0.082385	0.000000	0.000008	0.000001	0.000000	0.000000
11.309048	11.925407	22.180010	0.053605	0.209140	2.553032	0.000000	-0.016277	0.000000	0.000009	0.000001	0.000000	0.000000
11.606371	11.900965	22.059806	0.028602	0.195149	2.548193	0.000000	-0.016277	0.000000	0.000009	0.000001	0.000000	0.000000
12.086371	11.892882	21.883306	-0.011764	0.172561	2.540379	0.000000	-0.016277	0.000000	0.000010	0.000001	0.000000	0.000000
12.566371	11.923551	21.728489	-0.052130	0.149973	2.532566	0.000000	-0.016277	0.000000	0.000010	0.000001	0.000000	0.000000
13.046371	11.992972	21.595357	-0.092496	0.127386	2.524753	0.000000	-0.016277	0.000000	0.000010	0.000001	0.000000	0.000000
13.526371	12.101143	21.483909	-0.132862	0.104798	2.516940	0.000000	-0.016277	0.000000	0.000011	0.000001	0.000000	0.000000
14.007621	12.248499	21.393939	-0.173333	0.082151	2.509106	0.000000	-0.016277	0.000000	0.000011	0.000001	0.000000	0.000000
14.304943	12.359004	21.349248	-0.168031	0.015812	2.504266	0.000000	-0.022417	0.000000	0.000012	0.000001	0.000000	0.000000
14.745903	12.665722	21.101642	-0.530174	0.543569	2.510012	0.000000	0.048506	0.000000	0.000012	0.000001	0.000000	0.000000
15.186863	13.301253	20.397765	-0.916539	1.046594	2.547124	0.000000	0.119981	0.000000	0.000013	0.000002	0.000000	0.000000
15.627823	14.294635	19.269643	-1.344777	1.502001	2.616025	0.000000	0.192823	0.000000	0.000014	0.000002	0.000000	0.000000
16.068783	15.691252	17.768605	-1.834455	1.889067	2.717499	0.000000	0.267861	0.000000	0.000014	0.000002	0.000000	0.000000
16.514743	17.578570	15.941446	-2.412702	2.190926	2.854397	0.000000	0.346412	0.000000	0.000016	0.000003	0.000000	0.000000
17.063803	20.002592	13.901275	-1.976019	1.546759	3.020866	0.000000	0.259079	0.000000	0.000017	0.000002	0.000000	0.000000
17.612863	21.867136	12.504190	-1.399760	1.012764	3.138051	0.000000	0.167151	0.000000	0.000018	0.000002	0.000000	0.000000
18.161923	23.040500	11.650680	-0.724629	0.550905	3.203872	0.000000	0.072259	0.000000	0.000019	0.000001	0.000000	0.000000
18.710983	23.439802	11.279951	0.001686	0.128287	3.217163	0.000000	-0.023915	0.000000	0.000019	0.000000	0.000000	0.000000
19.009556	23.479178	11.193848	-0.072331	0.130626	3.212532	0.000000	-0.015511	0.000000	0.000019	0.000000	0.000000	0.000000
19.342889	23.532155	11.116859	-0.086602	0.100340	3.207362	0.000000	-0.015511	0.000000	0.000019	0.000000	0.000000	0.000000
19.676223	23.594647	11.060062	-0.100873	0.070054	3.202191	0.000000	-0.015511	0.000000	0.000019	0.000000	0.000000	0.000000
20.010806	23.667234	11.023219	-0.232459	0.094269	3.197021	0.000000	0.000329	0.000000	0.000020	0.000001	0.000000	0.000000
20.308129	23.809402	10.975253	-0.307899	0.095729	3.197119	0.000000	0.008681	0.000000	0.000020	0.000001	0.000000	0.000000
20.857189	23.736855	11.092205	0.439246	-0.309992	3.175665	0.000000	-0.086711	0.000000	0.000020	-0.000000	0.000000	0.000000
21.406249	22.856103	11.664126	1.155366	-0.737793	3.102182	0.000000	-0.180566	0.000000	0.000020	-0.000001	0.000000	0.000000
21.955309	21.229358	12.731752	1.789876	-1.218145	2.977971	0.000000	-0.271218	0.000000	0.000019	-0.000001	0.000000	0.000000
22.504369	18.971525	14.371127	2.297958	-1.785263	2.805237	0.000000	-0.357059	0.000000	0.000018	-0.000002	0.000000	0.000000
22.950329	17.192108	15.843021	1.706206	-1.501319	2.663298	0.000000	-0.279849	0.000000	0.000017	-0.000001	0.000000	0.000000
23.391289	15.916704	17.016578	1.197101	-1.149920	2.556218	0.000000	-0.206280	0.000000	0.000017	-0.000001	0.000000	0.000000
23.832249	15.064567	17.855885	0.742689	-0.746200	2.481031	0.000000	-0.135061	0.000000	0.000016	-0.000001	0.000000	0.000000
24.273209	14.596764	18.322756	0.322208	-0.308529	2.436880	0.000000	-0.065381	0.000000	0.000016	-0.000000	0.000000	0.000000
24.715418	14.492044	18.395702	-0.048105	0.098006	2.423259	0.000000	-0.002386	0.000000	0.000016	0.000000	0.000000	0.000000
25.012741	14.526764	18.342274	-0.068669	0.081688	2.422549	0.000000	-0.002386	0.000000	0.000016	0.000000	0.000000	0.000000
25.346075	14.580228	18.293914	-0.091723	0.063394	2.421754	0.000000	-0.002386	0.000000	0.000016	0.000000	0.000000	0.000000
25.679408	14.649062	18.257749	-0.114778	0.045100	2.420958	0.000000	-0.002386	0.000000	0.000016	0.000000	0.000000	0.000000
26.013991	14.733311	18.234084	-0.018392	-0.121187	2.420135	0.000000	-0.022020	0.000000	0.000017	0.000000	0.000000	0.000000
26.311314	14.750250	18.311067	-0.002413	-0.182630	2.413588	0.000000	-0.027938	0.000000	0.000017	0.000000	0.000000	0.000000
26.752274	14.934101	18.273554	-0.416103	0.267376	2.416379	0.000000	0.040609	0.000000	0.000017	0.000000	0.000000	0.000000
27.193234	15.489766	17.843041	-0.848803	0.705216	2.449470	0.000000	0.109619	0.000000	0.000017	0.000001	0.000000	0.000000
27.634194	16.442631	17.039117	-1.320282	1.110970	2.513237	0.000000	0.179877	0.000000	0.000017	0.000001	0.000000	0.000000
28.075154	17.836231	15.898358	-1.852082	1.466175	2.608406	0.000000	0.252184	0.000000	0.000018	0.000002	0.000000	0.000000
28.521114	19.758444	14.455483	-2.473467	1.755582	2.737666	0.000000	0.327806	0.000000	0.000019	0.000002	0.000000	0.000000
29.070174	22.201585	12.847869	-1.949869	1.189639	2.894985	0.000000	0.244404	0.000000	0.000020	0.000002	0.000000	0.000000
29.619234	23.990256	11.811830	-1.288543	0.708431	3.005253	0.000000	0.156667	0.000000	0.000021	0.000001	0.000000	0.000000
30.168294	24.998116	11.273572	-0.536200	0.277682	3.066513	0.000000	0.066151	0.000000	0.000021	0.000000	0.000000	0.000000
30.717354	25.153973	11.194755	0.254018	-0.133287	3.077679	0.000000	-0.025538	0.000000	0.000021	-0.000000	0.000000	0.000000
31.015927	25.045197	11.264933	0.176016	-0.131002	3.072455	0.000000	-0.017498	0.000000	0.000021	-0.000000	0.000000	0.000000
31.349260	24.932426	11.362300	0.162294	-0.161100	3.066622	0.000000	-0.017498	0.000000	0.000021	-0.000000	0.000000	0.000000
31.682593	24.828804	11.479733	0.148573	-0.191198	3.060790	0.000000	-0.017498	0.000000	0.000021	-0.000000	0.000000	0.000000
32.017177	24.733993	11.617784	0.134800	-0.221409	3.054935	0.000000	-0.017498	0.000000	0.000021	-0.000000	0.000000	0.000000
32.314499	24.657474	11.757426	0.058146	-0.217541	3.049733	0.000000	-0.009531	0.000000	0.000021	-0.000000	0.000000	0.000000
32.863559	24.171150	12.235516	0.822348	-0.658340	3.019617	0.000000	-0.100008	0.000000	0.000020	-0.000001	0.000000	0.000000
33.412619	22.872727	13.220411	1.528463	-1.146032	2.940239	0.000000	-0.188711	0.000000	0.000019	-0.000002	0.000000	0.000000
33.961679	20.853918	14.782265	2.126615	-1.715353	2.813007	0.000000	-0.274066	0.000000	0.000018	-0.000002	0.000000	0.000000
34.510739	18.257322	17.032323	2.574554	-2.406855	2.640176	0.000000	-0.354561	0.000000	0.000017	-0.000003	0.000000	0.000000
34.956699	16.238346	19.044929	1.968923	-2.087275	2.498400	0.000000	-0.281630	0.000000	0.000016	-0.000002	0.000000	0.000000
35.397659	14.732805	20.709603	1.458263	-1.673471	2.389595	0.000000	-0.212335	0.000000	0.000015	-0.000002	0.000000	0.000000
35.838619	13.646656	21.974236	1.014227	-1.183525	2.310784	0.000000	-0.145458	0.000000	0.000014	-0.000002	0.000000	0.000000
36.279579	12.930275	22.781289	0.616528	-0.639729	2.261071	0.000000	-0.080238	0.000000	0.000014	-0.000001	0.000000	0.000000
36.721789	12.550240	23.094351	0.277664	-0.123508	2.239861	0.000000	-0.021424	0.000000	0.000013	-0.000001	0.000000	0.000000
37.019112	12.392715	23.171681	0.252147	-0.136578	2.233491	0.000000	-0.021424	0.000000	0.000013	-0.000001	0.000000	0.000000
37.352445	12.234153	23.267618	0.223539	-0.151232	2.226350	0.000000	-0.021424	0.000000	0.000013	-0.000001	0.000000	0.000000
37.685779	12.094662	23.373324	0.194932	-0.165886	2.219209	0.000000	-0.021424	0.000000	0.000012	-0.000001	0.000000	0.000000
38.020362	11.973828	23.489250	0.166217	-0.180594	2.212041	0.000000	-0.021424	0.000000	0.000012	-0.000001	0.000000	0.000000
38.317684	11.882575	23.600526	0.169836	-0.251535	2.205671	0.000000	-0.026833	0.000000	0.000012	-0.000001	0.000000	0.000000
38.758644	11.884275	23.560949	-0.173706	0.340944	2.207767	0.000000	0.036346	0.000000	0.000011	-0.000001	0.000000	0.000000
39.199604	12.191292	23.003724	-0.525184	0.917910	2.237787	0.000000	0.099938	0.000000	0.000011	-0.000000	0.000000	0.000000
39.640564	12.817655	21.954204	-0.900656	1.453112	2.296071	0.000000	0.164668	0.000000	0.000011	-0.000000	0.000000	0.000000
40.081524	13.791978	20.460142	-1.317277	1.922198	2.383286	0.000000	0.231274	0.000000	0.000011	0.000000	0.000000	0.000000
40.527484	15.176353	18.566942	-1.797908	2.305111	2.501894	0.000000	0.300919	0.000000	0.000011	0.000001	0.000000	0.000000
41.076544	16.942939	16.439433	-1.400518	1.592580	2.646587	0.000000	0.225361	0.000000	0.000011	0.000000	0.000000	0.000000
41.625604	18.215904	15.027860	-0.904202	0.993485	2.748633	0.000000	0.145805	0.000000	0.000011	-0.000000	0.000000	0.000000
42.174664	18.905333	14.231679	-0.344018	0.465154	2.806223	0.000000	0.063664	0.000000	0.000011	-0.000001	0.000000	0.000000
42.723724	18.962527	13.994180	0.240466	-0.030045	2.818336	0.000000	-0.019607	0.000000	0.000011	-0.000001	0.000000	0.000000
43.022297	18.853390	13.996659	0.174605	-0.014820	2.814681	0.000000	-0.012244	0.000000	0.000010	-0.000001	0.000000	0.000000
43.502297	18.698362	14.027351	0.148369	-0.049122	2.808804	0.000000	-0.012244	0.000000	0.000010	-0.000001	0.000000	0.000000
43.982297	18.568521	14.090973	0.122134	-0.083423	2.802927	0.000000	-0.012244	0.000000	0.000010	-0.000001	0.000000	0.000000
44.462297	18.463866	14.187523	0.095898	-0.117724	2.797051	0.000000	-0.012244	0.000000	0.000009	-0.000001	0.000000	0.000000
44.942297	18.384397	14.317003	0.069662	-0.152026	2.791174	0.000000	-0.012244	0.000000	0.000009	-0.000001	0.000000	0.000000
45.423547	18.330233	14.479699	-0.047460	-0.114675	2.785299	0.000000	0.001556	0.000000	0.000008	-0.000001	0.000000	0.000000
45.720870	18.363289	14.554076	-0.111694	-0.097455	2.785762	0.000000	0.008834	0.000000	0.000008	-0.000001	0.000000	0.000000
46.269930	18.176743	14.942556	0.449436	-0.614259	2.768041	0.000000	-0.073291	0.000000	0.000007	-0.000001	0.000000	0.000000
46.818990	17.387876	15.919102	0.978819	-1.174816	2.705520	0.000000	-0.154115	0.000000	0.000007	-0.000001	0.000000	0.000000
47.368050	16.052407	17.553270	1.439064	-1.819053	2.599308	0.000000	-0.232206	0.000000	0.000006	-0.000002	0.000000	0.000000
47.917110	14.264668	19.961459	1.797660	-2.592857	2.451288	0.000000	-0.306178	0.000000	0.000005	-0.000002	0.000000	0.000000
48.363070	12.873494	22.102514	1.332896	-2.187962	2.330037	0.000000	-0.237880	0.000000	0.000004	-0.000002	0.000000	0.000000
48.804030	11.878190	23.816766	0.932797	-1.684790	2.239602	0.000000	-0.172689	0.000000	0.000004	-0.000001	0.000000	0.000000
49.244990	11.215685	25.051635	0.575316	-1.104962	2.177452	0.000000	-0.109464	0.000000	0.000003	-0.000001	0.000000	0.000000
49.685950	10.855712	25.750934	0.244119	-0.474859	2.142881	0.000000	-0.047486	0.000000	0.000002	-0.000001	0.000000	0.000000
50.128160	10.781949	25.882563	-0.049601	0.113330	2.135506	0.000000	0.008714	0.000000	0.000002	-0.000001	0.000000	0.000000
50.425482	10.819663	25.818631	-0.077245	0.101695	2.138097	0.000000	0.008714	0.000000	0.000001	-0.000001	0.000000	0.000000
50.758816	10.881491	25.755183	-0.108237	0.088650	2.141002	0.000000	0.008714	0.000000	0.000001	-0.000001	0.000000	0.000000
51.092149	10.963979	25.700431	-0.139229	0.075606	2.143907	0.000000	0.008714	0.000000	0.000001	-0.000001	0.000000	0.000000
51.426732	11.067330	25.654738	-0.080552	-0.145610	2.146801	0.000000	-0.008702	0.000000	0.000000	-0.000001	0.000000	0.000000
51.724055	11.123269	25.744844	-0.080313	-0.220580	2.144214	0.000000	-0.013960	0.000000	-0.000000	-0.000001	0.000000	0.000000
52.165015	11.339345	25.652947	-0.411559	0.428188	2.151647	0.000000	0.047702	0.000000	-0.000001	-0.000001	0.000000	0.000000
52.605975	11.854709	24.995327	-0.761607	1.057474	2.186365	0.000000	0.109908	0.000000	-0.000001	-0.000001	0.000000	0.000000
53.046935	12.692906	23.801905	-1.146451	1.638646	2.248762	0.000000	0.173366	0.000000	-0.000002	-0.000001	0.000000	0.000000
53.487895	13.892232	22.126979	-1.583674	2.145261	2.339550	0.000000	0.238798	0.000000	-0.000003	-0.000001	0.000000	0.000000
53.933855	15.528041	20.021717	-2.097477	2.555605	2.461267	0.000000	0.307348	0.000000	-0.000003	-0.000002	0.000000	0.000000
54.482915	17.634121	17.652735	-1.715610	1.784478	2.609840	0.000000	0.233044	0.000000	-0.000004	-0.000001	0.000000	0.000000
55.031975	19.251436	16.056196	-1.212562	1.140455	2.716419	0.000000	0.154606	0.000000	-0.000005	-0.000001	0.000000	0.000000
55.581035	20.265749	15.118382	-0.623864	0.577663	2.779113	0.000000	0.073425	0.000000	-0.000005	-0.000001	0.000000	0.000000
56.130095	20.605411	14.772494	0.008900	0.056018	2.796811	0.000000	-0.009058	0.000000	-0.000006	-0.000001	0.000000	0.000000
56.428668	20.636583	14.722083	-0.059460	0.074225	2.796289	0.000000	-0.001750	0.000000	-0.000006	-0.000001	0.000000	0.000000
56.762001	20.681626	14.680188	-0.075670	0.051459	2.795706	0.000000	-0.001750	0.000000	-0.000007	-0.000001	0.000000	0.000000
57.095334	20.737476	14.653471	-0.091880	0.028692	2.795123	0.000000	-0.001750	0.000000	-0.000007	-0.000001	0.000000	0.000000
57.429918	20.804403	14.641916	-0.108150	0.005841	2.794538	0.000000	-0.001750	0.000000	-0.000007	-0.000001	0.000000	0.000000
57.727240	20.873013	14.644481	-0.177149	0.023799	2.794018	0.000000	0.005551	0.000000	-0.000007	-0.000001	0.000000	0.000000
58.276300	20.711463	14.899530	0.469636	-0.491060	2.774426	0.000000	-0.076811	0.000000	-0.000008	-0.000001	0.000000	0.000000
58.825360	19.853758	15.735729	1.083249	-1.040896	2.709921	0.000000	-0.157810	0.000000	-0.000008	-0.000000	0.000000	0.000000
59.374420	18.360482	17.212641	1.620347	-1.664873	2.601646	0.000000	-0.236010	0.000000	-0.000008	-0.000000	0.000000	0.000000
59.923480	16.337112	19.435460	2.042992	-2.407434	2.451522	0.000000	-0.310024	0.000000	-0.000008	0.000000	0.000000	0.000000
60.369440	14.753457	21.411103	1.520698	-2.003954	2.328554	0.000000	-0.241743	0.000000	-0.000008	-0.000000	0.000000	0.000000
60.810400	13.614466	22.966832	1.072082	-1.510672	2.236403	0.000000	-0.176611	0.000000	-0.000008	-0.000000	0.000000	0.000000
61.251360	12.848107	24.055439	0.672446	-0.948655	2.172502	0.000000	-0.113492	0.000000	-0.000009	-0.000001	0.000000	0.000000
61.692320	12.419365	24.627393	0.303533	-0.343475	2.136123	0.000000	-0.051665	0.000000	-0.000009	-0.000001	0.000000	0.000000
62.134530	12.308708	24.656128	-0.021428	0.216810	2.126858	0.000000	0.004358	0.000000	-0.000009	-0.000001	0.000000	0.000000
62.431853	12.328635	24.530957	-0.045594	0.204184	2.128154	0.000000	0.004358	0.000000	-0.000010	-0.000001	0.000000	0.000000
62.765186	12.368062	24.399552	-0.072688	0.190029	2.129607	0.000000	0.004358	0.000000	-0.000010	-0.000001	0.000000	0.000000
63.098520	12.425552	24.277584	-0.099781	0.175875	2.131059	0.000000	0.004358	0.000000	-0.000010	-0.000001	0.000000	0.000000
63.433103	12.501421	24.164649	-0.126976	0.161667	2.132518	0.000000	0.004358	0.000000	-0.000011	-0.000001	0.000000	0.000000
63.730426	12.584112	24.072268	-0.120280	0.090002	2.133814	0.000000	-0.000876	0.000000	-0.000011	-0.000001	0.000000	0.000000
64.171386	12.850463	23.727791	-0.486037	0.688223	2.146968	0.000000	0.060592	0.000000	-0.000011	-0.000001	0.000000	0.000000
64.612346	13.447917	22.867577	-0.873999	1.255130	2.187354	0.000000	0.122751	0.000000	-0.000012	-0.000002	0.000000	0.000000
65.053306	14.403772	21.530765	-1.301893	1.764929	2.255431	0.000000	0.186307	0.000000	-0.000013	-0.000002	0.000000	0.000000
65.494266	15.761697	19.778179	-1.789265	2.194426	2.351974	0.000000	0.251985	0.000000	-0.000014	-0.000002	0.000000	0.000000
65.940226	17.606893	17.664764	-2.363076	2.524830	2.479656	0.000000	0.320935	0.000000	-0.000015	-0.000003	0.000000	0.000000
66.489286	19.972340	15.300541	-1.919599	1.806533	2.635505	0.000000	0.245917	0.000000	-0.000016	-0.000002	0.000000	0.000000
67.038346	21.773004	13.650232	-1.340531	1.216910	2.748904	0.000000	0.166537	0.000000	-0.000017	-0.000002	0.000000	0.000000
67.587406	22.881698	12.596286	-0.666774	0.713966	2.817841	0.000000	0.084203	0.000000	-0.000018	-0.000001	0.000000	0.000000
68.136466	23.220107	12.063635	0.054080	0.261876	2.841095	0.000000	0.000375	0.000000	-0.000018	-0.000000	0.000000	0.000000
68.435038	23.227887	11.896458	-0.019458	0.266520	2.843424	0.000000	0.007799	0.000000	-0.000018	-0.000000	0.000000	0.000000
68.768372	23.245644	11.728781	-0.033814	0.236510	2.846024	0.000000	0.007799	0.000000	-0.000018	-0.000000	0.000000	0.000000
69.101705	23.272973	11.581111	-0.048170	0.206500	2.848624	0.000000	0.007799	0.000000	-0.000018	-0.000000	0.000000	0.000000
69.436288	23.310028	11.453006	-0.062580	0.176378	2.851234	0.000000	0.007799	0.000000	-0.000019	-0.000000	0.000000	0.000000
69.733611	23.351048	11.356082	-0.136407	0.179286	2.853553	0.000000	0.015256	0.000000	-0.000019	-0.000000	0.000000	0.000000
70.282671	23.099793	11.386653	0.591308	-0.235294	2.838746	0.000000	-0.069112	0.000000	-0.000019	0.000000	0.000000	0.000000
