#ParticleID	Turn	x[m]	xp	y[m]	yp	z[m]	dE[GeV]# s	beta_x	beta_y	alpha_x	alpha_y	D_x	D_y	D_px	D_py	orbit_x	orbit_px	orbit_y	orbit_py
0.300000	11.802746	25.061030	-0.010051	-0.026730	2.618369	0.000000	-0.000086	0.000000	-0.000002	0.000002	0.000000	0.000000
0.601250	11.816491	25.080759	-0.035577	-0.038760	2.618342	0.000000	-0.000086	0.000000	-0.000002	0.000002	0.000000	0.000000
0.898573	11.845137	25.107337	-0.031722	-0.112203	2.618316	0.000000	-0.006507	0.000000	-0.000001	0.000002	0.000000	0.000000
1.339533	12.025114	24.927760	-0.377973	0.517894	2.631741	0.000000	0.067455	0.000000	-0.000000	0.000002	0.000000	0.000000
1.780493	12.516887	24.200796	-0.741491	1.124427	2.677918	0.000000	0.142186	0.000000	0.000000	0.000002	0.000000	0.000000
2.221453	13.342925	22.959522	-1.138887	1.679799	2.757373	0.000000	0.218535	0.000000	0.000001	0.000002	0.000000	0.000000
2.662413	14.540967	21.260413	-1.588314	2.158741	2.871012	0.000000	0.297374	0.000000	0.000002	0.000002	0.000000	0.000000
3.108373	16.186463	19.155864	-2.114592	2.540597	3.021989	0.000000	0.380089	0.000000	0.000003	0.000002	0.000000	0.000000
3.657433	18.296587	16.792085	-1.705813	1.789954	3.205408	0.000000	0.287052	0.000000	0.000004	0.000002	0.000000	0.000000
4.206493	19.888598	15.178172	-1.176544	1.166806	3.336269	0.000000	0.188923	0.000000	0.000005	0.000002	0.000000	0.000000
4.755553	20.850046	14.199172	-0.564169	0.626767	3.412251	0.000000	0.087443	0.000000	0.000006	0.000001	0.000000	0.000000
5.304613	21.113018	13.785352	0.088056	0.131371	3.432006	0.000000	-0.015587	0.000000	0.000006	0.000001	0.000000	0.000000
5.603185	21.097602	13.692046	0.018737	0.145121	3.430029	0.000000	-0.006621	0.000000	0.000007	0.000001	0.000000	0.000000
5.936519	21.090379	13.603584	0.002932	0.120264	3.427822	0.000000	-0.006621	0.000000	0.000007	0.000001	0.000000	0.000000
6.269852	21.093693	13.531694	-0.012873	0.095406	3.425615	0.000000	-0.006621	0.000000	0.000008	0.000001	0.000000	0.000000
6.604435	21.107615	13.476200	-0.028737	0.070455	3.423399	0.000000	-0.006621	0.000000	0.000008	0.000001	0.000000	0.000000
6.901758	21.128895	13.440896	-0.098037	0.083399	3.421430	0.000000	0.002318	0.000000	0.000009	0.000001	0.000000	0.000000
7.450818	20.876490	13.610290	0.555020	-0.393736	3.394504	0.000000	-0.100253	0.000000	0.000009	0.000001	0.000000	0.000000
7.999878	19.924334	14.315869	1.168873	-0.898916	3.311665	0.000000	-0.201047	0.000000	0.000010	0.000001	0.000000	0.000000
8.548938	18.339681	15.607889	1.700162	-1.468123	3.174384	0.000000	-0.298274	0.000000	0.000010	0.000000	0.000000	0.000000
9.097998	16.234464	17.578379	2.111361	-2.141902	2.985095	0.000000	-0.390211	0.000000	0.000010	0.000000	0.000000	0.000000
9.543958	14.592062	19.334151	1.584579	-1.778517	2.829381	0.000000	-0.308515	0.000000	0.000010	0.000000	0.000000	0.000000
9.984918	13.397599	20.712530	1.134475	-1.335448	2.710582	0.000000	-0.230816	0.000000	0.000011	0.000001	0.000000	0.000000
10.425878	12.575823	21.671769	0.736202	-0.831616	2.625434	0.000000	-0.155746	0.000000	0.000011	0.000001	0.000000	0.000000
10.866838	12.089189	22.168223	0.371564	-0.289947	2.572966	0.000000	-0.082450	0.000000	0.000011	0.000001	0.000000	0.000000
11.309048	11.915331	22.178777	0.053013	0.210471	2.552561	0.000000	-0.016352	0.000000	0.000012	0.000001	0.000000	0.000000
11.606371	11.891247	22.057784	0.027990	0.196472	2.547698	0.000000	-0.016352	0.000000	0.000012	0.000001	0.000000	0.000000
12.086371	11.883767	21.880020	-0.012407	0.173871	2.539849	0.000000	-0.016352	0.000000	0.000013	0.000001	0.000000	0.000000
12.566371	11.915069	21.723953	-0.052805	0.151270	2.531999	0.000000	-0.016352	0.000000	0.000014	0.000001	0.000000	0.000000
13.046371	11.985153	21.589582	-0.093202	0.128669	2.524150	0.000000	-0.016352	0.000000	0.000014	0.000001	0.000000	0.000000
13.526371	12.094018	21.476909	-0.133600	0.106067	2.516300	0.000000	-0.016352	0.000000	0.000015	0.000001	0.000000	0.000000
14.007621	12.242099	21.385724	-0.174102	0.083408	2.508430	0.000000	-0.016352	0.000000	0.000016	0.000001	0.000000	0.000000
14.304943	12.353068	21.340289	-0.168837	0.017084	2.503568	0.000000	-0.022490	0.000000	0.000016	0.000001	0.000000	0.000000
14.745903	12.660445	21.091674	-0.530871	0.544573	2.509278	0.000000	0.048414	0.000000	0.000017	0.000002	0.000000	0.000000
15.186863	13.296556	20.387048	-0.917159	1.047284	2.546345	0.000000	0.119870	0.000000	0.000018	0.000002	0.000000	0.000000
15.627823	14.290462	19.258469	-1.345350	1.502344	2.615192	0.000000	0.192691	0.000000	0.000019	0.000003	0.000000	0.000000
16.068783	15.687572	17.757287	-1.835006	1.889050	2.716602	0.000000	0.267706	0.000000	0.000020	0.000003	0.000000	0.000000
16.514743	17.575381	15.930306	-2.413256	2.190546	2.853426	0.000000	0.346233	0.000000	0.000022	0.000004	0.000000	0.000000
17.063803	20.000127	13.890405	-1.976776	1.546645	3.019805	0.000000	0.258934	0.000000	0.000024	0.000003	0.000000	0.000000
17.612863	21.865591	12.493303	-1.400667	1.012908	3.136919	0.000000	0.167041	0.000000	0.000025	0.000002	0.000000	0.000000
18.161923	23.040003	11.639488	-0.725621	0.551319	3.202690	0.000000	0.072186	0.000000	0.000026	0.000001	0.000000	0.000000
18.710983	23.440411	11.268145	0.000679	0.128998	3.215952	0.000000	-0.023949	0.000000	0.000027	0.000001	0.000000	0.000000
19.009556	23.480387	11.181647	-0.073337	0.131271	3.211309	0.000000	-0.015548	0.000000	0.000027	0.000001	0.000000	0.000000
19.342889	23.534035	11.104241	-0.087609	0.100947	3.206126	0.000000	-0.015548	0.000000	0.000027	0.000001	0.000000	0.000000
19.676223	23.597199	11.047051	-0.101882	0.070622	3.200943	0.000000	-0.015548	0.000000	0.000028	0.000001	0.000000	0.000000
20.010806	23.670462	11.009841	-0.233485	0.094734	3.195761	0.000000	0.000285	0.000000	0.000028	0.000001	0.000000	0.000000
20.308129	23.813241	10.961609	-0.308935	0.096120	3.195845	0.000000	0.008633	0.000000	0.000028	0.000001	0.000000	0.000000
20.857189	23.741756	11.077922	0.438359	-0.309209	3.174377	0.000000	-0.086718	0.000000	0.000028	-0.000000	0.000000	0.000000
21.406249	22.861867	11.648744	1.154691	-0.736563	3.100901	0.000000	-0.180530	0.000000	0.000028	-0.000001	0.000000	0.000000
21.955309	21.235724	12.714735	1.789460	-1.216380	2.976722	0.000000	-0.271141	0.000000	0.000027	-0.000002	0.000000	0.000000
22.504369	18.978191	14.351823	2.297831	-1.782838	2.804041	0.000000	-0.356943	0.000000	0.000026	-0.000003	0.000000	0.000000
22.950329	17.198937	15.821751	1.705967	-1.499355	2.662146	0.000000	-0.279763	0.000000	0.000025	-0.000002	0.000000	0.000000
23.391289	15.923796	16.993813	1.196740	-1.148505	2.555099	0.000000	-0.206224	0.000000	0.000024	-0.000001	0.000000	0.000000
23.832249	15.072036	17.832139	0.742190	-0.745399	2.479930	0.000000	-0.135034	0.000000	0.000024	-0.000001	0.000000	0.000000
24.273209	14.604743	18.298588	0.321548	-0.308378	2.435785	0.000000	-0.065381	0.000000	0.000023	-0.000000	0.000000	0.000000
24.715418	14.500689	18.371691	-0.048938	0.097562	2.422157	0.000000	-0.002412	0.000000	0.000023	0.000000	0.000000	0.000000
25.012741	14.535901	18.318534	-0.069491	0.081225	2.421440	0.000000	-0.002412	0.000000	0.000024	0.000000	0.000000	0.000000
25.346075	14.589910	18.270489	-0.092534	0.062908	2.420636	0.000000	-0.002412	0.000000	0.000024	0.000000	0.000000	0.000000
25.679408	14.659280	18.234656	-0.115576	0.044592	2.419832	0.000000	-0.002412	0.000000	0.000024	0.000000	0.000000	0.000000
26.013991	14.744059	18.211338	-0.019092	-0.121533	2.419000	0.000000	-0.022036	0.000000	0.000024	0.000000	0.000000	0.000000
26.311314	14.761410	18.288533	-0.003074	-0.182939	2.412448	0.000000	-0.027951	0.000000	0.000024	0.000000	0.000000	0.000000
26.752274	14.945966	18.251562	-0.417046	0.266461	2.415227	0.000000	0.040566	0.000000	0.000024	0.000001	0.000000	0.000000
27.193234	15.502603	17.822108	-0.850072	0.703738	2.448292	0.000000	0.109546	0.000000	0.000025	0.000001	0.000000	0.000000
27.634194	16.456752	17.019712	-1.321935	1.108995	2.512019	0.000000	0.179773	0.000000	0.000025	0.000002	0.000000	0.000000
28.075154	17.852005	15.880880	-1.854194	1.463794	2.607136	0.000000	0.252048	0.000000	0.000026	0.000003	0.000000	0.000000
28.521114	19.776345	14.440272	-2.476139	1.752903	2.736327	0.000000	0.327636	0.000000	0.000028	0.000003	0.000000	0.000000
29.070174	22.222173	12.835257	-1.952061	1.187556	2.893565	0.000000	0.244279	0.000000	0.000029	0.000002	0.000000	0.000000
29.619234	24.012915	11.801246	-1.290099	0.706797	3.003776	0.000000	0.156589	0.000000	0.000030	0.000001	0.000000	0.000000
30.168294	25.022082	11.264589	-0.537010	0.276382	3.065007	0.000000	0.066122	0.000000	0.000031	0.000000	0.000000	0.000000
30.717354	25.178391	11.187062	0.254010	-0.134348	3.076170	0.000000	-0.025519	0.000000	0.000031	-0.000001	0.000000	0.000000
31.015927	25.069649	11.257894	0.175962	-0.132110	3.070950	0.000000	-0.017483	0.000000	0.000031	-0.000000	0.000000	0.000000
31.349260	24.956910	11.356009	0.162254	-0.162235	3.065122	0.000000	-0.017483	0.000000	0.000031	-0.000000	0.000000	0.000000
31.682593	24.853310	11.474208	0.148546	-0.192361	3.059294	0.000000	-0.017483	0.000000	0.000030	-0.000000	0.000000	0.000000
32.017177	24.758511	11.613047	0.134787	-0.222600	3.053445	0.000000	-0.017483	0.000000	0.000030	-0.000000	0.000000	0.000000
32.314499	24.681996	11.753404	0.058087	-0.218769	3.048247	0.000000	-0.009521	0.000000	0.000030	-0.000000	0.000000	0.000000
32.863559	24.195292	12.232809	0.823097	-0.659523	3.018150	0.000000	-0.099950	0.000000	0.000030	-0.000001	0.000000	0.000000
33.412619	22.895623	13.219018	1.529968	-1.147254	2.938817	0.000000	-0.188606	0.000000	0.000029	-0.000002	0.000000	0.000000
33.961679	20.874793	14.782274	2.128769	-1.716701	2.811655	0.000000	-0.273917	0.000000	0.000027	-0.000003	0.000000	0.000000
34.510739	18.275543	17.033926	2.577204	-2.408425	2.638919	0.000000	-0.354369	0.000000	0.000025	-0.000004	0.000000	0.000000
34.956699	16.254461	19.047983	1.971010	-2.088947	2.497221	0.000000	-0.281470	0.000000	0.000024	-0.000003	0.000000	0.000000
35.397659	14.747290	20.714148	1.459886	-1.675167	2.388480	0.000000	-0.212204	0.000000	0.000022	-0.000003	0.000000	0.000000
35.838619	13.659886	21.980260	1.015460	-1.185168	2.309722	0.000000	-0.145356	0.000000	0.000021	-0.000002	0.000000	0.000000
36.279579	12.942568	22.788711	0.617428	-0.641245	2.260048	0.000000	-0.080162	0.000000	0.000020	-0.000002	0.000000	0.000000
36.721789	12.561869	23.103031	0.278298	-0.124844	2.238866	0.000000	-0.021372	0.000000	0.000020	-0.000001	0.000000	0.000000
37.019112	12.403962	23.181155	0.252797	-0.137914	2.232512	0.000000	-0.021372	0.000000	0.000019	-0.000001	0.000000	0.000000
37.352445	12.244961	23.277982	0.224206	-0.152567	2.225388	0.000000	-0.021372	0.000000	0.000019	-0.000001	0.000000	0.000000
37.685779	12.105021	23.384577	0.195616	-0.167220	2.218265	0.000000	-0.021372	0.000000	0.000018	-0.000001	0.000000	0.000000
38.020362	11.983723	23.501396	0.166918	-0.181928	2.211115	0.000000	-0.021372	0.000000	0.000018	-0.000001	0.000000	0.000000
38.317684	11.892048	23.613465	0.170574	-0.252896	2.204761	0.000000	-0.026777	0.000000	0.000018	-0.000001	0.000000	0.000000
38.758644	11.893191	23.574933	-0.173176	0.339944	2.206876	0.000000	0.036377	0.000000	0.000017	-0.000001	0.000000	0.000000
39.199604	12.199825	23.018413	-0.524838	0.917317	2.236904	0.000000	0.099947	0.000000	0.000017	-0.000000	0.000000	0.000000
39.640564	12.825957	21.969226	-0.900479	1.452953	2.295188	0.000000	0.164654	0.000000	0.000017	0.000000	0.000000	0.000000
40.081524	13.800196	20.475109	-1.317260	1.922481	2.382391	0.000000	0.231237	0.000000	0.000017	0.000000	0.000000	0.000000
40.527484	15.184627	18.581461	-1.798051	2.305824	2.500978	0.000000	0.300858	0.000000	0.000017	0.000001	0.000000	0.000000
41.076544	16.951186	16.453392	-1.400327	1.592895	2.645645	0.000000	0.225330	0.000000	0.000017	0.000000	0.000000	0.000000
41.625604	18.223764	15.041680	-0.903691	0.993423	2.747683	0.000000	0.145806	0.000000	0.000017	-0.000000	0.000000	0.000000
42.174664	18.912472	14.245775	-0.343223	0.464711	2.805283	0.000000	0.063695	0.000000	0.000017	-0.000001	0.000000	0.000000
42.723724	18.968662	14.008984	0.241489	-0.030900	2.817421	0.000000	-0.019546	0.000000	0.000017	-0.000001	0.000000	0.000000
43.022297	18.858922	14.011946	0.175614	-0.015616	2.813783	0.000000	-0.012186	0.000000	0.000016	-0.000001	0.000000	0.000000
43.502297	18.702926	14.043384	0.149377	-0.049881	2.807935	0.000000	-0.012186	0.000000	0.000016	-0.000001	0.000000	0.000000
43.982297	18.572118	14.107717	0.123140	-0.084146	2.802086	0.000000	-0.012186	0.000000	0.000015	-0.000001	0.000000	0.000000
44.462297	18.466498	14.204944	0.096903	-0.118410	2.796238	0.000000	-0.012186	0.000000	0.000014	-0.000001	0.000000	0.000000
44.942297	18.386065	14.335065	0.070666	-0.152675	2.790389	0.000000	-0.012186	0.000000	0.000014	-0.000001	0.000000	0.000000
45.423547	18.330936	14.498368	-0.046461	-0.115196	2.784543	0.000000	0.001611	0.000000	0.000013	-0.000001	0.000000	0.000000
45.720870	18.363397	14.573047	-0.110691	-0.097903	2.785022	0.000000	0.008886	0.000000	0.000013	-0.000001	0.000000	0.000000
46.269930	18.175758	14.962338	0.450413	-0.615295	2.767336	0.000000	-0.073215	0.000000	0.000012	-0.000002	0.000000	0.000000
46.818990	17.385862	15.940376	0.979703	-1.176514	2.704863	0.000000	-0.154017	0.000000	0.000011	-0.000002	0.000000	0.000000
47.368050	16.049504	17.576825	1.439791	-1.821534	2.598711	0.000000	-0.232088	0.000000	0.000010	-0.000002	0.000000	0.000000
47.917110	14.261077	19.988246	1.798179	-2.596297	2.450762	0.000000	-0.306042	0.000000	0.000008	-0.000003	0.000000	0.000000
48.363070	12.869436	22.132111	1.333428	-2.190795	2.329569	0.000000	-0.237757	0.000000	0.000007	-0.000002	0.000000	0.000000
48.804030	11.873647	23.848547	0.933368	-1.686891	2.239186	0.000000	-0.172577	0.000000	0.000006	-0.000002	0.000000	0.000000
49.244990	11.210612	25.084909	0.575951	-1.106235	2.177084	0.000000	-0.109362	0.000000	0.000005	-0.000002	0.000000	0.000000
49.685950	10.850040	25.784942	0.244848	-0.475245	2.142556	0.000000	-0.047393	0.000000	0.000004	-0.000002	0.000000	0.000000
50.128160	10.775579	25.916512	-0.048762	0.113766	2.135220	0.000000	0.008800	0.000000	0.000004	-0.000002	0.000000	0.000000
50.425482	10.812798	25.852317	-0.076419	0.102145	2.137837	0.000000	0.008800	0.000000	0.000003	-0.000002	0.000000	0.000000
50.758816	10.874080	25.788563	-0.107427	0.089117	2.140771	0.000000	0.008800	0.000000	0.000002	-0.000002	0.000000	0.000000
51.092149	10.956034	25.733495	-0.138435	0.076088	2.143705	0.000000	0.008800	0.000000	0.000002	-0.000002	0.000000	0.000000
51.426732	11.058859	25.687475	-0.079842	-0.145378	2.146628	0.000000	-0.008615	0.000000	0.000001	-0.000002	0.000000	0.000000
51.724055	11.114382	25.777438	-0.079643	-0.220412	2.144067	0.000000	-0.013873	0.000000	0.000001	-0.000002	0.000000	0.000000
52.165015	11.329773	25.685013	-0.410670	0.429214	2.151538	0.000000	0.047787	0.000000	-0.000000	-0.000002	0.000000	0.000000
52.605975	11.844243	25.026125	-0.760460	1.059311	2.186293	0.000000	0.109990	0.000000	-0.000001	-0.000002	0.000000	0.000000
53.046935	12.681295	23.830755	-1.144992	1.641210	2.248726	0.000000	0.173446	0.000000	-0.000002	-0.000002	0.000000	0.000000
53.487895	13.879173	22.153289	-1.581837	2.148435	2.339550	0.000000	0.238878	0.000000	-0.000003	-0.000002	0.000000	0.000000
53.933855	15.513141	20.044975	-2.095174	2.559248	2.461303	0.000000	0.307429	0.000000	-0.000004	-0.000002	0.000000	0.000000
54.482915	17.616899	17.672509	-1.713709	1.787217	2.609921	0.000000	0.233123	0.000000	-0.000005	-0.000002	0.000000	0.000000
55.031975	19.232409	16.073365	-1.211196	1.142486	2.716542	0.000000	0.154681	0.000000	-0.000006	-0.000002	0.000000	0.000000
55.581035	20.245561	15.133641	-0.623130	0.579132	2.779277	0.000000	0.073496	0.000000	-0.000007	-0.000002	0.000000	0.000000
56.130095	20.584791	14.786401	0.008950	0.057028	2.797012	0.000000	-0.008993	0.000000	-0.000007	-0.000001	0.000000	0.000000
56.428668	20.615905	14.735359	-0.059371	0.075288	2.796510	0.000000	-0.001684	0.000000	-0.000008	-0.000001	0.000000	0.000000
56.762001	20.660894	14.692751	-0.075597	0.052538	2.795949	0.000000	-0.001684	0.000000	-0.000008	-0.000001	0.000000	0.000000
57.095334	20.716701	14.665308	-0.091823	0.029788	2.795388	0.000000	-0.001684	0.000000	-0.000009	-0.000001	0.000000	0.000000
57.429918	20.783595	14.653015	-0.108109	0.006954	2.794825	0.000000	-0.001684	0.000000	-0.000009	-0.000001	0.000000	0.000000
57.727240	20.852184	14.654913	-0.177069	0.024955	2.794324	0.000000	0.005617	0.000000	-0.000010	-0.000001	0.000000	0.000000
58.276300	20.690930	14.908850	0.469022	-0.490178	2.774767	0.000000	-0.076755	0.000000	-0.000010	-0.000001	0.000000	0.000000
58.825360	19.834264	15.744202	1.081983	-1.040226	2.710290	0.000000	-0.157765	0.000000	-0.000011	-0.000001	0.000000	0.000000
59.374420	18.342697	17.220471	1.618519	-1.664366	2.602036	0.000000	-0.235978	0.000000	-0.000011	-0.000000	0.000000	0.000000
59.923480	16.321586	19.442808	2.040731	-2.407056	2.451927	0.000000	-0.310005	0.000000	-0.000011	-0.000000	0.000000	0.000000
60.369440	14.739730	21.417986	1.518909	-2.003295	2.328970	0.000000	-0.241712	0.000000	-0.000011	-0.000000	0.000000	0.000000
60.810400	13.602141	22.973021	1.070680	-1.509763	2.236834	0.000000	-0.176570	0.000000	-0.000011	-0.000001	0.000000	0.000000
61.251360	12.836870	24.060731	0.671368	-0.947539	2.172954	0.000000	-0.113439	0.000000	-0.000012	-0.000001	0.000000	0.000000
61.692320	12.408956	24.631628	0.302728	-0.342202	2.136601	0.000000	-0.051600	0.000000	-0.000012	-0.000001	0.000000	0.000000
62.134530	12.298903	24.659189	-0.022018	0.218172	2.127367	0.000000	0.004433	0.000000	-0.000013	-0.000001	0.000000	0.000000
62.431853	12.319187	24.533209	-0.046205	0.205541	2.128686	0.000000	0.004433	0.000000	-0.000013	-0.000001	0.000000	0.000000
62.765186	12.359029	24.400902	-0.073321	0.191380	2.130164	0.000000	0.004433	0.000000	-0.000014	-0.000001	0.000000	0.000000
63.098520	12.416948	24.278036	-0.100436	0.177219	2.131642	0.000000	0.004433	0.000000	-0.000014	-0.000001	0.000000	0.000000
63.433103	12.493263	24.164203	-0.127654	0.163005	2.133126	0.000000	0.004433	0.000000	-0.000015	-0.000001	0.000000	0.000000
63.730426	12.576363	24.071029	-0.120995	0.091335	2.134444	0.000000	-0.000802	0.000000	-0.000015	-0.000001	0.000000	0.000000
64.171386	12.843273	23.725402	-0.486595	0.689488	2.147635	0.000000	0.060683	0.000000	-0.000016	-0.000002	0.000000	0.000000
64.612346	13.441160	22.864123	-0.874426	1.256270	2.188065	0.000000	0.122859	0.000000	-0.000017	-0.000002	0.000000	0.000000
65.053306	14.397341	21.526380	-1.302207	1.765892	2.256194	0.000000	0.186434	0.000000	-0.000018	-0.000003	0.000000	0.000000
65.494266	15.755499	19.773039	-1.789482	2.195168	2.352799	0.000000	0.252133	0.000000	-0.000019	-0.000003	0.000000	0.000000
65.940226	17.600848	17.659074	-2.363205	2.525316	2.480552	0.000000	0.321105	0.000000	-0.000021	-0.000004	0.000000	0.000000
66.489286	19.966590	15.294294	-1.920005	1.807069	2.636487	0.000000	0.246057	0.000000	-0.000022	-0.000003	0.000000	0.000000
67.038346	21.767840	13.643350	-1.341186	1.217536	2.749954	0.000000	0.166644	0.000000	-0.000024	-0.000002	0.000000	0.000000
67.587406	22.877369	12.588648	-0.667632	0.714726	2.818941	0.000000	0.084275	0.000000	-0.000025	-0.000001	0.000000	0.000000
68.136466	23.216803	12.055065	0.053080	0.262823	2.842225	0.000000	0.000411	0.000000	-0.000025	-0.000001	0.000000	0.000000
68.435038	23.225178	11.887344	-0.020455	0.267415	2.844565	0.000000	0.007839	0.000000	-0.000026	-0.000001	0.000000	0.000000
68.768372	23.243600	11.719083	-0.034813	0.237369	2.847178	0.000000	0.007839	0.000000	-0.000026	-0.000001	0.000000	0.000000
69.101705	23.271595	11.570853	-0.049171	0.207322	2.849792	0.000000	0.007839	0.000000	-0.000026	-0.000001	0.000000	0.000000
69.436288	23.309321	11.442210	-0.063583	0.177163	2.852415	0.000000	0.007839	0.000000	-0.000026	-0.000001	0.000000	0.000000
69.733611	23.350938	11.344829	-0.137416	0.180011	2.854745	0.000000	0.015299	0.000000	-0.000027	-0.000001	0.000000	0.000000
70.282671	23.100783	11.374428	0.590324	-0.234238	2.839952	0.000000	-0.069108	0.000000	-0.000027	0.000000	0.000000	0.000000
