#ParticleID	Turn	x[m]	xp	y[m]	yp	z[m]	dE[GeV]# s	beta_x	beta_y	alpha_x	alpha_y	D_x	D_y	D_px	D_py	orbit_x	orbit_px	orbit_y	orbit_py
0.300000	11.820347	24.991447	-0.011834	-0.027513	2.618110	0.000000	0.000013	0.000000	0.000000	0.000001	0.000000	0.000000
0.601250	11.835156	25.011658	-0.037323	-0.039576	2.618114	0.000000	0.000013	0.000000	0.000001	0.000001	0.000000	0.000000
0.898573	11.864830	25.038732	-0.033384	-0.112884	2.618117	0.000000	-0.006407	0.000000	0.000001	0.000001	0.000000	0.000000
1.339533	12.046482	24.860554	-0.380126	0.515414	2.631585	0.000000	0.067550	0.000000	0.000001	0.000001	0.000000	0.000000
1.780493	12.540407	24.136532	-0.744235	1.120261	2.677803	0.000000	0.142277	0.000000	0.000001	0.000001	0.000000	0.000000
2.221453	13.369170	22.899607	-1.142346	1.674137	2.757299	0.000000	0.218624	0.000000	0.000002	0.000001	0.000000	0.000000
2.662413	14.570635	21.206059	-1.592647	2.151841	2.870977	0.000000	0.297461	0.000000	0.000002	0.000001	0.000000	0.000000
3.108373	16.220461	19.108106	-2.120006	2.532770	3.021993	0.000000	0.380176	0.000000	0.000002	0.000001	0.000000	0.000000
3.657433	18.336069	16.751837	-1.710331	1.784021	3.205460	0.000000	0.287138	0.000000	0.000003	0.000001	0.000000	0.000000
4.206493	19.932400	15.143600	-1.179846	1.162343	3.336368	0.000000	0.189007	0.000000	0.000003	0.000001	0.000000	0.000000
4.755553	20.896695	14.168842	-0.566024	0.623457	3.412396	0.000000	0.087523	0.000000	0.000003	0.000001	0.000000	0.000000
5.304613	21.160844	13.758135	0.087780	0.128978	3.432193	0.000000	-0.015513	0.000000	0.000004	0.000000	0.000000	0.000000
5.603185	21.145658	13.666306	0.018368	0.142632	3.430239	0.000000	-0.006546	0.000000	0.000004	0.000000	0.000000	0.000000
5.936519	21.138669	13.579514	0.002599	0.117745	3.428057	0.000000	-0.006546	0.000000	0.000004	0.000000	0.000000	0.000000
6.269852	21.142193	13.509313	-0.013170	0.092858	3.425875	0.000000	-0.006546	0.000000	0.000004	0.000000	0.000000	0.000000
6.604435	21.156302	13.455533	-0.028998	0.067878	3.423685	0.000000	-0.006546	0.000000	0.000004	0.000000	0.000000	0.000000
6.901758	21.177727	13.421770	-0.098395	0.080747	3.421738	0.000000	0.002394	0.000000	0.000004	0.000000	0.000000	0.000000
7.450818	20.924817	13.593793	0.556293	-0.395900	3.394851	0.000000	-0.100188	0.000000	0.000004	0.000000	0.000000	0.000000
7.999878	19.970401	14.301551	1.171688	-0.900746	3.312046	0.000000	-0.200993	0.000000	0.000005	0.000000	0.000000	0.000000
8.548938	18.381897	15.595458	1.704321	-1.469749	3.174791	0.000000	-0.298234	0.000000	0.000005	-0.000000	0.000000	0.000000
9.097998	16.271507	17.567674	2.116568	-2.143440	2.985521	0.000000	-0.390184	0.000000	0.000005	-0.000000	0.000000	0.000000
9.543958	14.624971	19.325044	1.588674	-1.780548	2.829822	0.000000	-0.308476	0.000000	0.000005	-0.000000	0.000000	0.000000
9.984918	13.427312	20.705397	1.137654	-1.337875	2.711043	0.000000	-0.230766	0.000000	0.000005	0.000000	0.000000	0.000000
10.425878	12.603082	21.666911	0.738610	-0.834329	2.625920	0.000000	-0.155684	0.000000	0.000005	0.000000	0.000000	0.000000
10.866838	12.114623	22.165838	0.373311	-0.292822	2.573482	0.000000	-0.082375	0.000000	0.000005	0.000000	0.000000	0.000000
11.309048	11.939482	22.178958	0.054240	0.207561	2.553114	0.000000	-0.016264	0.000000	0.000005	0.000000	0.000000	0.000000
11.606371	11.914654	22.059690	0.029265	0.193578	2.548278	0.000000	-0.016264	0.000000	0.000005	0.000000	0.000000	0.000000
12.086371	11.905914	21.884691	-0.011056	0.171004	2.540471	0.000000	-0.016264	0.000000	0.000005	0.000000	0.000000	0.000000
12.566371	11.935882	21.731363	-0.051377	0.148429	2.532663	0.000000	-0.016264	0.000000	0.000005	0.000000	0.000000	0.000000
13.046371	12.004559	21.599706	-0.091698	0.125855	2.524856	0.000000	-0.016264	0.000000	0.000006	0.000000	0.000000	0.000000
13.526371	12.111943	21.489722	-0.132019	0.103280	2.517049	0.000000	-0.016264	0.000000	0.000006	0.000000	0.000000	0.000000
14.007621	12.258467	21.401207	-0.172446	0.080647	2.509222	0.000000	-0.016264	0.000000	0.000006	0.000000	0.000000	0.000000
14.304943	12.368437	21.357408	-0.167092	0.014292	2.504386	0.000000	-0.022406	0.000000	0.000006	0.000000	0.000000	0.000000
14.745903	12.674410	21.111034	-0.529419	0.542303	2.510138	0.000000	0.048520	0.000000	0.000006	0.000001	0.000000	0.000000
15.186863	13.309344	20.408141	-0.915933	1.045639	2.547257	0.000000	0.119999	0.000000	0.000007	0.000001	0.000000	0.000000
15.627823	14.302247	19.280708	-1.344294	1.501399	2.616167	0.000000	0.192844	0.000000	0.000007	0.000001	0.000000	0.000000
16.068783	15.698482	17.780035	-1.834072	1.888847	2.717652	0.000000	0.267886	0.000000	0.000008	0.000001	0.000000	0.000000
16.514743	17.585496	15.952896	-2.412401	2.191100	2.854563	0.000000	0.346441	0.000000	0.000008	0.000001	0.000000	0.000000
17.063803	20.008997	13.912671	-1.975379	1.546684	3.021047	0.000000	0.259103	0.000000	0.000009	0.000001	0.000000	0.000000
17.612863	21.872672	12.515806	-1.398827	1.012435	3.138244	0.000000	0.167169	0.000000	0.000009	0.000001	0.000000	0.000000
18.161923	23.044879	11.662806	-0.723469	0.550299	3.204074	0.000000	0.072270	0.000000	0.000010	0.000000	0.000000	0.000000
18.710983	23.442820	11.292914	0.002992	0.127360	3.217369	0.000000	-0.023911	0.000000	0.000010	0.000000	0.000000	0.000000
19.009556	23.481422	11.207332	-0.071034	0.129774	3.212740	0.000000	-0.015505	0.000000	0.000010	0.000000	0.000000	0.000000
19.342889	23.533534	11.130897	-0.085302	0.099531	3.207571	0.000000	-0.015505	0.000000	0.000010	0.000000	0.000000	0.000000
19.676223	23.595158	11.074624	-0.099569	0.069287	3.202403	0.000000	-0.015505	0.000000	0.000010	0.000000	0.000000	0.000000
20.010806	23.666870	11.038280	-0.231148	0.093621	3.197235	0.000000	0.000336	0.000000	0.000010	0.000000	0.000000	0.000000
20.308129	23.808256	10.990687	-0.306584	0.095164	3.197335	0.000000	0.008690	0.000000	0.000010	0.000000	0.000000	0.000000
20.857189	23.734293	11.108501	0.440496	-0.311004	3.175885	0.000000	-0.086710	0.000000	0.000010	-0.000000	0.000000	0.000000
21.406249	22.852246	11.681809	1.156461	-0.739323	3.102400	0.000000	-0.180572	0.000000	0.000010	-0.000000	0.000000	0.000000
21.955309	21.224420	12.751447	1.790740	-1.220303	2.978184	0.000000	-0.271230	0.000000	0.000010	-0.000001	0.000000	0.000000
22.504369	18.965795	14.393604	2.298529	-1.788202	2.805441	0.000000	-0.357078	0.000000	0.000009	-0.000001	0.000000	0.000000
22.950329	17.185846	15.867894	1.706833	-1.503731	2.663493	0.000000	-0.279863	0.000000	0.000009	-0.000001	0.000000	0.000000
23.391289	15.909854	17.043304	1.197814	-1.151696	2.556409	0.000000	-0.206289	0.000000	0.000008	-0.000001	0.000000	0.000000
23.832249	15.057039	17.883867	0.743519	-0.747261	2.481218	0.000000	-0.135066	0.000000	0.000008	-0.000000	0.000000	0.000000
24.273209	14.588439	18.351338	0.323194	-0.308826	2.437066	0.000000	-0.065380	0.000000	0.000008	-0.000000	0.000000	0.000000
24.715418	14.482762	18.424201	-0.046939	0.098414	2.423446	0.000000	-0.002382	0.000000	0.000008	0.000000	0.000000	0.000000
25.012741	14.516791	18.370524	-0.067514	0.082120	2.422738	0.000000	-0.002382	0.000000	0.000008	0.000000	0.000000	0.000000
25.346075	14.569489	18.321867	-0.090580	0.063852	2.421944	0.000000	-0.002382	0.000000	0.000008	0.000000	0.000000	0.000000
25.679408	14.637565	18.285388	-0.113647	0.045585	2.421150	0.000000	-0.002382	0.000000	0.000008	0.000000	0.000000	0.000000
26.013991	14.721062	18.261389	-0.017373	-0.120896	2.420328	0.000000	-0.022017	0.000000	0.000008	-0.000000	0.000000	0.000000
26.311314	14.737400	18.338191	-0.001439	-0.182383	2.413782	0.000000	-0.027936	0.000000	0.000008	-0.000000	0.000000	0.000000
26.752274	14.920250	18.300136	-0.414798	0.268353	2.416575	0.000000	0.040616	0.000000	0.000008	0.000000	0.000000	0.000000
27.193234	15.474597	17.868456	-0.847108	0.706879	2.449670	0.000000	0.109631	0.000000	0.000008	0.000000	0.000000	0.000000
27.634194	16.425768	17.062789	-1.318120	1.113242	2.513444	0.000000	0.179894	0.000000	0.000008	0.000001	0.000000	0.000000
28.075154	17.817219	15.919794	-1.849354	1.468954	2.608622	0.000000	0.252206	0.000000	0.000009	0.000001	0.000000	0.000000
28.521114	19.736698	14.474261	-2.470042	1.758742	2.737893	0.000000	0.327834	0.000000	0.000009	0.000001	0.000000	0.000000
29.070174	22.176367	12.863592	-1.947010	1.192076	2.895227	0.000000	0.244425	0.000000	0.000010	0.000001	0.000000	0.000000
29.619234	23.962304	11.825192	-1.286452	0.710319	3.005504	0.000000	0.156680	0.000000	0.000010	0.000000	0.000000	0.000000
30.168294	24.968361	11.285099	-0.535025	0.279156	3.066769	0.000000	0.066156	0.000000	0.000010	0.000000	0.000000	0.000000
30.717354	25.123473	11.204843	0.254193	-0.132123	3.077935	0.000000	-0.025542	0.000000	0.000010	-0.000000	0.000000	0.000000
31.015927	25.014552	11.274299	0.176249	-0.129778	3.072710	0.000000	-0.017500	0.000000	0.000010	-0.000000	0.000000	0.000000
31.349260	24.901633	11.370839	0.162509	-0.159842	3.066877	0.000000	-0.017500	0.000000	0.000010	-0.000000	0.000000	0.000000
31.682593	24.797873	11.487422	0.148770	-0.189906	3.061043	0.000000	-0.017500	0.000000	0.000010	-0.000000	0.000000	0.000000
32.017177	24.702935	11.624597	0.134979	-0.220082	3.055188	0.000000	-0.017500	0.000000	0.000010	-0.000000	0.000000	0.000000
32.314499	24.626315	11.763440	0.058385	-0.216165	3.049985	0.000000	-0.009532	0.000000	0.000010	-0.000000	0.000000	0.000000
32.863559	24.140299	12.240078	0.821553	-0.657058	3.019866	0.000000	-0.100017	0.000000	0.000010	-0.000000	0.000000	0.000000
33.412619	22.843294	13.223575	1.526691	-1.144752	2.940481	0.000000	-0.188728	0.000000	0.000009	-0.000001	0.000000	0.000000
33.961679	20.826913	14.783981	2.123991	-1.713984	2.813237	0.000000	-0.274091	0.000000	0.000009	-0.000001	0.000000	0.000000
34.510739	18.233585	17.032442	2.571263	-2.405299	2.640390	0.000000	-0.354592	0.000000	0.000008	-0.000001	0.000000	0.000000
34.956699	16.217215	19.043582	1.966351	-2.085557	2.498600	0.000000	-0.281656	0.000000	0.000007	-0.000001	0.000000	0.000000
35.397659	14.713673	20.706697	1.456285	-1.671670	2.389784	0.000000	-0.212356	0.000000	0.000007	-0.000001	0.000000	0.000000
35.838619	13.629041	21.969736	1.012753	-1.181723	2.310965	0.000000	-0.145475	0.000000	0.000007	-0.000001	0.000000	0.000000
36.279579	12.913764	22.775231	0.615490	-0.638010	2.261244	0.000000	-0.080250	0.000000	0.000006	-0.000001	0.000000	0.000000
36.721789	12.534472	23.086837	0.276978	-0.121933	2.240030	0.000000	-0.021433	0.000000	0.000006	-0.000000	0.000000	0.000000
37.019112	12.377362	23.163230	0.251438	-0.135003	2.233658	0.000000	-0.021433	0.000000	0.000006	-0.000000	0.000000	0.000000
37.352445	12.219281	23.258117	0.222805	-0.149656	2.226514	0.000000	-0.021433	0.000000	0.000006	-0.000000	0.000000	0.000000
37.685779	12.080289	23.362772	0.194171	-0.164309	2.219370	0.000000	-0.021433	0.000000	0.000006	-0.000000	0.000000	0.000000
38.020362	11.959973	23.477643	0.165430	-0.179017	2.212199	0.000000	-0.021433	0.000000	0.000005	-0.000000	0.000000	0.000000
38.317684	11.869194	23.587980	0.168995	-0.249929	2.205827	0.000000	-0.026842	0.000000	0.000005	-0.000001	0.000000	0.000000
38.758644	11.871502	23.547139	-0.174250	0.342195	2.207919	0.000000	0.036340	0.000000	0.000005	-0.000000	0.000000	0.000000
39.199604	12.178879	22.988989	-0.525457	0.918750	2.237937	0.000000	0.099936	0.000000	0.000005	-0.000000	0.000000	0.000000
39.640564	12.805368	21.938925	-0.900671	1.453502	2.296222	0.000000	0.164670	0.000000	0.000005	-0.000000	0.000000	0.000000
40.081524	13.779592	20.444724	-1.317034	1.922121	2.383438	0.000000	0.231280	0.000000	0.000005	0.000000	0.000000	0.000000
40.527484	15.163630	18.551803	-1.797394	2.304566	2.502051	0.000000	0.300929	0.000000	0.000005	0.000000	0.000000	0.000000
41.076544	16.929915	16.424673	-1.400490	1.592431	2.646747	0.000000	0.225366	0.000000	0.000005	-0.000000	0.000000	0.000000
41.625604	18.203119	15.013053	-0.904662	0.993721	2.748795	0.000000	0.145805	0.000000	0.000005	-0.000000	0.000000	0.000000
42.174664	18.893307	14.216395	-0.344933	0.465792	2.806384	0.000000	0.063658	0.000000	0.000005	-0.000000	0.000000	0.000000
42.723724	18.951729	13.977955	0.239160	-0.028960	2.818493	0.000000	-0.019618	0.000000	0.000004	-0.000000	0.000000	0.000000
43.022297	18.843357	13.979819	0.173323	-0.013801	2.814834	0.000000	-0.012254	0.000000	0.000004	-0.000000	0.000000	0.000000
43.502297	18.689561	14.009551	0.147085	-0.048143	2.808952	0.000000	-0.012254	0.000000	0.000004	-0.000000	0.000000	0.000000
43.982297	18.560954	14.072252	0.120846	-0.082484	2.803071	0.000000	-0.012254	0.000000	0.000004	-0.000000	0.000000	0.000000
44.462297	18.457536	14.167921	0.094608	-0.116826	2.797189	0.000000	-0.012254	0.000000	0.000004	-0.000000	0.000000	0.000000
44.942297	18.379307	14.296558	0.068370	-0.151168	2.791308	0.000000	-0.012254	0.000000	0.000003	-0.000000	0.000000	0.000000
45.423547	18.326388	14.458448	-0.048736	-0.113963	2.785428	0.000000	0.001547	0.000000	0.000003	-0.000000	0.000000	0.000000
45.720870	18.360204	14.532410	-0.112969	-0.096825	2.785888	0.000000	0.008826	0.000000	0.000003	-0.000000	0.000000	0.000000
46.269930	18.175105	14.919833	0.448093	-0.612953	2.768162	0.000000	-0.073303	0.000000	0.000003	-0.000001	0.000000	0.000000
46.818990	17.387705	15.894532	0.977504	-1.172740	2.705632	0.000000	-0.154131	0.000000	0.000002	-0.000001	0.000000	0.000000
47.368050	16.053622	17.525933	1.437870	-1.816060	2.599410	0.000000	-0.232226	0.000000	0.000002	-0.000001	0.000000	0.000000
47.917110	14.267090	19.930236	1.796671	-2.588733	2.451378	0.000000	-0.306201	0.000000	0.000002	-0.000001	0.000000	0.000000
48.363070	12.876774	22.067909	1.331955	-2.184534	2.330117	0.000000	-0.237901	0.000000	0.000001	-0.000001	0.000000	0.000000
48.804030	11.882294	23.779503	0.931861	-1.682212	2.239673	0.000000	-0.172707	0.000000	0.000001	-0.000001	0.000000	0.000000
49.244990	11.220630	25.012517	0.574341	-1.103351	2.177515	0.000000	-0.109481	0.000000	0.000001	-0.000001	0.000000	0.000000
49.685950	10.861550	25.710850	0.243061	-0.474289	2.142937	0.000000	-0.047502	0.000000	0.000000	-0.000001	0.000000	0.000000
50.128160	10.788778	25.842447	-0.050774	0.112931	2.135555	0.000000	0.008700	0.000000	0.000000	-0.000001	0.000000	0.000000
50.425482	10.827186	25.778757	-0.078404	0.101279	2.138142	0.000000	0.008700	0.000000	-0.000000	-0.000001	0.000000	0.000000
50.758816	10.889780	25.715592	-0.109379	0.088216	2.141042	0.000000	0.008700	0.000000	-0.000000	-0.000001	0.000000	0.000000
51.092149	10.973025	25.661136	-0.140355	0.075153	2.143942	0.000000	0.008700	0.000000	-0.000000	-0.000001	0.000000	0.000000
51.426732	11.077124	25.615753	-0.081583	-0.145767	2.146832	0.000000	-0.008716	0.000000	-0.000001	-0.000001	0.000000	0.000000
51.724055	11.133671	25.705957	-0.081299	-0.220660	2.144240	0.000000	-0.013975	0.000000	-0.000001	-0.000001	0.000000	0.000000
52.165015	11.350728	25.614585	-0.412806	0.427083	2.151667	0.000000	0.047688	0.000000	-0.000001	-0.000001	0.000000	0.000000
52.605975	11.867328	24.958374	-0.763174	1.055395	2.186378	0.000000	0.109895	0.000000	-0.000001	-0.000001	0.000000	0.000000
53.046935	12.707074	23.767182	-1.148408	1.635686	2.248769	0.000000	0.173352	0.000000	-0.000002	-0.000001	0.000000	0.000000
53.487895	13.908330	22.095208	-1.586110	2.141555	2.339551	0.000000	0.238785	0.000000	-0.000002	-0.000001	0.000000	0.000000
53.933855	15.546568	19.993523	-2.100509	2.551322	2.461262	0.000000	0.307335	0.000000	-0.000002	-0.000001	0.000000	0.000000
54.482915	17.655734	17.628628	-1.718163	1.781274	2.609828	0.000000	0.233031	0.000000	-0.000003	-0.000001	0.000000	0.000000
55.031975	19.275505	16.035120	-1.214454	1.138103	2.716400	0.000000	0.154593	0.000000	-0.000003	-0.000001	0.000000	0.000000
55.581035	20.291469	15.099499	-0.624963	0.575997	2.779087	0.000000	0.073414	0.000000	-0.000004	-0.000001	0.000000	0.000000
56.130095	20.631864	14.755122	0.008673	0.054918	2.796778	0.000000	-0.009068	0.000000	-0.000004	-0.000000	0.000000	0.000000
56.428668	20.663207	14.705400	-0.059737	0.073059	2.796252	0.000000	-0.001761	0.000000	-0.000004	-0.000000	0.000000	0.000000
56.762001	20.708428	14.664290	-0.075926	0.050271	2.795666	0.000000	-0.001761	0.000000	-0.000004	-0.000000	0.000000	0.000000
57.095334	20.764442	14.638373	-0.092116	0.027482	2.795079	0.000000	-0.001761	0.000000	-0.000004	-0.000000	0.000000	0.000000
57.429918	20.831520	14.627636	-0.108366	0.004609	2.794490	0.000000	-0.001761	0.000000	-0.000004	-0.000000	0.000000	0.000000
57.727240	20.900252	14.630939	-0.177417	0.022511	2.793967	0.000000	0.005540	0.000000	-0.000005	-0.000000	0.000000	0.000000
58.276300	20.738494	14.887195	0.470282	-0.491985	2.774369	0.000000	-0.076820	0.000000	-0.000005	-0.000000	0.000000	0.000000
58.825360	19.879597	15.724242	1.084762	-1.041523	2.709860	0.000000	-0.157818	0.000000	-0.000005	-0.000000	0.000000	0.000000
59.374420	18.384230	17.201700	1.622620	-1.665248	2.601581	0.000000	-0.236016	0.000000	-0.000005	0.000000	0.000000	0.000000
59.923480	16.358017	19.424807	2.045865	-2.407584	2.451455	0.000000	-0.310027	0.000000	-0.000005	0.000000	0.000000	0.000000
60.369440	14.772085	21.400749	1.522950	-2.004477	2.328485	0.000000	-0.241748	0.000000	-0.000005	0.000000	0.000000	0.000000
60.810400	13.631341	22.957095	1.073820	-1.511541	2.236331	0.000000	-0.176618	0.000000	-0.000005	-0.000000	0.000000	0.000000
61.251360	12.863644	24.046607	0.673751	-0.949831	2.172426	0.000000	-0.113501	0.000000	-0.000005	-0.000000	0.000000	0.000000
61.692320	12.433921	24.619714	0.304463	-0.344904	2.136043	0.000000	-0.051676	0.000000	-0.000005	-0.000000	0.000000	0.000000
62.134530	12.322590	24.649802	-0.020796	0.215210	2.126772	0.000000	0.004345	0.000000	-0.000005	-0.000000	0.000000	0.000000
62.431853	12.342133	24.525581	-0.044934	0.202589	2.128064	0.000000	0.004345	0.000000	-0.000005	-0.000000	0.000000	0.000000
62.765186	12.381110	24.395238	-0.071997	0.188440	2.129513	0.000000	0.004345	0.000000	-0.000005	-0.000000	0.000000	0.000000
63.098520	12.438129	24.274328	-0.099059	0.174291	2.130961	0.000000	0.004345	0.000000	-0.000006	-0.000000	0.000000	0.000000
63.433103	12.513505	24.162450	-0.126223	0.160089	2.132415	0.000000	0.004345	0.000000	-0.000006	-0.000000	0.000000	0.000000
63.730426	12.595739	24.071007	-0.119471	0.088436	2.133707	0.000000	-0.000888	0.000000	-0.000006	-0.000000	0.000000	0.000000
64.171386	12.861487	23.727913	-0.485472	0.686663	2.146856	0.000000	0.060578	0.000000	-0.000006	-0.000001	0.000000	0.000000
64.612346	13.458542	22.869045	-0.873653	1.253649	2.187234	0.000000	0.122733	0.000000	-0.000006	-0.000001	0.000000	0.000000
65.053306	14.414181	21.533480	-1.301749	1.763594	2.255302	0.000000	0.186286	0.000000	-0.000007	-0.000001	0.000000	0.000000
65.494266	15.772066	19.781984	-1.789317	2.193297	2.351835	0.000000	0.251961	0.000000	-0.000007	-0.000001	0.000000	0.000000
65.940226	17.617398	17.669462	-2.363327	2.523962	2.479505	0.000000	0.320907	0.000000	-0.000008	-0.000001	0.000000	0.000000
66.489286	19.982886	15.306180	-1.919421	1.805680	2.635339	0.000000	0.245894	0.000000	-0.000008	-0.000001	0.000000	0.000000
67.038346	21.783124	13.656826	-1.339936	1.216012	2.748726	0.000000	0.166519	0.000000	-0.000009	-0.000001	0.000000	0.000000
67.587406	22.890954	12.603921	-0.665805	0.712958	2.817656	0.000000	0.084191	0.000000	-0.000009	-0.000000	0.000000	0.000000
68.136466	23.228123	12.072469	0.055355	0.260686	2.840904	0.000000	0.000370	0.000000	-0.000009	-0.000000	0.000000	0.000000
68.435038	23.235150	11.905979	-0.018195	0.265388	2.843231	0.000000	0.007793	0.000000	-0.000009	-0.000000	0.000000	0.000000
68.768372	23.252063	11.739043	-0.032545	0.235419	2.845829	0.000000	0.007793	0.000000	-0.000009	-0.000000	0.000000	0.000000
69.101705	23.278544	11.592087	-0.046896	0.205450	2.848427	0.000000	0.007793	0.000000	-0.000009	-0.000000	0.000000	0.000000
69.436288	23.314745	11.464671	-0.061301	0.175369	2.851034	0.000000	0.007793	0.000000	-0.000010	-0.000000	0.000000	0.000000
69.733611	23.355003	11.368337	-0.135129	0.178343	2.853351	0.000000	0.015249	0.000000	-0.000010	-0.000000	0.000000	0.000000
70.282671	23.102284	11.400135	0.592680	-0.236599	2.838542	0.000000	-0.069113	0.000000	-0.000010	0.000000	0.000000	0.000000
