#ParticleID	Turn	x[m]	xp	y[m]	yp	z[m]	dE[GeV]# s	beta_x	beta_y	alpha_x	alpha_y	D_x	D_y	D_px	D_py	orbit_x	orbit_px	orbit_y	orbit_py
0.300000	11.827105	24.965167	-0.012708	-0.027692	2.618197	0.000000	-0.000019	0.000000	-0.000000	0.000000	0.000000	0.000000
0.601250	11.842436	24.985489	-0.038183	-0.039768	2.618191	0.000000	-0.000019	0.000000	-0.000000	0.000000	0.000000	0.000000
0.898573	11.872617	25.012680	-0.034211	-0.113025	2.618185	0.000000	-0.006440	0.000000	-0.000000	0.000000	0.000000	0.000000
1.339533	12.055083	24.834930	-0.381152	0.514588	2.631639	0.000000	0.067519	0.000000	-0.000000	0.000000	0.000000	0.000000
1.780493	12.550017	24.111926	-0.745506	1.118787	2.677844	0.000000	0.142247	0.000000	-0.000000	0.000000	0.000000	0.000000
2.221453	13.380030	22.876563	-1.143921	1.672083	2.757327	0.000000	0.218595	0.000000	0.000000	0.000000	0.000000	0.000000
2.662413	14.583044	21.185049	-1.594598	2.149300	2.870992	0.000000	0.297433	0.000000	0.000000	0.000000	0.000000	0.000000
3.108373	16.234812	19.089538	-2.122425	2.529856	3.021997	0.000000	0.380148	0.000000	0.000000	0.000000	0.000000	0.000000
3.657433	18.352892	16.736057	-1.712387	1.781828	3.205449	0.000000	0.287110	0.000000	0.000001	0.000000	0.000000	0.000000
4.206493	19.951212	15.129904	-1.181393	1.160716	3.336342	0.000000	0.188979	0.000000	0.000001	0.000000	0.000000	0.000000
4.755553	20.916876	14.156678	-0.566953	0.622279	3.412355	0.000000	0.087497	0.000000	0.000001	0.000000	0.000000	0.000000
5.304613	21.181672	13.747056	0.087535	0.128166	3.432139	0.000000	-0.015537	0.000000	0.000001	0.000000	0.000000	0.000000
5.603185	21.166662	13.655733	0.018081	0.141781	3.430177	0.000000	-0.006570	0.000000	0.000001	0.000000	0.000000	0.000000
5.936519	21.159859	13.569512	0.002328	0.116880	3.427987	0.000000	-0.006570	0.000000	0.000001	0.000000	0.000000	0.000000
6.269852	21.163558	13.499892	-0.013425	0.091980	3.425797	0.000000	-0.006570	0.000000	0.000001	0.000000	0.000000	0.000000
6.604435	21.177833	13.446705	-0.029237	0.066986	3.423599	0.000000	-0.006570	0.000000	0.000001	0.000000	0.000000	0.000000
6.901758	21.199396	13.413476	-0.098678	0.079822	3.421646	0.000000	0.002370	0.000000	0.000001	0.000000	0.000000	0.000000
7.450818	20.946396	13.586389	0.556738	-0.396606	3.394746	0.000000	-0.100209	0.000000	0.000001	0.000000	0.000000	0.000000
7.999878	19.991105	14.294827	1.172829	-0.901284	3.311930	0.000000	-0.201011	0.000000	0.000002	0.000000	0.000000	0.000000
8.548938	18.401000	15.589251	1.706077	-1.470159	3.174667	0.000000	-0.298247	0.000000	0.000002	0.000000	0.000000	0.000000
9.097998	16.288398	17.561860	2.118817	-2.143749	2.985390	0.000000	-0.390193	0.000000	0.000002	0.000000	0.000000	0.000000
9.543958	14.640084	19.319606	1.590427	-1.781081	2.829686	0.000000	-0.308489	0.000000	0.000002	0.000000	0.000000	0.000000
9.984918	13.441067	20.700517	1.138995	-1.338605	2.710900	0.000000	-0.230782	0.000000	0.000002	0.000000	0.000000	0.000000
10.425878	12.615811	21.662750	0.739601	-0.835223	2.625769	0.000000	-0.155704	0.000000	0.000002	0.000000	0.000000	0.000000
10.866838	12.126615	22.162523	0.373997	-0.293839	2.573322	0.000000	-0.082399	0.000000	0.000002	0.000000	0.000000	0.000000
11.309048	11.950990	22.176580	0.054682	0.206472	2.552941	0.000000	-0.016293	0.000000	0.000002	0.000000	0.000000	0.000000
11.606371	11.925893	22.057959	0.029729	0.192493	2.548097	0.000000	-0.016293	0.000000	0.000002	0.000000	0.000000	0.000000
12.086371	11.916689	21.883998	-0.010555	0.169926	2.540276	0.000000	-0.016293	0.000000	0.000002	0.000000	0.000000	0.000000
12.566371	11.946158	21.731701	-0.050839	0.147359	2.532456	0.000000	-0.016293	0.000000	0.000002	0.000000	0.000000	0.000000
13.046371	12.014300	21.601069	-0.091123	0.124792	2.524635	0.000000	-0.016293	0.000000	0.000002	0.000000	0.000000	0.000000
13.526371	12.121114	21.492101	-0.131407	0.102225	2.516814	0.000000	-0.016293	0.000000	0.000003	0.000000	0.000000	0.000000
14.007621	12.267031	21.404599	-0.171796	0.079599	2.508973	0.000000	-0.016293	0.000000	0.000003	0.000000	0.000000	0.000000
14.304943	12.376607	21.361422	-0.166399	0.013237	2.504129	0.000000	-0.022434	0.000000	0.000003	0.000000	0.000000	0.000000
14.745903	12.682043	21.115924	-0.528889	0.541379	2.509867	0.000000	0.048486	0.000000	0.000003	0.000000	0.000000	0.000000
15.186863	13.316573	20.413772	-0.915543	1.044889	2.546970	0.000000	0.119957	0.000000	0.000003	0.000000	0.000000	0.000000
15.627823	14.309187	19.286912	-1.344026	1.500857	2.615860	0.000000	0.192795	0.000000	0.000003	0.000000	0.000000	0.000000
16.068783	15.705236	17.786616	-1.833914	1.888537	2.717321	0.000000	0.267828	0.000000	0.000003	0.000001	0.000000	0.000000
16.514743	17.592154	15.959643	-2.412345	2.191039	2.854204	0.000000	0.346374	0.000000	0.000004	0.000001	0.000000	0.000000
17.063803	20.015428	13.919555	-1.975025	1.546495	3.020655	0.000000	0.259048	0.000000	0.000004	0.000001	0.000000	0.000000
17.612863	21.878560	12.522974	-1.398199	1.012105	3.137826	0.000000	0.167128	0.000000	0.000004	0.000000	0.000000	0.000000
18.161923	23.049947	11.670424	-0.722612	0.549805	3.203637	0.000000	0.072243	0.000000	0.000004	0.000000	0.000000	0.000000
18.710983	23.446848	11.301181	0.004018	0.126666	3.216921	0.000000	-0.023924	0.000000	0.000005	0.000000	0.000000	0.000000
19.009556	23.484844	11.215992	-0.070018	0.129128	3.212288	0.000000	-0.015519	0.000000	0.000005	0.000000	0.000000	0.000000
19.342889	23.536277	11.139978	-0.084281	0.098913	3.207115	0.000000	-0.015519	0.000000	0.000005	0.000000	0.000000	0.000000
19.676223	23.597218	11.084108	-0.098544	0.068698	3.201942	0.000000	-0.015519	0.000000	0.000005	0.000000	0.000000	0.000000
20.010806	23.668244	11.048148	-0.230126	0.093109	3.196769	0.000000	0.000320	0.000000	0.000005	0.000000	0.000000	0.000000
20.308129	23.809020	11.000852	-0.305560	0.094706	3.196864	0.000000	0.008672	0.000000	0.000005	0.000000	0.000000	0.000000
20.857189	23.733924	11.119326	0.441523	-0.311757	3.175408	0.000000	-0.086712	0.000000	0.000005	-0.000000	0.000000	0.000000
21.406249	22.850781	11.693648	1.157419	-0.740427	3.101926	0.000000	-0.180558	0.000000	0.000005	-0.000000	0.000000	0.000000
21.955309	21.221972	12.764726	1.791561	-1.221835	2.977722	0.000000	-0.271202	0.000000	0.000005	-0.000000	0.000000	0.000000
22.504369	18.962548	14.408848	2.299156	-1.790272	2.804998	0.000000	-0.357035	0.000000	0.000004	-0.000000	0.000000	0.000000
22.950329	17.182041	15.884835	1.707465	-1.505450	2.663067	0.000000	-0.279831	0.000000	0.000004	-0.000000	0.000000	0.000000
23.391289	15.905478	17.061578	1.198481	-1.152988	2.555994	0.000000	-0.206268	0.000000	0.000004	-0.000000	0.000000	0.000000
23.832249	15.052048	17.903069	0.744252	-0.748066	2.480811	0.000000	-0.135055	0.000000	0.000004	-0.000000	0.000000	0.000000
24.273209	14.582760	18.371020	0.324026	-0.309107	2.436661	0.000000	-0.065380	0.000000	0.000004	-0.000000	0.000000	0.000000
24.715418	14.476289	18.443895	-0.045984	0.098618	2.423038	0.000000	-0.002392	0.000000	0.000004	0.000000	0.000000	0.000000
25.012741	14.509753	18.390092	-0.066566	0.082341	2.422327	0.000000	-0.002392	0.000000	0.000004	0.000000	0.000000	0.000000
25.346075	14.561823	18.341280	-0.089641	0.064093	2.421530	0.000000	-0.002392	0.000000	0.000004	0.000000	0.000000	0.000000
25.679408	14.629275	18.304635	-0.112716	0.045844	2.420733	0.000000	-0.002392	0.000000	0.000004	0.000000	0.000000	0.000000
26.013991	14.712152	18.280457	-0.016523	-0.120773	2.419908	0.000000	-0.022024	0.000000	0.000004	0.000000	0.000000	0.000000
26.311314	14.727988	18.357180	-0.000622	-0.182290	2.413360	0.000000	-0.027942	0.000000	0.000004	0.000000	0.000000	0.000000
26.752274	14.910013	18.318818	-0.413737	0.268958	2.416148	0.000000	0.040600	0.000000	0.000004	0.000000	0.000000	0.000000
27.193234	15.463299	17.886387	-0.845754	0.707968	2.449233	0.000000	0.109603	0.000000	0.000004	0.000000	0.000000	0.000000
27.634194	16.413125	17.079564	-1.316412	1.114766	2.512992	0.000000	0.179855	0.000000	0.000004	0.000000	0.000000	0.000000
28.075154	17.802884	15.935058	-1.847213	1.470844	2.608151	0.000000	0.252155	0.000000	0.000005	0.000000	0.000000	0.000000
28.521114	19.720222	14.487705	-2.467366	1.760913	2.737397	0.000000	0.327771	0.000000	0.000005	0.000001	0.000000	0.000000
29.070174	22.157168	12.874944	-1.944755	1.193738	2.894700	0.000000	0.244378	0.000000	0.000005	0.000000	0.000000	0.000000
29.619234	23.940934	11.834943	-1.284777	0.711591	3.004957	0.000000	0.156650	0.000000	0.000005	0.000000	0.000000	0.000000
30.168294	24.945526	11.293625	-0.534049	0.280129	3.066210	0.000000	0.066144	0.000000	0.000005	0.000000	0.000000	0.000000
30.717354	25.099983	11.212433	0.254402	-0.131381	3.077375	0.000000	-0.025535	0.000000	0.000005	-0.000000	0.000000	0.000000
31.015927	24.990907	11.281426	0.176504	-0.128992	3.072152	0.000000	-0.017495	0.000000	0.000005	-0.000000	0.000000	0.000000
31.349260	24.877822	11.377434	0.162750	-0.159031	3.066320	0.000000	-0.017495	0.000000	0.000005	-0.000000	0.000000	0.000000
31.682593	24.773907	11.493467	0.148996	-0.189070	3.060489	0.000000	-0.017495	0.000000	0.000005	-0.000000	0.000000	0.000000
32.017177	24.678822	11.630075	0.135191	-0.219221	3.054635	0.000000	-0.017495	0.000000	0.000005	-0.000000	0.000000	0.000000
32.314499	24.602079	11.768400	0.058645	-0.215267	3.049433	0.000000	-0.009528	0.000000	0.000005	-0.000000	0.000000	0.000000
32.863559	24.116221	12.244108	0.821007	-0.656251	3.019322	0.000000	-0.099995	0.000000	0.000005	-0.000000	0.000000	0.000000
33.412619	22.820244	13.226741	1.525377	-1.143978	2.939953	0.000000	-0.188688	0.000000	0.000005	-0.000000	0.000000	0.000000
33.961679	20.805688	14.786291	2.122002	-1.713188	2.812735	0.000000	-0.274035	0.000000	0.000005	-0.000001	0.000000	0.000000
34.510739	18.214853	17.033841	2.568739	-2.404425	2.639924	0.000000	-0.354521	0.000000	0.000004	-0.000001	0.000000	0.000000
34.956699	16.200478	19.044136	1.964386	-2.084543	2.498162	0.000000	-0.281596	0.000000	0.000004	-0.000001	0.000000	0.000000
35.397659	14.698459	20.706313	1.454784	-1.670565	2.389370	0.000000	-0.212307	0.000000	0.000004	-0.000000	0.000000	0.000000
35.838619	13.614971	21.968355	1.011648	-1.180577	2.310570	0.000000	-0.145436	0.000000	0.000004	-0.000000	0.000000	0.000000
36.279579	12.900514	22.772839	0.614730	-0.636873	2.260864	0.000000	-0.080222	0.000000	0.000004	-0.000000	0.000000	0.000000
36.721789	12.521754	23.083464	0.276499	-0.120853	2.239660	0.000000	-0.021413	0.000000	0.000003	-0.000000	0.000000	0.000000
37.019112	12.364934	23.159214	0.250939	-0.133921	2.233294	0.000000	-0.021413	0.000000	0.000003	-0.000000	0.000000	0.000000
37.352445	12.207193	23.253379	0.222284	-0.148572	2.226156	0.000000	-0.021413	0.000000	0.000003	-0.000000	0.000000	0.000000
37.685779	12.068556	23.357311	0.193628	-0.163224	2.219019	0.000000	-0.021413	0.000000	0.000003	-0.000000	0.000000	0.000000
38.020362	11.948610	23.471455	0.164865	-0.177930	2.211855	0.000000	-0.021413	0.000000	0.000003	-0.000000	0.000000	0.000000
38.317684	11.858174	23.581146	0.168384	-0.248825	2.205488	0.000000	-0.026821	0.000000	0.000003	-0.000000	0.000000	0.000000
38.758644	11.860912	23.539414	-0.174617	0.343103	2.207588	0.000000	0.036352	0.000000	0.000003	-0.000000	0.000000	0.000000
39.199604	12.168511	22.980565	-0.525596	0.919420	2.237609	0.000000	0.099940	0.000000	0.000003	-0.000000	0.000000	0.000000
39.640564	12.795025	21.930026	-0.900589	1.453904	2.295893	0.000000	0.164665	0.000000	0.000003	0.000000	0.000000	0.000000
40.081524	13.769076	20.435596	-1.316726	1.922237	2.383105	0.000000	0.231266	0.000000	0.000003	0.000000	0.000000	0.000000
40.527484	15.152734	18.542703	-1.796845	2.304388	2.501710	0.000000	0.300907	0.000000	0.000003	0.000000	0.000000	0.000000
41.076544	16.918638	16.415646	-1.400347	1.592476	2.646397	0.000000	0.225355	0.000000	0.000003	0.000000	0.000000	0.000000
41.625604	18.191914	15.003854	-0.904936	0.993991	2.748442	0.000000	0.145805	0.000000	0.000003	-0.000000	0.000000	0.000000
42.174664	18.882624	14.206768	-0.345604	0.466307	2.806034	0.000000	0.063670	0.000000	0.000003	-0.000000	0.000000	0.000000
42.723724	18.941979	13.967613	0.238140	-0.028164	2.818152	0.000000	-0.019595	0.000000	0.000003	-0.000000	0.000000	0.000000
43.022297	18.834202	13.969021	0.172326	-0.013047	2.814500	0.000000	-0.012232	0.000000	0.000003	-0.000000	0.000000	0.000000
43.502297	18.681365	13.998043	0.146083	-0.047415	2.808629	0.000000	-0.012232	0.000000	0.000003	-0.000000	0.000000	0.000000
43.982297	18.553722	14.060058	0.119841	-0.081783	2.802758	0.000000	-0.012232	0.000000	0.000003	-0.000000	0.000000	0.000000
44.462297	18.451271	14.155065	0.093599	-0.116150	2.796887	0.000000	-0.012232	0.000000	0.000003	-0.000000	0.000000	0.000000
44.942297	18.374012	14.283066	0.067356	-0.150518	2.791015	0.000000	-0.012232	0.000000	0.000002	-0.000000	0.000000	0.000000
45.423547	18.322071	14.444343	-0.049732	-0.113409	2.785146	0.000000	0.001568	0.000000	0.000002	-0.000000	0.000000	0.000000
45.720870	18.356481	14.517979	-0.113961	-0.096325	2.785612	0.000000	0.008846	0.000000	0.000002	-0.000000	0.000000	0.000000
46.269930	18.172531	14.904610	0.447004	-0.612000	2.767899	0.000000	-0.073274	0.000000	0.000002	-0.000000	0.000000	0.000000
46.818990	17.386345	15.877984	0.976396	-1.171266	2.705388	0.000000	-0.154094	0.000000	0.000002	-0.000000	0.000000	0.000000
47.368050	16.053454	17.507433	1.436820	-1.813958	2.599187	0.000000	-0.232181	0.000000	0.000002	-0.000000	0.000000	0.000000
47.917110	14.268009	19.909018	1.795753	-2.585855	2.451182	0.000000	-0.306150	0.000000	0.000002	-0.000000	0.000000	0.000000
48.363070	12.878478	22.044322	1.331105	-2.182122	2.329943	0.000000	-0.237854	0.000000	0.000001	-0.000000	0.000000	0.000000
48.804030	11.884733	23.754034	0.931037	-1.680375	2.239518	0.000000	-0.172665	0.000000	0.000001	-0.000000	0.000000	0.000000
49.244990	11.223797	24.985713	0.573507	-1.102172	2.177378	0.000000	-0.109443	0.000000	0.000001	-0.000000	0.000000	0.000000
49.685950	10.865472	25.683318	0.242178	-0.473821	2.142815	0.000000	-0.047466	0.000000	0.000001	-0.000000	0.000000	0.000000
50.128160	10.793516	25.814825	-0.051734	0.112734	2.135448	0.000000	0.008732	0.000000	0.000001	-0.000000	0.000000	0.000000
50.425482	10.832492	25.751257	-0.079354	0.101070	2.138044	0.000000	0.008732	0.000000	0.000001	-0.000000	0.000000	0.000000
50.758816	10.895716	25.688236	-0.110319	0.087993	2.140955	0.000000	0.008732	0.000000	0.000000	-0.000000	0.000000	0.000000
51.092149	10.979584	25.633933	-0.141285	0.074917	2.143866	0.000000	0.008732	0.000000	0.000000	-0.000000	0.000000	0.000000
51.426732	11.084302	25.588712	-0.082443	-0.145797	2.146766	0.000000	-0.008684	0.000000	0.000000	-0.000000	0.000000	0.000000
51.724055	11.141356	25.678937	-0.082127	-0.220636	2.144185	0.000000	-0.013942	0.000000	0.000000	-0.000000	0.000000	0.000000
52.165015	11.359228	25.587860	-0.413831	0.426394	2.151625	0.000000	0.047720	0.000000	0.000000	-0.000000	0.000000	0.000000
52.605975	11.876835	24.932561	-0.764442	1.054023	2.186350	0.000000	0.109926	0.000000	-0.000000	-0.000000	0.000000	0.000000
53.046935	12.717827	23.742858	-1.149977	1.633695	2.248755	0.000000	0.173383	0.000000	-0.000000	-0.000000	0.000000	0.000000
53.487895	13.920625	22.072880	-1.588052	2.139035	2.339550	0.000000	0.238815	0.000000	-0.000000	-0.000000	0.000000	0.000000
53.933855	15.560797	19.973639	-2.102917	2.548386	2.461274	0.000000	0.307366	0.000000	-0.000001	-0.000000	0.000000	0.000000
54.482915	17.672424	17.611538	-1.720211	1.779091	2.609856	0.000000	0.233061	0.000000	-0.000001	-0.000000	0.000000	0.000000
55.031975	19.294179	16.020087	-1.215998	1.136518	2.716444	0.000000	0.154622	0.000000	-0.000001	-0.000000	0.000000	0.000000
55.581035	20.311509	15.085933	-0.625893	0.574895	2.779146	0.000000	0.073440	0.000000	-0.000001	-0.000000	0.000000	0.000000
56.130095	20.652557	14.742537	0.008422	0.054222	2.796851	0.000000	-0.009044	0.000000	-0.000001	-0.000000	0.000000	0.000000
56.428668	20.684076	14.693255	-0.060027	0.072315	2.796333	0.000000	-0.001736	0.000000	-0.000001	-0.000000	0.000000	0.000000
56.762001	20.729485	14.652647	-0.076200	0.049510	2.795755	0.000000	-0.001736	0.000000	-0.000001	-0.000000	0.000000	0.000000
57.095334	20.785676	14.627241	-0.092374	0.026706	2.795176	0.000000	-0.001736	0.000000	-0.000001	-0.000000	0.000000	0.000000
57.429918	20.852921	14.617029	-0.108608	0.003815	2.794595	0.000000	-0.001736	0.000000	-0.000001	-0.000000	0.000000	0.000000
57.727240	20.921793	14.620809	-0.177700	0.021676	2.794079	0.000000	0.005565	0.000000	-0.000002	-0.000000	0.000000	0.000000
58.276300	20.759948	14.877826	0.470723	-0.492544	2.774494	0.000000	-0.076799	0.000000	-0.000002	-0.000000	0.000000	0.000000
58.825360	19.900181	15.715355	1.085896	-1.041847	2.709995	0.000000	-0.157801	0.000000	-0.000002	-0.000000	0.000000	0.000000
59.374420	18.403224	17.193051	1.624366	-1.665358	2.601725	0.000000	-0.236003	0.000000	-0.000002	-0.000000	0.000000	0.000000
59.923480	16.374812	19.416166	2.048100	-2.407489	2.451604	0.000000	-0.310020	0.000000	-0.000002	-0.000000	0.000000	0.000000
60.369440	14.787112	21.392151	1.524692	-2.004667	2.328638	0.000000	-0.241736	0.000000	-0.000002	-0.000000	0.000000	0.000000
60.810400	13.645017	22.948785	1.075154	-1.512004	2.236490	0.000000	-0.176603	0.000000	-0.000002	-0.000000	0.000000	0.000000
61.251360	12.876302	24.038819	0.674736	-0.950546	2.172593	0.000000	-0.113481	0.000000	-0.000002	-0.000000	0.000000	0.000000
61.692320	12.445846	24.612657	0.305146	-0.345839	2.136220	0.000000	-0.051651	0.000000	-0.000002	-0.000000	0.000000	0.000000
62.134530	12.334034	24.643654	-0.020358	0.214114	2.126960	0.000000	0.004374	0.000000	-0.000002	-0.000000	0.000000	0.000000
62.431853	12.353310	24.520084	-0.044474	0.201496	2.128261	0.000000	0.004374	0.000000	-0.000002	-0.000000	0.000000	0.000000
62.765186	12.391972	24.390469	-0.071511	0.187350	2.129719	0.000000	0.004374	0.000000	-0.000002	-0.000000	0.000000	0.000000
63.098520	12.448658	24.270285	-0.098547	0.173203	2.131177	0.000000	0.004374	0.000000	-0.000002	-0.000000	0.000000	0.000000
63.433103	12.523682	24.159133	-0.125685	0.159004	2.132640	0.000000	0.004374	0.000000	-0.000002	-0.000000	0.000000	0.000000
63.730426	12.605591	24.068334	-0.118888	0.087362	2.133941	0.000000	-0.000859	0.000000	-0.000003	-0.000000	0.000000	0.000000
64.171386	12.870918	23.726210	-0.485099	0.685547	2.147102	0.000000	0.060612	0.000000	-0.000003	-0.000000	0.000000	0.000000
64.612346	13.467730	22.868327	-0.873473	1.252540	2.187497	0.000000	0.122774	0.000000	-0.000003	-0.000000	0.000000	0.000000
65.053306	14.423292	21.533717	-1.301753	1.762544	2.255585	0.000000	0.186334	0.000000	-0.000003	-0.000000	0.000000	0.000000
65.494266	15.781262	19.783104	-1.789507	2.192353	2.352140	0.000000	0.252016	0.000000	-0.000003	-0.000001	0.000000	0.000000
65.940226	17.626849	17.671359	-2.363711	2.523169	2.479837	0.000000	0.320971	0.000000	-0.000003	-0.000001	0.000000	0.000000
66.489286	19.992558	15.308909	-1.919436	1.804947	2.635702	0.000000	0.245947	0.000000	-0.000004	-0.000001	0.000000	0.000000
67.038346	21.792610	13.660350	-1.339581	1.215288	2.749115	0.000000	0.166560	0.000000	-0.000004	-0.000000	0.000000	0.000000
67.587406	22.899857	12.608259	-0.665106	0.712191	2.818063	0.000000	0.084219	0.000000	-0.000004	-0.000000	0.000000	0.000000
68.136466	23.236091	12.077699	0.056350	0.259821	2.841323	0.000000	0.000384	0.000000	-0.000004	-0.000000	0.000000	0.000000
68.435038	23.242533	11.911711	-0.017214	0.264559	2.843654	0.000000	0.007808	0.000000	-0.000004	-0.000000	0.000000	0.000000
68.768372	23.258791	11.745319	-0.031559	0.234617	2.846257	0.000000	0.007808	0.000000	-0.000004	-0.000000	0.000000	0.000000
69.101705	23.284612	11.598888	-0.045905	0.204675	2.848859	0.000000	0.007808	0.000000	-0.000004	-0.000000	0.000000	0.000000
69.436288	23.320148	11.471982	-0.060305	0.174620	2.851472	0.000000	0.007808	0.000000	-0.000004	-0.000000	0.000000	0.000000
69.733611	23.359813	11.376086	-0.134138	0.177637	2.853793	0.000000	0.015264	0.000000	-0.000004	-0.000000	0.000000	0.000000
70.282671	23.105928	11.408781	0.593801	-0.237537	2.838989	0.000000	-0.069112	0.000000	-0.000005	0.000000	0.000000	0.000000
