#ParticleID	Turn	x[m]	xp	y[m]	yp	z[m]	dE[GeV]# s	beta_x	beta_y	alpha_x	alpha_y	D_x	D_y	D_px	D_py	orbit_x	orbit_px	orbit_y	orbit_py
0.300000	11.808529	25.039167	-0.010538	-0.027025	2.618187	0.000000	-0.000018	0.000000	-0.000001	0.000002	0.000000	0.000000
0.601250	11.822564	25.059076	-0.036052	-0.039065	2.618181	0.000000	-0.000018	0.000000	-0.000000	0.000002	0.000000	0.000000
0.898573	11.851489	25.085839	-0.032170	-0.112465	2.618175	0.000000	-0.006439	0.000000	0.000000	0.000002	0.000000	0.000000
1.339533	12.031928	24.906744	-0.378576	0.517069	2.631629	0.000000	0.067520	0.000000	0.000001	0.000002	0.000000	0.000000
1.780493	12.524312	24.180743	-0.742279	1.123076	2.677834	0.000000	0.142248	0.000000	0.000002	0.000002	0.000000	0.000000
2.221453	13.351139	22.940869	-1.139894	1.677985	2.757316	0.000000	0.218596	0.000000	0.000002	0.000002	0.000000	0.000000
2.662413	14.550183	21.243535	-1.589588	2.156546	2.870981	0.000000	0.297433	0.000000	0.000003	0.000002	0.000000	0.000000
3.108373	16.196956	19.141078	-2.116193	2.538120	3.021985	0.000000	0.380148	0.000000	0.000004	0.000002	0.000000	0.000000
3.657433	18.308690	16.779679	-1.707130	1.788070	3.205436	0.000000	0.287110	0.000000	0.000005	0.000002	0.000000	0.000000
4.206493	19.901948	15.167574	-1.177483	1.165379	3.336329	0.000000	0.188980	0.000000	0.000006	0.000001	0.000000	0.000000
4.755553	20.864188	14.189937	-0.564665	0.625697	3.412342	0.000000	0.087498	0.000000	0.000007	0.000001	0.000000	0.000000
5.304613	21.127444	13.777132	0.088038	0.130581	3.432126	0.000000	-0.015536	0.000000	0.000007	0.000001	0.000000	0.000000
5.603185	21.112058	13.684312	0.018692	0.144302	3.430164	0.000000	-0.006569	0.000000	0.000007	0.000001	0.000000	0.000000
5.936519	21.104861	13.596399	0.002898	0.119436	3.427974	0.000000	-0.006569	0.000000	0.000008	0.000001	0.000000	0.000000
6.269852	21.108194	13.525064	-0.012897	0.094570	3.425784	0.000000	-0.006569	0.000000	0.000008	0.000001	0.000000	0.000000
6.604435	21.122129	13.470131	-0.028750	0.069611	3.423586	0.000000	-0.006569	0.000000	0.000009	0.000001	0.000000	0.000000
6.901758	21.143413	13.435332	-0.098078	0.082533	3.421632	0.000000	0.002370	0.000000	0.000009	0.000001	0.000000	0.000000
7.450818	20.890787	13.605595	0.555462	-0.394462	3.394733	0.000000	-0.100209	0.000000	0.000009	0.000001	0.000000	0.000000
7.999878	19.937892	14.311919	1.169767	-0.899555	3.311917	0.000000	-0.201010	0.000000	0.000010	0.000001	0.000000	0.000000
8.548938	18.352036	15.604613	1.701445	-1.468720	3.174654	0.000000	-0.298246	0.000000	0.000010	0.000000	0.000000	0.000000
9.097998	16.245237	17.575754	2.112942	-2.142499	2.985379	0.000000	-0.390192	0.000000	0.000010	-0.000000	0.000000	0.000000
9.543958	14.601576	19.332124	1.585830	-1.779254	2.829675	0.000000	-0.308488	0.000000	0.000010	0.000000	0.000000	0.000000
9.984918	13.406132	20.711201	1.135457	-1.336289	2.710890	0.000000	-0.230781	0.000000	0.000010	0.000000	0.000000	0.000000
10.425878	12.583593	21.671214	0.736959	-0.832524	2.625759	0.000000	-0.155703	0.000000	0.000010	0.000001	0.000000	0.000000
10.866838	12.096377	22.168482	0.372130	-0.290879	2.573312	0.000000	-0.082398	0.000000	0.000011	0.000001	0.000000	0.000000
11.309048	11.922093	22.179857	0.053432	0.209553	2.552931	0.000000	-0.016292	0.000000	0.000011	0.000001	0.000000	0.000000
11.606371	11.897756	22.059407	0.028422	0.195560	2.548087	0.000000	-0.016292	0.000000	0.000011	0.000001	0.000000	0.000000
12.086371	11.889852	21.882514	-0.011955	0.172968	2.540266	0.000000	-0.016292	0.000000	0.000012	0.000001	0.000000	0.000000
12.566371	11.920709	21.727309	-0.052331	0.150376	2.532446	0.000000	-0.016292	0.000000	0.000013	0.000001	0.000000	0.000000
13.046371	11.990327	21.593791	-0.092707	0.127785	2.524625	0.000000	-0.016292	0.000000	0.000013	0.000001	0.000000	0.000000
13.526371	12.098707	21.481961	-0.133084	0.105193	2.516805	0.000000	-0.016292	0.000000	0.000014	0.000001	0.000000	0.000000
14.007621	12.246282	21.391613	-0.173565	0.082543	2.508964	0.000000	-0.016292	0.000000	0.000014	0.000001	0.000000	0.000000
14.304943	12.356927	21.346690	-0.168276	0.016208	2.504119	0.000000	-0.022432	0.000000	0.000015	0.000001	0.000000	0.000000
14.745903	12.663843	21.098767	-0.530380	0.543888	2.509858	0.000000	0.048487	0.000000	0.000015	0.000002	0.000000	0.000000
15.186863	13.299542	20.394647	-0.916715	1.046822	2.546961	0.000000	0.119958	0.000000	0.000016	0.000002	0.000000	0.000000
15.627823	14.293069	19.266370	-1.344932	1.502126	2.615850	0.000000	0.192796	0.000000	0.000017	0.000002	0.000000	0.000000
16.068783	15.689816	17.765269	-1.834595	1.889084	2.717311	0.000000	0.267829	0.000000	0.000018	0.000003	0.000000	0.000000
16.514743	17.577254	15.938144	-2.412834	2.190834	2.854194	0.000000	0.346375	0.000000	0.000019	0.000003	0.000000	0.000000
17.063803	20.001461	13.898032	-1.976224	1.546743	3.020644	0.000000	0.259049	0.000000	0.000021	0.000003	0.000000	0.000000
17.612863	21.866263	12.500923	-1.400023	1.012823	3.137815	0.000000	0.167129	0.000000	0.000022	0.000002	0.000000	0.000000
18.161923	23.039939	11.647304	-0.724931	0.551045	3.203626	0.000000	0.072244	0.000000	0.000023	0.000001	0.000000	0.000000
18.710983	23.439586	11.276374	0.001366	0.128516	3.216911	0.000000	-0.023922	0.000000	0.000024	0.000000	0.000000	0.000000
19.009556	23.479151	11.190143	-0.072649	0.130835	3.212277	0.000000	-0.015518	0.000000	0.000024	0.000000	0.000000	0.000000
19.342889	23.532341	11.113020	-0.086921	0.100537	3.207104	0.000000	-0.015518	0.000000	0.000024	0.000000	0.000000	0.000000
19.676223	23.595046	11.056095	-0.101193	0.070239	3.201931	0.000000	-0.015518	0.000000	0.000024	0.000000	0.000000	0.000000
20.010806	23.667847	11.019132	-0.232782	0.094423	3.196759	0.000000	0.000320	0.000000	0.000024	0.000001	0.000000	0.000000
20.308129	23.810207	10.971078	-0.308224	0.095859	3.196854	0.000000	0.008671	0.000000	0.000024	0.000001	0.000000	0.000000
20.857189	23.738000	11.087823	0.438955	-0.309742	3.175398	0.000000	-0.086713	0.000000	0.000024	-0.000000	0.000000	0.000000
21.406249	22.857540	11.659396	1.155129	-0.737405	3.101916	0.000000	-0.180558	0.000000	0.000024	-0.000001	0.000000	0.000000
21.955309	21.231017	12.726507	1.789710	-1.217591	2.977712	0.000000	-0.271202	0.000000	0.000023	-0.000002	0.000000	0.000000
22.504369	18.973321	14.365166	2.297875	-1.784505	2.804989	0.000000	-0.357035	0.000000	0.000022	-0.000002	0.000000	0.000000
22.950329	17.193990	15.836444	1.706096	-1.500702	2.663059	0.000000	-0.279831	0.000000	0.000021	-0.000002	0.000000	0.000000
23.391289	15.918695	17.009529	1.196961	-1.149472	2.555986	0.000000	-0.206268	0.000000	0.000021	-0.000001	0.000000	0.000000
23.832249	15.066697	17.848524	0.742512	-0.745942	2.480803	0.000000	-0.135055	0.000000	0.000020	-0.000001	0.000000	0.000000
24.273209	14.599070	18.315255	0.321986	-0.308472	2.436653	0.000000	-0.065381	0.000000	0.000020	-0.000000	0.000000	0.000000
24.715418	14.494570	18.388241	-0.048378	0.097879	2.423031	0.000000	-0.002391	0.000000	0.000020	0.000000	0.000000	0.000000
25.012741	14.529451	18.334891	-0.068939	0.081555	2.422320	0.000000	-0.002391	0.000000	0.000020	0.000000	0.000000	0.000000
25.346075	14.583094	18.286622	-0.091990	0.063254	2.421523	0.000000	-0.002391	0.000000	0.000020	0.000000	0.000000	0.000000
25.679408	14.652104	18.250553	-0.115041	0.044952	2.420725	0.000000	-0.002391	0.000000	0.000020	0.000000	0.000000	0.000000
26.013991	14.736528	18.226988	-0.018626	-0.121284	2.419901	0.000000	-0.022023	0.000000	0.000020	0.000000	0.000000	0.000000
26.311314	14.753605	18.304030	-0.002635	-0.182714	2.413353	0.000000	-0.027940	0.000000	0.000020	-0.000000	0.000000	0.000000
26.752274	14.937689	18.266676	-0.416411	0.267102	2.416141	0.000000	0.040601	0.000000	0.000020	0.000001	0.000000	0.000000
27.193234	15.493669	17.836484	-0.849210	0.704766	2.449227	0.000000	0.109604	0.000000	0.000021	0.000001	0.000000	0.000000
27.634194	16.446944	17.033027	-1.320808	1.110363	2.512986	0.000000	0.179856	0.000000	0.000021	0.000002	0.000000	0.000000
28.075154	17.841068	15.892862	-1.852750	1.465440	2.608144	0.000000	0.252156	0.000000	0.000022	0.000002	0.000000	0.000000
28.521114	19.763953	14.450688	-2.474309	1.754752	2.737390	0.000000	0.327772	0.000000	0.000023	0.000003	0.000000	0.000000
29.070174	22.207943	12.843878	-1.950566	1.188995	2.894693	0.000000	0.244379	0.000000	0.000025	0.000002	0.000000	0.000000
29.619234	23.997276	11.808465	-1.289044	0.707928	3.004949	0.000000	0.156651	0.000000	0.000025	0.000001	0.000000	0.000000
30.168294	25.005562	11.270698	-0.536470	0.277285	3.066203	0.000000	0.066145	0.000000	0.000026	0.000000	0.000000	0.000000
30.717354	25.161581	11.192273	0.253997	-0.133607	3.077369	0.000000	-0.025534	0.000000	0.000026	-0.000001	0.000000	0.000000
31.015927	25.052825	11.262649	0.175982	-0.131338	3.072145	0.000000	-0.017495	0.000000	0.000026	-0.000000	0.000000	0.000000
31.349260	24.940077	11.360243	0.162264	-0.161444	3.066314	0.000000	-0.017495	0.000000	0.000025	-0.000000	0.000000	0.000000
31.682593	24.836473	11.477908	0.148547	-0.191551	3.060482	0.000000	-0.017495	0.000000	0.000025	-0.000000	0.000000	0.000000
32.017177	24.741677	11.616199	0.134778	-0.221771	3.054629	0.000000	-0.017495	0.000000	0.000025	-0.000000	0.000000	0.000000
32.314499	24.665169	11.756058	0.058111	-0.217915	3.049428	0.000000	-0.009529	0.000000	0.000025	-0.000000	0.000000	0.000000
32.863559	24.178744	12.234547	0.822567	-0.658697	3.019316	0.000000	-0.099996	0.000000	0.000025	-0.000001	0.000000	0.000000
33.412619	22.879946	13.219836	1.528921	-1.146396	2.939947	0.000000	-0.188689	0.000000	0.000024	-0.000002	0.000000	0.000000
33.961679	20.860517	14.782105	2.127280	-1.715751	2.812729	0.000000	-0.274036	0.000000	0.000022	-0.000003	0.000000	0.000000
34.510739	18.263098	17.032632	2.575378	-2.407315	2.639919	0.000000	-0.354521	0.000000	0.000021	-0.000003	0.000000	0.000000
34.956699	16.243469	19.045665	1.969570	-2.087771	2.498158	0.000000	-0.281597	0.000000	0.000019	-0.000003	0.000000	0.000000
35.397659	14.737423	20.710783	1.458764	-1.673979	2.389367	0.000000	-0.212308	0.000000	0.000018	-0.000002	0.000000	0.000000
35.838619	13.650887	21.975862	1.014605	-1.184022	2.310567	0.000000	-0.145437	0.000000	0.000017	-0.000002	0.000000	0.000000
36.279579	12.934221	22.783341	0.616800	-0.640193	2.260861	0.000000	-0.080223	0.000000	0.000016	-0.000002	0.000000	0.000000
36.721789	12.553988	23.096790	0.277851	-0.123922	2.239657	0.000000	-0.021413	0.000000	0.000016	-0.000001	0.000000	0.000000
37.019112	12.396350	23.174366	0.252339	-0.136992	2.233291	0.000000	-0.021413	0.000000	0.000016	-0.000001	0.000000	0.000000
37.352445	12.237658	23.270579	0.223737	-0.151646	2.226154	0.000000	-0.021413	0.000000	0.000015	-0.000001	0.000000	0.000000
37.685779	12.098034	23.376561	0.195135	-0.166300	2.219016	0.000000	-0.021413	0.000000	0.000015	-0.000001	0.000000	0.000000
38.020362	11.977061	23.492764	0.166426	-0.181008	2.211852	0.000000	-0.021413	0.000000	0.000014	-0.000001	0.000000	0.000000
38.317684	11.885682	23.604286	0.170058	-0.251956	2.205486	0.000000	-0.026821	0.000000	0.000014	-0.000001	0.000000	0.000000
38.758644	11.887217	23.565036	-0.173553	0.340628	2.207586	0.000000	0.036352	0.000000	0.000014	-0.000001	0.000000	0.000000
39.199604	12.194128	23.008038	-0.525093	0.917714	2.237607	0.000000	0.099940	0.000000	0.000013	-0.000000	0.000000	0.000000
39.640564	12.820435	21.958636	-0.900622	1.453044	2.295892	0.000000	0.164665	0.000000	0.000013	-0.000000	0.000000	0.000000
40.081524	13.794753	20.464575	-1.317299	1.922262	2.383104	0.000000	0.231266	0.000000	0.000013	0.000000	0.000000	0.000000
40.527484	15.179173	18.571259	-1.797987	2.305305	2.501708	0.000000	0.300907	0.000000	0.000013	0.000001	0.000000	0.000000
41.076544	16.945784	16.443602	-1.400486	1.592657	2.646396	0.000000	0.225355	0.000000	0.000014	0.000000	0.000000	0.000000
41.625604	18.218654	15.032006	-0.904061	0.993451	2.748441	0.000000	0.145806	0.000000	0.000014	-0.000000	0.000000	0.000000
42.174664	18.907872	14.235924	-0.343778	0.465006	2.806033	0.000000	0.063670	0.000000	0.000013	-0.000001	0.000000	0.000000
42.723724	18.964757	13.998654	0.240787	-0.030317	2.818151	0.000000	-0.019595	0.000000	0.000013	-0.000001	0.000000	0.000000
43.022297	18.855431	14.001287	0.174922	-0.015074	2.814500	0.000000	-0.012232	0.000000	0.000012	-0.000001	0.000000	0.000000
43.502297	18.700099	14.032217	0.148686	-0.049364	2.808629	0.000000	-0.012232	0.000000	0.000012	-0.000001	0.000000	0.000000
43.982297	18.569954	14.096067	0.122450	-0.083655	2.802758	0.000000	-0.012232	0.000000	0.000011	-0.000001	0.000000	0.000000
44.462297	18.464995	14.192835	0.096214	-0.117945	2.796887	0.000000	-0.012232	0.000000	0.000011	-0.000001	0.000000	0.000000
44.942297	18.385223	14.322521	0.069979	-0.152236	2.791016	0.000000	-0.012232	0.000000	0.000010	-0.000001	0.000000	0.000000
45.423547	18.330754	14.485414	-0.047146	-0.114846	2.785147	0.000000	0.001567	0.000000	0.000010	-0.000001	0.000000	0.000000
45.720870	18.363623	14.559889	-0.111379	-0.097603	2.785613	0.000000	0.008845	0.000000	0.000009	-0.000001	0.000000	0.000000
46.269930	18.176729	14.948630	0.449752	-0.614588	2.767900	0.000000	-0.073275	0.000000	0.000009	-0.000001	0.000000	0.000000
46.818990	17.387522	15.925647	0.979116	-1.175349	2.705389	0.000000	-0.154095	0.000000	0.000008	-0.000002	0.000000	0.000000
47.368050	16.051749	17.560529	1.439319	-1.819828	2.599189	0.000000	-0.232182	0.000000	0.000007	-0.000002	0.000000	0.000000
47.917110	14.263760	19.969726	1.797856	-2.593929	2.451183	0.000000	-0.306151	0.000000	0.000006	-0.000002	0.000000	0.000000
48.363070	12.872413	22.111658	1.333090	-2.188848	2.329944	0.000000	-0.237855	0.000000	0.000005	-0.000002	0.000000	0.000000
48.804030	11.876935	23.826594	0.932998	-1.685451	2.239519	0.000000	-0.172666	0.000000	0.000004	-0.000002	0.000000	0.000000
49.244990	11.214247	25.061934	0.575532	-1.105367	2.177380	0.000000	-0.109444	0.000000	0.000003	-0.000002	0.000000	0.000000
49.685950	10.854073	25.761470	0.244361	-0.474990	2.142818	0.000000	-0.047467	0.000000	0.000003	-0.000002	0.000000	0.000000
50.128160	10.780081	25.893090	-0.049327	0.113454	2.135450	0.000000	0.008732	0.000000	0.000002	-0.000002	0.000000	0.000000
50.425482	10.817633	25.829083	-0.076975	0.101823	2.138047	0.000000	0.008732	0.000000	0.000001	-0.000002	0.000000	0.000000
50.758816	10.879282	25.765548	-0.107971	0.088784	2.140958	0.000000	0.008732	0.000000	0.000001	-0.000002	0.000000	0.000000
51.092149	10.961595	25.710705	-0.138968	0.075745	2.143869	0.000000	0.008732	0.000000	0.000000	-0.000002	0.000000	0.000000
51.426732	11.064773	25.664918	-0.080316	-0.145550	2.146769	0.000000	-0.008684	0.000000	-0.000000	-0.000002	0.000000	0.000000
51.724055	11.120573	25.754986	-0.080089	-0.220540	2.144188	0.000000	-0.013943	0.000000	-0.000001	-0.000002	0.000000	0.000000
52.165015	11.336423	25.662935	-0.411268	0.428496	2.151629	0.000000	0.047719	0.000000	-0.000001	-0.000002	0.000000	0.000000
52.605975	11.851496	25.004931	-0.761236	1.058035	2.186354	0.000000	0.109925	0.000000	-0.000002	-0.000002	0.000000	0.000000
53.046935	12.689324	23.810911	-1.145983	1.639434	2.248758	0.000000	0.173382	0.000000	-0.000003	-0.000002	0.000000	0.000000
53.487895	13.888186	22.135204	-1.583087	2.146240	2.339554	0.000000	0.238814	0.000000	-0.000004	-0.000002	0.000000	0.000000
53.933855	15.523408	20.028998	-2.096743	2.556733	2.461279	0.000000	0.307365	0.000000	-0.000004	-0.000002	0.000000	0.000000
54.482915	17.628745	17.658939	-1.715000	1.785324	2.609862	0.000000	0.233060	0.000000	-0.000006	-0.000002	0.000000	0.000000
55.031975	19.245478	16.061597	-1.212117	1.141080	2.716449	0.000000	0.154621	0.000000	-0.000006	-0.000002	0.000000	0.000000
55.581035	20.259407	15.123197	-0.623617	0.578112	2.779152	0.000000	0.073440	0.000000	-0.000007	-0.000001	0.000000	0.000000
56.130095	20.598916	14.776899	0.008932	0.056322	2.796857	0.000000	-0.009045	0.000000	-0.000008	-0.000001	0.000000	0.000000
56.428668	20.630059	14.726297	-0.059416	0.074546	2.796339	0.000000	-0.001736	0.000000	-0.000008	-0.000001	0.000000	0.000000
56.762001	20.675075	14.684186	-0.075631	0.051785	2.795761	0.000000	-0.001736	0.000000	-0.000009	-0.000001	0.000000	0.000000
57.095334	20.730901	14.657250	-0.091846	0.029024	2.795182	0.000000	-0.001736	0.000000	-0.000009	-0.000001	0.000000	0.000000
57.429918	20.797806	14.645471	-0.108121	0.006178	2.794601	0.000000	-0.001736	0.000000	-0.000009	-0.000001	0.000000	0.000000
57.727240	20.866400	14.647834	-0.177109	0.024151	2.794086	0.000000	0.005565	0.000000	-0.000010	-0.000001	0.000000	0.000000
58.276300	20.704928	14.902547	0.469456	-0.490797	2.774501	0.000000	-0.076799	0.000000	-0.000010	-0.000001	0.000000	0.000000
58.825360	19.847537	15.738498	1.082861	-1.040703	2.710002	0.000000	-0.157801	0.000000	-0.000011	-0.000000	0.000000	0.000000
59.374420	18.354790	17.215230	1.619778	-1.664736	2.601731	0.000000	-0.236004	0.000000	-0.000011	-0.000000	0.000000	0.000000
59.923480	16.332126	19.437926	2.042282	-2.407345	2.451610	0.000000	-0.310021	0.000000	-0.000011	0.000000	0.000000	0.000000
60.369440	14.749036	21.413447	1.520138	-2.003774	2.328643	0.000000	-0.241737	0.000000	-0.000011	-0.000000	0.000000	0.000000
60.810400	13.610482	22.968980	1.071646	-1.510409	2.236496	0.000000	-0.176603	0.000000	-0.000011	-0.000000	0.000000	0.000000
61.251360	12.844460	24.057323	0.672114	-0.948322	2.172599	0.000000	-0.113481	0.000000	-0.000011	-0.000001	0.000000	0.000000
61.692320	12.415972	24.628958	0.303289	-0.343086	2.136225	0.000000	-0.051652	0.000000	-0.000011	-0.000001	0.000000	0.000000
62.134530	12.305496	24.657332	-0.021601	0.217231	2.126966	0.000000	0.004373	0.000000	-0.000012	-0.000001	0.000000	0.000000
62.431853	12.325528	24.531911	-0.045774	0.204604	2.128266	0.000000	0.004373	0.000000	-0.000012	-0.000001	0.000000	0.000000
62.765186	12.365078	24.400227	-0.072875	0.190447	2.129724	0.000000	0.004373	0.000000	-0.000013	-0.000001	0.000000	0.000000
63.098520	12.422695	24.277981	-0.099976	0.176291	2.131182	0.000000	0.004373	0.000000	-0.000013	-0.000001	0.000000	0.000000
63.433103	12.498697	24.164767	-0.127179	0.162081	2.132646	0.000000	0.004373	0.000000	-0.000013	-0.000001	0.000000	0.000000
63.730426	12.581511	24.072141	-0.120494	0.090414	2.133947	0.000000	-0.000861	0.000000	-0.000014	-0.000001	0.000000	0.000000
64.171386	12.848026	23.727306	-0.486197	0.688620	2.147108	0.000000	0.060611	0.000000	-0.000014	-0.000002	0.000000	0.000000
64.612346	13.445601	22.866755	-0.874114	1.255495	2.187503	0.000000	0.122773	0.000000	-0.000015	-0.000002	0.000000	0.000000
65.053306	14.401539	21.529641	-1.301966	1.765246	2.255591	0.000000	0.186333	0.000000	-0.000016	-0.000002	0.000000	0.000000
65.494266	15.759511	19.776803	-1.789301	2.194679	2.352147	0.000000	0.252016	0.000000	-0.000017	-0.000003	0.000000	0.000000
65.940226	17.604723	17.663195	-2.363076	2.525008	2.479844	0.000000	0.320970	0.000000	-0.000018	-0.000003	0.000000	0.000000
66.489286	19.970221	15.298774	-1.919693	1.806719	2.635710	0.000000	0.245946	0.000000	-0.000020	-0.000003	0.000000	0.000000
67.038346	21.771038	13.648248	-1.340713	1.217119	2.749123	0.000000	0.166559	0.000000	-0.000021	-0.000002	0.000000	0.000000
67.587406	22.879974	12.594055	-0.667031	0.714211	2.818071	0.000000	0.084217	0.000000	-0.000022	-0.000001	0.000000	0.000000
68.136466	23.218698	12.061107	0.053766	0.262175	2.841331	0.000000	0.000382	0.000000	-0.000022	-0.000000	0.000000	0.000000
68.435038	23.226665	11.893757	-0.019772	0.266804	2.843662	0.000000	0.007807	0.000000	-0.000023	-0.000001	0.000000	0.000000
68.768372	23.244632	11.725894	-0.034128	0.236783	2.846265	0.000000	0.007807	0.000000	-0.000023	-0.000001	0.000000	0.000000
69.101705	23.272170	11.578046	-0.048485	0.206763	2.848867	0.000000	0.007807	0.000000	-0.000023	-0.000001	0.000000	0.000000
69.436288	23.309436	11.449769	-0.062896	0.176629	2.851480	0.000000	0.007807	0.000000	-0.000023	-0.000001	0.000000	0.000000
69.733611	23.350644	11.352699	-0.136725	0.179520	2.853801	0.000000	0.015265	0.000000	-0.000023	-0.000001	0.000000	0.000000
70.282671	23.099743	11.382961	0.590986	-0.234961	2.838997	0.000000	-0.069111	0.000000	-0.000023	0.000000	0.000000	0.000000
