#ParticleID	Turn	x[m]	xp	y[m]	yp	z[m]	dE[GeV]# s	beta_x	beta_y	alpha_x	alpha_y	D_x	D_y	D_px	D_py	orbit_x	orbit_px	orbit_y	orbit_py
0.300000	11.807065	25.044876	-0.010403	-0.026953	2.618223	0.000000	-0.000031	0.000000	-0.000001	0.000002	0.000000	0.000000
0.601250	11.821020	25.064741	-0.035921	-0.038991	2.618213	0.000000	-0.000031	0.000000	-0.000000	0.000002	0.000000	0.000000
0.898573	11.849868	25.091459	-0.032046	-0.112402	2.618203	0.000000	-0.006452	0.000000	-0.000000	0.000002	0.000000	0.000000
1.339533	12.030180	24.912242	-0.378412	0.517279	2.631652	0.000000	0.067508	0.000000	0.000001	0.000002	0.000000	0.000000
1.780493	12.522399	24.185994	-0.742067	1.123424	2.677851	0.000000	0.142236	0.000000	0.000001	0.000002	0.000000	0.000000
2.221453	13.349015	22.945758	-1.139625	1.678455	2.757329	0.000000	0.218584	0.000000	0.000002	0.000002	0.000000	0.000000
2.662413	14.547792	21.247964	-1.589249	2.157117	2.870989	0.000000	0.297422	0.000000	0.000003	0.000002	0.000000	0.000000
3.108373	16.194225	19.144963	-2.115768	2.538765	3.021987	0.000000	0.380137	0.000000	0.000004	0.000002	0.000000	0.000000
3.657433	18.305531	16.782944	-1.706778	1.788560	3.205433	0.000000	0.287099	0.000000	0.000005	0.000002	0.000000	0.000000
4.206493	19.898454	15.170370	-1.177229	1.165749	3.336320	0.000000	0.188969	0.000000	0.000005	0.000001	0.000000	0.000000
4.755553	20.860478	14.192380	-0.564527	0.625973	3.412326	0.000000	0.087488	0.000000	0.000006	0.000001	0.000000	0.000000
5.304613	21.123651	13.779314	0.088050	0.130783	3.432105	0.000000	-0.015546	0.000000	0.000007	0.000001	0.000000	0.000000
5.603185	21.108252	13.686369	0.018712	0.144512	3.430140	0.000000	-0.006579	0.000000	0.000007	0.000001	0.000000	0.000000
5.936519	21.101044	13.598316	0.002914	0.119649	3.427947	0.000000	-0.006579	0.000000	0.000007	0.000001	0.000000	0.000000
6.269852	21.104366	13.526838	-0.012883	0.094785	3.425754	0.000000	-0.006579	0.000000	0.000008	0.000001	0.000000	0.000000
6.604435	21.118292	13.471761	-0.028739	0.069828	3.423552	0.000000	-0.006579	0.000000	0.000008	0.000001	0.000000	0.000000
6.901758	21.139571	13.436832	-0.098059	0.082756	3.421596	0.000000	0.002360	0.000000	0.000009	0.000001	0.000000	0.000000
7.450818	20.886995	13.606872	0.555352	-0.394277	3.394691	0.000000	-0.100217	0.000000	0.000009	0.000001	0.000000	0.000000
7.999878	19.934288	14.313008	1.169537	-0.899394	3.311871	0.000000	-0.201017	0.000000	0.000009	0.000001	0.000000	0.000000
8.548938	18.348744	15.605535	1.701111	-1.468573	3.174604	0.000000	-0.298251	0.000000	0.000010	0.000000	0.000000	0.000000
9.097998	16.242358	17.576517	2.112527	-2.142355	2.985326	0.000000	-0.390196	0.000000	0.000010	-0.000000	0.000000	0.000000
9.543958	14.599027	19.332740	1.585503	-1.779072	2.829621	0.000000	-0.308493	0.000000	0.000010	0.000000	0.000000	0.000000
9.984918	13.403840	20.711644	1.135201	-1.336077	2.710833	0.000000	-0.230788	0.000000	0.000010	0.000000	0.000000	0.000000
10.425878	12.581498	21.671460	0.736763	-0.832292	2.625698	0.000000	-0.155711	0.000000	0.000010	0.000001	0.000000	0.000000
10.866838	12.094432	22.168520	0.371986	-0.290639	2.573247	0.000000	-0.082408	0.000000	0.000010	0.000001	0.000000	0.000000
11.309048	11.920256	22.179681	0.053327	0.209793	2.552862	0.000000	-0.016303	0.000000	0.000011	0.000001	0.000000	0.000000
11.606371	11.895982	22.059090	0.028314	0.195797	2.548014	0.000000	-0.016303	0.000000	0.000011	0.000001	0.000000	0.000000
12.086371	11.888185	21.881970	-0.012068	0.173203	2.540188	0.000000	-0.016303	0.000000	0.000012	0.000001	0.000000	0.000000
12.566371	11.919154	21.726539	-0.052451	0.150609	2.532362	0.000000	-0.016303	0.000000	0.000012	0.000001	0.000000	0.000000
13.046371	11.988890	21.592799	-0.092833	0.128016	2.524536	0.000000	-0.016303	0.000000	0.000013	0.000001	0.000000	0.000000
13.526371	12.097392	21.480750	-0.133215	0.105422	2.516710	0.000000	-0.016303	0.000000	0.000014	0.000001	0.000000	0.000000
14.007621	12.245096	21.390183	-0.173702	0.082769	2.508863	0.000000	-0.016303	0.000000	0.000014	0.000001	0.000000	0.000000
14.304943	12.355824	21.345126	-0.168420	0.016437	2.504016	0.000000	-0.022443	0.000000	0.000014	0.000001	0.000000	0.000000
14.745903	12.662856	21.097021	-0.530503	0.544070	2.509749	0.000000	0.048473	0.000000	0.000015	0.000002	0.000000	0.000000
15.186863	13.298657	20.392766	-0.916823	1.046948	2.546845	0.000000	0.119941	0.000000	0.000016	0.000002	0.000000	0.000000
15.627823	14.292275	19.264404	-1.345030	1.502191	2.615726	0.000000	0.192776	0.000000	0.000017	0.000002	0.000000	0.000000
16.068783	15.689105	17.763274	-1.834688	1.889085	2.717178	0.000000	0.267806	0.000000	0.000018	0.000003	0.000000	0.000000
16.514743	17.576625	15.936177	-2.412925	2.190770	2.854049	0.000000	0.346348	0.000000	0.000019	0.000003	0.000000	0.000000
17.063803	20.000955	13.896109	-1.976353	1.546726	3.020486	0.000000	0.259027	0.000000	0.000021	0.000003	0.000000	0.000000
17.612863	21.865917	12.498993	-1.400181	1.012852	3.137646	0.000000	0.167112	0.000000	0.000022	0.000002	0.000000	0.000000
18.161923	23.039778	11.645317	-0.725108	0.551121	3.203449	0.000000	0.072233	0.000000	0.000023	0.000001	0.000000	0.000000
18.710983	23.439622	11.274275	0.001184	0.128645	3.216730	0.000000	-0.023927	0.000000	0.000023	0.000000	0.000000	0.000000
19.009556	23.479296	11.187973	-0.072831	0.130952	3.212095	0.000000	-0.015524	0.000000	0.000024	0.000001	0.000000	0.000000
19.342889	23.532608	11.110773	-0.087103	0.100647	3.206920	0.000000	-0.015524	0.000000	0.000024	0.000001	0.000000	0.000000
19.676223	23.595434	11.053777	-0.101375	0.070342	3.201745	0.000000	-0.015524	0.000000	0.000024	0.000001	0.000000	0.000000
20.010806	23.668357	11.016747	-0.232967	0.094508	3.196570	0.000000	0.000314	0.000000	0.000024	0.000001	0.000000	0.000000
20.308129	23.810828	10.968644	-0.308412	0.095932	3.196663	0.000000	0.008664	0.000000	0.000024	0.000001	0.000000	0.000000
20.857189	23.738815	11.085272	0.438792	-0.309599	3.175205	0.000000	-0.086714	0.000000	0.000024	-0.000000	0.000000	0.000000
21.406249	22.858515	11.656645	1.155002	-0.737182	3.101724	0.000000	-0.180553	0.000000	0.000024	-0.000001	0.000000	0.000000
21.955309	21.232108	12.723462	1.789628	-1.217273	2.977525	0.000000	-0.271190	0.000000	0.000023	-0.000002	0.000000	0.000000
22.504369	18.974475	14.361708	2.297844	-1.784067	2.804810	0.000000	-0.357017	0.000000	0.000022	-0.000002	0.000000	0.000000
22.950329	17.195180	15.832632	1.706046	-1.500348	2.662886	0.000000	-0.279818	0.000000	0.000021	-0.000002	0.000000	0.000000
23.391289	15.919938	17.005446	1.196890	-1.149216	2.555818	0.000000	-0.206260	0.000000	0.000021	-0.000001	0.000000	0.000000
23.832249	15.068012	17.844263	0.742417	-0.745796	2.480638	0.000000	-0.135051	0.000000	0.000020	-0.000001	0.000000	0.000000
24.273209	14.600481	18.310916	0.321863	-0.308442	2.436489	0.000000	-0.065381	0.000000	0.000020	-0.000000	0.000000	0.000000
24.715418	14.496104	18.383928	-0.048531	0.097801	2.422865	0.000000	-0.002395	0.000000	0.000020	0.000000	0.000000	0.000000
25.012741	14.531076	18.330625	-0.069090	0.081474	2.422153	0.000000	-0.002395	0.000000	0.000020	0.000000	0.000000	0.000000
25.346075	14.584819	18.282411	-0.092139	0.063168	2.421355	0.000000	-0.002395	0.000000	0.000020	0.000000	0.000000	0.000000
25.679408	14.653928	18.246400	-0.115188	0.044863	2.420556	0.000000	-0.002395	0.000000	0.000020	0.000000	0.000000	0.000000
26.013991	14.738449	18.222897	-0.018755	-0.121344	2.419730	0.000000	-0.022026	0.000000	0.000020	0.000000	0.000000	0.000000
26.311314	14.755602	18.299976	-0.002757	-0.182768	2.413181	0.000000	-0.027942	0.000000	0.000020	0.000000	0.000000	0.000000
26.752274	14.939815	18.262718	-0.416583	0.266940	2.415968	0.000000	0.040594	0.000000	0.000020	0.000001	0.000000	0.000000
27.193234	15.495972	17.832715	-0.849441	0.704502	2.449049	0.000000	0.109593	0.000000	0.000021	0.000001	0.000000	0.000000
27.634194	16.449480	17.029531	-1.321108	1.110009	2.512802	0.000000	0.179840	0.000000	0.000021	0.000002	0.000000	0.000000
28.075154	17.843904	15.889712	-1.853133	1.465013	2.607953	0.000000	0.252135	0.000000	0.000022	0.000002	0.000000	0.000000
28.521114	19.767174	14.447945	-2.474793	1.754271	2.737188	0.000000	0.327746	0.000000	0.000023	0.000003	0.000000	0.000000
29.070174	22.211651	12.841602	-1.950963	1.188621	2.894479	0.000000	0.244360	0.000000	0.000025	0.000002	0.000000	0.000000
29.619234	24.001360	11.806552	-1.289327	0.707635	3.004726	0.000000	0.156639	0.000000	0.000026	0.000001	0.000000	0.000000
30.168294	25.009885	11.269072	-0.536619	0.277052	3.065976	0.000000	0.066141	0.000000	0.000026	0.000000	0.000000	0.000000
30.717354	25.165988	11.190878	0.253993	-0.133797	3.077141	0.000000	-0.025531	0.000000	0.000026	-0.000000	0.000000	0.000000
31.015927	25.057241	11.261370	0.175968	-0.131535	3.071918	0.000000	-0.017493	0.000000	0.000026	-0.000000	0.000000	0.000000
31.349260	24.944501	11.359098	0.162254	-0.161647	3.066088	0.000000	-0.017493	0.000000	0.000026	-0.000000	0.000000	0.000000
31.682593	24.840903	11.476900	0.148539	-0.191759	3.060257	0.000000	-0.017493	0.000000	0.000026	-0.000000	0.000000	0.000000
32.017177	24.746112	11.615331	0.134773	-0.221983	3.054404	0.000000	-0.017493	0.000000	0.000025	-0.000000	0.000000	0.000000
32.314499	24.669607	11.755318	0.058096	-0.218134	3.049203	0.000000	-0.009527	0.000000	0.000025	-0.000000	0.000000	0.000000
32.863559	24.183118	12.234041	0.822699	-0.658907	3.019094	0.000000	-0.099987	0.000000	0.000025	-0.000001	0.000000	0.000000
33.412619	22.884099	13.219563	1.529190	-1.146613	2.939732	0.000000	-0.188673	0.000000	0.000024	-0.000002	0.000000	0.000000
33.961679	20.864308	14.782080	2.127666	-1.715989	2.812525	0.000000	-0.274013	0.000000	0.000023	-0.000003	0.000000	0.000000
34.510739	18.266412	17.032888	2.575855	-2.407591	2.639729	0.000000	-0.354492	0.000000	0.000021	-0.000003	0.000000	0.000000
34.956699	16.246403	19.046177	1.969946	-2.088066	2.497980	0.000000	-0.281573	0.000000	0.000020	-0.000003	0.000000	0.000000
35.397659	14.740064	20.711559	1.459056	-1.674279	2.389198	0.000000	-0.212288	0.000000	0.000018	-0.000002	0.000000	0.000000
35.838619	13.653304	21.976900	1.014826	-1.184314	2.310406	0.000000	-0.145422	0.000000	0.000017	-0.000002	0.000000	0.000000
36.279579	12.936471	22.784628	0.616960	-0.640464	2.260706	0.000000	-0.080211	0.000000	0.000017	-0.000002	0.000000	0.000000
36.721789	12.556120	23.098302	0.277963	-0.124162	2.239507	0.000000	-0.021405	0.000000	0.000016	-0.000001	0.000000	0.000000
37.019112	12.398415	23.176021	0.252454	-0.137232	2.233143	0.000000	-0.021405	0.000000	0.000016	-0.000001	0.000000	0.000000
37.352445	12.239645	23.272393	0.223855	-0.151886	2.226008	0.000000	-0.021405	0.000000	0.000015	-0.000001	0.000000	0.000000
37.685779	12.099941	23.378535	0.195256	-0.166539	2.218873	0.000000	-0.021405	0.000000	0.000015	-0.000001	0.000000	0.000000
38.020362	11.978887	23.494899	0.166551	-0.181248	2.211712	0.000000	-0.021405	0.000000	0.000015	-0.000001	0.000000	0.000000
38.317684	11.887433	23.606563	0.170189	-0.252201	2.205348	0.000000	-0.026813	0.000000	0.000014	-0.000001	0.000000	0.000000
38.758644	11.888870	23.567502	-0.173460	0.340447	2.207450	0.000000	0.036357	0.000000	0.000014	-0.000001	0.000000	0.000000
39.199604	12.195713	23.010633	-0.525034	0.917604	2.237473	0.000000	0.099941	0.000000	0.000014	-0.000000	0.000000	0.000000
39.640564	12.821983	21.961292	-0.900595	1.453012	2.295758	0.000000	0.164663	0.000000	0.000013	-0.000000	0.000000	0.000000
40.081524	13.796291	20.467225	-1.317302	1.922308	2.382968	0.000000	0.231261	0.000000	0.000014	0.000000	0.000000	0.000000
40.527484	15.180728	18.573833	-1.798021	2.305427	2.501569	0.000000	0.300897	0.000000	0.000014	0.000001	0.000000	0.000000
41.076544	16.947342	16.446081	-1.400458	1.592710	2.646252	0.000000	0.225350	0.000000	0.000014	0.000000	0.000000	0.000000
41.625604	18.220148	15.034464	-0.903973	0.993437	2.748296	0.000000	0.145805	0.000000	0.000014	-0.000000	0.000000	0.000000
42.174664	18.909240	14.238435	-0.343637	0.464925	2.805890	0.000000	0.063675	0.000000	0.000014	-0.000001	0.000000	0.000000
42.723724	18.965944	14.001294	0.240973	-0.030472	2.818012	0.000000	-0.019585	0.000000	0.000013	-0.000001	0.000000	0.000000
43.022297	18.856508	14.004014	0.175104	-0.015219	2.814363	0.000000	-0.012223	0.000000	0.000013	-0.000001	0.000000	0.000000
43.502297	18.701002	14.035080	0.148868	-0.049502	2.808496	0.000000	-0.012223	0.000000	0.000012	-0.000001	0.000000	0.000000
43.982297	18.570681	14.099059	0.122632	-0.083786	2.802629	0.000000	-0.012223	0.000000	0.000012	-0.000001	0.000000	0.000000
44.462297	18.465547	14.195950	0.096397	-0.118070	2.796763	0.000000	-0.012223	0.000000	0.000011	-0.000001	0.000000	0.000000
44.942297	18.385600	14.325753	0.070161	-0.152354	2.790896	0.000000	-0.012223	0.000000	0.000011	-0.000001	0.000000	0.000000
45.423547	18.330956	14.488757	-0.046965	-0.114941	2.785031	0.000000	0.001575	0.000000	0.000010	-0.000001	0.000000	0.000000
45.720870	18.363717	14.563287	-0.111198	-0.097685	2.785500	0.000000	0.008853	0.000000	0.000010	-0.000001	0.000000	0.000000
46.269930	18.176624	14.952176	0.449932	-0.614776	2.767792	0.000000	-0.073264	0.000000	0.000009	-0.000001	0.000000	0.000000
46.818990	17.387227	15.929461	0.979280	-1.175656	2.705288	0.000000	-0.154080	0.000000	0.000008	-0.000002	0.000000	0.000000
47.368050	16.051286	17.564755	1.439458	-1.820275	2.599097	0.000000	-0.232164	0.000000	0.000007	-0.000002	0.000000	0.000000
47.917110	14.263165	19.974534	1.797959	-2.594549	2.451102	0.000000	-0.306130	0.000000	0.000006	-0.000002	0.000000	0.000000
48.363070	12.871727	22.116972	1.333193	-2.189358	2.329872	0.000000	-0.237837	0.000000	0.000005	-0.000002	0.000000	0.000000
48.804030	11.876156	23.832302	0.933107	-1.685830	2.239455	0.000000	-0.172649	0.000000	0.000004	-0.000002	0.000000	0.000000
49.244990	11.213368	25.067912	0.575651	-1.105597	2.177323	0.000000	-0.109428	0.000000	0.000004	-0.000002	0.000000	0.000000
49.685950	10.853082	25.767581	0.244496	-0.475061	2.142767	0.000000	-0.047453	0.000000	0.000003	-0.000002	0.000000	0.000000
50.128160	10.778961	25.899192	-0.049172	0.113530	2.135406	0.000000	0.008745	0.000000	0.000002	-0.000002	0.000000	0.000000
50.425482	10.816422	25.835139	-0.076823	0.101902	2.138006	0.000000	0.008745	0.000000	0.000002	-0.000002	0.000000	0.000000
50.758816	10.877971	25.771550	-0.107822	0.088866	2.140922	0.000000	0.008745	0.000000	0.000001	-0.000002	0.000000	0.000000
51.092149	10.960185	25.716651	-0.138821	0.075830	2.143837	0.000000	0.008745	0.000000	0.000001	-0.000002	0.000000	0.000000
51.426732	11.063266	25.670807	-0.080184	-0.145510	2.146742	0.000000	-0.008671	0.000000	0.000000	-0.000002	0.000000	0.000000
51.724055	11.118989	25.760851	-0.079965	-0.220511	2.144164	0.000000	-0.013929	0.000000	-0.000000	-0.000002	0.000000	0.000000
52.165015	11.334712	25.668706	-0.411104	0.428679	2.151610	0.000000	0.047732	0.000000	-0.000001	-0.000002	0.000000	0.000000
52.605975	11.849621	25.010476	-0.761026	1.058364	2.186341	0.000000	0.109937	0.000000	-0.000002	-0.000002	0.000000	0.000000
53.046935	12.687240	23.816107	-1.145717	1.639894	2.248751	0.000000	0.173394	0.000000	-0.000003	-0.000002	0.000000	0.000000
53.487895	13.885838	22.139943	-1.582752	2.146810	2.339552	0.000000	0.238826	0.000000	-0.000003	-0.000002	0.000000	0.000000
53.933855	15.520725	20.033190	-2.096324	2.557387	2.461282	0.000000	0.307377	0.000000	-0.000004	-0.000002	0.000000	0.000000
54.482915	17.625639	17.662504	-1.714652	1.785816	2.609871	0.000000	0.233072	0.000000	-0.000005	-0.000002	0.000000	0.000000
55.031975	19.242041	16.064695	-1.211866	1.141444	2.716466	0.000000	0.154633	0.000000	-0.000006	-0.000002	0.000000	0.000000
55.581035	20.255757	15.125952	-0.623480	0.578375	2.779174	0.000000	0.073450	0.000000	-0.000007	-0.000001	0.000000	0.000000
56.130095	20.595182	14.779413	0.008945	0.056502	2.796885	0.000000	-0.009035	0.000000	-0.000007	-0.000001	0.000000	0.000000
56.428668	20.626313	14.728698	-0.059396	0.074736	2.796370	0.000000	-0.001727	0.000000	-0.000008	-0.000001	0.000000	0.000000
56.762001	20.671316	14.686460	-0.075613	0.051978	2.795795	0.000000	-0.001727	0.000000	-0.000008	-0.000001	0.000000	0.000000
57.095334	20.727131	14.659395	-0.091831	0.029220	2.795220	0.000000	-0.001727	0.000000	-0.000009	-0.000001	0.000000	0.000000
57.429918	20.794027	14.647485	-0.108109	0.006377	2.794642	0.000000	-0.001727	0.000000	-0.000009	-0.000001	0.000000	0.000000
57.727240	20.862615	14.649728	-0.177089	0.024357	2.794129	0.000000	0.005575	0.000000	-0.000009	-0.000001	0.000000	0.000000
58.276300	20.701191	14.904244	0.469349	-0.490641	2.774550	0.000000	-0.076791	0.000000	-0.000010	-0.000001	0.000000	0.000000
58.825360	19.843984	15.740045	1.082635	-1.040586	2.710055	0.000000	-0.157794	0.000000	-0.000010	-0.000001	0.000000	0.000000
59.374420	18.351544	17.216665	1.619449	-1.664649	2.601788	0.000000	-0.235999	0.000000	-0.000010	-0.000000	0.000000	0.000000
59.923480	16.329287	19.439280	2.041873	-2.407282	2.451669	0.000000	-0.310018	0.000000	-0.000010	0.000000	0.000000	0.000000
60.369440	14.746522	21.414722	1.519816	-2.003660	2.328704	0.000000	-0.241732	0.000000	-0.000010	-0.000000	0.000000	0.000000
60.810400	13.608220	22.970134	1.071394	-1.510249	2.236559	0.000000	-0.176597	0.000000	-0.000011	-0.000000	0.000000	0.000000
61.251360	12.842394	24.058319	0.671921	-0.948124	2.172665	0.000000	-0.113473	0.000000	-0.000011	-0.000001	0.000000	0.000000
61.692320	12.414053	24.629765	0.303146	-0.342859	2.136295	0.000000	-0.051642	0.000000	-0.000011	-0.000001	0.000000	0.000000
62.134530	12.303683	24.657929	-0.021705	0.217476	2.127041	0.000000	0.004384	0.000000	-0.000012	-0.000001	0.000000	0.000000
62.431853	12.323778	24.532362	-0.045882	0.204848	2.128345	0.000000	0.004384	0.000000	-0.000012	-0.000001	0.000000	0.000000
62.765186	12.363401	24.400516	-0.072987	0.190690	2.129807	0.000000	0.004384	0.000000	-0.000012	-0.000001	0.000000	0.000000
63.098520	12.421093	24.278109	-0.100091	0.176532	2.131269	0.000000	0.004384	0.000000	-0.000013	-0.000001	0.000000	0.000000
63.433103	12.497174	24.164734	-0.127298	0.162322	2.132736	0.000000	0.004384	0.000000	-0.000013	-0.000001	0.000000	0.000000
63.730426	12.580060	24.071965	-0.120621	0.090654	2.134040	0.000000	-0.000849	0.000000	-0.000013	-0.000001	0.000000	0.000000
64.171386	12.846673	23.726922	-0.486295	0.688849	2.147207	0.000000	0.060625	0.000000	-0.000014	-0.000002	0.000000	0.000000
64.612346	13.444323	22.866177	-0.874186	1.255703	2.187609	0.000000	0.122789	0.000000	-0.000015	-0.000002	0.000000	0.000000
65.053306	14.400314	21.528893	-1.302016	1.765423	2.255704	0.000000	0.186352	0.000000	-0.000016	-0.000002	0.000000	0.000000
65.494266	15.758322	19.775915	-1.789332	2.194817	2.352270	0.000000	0.252038	0.000000	-0.000017	-0.000003	0.000000	0.000000
65.940226	17.603553	17.662204	-2.363088	2.525101	2.479977	0.000000	0.320996	0.000000	-0.000018	-0.000003	0.000000	0.000000
66.489286	19.969094	15.297677	-1.919757	1.806820	2.635857	0.000000	0.245967	0.000000	-0.000020	-0.000003	0.000000	0.000000
67.038346	21.770008	13.647034	-1.340825	1.217234	2.749280	0.000000	0.166575	0.000000	-0.000021	-0.000002	0.000000	0.000000
67.587406	22.879090	12.592702	-0.667183	0.714350	2.818235	0.000000	0.084228	0.000000	-0.000022	-0.000001	0.000000	0.000000
68.136466	23.217998	12.059584	0.053585	0.262347	2.841499	0.000000	0.000388	0.000000	-0.000022	-0.000000	0.000000	0.000000
68.435038	23.226072	11.892135	-0.019951	0.266967	2.843832	0.000000	0.007813	0.000000	-0.000022	-0.000001	0.000000	0.000000
68.768372	23.244158	11.724167	-0.034309	0.236939	2.846437	0.000000	0.007813	0.000000	-0.000023	-0.000001	0.000000	0.000000
69.101705	23.271817	11.576216	-0.048666	0.206912	2.849042	0.000000	0.007813	0.000000	-0.000023	-0.000001	0.000000	0.000000
69.436288	23.309204	11.447842	-0.063077	0.176772	2.851656	0.000000	0.007813	0.000000	-0.000023	-0.000001	0.000000	0.000000
69.733611	23.350520	11.350689	-0.136906	0.179651	2.853979	0.000000	0.015272	0.000000	-0.000023	-0.000001	0.000000	0.000000
70.282671	23.099818	11.380775	0.590806	-0.234770	2.839177	0.000000	-0.069110	0.000000	-0.000023	0.000000	0.000000	0.000000
