#ParticleID	Turn	x[m]	xp	y[m]	yp	z[m]	dE[GeV]# s	beta_x	beta_y	alpha_x	alpha_y	D_x	D_y	D_px	D_py	orbit_x	orbit_px	orbit_y	orbit_py
0.300000	11.804228	25.055623	-0.010163	-0.026809	2.618309	0.000000	-0.000064	0.000000	-0.000001	0.000002	0.000000	0.000000
0.601250	11.818040	25.075400	-0.035687	-0.038841	2.618290	0.000000	-0.000064	0.000000	-0.000001	0.000002	0.000000	0.000000
0.898573	11.846751	25.102027	-0.031825	-0.112273	2.618270	0.000000	-0.006484	0.000000	-0.000000	0.000002	0.000000	0.000000
1.339533	12.026835	24.922574	-0.378115	0.517685	2.631704	0.000000	0.067477	0.000000	0.000000	0.000002	0.000000	0.000000
1.780493	12.518754	24.195852	-0.741679	1.124088	2.677890	0.000000	0.142206	0.000000	0.000001	0.000002	0.000000	0.000000
2.221453	13.344981	22.954928	-1.139129	1.679346	2.757355	0.000000	0.218555	0.000000	0.000002	0.000002	0.000000	0.000000
2.662413	14.543265	21.256261	-1.588623	2.158196	2.871002	0.000000	0.297393	0.000000	0.000003	0.000002	0.000000	0.000000
3.108373	16.189071	19.152231	-2.114981	2.539983	3.021988	0.000000	0.380108	0.000000	0.000003	0.000002	0.000000	0.000000
3.657433	18.299584	16.789043	-1.706130	1.789486	3.205417	0.000000	0.287071	0.000000	0.000004	0.000002	0.000000	0.000000
4.206493	19.891894	15.175580	-1.176767	1.166450	3.336289	0.000000	0.188942	0.000000	0.000005	0.000002	0.000000	0.000000
4.755553	20.853528	14.196920	-0.564283	0.626499	3.412281	0.000000	0.087461	0.000000	0.000006	0.000001	0.000000	0.000000
5.304613	21.116561	13.783355	0.088060	0.131171	3.432045	0.000000	-0.015571	0.000000	0.000007	0.000001	0.000000	0.000000
5.603185	21.101147	13.690171	0.018735	0.144915	3.430073	0.000000	-0.006604	0.000000	0.000007	0.000001	0.000000	0.000000
5.936519	21.093925	13.601848	0.002932	0.120055	3.427872	0.000000	-0.006604	0.000000	0.000008	0.000001	0.000000	0.000000
6.269852	21.097237	13.530098	-0.012870	0.095195	3.425670	0.000000	-0.006604	0.000000	0.000008	0.000001	0.000000	0.000000
6.604435	21.111156	13.474745	-0.028732	0.070243	3.423460	0.000000	-0.006604	0.000000	0.000009	0.000001	0.000000	0.000000
6.901758	21.132433	13.439569	-0.098038	0.083181	3.421496	0.000000	0.002335	0.000000	0.000009	0.000001	0.000000	0.000000
7.450818	20.879964	13.609182	0.555136	-0.393921	3.394579	0.000000	-0.100239	0.000000	0.000009	0.000001	0.000000	0.000000
7.999878	19.927619	14.314952	1.169098	-0.899081	3.311748	0.000000	-0.201035	0.000000	0.000010	0.000001	0.000000	0.000000
8.548938	18.342665	15.607147	1.700481	-1.468280	3.174473	0.000000	-0.298265	0.000000	0.000010	0.000000	0.000000	0.000000
9.097998	16.237057	17.577810	2.111751	-2.142062	2.985188	0.000000	-0.390205	0.000000	0.000010	-0.000000	0.000000	0.000000
9.543958	14.594344	19.333740	1.584888	-1.778710	2.829477	0.000000	-0.308506	0.000000	0.000010	0.000000	0.000000	0.000000
9.984918	13.399638	20.712301	1.134719	-1.335664	2.710683	0.000000	-0.230805	0.000000	0.000010	0.000000	0.000000	0.000000
10.425878	12.577672	21.671738	0.736392	-0.831847	2.625540	0.000000	-0.155732	0.000000	0.000011	0.000001	0.000000	0.000000
10.866838	12.090891	22.168397	0.371708	-0.290181	2.573079	0.000000	-0.082433	0.000000	0.000011	0.000001	0.000000	0.000000
11.309048	11.916923	22.179156	0.053122	0.210244	2.552682	0.000000	-0.016332	0.000000	0.000012	0.000001	0.000000	0.000000
11.606371	11.892773	22.058297	0.028102	0.196246	2.547826	0.000000	-0.016332	0.000000	0.000012	0.000001	0.000000	0.000000
12.086371	11.885183	21.880749	-0.012290	0.173647	2.539986	0.000000	-0.016332	0.000000	0.000013	0.000001	0.000000	0.000000
12.566371	11.916370	21.724895	-0.052683	0.151048	2.532146	0.000000	-0.016332	0.000000	0.000013	0.000001	0.000000	0.000000
13.046371	11.986334	21.590736	-0.093075	0.128450	2.524306	0.000000	-0.016332	0.000000	0.000014	0.000001	0.000000	0.000000
13.526371	12.095075	21.478271	-0.133468	0.105851	2.516465	0.000000	-0.016332	0.000000	0.000015	0.000001	0.000000	0.000000
14.007621	12.243027	21.387293	-0.173965	0.083194	2.508605	0.000000	-0.016332	0.000000	0.000015	0.000001	0.000000	0.000000
14.304943	12.353914	21.341984	-0.168694	0.016867	2.503749	0.000000	-0.022471	0.000000	0.000016	0.000001	0.000000	0.000000
14.745903	12.661172	21.093540	-0.530743	0.544406	2.509468	0.000000	0.048438	0.000000	0.000016	0.000002	0.000000	0.000000
15.186863	13.297174	20.389035	-0.917040	1.047175	2.546547	0.000000	0.119899	0.000000	0.000017	0.000002	0.000000	0.000000
15.627823	14.290977	19.260524	-1.345234	1.502299	2.615407	0.000000	0.192725	0.000000	0.000018	0.000003	0.000000	0.000000
16.068783	15.687985	17.759354	-1.834887	1.889069	2.716834	0.000000	0.267746	0.000000	0.000019	0.000003	0.000000	0.000000
16.514743	17.575685	15.932327	-2.413131	2.190629	2.853677	0.000000	0.346280	0.000000	0.000021	0.000004	0.000000	0.000000
17.063803	20.000277	13.892362	-1.976623	1.546678	3.020080	0.000000	0.258972	0.000000	0.000023	0.000003	0.000000	0.000000
17.612863	21.865562	12.495249	-1.400497	1.012894	3.137212	0.000000	0.167070	0.000000	0.000024	0.000002	0.000000	0.000000
18.161923	23.039784	11.641477	-0.725446	0.551256	3.202997	0.000000	0.072205	0.000000	0.000025	0.000001	0.000000	0.000000
18.710983	23.440002	11.270231	0.000846	0.128882	3.216266	0.000000	-0.023940	0.000000	0.000025	0.000001	0.000000	0.000000
19.009556	23.479878	11.183797	-0.073169	0.131167	3.211626	0.000000	-0.015539	0.000000	0.000026	0.000001	0.000000	0.000000
19.342889	23.533415	11.106459	-0.087442	0.100849	3.206447	0.000000	-0.015539	0.000000	0.000026	0.000001	0.000000	0.000000
19.676223	23.596467	11.049332	-0.101714	0.070531	3.201267	0.000000	-0.015539	0.000000	0.000026	0.000001	0.000000	0.000000
20.010806	23.669617	11.012180	-0.233313	0.094661	3.196087	0.000000	0.000297	0.000000	0.000026	0.000001	0.000000	0.000000
20.308129	23.812293	10.963990	-0.308761	0.096060	3.196175	0.000000	0.008646	0.000000	0.000026	0.000001	0.000000	0.000000
20.857189	23.740636	11.080405	0.438498	-0.309337	3.174711	0.000000	-0.086716	0.000000	0.000027	-0.000000	0.000000	0.000000
21.406249	22.860618	11.651409	1.154785	-0.736768	3.101234	0.000000	-0.180540	0.000000	0.000026	-0.000001	0.000000	0.000000
21.955309	21.234400	12.717675	1.789503	-1.216677	2.977046	0.000000	-0.271161	0.000000	0.000026	-0.000002	0.000000	0.000000
22.504369	18.976849	14.355149	2.297819	-1.783248	2.804351	0.000000	-0.356973	0.000000	0.000024	-0.000003	0.000000	0.000000
22.950329	17.197594	15.825409	1.705980	-1.499685	2.662445	0.000000	-0.279785	0.000000	0.000023	-0.000002	0.000000	0.000000
23.391289	15.922429	16.997720	1.196780	-1.148740	2.555389	0.000000	-0.206238	0.000000	0.000023	-0.000001	0.000000	0.000000
23.832249	15.070622	17.836208	0.742258	-0.745529	2.480216	0.000000	-0.135041	0.000000	0.000022	-0.000001	0.000000	0.000000
24.273209	14.603256	18.302722	0.321647	-0.308396	2.436069	0.000000	-0.065381	0.000000	0.000022	-0.000000	0.000000	0.000000
24.715418	14.499099	18.375791	-0.048807	0.097646	2.422443	0.000000	-0.002405	0.000000	0.000022	0.000000	0.000000	0.000000
25.012741	14.534233	18.322583	-0.069362	0.081312	2.421728	0.000000	-0.002405	0.000000	0.000022	0.000000	0.000000	0.000000
25.346075	14.588156	18.274480	-0.092407	0.062999	2.420926	0.000000	-0.002405	0.000000	0.000022	0.000000	0.000000	0.000000
25.679408	14.657442	18.238585	-0.115451	0.044686	2.420125	0.000000	-0.002405	0.000000	0.000022	0.000000	0.000000	0.000000
26.013991	14.742139	18.215202	-0.018985	-0.121466	2.419295	0.000000	-0.022032	0.000000	0.000022	0.000000	0.000000	0.000000
26.311314	14.759427	18.292356	-0.002973	-0.182878	2.412744	0.000000	-0.027948	0.000000	0.000022	0.000000	0.000000	0.000000
26.752274	14.943872	18.255286	-0.416896	0.266625	2.415526	0.000000	0.040578	0.000000	0.000022	0.000001	0.000000	0.000000
27.193234	15.500352	17.825646	-0.849865	0.703997	2.448598	0.000000	0.109565	0.000000	0.000023	0.000001	0.000000	0.000000
27.634194	16.454291	17.022984	-1.321662	1.109337	2.512336	0.000000	0.179800	0.000000	0.000024	0.000002	0.000000	0.000000
28.075154	17.849270	15.883820	-1.853842	1.464204	2.607466	0.000000	0.252083	0.000000	0.000024	0.000002	0.000000	0.000000
28.521114	19.773255	14.442822	-2.475692	1.753362	2.736675	0.000000	0.327681	0.000000	0.000026	0.000003	0.000000	0.000000
29.070174	22.218635	12.837361	-1.951698	1.187914	2.893934	0.000000	0.244312	0.000000	0.000027	0.000002	0.000000	0.000000
29.619234	24.009037	11.803001	-1.289846	0.707079	3.004160	0.000000	0.156609	0.000000	0.000028	0.000001	0.000000	0.000000
30.168294	25.017995	11.266067	-0.536885	0.276608	3.065399	0.000000	0.066129	0.000000	0.000029	0.000000	0.000000	0.000000
30.717354	25.174242	11.188314	0.253998	-0.134161	3.076563	0.000000	-0.025524	0.000000	0.000029	-0.000001	0.000000	0.000000
31.015927	25.065503	11.259030	0.175958	-0.131915	3.071341	0.000000	-0.017487	0.000000	0.000028	-0.000000	0.000000	0.000000
31.349260	24.952768	11.357014	0.162248	-0.162036	3.065513	0.000000	-0.017487	0.000000	0.000028	-0.000000	0.000000	0.000000
31.682593	24.849173	11.475078	0.148537	-0.192157	3.059684	0.000000	-0.017487	0.000000	0.000028	-0.000000	0.000000	0.000000
32.017177	24.754381	11.613778	0.134776	-0.222391	3.053833	0.000000	-0.017487	0.000000	0.000028	-0.000000	0.000000	0.000000
32.314499	24.677874	11.754010	0.058083	-0.218554	3.048634	0.000000	-0.009524	0.000000	0.000028	-0.000000	0.000000	0.000000
32.863559	24.191248	12.233183	0.822958	-0.659313	3.018532	0.000000	-0.099965	0.000000	0.000027	-0.000001	0.000000	0.000000
33.412619	22.891803	13.219157	1.529703	-1.147034	2.939187	0.000000	-0.188633	0.000000	0.000026	-0.000002	0.000000	0.000000
33.961679	20.871325	14.782159	2.128397	-1.716456	2.812007	0.000000	-0.273956	0.000000	0.000025	-0.000003	0.000000	0.000000
34.510739	18.272530	17.033519	2.576752	-2.408136	2.639246	0.000000	-0.354419	0.000000	0.000023	-0.000004	0.000000	0.000000
34.956699	16.251808	19.047311	1.970653	-2.088644	2.497528	0.000000	-0.281511	0.000000	0.000022	-0.000003	0.000000	0.000000
35.397659	14.744917	20.713207	1.459606	-1.674863	2.388771	0.000000	-0.212238	0.000000	0.000020	-0.000003	0.000000	0.000000
35.838619	13.657730	21.979056	1.015245	-1.184877	2.309999	0.000000	-0.145382	0.000000	0.000019	-0.000002	0.000000	0.000000
36.279579	12.940577	22.787262	0.617268	-0.640980	2.260314	0.000000	-0.080182	0.000000	0.000018	-0.000002	0.000000	0.000000
36.721789	12.559998	23.101364	0.278182	-0.124615	2.239125	0.000000	-0.021385	0.000000	0.000018	-0.000001	0.000000	0.000000
37.019112	12.402162	23.179352	0.252678	-0.137685	2.232767	0.000000	-0.021385	0.000000	0.000017	-0.000001	0.000000	0.000000
37.352445	12.243241	23.276026	0.224085	-0.152339	2.225639	0.000000	-0.021385	0.000000	0.000017	-0.000001	0.000000	0.000000
37.685779	12.103382	23.382470	0.195492	-0.166992	2.218511	0.000000	-0.021385	0.000000	0.000017	-0.000001	0.000000	0.000000
38.020362	11.982168	23.499136	0.166791	-0.181700	2.211356	0.000000	-0.021385	0.000000	0.000016	-0.000001	0.000000	0.000000
38.317684	11.890569	23.611069	0.170442	-0.252663	2.204998	0.000000	-0.026792	0.000000	0.000016	-0.000001	0.000000	0.000000
38.758644	11.891814	23.572361	-0.173276	0.340110	2.207108	0.000000	0.036369	0.000000	0.000015	-0.000001	0.000000	0.000000
39.199604	12.198523	23.015727	-0.524910	0.917409	2.237134	0.000000	0.099944	0.000000	0.000015	-0.000000	0.000000	0.000000
39.640564	12.824707	21.966493	-0.900526	1.452967	2.295419	0.000000	0.164658	0.000000	0.000015	-0.000000	0.000000	0.000000
40.081524	13.798978	20.472399	-1.317285	1.922415	2.382625	0.000000	0.231247	0.000000	0.000015	0.000000	0.000000	0.000000
40.527484	15.183422	18.578845	-1.798054	2.305682	2.501217	0.000000	0.300874	0.000000	0.000015	0.000001	0.000000	0.000000
41.076544	16.950013	16.450891	-1.400382	1.592826	2.645891	0.000000	0.225338	0.000000	0.000016	0.000000	0.000000	0.000000
41.625604	18.222677	15.039217	-0.903793	0.993423	2.747932	0.000000	0.145806	0.000000	0.000016	-0.000000	0.000000	0.000000
42.174664	18.911518	14.243275	-0.343364	0.464779	2.805529	0.000000	0.063687	0.000000	0.000015	-0.000001	0.000000	0.000000
42.723724	18.967882	14.006371	0.241318	-0.030759	2.817660	0.000000	-0.019562	0.000000	0.000015	-0.000001	0.000000	0.000000
43.022297	18.858243	14.009253	0.175444	-0.015485	2.814018	0.000000	-0.012201	0.000000	0.000014	-0.000001	0.000000	0.000000
43.502297	18.702410	14.040569	0.149208	-0.049756	2.808162	0.000000	-0.012201	0.000000	0.000014	-0.000001	0.000000	0.000000
43.982297	18.571764	14.104785	0.122971	-0.084028	2.802306	0.000000	-0.012201	0.000000	0.000013	-0.000001	0.000000	0.000000
44.462297	18.466305	14.201902	0.096735	-0.118299	2.796450	0.000000	-0.012201	0.000000	0.000013	-0.000001	0.000000	0.000000
44.942297	18.386034	14.331919	0.070498	-0.152570	2.790595	0.000000	-0.012201	0.000000	0.000012	-0.000001	0.000000	0.000000
45.423547	18.331065	14.495124	-0.046629	-0.115113	2.784741	0.000000	0.001596	0.000000	0.000011	-0.000001	0.000000	0.000000
45.720870	18.363626	14.569755	-0.110860	-0.097832	2.785216	0.000000	0.008873	0.000000	0.000011	-0.000001	0.000000	0.000000
46.269930	18.176167	14.958914	0.450257	-0.615124	2.767521	0.000000	-0.073234	0.000000	0.000010	-0.000001	0.000000	0.000000
46.818990	17.386431	15.936702	0.979570	-1.176229	2.705036	0.000000	-0.154043	0.000000	0.000009	-0.000002	0.000000	0.000000
47.368050	16.050201	17.572766	1.439691	-1.821114	2.598868	0.000000	-0.232119	0.000000	0.000008	-0.000002	0.000000	0.000000
47.917110	14.261862	19.983638	1.798119	-2.595713	2.450900	0.000000	-0.306078	0.000000	0.000007	-0.000002	0.000000	0.000000
48.363070	12.870278	22.127027	1.333361	-2.190316	2.329692	0.000000	-0.237789	0.000000	0.000006	-0.000002	0.000000	0.000000
48.804030	11.874553	23.843095	0.933290	-1.686538	2.239295	0.000000	-0.172606	0.000000	0.000005	-0.000002	0.000000	0.000000
49.244990	11.211594	25.079207	0.575858	-1.106024	2.177181	0.000000	-0.109389	0.000000	0.000004	-0.000002	0.000000	0.000000
49.685950	10.851112	25.779121	0.244736	-0.475187	2.142642	0.000000	-0.047417	0.000000	0.000003	-0.000002	0.000000	0.000000
50.128160	10.776760	25.910707	-0.048894	0.113683	2.135296	0.000000	0.008778	0.000000	0.000003	-0.000002	0.000000	0.000000
50.425482	10.814057	25.846562	-0.076549	0.102060	2.137906	0.000000	0.008778	0.000000	0.000002	-0.000002	0.000000	0.000000
50.758816	10.875425	25.782865	-0.107554	0.089029	2.140833	0.000000	0.008778	0.000000	0.000002	-0.000002	0.000000	0.000000
51.092149	10.957462	25.727856	-0.138559	0.075998	2.143759	0.000000	0.008778	0.000000	0.000001	-0.000002	0.000000	0.000000
51.426732	11.060369	25.681898	-0.079951	-0.145426	2.146675	0.000000	-0.008638	0.000000	0.000000	-0.000002	0.000000	0.000000
51.724055	11.115955	25.771890	-0.079745	-0.220449	2.144107	0.000000	-0.013896	0.000000	-0.000000	-0.000002	0.000000	0.000000
52.165015	11.331453	25.679562	-0.410810	0.429031	2.151568	0.000000	0.047765	0.000000	-0.000001	-0.000002	0.000000	0.000000
52.605975	11.846064	25.020897	-0.760644	1.058991	2.186313	0.000000	0.109969	0.000000	-0.000002	-0.000002	0.000000	0.000000
53.046935	12.683302	23.825865	-1.145230	1.640767	2.248737	0.000000	0.173425	0.000000	-0.000002	-0.000002	0.000000	0.000000
53.487895	13.881416	22.148838	-1.582137	2.147889	2.339551	0.000000	0.238857	0.000000	-0.000003	-0.000002	0.000000	0.000000
53.933855	15.515687	20.041047	-2.095553	2.558623	2.461295	0.000000	0.307408	0.000000	-0.000004	-0.000002	0.000000	0.000000
54.482915	17.619824	17.669179	-1.714017	1.786746	2.609902	0.000000	0.233102	0.000000	-0.000005	-0.000002	0.000000	0.000000
55.031975	19.235625	16.070484	-1.211413	1.142135	2.716512	0.000000	0.154662	0.000000	-0.000006	-0.000002	0.000000	0.000000
55.581035	20.248957	15.131091	-0.623240	0.578876	2.779236	0.000000	0.073478	0.000000	-0.000007	-0.000001	0.000000	0.000000
56.130095	20.588244	14.784088	0.008955	0.056849	2.796962	0.000000	-0.009010	0.000000	-0.000008	-0.000001	0.000000	0.000000
56.428668	20.619360	14.733158	-0.059373	0.075100	2.796454	0.000000	-0.001701	0.000000	-0.000008	-0.000001	0.000000	0.000000
56.762001	20.664349	14.690676	-0.075596	0.052347	2.795887	0.000000	-0.001701	0.000000	-0.000009	-0.000001	0.000000	0.000000
57.095334	20.720154	14.663362	-0.091819	0.029595	2.795321	0.000000	-0.001701	0.000000	-0.000009	-0.000001	0.000000	0.000000
57.429918	20.787044	14.651198	-0.108103	0.006758	2.794752	0.000000	-0.001701	0.000000	-0.000009	-0.000001	0.000000	0.000000
57.727240	20.855630	14.653214	-0.177069	0.024752	2.794246	0.000000	0.005600	0.000000	-0.000010	-0.000001	0.000000	0.000000
58.276300	20.694312	14.907348	0.469136	-0.490337	2.774680	0.000000	-0.076769	0.000000	-0.000010	-0.000001	0.000000	0.000000
58.825360	19.837461	15.742856	1.082204	-1.040351	2.710196	0.000000	-0.157777	0.000000	-0.000011	-0.000001	0.000000	0.000000
59.374420	18.345599	17.219249	1.618831	-1.664468	2.601937	0.000000	-0.235986	0.000000	-0.000011	-0.000000	0.000000	0.000000
59.923480	16.324105	19.441687	2.041112	-2.407141	2.451823	0.000000	-0.310010	0.000000	-0.000011	0.000000	0.000000	0.000000
60.369440	14.741946	21.416961	1.519212	-2.003425	2.328863	0.000000	-0.241720	0.000000	-0.000011	-0.000000	0.000000	0.000000
60.810400	13.604118	22.972129	1.070920	-1.509932	2.236724	0.000000	-0.176581	0.000000	-0.000011	-0.000000	0.000000	0.000000
61.251360	12.838660	24.060003	0.671555	-0.947739	2.172838	0.000000	-0.113453	0.000000	-0.000011	-0.000001	0.000000	0.000000
61.692320	12.410601	24.631087	0.302871	-0.342424	2.136478	0.000000	-0.051617	0.000000	-0.000012	-0.000001	0.000000	0.000000
62.134530	12.300439	24.658851	-0.021909	0.217938	2.127236	0.000000	0.004414	0.000000	-0.000012	-0.000001	0.000000	0.000000
62.431853	12.320657	24.533010	-0.046092	0.205308	2.128548	0.000000	0.004414	0.000000	-0.000013	-0.000001	0.000000	0.000000
62.765186	12.360423	24.400858	-0.073205	0.191148	2.130020	0.000000	0.004414	0.000000	-0.000013	-0.000001	0.000000	0.000000
63.098520	12.418263	24.278145	-0.100317	0.176989	2.131492	0.000000	0.004414	0.000000	-0.000014	-0.000001	0.000000	0.000000
63.433103	12.494497	24.164466	-0.127531	0.162776	2.132969	0.000000	0.004414	0.000000	-0.000014	-0.000001	0.000000	0.000000
63.730426	12.577523	24.071427	-0.120866	0.091107	2.134282	0.000000	-0.000821	0.000000	-0.000015	-0.000001	0.000000	0.000000
64.171386	12.844330	23.725995	-0.486489	0.689276	2.147463	0.000000	0.060659	0.000000	-0.000015	-0.000002	0.000000	0.000000
64.612346	13.442132	22.864893	-0.874338	1.256084	2.187881	0.000000	0.122831	0.000000	-0.000016	-0.000002	0.000000	0.000000
65.053306	14.398241	21.527299	-1.302133	1.765741	2.255997	0.000000	0.186401	0.000000	-0.000017	-0.000003	0.000000	0.000000
65.494266	15.756339	19.774074	-1.789419	2.195058	2.352586	0.000000	0.252095	0.000000	-0.000018	-0.000003	0.000000	0.000000
65.940226	17.601636	17.660186	-2.363149	2.525253	2.480320	0.000000	0.321061	0.000000	-0.000020	-0.000003	0.000000	0.000000
66.489286	19.967294	15.295482	-1.919909	1.806992	2.636233	0.000000	0.246021	0.000000	-0.000021	-0.000003	0.000000	0.000000
67.038346	21.768419	13.644632	-1.341056	1.217440	2.749682	0.000000	0.166616	0.000000	-0.000023	-0.000002	0.000000	0.000000
67.587406	22.877791	12.590050	-0.667477	0.714603	2.818656	0.000000	0.084256	0.000000	-0.000024	-0.000001	0.000000	0.000000
68.136466	23.217047	12.056619	0.053248	0.262666	2.841932	0.000000	0.000402	0.000000	-0.000024	-0.000001	0.000000	0.000000
68.435038	23.225322	11.888988	-0.020287	0.267267	2.844270	0.000000	0.007829	0.000000	-0.000024	-0.000001	0.000000	0.000000
68.768372	23.243632	11.720824	-0.034645	0.237227	2.846879	0.000000	0.007829	0.000000	-0.000025	-0.000001	0.000000	0.000000
69.101705	23.271515	11.572686	-0.049003	0.207187	2.849489	0.000000	0.007829	0.000000	-0.000025	-0.000001	0.000000	0.000000
69.436288	23.309128	11.444132	-0.063415	0.177035	2.852108	0.000000	0.007829	0.000000	-0.000025	-0.000001	0.000000	0.000000
69.733611	23.350645	11.346825	-0.137245	0.179893	2.854436	0.000000	0.015288	0.000000	-0.000025	-0.000001	0.000000	0.000000
70.282671	23.100310	11.376585	0.590480	-0.234415	2.839639	0.000000	-0.069109	0.000000	-0.000025	0.000000	0.000000	0.000000
