#ParticleID	Turn	x[m]	xp	y[m]	yp	z[m]	dE[GeV]# s	beta_x	beta_y	alpha_x	alpha_y	D_x	D_y	D_px	D_py	orbit_x	orbit_px	orbit_y	orbit_py
0.300000	11.806458	25.047222	-0.010349	-0.026923	2.618238	0.000000	-0.000037	0.000000	-0.000001	0.000002	0.000000	0.000000
0.601250	11.820380	25.067069	-0.035868	-0.038959	2.618227	0.000000	-0.000037	0.000000	-0.000001	0.000002	0.000000	0.000000
0.898573	11.849197	25.093767	-0.031996	-0.112375	2.618215	0.000000	-0.006458	0.000000	-0.000000	0.000002	0.000000	0.000000
1.339533	12.029458	24.914500	-0.378346	0.517367	2.631661	0.000000	0.067502	0.000000	0.000001	0.000002	0.000000	0.000000
1.780493	12.521610	24.188150	-0.741981	1.123568	2.677858	0.000000	0.142230	0.000000	0.000001	0.000002	0.000000	0.000000
2.221453	13.348140	22.947764	-1.139515	1.678649	2.757332	0.000000	0.218578	0.000000	0.000002	0.000002	0.000000	0.000000
2.662413	14.546807	21.249780	-1.589111	2.157352	2.870990	0.000000	0.297416	0.000000	0.000003	0.000002	0.000000	0.000000
3.108373	16.193103	19.146555	-2.115595	2.539030	3.021986	0.000000	0.380131	0.000000	0.000004	0.000002	0.000000	0.000000
3.657433	18.304234	16.784281	-1.706635	1.788761	3.205428	0.000000	0.287094	0.000000	0.000005	0.000002	0.000000	0.000000
4.206493	19.897021	15.171514	-1.177126	1.165902	3.336312	0.000000	0.188964	0.000000	0.000006	0.000002	0.000000	0.000000
4.755553	20.858957	14.193378	-0.564472	0.626087	3.412316	0.000000	0.087482	0.000000	0.000006	0.000001	0.000000	0.000000
5.304613	21.122097	13.780204	0.088054	0.130867	3.432092	0.000000	-0.015551	0.000000	0.000007	0.000001	0.000000	0.000000
5.603185	21.106694	13.687208	0.018719	0.144599	3.430126	0.000000	-0.006584	0.000000	0.000007	0.000001	0.000000	0.000000
5.936519	21.099481	13.599096	0.002920	0.119736	3.427931	0.000000	-0.006584	0.000000	0.000008	0.000001	0.000000	0.000000
6.269852	21.102800	13.527560	-0.012878	0.094874	3.425736	0.000000	-0.006584	0.000000	0.000008	0.000001	0.000000	0.000000
6.604435	21.116723	13.472423	-0.028735	0.069917	3.423533	0.000000	-0.006584	0.000000	0.000009	0.000001	0.000000	0.000000
6.901758	21.138000	13.437441	-0.098053	0.082848	3.421575	0.000000	0.002356	0.000000	0.000009	0.000001	0.000000	0.000000
7.450818	20.885445	13.607389	0.555307	-0.394201	3.394668	0.000000	-0.100221	0.000000	0.000010	0.000001	0.000000	0.000000
7.999878	19.932816	14.313447	1.169442	-0.899328	3.311846	0.000000	-0.201020	0.000000	0.000010	0.000001	0.000000	0.000000
8.548938	18.347400	15.605904	1.700974	-1.468512	3.174578	0.000000	-0.298254	0.000000	0.000010	0.000000	0.000000	0.000000
9.097998	16.241184	17.576819	2.112358	-2.142294	2.985298	0.000000	-0.390197	0.000000	0.000010	-0.000000	0.000000	0.000000
9.543958	14.597987	19.332981	1.585369	-1.778996	2.829592	0.000000	-0.308495	0.000000	0.000010	0.000000	0.000000	0.000000
9.984918	13.402905	20.711812	1.135096	-1.335989	2.710803	0.000000	-0.230791	0.000000	0.000010	0.000000	0.000000	0.000000
10.425878	12.580645	21.671547	0.736683	-0.832197	2.625667	0.000000	-0.155715	0.000000	0.000011	0.000001	0.000000	0.000000
10.866838	12.093640	22.168521	0.371926	-0.290540	2.573214	0.000000	-0.082413	0.000000	0.000011	0.000001	0.000000	0.000000
11.309048	11.919508	22.179594	0.053284	0.209891	2.552826	0.000000	-0.016309	0.000000	0.000011	0.000001	0.000000	0.000000
11.606371	11.895261	22.058945	0.028269	0.195895	2.547977	0.000000	-0.016309	0.000000	0.000012	0.000001	0.000000	0.000000
12.086371	11.887507	21.881731	-0.012116	0.173300	2.540148	0.000000	-0.016309	0.000000	0.000012	0.000001	0.000000	0.000000
12.566371	11.918523	21.726208	-0.052500	0.150705	2.532319	0.000000	-0.016309	0.000000	0.000013	0.000001	0.000000	0.000000
13.046371	11.988307	21.592377	-0.092885	0.128110	2.524491	0.000000	-0.016309	0.000000	0.000014	0.000001	0.000000	0.000000
13.526371	12.096861	21.480236	-0.133269	0.105516	2.516662	0.000000	-0.016309	0.000000	0.000014	0.000001	0.000000	0.000000
14.007621	12.244618	21.389580	-0.173759	0.082862	2.508813	0.000000	-0.016309	0.000000	0.000015	0.000001	0.000000	0.000000
14.304943	12.355380	21.344468	-0.168479	0.016531	2.503963	0.000000	-0.022448	0.000000	0.000015	0.000001	0.000000	0.000000
14.745903	12.662461	21.096288	-0.530554	0.544144	2.509694	0.000000	0.048467	0.000000	0.000016	0.000002	0.000000	0.000000
15.186863	13.298304	20.391977	-0.916868	1.046999	2.546786	0.000000	0.119933	0.000000	0.000017	0.000002	0.000000	0.000000
15.627823	14.291960	19.263581	-1.345072	1.502217	2.615664	0.000000	0.192766	0.000000	0.000018	0.000002	0.000000	0.000000
16.068783	15.688826	17.762440	-1.834728	1.889084	2.717111	0.000000	0.267794	0.000000	0.000019	0.000003	0.000000	0.000000
16.514743	17.576382	15.935355	-2.412965	2.190743	2.853976	0.000000	0.346335	0.000000	0.000020	0.000003	0.000000	0.000000
17.063803	20.000765	13.895306	-1.976409	1.546718	3.020407	0.000000	0.259017	0.000000	0.000022	0.000003	0.000000	0.000000
17.612863	21.865793	12.498189	-1.400248	1.012863	3.137561	0.000000	0.167104	0.000000	0.000023	0.000002	0.000000	0.000000
18.161923	23.039732	11.644490	-0.725181	0.551152	3.203361	0.000000	0.072228	0.000000	0.000024	0.000001	0.000000	0.000000
18.710983	23.439658	11.273402	0.001110	0.128698	3.216639	0.000000	-0.023930	0.000000	0.000025	0.000000	0.000000	0.000000
19.009556	23.479376	11.187071	-0.072905	0.131000	3.212003	0.000000	-0.015527	0.000000	0.000025	0.000001	0.000000	0.000000
19.342889	23.532737	11.109840	-0.087177	0.100692	3.206827	0.000000	-0.015527	0.000000	0.000025	0.000001	0.000000	0.000000
19.676223	23.595612	11.052815	-0.101450	0.070385	3.201652	0.000000	-0.015527	0.000000	0.000025	0.000001	0.000000	0.000000
20.010806	23.668585	11.015757	-0.233043	0.094542	3.196476	0.000000	0.000310	0.000000	0.000025	0.000001	0.000000	0.000000
20.308129	23.811101	10.967635	-0.308488	0.095961	3.196568	0.000000	0.008661	0.000000	0.000026	0.000001	0.000000	0.000000
20.857189	23.739166	11.084216	0.438727	-0.309541	3.175109	0.000000	-0.086714	0.000000	0.000026	-0.000000	0.000000	0.000000
21.406249	22.858930	11.655507	1.154952	-0.737091	3.101628	0.000000	-0.180551	0.000000	0.000025	-0.000001	0.000000	0.000000
21.955309	21.232567	12.722203	1.789597	-1.217142	2.977431	0.000000	-0.271185	0.000000	0.000025	-0.000002	0.000000	0.000000
22.504369	18.974957	14.360280	2.297833	-1.783888	2.804720	0.000000	-0.357009	0.000000	0.000024	-0.000003	0.000000	0.000000
22.950329	17.195675	15.831058	1.706028	-1.500202	2.662800	0.000000	-0.279811	0.000000	0.000023	-0.000002	0.000000	0.000000
23.391289	15.920453	17.003762	1.196864	-1.149111	2.555735	0.000000	-0.206256	0.000000	0.000022	-0.000001	0.000000	0.000000
23.832249	15.068555	17.842506	0.742380	-0.745736	2.480556	0.000000	-0.135049	0.000000	0.000021	-0.000001	0.000000	0.000000
24.273209	14.601061	18.309128	0.321814	-0.308431	2.436407	0.000000	-0.065381	0.000000	0.000021	-0.000000	0.000000	0.000000
24.715418	14.496734	18.382152	-0.048592	0.097769	2.422783	0.000000	-0.002397	0.000000	0.000021	0.000000	0.000000	0.000000
25.012741	14.531741	18.328869	-0.069151	0.081440	2.422071	0.000000	-0.002397	0.000000	0.000021	0.000000	0.000000	0.000000
25.346075	14.585524	18.280678	-0.092199	0.063133	2.421271	0.000000	-0.002397	0.000000	0.000021	0.000000	0.000000	0.000000
25.679408	14.654673	18.244692	-0.115247	0.044826	2.420472	0.000000	-0.002397	0.000000	0.000021	0.000000	0.000000	0.000000
26.013991	14.739233	18.221214	-0.018807	-0.121369	2.419646	0.000000	-0.022027	0.000000	0.000021	0.000000	0.000000	0.000000
26.311314	14.756416	18.298308	-0.002806	-0.182791	2.413097	0.000000	-0.027943	0.000000	0.000021	0.000000	0.000000	0.000000
26.752274	14.940682	18.261090	-0.416653	0.266872	2.415882	0.000000	0.040591	0.000000	0.000022	0.000001	0.000000	0.000000
27.193234	15.496910	17.831165	-0.849535	0.704393	2.448962	0.000000	0.109588	0.000000	0.000022	0.000001	0.000000	0.000000
27.634194	16.450513	17.028094	-1.321230	1.109864	2.512712	0.000000	0.179833	0.000000	0.000023	0.000002	0.000000	0.000000
28.075154	17.845059	15.888417	-1.853288	1.464837	2.607859	0.000000	0.252125	0.000000	0.000023	0.000002	0.000000	0.000000
28.521114	19.768485	14.446817	-2.474989	1.754073	2.737089	0.000000	0.327733	0.000000	0.000025	0.000003	0.000000	0.000000
29.070174	22.213160	12.840666	-1.951124	1.188468	2.894373	0.000000	0.244351	0.000000	0.000026	0.000002	0.000000	0.000000
29.619234	24.003022	11.805767	-1.289442	0.707515	3.004617	0.000000	0.156634	0.000000	0.000027	0.000001	0.000000	0.000000
30.168294	25.011643	11.268405	-0.536679	0.276956	3.065864	0.000000	0.066139	0.000000	0.000027	0.000000	0.000000	0.000000
30.717354	25.167780	11.190305	0.253992	-0.133875	3.077029	0.000000	-0.025530	0.000000	0.000027	-0.000001	0.000000	0.000000
31.015927	25.059036	11.260846	0.175964	-0.131617	3.071807	0.000000	-0.017492	0.000000	0.000027	-0.000000	0.000000	0.000000
31.349260	24.946298	11.358628	0.162251	-0.161731	3.065976	0.000000	-0.017492	0.000000	0.000027	-0.000000	0.000000	0.000000
31.682593	24.842702	11.476487	0.148537	-0.191845	3.060146	0.000000	-0.017492	0.000000	0.000027	-0.000000	0.000000	0.000000
32.017177	24.747912	11.614976	0.134772	-0.222071	3.054294	0.000000	-0.017492	0.000000	0.000027	-0.000000	0.000000	0.000000
32.314499	24.671408	11.755016	0.058092	-0.218225	3.049093	0.000000	-0.009527	0.000000	0.000027	-0.000000	0.000000	0.000000
32.863559	24.184890	12.233836	0.822754	-0.658995	3.018986	0.000000	-0.099983	0.000000	0.000026	-0.000001	0.000000	0.000000
33.412619	22.885780	13.219455	1.529300	-1.146703	2.939627	0.000000	-0.188666	0.000000	0.000025	-0.000002	0.000000	0.000000
33.961679	20.865840	14.782076	2.127825	-1.716088	2.812425	0.000000	-0.274002	0.000000	0.000024	-0.000003	0.000000	0.000000
34.510739	18.267749	17.033001	2.576050	-2.407707	2.639636	0.000000	-0.354478	0.000000	0.000022	-0.000004	0.000000	0.000000
34.956699	16.247585	19.046397	1.970099	-2.088189	2.497893	0.000000	-0.281561	0.000000	0.000021	-0.000003	0.000000	0.000000
35.397659	14.741127	20.711889	1.459175	-1.674405	2.389116	0.000000	-0.212279	0.000000	0.000019	-0.000003	0.000000	0.000000
35.838619	13.654274	21.977339	1.014916	-1.184436	2.310327	0.000000	-0.145414	0.000000	0.000018	-0.000002	0.000000	0.000000
36.279579	12.937372	22.785170	0.617026	-0.640576	2.260631	0.000000	-0.080206	0.000000	0.000018	-0.000002	0.000000	0.000000
36.721789	12.556972	23.098938	0.278009	-0.124261	2.239433	0.000000	-0.021401	0.000000	0.000017	-0.000001	0.000000	0.000000
37.019112	12.399239	23.176715	0.252501	-0.137331	2.233070	0.000000	-0.021401	0.000000	0.000017	-0.000001	0.000000	0.000000
37.352445	12.240437	23.273154	0.223904	-0.151985	2.225937	0.000000	-0.021401	0.000000	0.000016	-0.000001	0.000000	0.000000
37.685779	12.100701	23.379361	0.195307	-0.166638	2.218804	0.000000	-0.021401	0.000000	0.000016	-0.000001	0.000000	0.000000
38.020362	11.979612	23.495791	0.166602	-0.181346	2.211643	0.000000	-0.021401	0.000000	0.000015	-0.000001	0.000000	0.000000
38.317684	11.888127	23.607514	0.170243	-0.252302	2.205281	0.000000	-0.026809	0.000000	0.000015	-0.000001	0.000000	0.000000
38.758644	11.889523	23.568530	-0.173421	0.340373	2.207385	0.000000	0.036359	0.000000	0.000015	-0.000001	0.000000	0.000000
39.199604	12.196339	23.011713	-0.525009	0.917560	2.237408	0.000000	0.099942	0.000000	0.000014	-0.000000	0.000000	0.000000
39.640564	12.822592	21.962397	-0.900582	1.453000	2.295693	0.000000	0.164662	0.000000	0.000014	-0.000000	0.000000	0.000000
40.081524	13.796893	20.468326	-1.317301	1.922329	2.382902	0.000000	0.231258	0.000000	0.000014	0.000000	0.000000	0.000000
40.527484	15.181334	18.574902	-1.798031	2.305480	2.501502	0.000000	0.300893	0.000000	0.000015	0.000001	0.000000	0.000000
41.076544	16.947947	16.447109	-1.400444	1.592732	2.646183	0.000000	0.225348	0.000000	0.000015	0.000000	0.000000	0.000000
41.625604	18.220724	15.035482	-0.903936	0.993432	2.748226	0.000000	0.145806	0.000000	0.000015	-0.000000	0.000000	0.000000
42.174664	18.909763	14.239473	-0.343578	0.464892	2.805821	0.000000	0.063677	0.000000	0.000014	-0.000001	0.000000	0.000000
42.723724	18.966393	14.002384	0.241048	-0.030535	2.817945	0.000000	-0.019581	0.000000	0.000014	-0.000001	0.000000	0.000000
43.022297	18.856914	14.005141	0.175178	-0.015278	2.814297	0.000000	-0.012219	0.000000	0.000013	-0.000001	0.000000	0.000000
43.502297	18.701336	14.036262	0.148942	-0.049559	2.808432	0.000000	-0.012219	0.000000	0.000013	-0.000001	0.000000	0.000000
43.982297	18.570945	14.100293	0.122706	-0.083840	2.802568	0.000000	-0.012219	0.000000	0.000012	-0.000001	0.000000	0.000000
44.462297	18.465740	14.197234	0.096470	-0.118121	2.796703	0.000000	-0.012219	0.000000	0.000012	-0.000001	0.000000	0.000000
44.942297	18.385722	14.327085	0.070234	-0.152402	2.790839	0.000000	-0.012219	0.000000	0.000011	-0.000001	0.000000	0.000000
45.423547	18.331007	14.490134	-0.046892	-0.114979	2.784976	0.000000	0.001579	0.000000	0.000011	-0.000001	0.000000	0.000000
45.720870	18.363725	14.564687	-0.111124	-0.097718	2.785446	0.000000	0.008857	0.000000	0.000010	-0.000001	0.000000	0.000000
46.269930	18.176551	14.953635	0.450004	-0.614853	2.767740	0.000000	-0.073258	0.000000	0.000010	-0.000001	0.000000	0.000000
46.818990	17.387079	15.931032	0.979345	-1.175781	2.705240	0.000000	-0.154073	0.000000	0.000009	-0.000002	0.000000	0.000000
47.368050	16.051072	17.566493	1.439511	-1.820459	2.599053	0.000000	-0.232155	0.000000	0.000008	-0.000002	0.000000	0.000000
47.917110	14.262901	19.976511	1.797997	-2.594803	2.451064	0.000000	-0.306120	0.000000	0.000007	-0.000002	0.000000	0.000000
48.363070	12.871428	22.119157	1.333232	-2.189568	2.329838	0.000000	-0.237828	0.000000	0.000006	-0.000002	0.000000	0.000000
48.804030	11.875822	23.834649	0.933148	-1.685985	2.239425	0.000000	-0.172641	0.000000	0.000005	-0.000002	0.000000	0.000000
49.244990	11.212995	25.070369	0.575698	-1.105691	2.177296	0.000000	-0.109421	0.000000	0.000004	-0.000002	0.000000	0.000000
49.685950	10.852665	25.770093	0.244550	-0.475090	2.142744	0.000000	-0.047446	0.000000	0.000003	-0.000002	0.000000	0.000000
50.128160	10.778493	25.901700	-0.049111	0.113562	2.135385	0.000000	0.008751	0.000000	0.000002	-0.000002	0.000000	0.000000
50.425482	10.815917	25.837628	-0.076762	0.101935	2.137988	0.000000	0.008751	0.000000	0.000002	-0.000002	0.000000	0.000000
50.758816	10.877426	25.774016	-0.107762	0.088900	2.140905	0.000000	0.008751	0.000000	0.000001	-0.000002	0.000000	0.000000
51.092149	10.959601	25.719095	-0.138763	0.075865	2.143823	0.000000	0.008751	0.000000	0.000001	-0.000002	0.000000	0.000000
51.426732	11.062643	25.673227	-0.080132	-0.145493	2.146729	0.000000	-0.008665	0.000000	0.000000	-0.000002	0.000000	0.000000
51.724055	11.118335	25.763260	-0.079915	-0.220499	2.144154	0.000000	-0.013923	0.000000	-0.000000	-0.000002	0.000000	0.000000
52.165015	11.334008	25.671077	-0.411039	0.428754	2.151603	0.000000	0.047738	0.000000	-0.000001	-0.000002	0.000000	0.000000
52.605975	11.848851	25.012753	-0.760942	1.058499	2.186336	0.000000	0.109943	0.000000	-0.000002	-0.000002	0.000000	0.000000
53.046935	12.686386	23.818240	-1.145609	1.640083	2.248749	0.000000	0.173400	0.000000	-0.000003	-0.000002	0.000000	0.000000
53.487895	13.884878	22.141889	-1.582617	2.147045	2.339553	0.000000	0.238832	0.000000	-0.000003	-0.000002	0.000000	0.000000
53.933855	15.519629	20.034910	-2.096155	2.557656	2.461286	0.000000	0.307383	0.000000	-0.000004	-0.000002	0.000000	0.000000
54.482915	17.624373	17.663968	-1.714513	1.786018	2.609878	0.000000	0.233078	0.000000	-0.000005	-0.000002	0.000000	0.000000
55.031975	19.240642	16.065966	-1.211766	1.141594	2.716476	0.000000	0.154638	0.000000	-0.000006	-0.000002	0.000000	0.000000
55.581035	20.254273	15.127082	-0.623426	0.578483	2.779187	0.000000	0.073456	0.000000	-0.000007	-0.000001	0.000000	0.000000
56.130095	20.593666	14.780443	0.008949	0.056576	2.796901	0.000000	-0.009030	0.000000	-0.000008	-0.000001	0.000000	0.000000
56.428668	20.624793	14.729682	-0.059389	0.074814	2.796387	0.000000	-0.001722	0.000000	-0.000008	-0.000001	0.000000	0.000000
56.762001	20.669792	14.687392	-0.075608	0.052057	2.795814	0.000000	-0.001722	0.000000	-0.000009	-0.000001	0.000000	0.000000
57.095334	20.725604	14.660272	-0.091827	0.029301	2.795240	0.000000	-0.001722	0.000000	-0.000009	-0.000001	0.000000	0.000000
57.429918	20.792498	14.648308	-0.108107	0.006459	2.794665	0.000000	-0.001722	0.000000	-0.000009	-0.000001	0.000000	0.000000
57.727240	20.861084	14.650502	-0.177084	0.024442	2.794153	0.000000	0.005580	0.000000	-0.000010	-0.000001	0.000000	0.000000
58.276300	20.699682	14.904936	0.469304	-0.490576	2.774576	0.000000	-0.076787	0.000000	-0.000010	-0.000001	0.000000	0.000000
58.825360	19.842552	15.740675	1.082542	-1.040536	2.710083	0.000000	-0.157791	0.000000	-0.000011	-0.000001	0.000000	0.000000
59.374420	18.350238	17.217248	1.619314	-1.664612	2.601817	0.000000	-0.235997	0.000000	-0.000011	-0.000000	0.000000	0.000000
59.923480	16.328147	19.439827	2.041707	-2.407255	2.451700	0.000000	-0.310016	0.000000	-0.000011	0.000000	0.000000	0.000000
60.369440	14.745514	21.415236	1.519684	-2.003611	2.328736	0.000000	-0.241730	0.000000	-0.000011	-0.000000	0.000000	0.000000
60.810400	13.607316	22.970597	1.071291	-1.510182	2.236591	0.000000	-0.176594	0.000000	-0.000011	-0.000000	0.000000	0.000000
61.251360	12.841570	24.058716	0.671841	-0.948041	2.172699	0.000000	-0.113470	0.000000	-0.000011	-0.000001	0.000000	0.000000
61.692320	12.413290	24.630084	0.303087	-0.342765	2.136332	0.000000	-0.051637	0.000000	-0.000012	-0.000001	0.000000	0.000000
62.134530	12.302964	24.658161	-0.021748	0.217576	2.127079	0.000000	0.004390	0.000000	-0.000012	-0.000001	0.000000	0.000000
62.431853	12.323086	24.532535	-0.045927	0.204948	2.128385	0.000000	0.004390	0.000000	-0.000013	-0.000001	0.000000	0.000000
62.765186	12.362739	24.400622	-0.073033	0.190790	2.129849	0.000000	0.004390	0.000000	-0.000013	-0.000001	0.000000	0.000000
63.098520	12.420463	24.278148	-0.100140	0.176632	2.131313	0.000000	0.004390	0.000000	-0.000013	-0.000001	0.000000	0.000000
63.433103	12.496577	24.164707	-0.127348	0.162420	2.132782	0.000000	0.004390	0.000000	-0.000014	-0.000001	0.000000	0.000000
63.730426	12.579493	24.071880	-0.120673	0.090752	2.134088	0.000000	-0.000844	0.000000	-0.000014	-0.000001	0.000000	0.000000
64.171386	12.846148	23.726752	-0.486336	0.688943	2.147257	0.000000	0.060631	0.000000	-0.000015	-0.000002	0.000000	0.000000
64.612346	13.443829	22.865929	-0.874217	1.255787	2.187662	0.000000	0.122797	0.000000	-0.000016	-0.000002	0.000000	0.000000
65.053306	14.399844	21.528576	-1.302040	1.765494	2.255762	0.000000	0.186362	0.000000	-0.000017	-0.000002	0.000000	0.000000
65.494266	15.757870	19.775542	-1.789348	2.194872	2.352332	0.000000	0.252049	0.000000	-0.000018	-0.000003	0.000000	0.000000
65.940226	17.603112	17.661789	-2.363098	2.525137	2.480045	0.000000	0.321009	0.000000	-0.000019	-0.000003	0.000000	0.000000
66.489286	19.968675	15.297221	-1.919787	1.806860	2.635930	0.000000	0.245977	0.000000	-0.000021	-0.000003	0.000000	0.000000
67.038346	21.769632	13.646531	-1.340873	1.217281	2.749358	0.000000	0.166583	0.000000	-0.000022	-0.000002	0.000000	0.000000
67.587406	22.878775	12.592143	-0.667246	0.714406	2.818317	0.000000	0.084234	0.000000	-0.000023	-0.000001	0.000000	0.000000
68.136466	23.217759	12.058956	0.053511	0.262417	2.841584	0.000000	0.000390	0.000000	-0.000023	-0.000001	0.000000	0.000000
68.435038	23.225877	11.891467	-0.020025	0.267033	2.843918	0.000000	0.007816	0.000000	-0.000024	-0.000001	0.000000	0.000000
68.768372	23.244012	11.723455	-0.034382	0.237003	2.846523	0.000000	0.007816	0.000000	-0.000024	-0.000001	0.000000	0.000000
69.101705	23.271719	11.575463	-0.048740	0.206973	2.849129	0.000000	0.007816	0.000000	-0.000024	-0.000001	0.000000	0.000000
69.436288	23.309156	11.447050	-0.063151	0.176830	2.851744	0.000000	0.007816	0.000000	-0.000024	-0.000001	0.000000	0.000000
69.733611	23.350516	11.349863	-0.136981	0.179705	2.854068	0.000000	0.015275	0.000000	-0.000024	-0.000001	0.000000	0.000000
70.282671	23.099896	11.379877	0.590733	-0.234692	2.839267	0.000000	-0.069110	0.000000	-0.000025	0.000000	0.000000	0.000000
