#ParticleID	Turn	x[m]	xp	y[m]	yp	z[m]	dE[GeV]# s	beta_x	beta_y	alpha_x	alpha_y	D_x	D_y	D_px	D_py	orbit_x	orbit_px	orbit_y	orbit_py
0.300000	11.832958	24.944323	-0.013514	-0.027775	2.618312	0.000000	-0.000064	0.000000	0.000000	0.000000	0.000000	0.000000
0.601250	11.848771	24.964699	-0.038977	-0.039861	2.618293	0.000000	-0.000064	0.000000	0.000000	0.000000	0.000000	0.000000
0.898573	11.879420	24.991948	-0.034976	-0.113077	2.618273	0.000000	-0.006485	0.000000	0.000000	0.000000	0.000000	0.000000
1.339533	12.062636	24.814487	-0.382092	0.513989	2.631708	0.000000	0.067476	0.000000	0.000000	0.000000	0.000000	0.000000
1.780493	12.558491	24.092242	-0.746664	1.117669	2.677894	0.000000	0.142205	0.000000	0.000000	0.000000	0.000000	0.000000
2.221453	13.389641	22.858076	-1.145350	1.670496	2.757359	0.000000	0.218554	0.000000	0.000000	0.000000	0.000000	0.000000
2.662413	14.594057	21.168142	-1.596363	2.147317	2.871007	0.000000	0.297393	0.000000	0.000000	0.000000	0.000000	0.000000
3.108373	16.247581	19.074544	-2.124610	2.527567	3.021993	0.000000	0.380108	0.000000	0.000001	0.000000	0.000000	0.000000
3.657433	18.367898	16.723248	-1.714252	1.780114	3.205423	0.000000	0.287070	0.000000	0.000001	0.000000	0.000000	0.000000
4.206493	19.968029	15.118719	-1.182807	1.159456	3.336295	0.000000	0.188941	0.000000	0.000001	0.000000	0.000000	0.000000
4.755553	20.934949	14.146669	-0.567814	0.621383	3.412288	0.000000	0.087460	0.000000	0.000001	0.000000	0.000000	0.000000
5.304613	21.200359	13.737862	0.087286	0.127570	3.432052	0.000000	-0.015572	0.000000	0.000001	0.000000	0.000000	0.000000
5.603185	21.185523	13.646913	0.017796	0.141149	3.430080	0.000000	-0.006604	0.000000	0.000001	0.000000	0.000000	0.000000
5.936519	21.178905	13.561118	0.002057	0.116237	3.427879	0.000000	-0.006604	0.000000	0.000001	0.000000	0.000000	0.000000
6.269852	21.182780	13.491930	-0.013682	0.091325	3.425677	0.000000	-0.006604	0.000000	0.000001	0.000000	0.000000	0.000000
6.604435	21.197222	13.439185	-0.029480	0.066320	3.423468	0.000000	-0.006604	0.000000	0.000001	0.000000	0.000000	0.000000
6.901758	21.218926	13.406355	-0.098960	0.079127	3.421504	0.000000	0.002335	0.000000	0.000001	0.000000	0.000000	0.000000
7.450818	20.965874	13.579923	0.557113	-0.397112	3.394587	0.000000	-0.100239	0.000000	0.000001	0.000000	0.000000	0.000000
7.999878	20.009820	14.288829	1.173835	-0.901636	3.311756	0.000000	-0.201035	0.000000	0.000001	0.000000	0.000000	0.000000
8.548938	18.418296	15.583567	1.707642	-1.470381	3.174481	0.000000	-0.298266	0.000000	0.000001	-0.000000	0.000000	0.000000
9.097998	16.303717	17.556357	2.120830	-2.143859	2.985196	0.000000	-0.390206	0.000000	0.000001	-0.000000	0.000000	0.000000
9.543958	14.653812	19.314288	1.591994	-1.781386	2.829485	0.000000	-0.308507	0.000000	0.000001	-0.000000	0.000000	0.000000
9.984918	13.453582	20.695550	1.140190	-1.339090	2.710690	0.000000	-0.230805	0.000000	0.000001	-0.000000	0.000000	0.000000
10.425878	12.627417	21.658282	0.740478	-0.835866	2.625548	0.000000	-0.155732	0.000000	0.000001	0.000000	0.000000	0.000000
10.866838	12.137572	22.158682	0.374597	-0.294612	2.573087	0.000000	-0.082433	0.000000	0.000001	0.000000	0.000000	0.000000
11.309048	11.961529	22.173467	0.055058	0.205612	2.552690	0.000000	-0.016333	0.000000	0.000001	0.000000	0.000000	0.000000
11.606371	11.936202	22.055356	0.030126	0.191637	2.547834	0.000000	-0.016333	0.000000	0.000001	0.000000	0.000000	0.000000
12.086371	11.926601	21.882215	-0.010124	0.169074	2.539994	0.000000	-0.016333	0.000000	0.000001	0.000000	0.000000	0.000000
12.566371	11.955640	21.730734	-0.050374	0.146511	2.532154	0.000000	-0.016333	0.000000	0.000001	0.000000	0.000000	0.000000
13.046371	12.023319	21.600914	-0.090625	0.123949	2.524314	0.000000	-0.016333	0.000000	0.000001	0.000000	0.000000	0.000000
13.526371	12.129639	21.492753	-0.130875	0.101386	2.516475	0.000000	-0.016333	0.000000	0.000001	0.000000	0.000000	0.000000
14.007621	12.275027	21.406056	-0.171230	0.078764	2.508614	0.000000	-0.016333	0.000000	0.000001	0.000000	0.000000	0.000000
14.304943	12.384261	21.363374	-0.165792	0.012400	2.503758	0.000000	-0.022473	0.000000	0.000001	0.000000	0.000000	0.000000
14.745903	12.689231	21.118586	-0.528438	0.540613	2.509477	0.000000	0.048437	0.000000	0.000001	0.000000	0.000000	0.000000
15.186863	13.323424	20.417064	-0.915227	1.044229	2.546556	0.000000	0.119898	0.000000	0.000001	0.000000	0.000000	0.000000
15.627823	14.315812	19.290727	-1.343829	1.500334	2.615417	0.000000	0.192724	0.000000	0.000001	0.000000	0.000000	0.000000
16.068783	15.711736	17.790823	-1.833828	1.888174	2.716845	0.000000	0.267746	0.000000	0.000001	0.000000	0.000000	0.000000
16.514743	17.598626	15.964096	-2.412367	2.190854	2.853689	0.000000	0.346279	0.000000	0.000001	0.000000	0.000000	0.000000
17.063803	20.021769	13.924246	-1.974765	1.546243	3.020093	0.000000	0.258971	0.000000	0.000002	0.000000	0.000000	0.000000
17.612863	21.884467	12.527986	-1.397675	1.011768	3.137226	0.000000	0.167069	0.000000	0.000002	0.000000	0.000000	0.000000
18.161923	23.055150	11.675865	-0.721861	0.549358	3.203010	0.000000	0.072204	0.000000	0.000002	0.000000	0.000000	0.000000
18.710983	23.451126	11.307186	0.004941	0.126078	3.216279	0.000000	-0.023942	0.000000	0.000002	0.000000	0.000000	0.000000
19.009556	23.488577	11.222333	-0.069103	0.128576	3.211639	0.000000	-0.015539	0.000000	0.000002	0.000000	0.000000	0.000000
19.342889	23.539399	11.146680	-0.083362	0.098382	3.206460	0.000000	-0.015539	0.000000	0.000002	0.000000	0.000000	0.000000
19.676223	23.599727	11.091156	-0.097621	0.068189	3.201280	0.000000	-0.015539	0.000000	0.000002	0.000000	0.000000	0.000000
20.010806	23.670134	11.055530	-0.229209	0.092657	3.196101	0.000000	0.000297	0.000000	0.000002	0.000000	0.000000	0.000000
20.308129	23.810363	11.008496	-0.304641	0.094296	3.196189	0.000000	0.008647	0.000000	0.000002	0.000000	0.000000	0.000000
20.857189	23.734238	11.127542	0.442466	-0.312393	3.174726	0.000000	-0.086715	0.000000	0.000002	-0.000000	0.000000	0.000000
21.406249	22.850076	11.702705	1.158320	-0.741332	3.101248	0.000000	-0.180539	0.000000	0.000002	-0.000000	0.000000	0.000000
21.955309	21.220330	12.774953	1.792356	-1.223075	2.977060	0.000000	-0.271161	0.000000	0.000002	-0.000000	0.000000	0.000000
22.504369	18.960117	14.420660	2.299789	-1.791935	2.804365	0.000000	-0.356973	0.000000	0.000002	-0.000000	0.000000	0.000000
22.950329	17.179051	15.898016	1.708089	-1.506845	2.662458	0.000000	-0.279785	0.000000	0.000001	-0.000000	0.000000	0.000000
23.391289	15.901932	17.075848	1.199124	-1.154054	2.555402	0.000000	-0.206238	0.000000	0.000001	-0.000000	0.000000	0.000000
23.832249	15.047915	17.918116	0.744944	-0.748754	2.480228	0.000000	-0.135040	0.000000	0.000001	-0.000000	0.000000	0.000000
24.273209	14.577985	18.386496	0.324798	-0.309386	2.436082	0.000000	-0.065380	0.000000	0.000001	-0.000000	0.000000	0.000000
24.715418	14.470783	18.459430	-0.045109	0.098722	2.422456	0.000000	-0.002405	0.000000	0.000001	-0.000000	0.000000	0.000000
25.012741	14.503728	18.405562	-0.065698	0.082458	2.421741	0.000000	-0.002405	0.000000	0.000001	-0.000000	0.000000	0.000000
25.346075	14.555220	18.356668	-0.088779	0.064224	2.420939	0.000000	-0.002405	0.000000	0.000001	-0.000000	0.000000	0.000000
25.679408	14.622101	18.319929	-0.111861	0.045991	2.420138	0.000000	-0.002405	0.000000	0.000001	-0.000000	0.000000	0.000000
26.013991	14.704408	18.295648	-0.015738	-0.120735	2.419309	0.000000	-0.022032	0.000000	0.000001	-0.000000	0.000000	0.000000
26.311314	14.719780	18.372345	0.000134	-0.182276	2.412758	0.000000	-0.027949	0.000000	0.000001	-0.000000	0.000000	0.000000
26.752274	14.901047	18.333788	-0.412767	0.269381	2.415539	0.000000	0.040577	0.000000	0.000001	0.000000	0.000000	0.000000
27.193234	15.453368	17.900809	-0.844526	0.708782	2.448611	0.000000	0.109564	0.000000	0.000001	0.000000	0.000000	0.000000
27.634194	16.401976	17.093109	-1.314870	1.115934	2.512349	0.000000	0.179800	0.000000	0.000001	0.000000	0.000000	0.000000
28.075154	17.790212	15.947436	-1.845286	1.472312	2.607481	0.000000	0.252083	0.000000	0.000001	0.000000	0.000000	0.000000
28.521114	19.705625	14.498664	-2.464962	1.762615	2.736690	0.000000	0.327681	0.000000	0.000001	0.000000	0.000000	0.000000
29.070174	22.140119	12.884267	-1.942721	1.195033	2.893951	0.000000	0.244312	0.000000	0.000002	0.000000	0.000000	0.000000
29.619234	23.921921	11.843025	-1.283256	0.712570	3.004178	0.000000	0.156609	0.000000	0.000002	0.000000	0.000000	0.000000
30.168294	24.925176	11.300772	-0.533149	0.280862	3.065416	0.000000	0.066128	0.000000	0.000002	0.000000	0.000000	0.000000
30.717354	25.079017	11.218885	0.254618	-0.130841	3.076579	0.000000	-0.025525	0.000000	0.000002	-0.000000	0.000000	0.000000
31.015927	24.969783	11.287541	0.176761	-0.128417	3.071358	0.000000	-0.017487	0.000000	0.000002	-0.000000	0.000000	0.000000
31.349260	24.856532	11.383158	0.162994	-0.158435	3.065529	0.000000	-0.017487	0.000000	0.000002	-0.000000	0.000000	0.000000
31.682593	24.752458	11.498787	0.149228	-0.188453	3.059700	0.000000	-0.017487	0.000000	0.000002	-0.000000	0.000000	0.000000
32.017177	24.657223	11.634974	0.135409	-0.218583	3.053849	0.000000	-0.017487	0.000000	0.000002	-0.000000	0.000000	0.000000
32.314499	24.580353	11.772915	0.058907	-0.214598	3.048650	0.000000	-0.009521	0.000000	0.000002	-0.000000	0.000000	0.000000
32.863559	24.094606	12.247942	0.820545	-0.655673	3.018549	0.000000	-0.099963	0.000000	0.000001	-0.000000	0.000000	0.000000
33.412619	22.799522	13.229972	1.524223	-1.143450	2.939204	0.000000	-0.188632	0.000000	0.000001	-0.000000	0.000000	0.000000
33.961679	20.786578	14.788952	2.120238	-1.712672	2.812023	0.000000	-0.273955	0.000000	0.000001	-0.000000	0.000000	0.000000
34.510739	18.197960	17.035926	2.566490	-2.403884	2.639261	0.000000	-0.354419	0.000000	0.000001	-0.000000	0.000000	0.000000
34.956699	16.185361	19.045678	1.962637	-2.083872	2.497541	0.000000	-0.281511	0.000000	0.000001	-0.000000	0.000000	0.000000
35.397659	14.684695	20.707218	1.453453	-1.669795	2.388783	0.000000	-0.212237	0.000000	0.000001	-0.000000	0.000000	0.000000
35.838619	13.602220	21.968550	1.010673	-1.179744	2.310011	0.000000	-0.145381	0.000000	0.000001	-0.000000	0.000000	0.000000
36.279579	12.888482	22.772286	0.614068	-0.636015	2.260326	0.000000	-0.080181	0.000000	0.000001	-0.000000	0.000000	0.000000
36.721789	12.510182	23.082155	0.276090	-0.120006	2.239137	0.000000	-0.021385	0.000000	0.000001	-0.000000	0.000000	0.000000
37.019112	12.353612	23.157401	0.250512	-0.133072	2.232779	0.000000	-0.021385	0.000000	0.000001	-0.000000	0.000000	0.000000
37.352445	12.196162	23.250999	0.221836	-0.147722	2.225651	0.000000	-0.021385	0.000000	0.000001	-0.000000	0.000000	0.000000
37.685779	12.057831	23.354363	0.193160	-0.162371	2.218523	0.000000	-0.021385	0.000000	0.000001	-0.000000	0.000000	0.000000
38.020362	11.938205	23.467935	0.164376	-0.177075	2.211368	0.000000	-0.021385	0.000000	0.000001	-0.000000	0.000000	0.000000
38.317684	11.848065	23.577117	0.167853	-0.247959	2.205010	0.000000	-0.026792	0.000000	0.000001	-0.000000	0.000000	0.000000
38.758644	11.851171	23.534671	-0.174924	0.343850	2.207119	0.000000	0.036369	0.000000	0.000001	-0.000000	0.000000	0.000000
39.199604	12.158947	22.975229	-0.525693	0.920015	2.237145	0.000000	0.099945	0.000000	0.000001	-0.000000	0.000000	0.000000
39.640564	12.785455	21.924243	-0.900479	1.454319	2.295430	0.000000	0.164658	0.000000	0.000001	-0.000000	0.000000	0.000000
40.081524	13.759318	20.429534	-1.316405	1.922453	2.382636	0.000000	0.231248	0.000000	0.000001	-0.000000	0.000000	0.000000
40.527484	15.142589	18.536541	-1.796297	2.304395	2.501229	0.000000	0.300875	0.000000	0.000001	-0.000000	0.000000	0.000000
41.076544	16.908094	16.409402	-1.400174	1.592619	2.645904	0.000000	0.225339	0.000000	0.000001	-0.000000	0.000000	0.000000
41.625604	18.181392	14.997373	-0.905149	0.994283	2.747945	0.000000	0.145806	0.000000	0.000001	-0.000000	0.000000	0.000000
42.174664	18.872543	14.199876	-0.346189	0.466767	2.805542	0.000000	0.063687	0.000000	0.000001	-0.000000	0.000000	0.000000
42.723724	18.932727	13.960108	0.237224	-0.027502	2.817673	0.000000	-0.019562	0.000000	0.000001	-0.000000	0.000000	0.000000
43.022297	18.825484	13.961137	0.171431	-0.012416	2.814030	0.000000	-0.012200	0.000000	0.000001	-0.000000	0.000000	0.000000
43.502297	18.673509	13.989562	0.145184	-0.046803	2.808174	0.000000	-0.012200	0.000000	0.000000	-0.000000	0.000000	0.000000
43.982297	18.546731	14.050998	0.118937	-0.081189	2.802318	0.000000	-0.012200	0.000000	0.000000	-0.000000	0.000000	0.000000
44.462297	18.445150	14.145445	0.092690	-0.115576	2.796462	0.000000	-0.012200	0.000000	0.000000	-0.000000	0.000000	0.000000
44.942297	18.368765	14.272904	0.066444	-0.149962	2.790606	0.000000	-0.012200	0.000000	0.000000	-0.000000	0.000000	0.000000
45.423547	18.317704	14.433655	-0.050627	-0.112925	2.784752	0.000000	0.001597	0.000000	0.000000	-0.000000	0.000000	0.000000
45.720870	18.352648	14.507008	-0.114852	-0.095883	2.785227	0.000000	0.008874	0.000000	0.000000	-0.000000	0.000000	0.000000
46.269930	18.169739	14.892966	0.446010	-0.611210	2.767532	0.000000	-0.073233	0.000000	0.000000	-0.000000	0.000000	0.000000
46.818990	17.384670	15.865257	0.975368	-1.170071	2.705046	0.000000	-0.154042	0.000000	0.000000	-0.000000	0.000000	0.000000
47.368050	16.052894	17.493135	1.435831	-1.812275	2.598877	0.000000	-0.232118	0.000000	0.000000	-0.000000	0.000000	0.000000
47.917110	14.268479	19.892550	1.794875	-2.583562	2.450909	0.000000	-0.306078	0.000000	0.000000	-0.000000	0.000000	0.000000
48.363070	12.879698	22.025961	1.330297	-2.180187	2.329700	0.000000	-0.237789	0.000000	0.000000	-0.000000	0.000000	0.000000
48.804030	11.886649	23.734156	0.930263	-1.678883	2.239302	0.000000	-0.172606	0.000000	0.000000	-0.000000	0.000000	0.000000
49.244990	11.226394	24.964741	0.572730	-1.101191	2.177188	0.000000	-0.109388	0.000000	-0.000000	-0.000000	0.000000	0.000000
49.685950	10.868768	25.661723	0.241363	-0.473396	2.142648	0.000000	-0.047417	0.000000	-0.000000	-0.000000	0.000000	0.000000
50.128160	10.797564	25.793110	-0.052614	0.112636	2.135302	0.000000	0.008778	0.000000	-0.000000	-0.000000	0.000000	0.000000
50.425482	10.837061	25.729602	-0.080226	0.100962	2.137912	0.000000	0.008778	0.000000	-0.000000	-0.000000	0.000000	0.000000
50.758816	10.900864	25.666657	-0.111183	0.087875	2.140838	0.000000	0.008778	0.000000	-0.000000	-0.000000	0.000000	0.000000
51.092149	10.985304	25.612436	-0.142139	0.074788	2.143764	0.000000	0.008778	0.000000	-0.000000	-0.000000	0.000000	0.000000
51.426732	11.090591	25.567304	-0.083238	-0.145763	2.146680	0.000000	-0.008637	0.000000	-0.000000	-0.000000	0.000000	0.000000
51.724055	11.148114	25.657513	-0.082894	-0.220559	2.144112	0.000000	-0.013895	0.000000	-0.000000	-0.000000	0.000000	0.000000
52.165015	11.366735	25.566618	-0.414771	0.425904	2.151572	0.000000	0.047765	0.000000	-0.000000	-0.000000	0.000000	0.000000
52.605975	11.885264	24.911995	-0.765599	1.052989	2.186317	0.000000	0.109970	0.000000	-0.000000	-0.000000	0.000000	0.000000
53.046935	12.727390	23.723427	-1.151404	1.632163	2.248741	0.000000	0.173426	0.000000	-0.000000	-0.000000	0.000000	0.000000
53.487895	13.931590	22.054995	-1.589814	2.137076	2.339555	0.000000	0.238858	0.000000	-0.000001	-0.000000	0.000000	0.000000
53.933855	15.573513	19.957661	-2.105098	2.546087	2.461299	0.000000	0.307410	0.000000	-0.000001	-0.000000	0.000000	0.000000
54.482915	17.687373	17.597743	-1.722073	1.777391	2.609904	0.000000	0.233103	0.000000	-0.000001	-0.000000	0.000000	0.000000
55.031975	19.310937	16.007888	-1.217410	1.135295	2.716515	0.000000	0.154663	0.000000	-0.000001	-0.000000	0.000000	0.000000
55.581035	20.329524	15.074856	-0.626756	0.574063	2.779239	0.000000	0.073479	0.000000	-0.000001	-0.000000	0.000000	0.000000
56.130095	20.671187	14.732188	0.008170	0.053720	2.796964	0.000000	-0.009009	0.000000	-0.000001	-0.000000	0.000000	0.000000
56.428668	20.702883	14.683226	-0.060315	0.071774	2.796456	0.000000	-0.001701	0.000000	-0.000001	-0.000000	0.000000	0.000000
56.762001	20.748479	14.642983	-0.076474	0.048955	2.795889	0.000000	-0.001701	0.000000	-0.000001	-0.000000	0.000000	0.000000
57.095334	20.804848	14.617952	-0.092634	0.026137	2.795322	0.000000	-0.001701	0.000000	-0.000001	-0.000000	0.000000	0.000000
57.429918	20.872263	14.608126	-0.108854	0.003233	2.794753	0.000000	-0.001701	0.000000	-0.000001	-0.000000	0.000000	0.000000
57.727240	20.941277	14.612255	-0.177983	0.021059	2.794247	0.000000	0.005600	0.000000	-0.000001	-0.000000	0.000000	0.000000
58.276300	20.779384	14.869818	0.471094	-0.492926	2.774681	0.000000	-0.076769	0.000000	-0.000001	-0.000000	0.000000	0.000000
58.825360	19.918859	15.707650	1.086896	-1.042020	2.710196	0.000000	-0.157777	0.000000	-0.000001	-0.000000	0.000000	0.000000
59.374420	18.420488	17.185428	1.625925	-1.665335	2.601936	0.000000	-0.235987	0.000000	-0.000001	0.000000	0.000000	0.000000
59.923480	16.390107	19.408410	2.050107	-2.407268	2.451823	0.000000	-0.310010	0.000000	-0.000001	0.000000	0.000000	0.000000
60.369440	14.800822	21.384306	1.526253	-2.004689	2.328862	0.000000	-0.241721	0.000000	-0.000001	0.000000	0.000000	0.000000
60.810400	13.657518	22.941066	1.076344	-1.512267	2.236723	0.000000	-0.176581	0.000000	-0.000001	0.000000	0.000000	0.000000
61.251360	12.887897	24.031434	0.675609	-0.951038	2.172837	0.000000	-0.113453	0.000000	-0.000001	-0.000000	0.000000	0.000000
61.692320	12.456796	24.605799	0.305741	-0.346537	2.136476	0.000000	-0.051617	0.000000	-0.000001	-0.000000	0.000000	0.000000
62.134530	12.344570	24.637493	-0.019986	0.213257	2.127233	0.000000	0.004414	0.000000	-0.000001	-0.000000	0.000000	0.000000
62.431853	12.363619	24.514432	-0.044081	0.200641	2.128546	0.000000	0.004414	0.000000	-0.000001	-0.000000	0.000000	0.000000
62.765186	12.402011	24.385386	-0.071095	0.186496	2.130017	0.000000	0.004414	0.000000	-0.000001	-0.000000	0.000000	0.000000
63.098520	12.458411	24.265771	-0.098108	0.172351	2.131488	0.000000	0.004414	0.000000	-0.000001	-0.000000	0.000000	0.000000
63.433103	12.533134	24.155189	-0.125222	0.158153	2.132965	0.000000	0.004414	0.000000	-0.000001	-0.000000	0.000000	0.000000
63.730426	12.614761	24.064896	-0.118382	0.086521	2.134278	0.000000	-0.000820	0.000000	-0.000001	-0.000000	0.000000	0.000000
64.171386	12.879730	23.723547	-0.484790	0.684637	2.147459	0.000000	0.060660	0.000000	-0.000001	-0.000000	0.000000	0.000000
64.612346	13.476350	22.866481	-0.873346	1.251603	2.187877	0.000000	0.122832	0.000000	-0.000001	-0.000000	0.000000	0.000000
65.053306	14.431879	21.532694	-1.301803	1.761621	2.255992	0.000000	0.186402	0.000000	-0.000001	-0.000000	0.000000	0.000000
65.494266	15.789971	19.782873	-1.789736	2.191487	2.352580	0.000000	0.252095	0.000000	-0.000001	-0.000000	0.000000	0.000000
65.940226	17.635847	17.671860	-2.364131	2.522400	2.480314	0.000000	0.321062	0.000000	-0.000001	-0.000000	0.000000	0.000000
66.489286	20.001828	15.310202	-1.919511	1.804263	2.636225	0.000000	0.246021	0.000000	-0.000001	-0.000000	0.000000	0.000000
67.038346	21.801769	13.662370	-1.339306	1.214640	2.749673	0.000000	0.166617	0.000000	-0.000002	-0.000000	0.000000	0.000000
67.587406	22.908529	12.610991	-0.664499	0.711533	2.818647	0.000000	0.084257	0.000000	-0.000002	-0.000000	0.000000	0.000000
68.136466	23.243934	12.081179	0.057244	0.259107	2.841923	0.000000	0.000403	0.000000	-0.000002	-0.000000	0.000000	0.000000
68.435038	23.249852	11.915608	-0.016334	0.263871	2.844261	0.000000	0.007828	0.000000	-0.000002	-0.000000	0.000000	0.000000
68.768372	23.265522	11.749668	-0.030675	0.233949	2.846870	0.000000	0.007828	0.000000	-0.000002	-0.000000	0.000000	0.000000
69.101705	23.290752	11.603676	-0.045016	0.204026	2.849480	0.000000	0.007828	0.000000	-0.000002	-0.000000	0.000000	0.000000
69.436288	23.325691	11.477198	-0.059410	0.173992	2.852099	0.000000	0.007828	0.000000	-0.000002	-0.000000	0.000000	0.000000
69.733611	23.364822	11.381670	-0.133250	0.177041	2.854426	0.000000	0.015287	0.000000	-0.000002	-0.000000	0.000000	0.000000
70.282671	23.109880	11.415108	0.594827	-0.238301	2.839629	0.000000	-0.069110	0.000000	-0.000002	0.000000	0.000000	0.000000
