#ParticleID	Turn	x[m]	xp	y[m]	yp	z[m]	dE[GeV]# s	beta_x	beta_y	alpha_x	alpha_y	D_x	D_y	D_px	D_py	orbit_x	orbit_px	orbit_y	orbit_py
0.300000	11.817900	25.001380	-0.011537	-0.027428	2.618102	0.000000	0.000016	0.000000	-0.000000	0.000001	0.000000	0.000000
0.601250	11.832532	25.021538	-0.037032	-0.039487	2.618106	0.000000	0.000016	0.000000	-0.000000	0.000001	0.000000	0.000000
0.898573	11.862034	25.048557	-0.033104	-0.112814	2.618111	0.000000	-0.006404	0.000000	0.000000	0.000001	0.000000	0.000000
1.339533	12.043409	24.870204	-0.379775	0.515742	2.631580	0.000000	0.067553	0.000000	0.000001	0.000001	0.000000	0.000000
1.780493	12.536987	24.145783	-0.743797	1.120832	2.677800	0.000000	0.142280	0.000000	0.000001	0.000001	0.000000	0.000000
2.221453	13.365318	22.908256	-1.141801	1.674926	2.757297	0.000000	0.218627	0.000000	0.000001	0.000001	0.000000	0.000000
2.662413	14.566246	21.213930	-1.591970	2.152811	2.870976	0.000000	0.297464	0.000000	0.000002	0.000001	0.000000	0.000000
3.108373	16.215398	19.115046	-2.119165	2.533877	3.021994	0.000000	0.380179	0.000000	0.000002	0.000001	0.000000	0.000000
3.657433	18.330149	16.757717	-1.709619	1.784856	3.205462	0.000000	0.287141	0.000000	0.000003	0.000001	0.000000	0.000000
4.206493	19.925793	15.148683	-1.179315	1.162967	3.336372	0.000000	0.189009	0.000000	0.000003	0.000001	0.000000	0.000000
4.755553	20.889622	14.173336	-0.565710	0.623912	3.412401	0.000000	0.087526	0.000000	0.000003	0.000001	0.000000	0.000000
5.304613	21.153556	13.762205	0.087855	0.129298	3.432200	0.000000	-0.015510	0.000000	0.000004	0.000001	0.000000	0.000000
5.603185	21.138316	13.670179	0.018456	0.142967	3.430246	0.000000	-0.006543	0.000000	0.000004	0.000001	0.000000	0.000000
5.936519	21.131270	13.583161	0.002682	0.118085	3.428065	0.000000	-0.006543	0.000000	0.000004	0.000001	0.000000	0.000000
6.269852	21.134740	13.512732	-0.013093	0.093203	3.425884	0.000000	-0.006543	0.000000	0.000004	0.000001	0.000000	0.000000
6.604435	21.148799	13.458720	-0.028926	0.068227	3.423694	0.000000	-0.006543	0.000000	0.000004	0.000001	0.000000	0.000000
6.901758	21.170183	13.424748	-0.098308	0.081108	3.421749	0.000000	0.002397	0.000000	0.000005	0.000001	0.000000	0.000000
7.450818	20.917316	13.596419	0.556127	-0.395616	3.394863	0.000000	-0.100186	0.000000	0.000005	0.000000	0.000000	0.000000
7.999878	19.963218	14.303899	1.171281	-0.900519	3.312059	0.000000	-0.200992	0.000000	0.000005	0.000000	0.000000	0.000000
8.548938	18.375281	15.597581	1.703701	-1.469564	3.174805	0.000000	-0.298232	0.000000	0.000005	0.000000	0.000000	0.000000
9.097998	16.265669	17.569611	2.115780	-2.143283	2.985536	0.000000	-0.390183	0.000000	0.000005	-0.000000	0.000000	0.000000
9.543958	14.619757	19.326805	1.588058	-1.780312	2.829837	0.000000	-0.308475	0.000000	0.000005	0.000000	0.000000	0.000000
9.984918	13.422578	20.706918	1.137180	-1.337571	2.711058	0.000000	-0.230764	0.000000	0.000005	0.000000	0.000000	0.000000
10.425878	12.598710	21.668140	0.738257	-0.833972	2.625936	0.000000	-0.155681	0.000000	0.000005	0.000000	0.000000	0.000000
10.866838	12.110514	22.166734	0.373063	-0.292427	2.573499	0.000000	-0.082372	0.000000	0.000006	0.000000	0.000000	0.000000
11.309048	11.935550	22.179495	0.054077	0.207975	2.553132	0.000000	-0.016261	0.000000	0.000006	0.000001	0.000000	0.000000
11.606371	11.910822	22.059982	0.029093	0.193990	2.548297	0.000000	-0.016261	0.000000	0.000006	0.000001	0.000000	0.000000
12.086371	11.902252	21.884589	-0.011240	0.171412	2.540491	0.000000	-0.016261	0.000000	0.000006	0.000001	0.000000	0.000000
12.566371	11.932403	21.730871	-0.051574	0.148834	2.532685	0.000000	-0.016261	0.000000	0.000007	0.000001	0.000000	0.000000
13.046371	12.001274	21.598827	-0.091907	0.126257	2.524879	0.000000	-0.016261	0.000000	0.000007	0.000001	0.000000	0.000000
13.526371	12.108865	21.488458	-0.132241	0.103679	2.517074	0.000000	-0.016261	0.000000	0.000007	0.000001	0.000000	0.000000
14.007621	12.255609	21.399561	-0.172680	0.081042	2.509248	0.000000	-0.016261	0.000000	0.000007	0.000001	0.000000	0.000000
14.304943	12.365720	21.355528	-0.167341	0.014691	2.504413	0.000000	-0.022403	0.000000	0.000008	0.000001	0.000000	0.000000
14.745903	12.671888	21.108827	-0.529614	0.542642	2.510166	0.000000	0.048524	0.000000	0.000008	0.000001	0.000000	0.000000
15.186863	13.306973	20.405666	-0.916083	1.045903	2.547287	0.000000	0.120003	0.000000	0.000008	0.000001	0.000000	0.000000
15.627823	14.299992	19.278038	-1.344406	1.501577	2.616199	0.000000	0.192850	0.000000	0.000009	0.000001	0.000000	0.000000
16.068783	15.696312	17.777249	-1.834151	1.888930	2.717686	0.000000	0.267892	0.000000	0.000009	0.000001	0.000000	0.000000
16.514743	17.583383	15.950081	-2.412451	2.191084	2.854600	0.000000	0.346448	0.000000	0.000010	0.000002	0.000000	0.000000
17.063803	20.006994	13.909842	-1.975528	1.546726	3.021088	0.000000	0.259109	0.000000	0.000011	0.000001	0.000000	0.000000
17.612863	21.870882	12.512899	-1.399064	1.012537	3.138287	0.000000	0.167174	0.000000	0.000012	0.000001	0.000000	0.000000
18.161923	23.043390	11.659750	-0.723777	0.550470	3.204119	0.000000	0.072273	0.000000	0.000012	0.000001	0.000000	0.000000
18.710983	23.441698	11.289628	0.002635	0.127611	3.217416	0.000000	-0.023909	0.000000	0.000012	0.000000	0.000000	0.000000
19.009556	23.480511	11.203904	-0.071389	0.130006	3.212787	0.000000	-0.015503	0.000000	0.000012	0.000000	0.000000	0.000000
19.342889	23.532860	11.127318	-0.085657	0.099752	3.207619	0.000000	-0.015503	0.000000	0.000012	0.000000	0.000000	0.000000
19.676223	23.594721	11.070901	-0.099926	0.069498	3.202451	0.000000	-0.015503	0.000000	0.000012	0.000000	0.000000	0.000000
20.010806	23.666673	11.034419	-0.231505	0.093801	3.197283	0.000000	0.000338	0.000000	0.000013	0.000000	0.000000	0.000000
20.308129	23.808272	10.986723	-0.306942	0.095322	3.197384	0.000000	0.008691	0.000000	0.000013	0.000000	0.000000	0.000000
20.857189	23.734699	11.104301	0.440146	-0.310730	3.175934	0.000000	-0.086710	0.000000	0.000013	-0.000000	0.000000	0.000000
21.406249	22.853020	11.677237	1.156144	-0.738915	3.102448	0.000000	-0.180573	0.000000	0.000013	-0.000000	0.000000	0.000000
21.955309	21.225513	12.746341	1.790478	-1.219731	2.978231	0.000000	-0.271233	0.000000	0.000012	-0.000001	0.000000	0.000000
22.504369	18.967136	14.387762	2.298342	-1.787426	2.805486	0.000000	-0.357083	0.000000	0.000012	-0.000001	0.000000	0.000000
22.950329	17.187358	15.861418	1.706637	-1.503091	2.663537	0.000000	-0.279866	0.000000	0.000011	-0.000001	0.000000	0.000000
23.391289	15.911546	17.036334	1.197600	-1.151221	2.556451	0.000000	-0.206292	0.000000	0.000011	-0.000001	0.000000	0.000000
23.832249	15.058931	17.876559	0.743278	-0.746972	2.481260	0.000000	-0.135067	0.000000	0.000011	-0.000000	0.000000	0.000000
24.273209	14.590560	18.343862	0.322914	-0.308736	2.437108	0.000000	-0.065380	0.000000	0.000010	-0.000000	0.000000	0.000000
24.715418	14.485152	18.416736	-0.047265	0.098319	2.423488	0.000000	-0.002381	0.000000	0.000010	0.000000	0.000000	0.000000
25.012741	14.519374	18.363118	-0.067837	0.082019	2.422780	0.000000	-0.002381	0.000000	0.000010	0.000000	0.000000	0.000000
25.346075	14.572287	18.314530	-0.090900	0.063745	2.421986	0.000000	-0.002381	0.000000	0.000010	0.000000	0.000000	0.000000
25.679408	14.640575	18.278125	-0.113964	0.045470	2.421193	0.000000	-0.002381	0.000000	0.000010	0.000000	0.000000	0.000000
26.013991	14.724283	18.254205	-0.017661	-0.120960	2.420371	0.000000	-0.022017	0.000000	0.000011	0.000000	0.000000	0.000000
26.311314	14.740790	18.331047	-0.001715	-0.182435	2.413825	0.000000	-0.027935	0.000000	0.000011	-0.000000	0.000000	0.000000
26.752274	14.923921	18.293124	-0.415162	0.268108	2.416619	0.000000	0.040618	0.000000	0.000011	0.000000	0.000000	0.000000
27.193234	15.478634	17.861740	-0.847576	0.706453	2.449715	0.000000	0.109634	0.000000	0.000011	0.000001	0.000000	0.000000
27.634194	16.430271	17.056522	-1.318714	1.112654	2.513490	0.000000	0.179898	0.000000	0.000011	0.000001	0.000000	0.000000
28.075154	17.822310	15.914107	-1.850100	1.468231	2.608670	0.000000	0.252212	0.000000	0.000011	0.000001	0.000000	0.000000
28.521114	19.742536	14.469267	-2.470976	1.757917	2.737944	0.000000	0.327841	0.000000	0.000012	0.000001	0.000000	0.000000
29.070174	22.183154	12.859395	-1.947794	1.191441	2.895280	0.000000	0.244430	0.000000	0.000013	0.000001	0.000000	0.000000
29.619234	23.969844	11.821608	-1.287030	0.709830	3.005559	0.000000	0.156683	0.000000	0.000013	0.000001	0.000000	0.000000
30.168294	24.976402	11.281989	-0.535356	0.278777	3.066826	0.000000	0.066157	0.000000	0.000013	0.000000	0.000000	0.000000
30.717354	25.131730	11.202100	0.254132	-0.132418	3.077992	0.000000	-0.025542	0.000000	0.000013	-0.000000	0.000000	0.000000
31.015927	25.022857	11.271740	0.176173	-0.130089	3.072767	0.000000	-0.017501	0.000000	0.000013	-0.000000	0.000000	0.000000
31.349260	24.909987	11.368490	0.162438	-0.160162	3.066933	0.000000	-0.017501	0.000000	0.000013	-0.000000	0.000000	0.000000
31.682593	24.806273	11.485289	0.148703	-0.190235	3.061100	0.000000	-0.017501	0.000000	0.000013	-0.000000	0.000000	0.000000
32.017177	24.711378	11.622688	0.134917	-0.220421	3.055244	0.000000	-0.017501	0.000000	0.000013	-0.000000	0.000000	0.000000
32.314499	24.634793	11.761735	0.058307	-0.216517	3.050041	0.000000	-0.009533	0.000000	0.000013	-0.000000	0.000000	0.000000
32.863559	24.148707	12.238742	0.821757	-0.657381	3.019921	0.000000	-0.100019	0.000000	0.000013	-0.000001	0.000000	0.000000
33.412619	22.851328	13.222588	1.527162	-1.145069	2.940534	0.000000	-0.188732	0.000000	0.000012	-0.000001	0.000000	0.000000
33.961679	20.834298	14.783351	2.124697	-1.714318	2.813287	0.000000	-0.274097	0.000000	0.000012	-0.000001	0.000000	0.000000
34.510739	18.240088	17.032200	2.572152	-2.405674	2.640437	0.000000	-0.354600	0.000000	0.000011	-0.000002	0.000000	0.000000
34.956699	16.223015	19.043697	1.967045	-2.085979	2.498644	0.000000	-0.281663	0.000000	0.000010	-0.000002	0.000000	0.000000
35.397659	14.718934	20.707199	1.456817	-1.672120	2.389826	0.000000	-0.212362	0.000000	0.000009	-0.000001	0.000000	0.000000
35.838619	13.633895	21.970639	1.013147	-1.182180	2.311004	0.000000	-0.145479	0.000000	0.000009	-0.000001	0.000000	0.000000
36.279579	12.918325	22.776531	0.615764	-0.638452	2.261283	0.000000	-0.080253	0.000000	0.000009	-0.000001	0.000000	0.000000
36.721789	12.538838	23.088515	0.277156	-0.122344	2.240067	0.000000	-0.021435	0.000000	0.000008	-0.000001	0.000000	0.000000
37.019112	12.381621	23.165153	0.251622	-0.135415	2.233694	0.000000	-0.021435	0.000000	0.000008	-0.000001	0.000000	0.000000
37.352445	12.223415	23.260314	0.222996	-0.150068	2.226549	0.000000	-0.021435	0.000000	0.000008	-0.000001	0.000000	0.000000
37.685779	12.084293	23.365243	0.194370	-0.164721	2.219405	0.000000	-0.021435	0.000000	0.000008	-0.000001	0.000000	0.000000
38.020362	11.963841	23.480391	0.165636	-0.179430	2.212233	0.000000	-0.021435	0.000000	0.000007	-0.000001	0.000000	0.000000
38.317684	11.872938	23.590974	0.169217	-0.250348	2.205860	0.000000	-0.026844	0.000000	0.000007	-0.000001	0.000000	0.000000
38.758644	11.875088	23.550466	-0.174112	0.341861	2.207952	0.000000	0.036339	0.000000	0.000007	-0.000000	0.000000	0.000000
39.199604	12.182378	22.992567	-0.525396	0.918516	2.237969	0.000000	0.099936	0.000000	0.000007	-0.000000	0.000000	0.000000
39.640564	12.808845	21.942661	-0.900683	1.453379	2.296254	0.000000	0.164671	0.000000	0.000007	-0.000000	0.000000	0.000000
40.081524	13.783112	20.448517	-1.317121	1.922114	2.383471	0.000000	0.231281	0.000000	0.000007	0.000000	0.000000	0.000000
40.527484	15.167262	18.555549	-1.797559	2.304677	2.502084	0.000000	0.300931	0.000000	0.000007	0.000000	0.000000	0.000000
41.076544	16.933655	16.428350	-1.400518	1.592447	2.646782	0.000000	0.225367	0.000000	0.000007	0.000000	0.000000	0.000000
41.625604	18.206814	15.016763	-0.904551	0.993643	2.748830	0.000000	0.145805	0.000000	0.000007	-0.000000	0.000000	0.000000
42.174664	18.896807	14.220246	-0.344692	0.465614	2.806418	0.000000	0.063657	0.000000	0.000007	-0.000000	0.000000	0.000000
42.723724	18.954899	13.982063	0.239515	-0.029251	2.818526	0.000000	-0.019620	0.000000	0.000007	-0.000001	0.000000	0.000000
43.022297	18.846319	13.984092	0.173672	-0.014075	2.814867	0.000000	-0.012256	0.000000	0.000006	-0.000001	0.000000	0.000000
43.502297	18.692187	14.014083	0.147435	-0.048407	2.808984	0.000000	-0.012256	0.000000	0.000006	-0.000001	0.000000	0.000000
43.982297	18.563244	14.077033	0.121197	-0.082739	2.803101	0.000000	-0.012256	0.000000	0.000006	-0.000001	0.000000	0.000000
44.462297	18.459488	14.172941	0.094960	-0.117070	2.797219	0.000000	-0.012256	0.000000	0.000006	-0.000001	0.000000	0.000000
44.942297	18.380921	14.301808	0.068723	-0.151402	2.791336	0.000000	-0.012256	0.000000	0.000005	-0.000001	0.000000	0.000000
45.423547	18.327662	14.463917	-0.048388	-0.114159	2.785455	0.000000	0.001545	0.000000	0.000005	-0.000001	0.000000	0.000000
45.720870	18.361270	14.537993	-0.112622	-0.097000	2.785915	0.000000	0.008823	0.000000	0.000005	-0.000001	0.000000	0.000000
46.269930	18.175773	14.925704	0.448467	-0.613303	2.768187	0.000000	-0.073306	0.000000	0.000004	-0.000001	0.000000	0.000000
46.818990	17.387961	15.900894	0.977877	-1.173290	2.705656	0.000000	-0.154135	0.000000	0.000004	-0.000001	0.000000	0.000000
47.368050	16.053481	17.533026	1.438216	-1.816849	2.599431	0.000000	-0.232230	0.000000	0.000004	-0.000001	0.000000	0.000000
47.917110	14.266594	19.938352	1.796966	-2.589817	2.451397	0.000000	-0.306206	0.000000	0.000003	-0.000001	0.000000	0.000000
48.363070	12.876024	22.076916	1.332231	-2.185438	2.330134	0.000000	-0.237906	0.000000	0.000003	-0.000001	0.000000	0.000000
48.804030	11.881304	23.789212	0.932132	-1.682896	2.239687	0.000000	-0.172712	0.000000	0.000002	-0.000001	0.000000	0.000000
49.244990	11.219398	25.022721	0.574619	-1.103784	2.177528	0.000000	-0.109485	0.000000	0.000002	-0.000001	0.000000	0.000000
49.685950	10.860065	25.721317	0.243359	-0.474450	2.142948	0.000000	-0.047505	0.000000	0.000001	-0.000001	0.000000	0.000000
50.128160	10.787015	25.852933	-0.050446	0.113023	2.135565	0.000000	0.008696	0.000000	0.000001	-0.000001	0.000000	0.000000
50.425482	10.825229	25.789188	-0.078080	0.101376	2.138151	0.000000	0.008696	0.000000	0.000001	-0.000001	0.000000	0.000000
50.758816	10.887608	25.725957	-0.109060	0.088317	2.141050	0.000000	0.008696	0.000000	0.000000	-0.000001	0.000000	0.000000
51.092149	10.970641	25.671431	-0.140040	0.075259	2.143949	0.000000	0.008696	0.000000	0.000000	-0.000001	0.000000	0.000000
51.426732	11.074531	25.625975	-0.081292	-0.145738	2.146837	0.000000	-0.008720	0.000000	-0.000000	-0.000001	0.000000	0.000000
51.724055	11.130906	25.716161	-0.081020	-0.220651	2.144245	0.000000	-0.013978	0.000000	-0.000000	-0.000001	0.000000	0.000000
52.165015	11.347687	25.624662	-0.412458	0.427361	2.151669	0.000000	0.047685	0.000000	-0.000001	-0.000001	0.000000	0.000000
52.605975	11.863943	24.968092	-0.762739	1.055929	2.186379	0.000000	0.109891	0.000000	-0.000001	-0.000001	0.000000	0.000000
53.046935	12.703260	23.776324	-1.147867	1.636453	2.248769	0.000000	0.173349	0.000000	-0.000002	-0.000001	0.000000	0.000000
53.487895	13.903983	22.103583	-1.585439	2.142519	2.339549	0.000000	0.238781	0.000000	-0.000002	-0.000001	0.000000	0.000000
53.933855	15.541553	20.000967	-2.099675	2.552439	2.461259	0.000000	0.307332	0.000000	-0.000002	-0.000001	0.000000	0.000000
54.482915	17.649868	17.635005	-1.717458	1.782108	2.609823	0.000000	0.233028	0.000000	-0.000003	-0.000001	0.000000	0.000000
55.031975	19.268959	16.040710	-1.213927	1.138713	2.716393	0.000000	0.154590	0.000000	-0.000003	-0.000001	0.000000	0.000000
55.581035	20.284459	15.104522	-0.624651	0.576426	2.779079	0.000000	0.073411	0.000000	-0.000004	-0.000001	0.000000	0.000000
56.130095	20.624641	14.759759	0.008747	0.055196	2.796769	0.000000	-0.009071	0.000000	-0.000004	-0.000001	0.000000	0.000000
56.428668	20.655929	14.709863	-0.059649	0.073355	2.796242	0.000000	-0.001763	0.000000	-0.000004	-0.000001	0.000000	0.000000
56.762001	20.701094	14.668554	-0.075844	0.050572	2.795655	0.000000	-0.001763	0.000000	-0.000004	-0.000001	0.000000	0.000000
57.095334	20.757055	14.642433	-0.092039	0.027790	2.795067	0.000000	-0.001763	0.000000	-0.000005	-0.000001	0.000000	0.000000
57.429918	20.824083	14.631488	-0.108294	0.004922	2.794477	0.000000	-0.001763	0.000000	-0.000005	-0.000001	0.000000	0.000000
57.727240	20.892774	14.634603	-0.177331	0.022840	2.793953	0.000000	0.005537	0.000000	-0.000005	-0.000001	0.000000	0.000000
58.276300	20.731060	14.890555	0.470117	-0.491755	2.774355	0.000000	-0.076822	0.000000	-0.000005	-0.000000	0.000000	0.000000
58.825360	19.872478	15.727396	1.084358	-1.041376	2.709844	0.000000	-0.157819	0.000000	-0.000005	-0.000000	0.000000	0.000000
59.374420	18.377673	17.204734	1.622005	-1.665173	2.601565	0.000000	-0.236017	0.000000	-0.000006	-0.000000	0.000000	0.000000
59.923480	16.352232	19.427795	2.045083	-2.407576	2.451438	0.000000	-0.310028	0.000000	-0.000006	0.000000	0.000000	0.000000
60.369440	14.766920	21.403685	1.522338	-2.004367	2.328468	0.000000	-0.241749	0.000000	-0.000006	-0.000000	0.000000	0.000000
60.810400	13.626651	22.959891	1.073350	-1.511335	2.236313	0.000000	-0.176620	0.000000	-0.000006	-0.000000	0.000000	0.000000
61.251360	12.859314	24.049182	0.673401	-0.949538	2.172408	0.000000	-0.113503	0.000000	-0.000006	-0.000000	0.000000	0.000000
61.692320	12.429853	24.621998	0.304217	-0.344538	2.136024	0.000000	-0.051678	0.000000	-0.000006	-0.000000	0.000000	0.000000
62.134530	12.318698	24.651736	-0.020958	0.215627	2.126752	0.000000	0.004342	0.000000	-0.000006	-0.000001	0.000000	0.000000
62.431853	12.338341	24.527267	-0.045105	0.203005	2.128043	0.000000	0.004342	0.000000	-0.000006	-0.000001	0.000000	0.000000
62.765186	12.377434	24.396647	-0.072176	0.188855	2.129491	0.000000	0.004342	0.000000	-0.000007	-0.000001	0.000000	0.000000
63.098520	12.434575	24.275461	-0.099247	0.174704	2.130938	0.000000	0.004342	0.000000	-0.000007	-0.000001	0.000000	0.000000
63.433103	12.510079	24.163307	-0.126420	0.160501	2.132391	0.000000	0.004342	0.000000	-0.000007	-0.000001	0.000000	0.000000
63.730426	12.592433	24.071618	-0.119684	0.088844	2.133682	0.000000	-0.000891	0.000000	-0.000007	-0.000001	0.000000	0.000000
64.171386	12.858337	23.728161	-0.485615	0.687078	2.146829	0.000000	0.060574	0.000000	-0.000007	-0.000001	0.000000	0.000000
64.612346	13.455489	22.868932	-0.873732	1.254050	2.187206	0.000000	0.122729	0.000000	-0.000008	-0.000001	0.000000	0.000000
65.053306	14.411171	21.533025	-1.301768	1.763963	2.255272	0.000000	0.186281	0.000000	-0.000008	-0.000001	0.000000	0.000000
65.494266	15.769047	19.781224	-1.789278	2.193618	2.351803	0.000000	0.251955	0.000000	-0.000009	-0.000001	0.000000	0.000000
65.940226	17.614316	17.668443	-2.363226	2.524219	2.479470	0.000000	0.320900	0.000000	-0.000010	-0.000002	0.000000	0.000000
66.489286	19.979760	15.304886	-1.919443	1.805925	2.635301	0.000000	0.245889	0.000000	-0.000010	-0.000001	0.000000	0.000000
67.038346	21.780090	13.655261	-1.340079	1.216263	2.748686	0.000000	0.166515	0.000000	-0.000011	-0.000001	0.000000	0.000000
67.587406	22.888139	12.602069	-0.666059	0.713233	2.817613	0.000000	0.084188	0.000000	-0.000011	-0.000001	0.000000	0.000000
68.136466	23.225641	12.070293	0.055007	0.261004	2.840861	0.000000	0.000368	0.000000	-0.000012	-0.000000	0.000000	0.000000
68.435038	23.232873	11.903619	-0.018539	0.265692	2.843187	0.000000	0.007791	0.000000	-0.000012	-0.000000	0.000000	0.000000
68.768372	23.250016	11.736484	-0.032891	0.235712	2.845784	0.000000	0.007791	0.000000	-0.000012	-0.000000	0.000000	0.000000
69.101705	23.276727	11.589336	-0.047243	0.205733	2.848381	0.000000	0.007791	0.000000	-0.000012	-0.000000	0.000000	0.000000
69.436288	23.313161	11.461735	-0.061650	0.175641	2.850988	0.000000	0.007791	0.000000	-0.000012	-0.000000	0.000000	0.000000
69.733611	23.353627	11.365241	-0.135476	0.178599	2.853305	0.000000	0.015247	0.000000	-0.000012	-0.000000	0.000000	0.000000
70.282671	23.101312	11.396711	0.592297	-0.236252	2.838496	0.000000	-0.069113	0.000000	-0.000012	0.000000	0.000000	0.000000
