#ParticleID	Turn	x[m]	xp	y[m]	yp	z[m]	dE[GeV]# s	beta_x	beta_y	alpha_x	alpha_y	D_x	D_y	D_px	D_py	orbit_x	orbit_px	orbit_y	orbit_py
0.300000	11.834332	24.939886	-0.013702	-0.027786	2.618346	0.000000	-0.000076	0.000000	-0.000001	0.000000	0.000000	0.000000
0.601250	11.850257	24.960269	-0.039162	-0.039875	2.618323	0.000000	-0.000076	0.000000	-0.000001	0.000000	0.000000	0.000000
0.898573	11.881016	24.987528	-0.035154	-0.113083	2.618300	0.000000	-0.006497	0.000000	-0.000001	0.000000	0.000000	0.000000
1.339533	12.064406	24.810123	-0.382311	0.513867	2.631729	0.000000	0.067464	0.000000	-0.000001	0.000000	0.000000	0.000000
1.780493	12.560476	24.088036	-0.746934	1.117436	2.677911	0.000000	0.142194	0.000000	-0.000001	0.000000	0.000000	0.000000
2.221453	13.391890	22.854121	-1.145683	1.670163	2.757370	0.000000	0.218544	0.000000	-0.000001	0.000000	0.000000	0.000000
2.662413	14.596634	21.164520	-1.596775	2.146898	2.871014	0.000000	0.297382	0.000000	-0.000001	0.000000	0.000000	0.000000
3.108373	16.250567	19.071327	-2.125120	2.527081	3.021995	0.000000	0.380097	0.000000	-0.000001	0.000000	0.000000	0.000000
3.657433	18.371405	16.720494	-1.714686	1.779752	3.205420	0.000000	0.287060	0.000000	-0.000001	0.000000	0.000000	0.000000
4.206493	19.971958	15.116308	-1.183136	1.159190	3.336286	0.000000	0.188931	0.000000	-0.000001	0.000000	0.000000	0.000000
4.755553	20.939170	14.144506	-0.568014	0.621195	3.412273	0.000000	0.087451	0.000000	-0.000001	0.000000	0.000000	0.000000
5.304613	21.204722	13.735869	0.087229	0.127447	3.432033	0.000000	-0.015581	0.000000	-0.000001	0.000000	0.000000	0.000000
5.603185	21.189927	13.644996	0.017730	0.141019	3.430058	0.000000	-0.006613	0.000000	-0.000001	0.000000	0.000000	0.000000
5.936519	21.183353	13.559288	0.001994	0.116105	3.427853	0.000000	-0.006613	0.000000	-0.000001	0.000000	0.000000	0.000000
6.269852	21.187268	13.490190	-0.013742	0.091190	3.425649	0.000000	-0.006613	0.000000	-0.000000	0.000000	0.000000	0.000000
6.604435	21.201749	13.437536	-0.029537	0.066182	3.423436	0.000000	-0.006613	0.000000	-0.000000	0.000000	0.000000	0.000000
6.901758	21.223486	13.404789	-0.099025	0.078983	3.421470	0.000000	0.002326	0.000000	-0.000000	0.000000	0.000000	0.000000
7.450818	20.970422	13.578491	0.557201	-0.397214	3.394548	0.000000	-0.100247	0.000000	-0.000000	0.000000	0.000000	0.000000
7.999878	20.014190	14.287489	1.174069	-0.901703	3.311713	0.000000	-0.201042	0.000000	-0.000000	0.000000	0.000000	0.000000
8.548938	18.422335	15.582283	1.708007	-1.470418	3.174435	0.000000	-0.298271	0.000000	-0.000000	0.000000	0.000000	0.000000
9.097998	16.307295	17.555099	2.121300	-2.143868	2.985147	0.000000	-0.390209	0.000000	-0.000000	0.000000	0.000000	0.000000
9.543958	14.657019	19.313058	1.592359	-1.781439	2.829434	0.000000	-0.308512	0.000000	0.000000	0.000000	0.000000	0.000000
9.984918	13.456506	20.694385	1.140469	-1.339184	2.710637	0.000000	-0.230811	0.000000	0.000000	0.000000	0.000000	0.000000
10.425878	12.630129	21.657216	0.740683	-0.835997	2.625491	0.000000	-0.155740	0.000000	0.000000	0.000000	0.000000	0.000000
10.866838	12.140132	22.157745	0.374737	-0.294772	2.573027	0.000000	-0.082442	0.000000	0.000000	0.000000	0.000000	0.000000
11.309048	11.963992	22.172683	0.055146	0.205430	2.552625	0.000000	-0.016343	0.000000	0.000000	0.000000	0.000000	0.000000
11.606371	11.938611	22.054680	0.030219	0.191455	2.547766	0.000000	-0.016343	0.000000	0.000000	0.000000	0.000000	0.000000
12.086371	11.928918	21.881713	-0.010024	0.168893	2.539921	0.000000	-0.016343	0.000000	0.000001	0.000000	0.000000	0.000000
12.566371	11.957857	21.730406	-0.050266	0.146331	2.532076	0.000000	-0.016343	0.000000	0.000001	0.000000	0.000000	0.000000
13.046371	12.025428	21.600758	-0.090508	0.123769	2.524231	0.000000	-0.016343	0.000000	0.000001	0.000000	0.000000	0.000000
13.526371	12.131633	21.492769	-0.130751	0.101207	2.516386	0.000000	-0.016343	0.000000	0.000001	0.000000	0.000000	0.000000
14.007621	12.276897	21.406243	-0.171098	0.078587	2.508521	0.000000	-0.016343	0.000000	0.000001	0.000000	0.000000	0.000000
14.304943	12.386051	21.363667	-0.165651	0.012222	2.503661	0.000000	-0.022483	0.000000	0.000001	0.000000	0.000000	0.000000
14.745903	12.690914	21.119031	-0.528333	0.540447	2.509375	0.000000	0.048424	0.000000	0.000001	0.000000	0.000000	0.000000
15.186863	13.325028	20.417647	-0.915153	1.044083	2.546448	0.000000	0.119882	0.000000	0.000001	0.000000	0.000000	0.000000
15.627823	14.317364	19.291428	-1.343784	1.500214	2.615302	0.000000	0.192706	0.000000	0.000001	0.000000	0.000000	0.000000
16.068783	15.713260	17.791617	-1.833809	1.888086	2.716720	0.000000	0.267724	0.000000	0.000002	0.000000	0.000000	0.000000
16.514743	17.600144	15.964953	-2.412373	2.190801	2.853554	0.000000	0.346254	0.000000	0.000002	0.000000	0.000000	0.000000
17.063803	20.023257	13.925166	-1.974705	1.546179	3.019945	0.000000	0.258950	0.000000	0.000002	0.000000	0.000000	0.000000
17.612863	21.885856	12.528984	-1.397554	1.011688	3.137068	0.000000	0.167053	0.000000	0.000002	0.000000	0.000000	0.000000
18.161923	23.056375	11.676961	-0.721687	0.549258	3.202845	0.000000	0.072193	0.000000	0.000002	0.000000	0.000000	0.000000
18.710983	23.452135	11.308407	0.005157	0.125949	3.216110	0.000000	-0.023947	0.000000	0.000002	0.000000	0.000000	0.000000
19.009556	23.489459	11.223627	-0.068889	0.128454	3.211469	0.000000	-0.015544	0.000000	0.000002	0.000000	0.000000	0.000000
19.342889	23.540138	11.148054	-0.083147	0.098265	3.206287	0.000000	-0.015544	0.000000	0.000002	0.000000	0.000000	0.000000
19.676223	23.600322	11.092607	-0.097405	0.068076	3.201106	0.000000	-0.015544	0.000000	0.000002	0.000000	0.000000	0.000000
20.010806	23.670584	11.057055	-0.228994	0.092557	3.195925	0.000000	0.000290	0.000000	0.000002	0.000000	0.000000	0.000000
20.308129	23.810685	11.010080	-0.304425	0.094203	3.196011	0.000000	0.008641	0.000000	0.000002	0.000000	0.000000	0.000000
20.857189	23.734319	11.129252	0.442688	-0.312532	3.174546	0.000000	-0.086716	0.000000	0.000003	0.000000	0.000000	0.000000
21.406249	22.849917	11.704598	1.158532	-0.741528	3.101069	0.000000	-0.180534	0.000000	0.000003	-0.000000	0.000000	0.000000
21.955309	21.219950	12.777099	1.792544	-1.223341	2.976886	0.000000	-0.271150	0.000000	0.000002	-0.000000	0.000000	0.000000
22.504369	18.959551	14.423146	2.299939	-1.792291	2.804197	0.000000	-0.356957	0.000000	0.000002	-0.000000	0.000000	0.000000
22.950329	17.178353	15.900796	1.708236	-1.507146	2.662297	0.000000	-0.279773	0.000000	0.000002	-0.000000	0.000000	0.000000
23.391289	15.901102	17.078864	1.199276	-1.154286	2.555245	0.000000	-0.206230	0.000000	0.000002	-0.000000	0.000000	0.000000
23.832249	15.046948	17.921301	0.745107	-0.748906	2.480074	0.000000	-0.135036	0.000000	0.000002	0.000000	0.000000	0.000000
24.273209	14.576866	18.389777	0.324980	-0.309452	2.435928	0.000000	-0.065380	0.000000	0.000002	0.000000	0.000000	0.000000
24.715418	14.469492	18.462730	-0.044904	0.098738	2.422302	0.000000	-0.002409	0.000000	0.000002	0.000000	0.000000	0.000000
25.012741	14.502316	18.408851	-0.065494	0.082477	2.421586	0.000000	-0.002409	0.000000	0.000002	0.000000	0.000000	0.000000
25.346075	14.553673	18.359943	-0.088577	0.064247	2.420783	0.000000	-0.002409	0.000000	0.000002	0.000000	0.000000	0.000000
25.679408	14.620419	18.323189	-0.111661	0.046016	2.419980	0.000000	-0.002409	0.000000	0.000002	0.000000	0.000000	0.000000
26.013991	14.702593	18.298889	-0.015554	-0.120732	2.419149	0.000000	-0.022034	0.000000	0.000003	0.000000	0.000000	0.000000
26.311314	14.717856	18.375583	0.000311	-0.182278	2.412598	0.000000	-0.027951	0.000000	0.000003	0.000000	0.000000	0.000000
26.752274	14.898946	18.336990	-0.412541	0.269467	2.415378	0.000000	0.040571	0.000000	0.000003	0.000000	0.000000	0.000000
27.193234	15.451041	17.903898	-0.844239	0.708952	2.448446	0.000000	0.109554	0.000000	0.000003	0.000000	0.000000	0.000000
27.634194	16.399366	17.096014	-1.314509	1.116180	2.512178	0.000000	0.179785	0.000000	0.000003	0.000000	0.000000	0.000000
28.075154	17.787245	15.950095	-1.844835	1.472622	2.607302	0.000000	0.252064	0.000000	0.000003	0.000000	0.000000	0.000000
28.521114	19.702208	14.501022	-2.464399	1.762976	2.736502	0.000000	0.327657	0.000000	0.000003	0.000000	0.000000	0.000000
29.070174	22.136129	12.886279	-1.942245	1.195307	2.893751	0.000000	0.244294	0.000000	0.000003	0.000000	0.000000	0.000000
29.619234	23.917473	11.844775	-1.282901	0.712776	3.003970	0.000000	0.156598	0.000000	0.000003	0.000000	0.000000	0.000000
30.168294	24.920415	11.302326	-0.532939	0.281015	3.065204	0.000000	0.066124	0.000000	0.000004	0.000000	0.000000	0.000000
30.717354	25.074112	11.220295	0.254668	-0.130730	3.076367	0.000000	-0.025523	0.000000	0.000004	0.000000	0.000000	0.000000
31.015927	24.964841	11.288881	0.176822	-0.128299	3.071146	0.000000	-0.017485	0.000000	0.000004	0.000000	0.000000	0.000000
31.349260	24.851550	11.384418	0.163052	-0.158312	3.065318	0.000000	-0.017485	0.000000	0.000004	0.000000	0.000000	0.000000
31.682593	24.747438	11.499964	0.149283	-0.188326	3.059489	0.000000	-0.017485	0.000000	0.000004	0.000000	0.000000	0.000000
32.017177	24.652167	11.636065	0.135462	-0.218452	3.053639	0.000000	-0.017485	0.000000	0.000004	0.000000	0.000000	0.000000
32.314499	24.575267	11.773926	0.058971	-0.214461	3.048440	0.000000	-0.009520	0.000000	0.000004	0.000000	0.000000	0.000000
32.863559	24.089543	12.248815	0.820439	-0.655557	3.018342	0.000000	-0.099955	0.000000	0.000004	-0.000000	0.000000	0.000000
33.412619	22.794665	13.230725	1.523955	-1.143346	2.939003	0.000000	-0.188617	0.000000	0.000004	-0.000000	0.000000	0.000000
33.961679	20.782096	14.789595	2.119827	-1.712574	2.811832	0.000000	-0.273934	0.000000	0.000003	-0.000000	0.000000	0.000000
34.510739	18.193994	17.036460	2.565965	-2.403785	2.639084	0.000000	-0.354392	0.000000	0.000003	-0.000000	0.000000	0.000000
34.956699	16.181810	19.046110	1.962229	-2.083743	2.497375	0.000000	-0.281488	0.000000	0.000003	-0.000000	0.000000	0.000000
35.397659	14.681459	20.707525	1.453143	-1.669643	2.388626	0.000000	-0.212219	0.000000	0.000003	-0.000000	0.000000	0.000000
35.838619	13.599220	21.968715	1.010446	-1.179575	2.309860	0.000000	-0.145367	0.000000	0.000003	-0.000000	0.000000	0.000000
36.279579	12.885649	22.772297	0.613914	-0.635837	2.260181	0.000000	-0.080170	0.000000	0.000003	-0.000000	0.000000	0.000000
36.721789	12.507455	23.082008	0.275995	-0.119826	2.238996	0.000000	-0.021377	0.000000	0.000003	-0.000000	0.000000	0.000000
37.019112	12.350942	23.157147	0.250413	-0.132892	2.232640	0.000000	-0.021377	0.000000	0.000003	-0.000000	0.000000	0.000000
37.352445	12.193560	23.250625	0.221732	-0.147541	2.225515	0.000000	-0.021377	0.000000	0.000003	-0.000000	0.000000	0.000000
37.685779	12.055299	23.353868	0.193051	-0.162189	2.218389	0.000000	-0.021377	0.000000	0.000003	-0.000000	0.000000	0.000000
38.020362	11.935748	23.467320	0.164263	-0.176893	2.211236	0.000000	-0.021377	0.000000	0.000003	-0.000000	0.000000	0.000000
38.317684	11.845676	23.576393	0.167729	-0.247774	2.204881	0.000000	-0.026784	0.000000	0.000003	-0.000000	0.000000	0.000000
38.758644	11.848868	23.533793	-0.174995	0.344014	2.206993	0.000000	0.036374	0.000000	0.000002	-0.000000	0.000000	0.000000
39.199604	12.156685	22.974219	-0.525714	0.920149	2.237020	0.000000	0.099946	0.000000	0.000003	0.000000	0.000000	0.000000
39.640564	12.783190	21.923130	-0.900451	1.454418	2.295304	0.000000	0.164656	0.000000	0.000003	0.000000	0.000000	0.000000
40.081524	13.757007	20.428351	-1.316327	1.922512	2.382509	0.000000	0.231242	0.000000	0.000003	0.000000	0.000000	0.000000
40.527484	15.140185	18.535324	-1.796166	2.304411	2.501099	0.000000	0.300867	0.000000	0.000003	0.000000	0.000000	0.000000
41.076544	16.905594	16.408154	-1.400131	1.592661	2.645770	0.000000	0.225335	0.000000	0.000003	0.000000	0.000000	0.000000
41.625604	18.178895	14.996062	-0.905198	0.994353	2.747809	0.000000	0.145806	0.000000	0.000003	0.000000	0.000000	0.000000
42.174664	18.870148	14.198470	-0.346326	0.466871	2.805407	0.000000	0.063691	0.000000	0.000003	-0.000000	0.000000	0.000000
42.723724	18.930527	13.958567	0.237009	-0.027357	2.817542	0.000000	-0.019554	0.000000	0.000003	-0.000000	0.000000	0.000000
43.022297	18.823408	13.959512	0.171221	-0.012278	2.813902	0.000000	-0.012192	0.000000	0.000003	-0.000000	0.000000	0.000000
43.502297	18.671635	13.987806	0.144974	-0.046669	2.808050	0.000000	-0.012192	0.000000	0.000003	-0.000000	0.000000	0.000000
43.982297	18.545059	14.049116	0.118726	-0.081059	2.802198	0.000000	-0.012192	0.000000	0.000003	-0.000000	0.000000	0.000000
44.462297	18.443681	14.143440	0.092478	-0.115449	2.796346	0.000000	-0.012192	0.000000	0.000003	-0.000000	0.000000	0.000000
44.942297	18.367501	14.270779	0.066230	-0.149840	2.790493	0.000000	-0.012192	0.000000	0.000003	-0.000000	0.000000	0.000000
45.423547	18.316646	14.431414	-0.050837	-0.112818	2.784643	0.000000	0.001605	0.000000	0.000003	-0.000000	0.000000	0.000000
45.720870	18.351715	14.504704	-0.115060	-0.095785	2.785120	0.000000	0.008881	0.000000	0.000003	-0.000000	0.000000	0.000000
46.269930	18.169050	14.890515	0.445777	-0.611038	2.767431	0.000000	-0.073223	0.000000	0.000002	-0.000000	0.000000	0.000000
46.818990	17.384243	15.862572	0.975126	-1.169815	2.704952	0.000000	-0.154028	0.000000	0.000002	-0.000000	0.000000	0.000000
47.368050	16.052728	17.490114	1.435598	-1.811914	2.598791	0.000000	-0.232102	0.000000	0.000002	-0.000000	0.000000	0.000000
47.917110	14.268558	19.889065	1.794666	-2.583073	2.450833	0.000000	-0.306058	0.000000	0.000002	-0.000000	0.000000	0.000000
48.363070	12.879954	22.022070	1.330105	-2.179772	2.329632	0.000000	-0.237771	0.000000	0.000002	-0.000000	0.000000	0.000000
48.804030	11.887070	23.729940	0.930079	-1.678562	2.239242	0.000000	-0.172590	0.000000	0.000002	-0.000000	0.000000	0.000000
49.244990	11.226976	24.960288	0.572547	-1.100978	2.177134	0.000000	-0.109374	0.000000	0.000002	-0.000000	0.000000	0.000000
49.685950	10.869515	25.657134	0.241172	-0.473301	2.142601	0.000000	-0.047404	0.000000	0.000001	-0.000000	0.000000	0.000000
50.128160	10.798487	25.788491	-0.052820	0.112621	2.135260	0.000000	0.008790	0.000000	0.000001	-0.000000	0.000000	0.000000
50.425482	10.838106	25.724993	-0.080431	0.100945	2.137873	0.000000	0.008790	0.000000	0.000001	-0.000000	0.000000	0.000000
50.758816	10.902045	25.662060	-0.111386	0.087855	2.140803	0.000000	0.008790	0.000000	0.000001	-0.000000	0.000000	0.000000
51.092149	10.986620	25.607852	-0.142340	0.074766	2.143734	0.000000	0.008790	0.000000	0.000001	-0.000000	0.000000	0.000000
51.426732	11.092040	25.562736	-0.083425	-0.145750	2.146653	0.000000	-0.008625	0.000000	0.000001	-0.000000	0.000000	0.000000
51.724055	11.149674	25.652938	-0.083075	-0.220536	2.144089	0.000000	-0.013882	0.000000	0.000001	-0.000000	0.000000	0.000000
52.165015	11.368472	25.562076	-0.414993	0.425806	2.151555	0.000000	0.047777	0.000000	0.000001	-0.000000	0.000000	0.000000
52.605975	11.887217	24.907591	-0.765870	1.052774	2.186305	0.000000	0.109981	0.000000	0.000001	-0.000000	0.000000	0.000000
53.046935	12.729610	23.719262	-1.151739	1.631842	2.248733	0.000000	0.173438	0.000000	0.000001	-0.000000	0.000000	0.000000
53.487895	13.934138	22.051155	-1.590227	2.136662	2.339553	0.000000	0.238869	0.000000	0.000001	-0.000000	0.000000	0.000000
53.933855	15.576471	19.954224	-2.105608	2.545599	2.461301	0.000000	0.307421	0.000000	0.000001	-0.000000	0.000000	0.000000
54.482915	17.690854	17.594768	-1.722510	1.777031	2.609913	0.000000	0.233114	0.000000	0.000001	-0.000000	0.000000	0.000000
55.031975	19.314843	16.005250	-1.217743	1.135037	2.716529	0.000000	0.154673	0.000000	0.000001	-0.000000	0.000000	0.000000
55.581035	20.333726	15.072453	-0.626960	0.573890	2.779259	0.000000	0.073489	0.000000	0.000001	-0.000000	0.000000	0.000000
56.130095	20.675537	14.729935	0.008108	0.053619	2.796989	0.000000	-0.009000	0.000000	0.000001	-0.000000	0.000000	0.000000
56.428668	20.707274	14.681038	-0.060384	0.071664	2.796484	0.000000	-0.001692	0.000000	0.000000	-0.000000	0.000000	0.000000
56.762001	20.752916	14.640870	-0.076540	0.048842	2.795921	0.000000	-0.001692	0.000000	0.000000	-0.000000	0.000000	0.000000
57.095334	20.809328	14.615916	-0.092697	0.026020	2.795357	0.000000	-0.001692	0.000000	0.000000	-0.000000	0.000000	0.000000
57.429918	20.876783	14.606168	-0.108913	0.003113	2.794791	0.000000	-0.001692	0.000000	0.000000	-0.000000	0.000000	0.000000
57.727240	20.945833	14.610369	-0.178051	0.020931	2.794288	0.000000	0.005609	0.000000	0.000000	-0.000000	0.000000	0.000000
58.276300	20.783930	14.868043	0.471179	-0.493001	2.774726	0.000000	-0.076762	0.000000	0.000000	-0.000000	0.000000	0.000000
58.825360	19.923230	15.705932	1.087129	-1.042049	2.710245	0.000000	-0.157771	0.000000	0.000000	-0.000000	0.000000	0.000000
59.374420	18.424530	17.183716	1.626288	-1.665319	2.601988	0.000000	-0.235982	0.000000	-0.000000	-0.000000	0.000000	0.000000
59.923480	16.393689	19.406655	2.050575	-2.407206	2.451877	0.000000	-0.310007	0.000000	-0.000000	-0.000000	0.000000	0.000000
60.369440	14.804034	21.382519	1.526617	-2.004680	2.328918	0.000000	-0.241716	0.000000	-0.000000	-0.000000	0.000000	0.000000
60.810400	13.660448	22.939297	1.076621	-1.512312	2.236781	0.000000	-0.176576	0.000000	-0.000000	-0.000000	0.000000	0.000000
61.251360	12.890616	24.029728	0.675812	-0.951135	2.172898	0.000000	-0.113446	0.000000	-0.000000	-0.000000	0.000000	0.000000
61.692320	12.459365	24.604199	0.305879	-0.346682	2.136542	0.000000	-0.051608	0.000000	-0.000000	-0.000000	0.000000	0.000000
62.134530	12.347043	24.636040	-0.019901	0.213075	2.127303	0.000000	0.004425	0.000000	-0.000001	-0.000000	0.000000	0.000000
62.431853	12.366040	24.513087	-0.043991	0.200459	2.128619	0.000000	0.004425	0.000000	-0.000001	-0.000000	0.000000	0.000000
62.765186	12.404370	24.384163	-0.070999	0.186314	2.130094	0.000000	0.004425	0.000000	-0.000001	-0.000000	0.000000	0.000000
63.098520	12.460705	24.264668	-0.098007	0.172170	2.131569	0.000000	0.004425	0.000000	-0.000001	-0.000000	0.000000	0.000000
63.433103	12.535358	24.154208	-0.125116	0.157972	2.133049	0.000000	0.004425	0.000000	-0.000001	-0.000000	0.000000	0.000000
63.730426	12.616920	24.064022	-0.118265	0.086343	2.134365	0.000000	-0.000810	0.000000	-0.000001	-0.000000	0.000000	0.000000
64.171386	12.881807	23.722839	-0.484719	0.684440	2.147551	0.000000	0.060673	0.000000	-0.000001	-0.000000	0.000000	0.000000
64.612346	13.478384	22.865952	-0.873318	1.251396	2.187975	0.000000	0.122847	0.000000	-0.000001	-0.000000	0.000000	0.000000
65.053306	14.433907	21.532348	-1.301817	1.761414	2.256097	0.000000	0.186420	0.000000	-0.000001	-0.000000	0.000000	0.000000
65.494266	15.792031	19.782706	-1.789793	2.191290	2.352694	0.000000	0.252116	0.000000	-0.000001	-0.000000	0.000000	0.000000
65.940226	17.637977	17.671862	-2.364233	2.522222	2.480438	0.000000	0.321086	0.000000	-0.000001	-0.000000	0.000000	0.000000
66.489286	20.004027	15.310387	-1.919532	1.804106	2.636361	0.000000	0.246041	0.000000	-0.000002	-0.000000	0.000000	0.000000
67.038346	21.803945	13.662720	-1.339244	1.214494	2.749819	0.000000	0.166632	0.000000	-0.000002	-0.000000	0.000000	0.000000
67.587406	22.910594	12.611501	-0.664359	0.711387	2.818800	0.000000	0.084267	0.000000	-0.000002	-0.000000	0.000000	0.000000
68.136466	23.245806	12.081854	0.057453	0.258951	2.842080	0.000000	0.000408	0.000000	-0.000002	-0.000000	0.000000	0.000000
68.435038	23.251603	11.916373	-0.016129	0.263721	2.844419	0.000000	0.007834	0.000000	-0.000002	-0.000000	0.000000	0.000000
68.768372	23.267136	11.750532	-0.030469	0.233803	2.847031	0.000000	0.007834	0.000000	-0.000002	-0.000000	0.000000	0.000000
69.101705	23.292228	11.604636	-0.044809	0.203884	2.849642	0.000000	0.007834	0.000000	-0.000002	-0.000000	0.000000	0.000000
69.436288	23.327028	11.478251	-0.059202	0.173854	2.852263	0.000000	0.007834	0.000000	-0.000002	-0.000000	0.000000	0.000000
69.733611	23.366035	11.382804	-0.133045	0.176910	2.854593	0.000000	0.015293	0.000000	-0.000002	-0.000000	0.000000	0.000000
70.282671	23.110847	11.416405	0.595067	-0.238467	2.839797	0.000000	-0.069109	0.000000	-0.000002	-0.000000	0.000000	0.000000
