#ParticleID	Turn	x[m]	xp	y[m]	yp	z[m]	dE[GeV]# s	beta_x	beta_y	alpha_x	alpha_y	D_x	D_y	D_px	D_py	orbit_x	orbit_px	orbit_y	orbit_py
0.300000	11.828293	24.960759	-0.012869	-0.027714	2.618217	0.000000	-0.000027	0.000000	-0.000000	0.000000	0.000000	0.000000
0.601250	11.843720	24.981095	-0.038342	-0.039792	2.618208	0.000000	-0.000027	0.000000	-0.000000	0.000000	0.000000	0.000000
0.898573	11.873995	25.008301	-0.034364	-0.113040	2.618200	0.000000	-0.006448	0.000000	0.000000	0.000000	0.000000	0.000000
1.339533	12.056611	24.830616	-0.381340	0.514457	2.631650	0.000000	0.067511	0.000000	0.000000	0.000000	0.000000	0.000000
1.780493	12.551729	24.107776	-0.745739	1.118547	2.677852	0.000000	0.142239	0.000000	0.000000	0.000000	0.000000	0.000000
2.221453	13.381970	22.872669	-1.144208	1.671744	2.757332	0.000000	0.218588	0.000000	0.000000	0.000000	0.000000	0.000000
2.662413	14.585265	21.181492	-1.594953	2.148878	2.870994	0.000000	0.297425	0.000000	0.000001	0.000000	0.000000	0.000000
3.108373	16.237386	19.086387	-2.122864	2.529370	3.021995	0.000000	0.380140	0.000000	0.000001	0.000000	0.000000	0.000000
3.657433	18.355915	16.733370	-1.712761	1.781464	3.205443	0.000000	0.287103	0.000000	0.000001	0.000000	0.000000	0.000000
4.206493	19.954599	15.127562	-1.181677	1.160448	3.336332	0.000000	0.188972	0.000000	0.000001	0.000000	0.000000	0.000000
4.755553	20.920514	14.154587	-0.567125	0.622087	3.412341	0.000000	0.087490	0.000000	0.000001	0.000000	0.000000	0.000000
5.304613	21.185432	13.745141	0.087486	0.128037	3.432122	0.000000	-0.015544	0.000000	0.000001	0.000000	0.000000	0.000000
5.603185	21.170456	13.653899	0.018025	0.141644	3.430158	0.000000	-0.006576	0.000000	0.000001	0.000000	0.000000	0.000000
5.936519	21.163689	13.567771	0.002275	0.116741	3.427966	0.000000	-0.006576	0.000000	0.000001	0.000000	0.000000	0.000000
6.269852	21.167423	13.498244	-0.013475	0.091838	3.425774	0.000000	-0.006576	0.000000	0.000002	0.000000	0.000000	0.000000
6.604435	21.181730	13.445153	-0.029285	0.066842	3.423573	0.000000	-0.006576	0.000000	0.000002	0.000000	0.000000	0.000000
6.901758	21.203321	13.412010	-0.098733	0.079672	3.421618	0.000000	0.002364	0.000000	0.000002	0.000000	0.000000	0.000000
7.450818	20.950309	13.585065	0.556815	-0.396718	3.394715	0.000000	-0.100215	0.000000	0.000002	0.000000	0.000000	0.000000
7.999878	19.994863	14.293608	1.173033	-0.901365	3.311897	0.000000	-0.201015	0.000000	0.000002	0.000000	0.000000	0.000000
8.548938	18.404471	15.588106	1.706393	-1.470214	3.174631	0.000000	-0.298251	0.000000	0.000002	0.000000	0.000000	0.000000
9.097998	16.291470	17.560763	2.119222	-2.143783	2.985353	0.000000	-0.390196	0.000000	0.000002	-0.000000	0.000000	0.000000
9.543958	14.642836	19.318557	1.590743	-1.781154	2.829648	0.000000	-0.308492	0.000000	0.000002	0.000000	0.000000	0.000000
9.984918	13.443574	20.699549	1.139236	-1.338714	2.710861	0.000000	-0.230786	0.000000	0.000002	0.000000	0.000000	0.000000
10.425878	12.618135	21.661893	0.739779	-0.835364	2.625727	0.000000	-0.155709	0.000000	0.000002	0.000000	0.000000	0.000000
10.866838	12.128807	22.161802	0.374119	-0.294005	2.573278	0.000000	-0.082405	0.000000	0.000002	0.000000	0.000000	0.000000
11.309048	11.953097	22.176015	0.054759	0.206290	2.552894	0.000000	-0.016300	0.000000	0.000002	0.000000	0.000000	0.000000
11.606371	11.927953	22.057501	0.029811	0.192312	2.548048	0.000000	-0.016300	0.000000	0.000002	0.000000	0.000000	0.000000
12.086371	11.918668	21.883714	-0.010467	0.169746	2.540224	0.000000	-0.016300	0.000000	0.000002	0.000000	0.000000	0.000000
12.566371	11.948049	21.731590	-0.050744	0.147180	2.532399	0.000000	-0.016300	0.000000	0.000002	0.000000	0.000000	0.000000
13.046371	12.016096	21.601129	-0.091022	0.124613	2.524575	0.000000	-0.016300	0.000000	0.000002	0.000000	0.000000	0.000000
13.526371	12.122810	21.492332	-0.131299	0.102047	2.516751	0.000000	-0.016300	0.000000	0.000003	0.000000	0.000000	0.000000
14.007621	12.268620	21.404999	-0.171681	0.079422	2.508907	0.000000	-0.016300	0.000000	0.000003	0.000000	0.000000	0.000000
14.304943	12.378127	21.361927	-0.166276	0.013060	2.504060	0.000000	-0.022441	0.000000	0.000003	0.000000	0.000000	0.000000
14.745903	12.683468	21.116578	-0.528797	0.541220	2.509795	0.000000	0.048477	0.000000	0.000003	0.000000	0.000000	0.000000
15.186863	13.317929	20.414556	-0.915478	1.044754	2.546893	0.000000	0.119946	0.000000	0.000003	0.000000	0.000000	0.000000
15.627823	14.310496	19.287801	-1.343984	1.500753	2.615778	0.000000	0.192782	0.000000	0.000003	0.000000	0.000000	0.000000
16.068783	15.706516	17.787581	-1.833893	1.888469	2.717233	0.000000	0.267813	0.000000	0.000003	0.000001	0.000000	0.000000
16.514743	17.593426	15.960652	-2.412345	2.191010	2.854109	0.000000	0.346357	0.000000	0.000004	0.000001	0.000000	0.000000
17.063803	20.016669	13.920604	-1.974969	1.546450	3.020551	0.000000	0.259034	0.000000	0.000004	0.000000	0.000000	0.000000
17.612863	21.879711	12.524083	-1.398092	1.012039	3.137715	0.000000	0.167117	0.000000	0.000004	0.000000	0.000000	0.000000
18.161923	23.050954	11.671618	-0.722460	0.549714	3.203521	0.000000	0.072235	0.000000	0.000004	0.000000	0.000000	0.000000
18.710983	23.447668	11.302491	0.004203	0.126544	3.216802	0.000000	-0.023927	0.000000	0.000004	0.000000	0.000000	0.000000
19.009556	23.485555	11.217371	-0.069834	0.129014	3.212168	0.000000	-0.015523	0.000000	0.000004	0.000000	0.000000	0.000000
19.342889	23.536865	11.141431	-0.084096	0.098804	3.206994	0.000000	-0.015523	0.000000	0.000004	0.000000	0.000000	0.000000
19.676223	23.597683	11.085632	-0.098358	0.068594	3.201819	0.000000	-0.015523	0.000000	0.000004	0.000000	0.000000	0.000000
20.010806	23.668585	11.049741	-0.229942	0.093017	3.196646	0.000000	0.000315	0.000000	0.000004	0.000000	0.000000	0.000000
20.308129	23.809251	11.002498	-0.305375	0.094623	3.196739	0.000000	0.008668	0.000000	0.000005	0.000000	0.000000	0.000000
20.857189	23.733947	11.121090	0.441712	-0.311889	3.175282	0.000000	-0.086713	0.000000	0.000005	-0.000000	0.000000	0.000000
21.406249	22.850601	11.695587	1.157598	-0.740616	3.101801	0.000000	-0.180555	0.000000	0.000004	-0.000000	0.000000	0.000000
21.955309	21.221606	12.766910	1.791718	-1.222095	2.977600	0.000000	-0.271194	0.000000	0.000004	-0.000000	0.000000	0.000000
22.504369	18.962028	14.411366	2.299279	-1.790622	2.804881	0.000000	-0.357023	0.000000	0.000004	-0.000000	0.000000	0.000000
22.950329	17.181412	15.887640	1.707587	-1.505742	2.662955	0.000000	-0.279822	0.000000	0.000004	-0.000000	0.000000	0.000000
23.391289	15.904739	17.064611	1.198608	-1.153210	2.555885	0.000000	-0.206263	0.000000	0.000004	-0.000000	0.000000	0.000000
23.832249	15.051193	17.906263	0.744389	-0.748208	2.480703	0.000000	-0.135052	0.000000	0.000004	-0.000000	0.000000	0.000000
24.273209	14.581777	18.374302	0.324180	-0.309162	2.436554	0.000000	-0.065380	0.000000	0.000004	-0.000000	0.000000	0.000000
24.715418	14.475160	18.447185	-0.045809	0.098645	2.422931	0.000000	-0.002394	0.000000	0.000004	0.000000	0.000000	0.000000
25.012741	14.508520	18.393365	-0.066393	0.082370	2.422219	0.000000	-0.002394	0.000000	0.000004	0.000000	0.000000	0.000000
25.346075	14.560474	18.344534	-0.089469	0.064125	2.421421	0.000000	-0.002394	0.000000	0.000004	0.000000	0.000000	0.000000
25.679408	14.627812	18.307866	-0.112545	0.045879	2.420623	0.000000	-0.002394	0.000000	0.000004	0.000000	0.000000	0.000000
26.013991	14.710575	18.283663	-0.016366	-0.120761	2.419798	0.000000	-0.022025	0.000000	0.000004	0.000000	0.000000	0.000000
26.311314	14.726318	18.360378	-0.000471	-0.182283	2.413249	0.000000	-0.027943	0.000000	0.000004	-0.000000	0.000000	0.000000
26.752274	14.908192	18.321970	-0.413543	0.269051	2.416036	0.000000	0.040595	0.000000	0.000004	0.000000	0.000000	0.000000
27.193234	15.461284	17.889420	-0.845508	0.708144	2.449119	0.000000	0.109596	0.000000	0.000004	0.000000	0.000000	0.000000
27.634194	16.410865	17.082409	-1.316102	1.115017	2.512874	0.000000	0.179845	0.000000	0.000004	0.000000	0.000000	0.000000
28.075154	17.800319	15.937653	-1.846825	1.471157	2.608028	0.000000	0.252142	0.000000	0.000004	0.000000	0.000000	0.000000
28.521114	19.717269	14.489999	-2.466881	1.761274	2.737267	0.000000	0.327754	0.000000	0.000004	0.000001	0.000000	0.000000
29.070174	22.153721	12.876891	-1.944346	1.194014	2.894563	0.000000	0.244366	0.000000	0.000005	0.000000	0.000000	0.000000
29.619234	23.937093	11.836625	-1.284472	0.711800	3.004814	0.000000	0.156643	0.000000	0.000005	0.000000	0.000000	0.000000
30.168294	24.941416	11.295106	-0.533869	0.280287	3.066065	0.000000	0.066141	0.000000	0.000005	0.000000	0.000000	0.000000
30.717354	25.095751	11.213763	0.254443	-0.131263	3.077229	0.000000	-0.025533	0.000000	0.000005	-0.000000	0.000000	0.000000
31.015927	24.986644	11.282683	0.176554	-0.128867	3.072006	0.000000	-0.017493	0.000000	0.000005	-0.000000	0.000000	0.000000
31.349260	24.873527	11.378606	0.162797	-0.158901	3.066175	0.000000	-0.017493	0.000000	0.000005	-0.000000	0.000000	0.000000
31.682593	24.769581	11.494552	0.149041	-0.188936	3.060344	0.000000	-0.017493	0.000000	0.000005	-0.000000	0.000000	0.000000
32.017177	24.674467	11.631068	0.135233	-0.219083	3.054491	0.000000	-0.017493	0.000000	0.000005	-0.000000	0.000000	0.000000
32.314499	24.597700	11.769309	0.058696	-0.215123	3.049290	0.000000	-0.009526	0.000000	0.000005	-0.000000	0.000000	0.000000
32.863559	24.111866	12.244869	0.820912	-0.656124	3.019180	0.000000	-0.099989	0.000000	0.000005	-0.000000	0.000000	0.000000
33.412619	22.816070	13.227369	1.525143	-1.143860	2.939816	0.000000	-0.188678	0.000000	0.000004	-0.000000	0.000000	0.000000
33.961679	20.801841	14.786791	2.121645	-1.713070	2.812604	0.000000	-0.274020	0.000000	0.000004	-0.000001	0.000000	0.000000
34.510739	18.211453	17.034208	2.568285	-2.404299	2.639802	0.000000	-0.354502	0.000000	0.000004	-0.000001	0.000000	0.000000
34.956699	16.197437	19.044378	1.964032	-2.084391	2.498049	0.000000	-0.281581	0.000000	0.000004	-0.000001	0.000000	0.000000
35.397659	14.695691	20.706412	1.454515	-1.670394	2.389263	0.000000	-0.212294	0.000000	0.000003	-0.000000	0.000000	0.000000
35.838619	13.612408	21.968298	1.011450	-1.180395	2.310468	0.000000	-0.145426	0.000000	0.000003	-0.000000	0.000000	0.000000
36.279579	12.898097	22.772620	0.614596	-0.636689	2.260766	0.000000	-0.080214	0.000000	0.000003	-0.000000	0.000000	0.000000
36.721789	12.519430	23.083084	0.276415	-0.120673	2.239565	0.000000	-0.021408	0.000000	0.000003	-0.000000	0.000000	0.000000
37.019112	12.362662	23.158727	0.250852	-0.133741	2.233200	0.000000	-0.021408	0.000000	0.000003	-0.000000	0.000000	0.000000
37.352445	12.204981	23.252771	0.222192	-0.148392	2.226064	0.000000	-0.021408	0.000000	0.000003	-0.000000	0.000000	0.000000
37.685779	12.066406	23.356583	0.193533	-0.163043	2.218928	0.000000	-0.021408	0.000000	0.000003	-0.000000	0.000000	0.000000
38.020362	11.946525	23.470606	0.164766	-0.177749	2.211766	0.000000	-0.021408	0.000000	0.000003	-0.000000	0.000000	0.000000
38.317684	11.856149	23.580189	0.168276	-0.248641	2.205401	0.000000	-0.026816	0.000000	0.000003	-0.000000	0.000000	0.000000
38.758644	11.858962	23.538307	-0.174680	0.343259	2.207502	0.000000	0.036355	0.000000	0.000003	-0.000000	0.000000	0.000000
39.199604	12.166598	22.979335	-0.525617	0.919541	2.237524	0.000000	0.099941	0.000000	0.000002	-0.000000	0.000000	0.000000
39.640564	12.793112	21.928707	-0.900568	1.453985	2.295809	0.000000	0.164664	0.000000	0.000002	-0.000000	0.000000	0.000000
40.081524	13.767128	20.434226	-1.316664	1.922273	2.383020	0.000000	0.231263	0.000000	0.000002	0.000000	0.000000	0.000000
40.527484	15.150710	18.541321	-1.796738	2.304378	2.501622	0.000000	0.300901	0.000000	0.000002	0.000000	0.000000	0.000000
41.076544	16.916537	16.414257	-1.400315	1.592498	2.646307	0.000000	0.225352	0.000000	0.000003	0.000000	0.000000	0.000000
41.625604	18.189820	15.002423	-0.904980	0.994047	2.748352	0.000000	0.145806	0.000000	0.000003	-0.000000	0.000000	0.000000
42.174664	18.880620	14.205255	-0.345723	0.466400	2.805945	0.000000	0.063673	0.000000	0.000002	-0.000000	0.000000	0.000000
42.723724	18.940143	13.965974	0.237955	-0.028026	2.818065	0.000000	-0.019589	0.000000	0.000002	-0.000000	0.000000	0.000000
43.022297	18.832473	13.967303	0.172145	-0.012916	2.814415	0.000000	-0.012226	0.000000	0.000002	-0.000000	0.000000	0.000000
43.502297	18.679810	13.996202	0.145902	-0.047288	2.808546	0.000000	-0.012226	0.000000	0.000002	-0.000000	0.000000	0.000000
43.982297	18.552341	14.058097	0.119659	-0.081660	2.802678	0.000000	-0.012226	0.000000	0.000002	-0.000000	0.000000	0.000000
44.462297	18.450065	14.152989	0.093416	-0.116032	2.796810	0.000000	-0.012226	0.000000	0.000002	-0.000000	0.000000	0.000000
44.942297	18.372983	14.280877	0.067172	-0.150403	2.790941	0.000000	-0.012226	0.000000	0.000002	-0.000000	0.000000	0.000000
45.423547	18.321219	14.442046	-0.049913	-0.113310	2.785075	0.000000	0.001573	0.000000	0.000002	-0.000000	0.000000	0.000000
45.720870	18.355736	14.515625	-0.114141	-0.096235	2.785543	0.000000	0.008851	0.000000	0.000002	-0.000000	0.000000	0.000000
46.269930	18.171996	14.902117	0.446805	-0.611835	2.767833	0.000000	-0.073267	0.000000	0.000002	-0.000000	0.000000	0.000000
46.818990	17.386033	15.875264	0.976191	-1.171015	2.705326	0.000000	-0.154085	0.000000	0.000001	-0.000000	0.000000	0.000000
47.368050	16.053365	17.504382	1.436623	-1.813603	2.599132	0.000000	-0.232170	0.000000	0.000001	-0.000000	0.000000	0.000000
47.917110	14.268124	19.905510	1.795579	-2.585371	2.451133	0.000000	-0.306137	0.000000	0.000001	-0.000000	0.000000	0.000000
48.363070	12.878742	22.040414	1.330944	-2.181715	2.329899	0.000000	-0.237842	0.000000	0.000001	-0.000000	0.000000	0.000000
48.804030	11.885136	23.749808	0.930883	-1.680062	2.239479	0.000000	-0.172654	0.000000	0.000001	-0.000000	0.000000	0.000000
49.244990	11.224335	24.981258	0.573352	-1.101968	2.177344	0.000000	-0.109433	0.000000	0.000001	-0.000000	0.000000	0.000000
49.685950	10.866150	25.678734	0.242015	-0.473735	2.142786	0.000000	-0.047457	0.000000	0.000000	-0.000000	0.000000	0.000000
50.128160	10.794345	25.810220	-0.051910	0.112708	2.135422	0.000000	0.008741	0.000000	0.000000	-0.000000	0.000000	0.000000
50.425482	10.833424	25.746667	-0.079529	0.101042	2.138021	0.000000	0.008741	0.000000	0.000000	-0.000000	0.000000	0.000000
50.758816	10.896765	25.683665	-0.110492	0.087964	2.140935	0.000000	0.008741	0.000000	0.000000	-0.000000	0.000000	0.000000
51.092149	10.980748	25.629382	-0.141456	0.074885	2.143849	0.000000	0.008741	0.000000	0.000000	-0.000000	0.000000	0.000000
51.426732	11.085579	25.584183	-0.082602	-0.145794	2.146751	0.000000	-0.008675	0.000000	-0.000000	-0.000000	0.000000	0.000000
51.724055	11.142727	25.674408	-0.082281	-0.220624	2.144172	0.000000	-0.013933	0.000000	-0.000000	-0.000000	0.000000	0.000000
52.165015	11.360748	25.583373	-0.414019	0.426286	2.151617	0.000000	0.047729	0.000000	-0.000000	-0.000000	0.000000	0.000000
52.605975	11.878540	24.928221	-0.764674	1.053800	2.186345	0.000000	0.109934	0.000000	-0.000000	-0.000000	0.000000	0.000000
53.046935	12.719760	23.738762	-1.150264	1.633367	2.248753	0.000000	0.173391	0.000000	-0.000001	-0.000000	0.000000	0.000000
53.487895	13.922840	22.069114	-1.588406	2.138618	2.339552	0.000000	0.238823	0.000000	-0.000001	-0.000000	0.000000	0.000000
53.933855	15.563364	19.970278	-2.103355	2.547897	2.461280	0.000000	0.307374	0.000000	-0.000001	-0.000000	0.000000	0.000000
54.482915	17.675439	17.608641	-1.720585	1.778729	2.609866	0.000000	0.233069	0.000000	-0.000001	-0.000000	0.000000	0.000000
55.031975	19.297557	16.017531	-1.216281	1.136256	2.716458	0.000000	0.154629	0.000000	-0.000001	-0.000000	0.000000	0.000000
55.581035	20.315139	15.083617	-0.626065	0.574716	2.779165	0.000000	0.073447	0.000000	-0.000001	-0.000000	0.000000	0.000000
56.130095	20.656308	14.740379	0.008373	0.054112	2.796873	0.000000	-0.009037	0.000000	-0.000001	-0.000000	0.000000	0.000000
56.428668	20.687862	14.691167	-0.060083	0.072197	2.796357	0.000000	-0.001729	0.000000	-0.000002	-0.000000	0.000000	0.000000
56.762001	20.733308	14.650639	-0.076254	0.049389	2.795781	0.000000	-0.001729	0.000000	-0.000002	-0.000000	0.000000	0.000000
57.095334	20.789534	14.625315	-0.092425	0.026582	2.795204	0.000000	-0.001729	0.000000	-0.000002	-0.000000	0.000000	0.000000
57.429918	20.856812	14.615187	-0.108656	0.003689	2.794626	0.000000	-0.001729	0.000000	-0.000002	-0.000000	0.000000	0.000000
57.727240	20.925712	14.619042	-0.177755	0.021542	2.794111	0.000000	0.005571	0.000000	-0.000002	-0.000000	0.000000	0.000000
58.276300	20.763856	14.876179	0.470799	-0.492629	2.774530	0.000000	-0.076794	0.000000	-0.000002	-0.000000	0.000000	0.000000
58.825360	19.903935	15.713778	1.086098	-1.041890	2.710033	0.000000	-0.157797	0.000000	-0.000002	-0.000000	0.000000	0.000000
59.374420	18.406692	17.191499	1.624681	-1.665362	2.601765	0.000000	-0.236000	0.000000	-0.000002	-0.000000	0.000000	0.000000
59.923480	16.377884	19.414597	2.048504	-2.407454	2.451645	0.000000	-0.310018	0.000000	-0.000002	0.000000	0.000000	0.000000
60.369440	14.789864	21.390573	1.525007	-2.004681	2.328680	0.000000	-0.241733	0.000000	-0.000002	-0.000000	0.000000	0.000000
60.810400	13.647526	22.947242	1.075394	-1.512067	2.236534	0.000000	-0.176599	0.000000	-0.000002	-0.000000	0.000000	0.000000
61.251360	12.878627	24.037352	0.674913	-0.950656	2.172639	0.000000	-0.113476	0.000000	-0.000002	-0.000000	0.000000	0.000000
61.692320	12.448041	24.611305	0.305266	-0.345990	2.136268	0.000000	-0.051645	0.000000	-0.000002	-0.000000	0.000000	0.000000
62.134530	12.336145	24.642452	-0.020282	0.213932	2.127011	0.000000	0.004381	0.000000	-0.000002	-0.000000	0.000000	0.000000
62.431853	12.355375	24.518989	-0.044394	0.201314	2.128314	0.000000	0.004381	0.000000	-0.000002	-0.000000	0.000000	0.000000
62.765186	12.393981	24.389495	-0.071426	0.187168	2.129774	0.000000	0.004381	0.000000	-0.000002	-0.000000	0.000000	0.000000
63.098520	12.450609	24.269432	-0.098458	0.173022	2.131235	0.000000	0.004381	0.000000	-0.000002	-0.000000	0.000000	0.000000
63.433103	12.525572	24.158402	-0.125591	0.158823	2.132701	0.000000	0.004381	0.000000	-0.000002	-0.000000	0.000000	0.000000
63.730426	12.607423	24.067710	-0.118785	0.087183	2.134003	0.000000	-0.000852	0.000000	-0.000003	-0.000000	0.000000	0.000000
64.171386	12.872678	23.725749	-0.485035	0.685356	2.147169	0.000000	0.060621	0.000000	-0.000003	-0.000000	0.000000	0.000000
64.612346	13.469449	22.868036	-0.873445	1.252346	2.187568	0.000000	0.122784	0.000000	-0.000003	-0.000000	0.000000	0.000000
65.053306	14.425003	21.533595	-1.301761	1.762356	2.255660	0.000000	0.186346	0.000000	-0.000003	-0.000000	0.000000	0.000000
65.494266	15.782995	19.783143	-1.789550	2.192179	2.352222	0.000000	0.252031	0.000000	-0.000003	-0.000001	0.000000	0.000000
65.940226	17.628637	17.671544	-2.363792	2.523017	2.479925	0.000000	0.320988	0.000000	-0.000003	-0.000001	0.000000	0.000000
66.489286	19.994397	15.309252	-1.919448	1.804810	2.635799	0.000000	0.245960	0.000000	-0.000004	-0.000000	0.000000	0.000000
67.038346	21.794423	13.660839	-1.339524	1.215156	2.749218	0.000000	0.166570	0.000000	-0.000004	-0.000000	0.000000	0.000000
67.587406	22.901571	12.608894	-0.664982	0.712055	2.818171	0.000000	0.084226	0.000000	-0.000004	-0.000000	0.000000	0.000000
68.136466	23.237637	12.078488	0.056530	0.259672	2.841434	0.000000	0.000387	0.000000	-0.000004	-0.000000	0.000000	0.000000
68.435038	23.243974	11.912587	-0.017036	0.264416	2.843766	0.000000	0.007811	0.000000	-0.000004	-0.000000	0.000000	0.000000
68.768372	23.260113	11.746289	-0.031381	0.234478	2.846370	0.000000	0.007811	0.000000	-0.000004	-0.000000	0.000000	0.000000
69.101705	23.285815	11.599949	-0.045726	0.204540	2.848974	0.000000	0.007811	0.000000	-0.000004	-0.000000	0.000000	0.000000
69.436288	23.321231	11.473132	-0.060125	0.174490	2.851588	0.000000	0.007811	0.000000	-0.000004	-0.000000	0.000000	0.000000
69.733611	23.360788	11.377312	-0.133959	0.177514	2.853910	0.000000	0.015268	0.000000	-0.000004	-0.000000	0.000000	0.000000
70.282671	23.106690	11.410162	0.594006	-0.237697	2.839107	0.000000	-0.069111	0.000000	-0.000004	0.000000	0.000000	0.000000
