#ParticleID	Turn	x[m]	xp	y[m]	yp	z[m]	dE[GeV]# s	beta_x	beta_y	alpha_x	alpha_y	D_x	D_y	D_px	D_py	orbit_x	orbit_px	orbit_y	orbit_py
0.300000	11.807268	25.044091	-0.010422	-0.026963	2.618218	0.000000	-0.000029	0.000000	-0.000001	0.000002	0.000000	0.000000
0.601250	11.821234	25.063962	-0.035938	-0.039001	2.618209	0.000000	-0.000029	0.000000	-0.000000	0.000002	0.000000	0.000000
0.898573	11.850092	25.090686	-0.032063	-0.112411	2.618200	0.000000	-0.006450	0.000000	0.000000	0.000002	0.000000	0.000000
1.339533	12.030421	24.911487	-0.378434	0.517250	2.631649	0.000000	0.067510	0.000000	0.000001	0.000002	0.000000	0.000000
1.780493	12.522663	24.185273	-0.742096	1.123376	2.677849	0.000000	0.142238	0.000000	0.000001	0.000002	0.000000	0.000000
2.221453	13.349307	22.945086	-1.139662	1.678390	2.757327	0.000000	0.218586	0.000000	0.000002	0.000002	0.000000	0.000000
2.662413	14.548121	21.247355	-1.589296	2.157038	2.870988	0.000000	0.297424	0.000000	0.000003	0.000002	0.000000	0.000000
3.108373	16.194601	19.144429	-2.115826	2.538676	3.021988	0.000000	0.380138	0.000000	0.000004	0.000002	0.000000	0.000000
3.657433	18.305965	16.782496	-1.706826	1.788492	3.205434	0.000000	0.287101	0.000000	0.000004	0.000002	0.000000	0.000000
4.206493	19.898934	15.169986	-1.177264	1.165698	3.336322	0.000000	0.188971	0.000000	0.000005	0.000001	0.000000	0.000000
4.755553	20.860988	14.192045	-0.564546	0.625935	3.412330	0.000000	0.087489	0.000000	0.000006	0.000001	0.000000	0.000000
5.304613	21.124171	13.779015	0.088049	0.130755	3.432109	0.000000	-0.015544	0.000000	0.000007	0.000001	0.000000	0.000000
5.603185	21.108775	13.686088	0.018709	0.144483	3.430145	0.000000	-0.006577	0.000000	0.000007	0.000001	0.000000	0.000000
5.936519	21.101567	13.598053	0.002912	0.119619	3.427952	0.000000	-0.006577	0.000000	0.000007	0.000001	0.000000	0.000000
6.269852	21.104891	13.526595	-0.012884	0.094755	3.425760	0.000000	-0.006577	0.000000	0.000008	0.000001	0.000000	0.000000
6.604435	21.118818	13.471538	-0.028740	0.069798	3.423558	0.000000	-0.006577	0.000000	0.000008	0.000001	0.000000	0.000000
6.901758	21.140098	13.436627	-0.098062	0.082725	3.421603	0.000000	0.002362	0.000000	0.000008	0.000001	0.000000	0.000000
7.450818	20.887515	13.606698	0.555367	-0.394303	3.394699	0.000000	-0.100216	0.000000	0.000009	0.000001	0.000000	0.000000
7.999878	19.934782	14.312860	1.169568	-0.899417	3.311879	0.000000	-0.201016	0.000000	0.000009	0.000001	0.000000	0.000000
8.548938	18.349195	15.605410	1.701157	-1.468593	3.174613	0.000000	-0.298251	0.000000	0.000009	0.000000	0.000000	0.000000
9.097998	16.242753	17.576414	2.112584	-2.142375	2.985336	0.000000	-0.390195	0.000000	0.000010	-0.000000	0.000000	0.000000
9.543958	14.599377	19.332658	1.585548	-1.779097	2.829630	0.000000	-0.308492	0.000000	0.000010	0.000000	0.000000	0.000000
9.984918	13.404154	20.711585	1.135236	-1.336106	2.710843	0.000000	-0.230787	0.000000	0.000010	0.000000	0.000000	0.000000
10.425878	12.581785	21.671429	0.736790	-0.832324	2.625709	0.000000	-0.155710	0.000000	0.000010	0.000001	0.000000	0.000000
10.866838	12.094699	22.168517	0.372005	-0.290672	2.573258	0.000000	-0.082407	0.000000	0.000010	0.000001	0.000000	0.000000
11.309048	11.920508	22.179708	0.053342	0.209760	2.552874	0.000000	-0.016301	0.000000	0.000011	0.000001	0.000000	0.000000
11.606371	11.896225	22.059136	0.028329	0.195765	2.548027	0.000000	-0.016301	0.000000	0.000011	0.000001	0.000000	0.000000
12.086371	11.888413	21.882047	-0.012053	0.173171	2.540202	0.000000	-0.016301	0.000000	0.000012	0.000001	0.000000	0.000000
12.566371	11.919366	21.726648	-0.052434	0.150577	2.532376	0.000000	-0.016301	0.000000	0.000012	0.000001	0.000000	0.000000
13.046371	11.989086	21.592939	-0.092815	0.127984	2.524551	0.000000	-0.016301	0.000000	0.000013	0.000001	0.000000	0.000000
13.526371	12.097572	21.480919	-0.133197	0.105390	2.516726	0.000000	-0.016301	0.000000	0.000013	0.000001	0.000000	0.000000
14.007621	12.245258	21.390383	-0.173683	0.082738	2.508880	0.000000	-0.016301	0.000000	0.000014	0.000001	0.000000	0.000000
14.304943	12.355974	21.345344	-0.168400	0.016405	2.504033	0.000000	-0.022441	0.000000	0.000014	0.000001	0.000000	0.000000
14.745903	12.662990	21.097264	-0.530485	0.544045	2.509767	0.000000	0.048475	0.000000	0.000015	0.000001	0.000000	0.000000
15.186863	13.298777	20.393028	-0.916808	1.046930	2.546864	0.000000	0.119944	0.000000	0.000015	0.000002	0.000000	0.000000
15.627823	14.292382	19.264677	-1.345016	1.502182	2.615747	0.000000	0.192779	0.000000	0.000016	0.000002	0.000000	0.000000
16.068783	15.689200	17.763552	-1.834675	1.889085	2.717200	0.000000	0.267809	0.000000	0.000018	0.000003	0.000000	0.000000
16.514743	17.576709	15.936451	-2.412912	2.190779	2.854073	0.000000	0.346352	0.000000	0.000019	0.000003	0.000000	0.000000
17.063803	20.001022	13.896376	-1.976335	1.546729	3.020512	0.000000	0.259031	0.000000	0.000020	0.000003	0.000000	0.000000
17.612863	21.865961	12.499261	-1.400159	1.012848	3.137673	0.000000	0.167115	0.000000	0.000022	0.000002	0.000000	0.000000
18.161923	23.039796	11.645593	-0.725083	0.551110	3.203478	0.000000	0.072235	0.000000	0.000023	0.000001	0.000000	0.000000
18.710983	23.439613	11.274566	0.001209	0.128627	3.216759	0.000000	-0.023926	0.000000	0.000023	0.000000	0.000000	0.000000
19.009556	23.479272	11.188274	-0.072806	0.130936	3.212124	0.000000	-0.015523	0.000000	0.000023	0.000000	0.000000	0.000000
19.342889	23.532567	11.111085	-0.087078	0.100632	3.206950	0.000000	-0.015523	0.000000	0.000023	0.000000	0.000000	0.000000
19.676223	23.595377	11.054098	-0.101351	0.070328	3.201775	0.000000	-0.015523	0.000000	0.000023	0.000000	0.000000	0.000000
20.010806	23.668283	11.017078	-0.232942	0.094496	3.196601	0.000000	0.000315	0.000000	0.000024	0.000001	0.000000	0.000000
20.308129	23.810739	10.968982	-0.308386	0.095922	3.196694	0.000000	0.008665	0.000000	0.000024	0.000001	0.000000	0.000000
20.857189	23.738700	11.085625	0.438814	-0.309619	3.175236	0.000000	-0.086713	0.000000	0.000024	-0.000000	0.000000	0.000000
21.406249	22.858379	11.657026	1.155019	-0.737213	3.101755	0.000000	-0.180554	0.000000	0.000024	-0.000001	0.000000	0.000000
21.955309	21.231956	12.723883	1.789639	-1.217317	2.977555	0.000000	-0.271192	0.000000	0.000023	-0.000002	0.000000	0.000000
22.504369	18.974316	14.362186	2.297847	-1.784128	2.804839	0.000000	-0.357020	0.000000	0.000022	-0.000002	0.000000	0.000000
22.950329	17.195016	15.833158	1.706053	-1.500396	2.662914	0.000000	-0.279820	0.000000	0.000021	-0.000002	0.000000	0.000000
23.391289	15.919767	17.006010	1.196900	-1.149251	2.555846	0.000000	-0.206261	0.000000	0.000020	-0.000001	0.000000	0.000000
23.832249	15.067832	17.844850	0.742430	-0.745816	2.480665	0.000000	-0.135052	0.000000	0.000020	-0.000001	0.000000	0.000000
24.273209	14.600288	18.311514	0.321879	-0.308446	2.436516	0.000000	-0.065381	0.000000	0.000020	-0.000000	0.000000	0.000000
24.715418	14.495895	18.384522	-0.048510	0.097812	2.422892	0.000000	-0.002395	0.000000	0.000020	0.000000	0.000000	0.000000
25.012741	14.530854	18.331213	-0.069070	0.081485	2.422180	0.000000	-0.002395	0.000000	0.000020	0.000000	0.000000	0.000000
25.346075	14.584584	18.282991	-0.092119	0.063180	2.421382	0.000000	-0.002395	0.000000	0.000020	0.000000	0.000000	0.000000
25.679408	14.653679	18.246972	-0.115168	0.044876	2.420584	0.000000	-0.002395	0.000000	0.000020	0.000000	0.000000	0.000000
26.013991	14.738188	18.223460	-0.018738	-0.121335	2.419758	0.000000	-0.022025	0.000000	0.000020	0.000000	0.000000	0.000000
26.311314	14.755330	18.300534	-0.002741	-0.182761	2.413209	0.000000	-0.027942	0.000000	0.000020	0.000000	0.000000	0.000000
26.752274	14.939526	18.263263	-0.416560	0.266962	2.415996	0.000000	0.040595	0.000000	0.000020	0.000001	0.000000	0.000000
27.193234	15.495658	17.833234	-0.849410	0.704538	2.449078	0.000000	0.109595	0.000000	0.000020	0.000001	0.000000	0.000000
27.634194	16.449135	17.030013	-1.321067	1.110058	2.512832	0.000000	0.179843	0.000000	0.000021	0.000002	0.000000	0.000000
28.075154	17.843518	15.890146	-1.853081	1.465071	2.607984	0.000000	0.252139	0.000000	0.000022	0.000002	0.000000	0.000000
28.521114	19.766735	14.448323	-2.474727	1.754337	2.737221	0.000000	0.327750	0.000000	0.000023	0.000003	0.000000	0.000000
29.070174	22.211147	12.841916	-1.950909	1.188673	2.894513	0.000000	0.244363	0.000000	0.000024	0.000002	0.000000	0.000000
29.619234	24.000805	11.806816	-1.289288	0.707676	3.004762	0.000000	0.156641	0.000000	0.000025	0.000001	0.000000	0.000000
30.168294	25.009297	11.269297	-0.536599	0.277084	3.066013	0.000000	0.066142	0.000000	0.000025	0.000000	0.000000	0.000000
30.717354	25.165388	11.191071	0.253993	-0.133771	3.077178	0.000000	-0.025532	0.000000	0.000025	-0.000000	0.000000	0.000000
31.015927	25.056641	11.261547	0.175970	-0.131508	3.071955	0.000000	-0.017493	0.000000	0.000025	-0.000000	0.000000	0.000000
31.349260	24.943899	11.359256	0.162255	-0.161619	3.066124	0.000000	-0.017493	0.000000	0.000025	-0.000000	0.000000	0.000000
31.682593	24.840301	11.477039	0.148540	-0.191730	3.060293	0.000000	-0.017493	0.000000	0.000025	-0.000000	0.000000	0.000000
32.017177	24.745509	11.615451	0.134773	-0.221954	3.054440	0.000000	-0.017493	0.000000	0.000025	-0.000000	0.000000	0.000000
32.314499	24.669004	11.755420	0.058097	-0.218104	3.049239	0.000000	-0.009528	0.000000	0.000025	-0.000000	0.000000	0.000000
32.863559	24.182524	12.234111	0.822680	-0.658878	3.019130	0.000000	-0.099989	0.000000	0.000024	-0.000001	0.000000	0.000000
33.412619	22.883537	13.219600	1.529153	-1.146583	2.939767	0.000000	-0.188676	0.000000	0.000023	-0.000002	0.000000	0.000000
33.961679	20.863795	14.782083	2.127614	-1.715956	2.812558	0.000000	-0.274017	0.000000	0.000022	-0.000003	0.000000	0.000000
34.510739	18.265964	17.032852	2.575790	-2.407553	2.639759	0.000000	-0.354497	0.000000	0.000021	-0.000003	0.000000	0.000000
34.956699	16.246007	19.046106	1.969895	-2.088025	2.498008	0.000000	-0.281577	0.000000	0.000019	-0.000003	0.000000	0.000000
35.397659	14.739708	20.711451	1.459016	-1.674238	2.389225	0.000000	-0.212292	0.000000	0.000018	-0.000002	0.000000	0.000000
35.838619	13.652979	21.976755	1.014795	-1.184274	2.310432	0.000000	-0.145424	0.000000	0.000017	-0.000002	0.000000	0.000000
36.279579	12.936168	22.784449	0.616938	-0.640426	2.260731	0.000000	-0.080213	0.000000	0.000016	-0.000001	0.000000	0.000000
36.721789	12.555834	23.098092	0.277947	-0.124129	2.239531	0.000000	-0.021407	0.000000	0.000016	-0.000001	0.000000	0.000000
37.019112	12.398138	23.175791	0.252438	-0.137199	2.233166	0.000000	-0.021407	0.000000	0.000015	-0.000001	0.000000	0.000000
37.352445	12.239379	23.272142	0.223839	-0.151853	2.226031	0.000000	-0.021407	0.000000	0.000015	-0.000001	0.000000	0.000000
37.685779	12.099687	23.378261	0.195240	-0.166506	2.218896	0.000000	-0.021407	0.000000	0.000015	-0.000001	0.000000	0.000000
38.020362	11.978644	23.494603	0.166533	-0.181215	2.211734	0.000000	-0.021407	0.000000	0.000014	-0.000001	0.000000	0.000000
38.317684	11.887200	23.606248	0.170171	-0.252168	2.205370	0.000000	-0.026814	0.000000	0.000014	-0.000001	0.000000	0.000000
38.758644	11.888650	23.567160	-0.173473	0.340471	2.207472	0.000000	0.036356	0.000000	0.000014	-0.000001	0.000000	0.000000
39.199604	12.195503	23.010274	-0.525042	0.917619	2.237494	0.000000	0.099941	0.000000	0.000013	-0.000000	0.000000	0.000000
39.640564	12.821779	21.960925	-0.900599	1.453016	2.295779	0.000000	0.164663	0.000000	0.000013	-0.000000	0.000000	0.000000
40.081524	13.796088	20.466859	-1.317302	1.922302	2.382989	0.000000	0.231262	0.000000	0.000013	0.000000	0.000000	0.000000
40.527484	15.180524	18.573478	-1.798017	2.305410	2.501591	0.000000	0.300899	0.000000	0.000013	0.000001	0.000000	0.000000
41.076544	16.947139	16.445739	-1.400462	1.592702	2.646275	0.000000	0.225351	0.000000	0.000014	0.000000	0.000000	0.000000
41.625604	18.219953	15.034125	-0.903986	0.993439	2.748319	0.000000	0.145805	0.000000	0.000014	-0.000000	0.000000	0.000000
42.174664	18.909063	14.238089	-0.343656	0.464936	2.805912	0.000000	0.063674	0.000000	0.000013	-0.000001	0.000000	0.000000
42.723724	18.965791	14.000930	0.240948	-0.030451	2.818034	0.000000	-0.019587	0.000000	0.000013	-0.000001	0.000000	0.000000
43.022297	18.856371	14.003639	0.175079	-0.015199	2.814384	0.000000	-0.012225	0.000000	0.000012	-0.000001	0.000000	0.000000
43.502297	18.700888	14.034686	0.148844	-0.049484	2.808517	0.000000	-0.012225	0.000000	0.000012	-0.000001	0.000000	0.000000
43.982297	18.570591	14.098647	0.122608	-0.083768	2.802649	0.000000	-0.012225	0.000000	0.000011	-0.000001	0.000000	0.000000
44.462297	18.465481	14.195521	0.096372	-0.118053	2.796782	0.000000	-0.012225	0.000000	0.000011	-0.000001	0.000000	0.000000
44.942297	18.385558	14.325309	0.070136	-0.152338	2.790915	0.000000	-0.012225	0.000000	0.000010	-0.000001	0.000000	0.000000
45.423547	18.330938	14.488297	-0.046990	-0.114928	2.785049	0.000000	0.001574	0.000000	0.000010	-0.000001	0.000000	0.000000
45.720870	18.363713	14.562820	-0.111223	-0.097674	2.785518	0.000000	0.008851	0.000000	0.000009	-0.000001	0.000000	0.000000
46.269930	18.176647	14.951688	0.449908	-0.614750	2.767809	0.000000	-0.073265	0.000000	0.000009	-0.000001	0.000000	0.000000
46.818990	17.387276	15.928937	0.979259	-1.175614	2.705304	0.000000	-0.154083	0.000000	0.000008	-0.000002	0.000000	0.000000
47.368050	16.051357	17.564174	1.439440	-1.820214	2.599111	0.000000	-0.232167	0.000000	0.000007	-0.000002	0.000000	0.000000
47.917110	14.263253	19.973873	1.797946	-2.594463	2.451115	0.000000	-0.306133	0.000000	0.000006	-0.000002	0.000000	0.000000
48.363070	12.871826	22.116241	1.333179	-2.189288	2.329883	0.000000	-0.237840	0.000000	0.000005	-0.000002	0.000000	0.000000
48.804030	11.876267	23.831517	0.933092	-1.685778	2.239465	0.000000	-0.172652	0.000000	0.000004	-0.000002	0.000000	0.000000
49.244990	11.213493	25.067090	0.575636	-1.105566	2.177331	0.000000	-0.109431	0.000000	0.000004	-0.000002	0.000000	0.000000
49.685950	10.853222	25.766741	0.244478	-0.475051	2.142775	0.000000	-0.047455	0.000000	0.000003	-0.000002	0.000000	0.000000
50.128160	10.779117	25.898353	-0.049193	0.113520	2.135412	0.000000	0.008743	0.000000	0.000002	-0.000002	0.000000	0.000000
50.425482	10.816591	25.834307	-0.076843	0.101891	2.138012	0.000000	0.008743	0.000000	0.000002	-0.000002	0.000000	0.000000
50.758816	10.878153	25.770725	-0.107842	0.088855	2.140927	0.000000	0.008743	0.000000	0.000001	-0.000002	0.000000	0.000000
51.092149	10.960380	25.715834	-0.138841	0.075818	2.143842	0.000000	0.008743	0.000000	0.000001	-0.000002	0.000000	0.000000
51.426732	11.063474	25.669998	-0.080202	-0.145515	2.146745	0.000000	-0.008673	0.000000	0.000000	-0.000002	0.000000	0.000000
51.724055	11.119207	25.760045	-0.079981	-0.220515	2.144167	0.000000	-0.013931	0.000000	-0.000000	-0.000002	0.000000	0.000000
52.165015	11.334947	25.667913	-0.411126	0.428653	2.151613	0.000000	0.047730	0.000000	-0.000001	-0.000002	0.000000	0.000000
52.605975	11.849878	25.009714	-0.761054	1.058318	2.186342	0.000000	0.109935	0.000000	-0.000002	-0.000002	0.000000	0.000000
53.046935	12.687526	23.815393	-1.145753	1.639831	2.248752	0.000000	0.173392	0.000000	-0.000003	-0.000002	0.000000	0.000000
53.487895	13.886159	22.139292	-1.582797	2.146732	2.339552	0.000000	0.238824	0.000000	-0.000003	-0.000002	0.000000	0.000000
53.933855	15.521091	20.032614	-2.096381	2.557297	2.461281	0.000000	0.307375	0.000000	-0.000004	-0.000002	0.000000	0.000000
54.482915	17.626063	17.662015	-1.714699	1.785748	2.609869	0.000000	0.233070	0.000000	-0.000005	-0.000002	0.000000	0.000000
55.031975	19.242510	16.064269	-1.211900	1.141394	2.716462	0.000000	0.154631	0.000000	-0.000006	-0.000002	0.000000	0.000000
55.581035	20.256254	15.125574	-0.623498	0.578339	2.779170	0.000000	0.073449	0.000000	-0.000007	-0.000001	0.000000	0.000000
56.130095	20.595690	14.779067	0.008944	0.056477	2.796880	0.000000	-0.009036	0.000000	-0.000007	-0.000001	0.000000	0.000000
56.428668	20.626822	14.728368	-0.059398	0.074710	2.796364	0.000000	-0.001728	0.000000	-0.000008	-0.000001	0.000000	0.000000
56.762001	20.671827	14.686148	-0.075615	0.051951	2.795789	0.000000	-0.001728	0.000000	-0.000008	-0.000001	0.000000	0.000000
57.095334	20.727642	14.659100	-0.091832	0.029193	2.795213	0.000000	-0.001728	0.000000	-0.000008	-0.000001	0.000000	0.000000
57.429918	20.794540	14.647208	-0.108110	0.006349	2.794635	0.000000	-0.001728	0.000000	-0.000009	-0.000001	0.000000	0.000000
57.727240	20.863128	14.649468	-0.177091	0.024328	2.794122	0.000000	0.005573	0.000000	-0.000009	-0.000001	0.000000	0.000000
58.276300	20.701697	14.904011	0.469364	-0.490662	2.774541	0.000000	-0.076792	0.000000	-0.000010	-0.000001	0.000000	0.000000
58.825360	19.844465	15.739833	1.082666	-1.040602	2.710046	0.000000	-0.157795	0.000000	-0.000010	-0.000001	0.000000	0.000000
59.374420	18.351982	17.216469	1.619494	-1.664661	2.601778	0.000000	-0.236000	0.000000	-0.000010	-0.000000	0.000000	0.000000
59.923480	16.329670	19.439095	2.041929	-2.407291	2.451659	0.000000	-0.310018	0.000000	-0.000010	0.000000	0.000000	0.000000
60.369440	14.746860	21.414548	1.519860	-2.003676	2.328694	0.000000	-0.241733	0.000000	-0.000010	-0.000000	0.000000	0.000000
60.810400	13.608524	22.969977	1.071428	-1.510271	2.236548	0.000000	-0.176598	0.000000	-0.000010	-0.000000	0.000000	0.000000
61.251360	12.842670	24.058184	0.671947	-0.948151	2.172654	0.000000	-0.113475	0.000000	-0.000011	-0.000001	0.000000	0.000000
61.692320	12.414309	24.629656	0.303166	-0.342891	2.136284	0.000000	-0.051644	0.000000	-0.000011	-0.000001	0.000000	0.000000
62.134530	12.303924	24.657849	-0.021690	0.217442	2.127028	0.000000	0.004383	0.000000	-0.000011	-0.000001	0.000000	0.000000
62.431853	12.324010	24.532302	-0.045867	0.204814	2.128332	0.000000	0.004383	0.000000	-0.000012	-0.000001	0.000000	0.000000
62.765186	12.363623	24.400479	-0.072971	0.190657	2.129793	0.000000	0.004383	0.000000	-0.000012	-0.000001	0.000000	0.000000
63.098520	12.421305	24.278093	-0.100075	0.176499	2.131254	0.000000	0.004383	0.000000	-0.000012	-0.000001	0.000000	0.000000
63.433103	12.497375	24.164741	-0.127281	0.162289	2.132721	0.000000	0.004383	0.000000	-0.000013	-0.000001	0.000000	0.000000
63.730426	12.580250	24.071991	-0.120603	0.090621	2.134025	0.000000	-0.000851	0.000000	-0.000013	-0.000001	0.000000	0.000000
64.171386	12.846850	23.726977	-0.486281	0.688818	2.147191	0.000000	0.060622	0.000000	-0.000014	-0.000001	0.000000	0.000000
64.612346	13.444490	22.866258	-0.874176	1.255675	2.187591	0.000000	0.122787	0.000000	-0.000015	-0.000002	0.000000	0.000000
65.053306	14.400472	21.528997	-1.302009	1.765399	2.255686	0.000000	0.186349	0.000000	-0.000015	-0.000002	0.000000	0.000000
65.494266	15.758475	19.776038	-1.789327	2.194799	2.352250	0.000000	0.252034	0.000000	-0.000017	-0.000003	0.000000	0.000000
65.940226	17.603702	17.662341	-2.363085	2.525088	2.479955	0.000000	0.320992	0.000000	-0.000018	-0.000003	0.000000	0.000000
66.489286	19.969236	15.297828	-1.919747	1.806806	2.635833	0.000000	0.245963	0.000000	-0.000019	-0.000003	0.000000	0.000000
67.038346	21.770136	13.647201	-1.340809	1.217219	2.749254	0.000000	0.166572	0.000000	-0.000021	-0.000002	0.000000	0.000000
67.587406	22.879197	12.592888	-0.667162	0.714331	2.818208	0.000000	0.084227	0.000000	-0.000021	-0.000001	0.000000	0.000000
68.136466	23.218080	12.059792	0.053609	0.262324	2.841472	0.000000	0.000387	0.000000	-0.000022	-0.000000	0.000000	0.000000
68.435038	23.226139	11.892358	-0.019927	0.266944	2.843805	0.000000	0.007812	0.000000	-0.000022	-0.000001	0.000000	0.000000
68.768372	23.244209	11.724404	-0.034284	0.236918	2.846409	0.000000	0.007812	0.000000	-0.000022	-0.000001	0.000000	0.000000
69.101705	23.271851	11.576467	-0.048641	0.206891	2.849013	0.000000	0.007812	0.000000	-0.000022	-0.000001	0.000000	0.000000
69.436288	23.309222	11.448106	-0.063052	0.176752	2.851627	0.000000	0.007812	0.000000	-0.000023	-0.000001	0.000000	0.000000
69.733611	23.350523	11.350965	-0.136881	0.179633	2.853950	0.000000	0.015271	0.000000	-0.000023	-0.000001	0.000000	0.000000
70.282671	23.099794	11.381075	0.590830	-0.234796	2.839148	0.000000	-0.069110	0.000000	-0.000023	0.000000	0.000000	0.000000
