#ParticleID	Turn	x[m]	xp	y[m]	yp	z[m]	dE[GeV]# s	beta_x	beta_y	alpha_x	alpha_y	D_x	D_y	D_px	D_py	orbit_x	orbit_px	orbit_y	orbit_py
0.300000	11.827820	24.962513	-0.012804	-0.027705	2.618209	0.000000	-0.000024	0.000000	-0.000000	0.000000	0.000000	0.000000
0.601250	11.843208	24.982844	-0.038278	-0.039783	2.618201	0.000000	-0.000024	0.000000	-0.000000	0.000000	0.000000	0.000000
0.898573	11.873446	25.010044	-0.034303	-0.113034	2.618194	0.000000	-0.006445	0.000000	-0.000000	0.000000	0.000000	0.000000
1.339533	12.056002	24.832334	-0.381265	0.514509	2.631646	0.000000	0.067514	0.000000	-0.000000	0.000000	0.000000	0.000000
1.780493	12.551046	24.109428	-0.745646	1.118642	2.677849	0.000000	0.142243	0.000000	0.000000	0.000000	0.000000	0.000000
2.221453	13.381196	22.874220	-1.144093	1.671879	2.757330	0.000000	0.218591	0.000000	0.000000	0.000000	0.000000	0.000000
2.662413	14.584378	21.182909	-1.594811	2.149046	2.870993	0.000000	0.297428	0.000000	0.000000	0.000000	0.000000	0.000000
3.108373	16.236358	19.087643	-2.122689	2.529563	3.021996	0.000000	0.380143	0.000000	0.000000	0.000000	0.000000	0.000000
3.657433	18.354707	16.734441	-1.712611	1.781609	3.205445	0.000000	0.287106	0.000000	0.000001	0.000000	0.000000	0.000000
4.206493	19.953245	15.128497	-1.181563	1.160554	3.336336	0.000000	0.188975	0.000000	0.000001	0.000000	0.000000	0.000000
4.755553	20.919059	14.155422	-0.567056	0.622163	3.412347	0.000000	0.087493	0.000000	0.000001	0.000000	0.000000	0.000000
5.304613	21.183929	13.745906	0.087506	0.128088	3.432129	0.000000	-0.015541	0.000000	0.000001	0.000000	0.000000	0.000000
5.603185	21.168939	13.654632	0.018048	0.141698	3.430166	0.000000	-0.006574	0.000000	0.000001	0.000000	0.000000	0.000000
5.936519	21.162157	13.568467	0.002296	0.116796	3.427975	0.000000	-0.006574	0.000000	0.000001	0.000000	0.000000	0.000000
6.269852	21.165877	13.498904	-0.013455	0.091894	3.425783	0.000000	-0.006574	0.000000	0.000001	0.000000	0.000000	0.000000
6.604435	21.180170	13.445774	-0.029266	0.066899	3.423584	0.000000	-0.006574	0.000000	0.000001	0.000000	0.000000	0.000000
6.901758	21.201750	13.412597	-0.098711	0.079731	3.421629	0.000000	0.002366	0.000000	0.000001	0.000000	0.000000	0.000000
7.450818	20.948743	13.585596	0.556784	-0.396674	3.394728	0.000000	-0.100212	0.000000	0.000002	0.000000	0.000000	0.000000
7.999878	19.993359	14.294098	1.172951	-0.901333	3.311910	0.000000	-0.201014	0.000000	0.000002	0.000000	0.000000	0.000000
8.548938	18.403081	15.588567	1.706267	-1.470193	3.174646	0.000000	-0.298249	0.000000	0.000002	0.000000	0.000000	0.000000
9.097998	16.290240	17.561206	2.119060	-2.143771	2.985368	0.000000	-0.390195	0.000000	0.000002	0.000000	0.000000	0.000000
9.543958	14.641734	19.318982	1.590617	-1.781126	2.829663	0.000000	-0.308491	0.000000	0.000002	0.000000	0.000000	0.000000
9.984918	13.442569	20.699943	1.139140	-1.338671	2.710877	0.000000	-0.230785	0.000000	0.000002	0.000000	0.000000	0.000000
10.425878	12.617204	21.662242	0.739708	-0.835308	2.625744	0.000000	-0.155707	0.000000	0.000002	0.000000	0.000000	0.000000
10.866838	12.127928	22.162097	0.374070	-0.293939	2.573295	0.000000	-0.082403	0.000000	0.000002	0.000000	0.000000	0.000000
11.309048	11.952253	22.176249	0.054729	0.206362	2.552913	0.000000	-0.016297	0.000000	0.000002	0.000000	0.000000	0.000000
11.606371	11.927127	22.057692	0.029778	0.192384	2.548068	0.000000	-0.016297	0.000000	0.000002	0.000000	0.000000	0.000000
12.086371	11.917874	21.883836	-0.010502	0.169817	2.540245	0.000000	-0.016297	0.000000	0.000002	0.000000	0.000000	0.000000
12.566371	11.947290	21.731643	-0.050782	0.147251	2.532422	0.000000	-0.016297	0.000000	0.000002	0.000000	0.000000	0.000000
13.046371	12.015375	21.601114	-0.091062	0.124684	2.524599	0.000000	-0.016297	0.000000	0.000002	0.000000	0.000000	0.000000
13.526371	12.122129	21.492249	-0.131342	0.102118	2.516776	0.000000	-0.016297	0.000000	0.000003	0.000000	0.000000	0.000000
14.007621	12.267981	21.404849	-0.171727	0.079493	2.508933	0.000000	-0.016297	0.000000	0.000003	0.000000	0.000000	0.000000
14.304943	12.377516	21.361735	-0.166325	0.013131	2.504088	0.000000	-0.022438	0.000000	0.000003	0.000000	0.000000	0.000000
14.745903	12.682895	21.116327	-0.528834	0.541283	2.509824	0.000000	0.048480	0.000000	0.000003	0.000000	0.000000	0.000000
15.186863	13.317383	20.414252	-0.915504	1.044808	2.546924	0.000000	0.119950	0.000000	0.000003	0.000000	0.000000	0.000000
15.627823	14.309969	19.287455	-1.344001	1.500795	2.615811	0.000000	0.192787	0.000000	0.000003	0.000000	0.000000	0.000000
16.068783	15.706001	17.787204	-1.833901	1.888497	2.717268	0.000000	0.267819	0.000000	0.000003	0.000001	0.000000	0.000000
16.514743	17.592913	15.960257	-2.412345	2.191023	2.854147	0.000000	0.346364	0.000000	0.000004	0.000001	0.000000	0.000000
17.063803	20.016169	13.920192	-1.974991	1.546468	3.020593	0.000000	0.259040	0.000000	0.000004	0.000001	0.000000	0.000000
17.612863	21.879246	12.523646	-1.398134	1.012066	3.137759	0.000000	0.167121	0.000000	0.000004	0.000000	0.000000	0.000000
18.161923	23.050546	11.671147	-0.722520	0.549751	3.203567	0.000000	0.072238	0.000000	0.000005	0.000000	0.000000	0.000000
18.710983	23.447335	11.301973	0.004129	0.126593	3.216850	0.000000	-0.023926	0.000000	0.000005	0.000000	0.000000	0.000000
19.009556	23.485266	11.216826	-0.069907	0.129060	3.212216	0.000000	-0.015521	0.000000	0.000005	0.000000	0.000000	0.000000
19.342889	23.536625	11.140856	-0.084170	0.098848	3.207042	0.000000	-0.015521	0.000000	0.000005	0.000000	0.000000	0.000000
19.676223	23.597492	11.085029	-0.098433	0.068636	3.201868	0.000000	-0.015521	0.000000	0.000005	0.000000	0.000000	0.000000
20.010806	23.668443	11.049109	-0.230015	0.093054	3.196695	0.000000	0.000317	0.000000	0.000005	0.000000	0.000000	0.000000
20.308129	23.809153	11.001845	-0.305448	0.094657	3.196789	0.000000	0.008669	0.000000	0.000005	0.000000	0.000000	0.000000
20.857189	23.733933	11.120390	0.441637	-0.311836	3.175332	0.000000	-0.086712	0.000000	0.000005	-0.000000	0.000000	0.000000
21.406249	22.850668	11.694818	1.157526	-0.740540	3.101851	0.000000	-0.180556	0.000000	0.000005	-0.000000	0.000000	0.000000
21.955309	21.221748	12.766042	1.791655	-1.221992	2.977649	0.000000	-0.271197	0.000000	0.000005	-0.000000	0.000000	0.000000
22.504369	18.962231	14.410366	2.299229	-1.790483	2.804928	0.000000	-0.357028	0.000000	0.000004	-0.000000	0.000000	0.000000
22.950329	17.181659	15.886526	1.707538	-1.505626	2.663000	0.000000	-0.279826	0.000000	0.000004	-0.000000	0.000000	0.000000
23.391289	15.905030	17.063405	1.198557	-1.153121	2.555928	0.000000	-0.206265	0.000000	0.000004	-0.000000	0.000000	0.000000
23.832249	15.051531	17.904993	0.744334	-0.748151	2.480746	0.000000	-0.135053	0.000000	0.000004	-0.000000	0.000000	0.000000
24.273209	14.582167	18.372997	0.324118	-0.309140	2.436597	0.000000	-0.065380	0.000000	0.000004	-0.000000	0.000000	0.000000
24.715418	14.475608	18.445876	-0.045879	0.098635	2.422974	0.000000	-0.002393	0.000000	0.000004	0.000000	0.000000	0.000000
25.012741	14.509010	18.392063	-0.066462	0.082359	2.422263	0.000000	-0.002393	0.000000	0.000004	0.000000	0.000000	0.000000
25.346075	14.561010	18.343239	-0.089538	0.064112	2.421465	0.000000	-0.002393	0.000000	0.000004	0.000000	0.000000	0.000000
25.679408	14.628394	18.306580	-0.112614	0.045866	2.420667	0.000000	-0.002393	0.000000	0.000004	0.000000	0.000000	0.000000
26.013991	14.711202	18.282387	-0.016429	-0.120765	2.419842	0.000000	-0.022024	0.000000	0.000004	0.000000	0.000000	0.000000
26.311314	14.726982	18.359105	-0.000532	-0.182285	2.413294	0.000000	-0.027942	0.000000	0.000004	0.000000	0.000000	0.000000
26.752274	14.908917	18.320715	-0.413620	0.269015	2.416081	0.000000	0.040597	0.000000	0.000004	0.000000	0.000000	0.000000
27.193234	15.462087	17.888212	-0.845606	0.708074	2.449165	0.000000	0.109599	0.000000	0.000004	0.000000	0.000000	0.000000
27.634194	16.411766	17.081274	-1.316226	1.114917	2.512921	0.000000	0.179849	0.000000	0.000004	0.000000	0.000000	0.000000
28.075154	17.801341	15.936618	-1.846980	1.471033	2.608077	0.000000	0.252147	0.000000	0.000005	0.000000	0.000000	0.000000
28.521114	19.718447	14.489084	-2.467075	1.761131	2.737319	0.000000	0.327761	0.000000	0.000005	0.000001	0.000000	0.000000
29.070174	22.155096	12.876113	-1.944510	1.193904	2.894618	0.000000	0.244371	0.000000	0.000005	0.000000	0.000000	0.000000
29.619234	23.938625	11.835952	-1.284594	0.711717	3.004871	0.000000	0.156646	0.000000	0.000005	0.000000	0.000000	0.000000
30.168294	24.943056	11.294513	-0.533941	0.280224	3.066123	0.000000	0.066142	0.000000	0.000005	0.000000	0.000000	0.000000
30.717354	25.097441	11.213230	0.254427	-0.131309	3.077288	0.000000	-0.025534	0.000000	0.000005	-0.000000	0.000000	0.000000
31.015927	24.988346	11.282179	0.176534	-0.128916	3.072064	0.000000	-0.017494	0.000000	0.000005	-0.000000	0.000000	0.000000
31.349260	24.875242	11.378135	0.162778	-0.158953	3.066233	0.000000	-0.017494	0.000000	0.000005	-0.000000	0.000000	0.000000
31.682593	24.771308	11.494115	0.149023	-0.188989	3.060402	0.000000	-0.017494	0.000000	0.000005	-0.000000	0.000000	0.000000
32.017177	24.676206	11.630668	0.135216	-0.219137	3.054549	0.000000	-0.017494	0.000000	0.000005	-0.000000	0.000000	0.000000
32.314499	24.599448	11.768942	0.058676	-0.215180	3.049347	0.000000	-0.009527	0.000000	0.000005	-0.000000	0.000000	0.000000
32.863559	24.113605	12.244561	0.820950	-0.656174	3.019237	0.000000	-0.099991	0.000000	0.000005	-0.000000	0.000000	0.000000
33.412619	22.817736	13.227113	1.525236	-1.143906	2.939871	0.000000	-0.188682	0.000000	0.000005	-0.000000	0.000000	0.000000
33.961679	20.803377	14.786585	2.121788	-1.713116	2.812657	0.000000	-0.274026	0.000000	0.000005	-0.000001	0.000000	0.000000
34.510739	18.212810	17.034054	2.568466	-2.404348	2.639851	0.000000	-0.354509	0.000000	0.000004	-0.000001	0.000000	0.000000
34.956699	16.198651	19.044273	1.964173	-2.084451	2.498094	0.000000	-0.281587	0.000000	0.000004	-0.000001	0.000000	0.000000
35.397659	14.696796	20.706364	1.454623	-1.670461	2.389306	0.000000	-0.212300	0.000000	0.000004	-0.000000	0.000000	0.000000
35.838619	13.613431	21.968311	1.011529	-1.180467	2.310509	0.000000	-0.145430	0.000000	0.000004	-0.000000	0.000000	0.000000
36.279579	12.899062	22.772697	0.614650	-0.636762	2.260805	0.000000	-0.080217	0.000000	0.000003	-0.000000	0.000000	0.000000
36.721789	12.520358	23.083225	0.276449	-0.120744	2.239603	0.000000	-0.021410	0.000000	0.000003	-0.000000	0.000000	0.000000
37.019112	12.363569	23.158911	0.250887	-0.133813	2.233237	0.000000	-0.021410	0.000000	0.000003	-0.000000	0.000000	0.000000
37.352445	12.205864	23.253003	0.222229	-0.148464	2.226101	0.000000	-0.021410	0.000000	0.000003	-0.000000	0.000000	0.000000
37.685779	12.067264	23.356862	0.193571	-0.163115	2.218964	0.000000	-0.021410	0.000000	0.000003	-0.000000	0.000000	0.000000
38.020362	11.947357	23.470934	0.164805	-0.177821	2.211801	0.000000	-0.021410	0.000000	0.000003	-0.000000	0.000000	0.000000
38.317684	11.856957	23.580559	0.168319	-0.248714	2.205436	0.000000	-0.026818	0.000000	0.000003	-0.000000	0.000000	0.000000
38.758644	11.859740	23.538737	-0.174655	0.343197	2.207536	0.000000	0.036354	0.000000	0.000003	-0.000000	0.000000	0.000000
39.199604	12.167362	22.979814	-0.525609	0.919493	2.237558	0.000000	0.099940	0.000000	0.000003	-0.000000	0.000000	0.000000
39.640564	12.793876	21.929222	-0.900577	1.453952	2.295842	0.000000	0.164665	0.000000	0.000003	0.000000	0.000000	0.000000
40.081524	13.767906	20.434762	-1.316689	1.922258	2.383054	0.000000	0.231264	0.000000	0.000003	0.000000	0.000000	0.000000
40.527484	15.151518	18.541862	-1.796781	2.304381	2.501657	0.000000	0.300903	0.000000	0.000003	0.000000	0.000000	0.000000
41.076544	16.917376	16.414802	-1.400328	1.592488	2.646343	0.000000	0.225353	0.000000	0.000003	0.000000	0.000000	0.000000
41.625604	18.190656	15.002985	-0.904963	0.994024	2.748388	0.000000	0.145805	0.000000	0.000003	-0.000000	0.000000	0.000000
42.174664	18.881421	14.205850	-0.345675	0.466363	2.805980	0.000000	0.063672	0.000000	0.000003	-0.000000	0.000000	0.000000
42.723724	18.940877	13.966620	0.238029	-0.028081	2.818100	0.000000	-0.019591	0.000000	0.000003	-0.000000	0.000000	0.000000
43.022297	18.833164	13.967981	0.172217	-0.012969	2.814449	0.000000	-0.012228	0.000000	0.000003	-0.000000	0.000000	0.000000
43.502297	18.680432	13.996928	0.145974	-0.047339	2.808579	0.000000	-0.012228	0.000000	0.000003	-0.000000	0.000000	0.000000
43.982297	18.552893	14.058871	0.119732	-0.081709	2.802710	0.000000	-0.012228	0.000000	0.000003	-0.000000	0.000000	0.000000
44.462297	18.450547	14.153809	0.093489	-0.116079	2.796840	0.000000	-0.012228	0.000000	0.000002	-0.000000	0.000000	0.000000
44.942297	18.373395	14.281743	0.067246	-0.150449	2.790971	0.000000	-0.012228	0.000000	0.000002	-0.000000	0.000000	0.000000
45.423547	18.321560	14.442955	-0.049841	-0.113349	2.785103	0.000000	0.001571	0.000000	0.000002	-0.000000	0.000000	0.000000
45.720870	18.356034	14.516557	-0.114069	-0.096272	2.785570	0.000000	0.008849	0.000000	0.000002	-0.000000	0.000000	0.000000
46.269930	18.172210	14.903104	0.446885	-0.611901	2.767859	0.000000	-0.073270	0.000000	0.000002	-0.000000	0.000000	0.000000
46.818990	17.386158	15.876342	0.976273	-1.171115	2.705351	0.000000	-0.154088	0.000000	0.000002	-0.000000	0.000000	0.000000
47.368050	16.053401	17.505592	1.436702	-1.813744	2.599154	0.000000	-0.232174	0.000000	0.000002	-0.000000	0.000000	0.000000
47.917110	14.268078	19.906902	1.795649	-2.585563	2.451152	0.000000	-0.306142	0.000000	0.000001	-0.000000	0.000000	0.000000
48.363070	12.878636	22.041965	1.331008	-2.181877	2.329916	0.000000	-0.237847	0.000000	0.000001	-0.000000	0.000000	0.000000
48.804030	11.884975	23.751486	0.930945	-1.680187	2.239494	0.000000	-0.172659	0.000000	0.000001	-0.000000	0.000000	0.000000
49.244990	11.224120	24.983027	0.573414	-1.102049	2.177357	0.000000	-0.109437	0.000000	0.000001	-0.000000	0.000000	0.000000
49.685950	10.865878	25.680555	0.242080	-0.473770	2.142797	0.000000	-0.047461	0.000000	0.000001	-0.000000	0.000000	0.000000
50.128160	10.794013	25.812050	-0.051840	0.112718	2.135432	0.000000	0.008737	0.000000	0.000001	-0.000000	0.000000	0.000000
50.425482	10.833051	25.748491	-0.079459	0.101053	2.138030	0.000000	0.008737	0.000000	0.000001	-0.000000	0.000000	0.000000
50.758816	10.896345	25.685482	-0.110423	0.087975	2.140943	0.000000	0.008737	0.000000	0.000000	-0.000000	0.000000	0.000000
51.092149	10.980282	25.631191	-0.141388	0.074897	2.143855	0.000000	0.008737	0.000000	0.000000	-0.000000	0.000000	0.000000
51.426732	11.085068	25.585984	-0.082539	-0.145796	2.146757	0.000000	-0.008678	0.000000	0.000000	-0.000000	0.000000	0.000000
51.724055	11.142178	25.676209	-0.082219	-0.220629	2.144177	0.000000	-0.013937	0.000000	0.000000	-0.000000	0.000000	0.000000
52.165015	11.360140	25.585158	-0.413944	0.426328	2.151620	0.000000	0.047725	0.000000	-0.000000	-0.000000	0.000000	0.000000
52.605975	11.877858	24.929948	-0.764581	1.053888	2.186347	0.000000	0.109930	0.000000	-0.000000	-0.000000	0.000000	0.000000
53.046935	12.718987	23.740392	-1.150149	1.633497	2.248754	0.000000	0.173388	0.000000	-0.000000	-0.000000	0.000000	0.000000
53.487895	13.921954	22.070612	-1.588265	2.138783	2.339551	0.000000	0.238820	0.000000	-0.000000	-0.000000	0.000000	0.000000
53.933855	15.562337	19.971616	-2.103180	2.548091	2.461277	0.000000	0.307371	0.000000	-0.000001	-0.000000	0.000000	0.000000
54.482915	17.674233	17.609795	-1.720435	1.778873	2.609862	0.000000	0.233065	0.000000	-0.000001	-0.000000	0.000000	0.000000
55.031975	19.296206	16.018550	-1.216168	1.136360	2.716452	0.000000	0.154626	0.000000	-0.000001	-0.000000	0.000000	0.000000
55.581035	20.313687	15.084540	-0.625996	0.574787	2.779157	0.000000	0.073445	0.000000	-0.000001	-0.000000	0.000000	0.000000
56.130095	20.654808	14.741240	0.008393	0.054155	2.796864	0.000000	-0.009040	0.000000	-0.000001	-0.000000	0.000000	0.000000
56.428668	20.686348	14.692000	-0.060061	0.072244	2.796347	0.000000	-0.001732	0.000000	-0.000001	-0.000000	0.000000	0.000000
56.762001	20.731779	14.651440	-0.076232	0.049437	2.795770	0.000000	-0.001732	0.000000	-0.000001	-0.000000	0.000000	0.000000
57.095334	20.787991	14.626084	-0.092404	0.026631	2.795193	0.000000	-0.001732	0.000000	-0.000001	-0.000000	0.000000	0.000000
57.429918	20.855256	14.615923	-0.108637	0.003739	2.794613	0.000000	-0.001732	0.000000	-0.000002	-0.000000	0.000000	0.000000
57.727240	20.924145	14.619748	-0.177733	0.021595	2.794098	0.000000	0.005569	0.000000	-0.000002	-0.000000	0.000000	0.000000
58.276300	20.762293	14.876838	0.470768	-0.492596	2.774516	0.000000	-0.076796	0.000000	-0.000002	-0.000000	0.000000	0.000000
58.825360	19.902434	15.714410	1.086017	-1.041873	2.710018	0.000000	-0.157798	0.000000	-0.000002	-0.000000	0.000000	0.000000
59.374420	18.405305	17.192121	1.624555	-1.665361	2.601748	0.000000	-0.236002	0.000000	-0.000002	-0.000000	0.000000	0.000000
59.923480	16.376655	19.415227	2.048343	-2.407469	2.451628	0.000000	-0.310019	0.000000	-0.000002	-0.000000	0.000000	0.000000
60.369440	14.788764	21.391207	1.524881	-2.004676	2.328663	0.000000	-0.241734	0.000000	-0.000002	-0.000000	0.000000	0.000000
60.810400	13.646522	22.947863	1.075298	-1.512043	2.236516	0.000000	-0.176601	0.000000	-0.000002	-0.000000	0.000000	0.000000
61.251360	12.877697	24.037944	0.674842	-0.950613	2.172621	0.000000	-0.113478	0.000000	-0.000002	-0.000000	0.000000	0.000000
61.692320	12.447163	24.611852	0.305218	-0.345930	2.136248	0.000000	-0.051648	0.000000	-0.000002	-0.000000	0.000000	0.000000
62.134530	12.335301	24.642939	-0.020313	0.214004	2.126991	0.000000	0.004378	0.000000	-0.000002	-0.000000	0.000000	0.000000
62.431853	12.354549	24.519434	-0.044426	0.201386	2.128293	0.000000	0.004378	0.000000	-0.000002	-0.000000	0.000000	0.000000
62.765186	12.393178	24.389891	-0.071460	0.187240	2.129752	0.000000	0.004378	0.000000	-0.000002	-0.000000	0.000000	0.000000
63.098520	12.449829	24.269780	-0.098494	0.173094	2.131211	0.000000	0.004378	0.000000	-0.000002	-0.000000	0.000000	0.000000
63.433103	12.524816	24.158702	-0.125629	0.158895	2.132676	0.000000	0.004378	0.000000	-0.000003	-0.000000	0.000000	0.000000
63.730426	12.606690	24.067967	-0.118826	0.087254	2.133978	0.000000	-0.000855	0.000000	-0.000003	-0.000000	0.000000	0.000000
64.171386	12.871974	23.725942	-0.485061	0.685432	2.147142	0.000000	0.060617	0.000000	-0.000003	-0.000000	0.000000	0.000000
64.612346	13.468761	22.868161	-0.873456	1.252424	2.187539	0.000000	0.122780	0.000000	-0.000003	-0.000000	0.000000	0.000000
65.053306	14.424318	21.533652	-1.301758	1.762431	2.255630	0.000000	0.186341	0.000000	-0.000003	-0.000000	0.000000	0.000000
65.494266	15.782302	19.783135	-1.789532	2.192249	2.352189	0.000000	0.252025	0.000000	-0.000003	-0.000001	0.000000	0.000000
65.940226	17.627922	17.671478	-2.363760	2.523078	2.479890	0.000000	0.320981	0.000000	-0.000004	-0.000001	0.000000	0.000000
66.489286	19.993661	15.309122	-1.919443	1.804865	2.635760	0.000000	0.245955	0.000000	-0.000004	-0.000001	0.000000	0.000000
67.038346	21.793697	13.660650	-1.339547	1.215209	2.749177	0.000000	0.166566	0.000000	-0.000004	-0.000000	0.000000	0.000000
67.587406	22.900885	12.608647	-0.665031	0.712109	2.818127	0.000000	0.084223	0.000000	-0.000004	-0.000000	0.000000	0.000000
68.136466	23.237018	12.078179	0.056458	0.259731	2.841389	0.000000	0.000386	0.000000	-0.000004	-0.000000	0.000000	0.000000
68.435038	23.243397	11.912243	-0.017107	0.264473	2.843721	0.000000	0.007810	0.000000	-0.000004	-0.000000	0.000000	0.000000
68.768372	23.259583	11.745908	-0.031452	0.234533	2.846325	0.000000	0.007810	0.000000	-0.000004	-0.000000	0.000000	0.000000
69.101705	23.285333	11.599532	-0.045798	0.204594	2.848928	0.000000	0.007810	0.000000	-0.000004	-0.000000	0.000000	0.000000
69.436288	23.320797	11.472680	-0.060197	0.174542	2.851541	0.000000	0.007810	0.000000	-0.000005	-0.000000	0.000000	0.000000
69.733611	23.360397	11.376829	-0.134031	0.177563	2.853863	0.000000	0.015267	0.000000	-0.000005	-0.000000	0.000000	0.000000
70.282671	23.106385	11.409617	0.593924	-0.237633	2.839059	0.000000	-0.069111	0.000000	-0.000005	0.000000	0.000000	0.000000
