#ParticleID	Turn	x[m]	xp	y[m]	yp	z[m]	dE[GeV]# s	beta_x	beta_y	alpha_x	alpha_y	D_x	D_y	D_px	D_py	orbit_x	orbit_px	orbit_y	orbit_py
0.300000	11.813125	25.020736	-0.011001	-0.027237	2.618117	0.000000	0.000009	0.000000	0.000000	0.000001	0.000000	0.000000
0.601250	11.827436	25.040776	-0.036505	-0.039286	2.618119	0.000000	0.000009	0.000000	0.000000	0.000001	0.000000	0.000000
0.898573	11.856628	25.067672	-0.032601	-0.112650	2.618122	0.000000	-0.006411	0.000000	0.000001	0.000001	0.000000	0.000000
1.339533	12.037502	24.888951	-0.379136	0.516408	2.631588	0.000000	0.067546	0.000000	0.000001	0.000001	0.000000	0.000000
1.780493	12.530446	24.163733	-0.742993	1.121969	2.677804	0.000000	0.142273	0.000000	0.000002	0.000001	0.000000	0.000000
2.221453	13.357981	22.925014	-1.140794	1.676482	2.757297	0.000000	0.218620	0.000000	0.000002	0.000001	0.000000	0.000000
2.662413	14.557916	21.229155	-1.590716	2.154716	2.870973	0.000000	0.297457	0.000000	0.000003	0.000001	0.000000	0.000000
3.108373	16.205816	19.128447	-2.117602	2.536045	3.021988	0.000000	0.380172	0.000000	0.000004	0.000001	0.000000	0.000000
3.657433	18.318978	16.769039	-1.708305	1.786496	3.205453	0.000000	0.287134	0.000000	0.000004	0.000001	0.000000	0.000000
4.206493	19.913359	15.158439	-1.178342	1.164195	3.336359	0.000000	0.189003	0.000000	0.000005	0.000001	0.000000	0.000000
4.755553	20.876339	14.181928	-0.565147	0.624817	3.412384	0.000000	0.087520	0.000000	0.000006	0.000001	0.000000	0.000000
5.304613	21.139900	13.769951	0.087968	0.129944	3.432180	0.000000	-0.015516	0.000000	0.000006	0.000001	0.000000	0.000000
5.603185	21.124573	13.677525	0.018597	0.143640	3.430224	0.000000	-0.006549	0.000000	0.000006	0.000001	0.000000	0.000000
5.936519	21.117436	13.590056	0.002812	0.118766	3.428041	0.000000	-0.006549	0.000000	0.000007	0.000001	0.000000	0.000000
6.269852	21.120823	13.519170	-0.012973	0.093893	3.425858	0.000000	-0.006549	0.000000	0.000007	0.000001	0.000000	0.000000
6.604435	21.134805	13.464693	-0.028817	0.068926	3.423667	0.000000	-0.006549	0.000000	0.000007	0.000001	0.000000	0.000000
6.901758	21.156127	13.430304	-0.098170	0.081828	3.421719	0.000000	0.002391	0.000000	0.000007	0.000001	0.000000	0.000000
7.450818	20.903367	13.601266	0.555795	-0.395039	3.394831	0.000000	-0.100191	0.000000	0.000008	0.000001	0.000000	0.000000
7.999878	19.949883	14.308172	1.170501	-0.900044	3.312024	0.000000	-0.200995	0.000000	0.000008	0.000000	0.000000	0.000000
8.548938	18.363024	15.601373	1.702529	-1.469158	3.174768	0.000000	-0.298235	0.000000	0.000008	0.000000	0.000000	0.000000
9.097998	16.254877	17.572980	2.114298	-2.142916	2.985498	0.000000	-0.390184	0.000000	0.000008	-0.000000	0.000000	0.000000
9.543958	14.610139	19.329780	1.586897	-1.779800	2.829798	0.000000	-0.308477	0.000000	0.000008	0.000000	0.000000	0.000000
9.984918	13.413863	20.709387	1.136285	-1.336938	2.711018	0.000000	-0.230767	0.000000	0.000008	0.000000	0.000000	0.000000
10.425878	12.590684	21.670007	0.737586	-0.833246	2.625894	0.000000	-0.155686	0.000000	0.000008	0.000000	0.000000	0.000000
10.866838	12.102992	22.167933	0.372586	-0.291643	2.573456	0.000000	-0.082377	0.000000	0.000008	0.000001	0.000000	0.000000
11.309048	11.928373	22.179988	0.053752	0.208782	2.553085	0.000000	-0.016268	0.000000	0.000009	0.000001	0.000000	0.000000
11.606371	11.903842	22.059996	0.028755	0.194793	2.548248	0.000000	-0.016268	0.000000	0.000009	0.000001	0.000000	0.000000
12.086371	11.895609	21.883835	-0.011602	0.172208	2.540439	0.000000	-0.016268	0.000000	0.000009	0.000001	0.000000	0.000000
12.566371	11.926118	21.729356	-0.051958	0.149624	2.532630	0.000000	-0.016268	0.000000	0.000010	0.000001	0.000000	0.000000
13.046371	11.995369	21.596557	-0.092315	0.127040	2.524821	0.000000	-0.016268	0.000000	0.000010	0.000001	0.000000	0.000000
13.526371	12.103362	21.485440	-0.132671	0.104455	2.517013	0.000000	-0.016268	0.000000	0.000011	0.000001	0.000000	0.000000
14.007621	12.250530	21.395799	-0.173133	0.081812	2.509183	0.000000	-0.016268	0.000000	0.000011	0.000001	0.000000	0.000000
14.304943	12.360915	21.351309	-0.167821	0.015469	2.504346	0.000000	-0.022409	0.000000	0.000011	0.000001	0.000000	0.000000
14.745903	12.667463	21.103978	-0.530000	0.543289	2.510097	0.000000	0.048516	0.000000	0.000012	0.000001	0.000000	0.000000
15.186863	13.302855	20.400316	-0.916393	1.046390	2.547214	0.000000	0.119994	0.000000	0.000012	0.000001	0.000000	0.000000
15.627823	14.296119	19.272337	-1.344654	1.501881	2.616121	0.000000	0.192838	0.000000	0.000013	0.000002	0.000000	0.000000
16.068783	15.692634	17.771365	-1.834349	1.889038	2.717602	0.000000	0.267878	0.000000	0.000014	0.000002	0.000000	0.000000
16.514743	17.579862	15.944191	-2.412607	2.190990	2.854509	0.000000	0.346432	0.000000	0.000015	0.000002	0.000000	0.000000
17.063803	20.003741	13.903984	-1.975856	1.546760	3.020988	0.000000	0.259096	0.000000	0.000016	0.000002	0.000000	0.000000
17.612863	21.868074	12.506932	-1.399541	1.012703	3.138181	0.000000	0.167164	0.000000	0.000017	0.000001	0.000000	0.000000
18.161923	23.041173	11.653524	-0.724369	0.550778	3.204009	0.000000	0.072267	0.000000	0.000017	0.000001	0.000000	0.000000
18.710983	23.440177	11.282975	0.001968	0.128084	3.217303	0.000000	-0.023911	0.000000	0.000018	0.000000	0.000000	0.000000
19.009556	23.479385	11.196986	-0.072050	0.130441	3.212673	0.000000	-0.015506	0.000000	0.000018	0.000000	0.000000	0.000000
19.342889	23.532175	11.120118	-0.086320	0.100164	3.207504	0.000000	-0.015506	0.000000	0.000018	0.000000	0.000000	0.000000
19.676223	23.594479	11.063433	-0.100591	0.069888	3.202335	0.000000	-0.015506	0.000000	0.000018	0.000000	0.000000	0.000000
20.010806	23.666876	11.026698	-0.232174	0.094131	3.197167	0.000000	0.000334	0.000000	0.000018	0.000000	0.000000	0.000000
20.308129	23.808874	10.978812	-0.307612	0.095610	3.197266	0.000000	0.008687	0.000000	0.000018	0.000000	0.000000	0.000000
20.857189	23.736023	11.095951	0.439510	-0.310214	3.175815	0.000000	-0.086711	0.000000	0.000018	-0.000000	0.000000	0.000000
21.406249	22.855004	11.668179	1.155587	-0.738133	3.102330	0.000000	-0.180570	0.000000	0.000018	-0.000001	0.000000	0.000000
21.955309	21.228046	12.736254	1.790040	-1.218629	2.978116	0.000000	-0.271226	0.000000	0.000018	-0.000001	0.000000	0.000000
22.504369	18.970071	14.376254	2.298053	-1.785924	2.805376	0.000000	-0.357072	0.000000	0.000017	-0.000002	0.000000	0.000000
22.950329	17.190563	15.848685	1.706318	-1.501859	2.663431	0.000000	-0.279858	0.000000	0.000016	-0.000001	0.000000	0.000000
23.391289	15.915049	17.022655	1.197238	-1.150314	2.556348	0.000000	-0.206287	0.000000	0.000015	-0.000001	0.000000	0.000000
23.832249	15.062778	17.862239	0.742855	-0.746431	2.481159	0.000000	-0.135064	0.000000	0.000015	-0.000001	0.000000	0.000000
24.273209	14.594813	18.329237	0.322412	-0.308587	2.437007	0.000000	-0.065380	0.000000	0.000015	-0.000000	0.000000	0.000000
24.715418	14.489892	18.402155	-0.047859	0.098108	2.423387	0.000000	-0.002383	0.000000	0.000015	0.000000	0.000000	0.000000
25.012741	14.524467	18.348666	-0.068425	0.081796	2.422678	0.000000	-0.002383	0.000000	0.000015	0.000000	0.000000	0.000000
25.346075	14.577769	18.300231	-0.091483	0.063508	2.421884	0.000000	-0.002383	0.000000	0.000015	0.000000	0.000000	0.000000
25.679408	14.646443	18.263989	-0.114540	0.045220	2.421090	0.000000	-0.002383	0.000000	0.000015	0.000000	0.000000	0.000000
26.013991	14.730534	18.240241	-0.018180	-0.121111	2.420268	0.000000	-0.022018	0.000000	0.000015	-0.000000	0.000000	0.000000
26.311314	14.747348	18.317177	-0.002211	-0.182563	2.413721	0.000000	-0.027936	0.000000	0.000015	-0.000000	0.000000	0.000000
26.752274	14.930989	18.279533	-0.415826	0.267607	2.416514	0.000000	0.040614	0.000000	0.000015	0.000000	0.000000	0.000000
27.193234	15.486373	17.848748	-0.848440	0.705601	2.449608	0.000000	0.109627	0.000000	0.000015	0.000001	0.000000	0.000000
27.634194	16.438874	17.044422	-1.319816	1.111491	2.513379	0.000000	0.179889	0.000000	0.000016	0.000001	0.000000	0.000000
28.075154	17.832009	15.903152	-1.851491	1.466808	2.608555	0.000000	0.252200	0.000000	0.000016	0.000002	0.000000	0.000000
28.521114	19.753628	14.459673	-2.472722	1.756300	2.737822	0.000000	0.327826	0.000000	0.000017	0.000002	0.000000	0.000000
29.070174	22.196016	12.851364	-1.949252	1.190194	2.895151	0.000000	0.244419	0.000000	0.000018	0.000001	0.000000	0.000000
29.619234	23.984100	11.814787	-1.288095	0.708863	3.005426	0.000000	0.156676	0.000000	0.000019	0.000001	0.000000	0.000000
30.168294	24.991577	11.276107	-0.535955	0.278022	3.066690	0.000000	0.066155	0.000000	0.000019	0.000000	0.000000	0.000000
30.717354	25.147285	11.196957	0.254043	-0.133015	3.077856	0.000000	-0.025540	0.000000	0.000019	-0.000000	0.000000	0.000000
31.015927	25.038484	11.266966	0.176054	-0.130717	3.072631	0.000000	-0.017500	0.000000	0.000019	-0.000000	0.000000	0.000000
31.349260	24.925690	11.364141	0.162329	-0.160807	3.066798	0.000000	-0.017500	0.000000	0.000019	-0.000000	0.000000	0.000000
31.682593	24.822046	11.481376	0.148603	-0.190898	3.060965	0.000000	-0.017500	0.000000	0.000018	-0.000000	0.000000	0.000000
32.017177	24.727215	11.619224	0.134826	-0.221101	3.055110	0.000000	-0.017500	0.000000	0.000018	-0.000000	0.000000	0.000000
32.314499	24.650681	11.758680	0.058186	-0.217222	3.049907	0.000000	-0.009532	0.000000	0.000018	-0.000000	0.000000	0.000000
32.863559	24.164438	12.236432	0.822163	-0.658040	3.019790	0.000000	-0.100014	0.000000	0.000018	-0.000001	0.000000	0.000000
33.412619	22.866336	13.220997	1.528066	-1.145727	2.940406	0.000000	-0.188723	0.000000	0.000017	-0.000001	0.000000	0.000000
33.961679	20.848067	14.782503	2.126035	-1.715023	2.813166	0.000000	-0.274084	0.000000	0.000016	-0.000002	0.000000	0.000000
34.510739	18.252191	17.032175	2.573831	-2.406476	2.640325	0.000000	-0.354583	0.000000	0.000015	-0.000003	0.000000	0.000000
34.956699	16.233788	19.044426	1.968357	-2.086863	2.498538	0.000000	-0.281649	0.000000	0.000014	-0.000002	0.000000	0.000000
35.397659	14.728688	20.708728	1.457826	-1.673045	2.389726	0.000000	-0.212350	0.000000	0.000013	-0.000002	0.000000	0.000000
35.838619	13.642875	21.972987	1.013899	-1.183104	2.310910	0.000000	-0.145470	0.000000	0.000012	-0.000001	0.000000	0.000000
36.279579	12.926742	22.779679	0.616294	-0.639333	2.261191	0.000000	-0.080247	0.000000	0.000012	-0.000001	0.000000	0.000000
36.721789	12.546876	23.092408	0.277506	-0.123150	2.239978	0.000000	-0.021430	0.000000	0.000011	-0.000001	0.000000	0.000000
37.019112	12.389446	23.169525	0.251984	-0.136221	2.233607	0.000000	-0.021430	0.000000	0.000011	-0.000001	0.000000	0.000000
37.352445	12.230995	23.265223	0.223371	-0.150875	2.226464	0.000000	-0.021430	0.000000	0.000011	-0.000001	0.000000	0.000000
37.685779	12.091619	23.370691	0.194758	-0.165528	2.219321	0.000000	-0.021430	0.000000	0.000011	-0.000001	0.000000	0.000000
38.020362	11.970902	23.486378	0.166038	-0.180237	2.212151	0.000000	-0.021430	0.000000	0.000010	-0.000001	0.000000	0.000000
38.317684	11.879757	23.597441	0.169646	-0.251170	2.205780	0.000000	-0.026839	0.000000	0.000010	-0.000001	0.000000	0.000000
38.758644	11.881597	23.557580	-0.173834	0.341222	2.207873	0.000000	0.036342	0.000000	0.000010	-0.000001	0.000000	0.000000
39.199604	12.188702	23.000154	-0.525256	0.918088	2.237892	0.000000	0.099937	0.000000	0.000009	-0.000000	0.000000	0.000000
39.640564	12.815104	21.950524	-0.900675	1.453183	2.296177	0.000000	0.164670	0.000000	0.000009	-0.000000	0.000000	0.000000
40.081524	13.789421	20.456448	-1.317243	1.922158	2.383392	0.000000	0.231278	0.000000	0.000009	0.000000	0.000000	0.000000
40.527484	15.173742	18.563332	-1.797820	2.304961	2.502004	0.000000	0.300926	0.000000	0.000009	0.000000	0.000000	0.000000
41.076544	16.940287	16.435935	-1.400531	1.592527	2.646699	0.000000	0.225364	0.000000	0.000009	0.000000	0.000000	0.000000
41.625604	18.213322	15.024370	-0.904316	0.993524	2.748747	0.000000	0.145805	0.000000	0.000009	-0.000000	0.000000	0.000000
42.174664	18.902928	14.228094	-0.344224	0.465289	2.806336	0.000000	0.063660	0.000000	0.000009	-0.000001	0.000000	0.000000
42.723724	18.960394	13.990390	0.240182	-0.029805	2.818446	0.000000	-0.019614	0.000000	0.000009	-0.000001	0.000000	0.000000
43.022297	18.851424	13.992734	0.174326	-0.014596	2.814789	0.000000	-0.012251	0.000000	0.000009	-0.000001	0.000000	0.000000
43.502297	18.696664	14.023215	0.148090	-0.048907	2.808909	0.000000	-0.012251	0.000000	0.000008	-0.000001	0.000000	0.000000
43.982297	18.567092	14.086634	0.121854	-0.083217	2.803029	0.000000	-0.012251	0.000000	0.000008	-0.000001	0.000000	0.000000
44.462297	18.462705	14.182992	0.095617	-0.117528	2.797149	0.000000	-0.012251	0.000000	0.000007	-0.000001	0.000000	0.000000
44.942297	18.383506	14.312288	0.069381	-0.151839	2.791269	0.000000	-0.012251	0.000000	0.000007	-0.000001	0.000000	0.000000
45.423547	18.329612	14.474809	-0.047738	-0.114522	2.785390	0.000000	0.001550	0.000000	0.000006	-0.000001	0.000000	0.000000
45.720870	18.362833	14.549097	-0.111972	-0.097320	2.785851	0.000000	0.008828	0.000000	0.000006	-0.000001	0.000000	0.000000
46.269930	18.176600	14.937346	0.449150	-0.613970	2.768126	0.000000	-0.073299	0.000000	0.000006	-0.000001	0.000000	0.000000
46.818990	17.388040	15.913480	0.978546	-1.174351	2.705600	0.000000	-0.154127	0.000000	0.000005	-0.000001	0.000000	0.000000
47.368050	16.052855	17.547026	1.438823	-1.818379	2.599380	0.000000	-0.232220	0.000000	0.000004	-0.000001	0.000000	0.000000
47.917110	14.265355	19.954339	1.797469	-2.591926	2.451352	0.000000	-0.306194	0.000000	0.000004	-0.000001	0.000000	0.000000
48.363070	12.874349	22.094632	1.332710	-2.187191	2.330095	0.000000	-0.237895	0.000000	0.000003	-0.000001	0.000000	0.000000
48.804030	11.879209	23.808287	0.932609	-1.684214	2.239653	0.000000	-0.172702	0.000000	0.000002	-0.000001	0.000000	0.000000
49.244990	11.216876	25.042743	0.575116	-1.104606	2.177498	0.000000	-0.109476	0.000000	0.000002	-0.000001	0.000000	0.000000
49.685950	10.857088	25.741831	0.243898	-0.474740	2.142922	0.000000	-0.047497	0.000000	0.000001	-0.000001	0.000000	0.000000
50.128160	10.783534	25.873462	-0.049849	0.113229	2.135542	0.000000	0.008704	0.000000	0.000001	-0.000001	0.000000	0.000000
50.425482	10.821394	25.809591	-0.077490	0.101590	2.138130	0.000000	0.008704	0.000000	0.000000	-0.000001	0.000000	0.000000
50.758816	10.883384	25.746214	-0.108478	0.088542	2.141032	0.000000	0.008704	0.000000	0.000000	-0.000001	0.000000	0.000000
51.092149	10.966031	25.691536	-0.139466	0.075493	2.143933	0.000000	0.008704	0.000000	-0.000000	-0.000001	0.000000	0.000000
51.426732	11.069540	25.645920	-0.080767	-0.145656	2.146824	0.000000	-0.008712	0.000000	-0.000001	-0.000001	0.000000	0.000000
51.724055	11.125605	25.736054	-0.080518	-0.220609	2.144234	0.000000	-0.013971	0.000000	-0.000001	-0.000001	0.000000	0.000000
52.165015	11.341887	25.644286	-0.411822	0.427928	2.151663	0.000000	0.047692	0.000000	-0.000002	-0.000001	0.000000	0.000000
52.605975	11.857513	24.986994	-0.761941	1.056994	2.186376	0.000000	0.109898	0.000000	-0.000002	-0.000001	0.000000	0.000000
53.046935	12.696041	23.794084	-1.146870	1.637968	2.248769	0.000000	0.173356	0.000000	-0.000003	-0.000001	0.000000	0.000000
53.487895	13.895781	22.119833	-1.584197	2.144416	2.339553	0.000000	0.238789	0.000000	-0.000003	-0.000001	0.000000	0.000000
53.933855	15.532112	20.015385	-2.098130	2.554632	2.461266	0.000000	0.307339	0.000000	-0.000004	-0.000001	0.000000	0.000000
54.482915	17.638855	17.647333	-1.716157	1.783748	2.609834	0.000000	0.233035	0.000000	-0.000005	-0.000001	0.000000	0.000000
55.031975	19.256694	16.051486	-1.212963	1.139917	2.716408	0.000000	0.154597	0.000000	-0.000005	-0.000001	0.000000	0.000000
55.581035	20.271353	15.114175	-0.624092	0.577279	2.779098	0.000000	0.073417	0.000000	-0.000006	-0.000001	0.000000	0.000000
56.130095	20.611162	14.768639	0.008863	0.055760	2.796791	0.000000	-0.009065	0.000000	-0.000007	-0.000001	0.000000	0.000000
56.428668	20.642363	14.718388	-0.059509	0.073953	2.796266	0.000000	-0.001758	0.000000	-0.000007	-0.000001	0.000000	0.000000
56.762001	20.687438	14.676677	-0.075714	0.051182	2.795681	0.000000	-0.001758	0.000000	-0.000007	-0.000001	0.000000	0.000000
57.095334	20.743316	14.650146	-0.091919	0.028410	2.795095	0.000000	-0.001758	0.000000	-0.000007	-0.000001	0.000000	0.000000
57.429918	20.810267	14.638782	-0.108185	0.005554	2.794507	0.000000	-0.001758	0.000000	-0.000008	-0.000001	0.000000	0.000000
57.727240	20.878897	14.641519	-0.177196	0.023500	2.793985	0.000000	0.005543	0.000000	-0.000008	-0.000001	0.000000	0.000000
58.276300	20.717290	14.896851	0.469787	-0.491280	2.774390	0.000000	-0.076817	0.000000	-0.000008	-0.000001	0.000000	0.000000
58.825360	19.859317	15.733256	1.083586	-1.041053	2.709881	0.000000	-0.157815	0.000000	-0.000008	-0.000000	0.000000	0.000000
59.374420	18.365579	17.210310	1.620846	-1.664977	2.601604	0.000000	-0.236014	0.000000	-0.000009	-0.000000	0.000000	0.000000
59.923480	16.341587	19.433219	2.043618	-2.407495	2.451478	0.000000	-0.310027	0.000000	-0.000009	0.000000	0.000000	0.000000
60.369440	14.757435	21.408952	1.521190	-2.004095	2.328508	0.000000	-0.241746	0.000000	-0.000008	0.000000	0.000000	0.000000
60.810400	13.618061	22.964839	1.072464	-1.510887	2.236355	0.000000	-0.176616	0.000000	-0.000008	-0.000000	0.000000	0.000000
61.251360	12.851406	24.053664	0.672735	-0.948934	2.172452	0.000000	-0.113498	0.000000	-0.000009	-0.000000	0.000000	0.000000
61.692320	12.422446	24.625888	0.303742	-0.343805	2.136070	0.000000	-0.051672	0.000000	-0.000009	-0.000001	0.000000	0.000000
62.134530	12.311635	24.654933	-0.021281	0.216446	2.126801	0.000000	0.004349	0.000000	-0.000009	-0.000001	0.000000	0.000000
62.431853	12.331474	24.529978	-0.045442	0.203821	2.128094	0.000000	0.004349	0.000000	-0.000009	-0.000001	0.000000	0.000000
62.765186	12.370797	24.398815	-0.072529	0.189668	2.129544	0.000000	0.004349	0.000000	-0.000010	-0.000001	0.000000	0.000000
63.098520	12.428179	24.277087	-0.099616	0.175515	2.130994	0.000000	0.004349	0.000000	-0.000010	-0.000001	0.000000	0.000000
63.433103	12.503935	24.164392	-0.126804	0.161308	2.132449	0.000000	0.004349	0.000000	-0.000010	-0.000001	0.000000	0.000000
63.730426	12.586522	24.072224	-0.120096	0.089646	2.133742	0.000000	-0.000884	0.000000	-0.000011	-0.000001	0.000000	0.000000
64.171386	12.852733	23.728059	-0.485903	0.687874	2.146892	0.000000	0.060582	0.000000	-0.000011	-0.000001	0.000000	0.000000
64.612346	13.450090	22.868143	-0.873910	1.254805	2.187273	0.000000	0.122738	0.000000	-0.000011	-0.000001	0.000000	0.000000
65.053306	14.405883	21.531601	-1.301843	1.764643	2.255343	0.000000	0.186292	0.000000	-0.000012	-0.000002	0.000000	0.000000
65.494266	15.763781	19.779245	-1.789253	2.194192	2.351880	0.000000	0.251968	0.000000	-0.000013	-0.000002	0.000000	0.000000
65.940226	17.608983	17.666011	-2.363101	2.524659	2.479554	0.000000	0.320916	0.000000	-0.000014	-0.000002	0.000000	0.000000
66.489286	19.974409	15.301977	-1.919535	1.806358	2.635392	0.000000	0.245901	0.000000	-0.000015	-0.000002	0.000000	0.000000
67.038346	21.774957	13.651866	-1.340384	1.216720	2.748783	0.000000	0.166524	0.000000	-0.000016	-0.000001	0.000000	0.000000
67.587406	22.883448	12.598144	-0.666554	0.713747	2.817715	0.000000	0.084194	0.000000	-0.000017	-0.000001	0.000000	0.000000
68.136466	23.221582	12.065757	0.054358	0.261612	2.840965	0.000000	0.000371	0.000000	-0.000017	-0.000000	0.000000	0.000000
68.435038	23.229197	11.898732	-0.019183	0.266270	2.843293	0.000000	0.007795	0.000000	-0.000017	-0.000000	0.000000	0.000000
68.768372	23.246771	11.731219	-0.033538	0.236269	2.845891	0.000000	0.007795	0.000000	-0.000017	-0.000000	0.000000	0.000000
69.101705	23.273915	11.583706	-0.047893	0.206269	2.848489	0.000000	0.007795	0.000000	-0.000017	-0.000000	0.000000	0.000000
69.436288	23.310784	11.455753	-0.062302	0.176156	2.851098	0.000000	0.007795	0.000000	-0.000017	-0.000000	0.000000	0.000000
69.733611	23.351638	11.358958	-0.136128	0.179080	2.853415	0.000000	0.015251	0.000000	-0.000018	-0.000000	0.000000	0.000000
70.282671	23.100069	11.389801	0.591598	-0.235585	2.838607	0.000000	-0.069112	0.000000	-0.000018	0.000000	0.000000	0.000000
