#ParticleID	Turn	x[m]	xp	y[m]	yp	z[m]	dE[GeV]# s	beta_x	beta_y	alpha_x	alpha_y	D_x	D_y	D_px	D_py	orbit_x	orbit_px	orbit_y	orbit_py
0.300000	11.807962	25.041393	-0.010485	-0.026998	2.618202	0.000000	-0.000023	0.000000	-0.000001	0.000001	0.000000	0.000000
0.601250	11.821966	25.061286	-0.036000	-0.039036	2.618195	0.000000	-0.000023	0.000000	-0.000000	0.000001	0.000000	0.000000
0.898573	11.850861	25.088031	-0.032121	-0.112441	2.618187	0.000000	-0.006443	0.000000	0.000000	0.000001	0.000000	0.000000
1.339533	12.031249	24.908889	-0.378512	0.517150	2.631639	0.000000	0.067516	0.000000	0.000001	0.000001	0.000000	0.000000
1.780493	12.523569	24.182792	-0.742196	1.123212	2.677842	0.000000	0.142244	0.000000	0.000001	0.000001	0.000000	0.000000
2.221453	13.350313	22.942777	-1.139789	1.678168	2.757323	0.000000	0.218592	0.000000	0.000002	0.000002	0.000000	0.000000
2.662413	14.549253	21.245264	-1.589456	2.156769	2.870987	0.000000	0.297429	0.000000	0.000003	0.000002	0.000000	0.000000
3.108373	16.195894	19.142595	-2.116027	2.538371	3.021989	0.000000	0.380144	0.000000	0.000003	0.000002	0.000000	0.000000
3.657433	18.307461	16.780954	-1.706992	1.788260	3.205438	0.000000	0.287107	0.000000	0.000004	0.000002	0.000000	0.000000
4.206493	19.900587	15.168667	-1.177384	1.165523	3.336329	0.000000	0.188976	0.000000	0.000005	0.000001	0.000000	0.000000
4.755553	20.862743	14.190892	-0.564611	0.625804	3.412340	0.000000	0.087494	0.000000	0.000006	0.000001	0.000000	0.000000
5.304613	21.125966	13.777986	0.088043	0.130659	3.432122	0.000000	-0.015540	0.000000	0.000006	0.000001	0.000000	0.000000
5.603185	21.110575	13.685118	0.018700	0.144384	3.430160	0.000000	-0.006573	0.000000	0.000007	0.000001	0.000000	0.000000
5.936519	21.103374	13.597150	0.002904	0.119519	3.427968	0.000000	-0.006573	0.000000	0.000007	0.000001	0.000000	0.000000
6.269852	21.106703	13.525759	-0.012891	0.094654	3.425777	0.000000	-0.006573	0.000000	0.000007	0.000001	0.000000	0.000000
6.604435	21.120634	13.470770	-0.028746	0.069696	3.423578	0.000000	-0.006573	0.000000	0.000008	0.000001	0.000000	0.000000
6.901758	21.141916	13.435920	-0.098071	0.082620	3.421623	0.000000	0.002367	0.000000	0.000008	0.000001	0.000000	0.000000
7.450818	20.889310	13.606096	0.555419	-0.394390	3.394722	0.000000	-0.100212	0.000000	0.000008	0.000001	0.000000	0.000000
7.999878	19.936488	14.312347	1.169677	-0.899492	3.311905	0.000000	-0.201013	0.000000	0.000009	0.000000	0.000000	0.000000
8.548938	18.350754	15.604976	1.701315	-1.468663	3.174640	0.000000	-0.298248	0.000000	0.000009	0.000000	0.000000	0.000000
9.097998	16.244116	17.576056	2.112780	-2.142443	2.985364	0.000000	-0.390193	0.000000	0.000009	-0.000000	0.000000	0.000000
9.543958	14.600584	19.332368	1.585703	-1.779183	2.829659	0.000000	-0.308490	0.000000	0.000009	0.000000	0.000000	0.000000
9.984918	13.405241	20.711378	1.135357	-1.336206	2.710873	0.000000	-0.230784	0.000000	0.000009	0.000000	0.000000	0.000000
10.425878	12.582778	21.671314	0.736882	-0.832433	2.625741	0.000000	-0.155706	0.000000	0.000009	0.000001	0.000000	0.000000
10.866838	12.095621	22.168501	0.372074	-0.290785	2.573292	0.000000	-0.082402	0.000000	0.000010	0.000001	0.000000	0.000000
11.309048	11.921379	22.179792	0.053391	0.209646	2.552910	0.000000	-0.016296	0.000000	0.000010	0.000001	0.000000	0.000000
11.606371	11.897067	22.059288	0.028380	0.195652	2.548065	0.000000	-0.016296	0.000000	0.000011	0.000001	0.000000	0.000000
12.086371	11.889204	21.882306	-0.011999	0.173060	2.540242	0.000000	-0.016296	0.000000	0.000011	0.000001	0.000000	0.000000
12.566371	11.920105	21.727013	-0.052378	0.150467	2.532420	0.000000	-0.016296	0.000000	0.000012	0.000001	0.000000	0.000000
13.046371	11.989769	21.593409	-0.092756	0.127875	2.524597	0.000000	-0.016296	0.000000	0.000012	0.000001	0.000000	0.000000
13.526371	12.098197	21.481494	-0.133135	0.105282	2.516775	0.000000	-0.016296	0.000000	0.000013	0.000001	0.000000	0.000000
14.007621	12.245822	21.391060	-0.173618	0.082631	2.508932	0.000000	-0.016296	0.000000	0.000013	0.000001	0.000000	0.000000
14.304943	12.356499	21.346085	-0.168332	0.016297	2.504086	0.000000	-0.022436	0.000000	0.000014	0.000001	0.000000	0.000000
14.745903	12.663460	21.098091	-0.530427	0.543958	2.509823	0.000000	0.048482	0.000000	0.000014	0.000001	0.000000	0.000000
15.186863	13.299199	20.393920	-0.916756	1.046871	2.546924	0.000000	0.119953	0.000000	0.000015	0.000002	0.000000	0.000000
15.627823	14.292761	19.265609	-1.344970	1.502151	2.615810	0.000000	0.192789	0.000000	0.000016	0.000002	0.000000	0.000000
16.068783	15.689539	17.764498	-1.834631	1.889084	2.717268	0.000000	0.267821	0.000000	0.000017	0.000003	0.000000	0.000000
16.514743	17.577009	15.937383	-2.412869	2.190809	2.854147	0.000000	0.346366	0.000000	0.000018	0.000003	0.000000	0.000000
17.063803	20.001264	13.897288	-1.976274	1.546736	3.020593	0.000000	0.259042	0.000000	0.000019	0.000002	0.000000	0.000000
17.612863	21.866127	12.500177	-1.400084	1.012834	3.137759	0.000000	0.167123	0.000000	0.000021	0.000002	0.000000	0.000000
18.161923	23.039875	11.646536	-0.725000	0.551074	3.203568	0.000000	0.072240	0.000000	0.000021	0.000001	0.000000	0.000000
18.710983	23.439598	11.275562	0.001295	0.128566	3.216851	0.000000	-0.023924	0.000000	0.000022	0.000000	0.000000	0.000000
19.009556	23.479206	11.189304	-0.072720	0.130880	3.212217	0.000000	-0.015520	0.000000	0.000022	0.000000	0.000000	0.000000
19.342889	23.532444	11.112150	-0.086992	0.100580	3.207044	0.000000	-0.015520	0.000000	0.000022	0.000000	0.000000	0.000000
19.676223	23.595196	11.055197	-0.101264	0.070279	3.201870	0.000000	-0.015520	0.000000	0.000022	0.000000	0.000000	0.000000
20.010806	23.668045	11.018209	-0.232855	0.094456	3.196697	0.000000	0.000318	0.000000	0.000023	0.000001	0.000000	0.000000
20.308129	23.810448	10.970136	-0.308298	0.095888	3.196791	0.000000	0.008669	0.000000	0.000023	0.000001	0.000000	0.000000
20.857189	23.738318	11.086835	0.438890	-0.309686	3.175334	0.000000	-0.086713	0.000000	0.000023	-0.000000	0.000000	0.000000
21.406249	22.857922	11.658329	1.155078	-0.737318	3.101852	0.000000	-0.180557	0.000000	0.000023	-0.000001	0.000000	0.000000
21.955309	21.231446	12.725325	1.789677	-1.217467	2.977650	0.000000	-0.271198	0.000000	0.000022	-0.000002	0.000000	0.000000
22.504369	18.973776	14.363823	2.297862	-1.784334	2.804929	0.000000	-0.357029	0.000000	0.000021	-0.000002	0.000000	0.000000
22.950329	17.194459	15.834963	1.706076	-1.500564	2.663002	0.000000	-0.279826	0.000000	0.000020	-0.000002	0.000000	0.000000
23.391289	15.919186	17.007942	1.196933	-1.149372	2.555930	0.000000	-0.206266	0.000000	0.000019	-0.000001	0.000000	0.000000
23.832249	15.067217	17.846867	0.742474	-0.745884	2.480748	0.000000	-0.135054	0.000000	0.000019	-0.000001	0.000000	0.000000
24.273209	14.599628	18.313567	0.321937	-0.308460	2.436599	0.000000	-0.065381	0.000000	0.000019	-0.000000	0.000000	0.000000
24.715418	14.495177	18.386562	-0.048439	0.097849	2.422976	0.000000	-0.002393	0.000000	0.000019	0.000000	0.000000	0.000000
25.012741	14.530094	18.333231	-0.068999	0.081523	2.422264	0.000000	-0.002393	0.000000	0.000019	0.000000	0.000000	0.000000
25.346075	14.583776	18.284983	-0.092049	0.063221	2.421467	0.000000	-0.002393	0.000000	0.000019	0.000000	0.000000	0.000000
25.679408	14.652825	18.248937	-0.115099	0.044918	2.420669	0.000000	-0.002393	0.000000	0.000019	0.000000	0.000000	0.000000
26.013991	14.737288	18.225396	-0.018677	-0.121307	2.419844	0.000000	-0.022024	0.000000	0.000019	0.000000	0.000000	0.000000
26.311314	14.754395	18.302452	-0.002683	-0.182736	2.413295	0.000000	-0.027941	0.000000	0.000019	0.000000	0.000000	0.000000
26.752274	14.938529	18.265136	-0.416478	0.267039	2.416083	0.000000	0.040598	0.000000	0.000019	0.000001	0.000000	0.000000
27.193234	15.494578	17.835018	-0.849301	0.704663	2.449167	0.000000	0.109600	0.000000	0.000019	0.000001	0.000000	0.000000
27.634194	16.447945	17.031667	-1.320926	1.110225	2.512924	0.000000	0.179850	0.000000	0.000020	0.000002	0.000000	0.000000
28.075154	17.842187	15.891637	-1.852900	1.465273	2.608080	0.000000	0.252149	0.000000	0.000021	0.000002	0.000000	0.000000
28.521114	19.765223	14.449622	-2.474499	1.754564	2.737322	0.000000	0.327763	0.000000	0.000022	0.000003	0.000000	0.000000
29.070174	22.209405	12.842994	-1.950722	1.188850	2.894620	0.000000	0.244372	0.000000	0.000023	0.000002	0.000000	0.000000
29.619234	23.998886	11.807723	-1.289155	0.707814	3.004874	0.000000	0.156647	0.000000	0.000024	0.000001	0.000000	0.000000
30.168294	25.007266	11.270068	-0.536528	0.277194	3.066126	0.000000	0.066144	0.000000	0.000024	0.000000	0.000000	0.000000
30.717354	25.163317	11.191733	0.253996	-0.133681	3.077292	0.000000	-0.025533	0.000000	0.000024	-0.000000	0.000000	0.000000
31.015927	25.054565	11.262154	0.175976	-0.131414	3.072069	0.000000	-0.017494	0.000000	0.000024	-0.000000	0.000000	0.000000
31.349260	24.941820	11.359800	0.162260	-0.161523	3.066237	0.000000	-0.017494	0.000000	0.000024	-0.000000	0.000000	0.000000
31.682593	24.838219	11.477519	0.148543	-0.191632	3.060406	0.000000	-0.017494	0.000000	0.000024	-0.000000	0.000000	0.000000
32.017177	24.743425	11.615864	0.134776	-0.221854	3.054553	0.000000	-0.017494	0.000000	0.000024	-0.000000	0.000000	0.000000
32.314499	24.666919	11.755773	0.058104	-0.218000	3.049352	0.000000	-0.009528	0.000000	0.000024	-0.000000	0.000000	0.000000
32.863559	24.180470	12.234353	0.822618	-0.658779	3.019241	0.000000	-0.099993	0.000000	0.000023	-0.000001	0.000000	0.000000
33.412619	22.881587	13.219732	1.529026	-1.146480	2.939874	0.000000	-0.188684	0.000000	0.000022	-0.000002	0.000000	0.000000
33.961679	20.862016	14.782097	2.127431	-1.715843	2.812660	0.000000	-0.274028	0.000000	0.000021	-0.000003	0.000000	0.000000
34.510739	18.264410	17.032733	2.575565	-2.407422	2.639854	0.000000	-0.354512	0.000000	0.000020	-0.000003	0.000000	0.000000
34.956699	16.244631	19.045866	1.969718	-2.087885	2.498097	0.000000	-0.281589	0.000000	0.000018	-0.000003	0.000000	0.000000
35.397659	14.738471	20.711086	1.458878	-1.674095	2.389309	0.000000	-0.212301	0.000000	0.000017	-0.000002	0.000000	0.000000
35.838619	13.651847	21.976266	1.014691	-1.184135	2.310512	0.000000	-0.145432	0.000000	0.000016	-0.000002	0.000000	0.000000
36.279579	12.935116	22.783841	0.616862	-0.640298	2.260808	0.000000	-0.080219	0.000000	0.000016	-0.000001	0.000000	0.000000
36.721789	12.554837	23.097378	0.277894	-0.124015	2.239606	0.000000	-0.021411	0.000000	0.000015	-0.000001	0.000000	0.000000
37.019112	12.397173	23.175009	0.252383	-0.137086	2.233240	0.000000	-0.021411	0.000000	0.000015	-0.000001	0.000000	0.000000
37.352445	12.238451	23.271284	0.223783	-0.151739	2.226104	0.000000	-0.021411	0.000000	0.000014	-0.000001	0.000000	0.000000
37.685779	12.098796	23.377328	0.195182	-0.166393	2.218967	0.000000	-0.021411	0.000000	0.000014	-0.000001	0.000000	0.000000
38.020362	11.977792	23.493594	0.166475	-0.181102	2.211804	0.000000	-0.021411	0.000000	0.000014	-0.000001	0.000000	0.000000
38.317684	11.886383	23.605172	0.170109	-0.252052	2.205438	0.000000	-0.026818	0.000000	0.000013	-0.000001	0.000000	0.000000
38.758644	11.887880	23.565995	-0.173517	0.340557	2.207539	0.000000	0.036354	0.000000	0.000013	-0.000001	0.000000	0.000000
39.199604	12.194765	23.009048	-0.525070	0.917671	2.237561	0.000000	0.099940	0.000000	0.000013	-0.000000	0.000000	0.000000
39.640564	12.821058	21.959670	-0.900613	1.453031	2.295845	0.000000	0.164664	0.000000	0.000013	-0.000000	0.000000	0.000000
40.081524	13.795373	20.465607	-1.317302	1.922280	2.383057	0.000000	0.231264	0.000000	0.000013	0.000000	0.000000	0.000000
40.527484	15.179801	18.572262	-1.798002	2.305352	2.501660	0.000000	0.300903	0.000000	0.000013	0.000001	0.000000	0.000000
41.076544	16.946416	16.444568	-1.400476	1.592677	2.646346	0.000000	0.225353	0.000000	0.000013	0.000000	0.000000	0.000000
41.625604	18.219261	15.032964	-0.904027	0.993445	2.748390	0.000000	0.145805	0.000000	0.000013	-0.000000	0.000000	0.000000
42.174664	18.908431	14.236903	-0.343723	0.464974	2.805983	0.000000	0.063672	0.000000	0.000013	-0.000001	0.000000	0.000000
42.723724	18.965244	13.999684	0.240861	-0.030378	2.818102	0.000000	-0.019592	0.000000	0.000012	-0.000001	0.000000	0.000000
43.022297	18.855875	14.002351	0.174994	-0.015131	2.814451	0.000000	-0.012229	0.000000	0.000012	-0.000001	0.000000	0.000000
43.502297	18.700474	14.033334	0.148758	-0.049418	2.808582	0.000000	-0.012229	0.000000	0.000011	-0.000001	0.000000	0.000000
43.982297	18.570260	14.097234	0.122522	-0.083706	2.802712	0.000000	-0.012229	0.000000	0.000011	-0.000001	0.000000	0.000000
44.462297	18.465232	14.194050	0.096286	-0.117994	2.796843	0.000000	-0.012229	0.000000	0.000010	-0.000001	0.000000	0.000000
44.942297	18.385390	14.323783	0.070050	-0.152282	2.790973	0.000000	-0.012229	0.000000	0.000010	-0.000001	0.000000	0.000000
45.423547	18.330853	14.486718	-0.047075	-0.114883	2.785106	0.000000	0.001570	0.000000	0.000009	-0.000001	0.000000	0.000000
45.720870	18.363679	14.561216	-0.111308	-0.097635	2.785573	0.000000	0.008847	0.000000	0.000009	-0.000001	0.000000	0.000000
46.269930	18.176706	14.950014	0.449824	-0.614661	2.767861	0.000000	-0.073271	0.000000	0.000008	-0.000001	0.000000	0.000000
46.818990	17.387424	15.927135	0.979182	-1.175469	2.705353	0.000000	-0.154090	0.000000	0.000008	-0.000002	0.000000	0.000000
47.368050	16.051582	17.562178	1.439375	-1.820002	2.599155	0.000000	-0.232176	0.000000	0.000007	-0.000002	0.000000	0.000000
47.917110	14.263539	19.971602	1.797899	-2.594171	2.451154	0.000000	-0.306143	0.000000	0.000006	-0.000002	0.000000	0.000000
48.363070	12.872155	22.113731	1.333132	-2.189047	2.329918	0.000000	-0.237849	0.000000	0.000005	-0.000002	0.000000	0.000000
48.804030	11.876639	23.828821	0.933042	-1.685598	2.239496	0.000000	-0.172660	0.000000	0.000004	-0.000002	0.000000	0.000000
49.244990	11.213911	25.064266	0.575580	-1.105457	2.177359	0.000000	-0.109438	0.000000	0.000003	-0.000002	0.000000	0.000000
49.685950	10.853692	25.763854	0.244415	-0.475017	2.142799	0.000000	-0.047463	0.000000	0.000003	-0.000002	0.000000	0.000000
50.128160	10.779648	25.895471	-0.049265	0.113484	2.135433	0.000000	0.008736	0.000000	0.000002	-0.000001	0.000000	0.000000
50.425482	10.817164	25.831446	-0.076914	0.101854	2.138031	0.000000	0.008736	0.000000	0.000002	-0.000001	0.000000	0.000000
50.758816	10.878773	25.767889	-0.107912	0.088816	2.140944	0.000000	0.008736	0.000000	0.000001	-0.000001	0.000000	0.000000
51.092149	10.961047	25.713024	-0.138909	0.075778	2.143856	0.000000	0.008736	0.000000	0.000001	-0.000001	0.000000	0.000000
51.426732	11.064186	25.667215	-0.080263	-0.145534	2.146758	0.000000	-0.008680	0.000000	0.000000	-0.000001	0.000000	0.000000
51.724055	11.119955	25.757274	-0.080039	-0.220528	2.144178	0.000000	-0.013938	0.000000	-0.000000	-0.000001	0.000000	0.000000
52.165015	11.335754	25.665186	-0.411203	0.428567	2.151620	0.000000	0.047724	0.000000	-0.000001	-0.000002	0.000000	0.000000
52.605975	11.850762	25.007093	-0.761153	1.058163	2.186347	0.000000	0.109929	0.000000	-0.000002	-0.000002	0.000000	0.000000
53.046935	12.688508	23.812937	-1.145878	1.639614	2.248754	0.000000	0.173386	0.000000	-0.000002	-0.000002	0.000000	0.000000
53.487895	13.887266	22.137052	-1.582954	2.146463	2.339551	0.000000	0.238818	0.000000	-0.000003	-0.000002	0.000000	0.000000
53.933855	15.522355	20.030632	-2.096578	2.556988	2.461277	0.000000	0.307369	0.000000	-0.000004	-0.000002	0.000000	0.000000
54.482915	17.627525	17.660329	-1.714862	1.785516	2.609862	0.000000	0.233064	0.000000	-0.000005	-0.000002	0.000000	0.000000
55.031975	19.244127	16.062804	-1.212018	1.141222	2.716452	0.000000	0.154625	0.000000	-0.000006	-0.000001	0.000000	0.000000
55.581035	20.257971	15.124270	-0.623562	0.578215	2.779157	0.000000	0.073443	0.000000	-0.000006	-0.000001	0.000000	0.000000
56.130095	20.597446	14.777878	0.008938	0.056392	2.796864	0.000000	-0.009041	0.000000	-0.000007	-0.000001	0.000000	0.000000
56.428668	20.628584	14.727232	-0.059407	0.074620	2.796347	0.000000	-0.001733	0.000000	-0.000007	-0.000001	0.000000	0.000000
56.762001	20.673594	14.685072	-0.075623	0.051860	2.795769	0.000000	-0.001733	0.000000	-0.000008	-0.000001	0.000000	0.000000
57.095334	20.729414	14.658085	-0.091839	0.029101	2.795192	0.000000	-0.001733	0.000000	-0.000008	-0.000001	0.000000	0.000000
57.429918	20.796315	14.646255	-0.108115	0.006255	2.794613	0.000000	-0.001733	0.000000	-0.000008	-0.000001	0.000000	0.000000
57.727240	20.864906	14.648571	-0.177099	0.024231	2.794098	0.000000	0.005568	0.000000	-0.000009	-0.000001	0.000000	0.000000
58.276300	20.703451	14.903208	0.469416	-0.490736	2.774515	0.000000	-0.076796	0.000000	-0.000009	-0.000001	0.000000	0.000000
58.825360	19.846131	15.739101	1.082773	-1.040658	2.710017	0.000000	-0.157799	0.000000	-0.000010	-0.000000	0.000000	0.000000
59.374420	18.353503	17.215789	1.619649	-1.664703	2.601748	0.000000	-0.236002	0.000000	-0.000010	-0.000000	0.000000	0.000000
59.923480	16.330999	19.438454	2.042121	-2.407321	2.451627	0.000000	-0.310019	0.000000	-0.000010	0.000000	0.000000	0.000000
60.369440	14.748036	21.413945	1.520012	-2.003729	2.328662	0.000000	-0.241735	0.000000	-0.000010	-0.000000	0.000000	0.000000
60.810400	13.609581	22.969431	1.071547	-1.510347	2.236515	0.000000	-0.176601	0.000000	-0.000010	-0.000000	0.000000	0.000000
61.251360	12.843635	24.057712	0.672039	-0.948245	2.172619	0.000000	-0.113478	0.000000	-0.000010	-0.000001	0.000000	0.000000
61.692320	12.415204	24.629273	0.303234	-0.342998	2.136247	0.000000	-0.051648	0.000000	-0.000010	-0.000001	0.000000	0.000000
62.134530	12.304769	24.657566	-0.021641	0.217327	2.126989	0.000000	0.004377	0.000000	-0.000011	-0.000001	0.000000	0.000000
62.431853	12.324825	24.532088	-0.045816	0.204699	2.128291	0.000000	0.004377	0.000000	-0.000011	-0.000001	0.000000	0.000000
62.765186	12.364403	24.400341	-0.072918	0.190542	2.129750	0.000000	0.004377	0.000000	-0.000012	-0.000001	0.000000	0.000000
63.098520	12.422049	24.278031	-0.100020	0.176385	2.131210	0.000000	0.004377	0.000000	-0.000012	-0.000001	0.000000	0.000000
63.433103	12.498082	24.164755	-0.127225	0.162175	2.132675	0.000000	0.004377	0.000000	-0.000012	-0.000001	0.000000	0.000000
63.730426	12.580923	24.072073	-0.120543	0.090508	2.133976	0.000000	-0.000857	0.000000	-0.000013	-0.000001	0.000000	0.000000
64.171386	12.847476	23.727156	-0.486235	0.688710	2.147140	0.000000	0.060616	0.000000	-0.000013	-0.000001	0.000000	0.000000
64.612346	13.445080	22.866528	-0.874141	1.255577	2.187537	0.000000	0.122778	0.000000	-0.000014	-0.000002	0.000000	0.000000
65.053306	14.401036	21.529348	-1.301984	1.765315	2.255627	0.000000	0.186340	0.000000	-0.000015	-0.000002	0.000000	0.000000
65.494266	15.759021	19.776455	-1.789311	2.194733	2.352187	0.000000	0.252023	0.000000	-0.000016	-0.000003	0.000000	0.000000
65.940226	17.604238	17.662805	-2.363077	2.525044	2.479887	0.000000	0.320979	0.000000	-0.000017	-0.000003	0.000000	0.000000
66.489286	19.969750	15.298343	-1.919716	1.806759	2.635758	0.000000	0.245953	0.000000	-0.000018	-0.000002	0.000000	0.000000
67.038346	21.770603	13.647771	-1.340755	1.217164	2.749174	0.000000	0.166564	0.000000	-0.000020	-0.000002	0.000000	0.000000
67.587406	22.879594	12.593523	-0.667090	0.714266	2.818125	0.000000	0.084221	0.000000	-0.000020	-0.000001	0.000000	0.000000
68.136466	23.218391	12.060508	0.053694	0.262243	2.841386	0.000000	0.000384	0.000000	-0.000021	-0.000000	0.000000	0.000000
68.435038	23.226399	11.893119	-0.019842	0.266868	2.843718	0.000000	0.007809	0.000000	-0.000021	-0.000001	0.000000	0.000000
68.768372	23.244413	11.725215	-0.034199	0.236844	2.846321	0.000000	0.007809	0.000000	-0.000021	-0.000001	0.000000	0.000000
69.101705	23.271998	11.577327	-0.048556	0.206821	2.848924	0.000000	0.007809	0.000000	-0.000021	-0.000001	0.000000	0.000000
69.436288	23.309312	11.449012	-0.062967	0.176685	2.851538	0.000000	0.007809	0.000000	-0.000022	-0.000001	0.000000	0.000000
69.733611	23.350562	11.351910	-0.136795	0.179571	2.853860	0.000000	0.015267	0.000000	-0.000022	-0.000001	0.000000	0.000000
70.282671	23.099738	11.382103	0.590915	-0.234887	2.839056	0.000000	-0.069111	0.000000	-0.000022	0.000000	0.000000	0.000000
