#ParticleID	Turn	x[m]	xp	y[m]	yp	z[m]	dE[GeV]# s	beta_x	beta_y	alpha_x	alpha_y	D_x	D_y	D_px	D_py	orbit_x	orbit_px	orbit_y	orbit_py
0.300000	11.812526	25.023215	-0.010936	-0.027210	2.618126	0.000000	0.000006	0.000000	-0.000001	0.000001	0.000000	0.000000
0.601250	11.826799	25.043239	-0.036442	-0.039258	2.618128	0.000000	0.000006	0.000000	-0.000000	0.000001	0.000000	0.000000
0.898573	11.855953	25.070119	-0.032541	-0.112628	2.618129	0.000000	-0.006414	0.000000	-0.000000	0.000001	0.000000	0.000000
1.339533	12.036766	24.891350	-0.379059	0.516494	2.631594	0.000000	0.067544	0.000000	0.000001	0.000001	0.000000	0.000000
1.780493	12.529633	24.166028	-0.742894	1.122116	2.677809	0.000000	0.142271	0.000000	0.000001	0.000001	0.000000	0.000000
2.221453	13.357071	22.927156	-1.140671	1.676682	2.757302	0.000000	0.218618	0.000000	0.000002	0.000001	0.000000	0.000000
2.662413	14.556884	21.231100	-1.590562	2.154961	2.870977	0.000000	0.297455	0.000000	0.000002	0.000001	0.000000	0.000000
3.108373	16.204631	19.130158	-2.117410	2.536323	3.021990	0.000000	0.380170	0.000000	0.000003	0.000001	0.000000	0.000000
3.657433	18.317598	16.770484	-1.708144	1.786707	3.205454	0.000000	0.287132	0.000000	0.000003	0.000001	0.000000	0.000000
4.206493	19.911825	15.159683	-1.178223	1.164353	3.336359	0.000000	0.189001	0.000000	0.000004	0.000001	0.000000	0.000000
4.755553	20.874702	14.183022	-0.565079	0.624934	3.412383	0.000000	0.087518	0.000000	0.000005	0.000001	0.000000	0.000000
5.304613	21.138218	13.770935	0.087980	0.130027	3.432178	0.000000	-0.015518	0.000000	0.000005	0.000001	0.000000	0.000000
5.603185	21.122882	13.678457	0.018612	0.143727	3.430221	0.000000	-0.006551	0.000000	0.000006	0.000001	0.000000	0.000000
5.936519	21.115736	13.590930	0.002826	0.118855	3.428038	0.000000	-0.006551	0.000000	0.000006	0.000001	0.000000	0.000000
6.269852	21.119114	13.519984	-0.012960	0.093982	3.425854	0.000000	-0.006551	0.000000	0.000006	0.000001	0.000000	0.000000
6.604435	21.133088	13.465448	-0.028805	0.069016	3.423662	0.000000	-0.006551	0.000000	0.000006	0.000001	0.000000	0.000000
6.901758	21.154403	13.431004	-0.098155	0.081922	3.421714	0.000000	0.002389	0.000000	0.000007	0.000001	0.000000	0.000000
7.450818	20.901659	13.601874	0.555752	-0.394964	3.394824	0.000000	-0.100192	0.000000	0.000007	0.000001	0.000000	0.000000
7.999878	19.948253	14.308705	1.170403	-0.899981	3.312016	0.000000	-0.200997	0.000000	0.000007	0.000000	0.000000	0.000000
8.548938	18.361528	15.601841	1.702383	-1.469103	3.174760	0.000000	-0.298236	0.000000	0.000007	0.000000	0.000000	0.000000
9.097998	16.253562	17.573391	2.114116	-2.142865	2.985489	0.000000	-0.390185	0.000000	0.000008	-0.000000	0.000000	0.000000
9.543958	14.608970	19.330137	1.586754	-1.779731	2.829789	0.000000	-0.308478	0.000000	0.000008	0.000000	0.000000	0.000000
9.984918	13.412806	20.709676	1.136174	-1.336854	2.711008	0.000000	-0.230769	0.000000	0.000008	0.000000	0.000000	0.000000
10.425878	12.589712	21.670217	0.737502	-0.833152	2.625883	0.000000	-0.155688	0.000000	0.000008	0.000001	0.000000	0.000000
10.866838	12.102084	22.168056	0.372525	-0.291541	2.573444	0.000000	-0.082380	0.000000	0.000008	0.000001	0.000000	0.000000
11.309048	11.927509	22.180020	0.053711	0.208886	2.553072	0.000000	-0.016270	0.000000	0.000008	0.000001	0.000000	0.000000
11.606371	11.903003	22.059966	0.028711	0.194896	2.548235	0.000000	-0.016270	0.000000	0.000009	0.000001	0.000000	0.000000
12.086371	11.894813	21.883707	-0.011648	0.172311	2.540425	0.000000	-0.016270	0.000000	0.000009	0.000001	0.000000	0.000000
12.566371	11.925367	21.729130	-0.052007	0.149725	2.532614	0.000000	-0.016270	0.000000	0.000010	0.000001	0.000000	0.000000
13.046371	11.994667	21.596235	-0.092366	0.127140	2.524804	0.000000	-0.016270	0.000000	0.000010	0.000001	0.000000	0.000000
13.526371	12.102711	21.485021	-0.132725	0.104554	2.516994	0.000000	-0.016270	0.000000	0.000011	0.000001	0.000000	0.000000
14.007621	12.249932	21.395285	-0.173190	0.081910	2.509164	0.000000	-0.016270	0.000000	0.000011	0.000001	0.000000	0.000000
14.304943	12.360352	21.350737	-0.167881	0.015568	2.504326	0.000000	-0.022411	0.000000	0.000011	0.000001	0.000000	0.000000
14.745903	12.666948	21.103326	-0.530049	0.543371	2.510075	0.000000	0.048514	0.000000	0.000012	0.000001	0.000000	0.000000
15.186863	13.302379	20.399600	-0.916434	1.046451	2.547191	0.000000	0.119990	0.000000	0.000012	0.000002	0.000000	0.000000
15.627823	14.295676	19.271579	-1.344688	1.501918	2.616096	0.000000	0.192834	0.000000	0.000013	0.000002	0.000000	0.000000
16.068783	15.692220	17.770586	-1.834377	1.889049	2.717576	0.000000	0.267874	0.000000	0.000014	0.000002	0.000000	0.000000
16.514743	17.579471	15.943414	-2.412632	2.190974	2.854480	0.000000	0.346427	0.000000	0.000015	0.000003	0.000000	0.000000
17.063803	20.003389	13.903215	-1.975901	1.546762	3.020957	0.000000	0.259092	0.000000	0.000016	0.000002	0.000000	0.000000
17.612863	21.867781	12.506151	-1.399603	1.012722	3.138148	0.000000	0.167161	0.000000	0.000017	0.000002	0.000000	0.000000
18.161923	23.040956	11.652712	-0.724444	0.550816	3.203973	0.000000	0.072265	0.000000	0.000018	0.000001	0.000000	0.000000
18.710983	23.440046	11.282110	0.001887	0.128144	3.217267	0.000000	-0.023912	0.000000	0.000018	0.000000	0.000000	0.000000
19.009556	23.479302	11.196087	-0.072131	0.130495	3.212637	0.000000	-0.015508	0.000000	0.000018	0.000000	0.000000	0.000000
19.342889	23.532146	11.119184	-0.086402	0.100216	3.207467	0.000000	-0.015508	0.000000	0.000019	0.000000	0.000000	0.000000
19.676223	23.594504	11.062466	-0.100672	0.069937	3.202298	0.000000	-0.015508	0.000000	0.000019	0.000000	0.000000	0.000000
20.010806	23.666956	11.025699	-0.232256	0.094172	3.197129	0.000000	0.000333	0.000000	0.000019	0.000000	0.000000	0.000000
20.308129	23.809003	10.977789	-0.307695	0.095645	3.197228	0.000000	0.008685	0.000000	0.000019	0.000001	0.000000	0.000000
20.857189	23.736240	11.094873	0.439433	-0.310149	3.175776	0.000000	-0.086711	0.000000	0.000019	-0.000000	0.000000	0.000000
21.406249	22.855298	11.667012	1.155522	-0.738034	3.102291	0.000000	-0.180569	0.000000	0.000019	-0.000001	0.000000	0.000000
21.955309	21.228404	12.734956	1.789991	-1.218488	2.978078	0.000000	-0.271224	0.000000	0.000018	-0.000001	0.000000	0.000000
22.504369	18.970472	14.374775	2.298023	-1.785732	2.805340	0.000000	-0.357069	0.000000	0.000017	-0.000002	0.000000	0.000000
22.950329	17.190992	15.847050	1.706284	-1.501702	2.663396	0.000000	-0.279856	0.000000	0.000017	-0.000001	0.000000	0.000000
23.391289	15.915511	17.020900	1.197197	-1.150199	2.556314	0.000000	-0.206285	0.000000	0.000016	-0.000001	0.000000	0.000000
23.832249	15.063280	17.860403	0.742806	-0.746364	2.481126	0.000000	-0.135064	0.000000	0.000016	-0.000001	0.000000	0.000000
24.273209	14.595363	18.327363	0.322353	-0.308569	2.436974	0.000000	-0.065380	0.000000	0.000016	-0.000000	0.000000	0.000000
24.715418	14.490501	18.400288	-0.047931	0.098080	2.423353	0.000000	-0.002384	0.000000	0.000016	0.000000	0.000000	0.000000
25.012741	14.525117	18.346816	-0.068496	0.081766	2.422644	0.000000	-0.002384	0.000000	0.000016	0.000000	0.000000	0.000000
25.346075	14.578467	18.298402	-0.091553	0.063476	2.421850	0.000000	-0.002384	0.000000	0.000016	0.000000	0.000000	0.000000
25.679408	14.647187	18.262181	-0.114609	0.045186	2.421055	0.000000	-0.002384	0.000000	0.000016	0.000000	0.000000	0.000000
26.013991	14.731325	18.238457	-0.018242	-0.121132	2.420233	0.000000	-0.022018	0.000000	0.000016	0.000000	0.000000	0.000000
26.311314	14.748175	18.315405	-0.002270	-0.182581	2.413686	0.000000	-0.027937	0.000000	0.000016	0.000000	0.000000	0.000000
26.752274	14.931877	18.277798	-0.415907	0.267541	2.416478	0.000000	0.040613	0.000000	0.000016	0.000000	0.000000	0.000000
27.193234	15.487343	17.847091	-0.848545	0.705491	2.449571	0.000000	0.109625	0.000000	0.000016	0.000001	0.000000	0.000000
27.634194	16.439949	17.042880	-1.319951	1.111341	2.513341	0.000000	0.179886	0.000000	0.000017	0.000001	0.000000	0.000000
28.075154	17.833218	15.901757	-1.851661	1.466626	2.608515	0.000000	0.252195	0.000000	0.000017	0.000002	0.000000	0.000000
28.521114	19.755010	14.458452	-2.472937	1.756093	2.737780	0.000000	0.327821	0.000000	0.000018	0.000002	0.000000	0.000000
29.070174	22.197615	12.850344	-1.949430	1.190034	2.895107	0.000000	0.244415	0.000000	0.000019	0.000002	0.000000	0.000000
29.619234	23.985869	11.813922	-1.288225	0.708738	3.005380	0.000000	0.156674	0.000000	0.000020	0.000001	0.000000	0.000000
30.168294	24.993457	11.275363	-0.536026	0.277925	3.066642	0.000000	0.066154	0.000000	0.000020	0.000000	0.000000	0.000000
30.717354	25.149210	11.196308	0.254035	-0.133093	3.077809	0.000000	-0.025540	0.000000	0.000020	-0.000000	0.000000	0.000000
31.015927	25.040416	11.266366	0.176043	-0.130798	3.072584	0.000000	-0.017499	0.000000	0.000020	-0.000000	0.000000	0.000000
31.349260	24.927629	11.363596	0.162318	-0.160891	3.066751	0.000000	-0.017499	0.000000	0.000020	-0.000000	0.000000	0.000000
31.682593	24.823992	11.480887	0.148594	-0.190984	3.060918	0.000000	-0.017499	0.000000	0.000020	-0.000000	0.000000	0.000000
32.017177	24.729167	11.618793	0.134818	-0.221189	3.055063	0.000000	-0.017499	0.000000	0.000020	-0.000000	0.000000	0.000000
32.314499	24.652638	11.758303	0.058174	-0.217314	3.049860	0.000000	-0.009532	0.000000	0.000020	-0.000000	0.000000	0.000000
32.863559	24.166372	12.236152	0.822216	-0.658126	3.019743	0.000000	-0.100013	0.000000	0.000019	-0.000001	0.000000	0.000000
33.412619	22.868178	13.220811	1.528180	-1.145814	2.940361	0.000000	-0.188720	0.000000	0.000019	-0.000002	0.000000	0.000000
33.961679	20.849753	14.782416	2.126202	-1.715116	2.813123	0.000000	-0.274079	0.000000	0.000018	-0.000002	0.000000	0.000000
34.510739	18.253670	17.032196	2.574039	-2.406582	2.640285	0.000000	-0.354577	0.000000	0.000016	-0.000003	0.000000	0.000000
34.956699	16.235102	19.044548	1.968520	-2.086980	2.498501	0.000000	-0.281644	0.000000	0.000015	-0.000002	0.000000	0.000000
35.397659	14.729875	20.708956	1.457952	-1.673166	2.389690	0.000000	-0.212346	0.000000	0.000014	-0.000002	0.000000	0.000000
35.838619	13.643965	21.973321	1.013993	-1.183225	2.310876	0.000000	-0.145467	0.000000	0.000014	-0.000002	0.000000	0.000000
36.279579	12.927761	22.780117	0.616361	-0.639447	2.261159	0.000000	-0.080245	0.000000	0.000013	-0.000001	0.000000	0.000000
36.721789	12.547846	23.092942	0.277551	-0.123253	2.239946	0.000000	-0.021429	0.000000	0.000013	-0.000001	0.000000	0.000000
37.019112	12.390390	23.170120	0.252030	-0.136324	2.233575	0.000000	-0.021429	0.000000	0.000012	-0.000001	0.000000	0.000000
37.352445	12.231906	23.265887	0.223419	-0.150978	2.226433	0.000000	-0.021429	0.000000	0.000012	-0.000001	0.000000	0.000000
37.685779	12.092498	23.371424	0.194808	-0.165631	2.219290	0.000000	-0.021429	0.000000	0.000012	-0.000001	0.000000	0.000000
38.020362	11.971748	23.487180	0.166089	-0.180340	2.212121	0.000000	-0.021429	0.000000	0.000011	-0.000001	0.000000	0.000000
38.317684	11.880571	23.598305	0.169700	-0.251275	2.205750	0.000000	-0.026837	0.000000	0.000011	-0.000001	0.000000	0.000000
38.758644	11.882371	23.558526	-0.173798	0.341141	2.207844	0.000000	0.036343	0.000000	0.000011	-0.000001	0.000000	0.000000
39.199604	12.189452	23.001158	-0.525236	0.918036	2.237863	0.000000	0.099937	0.000000	0.000011	-0.000000	0.000000	0.000000
39.640564	12.815843	21.951561	-0.900670	1.453161	2.296148	0.000000	0.164669	0.000000	0.000011	-0.000000	0.000000	0.000000
40.081524	13.790163	20.457491	-1.317254	1.922168	2.383363	0.000000	0.231277	0.000000	0.000011	0.000000	0.000000	0.000000
40.527484	15.174501	18.564353	-1.797847	2.305001	2.501973	0.000000	0.300924	0.000000	0.000011	0.000000	0.000000	0.000000
41.076544	16.941058	16.436926	-1.400529	1.592540	2.646668	0.000000	0.225363	0.000000	0.000011	0.000000	0.000000	0.000000
41.625604	18.214075	15.025361	-0.904284	0.993512	2.748715	0.000000	0.145805	0.000000	0.000011	-0.000000	0.000000	0.000000
42.174664	18.903630	14.229113	-0.344165	0.465249	2.806305	0.000000	0.063661	0.000000	0.000011	-0.000001	0.000000	0.000000
42.723724	18.961018	13.991469	0.240263	-0.029875	2.818415	0.000000	-0.019613	0.000000	0.000010	-0.000001	0.000000	0.000000
43.022297	18.852000	13.993853	0.174406	-0.014661	2.814758	0.000000	-0.012249	0.000000	0.000010	-0.000001	0.000000	0.000000
43.502297	18.697163	14.024395	0.148170	-0.048969	2.808879	0.000000	-0.012249	0.000000	0.000010	-0.000001	0.000000	0.000000
43.982297	18.567513	14.087874	0.121934	-0.083278	2.803000	0.000000	-0.012249	0.000000	0.000009	-0.000001	0.000000	0.000000
44.462297	18.463049	14.184288	0.095698	-0.117586	2.797121	0.000000	-0.012249	0.000000	0.000009	-0.000001	0.000000	0.000000
44.942297	18.383772	14.313638	0.069462	-0.151894	2.791242	0.000000	-0.012249	0.000000	0.000008	-0.000001	0.000000	0.000000
45.423547	18.329800	14.476211	-0.047658	-0.114567	2.785364	0.000000	0.001551	0.000000	0.000008	-0.000001	0.000000	0.000000
45.720870	18.362973	14.550524	-0.111891	-0.097360	2.785826	0.000000	0.008830	0.000000	0.000008	-0.000001	0.000000	0.000000
46.269930	18.176649	14.938842	0.449233	-0.614055	2.768102	0.000000	-0.073297	0.000000	0.000007	-0.000001	0.000000	0.000000
46.818990	17.388000	15.915095	0.978626	-1.174487	2.705577	0.000000	-0.154124	0.000000	0.000006	-0.000001	0.000000	0.000000
47.368050	16.052732	17.548822	1.438894	-1.818575	2.599359	0.000000	-0.232216	0.000000	0.000006	-0.000001	0.000000	0.000000
47.917110	14.265161	19.956389	1.797525	-2.592196	2.451334	0.000000	-0.306190	0.000000	0.000005	-0.000002	0.000000	0.000000
48.363070	12.874106	22.096903	1.332765	-2.187414	2.330078	0.000000	-0.237891	0.000000	0.000004	-0.000002	0.000000	0.000000
48.804030	11.878918	23.810731	0.932664	-1.684381	2.239638	0.000000	-0.172699	0.000000	0.000003	-0.000001	0.000000	0.000000
49.244990	11.216534	25.045307	0.575174	-1.104710	2.177484	0.000000	-0.109473	0.000000	0.000003	-0.000001	0.000000	0.000000
49.685950	10.856693	25.744458	0.243962	-0.474776	2.142910	0.000000	-0.047494	0.000000	0.000002	-0.000001	0.000000	0.000000
50.128160	10.783077	25.876089	-0.049777	0.113257	2.135531	0.000000	0.008707	0.000000	0.000002	-0.000001	0.000000	0.000000
50.425482	10.820895	25.812202	-0.077418	0.101619	2.138120	0.000000	0.008707	0.000000	0.000001	-0.000001	0.000000	0.000000
50.758816	10.882837	25.748805	-0.108408	0.088572	2.141022	0.000000	0.008707	0.000000	0.000001	-0.000001	0.000000	0.000000
51.092149	10.965439	25.694106	-0.139397	0.075525	2.143925	0.000000	0.008707	0.000000	0.000001	-0.000001	0.000000	0.000000
51.426732	11.068902	25.648469	-0.080704	-0.145644	2.146817	0.000000	-0.008710	0.000000	0.000000	-0.000001	0.000000	0.000000
51.724055	11.124930	25.738595	-0.080459	-0.220602	2.144228	0.000000	-0.013968	0.000000	-0.000000	-0.000001	0.000000	0.000000
52.165015	11.341152	25.646791	-0.411746	0.428002	2.151657	0.000000	0.047695	0.000000	-0.000001	-0.000001	0.000000	0.000000
52.605975	11.856702	24.989404	-0.761844	1.057132	2.186371	0.000000	0.109901	0.000000	-0.000001	-0.000001	0.000000	0.000000
53.046935	12.695134	23.796347	-1.146749	1.638163	2.248766	0.000000	0.173359	0.000000	-0.000002	-0.000001	0.000000	0.000000
53.487895	13.894754	22.121901	-1.584046	2.144659	2.339550	0.000000	0.238791	0.000000	-0.000003	-0.000001	0.000000	0.000000
53.933855	15.530934	20.017219	-2.097941	2.554913	2.461264	0.000000	0.307341	0.000000	-0.000003	-0.000001	0.000000	0.000000
54.482915	17.637485	17.648898	-1.715998	1.783958	2.609834	0.000000	0.233037	0.000000	-0.000004	-0.000001	0.000000	0.000000
55.031975	19.255173	16.052851	-1.212847	1.140072	2.716409	0.000000	0.154599	0.000000	-0.000005	-0.000001	0.000000	0.000000
55.581035	20.269731	15.115396	-0.624026	0.577389	2.779100	0.000000	0.073419	0.000000	-0.000005	-0.000001	0.000000	0.000000
56.130095	20.609497	14.769759	0.008874	0.055834	2.796794	0.000000	-0.009063	0.000000	-0.000006	-0.000001	0.000000	0.000000
56.428668	20.640690	14.719462	-0.059494	0.074031	2.796270	0.000000	-0.001755	0.000000	-0.000006	-0.000001	0.000000	0.000000
56.762001	20.685755	14.677698	-0.075701	0.051261	2.795685	0.000000	-0.001755	0.000000	-0.000006	-0.000001	0.000000	0.000000
57.095334	20.741624	14.651114	-0.091907	0.028491	2.795101	0.000000	-0.001755	0.000000	-0.000007	-0.000001	0.000000	0.000000
57.429918	20.808569	14.639696	-0.108175	0.005636	2.794514	0.000000	-0.001755	0.000000	-0.000007	-0.000001	0.000000	0.000000
57.727240	20.877192	14.642383	-0.177182	0.023586	2.793992	0.000000	0.005545	0.000000	-0.000007	-0.000001	0.000000	0.000000
58.276300	20.715601	14.897634	0.469744	-0.491217	2.774397	0.000000	-0.076816	0.000000	-0.000008	-0.000001	0.000000	0.000000
58.825360	19.857705	15.733981	1.083489	-1.041009	2.709890	0.000000	-0.157814	0.000000	-0.000008	-0.000000	0.000000	0.000000
59.374420	18.364100	17.210996	1.620702	-1.664949	2.601613	0.000000	-0.236013	0.000000	-0.000008	-0.000000	0.000000	0.000000
59.923480	16.340288	19.433882	2.043437	-2.407480	2.451488	0.000000	-0.310026	0.000000	-0.000008	0.000000	0.000000	0.000000
60.369440	14.756280	21.409591	1.521048	-2.004057	2.328519	0.000000	-0.241745	0.000000	-0.000008	-0.000000	0.000000	0.000000
60.810400	13.617016	22.965434	1.072353	-1.510827	2.236367	0.000000	-0.176615	0.000000	-0.000008	-0.000000	0.000000	0.000000
61.251360	12.850446	24.054198	0.672652	-0.948855	2.172464	0.000000	-0.113496	0.000000	-0.000008	-0.000001	0.000000	0.000000
61.692320	12.421549	24.626345	0.303682	-0.343711	2.136083	0.000000	-0.051670	0.000000	-0.000009	-0.000001	0.000000	0.000000
62.134530	12.310782	24.655300	-0.021323	0.216551	2.126814	0.000000	0.004351	0.000000	-0.000009	-0.000001	0.000000	0.000000
62.431853	12.330646	24.530283	-0.045485	0.203926	2.128108	0.000000	0.004351	0.000000	-0.000009	-0.000001	0.000000	0.000000
62.765186	12.369999	24.399050	-0.072574	0.189772	2.129559	0.000000	0.004351	0.000000	-0.000010	-0.000001	0.000000	0.000000
63.098520	12.427412	24.277253	-0.099663	0.175619	2.131010	0.000000	0.004351	0.000000	-0.000010	-0.000001	0.000000	0.000000
63.433103	12.503200	24.164489	-0.126854	0.161412	2.132466	0.000000	0.004351	0.000000	-0.000010	-0.000001	0.000000	0.000000
63.730426	12.585817	24.072260	-0.120149	0.089749	2.133760	0.000000	-0.000882	0.000000	-0.000011	-0.000001	0.000000	0.000000
64.171386	12.852068	23.728004	-0.485941	0.687975	2.146911	0.000000	0.060585	0.000000	-0.000011	-0.000001	0.000000	0.000000
64.612346	13.449453	22.868002	-0.873935	1.254900	2.187293	0.000000	0.122741	0.000000	-0.000012	-0.000001	0.000000	0.000000
65.053306	14.405263	21.531381	-1.301856	1.764728	2.255365	0.000000	0.186296	0.000000	-0.000012	-0.000002	0.000000	0.000000
65.494266	15.763167	19.778957	-1.789255	2.194261	2.351904	0.000000	0.251973	0.000000	-0.000013	-0.000002	0.000000	0.000000
65.940226	17.608366	17.665668	-2.363092	2.524711	2.479580	0.000000	0.320921	0.000000	-0.000014	-0.000002	0.000000	0.000000
66.489286	19.973796	15.301578	-1.919552	1.806410	2.635421	0.000000	0.245905	0.000000	-0.000015	-0.000002	0.000000	0.000000
67.038346	21.774377	13.651407	-1.340425	1.216777	2.748814	0.000000	0.166528	0.000000	-0.000016	-0.000001	0.000000	0.000000
67.587406	22.882925	12.597620	-0.666617	0.713811	2.817748	0.000000	0.084197	0.000000	-0.000017	-0.000001	0.000000	0.000000
68.136466	23.221139	12.065155	0.054277	0.261688	2.840999	0.000000	0.000372	0.000000	-0.000017	-0.000000	0.000000	0.000000
68.435038	23.228802	11.898086	-0.019263	0.266343	2.843326	0.000000	0.007796	0.000000	-0.000018	-0.000000	0.000000	0.000000
68.768372	23.246429	11.730525	-0.033618	0.236340	2.845925	0.000000	0.007796	0.000000	-0.000018	-0.000000	0.000000	0.000000
69.101705	23.273626	11.582966	-0.047973	0.206337	2.848524	0.000000	0.007796	0.000000	-0.000018	-0.000000	0.000000	0.000000
69.436288	23.310549	11.454969	-0.062382	0.176221	2.851133	0.000000	0.007796	0.000000	-0.000018	-0.000000	0.000000	0.000000
69.733611	23.351452	11.358137	-0.136209	0.179140	2.853451	0.000000	0.015253	0.000000	-0.000018	-0.000000	0.000000	0.000000
70.282671	23.099974	11.388900	0.591513	-0.235500	2.838643	0.000000	-0.069112	0.000000	-0.000018	0.000000	0.000000	0.000000
