#ParticleID	Turn	x[m]	xp	y[m]	yp	z[m]	dE[GeV]# s	beta_x	beta_y	alpha_x	alpha_y	D_x	D_y	D_px	D_py	orbit_x	orbit_px	orbit_y	orbit_py
0.300000	11.806726	25.046190	-0.010373	-0.026937	2.618231	0.000000	-0.000034	0.000000	-0.000001	0.000002	0.000000	0.000000
0.601250	11.820663	25.066045	-0.035891	-0.038973	2.618221	0.000000	-0.000034	0.000000	-0.000001	0.000002	0.000000	0.000000
0.898573	11.849493	25.092753	-0.032018	-0.112387	2.618210	0.000000	-0.006455	0.000000	-0.000000	0.000002	0.000000	0.000000
1.339533	12.029776	24.913508	-0.378375	0.517328	2.631657	0.000000	0.067504	0.000000	0.000001	0.000002	0.000000	0.000000
1.780493	12.521958	24.187202	-0.742019	1.123505	2.677855	0.000000	0.142233	0.000000	0.000001	0.000002	0.000000	0.000000
2.221453	13.348525	22.946882	-1.139563	1.678563	2.757331	0.000000	0.218581	0.000000	0.000002	0.000002	0.000000	0.000000
2.662413	14.547241	21.248982	-1.589172	2.157248	2.870989	0.000000	0.297419	0.000000	0.000003	0.000002	0.000000	0.000000
3.108373	16.193597	19.145855	-2.115671	2.538914	3.021987	0.000000	0.380134	0.000000	0.000004	0.000002	0.000000	0.000000
3.657433	18.304804	16.783694	-1.706697	1.788673	3.205430	0.000000	0.287096	0.000000	0.000005	0.000002	0.000000	0.000000
4.206493	19.897651	15.171011	-1.177171	1.165835	3.336315	0.000000	0.188966	0.000000	0.000005	0.000002	0.000000	0.000000
4.755553	20.859626	14.192940	-0.564496	0.626037	3.412321	0.000000	0.087485	0.000000	0.000006	0.000001	0.000000	0.000000
5.304613	21.122780	13.779814	0.088053	0.130830	3.432098	0.000000	-0.015549	0.000000	0.000007	0.000001	0.000000	0.000000
5.603185	21.107379	13.686840	0.018716	0.144561	3.430132	0.000000	-0.006582	0.000000	0.000007	0.000001	0.000000	0.000000
5.936519	21.100168	13.598754	0.002918	0.119698	3.427938	0.000000	-0.006582	0.000000	0.000008	0.000001	0.000000	0.000000
6.269852	21.103488	13.527243	-0.012880	0.094834	3.425744	0.000000	-0.006582	0.000000	0.000008	0.000001	0.000000	0.000000
6.604435	21.117413	13.472133	-0.028737	0.069878	3.423541	0.000000	-0.006582	0.000000	0.000008	0.000001	0.000000	0.000000
6.901758	21.138690	13.437174	-0.098055	0.082807	3.421584	0.000000	0.002358	0.000000	0.000009	0.000001	0.000000	0.000000
7.450818	20.886126	13.607163	0.555327	-0.394235	3.394678	0.000000	-0.100219	0.000000	0.000009	0.000001	0.000000	0.000000
7.999878	19.933462	14.313255	1.169484	-0.899357	3.311857	0.000000	-0.201019	0.000000	0.000010	0.000001	0.000000	0.000000
8.548938	18.347990	15.605743	1.701034	-1.468539	3.174590	0.000000	-0.298253	0.000000	0.000010	0.000000	0.000000	0.000000
9.097998	16.241699	17.576688	2.112432	-2.142321	2.985311	0.000000	-0.390196	0.000000	0.000010	-0.000000	0.000000	0.000000
9.543958	14.598444	19.332877	1.585428	-1.779029	2.829605	0.000000	-0.308494	0.000000	0.000010	0.000000	0.000000	0.000000
9.984918	13.403315	20.711740	1.135142	-1.336028	2.710816	0.000000	-0.230790	0.000000	0.000010	0.000000	0.000000	0.000000
10.425878	12.581019	21.671512	0.736718	-0.832239	2.625681	0.000000	-0.155713	0.000000	0.000010	0.000001	0.000000	0.000000
10.866838	12.093987	22.168523	0.371952	-0.290583	2.573229	0.000000	-0.082411	0.000000	0.000011	0.000001	0.000000	0.000000
11.309048	11.919836	22.179635	0.053303	0.209848	2.552842	0.000000	-0.016306	0.000000	0.000011	0.000001	0.000000	0.000000
11.606371	11.895577	22.059011	0.028289	0.195852	2.547994	0.000000	-0.016306	0.000000	0.000012	0.000001	0.000000	0.000000
12.086371	11.887804	21.881839	-0.012095	0.173258	2.540166	0.000000	-0.016306	0.000000	0.000012	0.000001	0.000000	0.000000
12.566371	11.918799	21.726357	-0.052478	0.150663	2.532339	0.000000	-0.016306	0.000000	0.000013	0.000001	0.000000	0.000000
13.046371	11.988562	21.592565	-0.092862	0.128069	2.524511	0.000000	-0.016306	0.000000	0.000013	0.000001	0.000000	0.000000
13.526371	12.097093	21.480465	-0.133245	0.105474	2.516683	0.000000	-0.016306	0.000000	0.000014	0.000001	0.000000	0.000000
14.007621	12.244826	21.389848	-0.173734	0.082821	2.508835	0.000000	-0.016306	0.000000	0.000015	0.000001	0.000000	0.000000
14.304943	12.355574	21.344760	-0.168453	0.016490	2.503987	0.000000	-0.022446	0.000000	0.000015	0.000001	0.000000	0.000000
14.745903	12.662633	21.096613	-0.530531	0.544111	2.509718	0.000000	0.048470	0.000000	0.000016	0.000002	0.000000	0.000000
15.186863	13.298458	20.392326	-0.916848	1.046977	2.546813	0.000000	0.119937	0.000000	0.000016	0.000002	0.000000	0.000000
15.627823	14.292097	19.263945	-1.345053	1.502205	2.615692	0.000000	0.192770	0.000000	0.000017	0.000002	0.000000	0.000000
16.068783	15.688946	17.762809	-1.834710	1.889085	2.717141	0.000000	0.267799	0.000000	0.000018	0.000003	0.000000	0.000000
16.514743	17.576486	15.935719	-2.412947	2.190755	2.854009	0.000000	0.346341	0.000000	0.000020	0.000003	0.000000	0.000000
17.063803	20.000846	13.895661	-1.976384	1.546722	3.020442	0.000000	0.259021	0.000000	0.000022	0.000003	0.000000	0.000000
17.612863	21.865844	12.498544	-1.400219	1.012858	3.137599	0.000000	0.167108	0.000000	0.000023	0.000002	0.000000	0.000000
18.161923	23.039748	11.644855	-0.725149	0.551138	3.203400	0.000000	0.072230	0.000000	0.000024	0.000001	0.000000	0.000000
18.710983	23.439639	11.273787	0.001142	0.128675	3.216680	0.000000	-0.023929	0.000000	0.000024	0.000000	0.000000	0.000000
19.009556	23.479337	11.187469	-0.072872	0.130979	3.212044	0.000000	-0.015526	0.000000	0.000024	0.000001	0.000000	0.000000
19.342889	23.532677	11.110251	-0.087145	0.100673	3.206869	0.000000	-0.015526	0.000000	0.000025	0.000001	0.000000	0.000000
19.676223	23.595530	11.053238	-0.101417	0.070366	3.201693	0.000000	-0.015526	0.000000	0.000025	0.000001	0.000000	0.000000
20.010806	23.668482	11.016193	-0.233010	0.094527	3.196518	0.000000	0.000312	0.000000	0.000025	0.000001	0.000000	0.000000
20.308129	23.810977	10.968079	-0.308454	0.095948	3.196611	0.000000	0.008662	0.000000	0.000025	0.000001	0.000000	0.000000
20.857189	23.739008	11.084681	0.438755	-0.309567	3.175151	0.000000	-0.086714	0.000000	0.000025	-0.000000	0.000000	0.000000
21.406249	22.858744	11.656008	1.154974	-0.737131	3.101671	0.000000	-0.180552	0.000000	0.000025	-0.000001	0.000000	0.000000
21.955309	21.232362	12.722757	1.789610	-1.217200	2.977473	0.000000	-0.271187	0.000000	0.000024	-0.000002	0.000000	0.000000
22.504369	18.974743	14.360908	2.297838	-1.783967	2.804760	0.000000	-0.357012	0.000000	0.000023	-0.000002	0.000000	0.000000
22.950329	17.195455	15.831750	1.706036	-1.500266	2.662839	0.000000	-0.279814	0.000000	0.000022	-0.000002	0.000000	0.000000
23.391289	15.920224	17.004503	1.196875	-1.149157	2.555772	0.000000	-0.206258	0.000000	0.000021	-0.000001	0.000000	0.000000
23.832249	15.068314	17.843279	0.742396	-0.745762	2.480593	0.000000	-0.135050	0.000000	0.000021	-0.000001	0.000000	0.000000
24.273209	14.600804	18.309914	0.321836	-0.308436	2.436444	0.000000	-0.065381	0.000000	0.000021	-0.000000	0.000000	0.000000
24.715418	14.496455	18.382932	-0.048566	0.097783	2.422820	0.000000	-0.002396	0.000000	0.000021	0.000000	0.000000	0.000000
25.012741	14.531447	18.329641	-0.069124	0.081455	2.422107	0.000000	-0.002396	0.000000	0.000021	0.000000	0.000000	0.000000
25.346075	14.585212	18.281440	-0.092172	0.063149	2.421309	0.000000	-0.002396	0.000000	0.000021	0.000000	0.000000	0.000000
25.679408	14.654343	18.245443	-0.115221	0.044842	2.420510	0.000000	-0.002396	0.000000	0.000021	0.000000	0.000000	0.000000
26.013991	14.738887	18.221953	-0.018784	-0.121358	2.419683	0.000000	-0.022026	0.000000	0.000021	0.000000	0.000000	0.000000
26.311314	14.756056	18.299041	-0.002785	-0.182780	2.413135	0.000000	-0.027943	0.000000	0.000021	0.000000	0.000000	0.000000
26.752274	14.940299	18.261805	-0.416622	0.266902	2.415921	0.000000	0.040592	0.000000	0.000021	0.000001	0.000000	0.000000
27.193234	15.496496	17.831845	-0.849494	0.704441	2.449001	0.000000	0.109590	0.000000	0.000022	0.000001	0.000000	0.000000
27.634194	16.450058	17.028725	-1.321176	1.109928	2.512753	0.000000	0.179836	0.000000	0.000022	0.000002	0.000000	0.000000
28.075154	17.844550	15.888985	-1.853220	1.464914	2.607901	0.000000	0.252130	0.000000	0.000023	0.000002	0.000000	0.000000
28.521114	19.767907	14.447312	-2.474903	1.754160	2.737133	0.000000	0.327739	0.000000	0.000024	0.000003	0.000000	0.000000
29.070174	22.212495	12.841077	-1.951054	1.188535	2.894420	0.000000	0.244355	0.000000	0.000026	0.000002	0.000000	0.000000
29.619234	24.002290	11.806111	-1.289391	0.707568	3.004666	0.000000	0.156636	0.000000	0.000026	0.000001	0.000000	0.000000
30.168294	25.010869	11.268697	-0.536653	0.276999	3.065914	0.000000	0.066140	0.000000	0.000027	0.000000	0.000000	0.000000
30.717354	25.166991	11.190556	0.253992	-0.133840	3.077079	0.000000	-0.025530	0.000000	0.000027	-0.000001	0.000000	0.000000
31.015927	25.058246	11.261075	0.175966	-0.131581	3.071857	0.000000	-0.017492	0.000000	0.000027	-0.000000	0.000000	0.000000
31.349260	24.945507	11.358833	0.162252	-0.161694	3.066026	0.000000	-0.017492	0.000000	0.000027	-0.000000	0.000000	0.000000
31.682593	24.841910	11.476667	0.148538	-0.191807	3.060196	0.000000	-0.017492	0.000000	0.000026	-0.000000	0.000000	0.000000
32.017177	24.747120	11.615131	0.134772	-0.222033	3.054343	0.000000	-0.017492	0.000000	0.000026	-0.000000	0.000000	0.000000
32.314499	24.670615	11.755147	0.058094	-0.218185	3.049143	0.000000	-0.009527	0.000000	0.000026	-0.000000	0.000000	0.000000
32.863559	24.184110	12.233925	0.822729	-0.658956	3.019034	0.000000	-0.099985	0.000000	0.000026	-0.000001	0.000000	0.000000
33.412619	22.885040	13.219500	1.529252	-1.146663	2.939674	0.000000	-0.188669	0.000000	0.000025	-0.000002	0.000000	0.000000
33.961679	20.865166	14.782076	2.127755	-1.716044	2.812470	0.000000	-0.274007	0.000000	0.000023	-0.000003	0.000000	0.000000
34.510739	18.267161	17.032949	2.575964	-2.407656	2.639677	0.000000	-0.354485	0.000000	0.000022	-0.000004	0.000000	0.000000
34.956699	16.247065	19.046298	1.970032	-2.088135	2.497932	0.000000	-0.281566	0.000000	0.000020	-0.000003	0.000000	0.000000
35.397659	14.740659	20.711741	1.459122	-1.674349	2.389152	0.000000	-0.212283	0.000000	0.000019	-0.000002	0.000000	0.000000
35.838619	13.653847	21.977143	1.014876	-1.184382	2.310363	0.000000	-0.145417	0.000000	0.000018	-0.000002	0.000000	0.000000
36.279579	12.936976	22.784929	0.616997	-0.640527	2.260665	0.000000	-0.080208	0.000000	0.000017	-0.000002	0.000000	0.000000
36.721789	12.556597	23.098655	0.277989	-0.124217	2.239466	0.000000	-0.021403	0.000000	0.000017	-0.000001	0.000000	0.000000
37.019112	12.398877	23.176407	0.252480	-0.137288	2.233103	0.000000	-0.021403	0.000000	0.000016	-0.000001	0.000000	0.000000
37.352445	12.240089	23.272816	0.223882	-0.151941	2.225969	0.000000	-0.021403	0.000000	0.000016	-0.000001	0.000000	0.000000
37.685779	12.100367	23.378995	0.195284	-0.166595	2.218835	0.000000	-0.021403	0.000000	0.000016	-0.000001	0.000000	0.000000
38.020362	11.979293	23.495396	0.166579	-0.181303	2.211674	0.000000	-0.021403	0.000000	0.000015	-0.000001	0.000000	0.000000
38.317684	11.887822	23.607093	0.170219	-0.252257	2.205311	0.000000	-0.026811	0.000000	0.000015	-0.000001	0.000000	0.000000
38.758644	11.889236	23.568075	-0.173438	0.340405	2.207414	0.000000	0.036358	0.000000	0.000014	-0.000001	0.000000	0.000000
39.199604	12.196064	23.011235	-0.525020	0.917580	2.237437	0.000000	0.099941	0.000000	0.000014	-0.000000	0.000000	0.000000
39.640564	12.822324	21.961908	-0.900588	1.453005	2.295722	0.000000	0.164663	0.000000	0.000014	-0.000000	0.000000	0.000000
40.081524	13.796629	20.467839	-1.317302	1.922320	2.382931	0.000000	0.231259	0.000000	0.000014	0.000000	0.000000	0.000000
40.527484	15.181068	18.574430	-1.798027	2.305456	2.501532	0.000000	0.300895	0.000000	0.000014	0.000001	0.000000	0.000000
41.076544	16.947682	16.446655	-1.400450	1.592722	2.646214	0.000000	0.225349	0.000000	0.000014	0.000000	0.000000	0.000000
41.625604	18.220472	15.035032	-0.903952	0.993434	2.748257	0.000000	0.145806	0.000000	0.000014	-0.000000	0.000000	0.000000
42.174664	18.909534	14.239014	-0.343604	0.464906	2.805851	0.000000	0.063676	0.000000	0.000014	-0.000001	0.000000	0.000000
42.723724	18.966197	14.001903	0.241015	-0.030508	2.817975	0.000000	-0.019583	0.000000	0.000014	-0.000001	0.000000	0.000000
43.022297	18.856737	14.004644	0.175146	-0.015252	2.814326	0.000000	-0.012221	0.000000	0.000013	-0.000001	0.000000	0.000000
43.502297	18.701190	14.035741	0.148910	-0.049534	2.808461	0.000000	-0.012221	0.000000	0.000013	-0.000001	0.000000	0.000000
43.982297	18.570830	14.099749	0.122674	-0.083816	2.802595	0.000000	-0.012221	0.000000	0.000012	-0.000001	0.000000	0.000000
44.462297	18.465657	14.196668	0.096438	-0.118099	2.796730	0.000000	-0.012221	0.000000	0.000012	-0.000001	0.000000	0.000000
44.942297	18.385670	14.326498	0.070202	-0.152381	2.790864	0.000000	-0.012221	0.000000	0.000011	-0.000001	0.000000	0.000000
45.423547	18.330986	14.489527	-0.046924	-0.114962	2.785001	0.000000	0.001578	0.000000	0.000010	-0.000001	0.000000	0.000000
45.720870	18.363723	14.564070	-0.111157	-0.097704	2.785470	0.000000	0.008855	0.000000	0.000010	-0.000001	0.000000	0.000000
46.269930	18.176585	14.952992	0.449972	-0.614819	2.767763	0.000000	-0.073260	0.000000	0.000009	-0.000001	0.000000	0.000000
46.818990	17.387146	15.930340	0.979317	-1.175726	2.705261	0.000000	-0.154076	0.000000	0.000009	-0.000002	0.000000	0.000000
47.368050	16.051168	17.565728	1.439488	-1.820378	2.599073	0.000000	-0.232159	0.000000	0.000008	-0.000002	0.000000	0.000000
47.917110	14.263018	19.975641	1.797980	-2.594691	2.451081	0.000000	-0.306124	0.000000	0.000006	-0.000002	0.000000	0.000000
48.363070	12.871560	22.118195	1.333215	-2.189476	2.329853	0.000000	-0.237832	0.000000	0.000005	-0.000002	0.000000	0.000000
48.804030	11.875970	23.833616	0.933130	-1.685917	2.239438	0.000000	-0.172645	0.000000	0.000005	-0.000002	0.000000	0.000000
49.244990	11.213160	25.069288	0.575678	-1.105650	2.177308	0.000000	-0.109424	0.000000	0.000004	-0.000002	0.000000	0.000000
49.685950	10.852849	25.768988	0.244526	-0.475077	2.142754	0.000000	-0.047449	0.000000	0.000003	-0.000002	0.000000	0.000000
50.128160	10.778699	25.900597	-0.049138	0.113548	2.135394	0.000000	0.008748	0.000000	0.000002	-0.000002	0.000000	0.000000
50.425482	10.816140	25.836533	-0.076789	0.101921	2.137996	0.000000	0.008748	0.000000	0.000002	-0.000002	0.000000	0.000000
50.758816	10.877666	25.772931	-0.107789	0.088885	2.140912	0.000000	0.008748	0.000000	0.000001	-0.000002	0.000000	0.000000
51.092149	10.959858	25.718020	-0.138788	0.075849	2.143829	0.000000	0.008748	0.000000	0.000001	-0.000002	0.000000	0.000000
51.426732	11.062917	25.672163	-0.080155	-0.145500	2.146735	0.000000	-0.008668	0.000000	0.000000	-0.000002	0.000000	0.000000
51.724055	11.118623	25.762200	-0.079937	-0.220504	2.144158	0.000000	-0.013926	0.000000	-0.000000	-0.000002	0.000000	0.000000
52.165015	11.334318	25.670034	-0.411068	0.428721	2.151606	0.000000	0.047736	0.000000	-0.000001	-0.000002	0.000000	0.000000
52.605975	11.849190	25.011751	-0.760979	1.058439	2.186338	0.000000	0.109941	0.000000	-0.000002	-0.000002	0.000000	0.000000
53.046935	12.686762	23.817302	-1.145657	1.640000	2.248750	0.000000	0.173398	0.000000	-0.000003	-0.000002	0.000000	0.000000
53.487895	13.885300	22.141034	-1.582676	2.146942	2.339552	0.000000	0.238830	0.000000	-0.000003	-0.000002	0.000000	0.000000
53.933855	15.520111	20.034154	-2.096229	2.557538	2.461284	0.000000	0.307381	0.000000	-0.000004	-0.000002	0.000000	0.000000
54.482915	17.624930	17.663325	-1.714574	1.785929	2.609875	0.000000	0.233075	0.000000	-0.000005	-0.000002	0.000000	0.000000
55.031975	19.241258	16.065407	-1.211810	1.141528	2.716471	0.000000	0.154636	0.000000	-0.000006	-0.000002	0.000000	0.000000
55.581035	20.254925	15.126586	-0.623450	0.578435	2.779182	0.000000	0.073453	0.000000	-0.000007	-0.000001	0.000000	0.000000
56.130095	20.594333	14.779991	0.008948	0.056543	2.796894	0.000000	-0.009032	0.000000	-0.000008	-0.000001	0.000000	0.000000
56.428668	20.625461	14.729250	-0.059392	0.074779	2.796380	0.000000	-0.001724	0.000000	-0.000008	-0.000001	0.000000	0.000000
56.762001	20.670462	14.686983	-0.075610	0.052022	2.795805	0.000000	-0.001724	0.000000	-0.000008	-0.000001	0.000000	0.000000
57.095334	20.726275	14.659887	-0.091829	0.029265	2.795231	0.000000	-0.001724	0.000000	-0.000009	-0.000001	0.000000	0.000000
57.429918	20.793170	14.647947	-0.108108	0.006422	2.794655	0.000000	-0.001724	0.000000	-0.000009	-0.000001	0.000000	0.000000
57.727240	20.861757	14.650163	-0.177086	0.024405	2.794143	0.000000	0.005577	0.000000	-0.000010	-0.000001	0.000000	0.000000
58.276300	20.700346	14.904633	0.469324	-0.490605	2.774565	0.000000	-0.076789	0.000000	-0.000010	-0.000001	0.000000	0.000000
58.825360	19.843182	15.740400	1.082583	-1.040558	2.710070	0.000000	-0.157793	0.000000	-0.000011	-0.000001	0.000000	0.000000
59.374420	18.350811	17.216993	1.619374	-1.664629	2.601804	0.000000	-0.235998	0.000000	-0.000011	-0.000000	0.000000	0.000000
59.923480	16.328648	19.439589	2.041780	-2.407267	2.451686	0.000000	-0.310017	0.000000	-0.000011	0.000000	0.000000	0.000000
60.369440	14.745957	21.415012	1.519742	-2.003633	2.328722	0.000000	-0.241731	0.000000	-0.000011	-0.000000	0.000000	0.000000
60.810400	13.607713	22.970396	1.071336	-1.510212	2.236577	0.000000	-0.176595	0.000000	-0.000011	-0.000000	0.000000	0.000000
61.251360	12.841931	24.058544	0.671876	-0.948078	2.172684	0.000000	-0.113471	0.000000	-0.000011	-0.000001	0.000000	0.000000
61.692320	12.413625	24.629946	0.303113	-0.342807	2.136315	0.000000	-0.051639	0.000000	-0.000011	-0.000001	0.000000	0.000000
62.134530	12.303280	24.658061	-0.021729	0.217532	2.127062	0.000000	0.004388	0.000000	-0.000012	-0.000001	0.000000	0.000000
62.431853	12.323390	24.532462	-0.045907	0.204904	2.128367	0.000000	0.004388	0.000000	-0.000012	-0.000001	0.000000	0.000000
62.765186	12.363029	24.400578	-0.073013	0.190746	2.129830	0.000000	0.004388	0.000000	-0.000013	-0.000001	0.000000	0.000000
63.098520	12.420740	24.278134	-0.100118	0.176588	2.131293	0.000000	0.004388	0.000000	-0.000013	-0.000001	0.000000	0.000000
63.433103	12.496839	24.164722	-0.127326	0.162377	2.132761	0.000000	0.004388	0.000000	-0.000014	-0.000001	0.000000	0.000000
63.730426	12.579741	24.071920	-0.120650	0.090709	2.134066	0.000000	-0.000846	0.000000	-0.000014	-0.000001	0.000000	0.000000
64.171386	12.846378	23.726830	-0.486318	0.688902	2.147235	0.000000	0.060628	0.000000	-0.000015	-0.000002	0.000000	0.000000
64.612346	13.444045	22.866041	-0.874203	1.255750	2.187638	0.000000	0.122794	0.000000	-0.000015	-0.000002	0.000000	0.000000
65.053306	14.400050	21.528718	-1.302029	1.765463	2.255736	0.000000	0.186358	0.000000	-0.000016	-0.000002	0.000000	0.000000
65.494266	15.758067	19.775709	-1.789341	2.194848	2.352304	0.000000	0.252044	0.000000	-0.000017	-0.000003	0.000000	0.000000
65.940226	17.603305	17.661974	-2.363093	2.525121	2.480015	0.000000	0.321003	0.000000	-0.000019	-0.000003	0.000000	0.000000
66.489286	19.968857	15.297424	-1.919774	1.806842	2.635897	0.000000	0.245973	0.000000	-0.000020	-0.000003	0.000000	0.000000
67.038346	21.769796	13.646754	-1.340852	1.217261	2.749323	0.000000	0.166579	0.000000	-0.000022	-0.000002	0.000000	0.000000
67.587406	22.878912	12.592390	-0.667218	0.714382	2.818281	0.000000	0.084231	0.000000	-0.000023	-0.000001	0.000000	0.000000
68.136466	23.217862	12.059233	0.053544	0.262386	2.841546	0.000000	0.000389	0.000000	-0.000023	-0.000001	0.000000	0.000000
68.435038	23.225961	11.891763	-0.019992	0.267004	2.843880	0.000000	0.007815	0.000000	-0.000023	-0.000001	0.000000	0.000000
68.768372	23.244075	11.723770	-0.034350	0.236975	2.846485	0.000000	0.007815	0.000000	-0.000023	-0.000001	0.000000	0.000000
69.101705	23.271760	11.575796	-0.048707	0.206946	2.849090	0.000000	0.007815	0.000000	-0.000024	-0.000001	0.000000	0.000000
69.436288	23.309175	11.447400	-0.063119	0.176804	2.851705	0.000000	0.007815	0.000000	-0.000024	-0.000001	0.000000	0.000000
69.733611	23.350516	11.350228	-0.136948	0.179681	2.854029	0.000000	0.015273	0.000000	-0.000024	-0.000001	0.000000	0.000000
70.282671	23.099860	11.380273	0.590765	-0.234726	2.839227	0.000000	-0.069110	0.000000	-0.000024	0.000000	0.000000	0.000000
