#ParticleID	Turn	x[m]	xp	y[m]	yp	z[m]	dE[GeV]# s	beta_x	beta_y	alpha_x	alpha_y	D_x	D_y	D_px	D_py	orbit_x	orbit_px	orbit_y	orbit_py
0.300000	11.801818	25.064309	-0.009985	-0.026680	2.618411	0.000000	-0.000102	0.000000	-0.000003	0.000002	0.000000	0.000000
0.601250	11.815524	25.084007	-0.035514	-0.038708	2.618380	0.000000	-0.000102	0.000000	-0.000002	0.000002	0.000000	0.000000
0.898573	11.844134	25.110554	-0.031663	-0.112158	2.618349	0.000000	-0.006523	0.000000	-0.000002	0.000002	0.000000	0.000000
1.339533	12.024048	24.930900	-0.377889	0.518023	2.631766	0.000000	0.067440	0.000000	-0.000001	0.000002	0.000000	0.000000
1.780493	12.515735	24.203787	-0.741380	1.124634	2.677936	0.000000	0.142170	0.000000	0.000000	0.000002	0.000000	0.000000
2.221453	13.341661	22.962299	-1.138742	1.680075	2.757384	0.000000	0.218520	0.000000	0.000001	0.000002	0.000000	0.000000
2.662413	14.539558	21.262921	-1.588130	2.159074	2.871017	0.000000	0.297359	0.000000	0.000002	0.000002	0.000000	0.000000
3.108373	16.184868	19.158056	-2.114359	2.540970	3.021987	0.000000	0.380074	0.000000	0.000003	0.000002	0.000000	0.000000
3.657433	18.294757	16.793917	-1.705624	1.790239	3.205398	0.000000	0.287037	0.000000	0.000004	0.000002	0.000000	0.000000
4.206493	19.886591	15.179731	-1.176412	1.167023	3.336251	0.000000	0.188909	0.000000	0.000005	0.000002	0.000000	0.000000
4.755553	20.847930	14.200523	-0.564104	0.626931	3.412226	0.000000	0.087430	0.000000	0.000006	0.000002	0.000000	0.000000
5.304613	21.110870	13.786546	0.088049	0.131494	3.431974	0.000000	-0.015600	0.000000	0.000007	0.000001	0.000000	0.000000
5.603185	21.095455	13.693164	0.018735	0.145248	3.429993	0.000000	-0.006633	0.000000	0.000007	0.000001	0.000000	0.000000
5.936519	21.088234	13.604617	0.002928	0.120392	3.427781	0.000000	-0.006633	0.000000	0.000008	0.000001	0.000000	0.000000
6.269852	21.091551	13.532641	-0.012878	0.095535	3.425570	0.000000	-0.006633	0.000000	0.000008	0.000001	0.000000	0.000000
6.604435	21.105477	13.477060	-0.028744	0.070585	3.423350	0.000000	-0.006633	0.000000	0.000009	0.000001	0.000000	0.000000
6.901758	21.126762	13.441679	-0.098040	0.083532	3.421377	0.000000	0.002306	0.000000	0.000009	0.000001	0.000000	0.000000
7.450818	20.874399	13.610938	0.554946	-0.393622	3.394445	0.000000	-0.100264	0.000000	0.000010	0.000001	0.000000	0.000000
7.999878	19.922360	14.316398	1.168734	-0.898813	3.311601	0.000000	-0.201056	0.000000	0.000010	0.000001	0.000000	0.000000
8.548938	18.337891	15.608308	1.699968	-1.468024	3.174315	0.000000	-0.298281	0.000000	0.000011	0.000001	0.000000	0.000000
9.097998	16.232912	17.578688	2.111124	-2.141800	2.985023	0.000000	-0.390216	0.000000	0.000011	0.000000	0.000000	0.000000
9.543958	14.590699	19.334360	1.584390	-1.778396	2.829307	0.000000	-0.308521	0.000000	0.000011	0.000000	0.000000	0.000000
9.984918	13.396385	20.712626	1.134326	-1.335313	2.710505	0.000000	-0.230824	0.000000	0.000011	0.000001	0.000000	0.000000
10.425878	12.574726	21.671742	0.736085	-0.831474	2.625352	0.000000	-0.155756	0.000000	0.000012	0.000001	0.000000	0.000000
10.866838	12.088182	22.168070	0.371474	-0.289804	2.572879	0.000000	-0.082462	0.000000	0.000012	0.000001	0.000000	0.000000
11.309048	11.914393	22.178500	0.052944	0.210610	2.552468	0.000000	-0.016366	0.000000	0.000013	0.000002	0.000000	0.000000
11.606371	11.890350	22.057424	0.027919	0.196609	2.547601	0.000000	-0.016366	0.000000	0.000013	0.000002	0.000000	0.000000
12.086371	11.882940	21.879529	-0.012481	0.174006	2.539745	0.000000	-0.016366	0.000000	0.000014	0.000002	0.000000	0.000000
12.566371	11.914314	21.723332	-0.052881	0.151404	2.531888	0.000000	-0.016366	0.000000	0.000015	0.000002	0.000000	0.000000
13.046371	11.984472	21.588833	-0.093282	0.128801	2.524031	0.000000	-0.016366	0.000000	0.000016	0.000002	0.000000	0.000000
13.526371	12.093414	21.476033	-0.133682	0.106199	2.516175	0.000000	-0.016366	0.000000	0.000017	0.000002	0.000000	0.000000
14.007621	12.241576	21.384723	-0.174187	0.083537	2.508298	0.000000	-0.016366	0.000000	0.000017	0.000002	0.000000	0.000000
14.304943	12.352597	21.339210	-0.168925	0.017216	2.503431	0.000000	-0.022504	0.000000	0.000018	0.000002	0.000000	0.000000
14.745903	12.660048	21.090493	-0.530952	0.544673	2.509134	0.000000	0.048396	0.000000	0.000019	0.000002	0.000000	0.000000
15.186863	13.296228	20.385794	-0.917236	1.047348	2.546192	0.000000	0.119848	0.000000	0.000020	0.000003	0.000000	0.000000
15.627823	14.290201	19.257176	-1.345426	1.502369	2.615029	0.000000	0.192665	0.000000	0.000021	0.000003	0.000000	0.000000
16.068783	15.687380	17.755990	-1.835085	1.889034	2.716427	0.000000	0.267676	0.000000	0.000022	0.000004	0.000000	0.000000
16.514743	17.575262	15.929041	-2.413342	2.190490	2.853236	0.000000	0.346199	0.000000	0.000024	0.000004	0.000000	0.000000
17.063803	20.000112	13.889183	-1.976877	1.546621	3.019598	0.000000	0.258906	0.000000	0.000026	0.000003	0.000000	0.000000
17.612863	21.865691	12.492091	-1.400776	1.012914	3.136698	0.000000	0.167020	0.000000	0.000028	0.000003	0.000000	0.000000
18.161923	23.040224	11.638253	-0.725730	0.551355	3.202459	0.000000	0.072172	0.000000	0.000029	0.000002	0.000000	0.000000
18.710983	23.440748	11.266852	0.000578	0.129068	3.215715	0.000000	-0.023956	0.000000	0.000030	0.000001	0.000000	0.000000
19.009556	23.480784	11.180316	-0.073437	0.131333	3.211070	0.000000	-0.015556	0.000000	0.000030	0.000001	0.000000	0.000000
19.342889	23.534500	11.102870	-0.087710	0.101004	3.205885	0.000000	-0.015556	0.000000	0.000030	0.000001	0.000000	0.000000
19.676223	23.597730	11.045643	-0.101983	0.070676	3.200699	0.000000	-0.015556	0.000000	0.000030	0.000001	0.000000	0.000000
20.010806	23.671060	11.008398	-0.233588	0.094776	3.195514	0.000000	0.000277	0.000000	0.000031	0.000001	0.000000	0.000000
20.308129	23.813901	10.960143	-0.309039	0.096154	3.195596	0.000000	0.008624	0.000000	0.000031	0.000001	0.000000	0.000000
20.857189	23.742518	11.076395	0.438279	-0.309133	3.174125	0.000000	-0.086719	0.000000	0.000031	-0.000000	0.000000	0.000000
21.406249	22.862700	11.647109	1.154640	-0.736440	3.100651	0.000000	-0.180524	0.000000	0.000031	-0.000001	0.000000	0.000000
21.955309	21.236595	12.712935	1.789443	-1.216201	2.976478	0.000000	-0.271126	0.000000	0.000030	-0.000002	0.000000	0.000000
22.504369	18.979061	14.349790	2.297848	-1.782590	2.803807	0.000000	-0.356920	0.000000	0.000029	-0.000003	0.000000	0.000000
22.950329	17.199799	15.819518	1.705966	-1.499157	2.661922	0.000000	-0.279746	0.000000	0.000028	-0.000002	0.000000	0.000000
23.391289	15.924665	16.991429	1.196723	-1.148365	2.554880	0.000000	-0.206213	0.000000	0.000027	-0.000002	0.000000	0.000000
23.832249	15.072929	17.829660	0.742154	-0.745323	2.479715	0.000000	-0.135028	0.000000	0.000026	-0.000001	0.000000	0.000000
24.273209	14.605676	18.296071	0.321492	-0.308369	2.435571	0.000000	-0.065381	0.000000	0.000026	-0.000000	0.000000	0.000000
24.715418	14.501681	18.369197	-0.049014	0.097510	2.421942	0.000000	-0.002417	0.000000	0.000026	0.000000	0.000000	0.000000
25.012741	14.536938	18.316072	-0.069566	0.081170	2.421224	0.000000	-0.002417	0.000000	0.000026	0.000000	0.000000	0.000000
25.346075	14.590995	18.268065	-0.092607	0.062851	2.420418	0.000000	-0.002417	0.000000	0.000026	0.000000	0.000000	0.000000
25.679408	14.660414	18.232271	-0.115648	0.044532	2.419612	0.000000	-0.002417	0.000000	0.000026	0.000000	0.000000	0.000000
26.013991	14.745241	18.208993	-0.019153	-0.121576	2.418779	0.000000	-0.022040	0.000000	0.000027	0.000000	0.000000	0.000000
26.311314	14.762628	18.286214	-0.003131	-0.182977	2.412226	0.000000	-0.027954	0.000000	0.000027	0.000000	0.000000	0.000000
26.752274	14.947247	18.249305	-0.417134	0.266361	2.415002	0.000000	0.040558	0.000000	0.000027	0.000001	0.000000	0.000000
27.193234	15.503977	17.819966	-0.850194	0.703580	2.448062	0.000000	0.109532	0.000000	0.000027	0.000002	0.000000	0.000000
27.634194	16.458251	17.017731	-1.322098	1.108787	2.511782	0.000000	0.179753	0.000000	0.000028	0.000002	0.000000	0.000000
28.075154	17.853669	15.879102	-1.854404	1.463545	2.606888	0.000000	0.252022	0.000000	0.000029	0.000003	0.000000	0.000000
28.521114	19.778221	14.438730	-2.476407	1.752624	2.736066	0.000000	0.327604	0.000000	0.000031	0.000004	0.000000	0.000000
29.070174	22.224317	12.833986	-1.952277	1.187339	2.893288	0.000000	0.244255	0.000000	0.000033	0.000003	0.000000	0.000000
29.619234	24.015261	11.800188	-1.290248	0.706625	3.003489	0.000000	0.156574	0.000000	0.000034	0.000002	0.000000	0.000000
30.168294	25.024551	11.263701	-0.537082	0.276243	3.064714	0.000000	0.066116	0.000000	0.000035	0.000001	0.000000	0.000000
30.717354	25.180894	11.186312	0.254021	-0.134463	3.075876	0.000000	-0.025515	0.000000	0.000035	-0.000001	0.000000	0.000000
31.015927	25.072148	11.257215	0.175970	-0.132230	3.070657	0.000000	-0.017481	0.000000	0.000034	-0.000000	0.000000	0.000000
31.349260	24.959404	11.355411	0.162263	-0.162358	3.064830	0.000000	-0.017481	0.000000	0.000034	-0.000000	0.000000	0.000000
31.682593	24.855797	11.473693	0.148557	-0.192487	3.059004	0.000000	-0.017481	0.000000	0.000034	-0.000000	0.000000	0.000000
32.017177	24.760991	11.612617	0.134799	-0.222728	3.053155	0.000000	-0.017481	0.000000	0.000034	-0.000000	0.000000	0.000000
32.314499	24.684469	11.753051	0.058095	-0.218902	3.047958	0.000000	-0.009519	0.000000	0.000034	-0.000000	0.000000	0.000000
32.863559	24.197711	12.232600	0.823186	-0.659654	3.017865	0.000000	-0.099939	0.000000	0.000033	-0.000001	0.000000	0.000000
33.412619	22.897903	13.218955	1.530132	-1.147391	2.938540	0.000000	-0.188586	0.000000	0.000032	-0.000003	0.000000	0.000000
33.961679	20.876856	14.782370	2.128996	-1.716855	2.811392	0.000000	-0.273888	0.000000	0.000031	-0.000004	0.000000	0.000000
34.510739	18.277329	17.034204	2.577478	-2.408606	2.638674	0.000000	-0.354332	0.000000	0.000028	-0.000004	0.000000	0.000000
34.956699	16.256029	19.048428	1.971227	-2.089137	2.496992	0.000000	-0.281439	0.000000	0.000026	-0.000004	0.000000	0.000000
35.397659	14.748687	20.714760	1.460057	-1.675356	2.388264	0.000000	-0.212179	0.000000	0.000025	-0.000003	0.000000	0.000000
35.838619	13.661150	21.981035	1.015593	-1.185348	2.309515	0.000000	-0.145336	0.000000	0.000024	-0.000002	0.000000	0.000000
36.279579	12.943730	22.789638	0.617528	-0.641407	2.259849	0.000000	-0.080148	0.000000	0.000023	-0.000002	0.000000	0.000000
36.721789	12.562955	23.104092	0.278372	-0.124983	2.238672	0.000000	-0.021361	0.000000	0.000022	-0.000001	0.000000	0.000000
37.019112	12.405004	23.182298	0.252872	-0.138053	2.232321	0.000000	-0.021361	0.000000	0.000022	-0.000001	0.000000	0.000000
37.352445	12.245953	23.279218	0.224283	-0.152706	2.225201	0.000000	-0.021361	0.000000	0.000021	-0.000001	0.000000	0.000000
37.685779	12.105961	23.385906	0.195693	-0.167359	2.218081	0.000000	-0.021361	0.000000	0.000021	-0.000001	0.000000	0.000000
38.020362	11.984610	23.502818	0.166997	-0.182067	2.210935	0.000000	-0.021361	0.000000	0.000020	-0.000001	0.000000	0.000000
38.317684	11.892888	23.614969	0.170656	-0.253037	2.204584	0.000000	-0.026767	0.000000	0.000020	-0.000001	0.000000	0.000000
38.758644	11.893967	23.576544	-0.173113	0.339845	2.206703	0.000000	0.036384	0.000000	0.000019	-0.000001	0.000000	0.000000
39.199604	12.200551	23.020091	-0.524790	0.917265	2.236733	0.000000	0.099948	0.000000	0.000019	-0.000000	0.000000	0.000000
39.640564	12.826647	21.970929	-0.900444	1.452949	2.295016	0.000000	0.164651	0.000000	0.000019	0.000000	0.000000	0.000000
40.081524	13.800860	20.476793	-1.317236	1.922526	2.382217	0.000000	0.231230	0.000000	0.000019	0.000001	0.000000	0.000000
40.527484	15.185276	18.583085	-1.798038	2.305916	2.500800	0.000000	0.300847	0.000000	0.000019	0.000001	0.000000	0.000000
41.076544	16.951805	16.454939	-1.400286	1.592941	2.645463	0.000000	0.225325	0.000000	0.000020	0.000000	0.000000	0.000000
41.625604	18.224324	15.043201	-0.903624	0.993427	2.747499	0.000000	0.145806	0.000000	0.000020	-0.000000	0.000000	0.000000
42.174664	18.912946	14.247315	-0.343135	0.464672	2.805100	0.000000	0.063701	0.000000	0.000020	-0.000001	0.000000	0.000000
42.723724	18.969031	14.010591	0.241591	-0.030984	2.817244	0.000000	-0.019534	0.000000	0.000019	-0.000001	0.000000	0.000000
43.022297	18.859231	14.013600	0.175716	-0.015694	2.813609	0.000000	-0.012174	0.000000	0.000018	-0.000001	0.000000	0.000000
43.502297	18.703137	14.045111	0.149478	-0.049955	2.807766	0.000000	-0.012174	0.000000	0.000018	-0.000001	0.000000	0.000000
43.982297	18.572232	14.109513	0.123241	-0.084216	2.801923	0.000000	-0.012174	0.000000	0.000017	-0.000001	0.000000	0.000000
44.462297	18.466515	14.206805	0.097003	-0.118477	2.796080	0.000000	-0.012174	0.000000	0.000016	-0.000001	0.000000	0.000000
44.942297	18.385986	14.336988	0.070766	-0.152737	2.790237	0.000000	-0.012174	0.000000	0.000016	-0.000001	0.000000	0.000000
45.423547	18.330761	14.500349	-0.046361	-0.115244	2.784396	0.000000	0.001621	0.000000	0.000015	-0.000001	0.000000	0.000000
45.720870	18.363162	14.575056	-0.110589	-0.097944	2.784879	0.000000	0.008897	0.000000	0.000015	-0.000001	0.000000	0.000000
46.269930	18.175417	14.964425	0.450504	-0.615399	2.767200	0.000000	-0.073200	0.000000	0.000014	-0.000002	0.000000	0.000000
46.818990	17.385430	15.942614	0.979776	-1.176687	2.704737	0.000000	-0.153998	0.000000	0.000013	-0.000002	0.000000	0.000000
47.368050	16.049003	17.579296	1.439842	-1.821788	2.598596	0.000000	-0.232065	0.000000	0.000011	-0.000003	0.000000	0.000000
47.917110	14.260533	19.991049	1.798204	-2.596651	2.450660	0.000000	-0.306016	0.000000	0.000010	-0.000003	0.000000	0.000000
48.363070	12.868867	22.135202	1.333460	-2.191085	2.329479	0.000000	-0.237733	0.000000	0.000009	-0.000003	0.000000	0.000000
48.804030	11.873046	23.851861	0.933409	-1.687104	2.239106	0.000000	-0.172555	0.000000	0.000007	-0.000003	0.000000	0.000000
49.244990	11.209971	25.088373	0.576002	-1.106361	2.177013	0.000000	-0.109343	0.000000	0.000006	-0.000002	0.000000	0.000000
49.685950	10.849349	25.788477	0.244911	-0.475279	2.142494	0.000000	-0.047375	0.000000	0.000005	-0.000002	0.000000	0.000000
50.128160	10.774826	25.920035	-0.048685	0.113818	2.135165	0.000000	0.008817	0.000000	0.000004	-0.000002	0.000000	0.000000
50.425482	10.812000	25.855808	-0.076345	0.102198	2.137787	0.000000	0.008817	0.000000	0.000004	-0.000002	0.000000	0.000000
50.758816	10.873233	25.792019	-0.107354	0.089172	2.140727	0.000000	0.008817	0.000000	0.000003	-0.000002	0.000000	0.000000
51.092149	10.955139	25.736913	-0.138364	0.076145	2.143667	0.000000	0.008817	0.000000	0.000002	-0.000002	0.000000	0.000000
51.426732	11.057918	25.690855	-0.079781	-0.145347	2.146595	0.000000	-0.008598	0.000000	0.000002	-0.000002	0.000000	0.000000
51.724055	11.113404	25.780799	-0.079587	-0.220387	2.144040	0.000000	-0.013856	0.000000	0.000001	-0.000002	0.000000	0.000000
52.165015	11.328736	25.688313	-0.410590	0.429327	2.151518	0.000000	0.047803	0.000000	0.000000	-0.000002	0.000000	0.000000
52.605975	11.843123	25.029289	-0.760353	1.059507	2.186280	0.000000	0.110006	0.000000	-0.000001	-0.000002	0.000000	0.000000
53.046935	12.680067	23.833712	-1.144853	1.641480	2.248720	0.000000	0.173462	0.000000	-0.000002	-0.000002	0.000000	0.000000
53.487895	13.877805	22.155980	-1.581659	2.148768	2.339551	0.000000	0.238894	0.000000	-0.000003	-0.000002	0.000000	0.000000
53.933855	15.511595	20.047347	-2.094949	2.559627	2.461311	0.000000	0.307445	0.000000	-0.000004	-0.000002	0.000000	0.000000
54.482915	17.615128	17.674518	-1.713527	1.787503	2.609937	0.000000	0.233138	0.000000	-0.000005	-0.000002	0.000000	0.000000
55.031975	19.230469	16.075101	-1.211070	1.142700	2.716567	0.000000	0.154696	0.000000	-0.000006	-0.000002	0.000000	0.000000
55.581035	20.243518	15.135174	-0.623070	0.579288	2.779310	0.000000	0.073510	0.000000	-0.000007	-0.000002	0.000000	0.000000
56.130095	20.582718	14.787789	0.008941	0.057138	2.797052	0.000000	-0.008980	0.000000	-0.000008	-0.000001	0.000000	0.000000
56.428668	20.613835	14.736678	-0.059376	0.075403	2.796554	0.000000	-0.001671	0.000000	-0.000008	-0.000002	0.000000	0.000000
56.762001	20.658828	14.693992	-0.075603	0.052655	2.795997	0.000000	-0.001671	0.000000	-0.000009	-0.000002	0.000000	0.000000
57.095334	20.714639	14.666471	-0.091831	0.029907	2.795441	0.000000	-0.001671	0.000000	-0.000009	-0.000002	0.000000	0.000000
57.429918	20.781539	14.654098	-0.108119	0.007074	2.794882	0.000000	-0.001671	0.000000	-0.000010	-0.000002	0.000000	0.000000
57.727240	20.850135	14.655924	-0.177076	0.025080	2.794385	0.000000	0.005630	0.000000	-0.000010	-0.000002	0.000000	0.000000
58.276300	20.688925	14.909739	0.468947	-0.490080	2.774834	0.000000	-0.076744	0.000000	-0.000011	-0.000001	0.000000	0.000000
58.825360	19.832376	15.744994	1.081846	-1.040146	2.710363	0.000000	-0.157757	0.000000	-0.000011	-0.000001	0.000000	0.000000
59.374420	18.340989	17.221184	1.618329	-1.664300	2.602113	0.000000	-0.235972	0.000000	-0.000012	-0.000000	0.000000	0.000000
59.923480	16.320109	19.443453	2.040501	-2.406998	2.452007	0.000000	-0.310001	0.000000	-0.000012	-0.000000	0.000000	0.000000
60.369440	14.738438	21.418567	1.518726	-2.003211	2.329051	0.000000	-0.241707	0.000000	-0.000012	-0.000000	0.000000	0.000000
60.810400	13.600993	22.973518	1.070534	-1.509656	2.236919	0.000000	-0.176563	0.000000	-0.000012	-0.000001	0.000000	0.000000
61.251360	12.835837	24.061126	0.671253	-0.947414	2.173043	0.000000	-0.113429	0.000000	-0.000013	-0.000001	0.000000	0.000000
61.692320	12.408013	24.631907	0.302639	-0.342065	2.136695	0.000000	-0.051588	0.000000	-0.000013	-0.000001	0.000000	0.000000
62.134530	12.298029	24.659344	-0.022088	0.218314	2.127467	0.000000	0.004448	0.000000	-0.000014	-0.000002	0.000000	0.000000
62.431853	12.318355	24.533280	-0.046276	0.205682	2.128790	0.000000	0.004448	0.000000	-0.000014	-0.000002	0.000000	0.000000
62.765186	12.358246	24.400880	-0.073394	0.191520	2.130273	0.000000	0.004448	0.000000	-0.000015	-0.000002	0.000000	0.000000
63.098520	12.416214	24.277920	-0.100512	0.177358	2.131756	0.000000	0.004448	0.000000	-0.000015	-0.000002	0.000000	0.000000
63.433103	12.492581	24.163994	-0.127732	0.163143	2.133245	0.000000	0.004448	0.000000	-0.000016	-0.000002	0.000000	0.000000
63.730426	12.575728	24.070737	-0.121076	0.091473	2.134568	0.000000	-0.000788	0.000000	-0.000016	-0.000002	0.000000	0.000000
64.171386	12.842703	23.724993	-0.486664	0.689615	2.147766	0.000000	0.060701	0.000000	-0.000017	-0.000002	0.000000	0.000000
64.612346	13.440647	22.863610	-0.874486	1.256380	2.188204	0.000000	0.122880	0.000000	-0.000018	-0.000003	0.000000	0.000000
65.053306	14.396876	21.525780	-1.302260	1.765980	2.256344	0.000000	0.186459	0.000000	-0.000020	-0.000003	0.000000	0.000000
65.494266	15.755079	19.772373	-1.789532	2.195230	2.352960	0.000000	0.252162	0.000000	-0.000021	-0.000004	0.000000	0.000000
65.940226	17.600472	17.658366	-2.363252	2.525348	2.480728	0.000000	0.321139	0.000000	-0.000023	-0.000004	0.000000	0.000000
66.489286	19.966278	15.293546	-1.920074	1.807111	2.636679	0.000000	0.246084	0.000000	-0.000025	-0.000003	0.000000	0.000000
67.038346	21.767614	13.642548	-1.341272	1.217591	2.750159	0.000000	0.166664	0.000000	-0.000026	-0.000002	0.000000	0.000000
67.587406	22.877242	12.587778	-0.667728	0.714797	2.819156	0.000000	0.084289	0.000000	-0.000027	-0.000002	0.000000	0.000000
68.136466	23.216786	12.054104	0.052980	0.262917	2.842445	0.000000	0.000418	0.000000	-0.000028	-0.000001	0.000000	0.000000
68.435038	23.225221	11.886329	-0.020557	0.267503	2.844788	0.000000	0.007846	0.000000	-0.000028	-0.000001	0.000000	0.000000
68.768372	23.243712	11.718011	-0.034915	0.237453	2.847404	0.000000	0.007846	0.000000	-0.000029	-0.000001	0.000000	0.000000
69.101705	23.271775	11.569726	-0.049273	0.207403	2.850020	0.000000	0.007846	0.000000	-0.000029	-0.000001	0.000000	0.000000
69.436288	23.309569	11.441030	-0.063685	0.177240	2.852645	0.000000	0.007846	0.000000	-0.000029	-0.000001	0.000000	0.000000
69.733611	23.351247	11.343605	-0.137520	0.180082	2.854978	0.000000	0.015308	0.000000	-0.000029	-0.000001	0.000000	0.000000
70.282671	23.101200	11.373107	0.590233	-0.234132	2.840187	0.000000	-0.069107	0.000000	-0.000030	0.000000	0.000000	0.000000
