#ParticleID	Turn	x[m]	xp	y[m]	yp	z[m]	dE[GeV]# s	beta_x	beta_y	alpha_x	alpha_y	D_x	D_y	D_px	D_py	orbit_x	orbit_px	orbit_y	orbit_py
0.300000	11.821877	24.985440	-0.012022	-0.027561	2.618125	0.000000	0.000008	0.000000	-0.000001	0.000001	0.000000	0.000000
0.601250	11.836798	25.005681	-0.037508	-0.039627	2.618128	0.000000	0.000008	0.000000	-0.000001	0.000001	0.000000	0.000000
0.898573	11.866581	25.032786	-0.033562	-0.112924	2.618130	0.000000	-0.006412	0.000000	-0.000001	0.000001	0.000000	0.000000
1.339533	12.048409	24.854713	-0.380348	0.515218	2.631595	0.000000	0.067545	0.000000	-0.000000	0.000001	0.000000	0.000000
1.780493	12.542553	24.130930	-0.744511	1.119917	2.677812	0.000000	0.142272	0.000000	-0.000000	0.000001	0.000000	0.000000
2.221453	13.371588	22.894367	-1.142689	1.673662	2.757305	0.000000	0.218620	0.000000	0.000000	0.000001	0.000000	0.000000
2.662413	14.573391	21.201289	-1.593074	2.151256	2.870981	0.000000	0.297457	0.000000	0.000001	0.000001	0.000000	0.000000
3.108373	16.223642	19.103897	-2.120535	2.532101	3.021996	0.000000	0.380172	0.000000	0.000001	0.000001	0.000000	0.000000
3.657433	18.339790	16.748269	-1.710779	1.783516	3.205461	0.000000	0.287134	0.000000	0.000001	0.000001	0.000000	0.000000
4.206493	19.936554	15.140512	-1.180182	1.161967	3.336367	0.000000	0.189002	0.000000	0.000002	0.000001	0.000000	0.000000
4.755553	20.901144	14.166109	-0.566222	0.623183	3.412392	0.000000	0.087519	0.000000	0.000002	0.000001	0.000000	0.000000
5.304613	21.165429	13.755656	0.087732	0.128786	3.432187	0.000000	-0.015517	0.000000	0.000002	0.000000	0.000000	0.000000
5.603185	21.150279	13.663947	0.018310	0.142432	3.430232	0.000000	-0.006549	0.000000	0.000002	0.000000	0.000000	0.000000
5.936519	21.143327	13.577289	0.002545	0.117542	3.428049	0.000000	-0.006549	0.000000	0.000002	0.000000	0.000000	0.000000
6.269852	21.146886	13.507224	-0.013221	0.092652	3.425865	0.000000	-0.006549	0.000000	0.000003	0.000000	0.000000	0.000000
6.604435	21.161027	13.453583	-0.029045	0.067669	3.423674	0.000000	-0.006549	0.000000	0.000003	0.000000	0.000000	0.000000
6.901758	21.182480	13.419946	-0.098452	0.080531	3.421726	0.000000	0.002391	0.000000	0.000003	0.000000	0.000000	0.000000
7.450818	20.929545	13.592178	0.556396	-0.396068	3.394837	0.000000	-0.100191	0.000000	0.000003	0.000000	0.000000	0.000000
7.999878	19.974932	14.300101	1.171943	-0.900878	3.312030	0.000000	-0.200996	0.000000	0.000003	0.000000	0.000000	0.000000
8.548938	18.386073	15.594138	1.704709	-1.469856	3.174774	0.000000	-0.298236	0.000000	0.000003	0.000000	0.000000	0.000000
9.097998	16.275194	17.566461	2.117064	-2.143528	2.985503	0.000000	-0.390186	0.000000	0.000003	0.000000	0.000000	0.000000
9.543958	14.628266	19.323931	1.589061	-1.780685	2.829803	0.000000	-0.308478	0.000000	0.000004	0.000000	0.000000	0.000000
9.984918	13.430307	20.704423	1.137951	-1.338053	2.711022	0.000000	-0.230768	0.000000	0.000004	0.000000	0.000000	0.000000
10.425878	12.605849	21.666110	0.738830	-0.834541	2.625898	0.000000	-0.155687	0.000000	0.000004	0.000000	0.000000	0.000000
10.866838	12.117225	22.165236	0.373465	-0.293058	2.573459	0.000000	-0.082378	0.000000	0.000004	0.000000	0.000000	0.000000
11.309048	11.941975	22.178573	0.054341	0.207312	2.553088	0.000000	-0.016269	0.000000	0.000004	0.000001	0.000000	0.000000
11.606371	11.917086	22.059453	0.029371	0.193330	2.548251	0.000000	-0.016269	0.000000	0.000004	0.000001	0.000000	0.000000
12.086371	11.908240	21.884691	-0.010942	0.170757	2.540442	0.000000	-0.016269	0.000000	0.000005	0.000001	0.000000	0.000000
12.566371	11.938096	21.731599	-0.051256	0.148185	2.532632	0.000000	-0.016269	0.000000	0.000005	0.000001	0.000000	0.000000
13.046371	12.006651	21.600176	-0.091569	0.125612	2.524823	0.000000	-0.016269	0.000000	0.000005	0.000001	0.000000	0.000000
13.526371	12.113907	21.490424	-0.131882	0.103039	2.517014	0.000000	-0.016269	0.000000	0.000005	0.000001	0.000000	0.000000
14.007621	12.260294	21.402140	-0.172300	0.080408	2.509184	0.000000	-0.016269	0.000000	0.000006	0.000001	0.000000	0.000000
14.304943	12.370176	21.358483	-0.166937	0.014051	2.504347	0.000000	-0.022410	0.000000	0.000006	0.000001	0.000000	0.000000
14.745903	12.676027	21.112307	-0.529298	0.542096	2.510097	0.000000	0.048515	0.000000	0.000006	0.000001	0.000000	0.000000
15.186863	13.310868	20.409577	-0.915842	1.045476	2.547214	0.000000	0.119993	0.000000	0.000006	0.000001	0.000000	0.000000
15.627823	14.303702	19.282266	-1.344227	1.501287	2.616120	0.000000	0.192837	0.000000	0.000007	0.000001	0.000000	0.000000
16.068783	15.699889	17.781667	-1.834027	1.888791	2.717601	0.000000	0.267877	0.000000	0.000007	0.000001	0.000000	0.000000
16.514743	17.586871	15.954552	-2.412376	2.191104	2.854508	0.000000	0.346431	0.000000	0.000008	0.000001	0.000000	0.000000
17.063803	20.010310	13.914341	-1.975291	1.546654	3.020987	0.000000	0.259095	0.000000	0.000008	0.000001	0.000000	0.000000
17.612863	21.873856	12.517528	-1.398682	1.012369	3.138180	0.000000	0.167163	0.000000	0.000009	0.000001	0.000000	0.000000
18.161923	23.045877	11.664622	-0.723277	0.550193	3.204007	0.000000	0.072266	0.000000	0.000009	0.000001	0.000000	0.000000
18.710983	23.443588	11.294871	0.003217	0.127206	3.217300	0.000000	-0.023913	0.000000	0.000009	0.000000	0.000000	0.000000
19.009556	23.482056	11.209376	-0.070811	0.129632	3.212670	0.000000	-0.015507	0.000000	0.000010	0.000000	0.000000	0.000000
19.342889	23.534019	11.133034	-0.085077	0.099395	3.207501	0.000000	-0.015507	0.000000	0.000010	0.000000	0.000000	0.000000
19.676223	23.595493	11.076849	-0.099343	0.069158	3.202332	0.000000	-0.015507	0.000000	0.000010	0.000000	0.000000	0.000000
20.010806	23.667054	11.040589	-0.230923	0.093510	3.197163	0.000000	0.000334	0.000000	0.000010	0.000000	0.000000	0.000000
20.308129	23.808306	10.993061	-0.306357	0.095065	3.197263	0.000000	0.008687	0.000000	0.000010	0.000000	0.000000	0.000000
20.857189	23.734094	11.111020	0.440719	-0.311171	3.175811	0.000000	-0.086710	0.000000	0.000010	-0.000000	0.000000	0.000000
21.406249	22.851811	11.684555	1.156666	-0.739572	3.102327	0.000000	-0.180570	0.000000	0.000010	-0.000000	0.000000	0.000000
21.955309	21.223777	12.754519	1.790911	-1.220650	2.978112	0.000000	-0.271226	0.000000	0.000010	-0.000001	0.000000	0.000000
22.504369	18.964988	14.397122	2.298655	-1.788673	2.805372	0.000000	-0.357072	0.000000	0.000009	-0.000001	0.000000	0.000000
22.950329	17.184927	15.871797	1.706962	-1.504120	2.663427	0.000000	-0.279858	0.000000	0.000009	-0.000001	0.000000	0.000000
23.391289	15.908816	17.047508	1.197953	-1.151986	2.556344	0.000000	-0.206286	0.000000	0.000009	-0.000000	0.000000	0.000000
23.832249	15.055871	17.888278	0.743675	-0.747439	2.481155	0.000000	-0.135064	0.000000	0.000008	-0.000000	0.000000	0.000000
24.273209	14.587124	18.355853	0.323373	-0.308883	2.437003	0.000000	-0.065380	0.000000	0.000008	-0.000000	0.000000	0.000000
24.715418	14.481275	18.428712	-0.046732	0.098468	2.423383	0.000000	-0.002383	0.000000	0.000008	0.000000	0.000000	0.000000
25.012741	14.515182	18.375002	-0.067308	0.082178	2.422674	0.000000	-0.002383	0.000000	0.000008	0.000000	0.000000	0.000000
25.346075	14.567743	18.326304	-0.090377	0.063915	2.421879	0.000000	-0.002383	0.000000	0.000008	0.000000	0.000000	0.000000
25.679408	14.635684	18.289782	-0.113445	0.045652	2.421085	0.000000	-0.002383	0.000000	0.000008	0.000000	0.000000	0.000000
26.013991	14.719046	18.265737	-0.017190	-0.120860	2.420263	0.000000	-0.022018	0.000000	0.000008	0.000000	0.000000	0.000000
26.311314	14.735276	18.342517	-0.001263	-0.182353	2.413716	0.000000	-0.027937	0.000000	0.000009	0.000000	0.000000	0.000000
26.752274	14.917948	18.304385	-0.414568	0.268499	2.416508	0.000000	0.040613	0.000000	0.000009	0.000000	0.000000	0.000000
27.193234	15.472064	17.872526	-0.846812	0.707135	2.449602	0.000000	0.109626	0.000000	0.000009	0.000000	0.000000	0.000000
27.634194	16.422940	17.066589	-1.317746	1.113596	2.513373	0.000000	0.179888	0.000000	0.000009	0.000001	0.000000	0.000000
28.075154	17.814019	15.923245	-1.848883	1.469390	2.608548	0.000000	0.252198	0.000000	0.000009	0.000001	0.000000	0.000000
28.521114	19.733027	14.477292	-2.469452	1.759241	2.737815	0.000000	0.327824	0.000000	0.000010	0.000001	0.000000	0.000000
29.070174	22.172097	12.866141	-1.946515	1.192459	2.895144	0.000000	0.244417	0.000000	0.000010	0.000001	0.000000	0.000000
29.619234	23.957559	11.827371	-1.286087	0.710614	3.005418	0.000000	0.156675	0.000000	0.000011	0.000001	0.000000	0.000000
30.168294	24.963297	11.286993	-0.534815	0.279384	3.066681	0.000000	0.066154	0.000000	0.000011	0.000000	0.000000	0.000000
30.717354	25.118271	11.206516	0.254233	-0.131946	3.077847	0.000000	-0.025541	0.000000	0.000011	-0.000000	0.000000	0.000000
31.015927	25.009318	11.275863	0.176301	-0.129592	3.072622	0.000000	-0.017500	0.000000	0.000011	-0.000000	0.000000	0.000000
31.349260	24.896366	11.372277	0.162558	-0.159650	3.066789	0.000000	-0.017500	0.000000	0.000011	-0.000000	0.000000	0.000000
31.682593	24.792575	11.488730	0.148815	-0.189708	3.060956	0.000000	-0.017500	0.000000	0.000011	-0.000000	0.000000	0.000000
32.017177	24.697608	11.625771	0.135021	-0.219879	3.055101	0.000000	-0.017500	0.000000	0.000011	-0.000000	0.000000	0.000000
32.314499	24.620963	11.764493	0.058439	-0.215955	3.049898	0.000000	-0.009531	0.000000	0.000011	-0.000000	0.000000	0.000000
32.863559	24.134985	12.240911	0.821429	-0.656866	3.019781	0.000000	-0.100014	0.000000	0.000011	-0.000000	0.000000	0.000000
33.412619	22.838210	13.224200	1.526398	-1.144564	2.940398	0.000000	-0.188722	0.000000	0.000010	-0.000001	0.000000	0.000000
33.961679	20.822236	14.784398	2.123550	-1.713787	2.813157	0.000000	-0.274082	0.000000	0.000010	-0.000001	0.000000	0.000000
34.510739	18.229460	17.032632	2.570704	-2.405079	2.640316	0.000000	-0.354581	0.000000	0.000009	-0.000001	0.000000	0.000000
34.956699	16.213531	19.043562	1.965915	-2.085308	2.498531	0.000000	-0.281647	0.000000	0.000008	-0.000001	0.000000	0.000000
35.397659	14.710327	20.706450	1.455952	-1.671404	2.389718	0.000000	-0.212349	0.000000	0.000008	-0.000001	0.000000	0.000000
35.838619	13.625949	21.969251	1.012507	-1.181452	2.310902	0.000000	-0.145469	0.000000	0.000008	-0.000001	0.000000	0.000000
36.279579	12.910855	22.774508	0.615320	-0.637745	2.261184	0.000000	-0.080246	0.000000	0.000007	-0.000001	0.000000	0.000000
36.721789	12.531683	23.085888	0.276869	-0.121685	2.239971	0.000000	-0.021430	0.000000	0.000007	-0.000000	0.000000	0.000000
37.019112	12.374639	23.162133	0.251325	-0.134755	2.233600	0.000000	-0.021430	0.000000	0.000007	-0.000000	0.000000	0.000000
37.352445	12.216635	23.256854	0.222687	-0.149407	2.226457	0.000000	-0.021430	0.000000	0.000007	-0.000000	0.000000	0.000000
37.685779	12.077723	23.361343	0.194049	-0.164060	2.219314	0.000000	-0.021430	0.000000	0.000007	-0.000000	0.000000	0.000000
38.020362	11.957490	23.476047	0.165303	-0.178767	2.212144	0.000000	-0.021430	0.000000	0.000006	-0.000000	0.000000	0.000000
38.317684	11.866788	23.586236	0.168858	-0.249674	2.205772	0.000000	-0.026839	0.000000	0.000006	-0.000000	0.000000	0.000000
38.758644	11.869194	23.545192	-0.174335	0.342400	2.207866	0.000000	0.036342	0.000000	0.000006	-0.000000	0.000000	0.000000
39.199604	12.176624	22.986886	-0.525492	0.918896	2.237884	0.000000	0.099937	0.000000	0.000006	-0.000000	0.000000	0.000000
39.640564	12.803123	21.936722	-0.900658	1.453582	2.296169	0.000000	0.164669	0.000000	0.000006	0.000000	0.000000	0.000000
40.081524	13.777313	20.442481	-1.316972	1.922132	2.383384	0.000000	0.231278	0.000000	0.000006	0.000000	0.000000	0.000000
40.527484	15.161274	18.549581	-1.797281	2.304507	2.501995	0.000000	0.300925	0.000000	0.000006	0.000000	0.000000	0.000000
41.076544	16.927484	16.422486	-1.400465	1.592428	2.646691	0.000000	0.225364	0.000000	0.000006	0.000000	0.000000	0.000000
41.625604	18.200710	15.010839	-0.904727	0.993773	2.748738	0.000000	0.145805	0.000000	0.000006	-0.000000	0.000000	0.000000
42.174664	18.891018	14.214091	-0.345084	0.465904	2.806327	0.000000	0.063660	0.000000	0.000006	-0.000000	0.000000	0.000000
42.723724	18.949648	13.975493	0.238934	-0.028781	2.818437	0.000000	-0.019614	0.000000	0.000006	-0.000000	0.000000	0.000000
43.022297	18.841407	13.977255	0.173103	-0.013633	2.814780	0.000000	-0.012250	0.000000	0.000006	-0.000000	0.000000	0.000000
43.502297	18.687822	14.006829	0.146864	-0.047981	2.808900	0.000000	-0.012250	0.000000	0.000006	-0.000000	0.000000	0.000000
43.982297	18.559428	14.069377	0.120625	-0.082328	2.803020	0.000000	-0.012250	0.000000	0.000005	-0.000000	0.000000	0.000000
44.462297	18.456223	14.164900	0.094386	-0.116676	2.797140	0.000000	-0.012250	0.000000	0.000005	-0.000000	0.000000	0.000000
44.942297	18.378207	14.293396	0.068147	-0.151024	2.791260	0.000000	-0.012250	0.000000	0.000005	-0.000000	0.000000	0.000000
45.423547	18.325504	14.455151	-0.048956	-0.113842	2.785382	0.000000	0.001550	0.000000	0.000005	-0.000000	0.000000	0.000000
45.720870	18.359450	14.529041	-0.113187	-0.096717	2.785843	0.000000	0.008829	0.000000	0.000005	-0.000000	0.000000	0.000000
46.269930	18.174603	14.916289	0.447856	-0.612740	2.768118	0.000000	-0.073298	0.000000	0.000004	-0.000001	0.000000	0.000000
46.818990	17.387466	15.890690	0.977265	-1.172406	2.705592	0.000000	-0.154125	0.000000	0.000004	-0.000001	0.000000	0.000000
47.368050	16.053639	17.521647	1.437645	-1.815581	2.599373	0.000000	-0.232219	0.000000	0.000004	-0.000001	0.000000	0.000000
47.917110	14.267338	19.925331	1.796477	-2.588076	2.451345	0.000000	-0.306193	0.000000	0.000003	-0.000001	0.000000	0.000000
48.363070	12.877189	22.062463	1.331774	-2.183985	2.330088	0.000000	-0.237894	0.000000	0.000003	-0.000001	0.000000	0.000000
48.804030	11.882866	23.773630	0.931685	-1.681797	2.239647	0.000000	-0.172701	0.000000	0.000002	-0.000001	0.000000	0.000000
49.244990	11.221358	25.006344	0.574161	-1.103088	2.177492	0.000000	-0.109475	0.000000	0.000002	-0.000001	0.000000	0.000000
49.685950	10.862441	25.704517	0.242870	-0.474189	2.142916	0.000000	-0.047496	0.000000	0.000002	-0.000001	0.000000	0.000000
50.128160	10.789846	25.836100	-0.050983	0.112878	2.135536	0.000000	0.008705	0.000000	0.000001	-0.000001	0.000000	0.000000
50.425482	10.828377	25.772443	-0.078610	0.101224	2.138125	0.000000	0.008705	0.000000	0.000001	-0.000001	0.000000	0.000000
50.758816	10.891109	25.709316	-0.109584	0.088157	2.141026	0.000000	0.008705	0.000000	0.000001	-0.000001	0.000000	0.000000
51.092149	10.974489	25.654900	-0.140557	0.075091	2.143928	0.000000	0.008705	0.000000	0.000001	-0.000001	0.000000	0.000000
51.426732	11.078723	25.609559	-0.081769	-0.145781	2.146819	0.000000	-0.008711	0.000000	0.000001	-0.000001	0.000000	0.000000
51.724055	11.135379	25.699772	-0.081479	-0.220661	2.144229	0.000000	-0.013970	0.000000	0.000000	-0.000001	0.000000	0.000000
52.165015	11.352613	25.608474	-0.413030	0.426919	2.151658	0.000000	0.047693	0.000000	0.000000	-0.000001	0.000000	0.000000
52.605975	11.869433	24.952478	-0.763451	1.055074	2.186371	0.000000	0.109899	0.000000	-0.000000	-0.000001	0.000000	0.000000
53.046935	12.709451	23.761632	-1.148751	1.635225	2.248764	0.000000	0.173357	0.000000	-0.000000	-0.000001	0.000000	0.000000
53.487895	13.911044	22.090119	-1.586535	2.140974	2.339548	0.000000	0.238789	0.000000	-0.000001	-0.000001	0.000000	0.000000
53.933855	15.549707	19.988997	-2.101037	2.550646	2.461261	0.000000	0.307340	0.000000	-0.000001	-0.000001	0.000000	0.000000
54.482915	17.659411	17.624745	-1.718611	1.780771	2.609829	0.000000	0.233035	0.000000	-0.000001	-0.000001	0.000000	0.000000
55.031975	19.279615	16.031713	-1.214791	1.137736	2.716404	0.000000	0.154598	0.000000	-0.000002	-0.000001	0.000000	0.000000
55.581035	20.295877	15.096433	-0.625164	0.575740	2.779093	0.000000	0.073418	0.000000	-0.000002	-0.000001	0.000000	0.000000
56.130095	20.636412	14.752286	0.008621	0.054752	2.796787	0.000000	-0.009064	0.000000	-0.000002	-0.000000	0.000000	0.000000
56.428668	20.667790	14.702669	-0.059797	0.072883	2.796262	0.000000	-0.001757	0.000000	-0.000003	-0.000000	0.000000	0.000000
56.762001	20.713051	14.661678	-0.075983	0.050091	2.795677	0.000000	-0.001757	0.000000	-0.000003	-0.000000	0.000000	0.000000
57.095334	20.769101	14.635881	-0.092169	0.027299	2.795091	0.000000	-0.001757	0.000000	-0.000003	-0.000000	0.000000	0.000000
57.429918	20.836213	14.625268	-0.108415	0.004421	2.794504	0.000000	-0.001757	0.000000	-0.000003	-0.000000	0.000000	0.000000
57.727240	20.904974	14.628684	-0.177475	0.022314	2.793981	0.000000	0.005544	0.000000	-0.000003	-0.000000	0.000000	0.000000
58.276300	20.743193	14.885122	0.470382	-0.492120	2.774386	0.000000	-0.076817	0.000000	-0.000003	-0.000000	0.000000	0.000000
58.825360	19.884101	15.722289	1.085014	-1.041608	2.709878	0.000000	-0.157815	0.000000	-0.000004	-0.000000	0.000000	0.000000
59.374420	18.388382	17.199815	1.623006	-1.665287	2.601601	0.000000	-0.236014	0.000000	-0.000004	-0.000000	0.000000	0.000000
59.923480	16.361684	19.422941	2.046357	-2.407581	2.451476	0.000000	-0.310026	0.000000	-0.000004	-0.000000	0.000000	0.000000
60.369440	14.775363	21.398909	1.523334	-2.004536	2.328506	0.000000	-0.241746	0.000000	-0.000004	-0.000000	0.000000	0.000000
60.810400	13.634321	22.955334	1.074115	-1.511660	2.236354	0.000000	-0.176616	0.000000	-0.000004	-0.000000	0.000000	0.000000
61.251360	12.866399	24.044975	0.673969	-0.950004	2.172451	0.000000	-0.113497	0.000000	-0.000004	-0.000000	0.000000	0.000000
61.692320	12.436513	24.618256	0.304616	-0.345124	2.136069	0.000000	-0.051672	0.000000	-0.000004	-0.000000	0.000000	0.000000
62.134530	12.325074	24.648556	-0.020696	0.214957	2.126800	0.000000	0.004350	0.000000	-0.000004	-0.000001	0.000000	0.000000
62.431853	12.344556	24.524485	-0.044830	0.202337	2.128093	0.000000	0.004350	0.000000	-0.000005	-0.000001	0.000000	0.000000
62.765186	12.383462	24.394309	-0.071887	0.188189	2.129543	0.000000	0.004350	0.000000	-0.000005	-0.000001	0.000000	0.000000
63.098520	12.440405	24.273566	-0.098944	0.174041	2.130993	0.000000	0.004350	0.000000	-0.000005	-0.000001	0.000000	0.000000
63.433103	12.515702	24.161856	-0.126102	0.159839	2.132449	0.000000	0.004350	0.000000	-0.000005	-0.000001	0.000000	0.000000
63.730426	12.597863	24.070560	-0.119340	0.088188	2.133742	0.000000	-0.000883	0.000000	-0.000005	-0.000001	0.000000	0.000000
64.171386	12.863516	23.727688	-0.485386	0.686411	2.146892	0.000000	0.060583	0.000000	-0.000006	-0.000001	0.000000	0.000000
64.612346	13.460513	22.869041	-0.873609	1.253402	2.187273	0.000000	0.122739	0.000000	-0.000006	-0.000001	0.000000	0.000000
65.053306	14.416131	21.533687	-1.301743	1.763364	2.255344	0.000000	0.186293	0.000000	-0.000006	-0.000001	0.000000	0.000000
65.494266	15.774028	19.782382	-1.789351	2.193095	2.351881	0.000000	0.251969	0.000000	-0.000007	-0.000001	0.000000	0.000000
65.940226	17.619407	17.670024	-2.363401	2.523798	2.479555	0.000000	0.320917	0.000000	-0.000007	-0.000001	0.000000	0.000000
66.489286	19.984933	15.306916	-1.919416	1.805525	2.635394	0.000000	0.245902	0.000000	-0.000008	-0.000001	0.000000	0.000000
67.038346	21.785123	13.657732	-1.339852	1.215855	2.748785	0.000000	0.166526	0.000000	-0.000008	-0.000001	0.000000	0.000000
67.587406	22.892819	12.605005	-0.665648	0.712788	2.817717	0.000000	0.084195	0.000000	-0.000009	-0.000001	0.000000	0.000000
68.136466	23.229781	12.073752	0.055574	0.260491	2.840968	0.000000	0.000372	0.000000	-0.000009	-0.000000	0.000000	0.000000
68.435038	23.236679	11.907375	-0.017979	0.265202	2.843296	0.000000	0.007795	0.000000	-0.000009	-0.000000	0.000000	0.000000
68.768372	23.253448	11.740561	-0.032329	0.235239	2.845894	0.000000	0.007795	0.000000	-0.000009	-0.000000	0.000000	0.000000
69.101705	23.279784	11.593722	-0.046678	0.205277	2.848493	0.000000	0.007795	0.000000	-0.000009	-0.000000	0.000000	0.000000
69.436288	23.315839	11.466420	-0.061082	0.175202	2.851101	0.000000	0.007795	0.000000	-0.000009	-0.000000	0.000000	0.000000
69.733611	23.355967	11.370184	-0.134911	0.178186	2.853419	0.000000	0.015251	0.000000	-0.000009	-0.000000	0.000000	0.000000
70.282671	23.102994	11.402183	0.592923	-0.236811	2.838610	0.000000	-0.069113	0.000000	-0.000009	0.000000	0.000000	0.000000
