#ParticleID	Turn	x[m]	xp	y[m]	yp	z[m]	dE[GeV]# s	beta_x	beta_y	alpha_x	alpha_y	D_x	D_y	D_px	D_py	orbit_x	orbit_px	orbit_y	orbit_py
0.300000	11.829081	24.957869	-0.012977	-0.027727	2.618231	0.000000	-0.000033	0.000000	0.000000	0.000000	0.000000	0.000000
0.601250	11.844573	24.978213	-0.038448	-0.039806	2.618221	0.000000	-0.000033	0.000000	0.000000	0.000000	0.000000	0.000000
0.898573	11.874911	25.005428	-0.034467	-0.113049	2.618211	0.000000	-0.006454	0.000000	0.000000	0.000000	0.000000	0.000000
1.339533	12.057628	24.827785	-0.381466	0.514373	2.631659	0.000000	0.067506	0.000000	0.000000	0.000000	0.000000	0.000000
1.780493	12.552870	24.105051	-0.745894	1.118391	2.677858	0.000000	0.142234	0.000000	0.000000	0.000000	0.000000	0.000000
2.221453	13.383264	22.870111	-1.144400	1.671523	2.757336	0.000000	0.218582	0.000000	0.000001	0.000000	0.000000	0.000000
2.662413	14.586747	21.179154	-1.595190	2.148602	2.870996	0.000000	0.297420	0.000000	0.000001	0.000000	0.000000	0.000000
3.108373	16.239104	19.084315	-2.123158	2.529052	3.021994	0.000000	0.380135	0.000000	0.000001	0.000000	0.000000	0.000000
3.657433	18.357934	16.731601	-1.713012	1.781226	3.205440	0.000000	0.287098	0.000000	0.000001	0.000000	0.000000	0.000000
4.206493	19.956861	15.126020	-1.181866	1.160272	3.336326	0.000000	0.188967	0.000000	0.000001	0.000000	0.000000	0.000000
4.755553	20.922944	14.153209	-0.567240	0.621962	3.412333	0.000000	0.087486	0.000000	0.000001	0.000000	0.000000	0.000000
5.304613	21.187945	13.743877	0.087453	0.127953	3.432111	0.000000	-0.015548	0.000000	0.000001	0.000000	0.000000	0.000000
5.603185	21.172993	13.652688	0.017987	0.141555	3.430146	0.000000	-0.006581	0.000000	0.000001	0.000000	0.000000	0.000000
5.936519	21.166250	13.566619	0.002239	0.116651	3.427952	0.000000	-0.006581	0.000000	0.000001	0.000000	0.000000	0.000000
6.269852	21.170007	13.497153	-0.013510	0.091746	3.425759	0.000000	-0.006581	0.000000	0.000002	0.000000	0.000000	0.000000
6.604435	21.184337	13.444124	-0.029317	0.066748	3.423557	0.000000	-0.006581	0.000000	0.000002	0.000000	0.000000	0.000000
6.901758	21.205946	13.411037	-0.098771	0.079575	3.421600	0.000000	0.002359	0.000000	0.000002	0.000000	0.000000	0.000000
7.450818	20.952927	13.584185	0.556866	-0.396789	3.394695	0.000000	-0.100218	0.000000	0.000002	0.000000	0.000000	0.000000
7.999878	19.997378	14.292794	1.173168	-0.901415	3.311875	0.000000	-0.201018	0.000000	0.000002	0.000000	0.000000	0.000000
8.548938	18.406795	15.587338	1.706604	-1.470247	3.174608	0.000000	-0.298253	0.000000	0.000002	0.000000	0.000000	0.000000
9.097998	16.293529	17.560023	2.119493	-2.143802	2.985329	0.000000	-0.390197	0.000000	0.000002	-0.000000	0.000000	0.000000
9.543958	14.644680	19.317846	1.590954	-1.781200	2.829622	0.000000	-0.308495	0.000000	0.000002	-0.000000	0.000000	0.000000
9.984918	13.445255	20.698890	1.139397	-1.338784	2.710834	0.000000	-0.230789	0.000000	0.000002	0.000000	0.000000	0.000000
10.425878	12.619694	21.661305	0.739897	-0.835455	2.625699	0.000000	-0.155713	0.000000	0.000002	0.000000	0.000000	0.000000
10.866838	12.130278	22.161302	0.374200	-0.294113	2.573248	0.000000	-0.082410	0.000000	0.000002	0.000000	0.000000	0.000000
11.309048	11.954512	22.175616	0.054810	0.206170	2.552862	0.000000	-0.016305	0.000000	0.000002	0.000000	0.000000	0.000000
11.606371	11.929337	22.057173	0.029864	0.192193	2.548014	0.000000	-0.016305	0.000000	0.000002	0.000000	0.000000	0.000000
12.086371	11.919998	21.883500	-0.010409	0.169627	2.540188	0.000000	-0.016305	0.000000	0.000002	0.000000	0.000000	0.000000
12.566371	11.949321	21.731489	-0.050682	0.147062	2.532361	0.000000	-0.016305	0.000000	0.000002	0.000000	0.000000	0.000000
13.046371	12.017307	21.601141	-0.090954	0.124496	2.524534	0.000000	-0.016305	0.000000	0.000002	0.000000	0.000000	0.000000
13.526371	12.123954	21.492456	-0.131227	0.101931	2.516708	0.000000	-0.016305	0.000000	0.000002	0.000000	0.000000	0.000000
14.007621	12.269692	21.405235	-0.171605	0.079307	2.508861	0.000000	-0.016305	0.000000	0.000002	0.000000	0.000000	0.000000
14.304943	12.379153	21.362231	-0.166194	0.012944	2.504013	0.000000	-0.022446	0.000000	0.000002	0.000000	0.000000	0.000000
14.745903	12.684431	21.116981	-0.528736	0.541114	2.509745	0.000000	0.048470	0.000000	0.000002	0.000000	0.000000	0.000000
15.186863	13.318846	20.415044	-0.915435	1.044664	2.546841	0.000000	0.119939	0.000000	0.000003	0.000000	0.000000	0.000000
15.627823	14.311382	19.288360	-1.343957	1.500683	2.615722	0.000000	0.192773	0.000000	0.000003	0.000000	0.000000	0.000000
16.068783	15.707386	17.788192	-1.833881	1.888422	2.717172	0.000000	0.267802	0.000000	0.000003	0.000000	0.000000	0.000000
16.514743	17.594290	15.961294	-2.412347	2.190988	2.854043	0.000000	0.346345	0.000000	0.000003	0.000001	0.000000	0.000000
17.063803	20.017516	13.921275	-1.974934	1.546417	3.020480	0.000000	0.259024	0.000000	0.000003	0.000000	0.000000	0.000000
17.612863	21.880498	12.524797	-1.398021	1.011995	3.137639	0.000000	0.167109	0.000000	0.000004	0.000000	0.000000	0.000000
18.161923	23.051646	11.672389	-0.722358	0.549654	3.203441	0.000000	0.072230	0.000000	0.000004	0.000000	0.000000	0.000000
18.710983	23.448236	11.303339	0.004328	0.126464	3.216721	0.000000	-0.023930	0.000000	0.000004	0.000000	0.000000	0.000000
19.009556	23.486050	11.218265	-0.069711	0.128939	3.212085	0.000000	-0.015525	0.000000	0.000004	0.000000	0.000000	0.000000
19.342889	23.537277	11.142375	-0.083973	0.098732	3.206910	0.000000	-0.015525	0.000000	0.000004	0.000000	0.000000	0.000000
19.676223	23.598013	11.086623	-0.098235	0.068524	3.201735	0.000000	-0.015525	0.000000	0.000004	0.000000	0.000000	0.000000
20.010806	23.668831	11.050777	-0.229818	0.092956	3.196561	0.000000	0.000313	0.000000	0.000004	0.000000	0.000000	0.000000
20.308129	23.809424	11.003570	-0.305251	0.094567	3.196653	0.000000	0.008665	0.000000	0.000004	0.000000	0.000000	0.000000
20.857189	23.733983	11.122239	0.441838	-0.311976	3.175195	0.000000	-0.086713	0.000000	0.000004	-0.000000	0.000000	0.000000
21.406249	22.850500	11.696852	1.157719	-0.740741	3.101715	0.000000	-0.180552	0.000000	0.000004	-0.000000	0.000000	0.000000
21.955309	21.221380	12.768336	1.791824	-1.222267	2.977516	0.000000	-0.271189	0.000000	0.000004	-0.000000	0.000000	0.000000
22.504369	18.961696	14.413011	2.299363	-1.790852	2.804801	0.000000	-0.357015	0.000000	0.000004	-0.000000	0.000000	0.000000
22.950329	17.181006	15.889475	1.707670	-1.505935	2.662877	0.000000	-0.279816	0.000000	0.000003	-0.000000	0.000000	0.000000
23.391289	15.904259	17.066596	1.198694	-1.153357	2.555809	0.000000	-0.206259	0.000000	0.000003	-0.000000	0.000000	0.000000
23.832249	15.050634	17.908354	0.744482	-0.748302	2.480629	0.000000	-0.135050	0.000000	0.000003	-0.000000	0.000000	0.000000
24.273209	14.581133	18.376451	0.324283	-0.309199	2.436480	0.000000	-0.065380	0.000000	0.000003	-0.000000	0.000000	0.000000
24.715418	14.474418	18.449342	-0.045692	0.098660	2.422857	0.000000	-0.002396	0.000000	0.000003	0.000000	0.000000	0.000000
25.012741	14.507708	18.395512	-0.066276	0.082388	2.422145	0.000000	-0.002396	0.000000	0.000003	0.000000	0.000000	0.000000
25.346075	14.559585	18.346668	-0.089353	0.064145	2.421346	0.000000	-0.002396	0.000000	0.000003	0.000000	0.000000	0.000000
25.679408	14.626846	18.309986	-0.112430	0.045901	2.420548	0.000000	-0.002396	0.000000	0.000003	0.000000	0.000000	0.000000
26.013991	14.709532	18.285768	-0.016261	-0.120754	2.419722	0.000000	-0.022026	0.000000	0.000003	-0.000000	0.000000	0.000000
26.311314	14.725213	18.362478	-0.000370	-0.182279	2.413173	0.000000	-0.027944	0.000000	0.000003	-0.000000	0.000000	0.000000
26.752274	14.906985	18.324042	-0.413412	0.269112	2.415959	0.000000	0.040593	0.000000	0.000003	0.000000	0.000000	0.000000
27.193234	15.459948	17.891415	-0.845343	0.708258	2.449040	0.000000	0.109591	0.000000	0.000003	0.000000	0.000000	0.000000
27.634194	16.409365	17.084281	-1.315895	1.115179	2.512792	0.000000	0.179838	0.000000	0.000003	0.000000	0.000000	0.000000
28.075154	17.798614	15.939363	-1.846566	1.471361	2.607943	0.000000	0.252133	0.000000	0.000003	0.000000	0.000000	0.000000
28.521114	19.715305	14.491511	-2.466558	1.761511	2.737177	0.000000	0.327743	0.000000	0.000004	0.000000	0.000000	0.000000
29.070174	22.151428	12.878175	-1.944073	1.194194	2.894467	0.000000	0.244357	0.000000	0.000004	0.000000	0.000000	0.000000
29.619234	23.934536	11.837737	-1.284268	0.711937	3.004715	0.000000	0.156637	0.000000	0.000004	0.000000	0.000000	0.000000
30.168294	24.938680	11.296087	-0.533748	0.280389	3.065964	0.000000	0.066139	0.000000	0.000004	0.000000	0.000000	0.000000
30.717354	25.092932	11.214647	0.254472	-0.131187	3.077128	0.000000	-0.025532	0.000000	0.000004	-0.000000	0.000000	0.000000
31.015927	24.983804	11.283519	0.176588	-0.128786	3.071905	0.000000	-0.017492	0.000000	0.000004	-0.000000	0.000000	0.000000
31.349260	24.870665	11.379387	0.162830	-0.158817	3.066075	0.000000	-0.017492	0.000000	0.000004	-0.000000	0.000000	0.000000
31.682593	24.766698	11.495276	0.149072	-0.188849	3.060244	0.000000	-0.017492	0.000000	0.000004	-0.000000	0.000000	0.000000
32.017177	24.671564	11.631733	0.135262	-0.218993	3.054391	0.000000	-0.017492	0.000000	0.000004	-0.000000	0.000000	0.000000
32.314499	24.594780	11.769921	0.058731	-0.215029	3.049190	0.000000	-0.009526	0.000000	0.000004	-0.000000	0.000000	0.000000
32.863559	24.108961	12.245385	0.820850	-0.656042	3.019082	0.000000	-0.099985	0.000000	0.000004	-0.000000	0.000000	0.000000
33.412619	22.813286	13.227799	1.524987	-1.143784	2.939721	0.000000	-0.188671	0.000000	0.000004	-0.000000	0.000000	0.000000
33.961679	20.799274	14.787138	2.121408	-1.712996	2.812514	0.000000	-0.274010	0.000000	0.000003	-0.000000	0.000000	0.000000
34.510739	18.209185	17.034471	2.567983	-2.404220	2.639718	0.000000	-0.354489	0.000000	0.000003	-0.000001	0.000000	0.000000
34.956699	16.195407	19.044562	1.963797	-2.084295	2.497970	0.000000	-0.281570	0.000000	0.000003	-0.000000	0.000000	0.000000
35.397659	14.693844	20.706506	1.454336	-1.670284	2.389188	0.000000	-0.212286	0.000000	0.000003	-0.000000	0.000000	0.000000
35.838619	13.610698	21.968291	1.011319	-1.180277	2.310397	0.000000	-0.145419	0.000000	0.000003	-0.000000	0.000000	0.000000
36.279579	12.896483	22.772508	0.614506	-0.636569	2.260698	0.000000	-0.080209	0.000000	0.000002	-0.000000	0.000000	0.000000
36.721789	12.517879	23.082866	0.276360	-0.120555	2.239498	0.000000	-0.021404	0.000000	0.000002	-0.000000	0.000000	0.000000
37.019112	12.361144	23.158439	0.250794	-0.133623	2.233135	0.000000	-0.021404	0.000000	0.000002	-0.000000	0.000000	0.000000
37.352445	12.203502	23.252405	0.222132	-0.148274	2.226000	0.000000	-0.021404	0.000000	0.000002	-0.000000	0.000000	0.000000
37.685779	12.064968	23.356137	0.193469	-0.162924	2.218865	0.000000	-0.021404	0.000000	0.000002	-0.000000	0.000000	0.000000
38.020362	11.945131	23.470081	0.164700	-0.177630	2.211704	0.000000	-0.021404	0.000000	0.000002	-0.000000	0.000000	0.000000
38.317684	11.854795	23.579593	0.168205	-0.248521	2.205340	0.000000	-0.026812	0.000000	0.000002	-0.000000	0.000000	0.000000
38.758644	11.857658	23.537612	-0.174722	0.343362	2.207443	0.000000	0.036358	0.000000	0.000002	-0.000000	0.000000	0.000000
39.199604	12.165318	22.978560	-0.525631	0.919622	2.237465	0.000000	0.099941	0.000000	0.000002	-0.000000	0.000000	0.000000
39.640564	12.791832	21.927872	-0.900554	1.454039	2.295750	0.000000	0.164663	0.000000	0.000002	-0.000000	0.000000	0.000000
40.081524	13.765822	20.433354	-1.316621	1.922300	2.382960	0.000000	0.231261	0.000000	0.000002	0.000000	0.000000	0.000000
40.527484	15.149353	18.540439	-1.796665	2.304375	2.501561	0.000000	0.300897	0.000000	0.000002	0.000000	0.000000	0.000000
41.076544	16.915128	16.413368	-1.400292	1.592515	2.646245	0.000000	0.225350	0.000000	0.000002	-0.000000	0.000000	0.000000
41.625604	18.188414	15.001503	-0.905009	0.994085	2.748288	0.000000	0.145806	0.000000	0.000002	-0.000000	0.000000	0.000000
42.174664	18.879274	14.204280	-0.345801	0.466462	2.805882	0.000000	0.063675	0.000000	0.000002	-0.000000	0.000000	0.000000
42.723724	18.938908	13.964916	0.237832	-0.027935	2.818004	0.000000	-0.019585	0.000000	0.000002	-0.000000	0.000000	0.000000
43.022297	18.831310	13.966193	0.172025	-0.012830	2.814355	0.000000	-0.012222	0.000000	0.000002	-0.000000	0.000000	0.000000
43.502297	18.678763	13.995009	0.145781	-0.047204	2.808489	0.000000	-0.012222	0.000000	0.000002	-0.000000	0.000000	0.000000
43.982297	18.551410	14.056825	0.119537	-0.081579	2.802622	0.000000	-0.012222	0.000000	0.000002	-0.000000	0.000000	0.000000
44.462297	18.449251	14.151641	0.093294	-0.115953	2.796756	0.000000	-0.012222	0.000000	0.000001	-0.000000	0.000000	0.000000
44.942297	18.372286	14.279455	0.067050	-0.150327	2.790889	0.000000	-0.012222	0.000000	0.000001	-0.000000	0.000000	0.000000
45.423547	18.320641	14.440552	-0.050033	-0.113244	2.785025	0.000000	0.001577	0.000000	0.000001	-0.000000	0.000000	0.000000
45.720870	18.355230	14.514092	-0.114261	-0.096175	2.785494	0.000000	0.008855	0.000000	0.000001	-0.000000	0.000000	0.000000
46.269930	18.171629	14.900492	0.446671	-0.611727	2.767786	0.000000	-0.073261	0.000000	0.000001	-0.000000	0.000000	0.000000
46.818990	17.385816	15.873490	0.976053	-1.170850	2.705283	0.000000	-0.154078	0.000000	0.000001	-0.000000	0.000000	0.000000
47.368050	16.053297	17.502391	1.436491	-1.813370	2.599092	0.000000	-0.232162	0.000000	0.000001	-0.000000	0.000000	0.000000
47.917110	14.268194	19.903218	1.795462	-2.585053	2.451098	0.000000	-0.306127	0.000000	0.000001	-0.000000	0.000000	0.000000
48.363070	12.878912	22.037861	1.330836	-2.181447	2.329868	0.000000	-0.237834	0.000000	0.000001	-0.000000	0.000000	0.000000
48.804030	11.885398	23.747045	0.930780	-1.679856	2.239452	0.000000	-0.172647	0.000000	0.000000	-0.000000	0.000000	0.000000
49.244990	11.224689	24.978344	0.573248	-1.101833	2.177320	0.000000	-0.109426	0.000000	0.000000	-0.000000	0.000000	0.000000
49.685950	10.866597	25.675735	0.241906	-0.473678	2.142765	0.000000	-0.047451	0.000000	0.000000	-0.000000	0.000000	0.000000
50.128160	10.794893	25.807205	-0.052028	0.112693	2.135404	0.000000	0.008747	0.000000	0.000000	-0.000000	0.000000	0.000000
50.425482	10.834043	25.743662	-0.079646	0.101026	2.138004	0.000000	0.008747	0.000000	0.000000	-0.000000	0.000000	0.000000
50.758816	10.897461	25.680671	-0.110608	0.087946	2.140920	0.000000	0.008747	0.000000	-0.000000	-0.000000	0.000000	0.000000
51.092149	10.981520	25.626401	-0.141570	0.074865	2.143836	0.000000	0.008747	0.000000	-0.000000	-0.000000	0.000000	0.000000
51.426732	11.086428	25.581215	-0.082709	-0.145791	2.146741	0.000000	-0.008669	0.000000	-0.000000	-0.000000	0.000000	0.000000
51.724055	11.143638	25.671439	-0.082383	-0.220615	2.144163	0.000000	-0.013927	0.000000	-0.000000	-0.000000	0.000000	0.000000
52.165015	11.361760	25.580430	-0.414146	0.426216	2.151610	0.000000	0.047734	0.000000	-0.000000	-0.000000	0.000000	0.000000
52.605975	11.879676	24.925374	-0.764829	1.053655	2.186341	0.000000	0.109939	0.000000	-0.000001	-0.000000	0.000000	0.000000
53.046935	12.721048	23.736073	-1.150455	1.633154	2.248751	0.000000	0.173396	0.000000	-0.000001	-0.000000	0.000000	0.000000
53.487895	13.924316	22.066640	-1.588643	2.138345	2.339553	0.000000	0.238829	0.000000	-0.000001	-0.000000	0.000000	0.000000
53.933855	15.565075	19.968070	-2.103648	2.547578	2.461283	0.000000	0.307379	0.000000	-0.000001	-0.000000	0.000000	0.000000
54.482915	17.677450	17.606736	-1.720835	1.778493	2.609873	0.000000	0.233074	0.000000	-0.000001	-0.000000	0.000000	0.000000
55.031975	19.299810	16.015848	-1.216470	1.136086	2.716467	0.000000	0.154635	0.000000	-0.000001	-0.000000	0.000000	0.000000
55.581035	20.317560	15.082091	-0.626181	0.574600	2.779177	0.000000	0.073452	0.000000	-0.000001	-0.000000	0.000000	0.000000
56.130095	20.658812	14.738955	0.008340	0.054041	2.796888	0.000000	-0.009033	0.000000	-0.000001	-0.000000	0.000000	0.000000
56.428668	20.690389	14.689788	-0.060121	0.072121	2.796373	0.000000	-0.001725	0.000000	-0.000002	-0.000000	0.000000	0.000000
56.762001	20.735860	14.649311	-0.076290	0.049311	2.795798	0.000000	-0.001725	0.000000	-0.000002	-0.000000	0.000000	0.000000
57.095334	20.792109	14.624040	-0.092459	0.026502	2.795223	0.000000	-0.001725	0.000000	-0.000002	-0.000000	0.000000	0.000000
57.429918	20.859410	14.613967	-0.108688	0.003607	2.794646	0.000000	-0.001725	0.000000	-0.000002	-0.000000	0.000000	0.000000
57.727240	20.928329	14.617871	-0.177793	0.021456	2.794133	0.000000	0.005576	0.000000	-0.000002	-0.000000	0.000000	0.000000
58.276300	20.766465	14.875085	0.470849	-0.492684	2.774554	0.000000	-0.076790	0.000000	-0.000002	-0.000000	0.000000	0.000000
58.825360	19.906443	15.712729	1.086233	-1.041916	2.710059	0.000000	-0.157794	0.000000	-0.000002	-0.000000	0.000000	0.000000
59.374420	18.409010	17.190464	1.624890	-1.665362	2.601792	0.000000	-0.235998	0.000000	-0.000002	0.000000	0.000000	0.000000
59.923480	16.379936	19.413547	2.048774	-2.407427	2.451673	0.000000	-0.310017	0.000000	-0.000002	0.000000	0.000000	0.000000
60.369440	14.791704	21.389514	1.525217	-2.004688	2.328709	0.000000	-0.241731	0.000000	-0.000002	0.000000	0.000000	0.000000
60.810400	13.649202	22.946203	1.075554	-1.512107	2.236563	0.000000	-0.176596	0.000000	-0.000002	-0.000000	0.000000	0.000000
61.251360	12.880182	24.036362	0.675030	-0.950726	2.172670	0.000000	-0.113472	0.000000	-0.000002	-0.000000	0.000000	0.000000
61.692320	12.449509	24.610389	0.305347	-0.346088	2.136300	0.000000	-0.051641	0.000000	-0.000002	-0.000000	0.000000	0.000000
62.134530	12.337557	24.641633	-0.020232	0.213813	2.127046	0.000000	0.004386	0.000000	-0.000002	-0.000000	0.000000	0.000000
62.431853	12.356756	24.518242	-0.044341	0.201195	2.128350	0.000000	0.004386	0.000000	-0.000002	-0.000000	0.000000	0.000000
62.765186	12.395326	24.388827	-0.071370	0.187050	2.129812	0.000000	0.004386	0.000000	-0.000002	-0.000000	0.000000	0.000000
63.098520	12.451915	24.268842	-0.098398	0.172904	2.131274	0.000000	0.004386	0.000000	-0.000002	-0.000000	0.000000	0.000000
63.433103	12.526837	24.157891	-0.125529	0.158705	2.132742	0.000000	0.004386	0.000000	-0.000002	-0.000000	0.000000	0.000000
63.730426	12.608650	24.067269	-0.118717	0.087066	2.134046	0.000000	-0.000847	0.000000	-0.000002	-0.000000	0.000000	0.000000
64.171386	12.873856	23.725416	-0.484993	0.685231	2.147214	0.000000	0.060627	0.000000	-0.000002	-0.000000	0.000000	0.000000
64.612346	13.470601	22.867815	-0.873428	1.252218	2.187616	0.000000	0.122792	0.000000	-0.000002	-0.000000	0.000000	0.000000
65.053306	14.426150	21.533487	-1.301767	1.762230	2.255712	0.000000	0.186355	0.000000	-0.000003	-0.000000	0.000000	0.000000
65.494266	15.784158	19.783141	-1.789580	2.192062	2.352278	0.000000	0.252041	0.000000	-0.000003	-0.000000	0.000000	0.000000
65.940226	17.629838	17.671641	-2.363847	2.522914	2.479986	0.000000	0.320999	0.000000	-0.000003	-0.000000	0.000000	0.000000
66.489286	19.995633	15.309454	-1.919457	1.804718	2.635866	0.000000	0.245970	0.000000	-0.000003	-0.000000	0.000000	0.000000
67.038346	21.795643	13.661140	-1.339486	1.215069	2.749289	0.000000	0.166578	0.000000	-0.000003	-0.000000	0.000000	0.000000
67.587406	22.902725	12.609291	-0.664900	0.711965	2.818245	0.000000	0.084231	0.000000	-0.000004	-0.000000	0.000000	0.000000
68.136466	23.238679	12.078988	0.056651	0.259574	2.841510	0.000000	0.000390	0.000000	-0.000004	-0.000000	0.000000	0.000000
68.435038	23.244945	11.913144	-0.016918	0.264321	2.843843	0.000000	0.007814	0.000000	-0.000004	-0.000000	0.000000	0.000000
68.768372	23.261005	11.746908	-0.031262	0.234386	2.846448	0.000000	0.007814	0.000000	-0.000004	-0.000000	0.000000	0.000000
69.101705	23.286628	11.600629	-0.045606	0.204451	2.849053	0.000000	0.007814	0.000000	-0.000004	-0.000000	0.000000	0.000000
69.436288	23.321964	11.473871	-0.060004	0.174404	2.851667	0.000000	0.007814	0.000000	-0.000004	-0.000000	0.000000	0.000000
69.733611	23.361449	11.378101	-0.133840	0.177432	2.853991	0.000000	0.015271	0.000000	-0.000004	-0.000000	0.000000	0.000000
70.282671	23.107209	11.411053	0.594144	-0.237802	2.839188	0.000000	-0.069111	0.000000	-0.000004	0.000000	0.000000	0.000000
