#ParticleID	Turn	x[m]	xp	y[m]	yp	z[m]	dE[GeV]# s	beta_x	beta_y	alpha_x	alpha_y	D_x	D_y	D_px	D_py	orbit_x	orbit_px	orbit_y	orbit_py
0.300000	11.819243	24.995930	-0.011698	-0.027476	2.618106	0.000000	0.000015	0.000000	-0.000000	0.000001	0.000000	0.000000
0.601250	11.833971	25.016118	-0.037190	-0.039537	2.618110	0.000000	0.000015	0.000000	-0.000000	0.000001	0.000000	0.000000
0.898573	11.863566	25.043168	-0.033256	-0.112854	2.618114	0.000000	-0.006405	0.000000	0.000000	0.000001	0.000000	0.000000
1.339533	12.045091	24.864912	-0.379966	0.515560	2.631583	0.000000	0.067552	0.000000	0.000000	0.000001	0.000000	0.000000
1.780493	12.538858	24.140711	-0.744035	1.120517	2.677802	0.000000	0.142279	0.000000	0.000001	0.000001	0.000000	0.000000
2.221453	13.367424	22.903516	-1.142097	1.674492	2.757298	0.000000	0.218626	0.000000	0.000001	0.000001	0.000000	0.000000
2.662413	14.568644	21.209618	-1.592339	2.152278	2.870977	0.000000	0.297463	0.000000	0.000001	0.000001	0.000000	0.000000
3.108373	16.218162	19.111245	-2.119622	2.533269	3.021994	0.000000	0.380178	0.000000	0.000002	0.000001	0.000000	0.000000
3.657433	18.333380	16.754498	-1.710006	1.784397	3.205462	0.000000	0.287139	0.000000	0.000002	0.000001	0.000000	0.000000
4.206493	19.929397	15.145902	-1.179603	1.162624	3.336371	0.000000	0.189008	0.000000	0.000003	0.000001	0.000000	0.000000
4.755553	20.893479	14.170880	-0.565880	0.623661	3.412399	0.000000	0.087525	0.000000	0.000003	0.000001	0.000000	0.000000
5.304613	21.157528	13.759983	0.087815	0.129121	3.432198	0.000000	-0.015512	0.000000	0.000003	0.000000	0.000000	0.000000
5.603185	21.142317	13.668066	0.018409	0.142782	3.430244	0.000000	-0.006544	0.000000	0.000004	0.000001	0.000000	0.000000
5.936519	21.135301	13.581172	0.002638	0.117897	3.428062	0.000000	-0.006544	0.000000	0.000004	0.000001	0.000000	0.000000
6.269852	21.138800	13.510869	-0.013134	0.093013	3.425881	0.000000	-0.006544	0.000000	0.000004	0.000001	0.000000	0.000000
6.604435	21.152885	13.456985	-0.028964	0.068034	3.423691	0.000000	-0.006544	0.000000	0.000004	0.000001	0.000000	0.000000
6.901758	21.174292	13.423129	-0.098355	0.080909	3.421745	0.000000	0.002396	0.000000	0.000004	0.000001	0.000000	0.000000
7.450818	20.921400	13.594994	0.556219	-0.395773	3.394859	0.000000	-0.100187	0.000000	0.000004	0.000000	0.000000	0.000000
7.999878	19.967128	14.302628	1.171503	-0.900645	3.312054	0.000000	-0.200992	0.000000	0.000005	0.000000	0.000000	0.000000
8.548938	18.378881	15.596436	1.704039	-1.469668	3.174800	0.000000	-0.298233	0.000000	0.000005	0.000000	0.000000	0.000000
9.097998	16.268844	17.568572	2.116210	-2.143373	2.985530	0.000000	-0.390183	0.000000	0.000005	-0.000000	0.000000	0.000000
9.543958	14.622592	19.325865	1.588394	-1.780445	2.829831	0.000000	-0.308475	0.000000	0.000005	0.000000	0.000000	0.000000
9.984918	13.425152	20.706112	1.137439	-1.337740	2.711053	0.000000	-0.230765	0.000000	0.000005	0.000000	0.000000	0.000000
10.425878	12.601086	21.667496	0.738450	-0.834169	2.625930	0.000000	-0.155682	0.000000	0.000005	0.000000	0.000000	0.000000
10.866838	12.112746	22.166274	0.373199	-0.292644	2.573493	0.000000	-0.082373	0.000000	0.000005	0.000000	0.000000	0.000000
11.309048	11.937685	22.179232	0.054167	0.207748	2.553125	0.000000	-0.016263	0.000000	0.000005	0.000001	0.000000	0.000000
11.606371	11.912902	22.059854	0.029187	0.193764	2.548290	0.000000	-0.016263	0.000000	0.000005	0.000001	0.000000	0.000000
12.086371	11.904239	21.884677	-0.011139	0.171188	2.540483	0.000000	-0.016263	0.000000	0.000006	0.000001	0.000000	0.000000
12.566371	11.934290	21.731173	-0.051466	0.148612	2.532677	0.000000	-0.016263	0.000000	0.000006	0.000001	0.000000	0.000000
13.046371	12.003054	21.599341	-0.091793	0.126036	2.524870	0.000000	-0.016263	0.000000	0.000006	0.000001	0.000000	0.000000
13.526371	12.110532	21.489183	-0.132120	0.103460	2.517064	0.000000	-0.016263	0.000000	0.000006	0.000001	0.000000	0.000000
14.007621	12.257155	21.400496	-0.172551	0.080826	2.509237	0.000000	-0.016263	0.000000	0.000007	0.000001	0.000000	0.000000
14.304943	12.367189	21.356591	-0.167205	0.014472	2.504402	0.000000	-0.022404	0.000000	0.000007	0.000001	0.000000	0.000000
14.745903	12.673250	21.110069	-0.529507	0.542457	2.510155	0.000000	0.048523	0.000000	0.000007	0.000001	0.000000	0.000000
15.186863	13.308252	20.407054	-0.916000	1.045760	2.547276	0.000000	0.120002	0.000000	0.000007	0.000001	0.000000	0.000000
15.627823	14.301206	19.279531	-1.344344	1.501482	2.616187	0.000000	0.192847	0.000000	0.000008	0.000001	0.000000	0.000000
16.068783	15.697479	17.778803	-1.834106	1.888887	2.717673	0.000000	0.267890	0.000000	0.000008	0.000001	0.000000	0.000000
16.514743	17.584516	15.951648	-2.412421	2.191096	2.854585	0.000000	0.346445	0.000000	0.000009	0.000002	0.000000	0.000000
17.063803	20.008065	13.911414	-1.975445	1.546706	3.021072	0.000000	0.259107	0.000000	0.000010	0.000001	0.000000	0.000000
17.612863	21.871835	12.514511	-1.398933	1.012483	3.138270	0.000000	0.167172	0.000000	0.000010	0.000001	0.000000	0.000000
18.161923	23.044178	11.661442	-0.723608	0.550378	3.204101	0.000000	0.072272	0.000000	0.000011	0.000001	0.000000	0.000000
18.710983	23.442285	11.291445	0.002829	0.127474	3.217397	0.000000	-0.023910	0.000000	0.000011	0.000000	0.000000	0.000000
19.009556	23.480984	11.205798	-0.071195	0.129880	3.212768	0.000000	-0.015504	0.000000	0.000011	0.000000	0.000000	0.000000
19.342889	23.533203	11.129294	-0.085463	0.099632	3.207600	0.000000	-0.015504	0.000000	0.000011	0.000000	0.000000	0.000000
19.676223	23.594935	11.072956	-0.099731	0.069383	3.202432	0.000000	-0.015504	0.000000	0.000011	0.000000	0.000000	0.000000
20.010806	23.666756	11.036548	-0.231311	0.093704	3.197264	0.000000	0.000337	0.000000	0.000011	0.000000	0.000000	0.000000
20.308129	23.808239	10.988908	-0.306746	0.095236	3.197364	0.000000	0.008691	0.000000	0.000011	0.000000	0.000000	0.000000
20.857189	23.734454	11.106614	0.440336	-0.310879	3.175914	0.000000	-0.086710	0.000000	0.000011	-0.000000	0.000000	0.000000
21.406249	22.852575	11.679754	1.156316	-0.739138	3.102429	0.000000	-0.180573	0.000000	0.000011	-0.000000	0.000000	0.000000
21.955309	21.224896	12.749150	1.790619	-1.220044	2.978213	0.000000	-0.271232	0.000000	0.000011	-0.000001	0.000000	0.000000
22.504369	18.966386	14.390974	2.298442	-1.787851	2.805468	0.000000	-0.357081	0.000000	0.000010	-0.000001	0.000000	0.000000
22.950329	17.186517	15.864978	1.706742	-1.503441	2.663519	0.000000	-0.279865	0.000000	0.000010	-0.000001	0.000000	0.000000
23.391289	15.910608	17.040164	1.197715	-1.151481	2.556434	0.000000	-0.206291	0.000000	0.000010	-0.000001	0.000000	0.000000
23.832249	15.057886	17.880574	0.743408	-0.747129	2.481243	0.000000	-0.135066	0.000000	0.000009	-0.000000	0.000000	0.000000
24.273209	14.589390	18.347968	0.323066	-0.308784	2.437091	0.000000	-0.065380	0.000000	0.000009	-0.000000	0.000000	0.000000
24.715418	14.483836	18.420834	-0.047088	0.098373	2.423471	0.000000	-0.002381	0.000000	0.000009	0.000000	0.000000	0.000000
25.012741	14.517954	18.367183	-0.067661	0.082076	2.422763	0.000000	-0.002381	0.000000	0.000009	0.000000	0.000000	0.000000
25.346075	14.570750	18.318556	-0.090727	0.063805	2.421969	0.000000	-0.002381	0.000000	0.000009	0.000000	0.000000	0.000000
25.679408	14.638923	18.282109	-0.113792	0.045535	2.421175	0.000000	-0.002381	0.000000	0.000009	0.000000	0.000000	0.000000
26.013991	14.722516	18.258145	-0.017505	-0.120923	2.420354	0.000000	-0.022017	0.000000	0.000009	0.000000	0.000000	0.000000
26.311314	14.738932	18.334964	-0.001565	-0.182405	2.413808	0.000000	-0.027936	0.000000	0.000009	-0.000000	0.000000	0.000000
26.752274	14.921910	18.296968	-0.414964	0.268244	2.416601	0.000000	0.040617	0.000000	0.000010	0.000000	0.000000	0.000000
27.193234	15.476424	17.865419	-0.847321	0.706688	2.449697	0.000000	0.109632	0.000000	0.000010	0.000000	0.000000	0.000000
27.634194	16.427808	17.059954	-1.318391	1.112978	2.513471	0.000000	0.179896	0.000000	0.000010	0.000001	0.000000	0.000000
28.075154	17.819526	15.917220	-1.849693	1.468629	2.608651	0.000000	0.252209	0.000000	0.000010	0.000001	0.000000	0.000000
28.521114	19.739345	14.471999	-2.470467	1.758370	2.737923	0.000000	0.327838	0.000000	0.000011	0.000001	0.000000	0.000000
29.070174	22.179446	12.861688	-1.947367	1.191790	2.895259	0.000000	0.244428	0.000000	0.000011	0.000001	0.000000	0.000000
29.619234	23.965726	11.823565	-1.286716	0.710099	3.005537	0.000000	0.156682	0.000000	0.000012	0.000001	0.000000	0.000000
30.168294	24.972012	11.283684	-0.535177	0.278986	3.066803	0.000000	0.066157	0.000000	0.000012	0.000000	0.000000	0.000000
30.717354	25.127223	11.203593	0.254164	-0.132255	3.077969	0.000000	-0.025542	0.000000	0.000012	-0.000000	0.000000	0.000000
31.015927	25.018325	11.273131	0.176213	-0.129917	3.072744	0.000000	-0.017501	0.000000	0.000012	-0.000000	0.000000	0.000000
31.349260	24.905428	11.369765	0.162476	-0.159985	3.066910	0.000000	-0.017501	0.000000	0.000012	-0.000000	0.000000	0.000000
31.682593	24.801690	11.486444	0.148739	-0.190053	3.061077	0.000000	-0.017501	0.000000	0.000012	-0.000000	0.000000	0.000000
32.017177	24.706772	11.623719	0.134950	-0.220234	3.055222	0.000000	-0.017501	0.000000	0.000012	-0.000000	0.000000	0.000000
32.314499	24.630168	11.762654	0.058349	-0.216323	3.050018	0.000000	-0.009532	0.000000	0.000012	-0.000000	0.000000	0.000000
32.863559	24.144121	12.239457	0.821645	-0.657202	3.019899	0.000000	-0.100018	0.000000	0.000011	-0.000001	0.000000	0.000000
33.412619	22.846947	13.223110	1.526905	-1.144893	2.940513	0.000000	-0.188730	0.000000	0.000011	-0.000001	0.000000	0.000000
33.961679	20.830272	14.783674	2.124311	-1.714132	2.813267	0.000000	-0.274094	0.000000	0.000010	-0.000001	0.000000	0.000000
34.510739	18.236543	17.032307	2.571667	-2.405464	2.640418	0.000000	-0.354597	0.000000	0.000010	-0.000002	0.000000	0.000000
34.956699	16.219853	19.043604	1.966666	-2.085744	2.498626	0.000000	-0.281660	0.000000	0.000009	-0.000001	0.000000	0.000000
35.397659	14.716067	20.706891	1.456526	-1.671870	2.389809	0.000000	-0.212360	0.000000	0.000008	-0.000001	0.000000	0.000000
35.838619	13.631250	21.970109	1.012931	-1.181928	2.310988	0.000000	-0.145477	0.000000	0.000008	-0.000001	0.000000	0.000000
36.279579	12.915840	22.775782	0.615614	-0.638208	2.261267	0.000000	-0.080252	0.000000	0.000008	-0.000001	0.000000	0.000000
36.721789	12.536460	23.087558	0.277058	-0.122119	2.240052	0.000000	-0.021434	0.000000	0.000007	-0.000001	0.000000	0.000000
37.019112	12.379301	23.164062	0.251521	-0.135189	2.233679	0.000000	-0.021434	0.000000	0.000007	-0.000001	0.000000	0.000000
37.352445	12.221164	23.259072	0.222891	-0.149842	2.226535	0.000000	-0.021434	0.000000	0.000007	-0.000001	0.000000	0.000000
37.685779	12.082113	23.363851	0.194261	-0.164495	2.219390	0.000000	-0.021434	0.000000	0.000007	-0.000001	0.000000	0.000000
38.020362	11.961736	23.478846	0.165523	-0.179203	2.212219	0.000000	-0.021434	0.000000	0.000007	-0.000001	0.000000	0.000000
38.317684	11.870901	23.589294	0.169095	-0.250118	2.205846	0.000000	-0.026843	0.000000	0.000007	-0.000001	0.000000	0.000000
38.758644	11.873138	23.548604	-0.174188	0.342044	2.207938	0.000000	0.036339	0.000000	0.000006	-0.000000	0.000000	0.000000
39.199604	12.180476	22.990568	-0.525430	0.918643	2.237956	0.000000	0.099936	0.000000	0.000006	-0.000000	0.000000	0.000000
39.640564	12.806956	21.940576	-0.900678	1.453444	2.296241	0.000000	0.164671	0.000000	0.000006	-0.000000	0.000000	0.000000
40.081524	13.781200	20.446404	-1.317074	1.922115	2.383457	0.000000	0.231281	0.000000	0.000006	0.000000	0.000000	0.000000
40.527484	15.165290	18.553464	-1.797471	2.304613	2.502070	0.000000	0.300930	0.000000	0.000006	0.000000	0.000000	0.000000
41.076544	16.931626	16.426307	-1.400504	1.592435	2.646767	0.000000	0.225366	0.000000	0.000006	0.000000	0.000000	0.000000
41.625604	18.204811	15.014704	-0.904613	0.993684	2.748815	0.000000	0.145805	0.000000	0.000006	-0.000000	0.000000	0.000000
42.174664	18.894911	14.218111	-0.344824	0.465710	2.806404	0.000000	0.063658	0.000000	0.000006	-0.000000	0.000000	0.000000
42.723724	18.953184	13.979789	0.239321	-0.029092	2.818512	0.000000	-0.019619	0.000000	0.000006	-0.000001	0.000000	0.000000
43.022297	18.844717	13.981727	0.173482	-0.013926	2.814853	0.000000	-0.012255	0.000000	0.000006	-0.000001	0.000000	0.000000
43.502297	18.690768	14.011577	0.147244	-0.048263	2.808971	0.000000	-0.012255	0.000000	0.000006	-0.000001	0.000000	0.000000
43.982297	18.562008	14.074392	0.121006	-0.082600	2.803089	0.000000	-0.012255	0.000000	0.000005	-0.000001	0.000000	0.000000
44.462297	18.458437	14.170169	0.094768	-0.116937	2.797206	0.000000	-0.012255	0.000000	0.000005	-0.000001	0.000000	0.000000
44.942297	18.380053	14.298911	0.068530	-0.151274	2.791324	0.000000	-0.012255	0.000000	0.000005	-0.000001	0.000000	0.000000
45.423547	18.326980	14.460901	-0.048578	-0.114053	2.785444	0.000000	0.001546	0.000000	0.000004	-0.000001	0.000000	0.000000
45.720870	18.360701	14.534914	-0.112811	-0.096905	2.785904	0.000000	0.008824	0.000000	0.000004	-0.000001	0.000000	0.000000
46.269930	18.175421	14.922469	0.448264	-0.613112	2.768176	0.000000	-0.073305	0.000000	0.000004	-0.000001	0.000000	0.000000
46.818990	17.387833	15.897391	0.977675	-1.172989	2.705646	0.000000	-0.154133	0.000000	0.000004	-0.000001	0.000000	0.000000
47.368050	16.053568	17.529122	1.438028	-1.816416	2.599422	0.000000	-0.232228	0.000000	0.000003	-0.000001	0.000000	0.000000
47.917110	14.266873	19.933887	1.796806	-2.589222	2.451389	0.000000	-0.306204	0.000000	0.000003	-0.000001	0.000000	0.000000
48.363070	12.876440	22.071962	1.332082	-2.184942	2.330127	0.000000	-0.237904	0.000000	0.000002	-0.000001	0.000000	0.000000
48.804030	11.881850	23.783873	0.931985	-1.682522	2.239681	0.000000	-0.172710	0.000000	0.000002	-0.000001	0.000000	0.000000
49.244990	11.220075	25.017112	0.574468	-1.103548	2.177523	0.000000	-0.109483	0.000000	0.000002	-0.000001	0.000000	0.000000
49.685950	10.860879	25.715565	0.243197	-0.474363	2.142943	0.000000	-0.047504	0.000000	0.000001	-0.000001	0.000000	0.000000
50.128160	10.787980	25.847172	-0.050624	0.112971	2.135560	0.000000	0.008698	0.000000	0.000001	-0.000001	0.000000	0.000000
50.425482	10.826299	25.783458	-0.078256	0.101321	2.138147	0.000000	0.008698	0.000000	0.000001	-0.000001	0.000000	0.000000
50.758816	10.888796	25.720264	-0.109233	0.088260	2.141046	0.000000	0.008698	0.000000	0.000000	-0.000001	0.000000	0.000000
51.092149	10.971944	25.665778	-0.140211	0.075199	2.143946	0.000000	0.008698	0.000000	0.000000	-0.000001	0.000000	0.000000
51.426732	11.075947	25.620363	-0.081450	-0.145755	2.146834	0.000000	-0.008719	0.000000	-0.000000	-0.000001	0.000000	0.000000
51.724055	11.132415	25.710559	-0.081172	-0.220657	2.144242	0.000000	-0.013977	0.000000	-0.000000	-0.000001	0.000000	0.000000
52.165015	11.349347	25.619131	-0.412647	0.427207	2.151668	0.000000	0.047686	0.000000	-0.000001	-0.000001	0.000000	0.000000
52.605975	11.865790	24.962759	-0.762975	1.055634	2.186378	0.000000	0.109893	0.000000	-0.000001	-0.000001	0.000000	0.000000
53.046935	12.705340	23.771309	-1.148162	1.636031	2.248768	0.000000	0.173350	0.000000	-0.000001	-0.000001	0.000000	0.000000
53.487895	13.906353	22.098989	-1.585804	2.141989	2.339549	0.000000	0.238783	0.000000	-0.000002	-0.000001	0.000000	0.000000
53.933855	15.544287	19.996885	-2.100129	2.551825	2.461260	0.000000	0.307333	0.000000	-0.000002	-0.000001	0.000000	0.000000
54.482915	17.653065	17.631510	-1.717842	1.781650	2.609824	0.000000	0.233029	0.000000	-0.000003	-0.000001	0.000000	0.000000
55.031975	19.272526	16.037648	-1.214214	1.138378	2.716395	0.000000	0.154591	0.000000	-0.000003	-0.000001	0.000000	0.000000
55.581035	20.288279	15.101772	-0.624820	0.576189	2.779082	0.000000	0.073412	0.000000	-0.000003	-0.000001	0.000000	0.000000
56.130095	20.628576	14.757222	0.008707	0.055042	2.796772	0.000000	-0.009070	0.000000	-0.000004	-0.000001	0.000000	0.000000
56.428668	20.659893	14.707423	-0.059696	0.073191	2.796246	0.000000	-0.001762	0.000000	-0.000004	-0.000001	0.000000	0.000000
56.762001	20.705088	14.666223	-0.075888	0.050406	2.795659	0.000000	-0.001762	0.000000	-0.000004	-0.000001	0.000000	0.000000
57.095334	20.761077	14.640215	-0.092080	0.027620	2.795071	0.000000	-0.001762	0.000000	-0.000004	-0.000001	0.000000	0.000000
57.429918	20.828132	14.629385	-0.108333	0.004749	2.794482	0.000000	-0.001762	0.000000	-0.000004	-0.000001	0.000000	0.000000
57.727240	20.896846	14.632604	-0.177377	0.022658	2.793958	0.000000	0.005538	0.000000	-0.000005	-0.000001	0.000000	0.000000
58.276300	20.735106	14.888724	0.470208	-0.491883	2.774360	0.000000	-0.076821	0.000000	-0.000005	-0.000000	0.000000	0.000000
58.825360	19.876352	15.725680	1.084579	-1.041459	2.709850	0.000000	-0.157819	0.000000	-0.000005	-0.000000	0.000000	0.000000
59.374420	18.381240	17.203087	1.622341	-1.665217	2.601571	0.000000	-0.236016	0.000000	-0.000005	-0.000000	0.000000	0.000000
59.923480	16.355379	19.426176	2.045509	-2.407584	2.451444	0.000000	-0.310028	0.000000	-0.000005	0.000000	0.000000	0.000000
60.369440	14.769728	21.402098	1.522671	-2.004430	2.328474	0.000000	-0.241748	0.000000	-0.000005	-0.000000	0.000000	0.000000
60.810400	13.629201	22.958383	1.073607	-1.511451	2.236320	0.000000	-0.176619	0.000000	-0.000005	-0.000000	0.000000	0.000000
61.251360	12.861668	24.047798	0.673592	-0.949701	2.172415	0.000000	-0.113502	0.000000	-0.000005	-0.000000	0.000000	0.000000
61.692320	12.432063	24.620775	0.304352	-0.344740	2.136031	0.000000	-0.051677	0.000000	-0.000005	-0.000000	0.000000	0.000000
62.134530	12.320812	24.650706	-0.020869	0.215397	2.126760	0.000000	0.004343	0.000000	-0.000006	-0.000001	0.000000	0.000000
62.431853	12.340400	24.526373	-0.045011	0.202776	2.128051	0.000000	0.004343	0.000000	-0.000006	-0.000001	0.000000	0.000000
62.765186	12.379430	24.395906	-0.072078	0.188627	2.129499	0.000000	0.004343	0.000000	-0.000006	-0.000001	0.000000	0.000000
63.098520	12.436504	24.274871	-0.099144	0.174477	2.130947	0.000000	0.004343	0.000000	-0.000006	-0.000001	0.000000	0.000000
63.433103	12.511937	24.162869	-0.126312	0.160274	2.132401	0.000000	0.004343	0.000000	-0.000006	-0.000001	0.000000	0.000000
63.730426	12.594226	24.071315	-0.119567	0.088620	2.133692	0.000000	-0.000889	0.000000	-0.000006	-0.000001	0.000000	0.000000
64.171386	12.860044	23.728057	-0.485536	0.686851	2.146839	0.000000	0.060576	0.000000	-0.000007	-0.000001	0.000000	0.000000
64.612346	13.457142	22.869025	-0.873688	1.253831	2.187217	0.000000	0.122730	0.000000	-0.000007	-0.000001	0.000000	0.000000
65.053306	14.412800	21.533305	-1.301756	1.763763	2.255284	0.000000	0.186283	0.000000	-0.000007	-0.000001	0.000000	0.000000
65.494266	15.770680	19.781669	-1.789298	2.193445	2.351815	0.000000	0.251957	0.000000	-0.000008	-0.000001	0.000000	0.000000
65.940226	17.615981	17.669028	-2.363279	2.524081	2.479484	0.000000	0.320903	0.000000	-0.000009	-0.000001	0.000000	0.000000
66.489286	19.981447	15.305618	-1.919429	1.805793	2.635316	0.000000	0.245891	0.000000	-0.000009	-0.000001	0.000000	0.000000
67.038346	21.781726	13.656139	-1.340000	1.216127	2.748702	0.000000	0.166517	0.000000	-0.000010	-0.000001	0.000000	0.000000
67.587406	22.889654	12.603103	-0.665920	0.713083	2.817630	0.000000	0.084189	0.000000	-0.000010	-0.000001	0.000000	0.000000
68.136466	23.226975	12.071504	0.055197	0.260830	2.840878	0.000000	0.000369	0.000000	-0.000011	-0.000000	0.000000	0.000000
68.435038	23.234095	11.904931	-0.018351	0.265526	2.843204	0.000000	0.007792	0.000000	-0.000011	-0.000000	0.000000	0.000000
68.768372	23.251113	11.737905	-0.032703	0.235552	2.845802	0.000000	0.007792	0.000000	-0.000011	-0.000000	0.000000	0.000000
69.101705	23.277698	11.590861	-0.047054	0.205578	2.848399	0.000000	0.007792	0.000000	-0.000011	-0.000000	0.000000	0.000000
69.436288	23.314005	11.463361	-0.061460	0.175492	2.851006	0.000000	0.007792	0.000000	-0.000011	-0.000000	0.000000	0.000000
69.733611	23.354358	11.366955	-0.135287	0.178459	2.853323	0.000000	0.015248	0.000000	-0.000011	-0.000000	0.000000	0.000000
70.282671	23.101823	11.398604	0.592505	-0.236442	2.838514	0.000000	-0.069113	0.000000	-0.000011	0.000000	0.000000	0.000000
