#ParticleID	Turn	x[m]	xp	y[m]	yp	z[m]	dE[GeV]# s	beta_x	beta_y	alpha_x	alpha_y	D_x	D_y	D_px	D_py	orbit_x	orbit_px	orbit_y	orbit_py
0.300000	11.803352	25.058840	-0.010095	-0.026763	2.618343	0.000000	-0.000076	0.000000	-0.000002	0.000002	0.000000	0.000000
0.601250	11.817124	25.078588	-0.035620	-0.038793	2.618319	0.000000	-0.000076	0.000000	-0.000001	0.000002	0.000000	0.000000
0.898573	11.845796	25.105187	-0.031763	-0.112232	2.618296	0.000000	-0.006497	0.000000	-0.000001	0.000002	0.000000	0.000000
1.339533	12.025815	24.925660	-0.378029	0.517809	2.631725	0.000000	0.067464	0.000000	0.000000	0.000002	0.000000	0.000000
1.780493	12.517647	24.198795	-0.741567	1.124289	2.677905	0.000000	0.142194	0.000000	0.000001	0.000002	0.000000	0.000000
2.221453	13.343761	22.957662	-1.138984	1.679615	2.757365	0.000000	0.218544	0.000000	0.000002	0.000002	0.000000	0.000000
2.662413	14.541900	21.258733	-1.588439	2.158520	2.871007	0.000000	0.297382	0.000000	0.000002	0.000002	0.000000	0.000000
3.108373	16.187521	19.154395	-2.114749	2.540348	3.021988	0.000000	0.380097	0.000000	0.000003	0.000002	0.000000	0.000000
3.657433	18.297802	16.790855	-1.705941	1.789764	3.205411	0.000000	0.287060	0.000000	0.000004	0.000002	0.000000	0.000000
4.206493	19.889933	15.177125	-1.176633	1.166662	3.336277	0.000000	0.188931	0.000000	0.000005	0.000002	0.000000	0.000000
4.755553	20.851455	14.198263	-0.564214	0.626658	3.412263	0.000000	0.087451	0.000000	0.000006	0.000001	0.000000	0.000000
5.304613	21.114450	13.784547	0.088058	0.131289	3.432022	0.000000	-0.015580	0.000000	0.000007	0.000001	0.000000	0.000000
5.603185	21.099035	13.691290	0.018737	0.145037	3.430047	0.000000	-0.006613	0.000000	0.000007	0.000001	0.000000	0.000000
5.936519	21.091811	13.602885	0.002933	0.120179	3.427843	0.000000	-0.006613	0.000000	0.000008	0.000001	0.000000	0.000000
6.269852	21.095124	13.531052	-0.012871	0.095320	3.425638	0.000000	-0.006613	0.000000	0.000008	0.000001	0.000000	0.000000
6.604435	21.109044	13.475615	-0.028734	0.070368	3.423425	0.000000	-0.006613	0.000000	0.000009	0.000001	0.000000	0.000000
6.901758	21.130322	13.440364	-0.098036	0.083310	3.421458	0.000000	0.002326	0.000000	0.000009	0.000001	0.000000	0.000000
7.450818	20.877890	13.609847	0.555068	-0.393811	3.394535	0.000000	-0.100247	0.000000	0.000010	0.000001	0.000000	0.000000
7.999878	19.925656	14.315504	1.168965	-0.898983	3.311700	0.000000	-0.201042	0.000000	0.000010	0.000001	0.000000	0.000000
8.548938	18.340881	15.607596	1.700292	-1.468188	3.174422	0.000000	-0.298270	0.000000	0.000010	0.000000	0.000000	0.000000
9.097998	16.235505	17.578157	2.111519	-2.141969	2.985135	0.000000	-0.390208	0.000000	0.000010	0.000000	0.000000	0.000000
9.543958	14.592977	19.333995	1.584704	-1.778597	2.829422	0.000000	-0.308511	0.000000	0.000010	0.000000	0.000000	0.000000
9.984918	13.398416	20.712449	1.134574	-1.335537	2.710625	0.000000	-0.230811	0.000000	0.000011	0.000001	0.000000	0.000000
10.425878	12.576563	21.671769	0.736279	-0.831710	2.625479	0.000000	-0.155740	0.000000	0.000011	0.000001	0.000000	0.000000
10.866838	12.089869	22.168306	0.371623	-0.290042	2.573014	0.000000	-0.082443	0.000000	0.000011	0.000001	0.000000	0.000000
11.309048	11.915966	22.178944	0.053058	0.210379	2.552612	0.000000	-0.016343	0.000000	0.000012	0.000001	0.000000	0.000000
11.606371	11.891854	22.058005	0.028036	0.196380	2.547753	0.000000	-0.016343	0.000000	0.000012	0.000001	0.000000	0.000000
12.086371	11.884329	21.880328	-0.012359	0.173780	2.539907	0.000000	-0.016343	0.000000	0.000013	0.000001	0.000000	0.000000
12.566371	11.915584	21.724347	-0.052755	0.151180	2.532062	0.000000	-0.016343	0.000000	0.000014	0.000001	0.000000	0.000000
13.046371	11.985619	21.590062	-0.093150	0.128580	2.524216	0.000000	-0.016343	0.000000	0.000014	0.000001	0.000000	0.000000
13.526371	12.094433	21.477474	-0.133546	0.105980	2.516371	0.000000	-0.016343	0.000000	0.000015	0.000001	0.000000	0.000000
14.007621	12.242461	21.386372	-0.174046	0.083321	2.508505	0.000000	-0.016343	0.000000	0.000016	0.000001	0.000000	0.000000
14.304943	12.353397	21.340988	-0.168779	0.016996	2.503645	0.000000	-0.022482	0.000000	0.000016	0.000001	0.000000	0.000000
14.745903	12.660725	21.092442	-0.530818	0.544506	2.509359	0.000000	0.048424	0.000000	0.000017	0.000002	0.000000	0.000000
15.186863	13.296791	20.387865	-0.917110	1.047241	2.546431	0.000000	0.119882	0.000000	0.000018	0.000002	0.000000	0.000000
15.627823	14.290654	19.259313	-1.345301	1.502327	2.615284	0.000000	0.192706	0.000000	0.000019	0.000003	0.000000	0.000000
16.068783	15.687721	17.758134	-1.834956	1.889059	2.716702	0.000000	0.267724	0.000000	0.000020	0.000003	0.000000	0.000000
16.514743	17.575484	15.931134	-2.413203	2.190581	2.853533	0.000000	0.346253	0.000000	0.000022	0.000004	0.000000	0.000000
17.063803	20.000165	13.891205	-1.976712	1.546660	3.019923	0.000000	0.258950	0.000000	0.000024	0.000003	0.000000	0.000000
17.612863	21.865555	12.494098	-1.400597	1.012903	3.137045	0.000000	0.167054	0.000000	0.000025	0.000002	0.000000	0.000000
18.161923	23.039889	11.640299	-0.725550	0.551294	3.202821	0.000000	0.072194	0.000000	0.000026	0.000001	0.000000	0.000000
18.710983	23.440220	11.268995	0.000746	0.128952	3.216086	0.000000	-0.023945	0.000000	0.000027	0.000001	0.000000	0.000000
19.009556	23.480155	11.182523	-0.073269	0.131229	3.211445	0.000000	-0.015544	0.000000	0.000027	0.000001	0.000000	0.000000
19.342889	23.533759	11.105144	-0.087542	0.100908	3.206263	0.000000	-0.015544	0.000000	0.000027	0.000001	0.000000	0.000000
19.676223	23.596878	11.047979	-0.101814	0.070586	3.201082	0.000000	-0.015544	0.000000	0.000027	0.000001	0.000000	0.000000
20.010806	23.670095	11.010792	-0.233415	0.094705	3.195901	0.000000	0.000290	0.000000	0.000027	0.000001	0.000000	0.000000
20.308129	23.812832	10.962577	-0.308865	0.096096	3.195987	0.000000	0.008639	0.000000	0.000028	0.000001	0.000000	0.000000
20.857189	23.741278	11.078931	0.438415	-0.309261	3.174520	0.000000	-0.086717	0.000000	0.000028	-0.000000	0.000000	0.000000
21.406249	22.861338	11.649826	1.154727	-0.736646	3.101044	0.000000	-0.180534	0.000000	0.000028	-0.000001	0.000000	0.000000
21.955309	21.235167	12.715928	1.789475	-1.216500	2.976861	0.000000	-0.271150	0.000000	0.000027	-0.000002	0.000000	0.000000
22.504369	18.977629	14.353172	2.297824	-1.783004	2.804174	0.000000	-0.356956	0.000000	0.000026	-0.000003	0.000000	0.000000
22.950329	17.198376	15.823235	1.705970	-1.499489	2.662275	0.000000	-0.279772	0.000000	0.000024	-0.000002	0.000000	0.000000
23.391289	15.923228	16.995397	1.196755	-1.148600	2.555223	0.000000	-0.206230	0.000000	0.000024	-0.000001	0.000000	0.000000
23.832249	15.071450	17.833788	0.742216	-0.745451	2.480053	0.000000	-0.135037	0.000000	0.000023	-0.000001	0.000000	0.000000
24.273209	14.604128	18.300263	0.321587	-0.308384	2.435907	0.000000	-0.065381	0.000000	0.000023	-0.000000	0.000000	0.000000
24.715418	14.500033	18.373352	-0.048886	0.097597	2.422280	0.000000	-0.002409	0.000000	0.000023	0.000000	0.000000	0.000000
25.012741	14.535214	18.320174	-0.069440	0.081260	2.421564	0.000000	-0.002409	0.000000	0.000023	0.000000	0.000000	0.000000
25.346075	14.589188	18.272105	-0.092483	0.062945	2.420761	0.000000	-0.002409	0.000000	0.000023	0.000000	0.000000	0.000000
25.679408	14.658525	18.236247	-0.115527	0.044630	2.419957	0.000000	-0.002409	0.000000	0.000023	0.000000	0.000000	0.000000
26.013991	14.743271	18.212902	-0.019049	-0.121505	2.419127	0.000000	-0.022035	0.000000	0.000023	0.000000	0.000000	0.000000
26.311314	14.760597	18.290080	-0.003034	-0.182914	2.412575	0.000000	-0.027950	0.000000	0.000023	0.000000	0.000000	0.000000
26.752274	14.945109	18.253068	-0.416986	0.266528	2.415355	0.000000	0.040571	0.000000	0.000024	0.000001	0.000000	0.000000
27.193234	15.501683	17.823539	-0.849989	0.703843	2.448423	0.000000	0.109554	0.000000	0.000024	0.000001	0.000000	0.000000
27.634194	16.455747	17.021034	-1.321825	1.109134	2.512155	0.000000	0.179785	0.000000	0.000025	0.000002	0.000000	0.000000
28.075154	17.850890	15.882068	-1.854052	1.463960	2.607278	0.000000	0.252063	0.000000	0.000026	0.000003	0.000000	0.000000
28.521114	19.775086	14.441301	-2.475958	1.753089	2.736476	0.000000	0.327656	0.000000	0.000027	0.000003	0.000000	0.000000
29.070174	22.220733	12.836105	-1.951915	1.187702	2.893723	0.000000	0.244293	0.000000	0.000029	0.000002	0.000000	0.000000
29.619234	24.011338	11.801953	-1.289997	0.706912	3.003941	0.000000	0.156598	0.000000	0.000030	0.000001	0.000000	0.000000
30.168294	25.020422	11.265183	-0.536961	0.276474	3.065175	0.000000	0.066125	0.000000	0.000030	0.000000	0.000000	0.000000
30.717354	25.176707	11.187564	0.254004	-0.134272	3.076339	0.000000	-0.025521	0.000000	0.000030	-0.000001	0.000000	0.000000
31.015927	25.067967	11.258349	0.175960	-0.132030	3.071118	0.000000	-0.017485	0.000000	0.000030	-0.000000	0.000000	0.000000
31.349260	24.955230	11.356410	0.162251	-0.162154	3.065290	0.000000	-0.017485	0.000000	0.000030	-0.000000	0.000000	0.000000
31.682593	24.851633	11.474554	0.148542	-0.192278	3.059462	0.000000	-0.017485	0.000000	0.000030	-0.000000	0.000000	0.000000
32.017177	24.756838	11.613336	0.134781	-0.222514	3.053612	0.000000	-0.017485	0.000000	0.000030	-0.000000	0.000000	0.000000
32.314499	24.680326	11.753643	0.058084	-0.218681	3.048413	0.000000	-0.009522	0.000000	0.000029	-0.000000	0.000000	0.000000
32.863559	24.193655	12.232953	0.823040	-0.659438	3.018314	0.000000	-0.099956	0.000000	0.000029	-0.000001	0.000000	0.000000
33.412619	22.894078	13.219066	1.529860	-1.147164	2.938976	0.000000	-0.188618	0.000000	0.000028	-0.000002	0.000000	0.000000
33.961679	20.873391	14.782218	2.128618	-1.716600	2.811806	0.000000	-0.273933	0.000000	0.000026	-0.000003	0.000000	0.000000
34.510739	18.274325	17.033750	2.577021	-2.408307	2.639060	0.000000	-0.354390	0.000000	0.000025	-0.000004	0.000000	0.000000
34.956699	16.253390	19.047699	1.970865	-2.088823	2.497353	0.000000	-0.281488	0.000000	0.000023	-0.000003	0.000000	0.000000
35.397659	14.746333	20.713754	1.459772	-1.675043	2.388605	0.000000	-0.212219	0.000000	0.000022	-0.000003	0.000000	0.000000
35.838619	13.659017	21.979758	1.015373	-1.185049	2.309841	0.000000	-0.145367	0.000000	0.000020	-0.000002	0.000000	0.000000
36.279579	12.941767	22.788109	0.617362	-0.641137	2.260162	0.000000	-0.080171	0.000000	0.000020	-0.000002	0.000000	0.000000
36.721789	12.561117	23.102341	0.278250	-0.124751	2.238977	0.000000	-0.021377	0.000000	0.000019	-0.000001	0.000000	0.000000
37.019112	12.403239	23.180410	0.252748	-0.137821	2.232622	0.000000	-0.021377	0.000000	0.000019	-0.000001	0.000000	0.000000
37.352445	12.244271	23.277175	0.224156	-0.152474	2.225496	0.000000	-0.021377	0.000000	0.000018	-0.000001	0.000000	0.000000
37.685779	12.104364	23.383709	0.195565	-0.167127	2.218371	0.000000	-0.021377	0.000000	0.000018	-0.000001	0.000000	0.000000
38.020362	11.983101	23.500466	0.166866	-0.181836	2.211219	0.000000	-0.021377	0.000000	0.000017	-0.000001	0.000000	0.000000
38.317684	11.891457	23.612480	0.170520	-0.252802	2.204863	0.000000	-0.026784	0.000000	0.000017	-0.000001	0.000000	0.000000
38.758644	11.892642	23.573877	-0.173217	0.340011	2.206976	0.000000	0.036374	0.000000	0.000016	-0.000001	0.000000	0.000000
39.199604	12.199306	23.017311	-0.524868	0.917354	2.237003	0.000000	0.099946	0.000000	0.000016	-0.000000	0.000000	0.000000
39.640564	12.825461	21.968106	-0.900499	1.452958	2.295287	0.000000	0.164656	0.000000	0.000016	-0.000000	0.000000	0.000000
40.081524	13.799714	20.473999	-1.317272	1.922453	2.382492	0.000000	0.231241	0.000000	0.000016	0.000000	0.000000	0.000000
40.527484	15.184152	18.580390	-1.798054	2.305765	2.501081	0.000000	0.300865	0.000000	0.000016	0.000001	0.000000	0.000000
41.076544	16.950726	16.452369	-1.400351	1.592866	2.645751	0.000000	0.225334	0.000000	0.000017	0.000000	0.000000	0.000000
41.625604	18.223340	15.040674	-0.903733	0.993422	2.747790	0.000000	0.145806	0.000000	0.000017	-0.000000	0.000000	0.000000
42.174664	18.912103	14.244755	-0.343281	0.464738	2.805389	0.000000	0.063691	0.000000	0.000016	-0.000001	0.000000	0.000000
42.723724	18.968364	14.007918	0.241419	-0.030844	2.817524	0.000000	-0.019553	0.000000	0.000016	-0.000001	0.000000	0.000000
43.022297	18.858665	14.010848	0.175545	-0.015563	2.813885	0.000000	-0.012192	0.000000	0.000015	-0.000001	0.000000	0.000000
43.502297	18.702735	14.042237	0.149308	-0.049831	2.808033	0.000000	-0.012192	0.000000	0.000015	-0.000001	0.000000	0.000000
43.982297	18.571993	14.106523	0.123072	-0.084098	2.802181	0.000000	-0.012192	0.000000	0.000014	-0.000001	0.000000	0.000000
44.462297	18.466438	14.203706	0.096835	-0.118366	2.796330	0.000000	-0.012192	0.000000	0.000014	-0.000001	0.000000	0.000000
44.942297	18.386070	14.333785	0.070598	-0.152633	2.790478	0.000000	-0.012192	0.000000	0.000013	-0.000001	0.000000	0.000000
45.423547	18.331006	14.497049	-0.046529	-0.115163	2.784628	0.000000	0.001604	0.000000	0.000012	-0.000001	0.000000	0.000000
45.720870	18.363507	14.571709	-0.110760	-0.097875	2.785106	0.000000	0.008881	0.000000	0.000012	-0.000001	0.000000	0.000000
46.269930	18.175941	14.960946	0.450350	-0.615226	2.767416	0.000000	-0.073223	0.000000	0.000011	-0.000002	0.000000	0.000000
46.818990	17.386109	15.938884	0.979650	-1.176399	2.704938	0.000000	-0.154028	0.000000	0.000010	-0.000002	0.000000	0.000000
47.368050	16.049801	17.575177	1.439752	-1.821364	2.598779	0.000000	-0.232101	0.000000	0.000009	-0.000002	0.000000	0.000000
47.917110	14.261408	19.986376	1.798157	-2.596061	2.450822	0.000000	-0.306057	0.000000	0.000008	-0.000003	0.000000	0.000000
48.363070	12.869789	22.130048	1.333402	-2.190601	2.329623	0.000000	-0.237771	0.000000	0.000007	-0.000002	0.000000	0.000000
48.804030	11.874024	23.846335	0.933338	-1.686748	2.239233	0.000000	-0.172589	0.000000	0.000006	-0.000002	0.000000	0.000000
49.244990	11.211019	25.082596	0.575915	-1.106150	2.177126	0.000000	-0.109374	0.000000	0.000005	-0.000002	0.000000	0.000000
49.685950	10.850483	25.782582	0.244803	-0.475222	2.142593	0.000000	-0.047404	0.000000	0.000004	-0.000002	0.000000	0.000000
50.128160	10.776065	25.914159	-0.048815	0.113732	2.135253	0.000000	0.008790	0.000000	0.000003	-0.000002	0.000000	0.000000
50.425482	10.813315	25.849984	-0.076471	0.102110	2.137867	0.000000	0.008790	0.000000	0.000003	-0.000002	0.000000	0.000000
50.758816	10.874632	25.786254	-0.107478	0.089080	2.140798	0.000000	0.008790	0.000000	0.000002	-0.000002	0.000000	0.000000
51.092149	10.956619	25.731210	-0.138484	0.076051	2.143729	0.000000	0.008790	0.000000	0.000001	-0.000002	0.000000	0.000000
51.426732	11.059477	25.685216	-0.079885	-0.145398	2.146649	0.000000	-0.008625	0.000000	0.000001	-0.000002	0.000000	0.000000
51.724055	11.115025	25.775191	-0.079684	-0.220427	2.144085	0.000000	-0.013882	0.000000	0.000000	-0.000002	0.000000	0.000000
52.165015	11.330459	25.682806	-0.410726	0.429139	2.151552	0.000000	0.047777	0.000000	-0.000001	-0.000002	0.000000	0.000000
52.605975	11.844985	25.024009	-0.760534	1.059181	2.186302	0.000000	0.109981	0.000000	-0.000001	-0.000002	0.000000	0.000000
53.046935	12.682112	23.828776	-1.145088	1.641030	2.248731	0.000000	0.173437	0.000000	-0.000002	-0.000002	0.000000	0.000000
53.487895	13.880085	22.151489	-1.581958	2.148214	2.339551	0.000000	0.238869	0.000000	-0.000003	-0.000002	0.000000	0.000000
53.933855	15.514175	20.043387	-2.095326	2.558994	2.461300	0.000000	0.307420	0.000000	-0.000004	-0.000002	0.000000	0.000000
54.482915	17.618086	17.671163	-1.713833	1.787026	2.609913	0.000000	0.233114	0.000000	-0.000005	-0.000002	0.000000	0.000000
55.031975	19.233713	16.072202	-1.211283	1.142344	2.716530	0.000000	0.154673	0.000000	-0.000006	-0.000002	0.000000	0.000000
55.581035	20.246937	15.132612	-0.623174	0.579028	2.779260	0.000000	0.073488	0.000000	-0.000007	-0.000002	0.000000	0.000000
56.130095	20.586189	14.785469	0.008953	0.056955	2.796991	0.000000	-0.009000	0.000000	-0.000008	-0.000001	0.000000	0.000000
56.428668	20.617303	14.734473	-0.059371	0.075211	2.796486	0.000000	-0.001692	0.000000	-0.000008	-0.000001	0.000000	0.000000
56.762001	20.662292	14.691916	-0.075596	0.052460	2.795923	0.000000	-0.001692	0.000000	-0.000009	-0.000001	0.000000	0.000000
57.095334	20.718097	14.664526	-0.091820	0.029710	2.795360	0.000000	-0.001692	0.000000	-0.000009	-0.000001	0.000000	0.000000
57.429918	20.784989	14.652286	-0.108106	0.006874	2.794794	0.000000	-0.001692	0.000000	-0.000009	-0.000001	0.000000	0.000000
57.727240	20.853576	14.654232	-0.177069	0.024872	2.794292	0.000000	0.005610	0.000000	-0.000010	-0.000001	0.000000	0.000000
58.276300	20.692295	14.908249	0.469069	-0.490243	2.774730	0.000000	-0.076761	0.000000	-0.000010	-0.000001	0.000000	0.000000
58.825360	19.835554	15.743665	1.082073	-1.040278	2.710250	0.000000	-0.157771	0.000000	-0.000011	-0.000001	0.000000	0.000000
59.374420	18.343867	17.219985	1.618646	-1.664409	2.601994	0.000000	-0.235982	0.000000	-0.000011	-0.000000	0.000000	0.000000
59.923480	16.322600	19.442365	2.040885	-2.407092	2.451883	0.000000	-0.310007	0.000000	-0.000011	0.000000	0.000000	0.000000
60.369440	14.740622	21.417583	1.519032	-2.003349	2.328924	0.000000	-0.241716	0.000000	-0.000011	-0.000000	0.000000	0.000000
60.810400	13.602936	22.972673	1.070778	-1.509833	2.236787	0.000000	-0.176575	0.000000	-0.000011	-0.000001	0.000000	0.000000
61.251360	12.837589	24.060450	0.671444	-0.947621	2.172905	0.000000	-0.113445	0.000000	-0.000012	-0.000001	0.000000	0.000000
61.692320	12.409616	24.631423	0.302787	-0.342292	2.136549	0.000000	-0.051608	0.000000	-0.000012	-0.000001	0.000000	0.000000
62.134530	12.299518	24.659067	-0.021973	0.218077	2.127311	0.000000	0.004425	0.000000	-0.000013	-0.000001	0.000000	0.000000
62.431853	12.319775	24.533143	-0.046159	0.205446	2.128627	0.000000	0.004425	0.000000	-0.000013	-0.000001	0.000000	0.000000
62.765186	12.359586	24.400899	-0.073273	0.191286	2.130102	0.000000	0.004425	0.000000	-0.000014	-0.000001	0.000000	0.000000
63.098520	12.417472	24.278096	-0.100387	0.177125	2.131578	0.000000	0.004425	0.000000	-0.000014	-0.000001	0.000000	0.000000
63.433103	12.493754	24.164325	-0.127604	0.162912	2.133059	0.000000	0.004425	0.000000	-0.000015	-0.000001	0.000000	0.000000
63.730426	12.576824	24.071206	-0.120942	0.091242	2.134375	0.000000	-0.000810	0.000000	-0.000015	-0.000001	0.000000	0.000000
64.171386	12.843692	23.725658	-0.486551	0.689402	2.147562	0.000000	0.060673	0.000000	-0.000016	-0.000002	0.000000	0.000000
64.612346	13.441544	22.864450	-0.874389	1.256195	2.187986	0.000000	0.122847	0.000000	-0.000017	-0.000002	0.000000	0.000000
65.053306	14.397694	21.526767	-1.302176	1.765832	2.256110	0.000000	0.186420	0.000000	-0.000018	-0.000003	0.000000	0.000000
65.494266	15.755826	19.773472	-1.789455	2.195125	2.352708	0.000000	0.252117	0.000000	-0.000019	-0.000003	0.000000	0.000000
65.940226	17.601152	17.659537	-2.363180	2.525292	2.480453	0.000000	0.321086	0.000000	-0.000020	-0.000004	0.000000	0.000000
66.489286	19.966858	15.294786	-1.919964	1.807039	2.636378	0.000000	0.246041	0.000000	-0.000022	-0.000003	0.000000	0.000000
67.038346	21.768056	13.643879	-1.341132	1.217498	2.749837	0.000000	0.166632	0.000000	-0.000024	-0.000002	0.000000	0.000000
67.587406	22.877520	12.589225	-0.667568	0.714677	2.818819	0.000000	0.084267	0.000000	-0.000025	-0.000001	0.000000	0.000000
68.136466	23.216881	12.055703	0.053148	0.262760	2.842099	0.000000	0.000407	0.000000	-0.000025	-0.000001	0.000000	0.000000
68.435038	23.225215	11.888019	-0.020387	0.267355	2.844439	0.000000	0.007834	0.000000	-0.000025	-0.000001	0.000000	0.000000
68.768372	23.243593	11.719796	-0.034745	0.237312	2.847050	0.000000	0.007834	0.000000	-0.000026	-0.000001	0.000000	0.000000
69.101705	23.271542	11.571603	-0.049103	0.207268	2.849662	0.000000	0.007834	0.000000	-0.000026	-0.000001	0.000000	0.000000
69.436288	23.309222	11.442996	-0.063515	0.177112	2.852283	0.000000	0.007834	0.000000	-0.000026	-0.000001	0.000000	0.000000
69.733611	23.350799	11.345645	-0.137347	0.179964	2.854613	0.000000	0.015295	0.000000	-0.000026	-0.000001	0.000000	0.000000
70.282671	23.100572	11.375309	0.590387	-0.234309	2.839818	0.000000	-0.069108	0.000000	-0.000026	0.000000	0.000000	0.000000
