#ParticleID	Turn	x[m]	xp	y[m]	yp	z[m]	dE[GeV]# s	beta_x	beta_y	alpha_x	alpha_y	D_x	D_y	D_px	D_py	orbit_x	orbit_px	orbit_y	orbit_py
0.300000	11.806658	25.046454	-0.010367	-0.026933	2.618233	0.000000	-0.000035	0.000000	-0.000001	0.000002	0.000000	0.000000
0.601250	11.820591	25.066307	-0.035885	-0.038970	2.618222	0.000000	-0.000035	0.000000	-0.000001	0.000002	0.000000	0.000000
0.898573	11.849418	25.093012	-0.032012	-0.112384	2.618211	0.000000	-0.006456	0.000000	-0.000000	0.000002	0.000000	0.000000
1.339533	12.029695	24.913762	-0.378367	0.517338	2.631658	0.000000	0.067504	0.000000	0.000001	0.000002	0.000000	0.000000
1.780493	12.521869	24.187445	-0.742009	1.123521	2.677855	0.000000	0.142232	0.000000	0.000001	0.000002	0.000000	0.000000
2.221453	13.348427	22.947108	-1.139551	1.678585	2.757331	0.000000	0.218580	0.000000	0.000002	0.000002	0.000000	0.000000
2.662413	14.547130	21.249186	-1.589156	2.157275	2.870990	0.000000	0.297418	0.000000	0.000003	0.000002	0.000000	0.000000
3.108373	16.193471	19.146034	-2.115651	2.538943	3.021986	0.000000	0.380133	0.000000	0.000004	0.000002	0.000000	0.000000
3.657433	18.304659	16.783845	-1.706681	1.788695	3.205430	0.000000	0.287095	0.000000	0.000005	0.000002	0.000000	0.000000
4.206493	19.897490	15.171140	-1.177160	1.165852	3.336315	0.000000	0.188966	0.000000	0.000006	0.000002	0.000000	0.000000
4.755553	20.859455	14.193052	-0.564490	0.626049	3.412320	0.000000	0.087484	0.000000	0.000006	0.000001	0.000000	0.000000
5.304613	21.122605	13.779914	0.088053	0.130839	3.432096	0.000000	-0.015549	0.000000	0.000007	0.000001	0.000000	0.000000
5.603185	21.107204	13.686935	0.018717	0.144571	3.430131	0.000000	-0.006582	0.000000	0.000007	0.000001	0.000000	0.000000
5.936519	21.099992	13.598842	0.002919	0.119708	3.427936	0.000000	-0.006582	0.000000	0.000008	0.000001	0.000000	0.000000
6.269852	21.103312	13.527325	-0.012879	0.094844	3.425742	0.000000	-0.006582	0.000000	0.000008	0.000001	0.000000	0.000000
6.604435	21.117236	13.472208	-0.028736	0.069888	3.423539	0.000000	-0.006582	0.000000	0.000008	0.000001	0.000000	0.000000
6.901758	21.138514	13.437243	-0.098055	0.082818	3.421582	0.000000	0.002357	0.000000	0.000009	0.000001	0.000000	0.000000
7.450818	20.885952	13.607222	0.555322	-0.394226	3.394676	0.000000	-0.100220	0.000000	0.000009	0.000001	0.000000	0.000000
7.999878	19.933296	14.313305	1.169473	-0.899350	3.311854	0.000000	-0.201019	0.000000	0.000010	0.000001	0.000000	0.000000
8.548938	18.347839	15.605785	1.701019	-1.468532	3.174587	0.000000	-0.298253	0.000000	0.000010	0.000000	0.000000	0.000000
9.097998	16.241567	17.576723	2.112413	-2.142315	2.985308	0.000000	-0.390197	0.000000	0.000010	-0.000000	0.000000	0.000000
9.543958	14.598327	19.332905	1.585413	-1.779021	2.829601	0.000000	-0.308495	0.000000	0.000010	0.000000	0.000000	0.000000
9.984918	13.403210	20.711760	1.135130	-1.336018	2.710813	0.000000	-0.230790	0.000000	0.000010	0.000000	0.000000	0.000000
10.425878	12.580923	21.671522	0.736709	-0.832228	2.625677	0.000000	-0.155714	0.000000	0.000010	0.000001	0.000000	0.000000
10.866838	12.093898	22.168523	0.371946	-0.290572	2.573225	0.000000	-0.082411	0.000000	0.000011	0.000001	0.000000	0.000000
11.309048	11.919752	22.179626	0.053298	0.209859	2.552838	0.000000	-0.016307	0.000000	0.000011	0.000001	0.000000	0.000000
11.606371	11.895495	22.058996	0.028284	0.195863	2.547990	0.000000	-0.016307	0.000000	0.000012	0.000001	0.000000	0.000000
12.086371	11.887727	21.881812	-0.012100	0.173269	2.540162	0.000000	-0.016307	0.000000	0.000012	0.000001	0.000000	0.000000
12.566371	11.918728	21.726320	-0.052484	0.150674	2.532334	0.000000	-0.016307	0.000000	0.000013	0.000001	0.000000	0.000000
13.046371	11.988496	21.592518	-0.092867	0.128079	2.524506	0.000000	-0.016307	0.000000	0.000013	0.000001	0.000000	0.000000
13.526371	12.097033	21.480407	-0.133251	0.105485	2.516678	0.000000	-0.016307	0.000000	0.000014	0.000001	0.000000	0.000000
14.007621	12.244772	21.389780	-0.173740	0.082831	2.508830	0.000000	-0.016307	0.000000	0.000015	0.000001	0.000000	0.000000
14.304943	12.355523	21.344686	-0.168459	0.016500	2.503981	0.000000	-0.022447	0.000000	0.000015	0.000001	0.000000	0.000000
14.745903	12.662588	21.096531	-0.530537	0.544120	2.509712	0.000000	0.048469	0.000000	0.000016	0.000002	0.000000	0.000000
15.186863	13.298418	20.392238	-0.916853	1.046983	2.546806	0.000000	0.119936	0.000000	0.000016	0.000002	0.000000	0.000000
15.627823	14.292061	19.263853	-1.345058	1.502208	2.615685	0.000000	0.192769	0.000000	0.000017	0.000002	0.000000	0.000000
16.068783	15.688915	17.762715	-1.834714	1.889085	2.717133	0.000000	0.267798	0.000000	0.000019	0.000003	0.000000	0.000000
16.514743	17.576459	15.935626	-2.412952	2.190752	2.854001	0.000000	0.346339	0.000000	0.000020	0.000003	0.000000	0.000000
17.063803	20.000824	13.895571	-1.976390	1.546721	3.020433	0.000000	0.259020	0.000000	0.000022	0.000003	0.000000	0.000000
17.612863	21.865830	12.498454	-1.400226	1.012860	3.137589	0.000000	0.167107	0.000000	0.000023	0.000002	0.000000	0.000000
18.161923	23.039743	11.644762	-0.725157	0.551142	3.203390	0.000000	0.072230	0.000000	0.000024	0.000001	0.000000	0.000000
18.710983	23.439642	11.273689	0.001134	0.128681	3.216670	0.000000	-0.023929	0.000000	0.000024	0.000000	0.000000	0.000000
19.009556	23.479346	11.187367	-0.072881	0.130984	3.212034	0.000000	-0.015526	0.000000	0.000025	0.000001	0.000000	0.000000
19.342889	23.532691	11.110147	-0.087153	0.100678	3.206858	0.000000	-0.015526	0.000000	0.000025	0.000001	0.000000	0.000000
19.676223	23.595550	11.053130	-0.101425	0.070371	3.201683	0.000000	-0.015526	0.000000	0.000025	0.000001	0.000000	0.000000
20.010806	23.668507	11.016082	-0.233018	0.094531	3.196508	0.000000	0.000311	0.000000	0.000025	0.000001	0.000000	0.000000
20.308129	23.811008	10.967966	-0.308463	0.095951	3.196600	0.000000	0.008662	0.000000	0.000025	0.000001	0.000000	0.000000
20.857189	23.739047	11.084562	0.438748	-0.309560	3.175141	0.000000	-0.086714	0.000000	0.000025	-0.000000	0.000000	0.000000
21.406249	22.858790	11.655880	1.154968	-0.737121	3.101660	0.000000	-0.180551	0.000000	0.000025	-0.000001	0.000000	0.000000
21.955309	21.232413	12.722615	1.789607	-1.217185	2.977463	0.000000	-0.271187	0.000000	0.000024	-0.000002	0.000000	0.000000
22.504369	18.974796	14.360748	2.297836	-1.783947	2.804750	0.000000	-0.357011	0.000000	0.000023	-0.000002	0.000000	0.000000
22.950329	17.195510	15.831573	1.706034	-1.500250	2.662829	0.000000	-0.279814	0.000000	0.000022	-0.000002	0.000000	0.000000
23.391289	15.920282	17.004314	1.196872	-1.149145	2.555763	0.000000	-0.206257	0.000000	0.000022	-0.000001	0.000000	0.000000
23.832249	15.068375	17.843081	0.742392	-0.745756	2.480583	0.000000	-0.135050	0.000000	0.000021	-0.000001	0.000000	0.000000
24.273209	14.600869	18.309713	0.321830	-0.308435	2.436435	0.000000	-0.065381	0.000000	0.000021	-0.000000	0.000000	0.000000
24.715418	14.496526	18.382733	-0.048572	0.097780	2.422811	0.000000	-0.002396	0.000000	0.000021	0.000000	0.000000	0.000000
25.012741	14.531521	18.329444	-0.069131	0.081451	2.422098	0.000000	-0.002396	0.000000	0.000021	0.000000	0.000000	0.000000
25.346075	14.585291	18.281245	-0.092179	0.063145	2.421299	0.000000	-0.002396	0.000000	0.000021	0.000000	0.000000	0.000000
25.679408	14.654427	18.245251	-0.115227	0.044838	2.420500	0.000000	-0.002396	0.000000	0.000021	0.000000	0.000000	0.000000
26.013991	14.738975	18.221764	-0.018790	-0.121361	2.419674	0.000000	-0.022026	0.000000	0.000021	0.000000	0.000000	0.000000
26.311314	14.756148	18.298853	-0.002790	-0.182783	2.413125	0.000000	-0.027943	0.000000	0.000021	0.000000	0.000000	0.000000
26.752274	14.940396	18.261622	-0.416630	0.266894	2.415911	0.000000	0.040592	0.000000	0.000021	0.000001	0.000000	0.000000
27.193234	15.496601	17.831671	-0.849504	0.704428	2.448991	0.000000	0.109590	0.000000	0.000022	0.000001	0.000000	0.000000
27.634194	16.450173	17.028563	-1.321190	1.109912	2.512742	0.000000	0.179835	0.000000	0.000022	0.000002	0.000000	0.000000
28.075154	17.844679	15.888839	-1.853237	1.464894	2.607890	0.000000	0.252129	0.000000	0.000023	0.000002	0.000000	0.000000
28.521114	19.768054	14.447185	-2.474925	1.754137	2.737122	0.000000	0.327738	0.000000	0.000024	0.000003	0.000000	0.000000
29.070174	22.212665	12.840971	-1.951072	1.188518	2.894409	0.000000	0.244354	0.000000	0.000026	0.000002	0.000000	0.000000
29.619234	24.002477	11.806022	-1.289404	0.707554	3.004654	0.000000	0.156636	0.000000	0.000027	0.000001	0.000000	0.000000
30.168294	25.011066	11.268622	-0.536660	0.276988	3.065902	0.000000	0.066139	0.000000	0.000027	0.000000	0.000000	0.000000
30.717354	25.167192	11.190491	0.253992	-0.133849	3.077067	0.000000	-0.025530	0.000000	0.000027	-0.000001	0.000000	0.000000
31.015927	25.058448	11.261016	0.175966	-0.131590	3.071844	0.000000	-0.017492	0.000000	0.000027	-0.000000	0.000000	0.000000
31.349260	24.945709	11.358780	0.162251	-0.161703	3.066014	0.000000	-0.017492	0.000000	0.000027	-0.000000	0.000000	0.000000
31.682593	24.842112	11.476620	0.148537	-0.191816	3.060183	0.000000	-0.017492	0.000000	0.000027	-0.000000	0.000000	0.000000
32.017177	24.747322	11.615090	0.134772	-0.222042	3.054331	0.000000	-0.017492	0.000000	0.000026	-0.000000	0.000000	0.000000
32.314499	24.670817	11.755113	0.058093	-0.218195	3.049130	0.000000	-0.009527	0.000000	0.000026	-0.000000	0.000000	0.000000
32.863559	24.184309	12.233901	0.822736	-0.658966	3.019022	0.000000	-0.099984	0.000000	0.000026	-0.000001	0.000000	0.000000
33.412619	22.885229	13.219488	1.529264	-1.146673	2.939662	0.000000	-0.188668	0.000000	0.000025	-0.000002	0.000000	0.000000
33.961679	20.865338	14.782075	2.127773	-1.716055	2.812459	0.000000	-0.274006	0.000000	0.000024	-0.000003	0.000000	0.000000
34.510739	18.267311	17.032961	2.575986	-2.407669	2.639667	0.000000	-0.354483	0.000000	0.000022	-0.000004	0.000000	0.000000
34.956699	16.247198	19.046322	1.970049	-2.088149	2.497922	0.000000	-0.281565	0.000000	0.000020	-0.000003	0.000000	0.000000
35.397659	14.740779	20.711778	1.459136	-1.674363	2.389143	0.000000	-0.212282	0.000000	0.000019	-0.000003	0.000000	0.000000
35.838619	13.653956	21.977192	1.014886	-1.184396	2.310354	0.000000	-0.145417	0.000000	0.000018	-0.000002	0.000000	0.000000
36.279579	12.937077	22.784989	0.617004	-0.640539	2.260656	0.000000	-0.080207	0.000000	0.000017	-0.000002	0.000000	0.000000
36.721789	12.556693	23.098726	0.277994	-0.124228	2.239458	0.000000	-0.021403	0.000000	0.000017	-0.000001	0.000000	0.000000
37.019112	12.398969	23.176484	0.252486	-0.137299	2.233095	0.000000	-0.021403	0.000000	0.000016	-0.000001	0.000000	0.000000
37.352445	12.240178	23.272901	0.223888	-0.151952	2.225961	0.000000	-0.021403	0.000000	0.000016	-0.000001	0.000000	0.000000
37.685779	12.100452	23.379087	0.195290	-0.166606	2.218827	0.000000	-0.021403	0.000000	0.000016	-0.000001	0.000000	0.000000
38.020362	11.979375	23.495495	0.166585	-0.181314	2.211666	0.000000	-0.021403	0.000000	0.000015	-0.000001	0.000000	0.000000
38.317684	11.887900	23.607199	0.170225	-0.252269	2.205303	0.000000	-0.026810	0.000000	0.000015	-0.000001	0.000000	0.000000
38.758644	11.889309	23.568190	-0.173434	0.340397	2.207407	0.000000	0.036359	0.000000	0.000014	-0.000001	0.000000	0.000000
39.199604	12.196134	23.011356	-0.525017	0.917575	2.237430	0.000000	0.099941	0.000000	0.000014	-0.000000	0.000000	0.000000
39.640564	12.822393	21.962032	-0.900587	1.453004	2.295714	0.000000	0.164662	0.000000	0.000014	-0.000000	0.000000	0.000000
40.081524	13.796697	20.467963	-1.317301	1.922322	2.382924	0.000000	0.231259	0.000000	0.000014	0.000000	0.000000	0.000000
40.527484	15.181136	18.574549	-1.798028	2.305462	2.501524	0.000000	0.300895	0.000000	0.000014	0.000001	0.000000	0.000000
41.076544	16.947750	16.446770	-1.400448	1.592725	2.646206	0.000000	0.225349	0.000000	0.000015	0.000000	0.000000	0.000000
41.625604	18.220537	15.035146	-0.903948	0.993434	2.748250	0.000000	0.145806	0.000000	0.000015	-0.000000	0.000000	0.000000
42.174664	18.909593	14.239131	-0.343598	0.464902	2.805844	0.000000	0.063676	0.000000	0.000014	-0.000001	0.000000	0.000000
42.723724	18.966248	14.002025	0.241023	-0.030515	2.817967	0.000000	-0.019582	0.000000	0.000014	-0.000001	0.000000	0.000000
43.022297	18.856783	14.004770	0.175154	-0.015258	2.814319	0.000000	-0.012220	0.000000	0.000013	-0.000001	0.000000	0.000000
43.502297	18.701228	14.035873	0.148918	-0.049540	2.808454	0.000000	-0.012220	0.000000	0.000013	-0.000001	0.000000	0.000000
43.982297	18.570860	14.099887	0.122682	-0.083822	2.802588	0.000000	-0.012220	0.000000	0.000012	-0.000001	0.000000	0.000000
44.462297	18.465679	14.196812	0.096446	-0.118104	2.796723	0.000000	-0.012220	0.000000	0.000012	-0.000001	0.000000	0.000000
44.942297	18.385684	14.326648	0.070210	-0.152386	2.790858	0.000000	-0.012220	0.000000	0.000011	-0.000001	0.000000	0.000000
45.423547	18.330992	14.489681	-0.046916	-0.114967	2.784995	0.000000	0.001578	0.000000	0.000010	-0.000001	0.000000	0.000000
45.720870	18.363724	14.564227	-0.111148	-0.097708	2.785464	0.000000	0.008855	0.000000	0.000010	-0.000001	0.000000	0.000000
46.269930	18.176577	14.953156	0.449980	-0.614828	2.767758	0.000000	-0.073260	0.000000	0.000009	-0.000001	0.000000	0.000000
46.818990	17.387129	15.930516	0.979324	-1.175740	2.705256	0.000000	-0.154076	0.000000	0.000009	-0.000002	0.000000	0.000000
47.368050	16.051144	17.565923	1.439494	-1.820399	2.599068	0.000000	-0.232158	0.000000	0.000008	-0.000002	0.000000	0.000000
47.917110	14.262988	19.975863	1.797984	-2.594720	2.451077	0.000000	-0.306123	0.000000	0.000006	-0.000002	0.000000	0.000000
48.363070	12.871527	22.118441	1.333219	-2.189499	2.329850	0.000000	-0.237831	0.000000	0.000006	-0.000002	0.000000	0.000000
48.804030	11.875932	23.833880	0.933135	-1.685934	2.239435	0.000000	-0.172644	0.000000	0.000005	-0.000002	0.000000	0.000000
49.244990	11.213118	25.069564	0.575683	-1.105661	2.177305	0.000000	-0.109423	0.000000	0.000004	-0.000002	0.000000	0.000000
49.685950	10.852803	25.769270	0.244532	-0.475080	2.142751	0.000000	-0.047449	0.000000	0.000003	-0.000002	0.000000	0.000000
50.128160	10.778647	25.900879	-0.049131	0.113552	2.135392	0.000000	0.008749	0.000000	0.000002	-0.000002	0.000000	0.000000
50.425482	10.816083	25.836813	-0.076782	0.101924	2.137994	0.000000	0.008749	0.000000	0.000002	-0.000002	0.000000	0.000000
50.758816	10.877605	25.773209	-0.107782	0.088889	2.140911	0.000000	0.008749	0.000000	0.000001	-0.000002	0.000000	0.000000
51.092149	10.959792	25.718295	-0.138782	0.075853	2.143827	0.000000	0.008749	0.000000	0.000001	-0.000002	0.000000	0.000000
51.426732	11.062847	25.672435	-0.080149	-0.145499	2.146733	0.000000	-0.008667	0.000000	0.000000	-0.000002	0.000000	0.000000
51.724055	11.118550	25.762471	-0.079931	-0.220503	2.144157	0.000000	-0.013925	0.000000	-0.000000	-0.000002	0.000000	0.000000
52.165015	11.334239	25.670301	-0.411060	0.428729	2.151605	0.000000	0.047736	0.000000	-0.000001	-0.000002	0.000000	0.000000
52.605975	11.849103	25.012007	-0.760969	1.058455	2.186338	0.000000	0.109941	0.000000	-0.000002	-0.000002	0.000000	0.000000
53.046935	12.686666	23.817542	-1.145645	1.640021	2.248750	0.000000	0.173398	0.000000	-0.000003	-0.000002	0.000000	0.000000
53.487895	13.885192	22.141253	-1.582661	2.146968	2.339553	0.000000	0.238830	0.000000	-0.000003	-0.000002	0.000000	0.000000
53.933855	15.519988	20.034347	-2.096210	2.557568	2.461284	0.000000	0.307381	0.000000	-0.000004	-0.000002	0.000000	0.000000
54.482915	17.624788	17.663489	-1.714558	1.785952	2.609876	0.000000	0.233076	0.000000	-0.000005	-0.000002	0.000000	0.000000
55.031975	19.241101	16.065550	-1.211799	1.141545	2.716472	0.000000	0.154636	0.000000	-0.000006	-0.000002	0.000000	0.000000
55.581035	20.254759	15.126713	-0.623444	0.578448	2.779183	0.000000	0.073454	0.000000	-0.000007	-0.000001	0.000000	0.000000
56.130095	20.594163	14.780107	0.008948	0.056552	2.796896	0.000000	-0.009032	0.000000	-0.000008	-0.000001	0.000000	0.000000
56.428668	20.625290	14.729361	-0.059391	0.074788	2.796381	0.000000	-0.001723	0.000000	-0.000008	-0.000001	0.000000	0.000000
56.762001	20.670291	14.687088	-0.075610	0.052031	2.795807	0.000000	-0.001723	0.000000	-0.000008	-0.000001	0.000000	0.000000
57.095334	20.726103	14.659986	-0.091828	0.029274	2.795233	0.000000	-0.001723	0.000000	-0.000009	-0.000001	0.000000	0.000000
57.429918	20.792999	14.648040	-0.108107	0.006432	2.794657	0.000000	-0.001723	0.000000	-0.000009	-0.000001	0.000000	0.000000
57.727240	20.861585	14.650250	-0.177086	0.024414	2.794145	0.000000	0.005578	0.000000	-0.000010	-0.000001	0.000000	0.000000
58.276300	20.700176	14.904711	0.469319	-0.490597	2.774568	0.000000	-0.076788	0.000000	-0.000010	-0.000001	0.000000	0.000000
58.825360	19.843021	15.740471	1.082572	-1.040553	2.710074	0.000000	-0.157792	0.000000	-0.000011	-0.000001	0.000000	0.000000
59.374420	18.350665	17.217059	1.619359	-1.664625	2.601807	0.000000	-0.235997	0.000000	-0.000011	-0.000000	0.000000	0.000000
59.923480	16.328520	19.439650	2.041761	-2.407264	2.451689	0.000000	-0.310017	0.000000	-0.000011	0.000000	0.000000	0.000000
60.369440	14.745843	21.415070	1.519727	-2.003627	2.328725	0.000000	-0.241731	0.000000	-0.000011	-0.000000	0.000000	0.000000
60.810400	13.607612	22.970448	1.071324	-1.510205	2.236580	0.000000	-0.176595	0.000000	-0.000011	-0.000000	0.000000	0.000000
61.251360	12.841839	24.058589	0.671867	-0.948069	2.172688	0.000000	-0.113471	0.000000	-0.000011	-0.000001	0.000000	0.000000
61.692320	12.413539	24.629983	0.303106	-0.342796	2.136319	0.000000	-0.051639	0.000000	-0.000012	-0.000001	0.000000	0.000000
62.134530	12.303199	24.658088	-0.021734	0.217543	2.127067	0.000000	0.004388	0.000000	-0.000012	-0.000001	0.000000	0.000000
62.431853	12.323312	24.532481	-0.045912	0.204915	2.128372	0.000000	0.004388	0.000000	-0.000012	-0.000001	0.000000	0.000000
62.765186	12.362955	24.400591	-0.073018	0.190757	2.129835	0.000000	0.004388	0.000000	-0.000013	-0.000001	0.000000	0.000000
63.098520	12.420669	24.278139	-0.100124	0.176599	2.131298	0.000000	0.004388	0.000000	-0.000013	-0.000001	0.000000	0.000000
63.433103	12.496772	24.164719	-0.127332	0.162388	2.132767	0.000000	0.004388	0.000000	-0.000014	-0.000001	0.000000	0.000000
63.730426	12.579677	24.071911	-0.120656	0.090720	2.134072	0.000000	-0.000846	0.000000	-0.000014	-0.000001	0.000000	0.000000
64.171386	12.846319	23.726811	-0.486322	0.688912	2.147241	0.000000	0.060629	0.000000	-0.000015	-0.000002	0.000000	0.000000
64.612346	13.443990	22.866013	-0.874207	1.255760	2.187644	0.000000	0.122795	0.000000	-0.000015	-0.000002	0.000000	0.000000
65.053306	14.399997	21.528683	-1.302032	1.765471	2.255742	0.000000	0.186359	0.000000	-0.000016	-0.000002	0.000000	0.000000
65.494266	15.758017	19.775667	-1.789343	2.194855	2.352311	0.000000	0.252045	0.000000	-0.000018	-0.000003	0.000000	0.000000
65.940226	17.603255	17.661928	-2.363094	2.525125	2.480022	0.000000	0.321004	0.000000	-0.000019	-0.000003	0.000000	0.000000
66.489286	19.968810	15.297373	-1.919777	1.806847	2.635906	0.000000	0.245974	0.000000	-0.000021	-0.000003	0.000000	0.000000
67.038346	21.769754	13.646698	-1.340857	1.217266	2.749332	0.000000	0.166580	0.000000	-0.000022	-0.000002	0.000000	0.000000
67.587406	22.878876	12.592328	-0.667226	0.714388	2.818290	0.000000	0.084232	0.000000	-0.000023	-0.000001	0.000000	0.000000
68.136466	23.217835	12.059163	0.053535	0.262394	2.841556	0.000000	0.000389	0.000000	-0.000023	-0.000001	0.000000	0.000000
68.435038	23.225938	11.891688	-0.020001	0.267011	2.843889	0.000000	0.007815	0.000000	-0.000023	-0.000001	0.000000	0.000000
68.768372	23.244058	11.723690	-0.034358	0.236982	2.846494	0.000000	0.007815	0.000000	-0.000024	-0.000001	0.000000	0.000000
69.101705	23.271749	11.575712	-0.048716	0.206953	2.849100	0.000000	0.007815	0.000000	-0.000024	-0.000001	0.000000	0.000000
69.436288	23.309170	11.447311	-0.063127	0.176811	2.851715	0.000000	0.007815	0.000000	-0.000024	-0.000001	0.000000	0.000000
69.733611	23.350516	11.350135	-0.136956	0.179687	2.854039	0.000000	0.015274	0.000000	-0.000024	-0.000001	0.000000	0.000000
70.282671	23.099868	11.380172	0.590757	-0.234718	2.839237	0.000000	-0.069110	0.000000	-0.000024	0.000000	0.000000	0.000000
