#ParticleID	Turn	x[m]	xp	y[m]	yp	z[m]	dE[GeV]# s	beta_x	beta_y	alpha_x	alpha_y	D_x	D_y	D_px	D_py	orbit_x	orbit_px	orbit_y	orbit_py
0.300000	11.816570	25.006829	-0.011381	-0.027378	2.618103	0.000000	0.000016	0.000000	-0.000001	0.000001	0.000000	0.000000
0.601250	11.831108	25.026956	-0.036878	-0.039434	2.618107	0.000000	0.000016	0.000000	-0.000001	0.000001	0.000000	0.000000
0.898573	11.860520	25.053943	-0.032957	-0.112772	2.618112	0.000000	-0.006405	0.000000	-0.000000	0.000001	0.000000	0.000000
1.339533	12.041749	24.875490	-0.379590	0.515925	2.631580	0.000000	0.067553	0.000000	0.000000	0.000001	0.000000	0.000000
1.780493	12.535144	24.150848	-0.743565	1.121149	2.677800	0.000000	0.142279	0.000000	0.000001	0.000001	0.000000	0.000000
2.221453	13.363245	22.912989	-1.141511	1.675361	2.757296	0.000000	0.218626	0.000000	0.000001	0.000001	0.000000	0.000000
2.662413	14.563888	21.218234	-1.591610	2.153345	2.870975	0.000000	0.297464	0.000000	0.000001	0.000001	0.000000	0.000000
3.108373	16.212681	19.118838	-2.118716	2.534486	3.021992	0.000000	0.380178	0.000000	0.000002	0.000001	0.000000	0.000000
3.657433	18.326975	16.760925	-1.709241	1.785316	3.205461	0.000000	0.287140	0.000000	0.000003	0.000001	0.000000	0.000000
4.206493	19.922255	15.151453	-1.179033	1.163310	3.336370	0.000000	0.189009	0.000000	0.000003	0.000001	0.000000	0.000000
4.755553	20.885837	14.175781	-0.565545	0.624164	3.412399	0.000000	0.087525	0.000000	0.000004	0.000001	0.000000	0.000000
5.304613	21.149659	13.764415	0.087891	0.129476	3.432198	0.000000	-0.015511	0.000000	0.000004	0.000001	0.000000	0.000000
5.603185	21.134392	13.672278	0.018501	0.143154	3.430244	0.000000	-0.006543	0.000000	0.000004	0.000001	0.000000	0.000000
5.936519	21.127317	13.585136	0.002724	0.118274	3.428062	0.000000	-0.006543	0.000000	0.000004	0.000001	0.000000	0.000000
6.269852	21.130760	13.514580	-0.013054	0.093394	3.425881	0.000000	-0.006543	0.000000	0.000005	0.000001	0.000000	0.000000
6.604435	21.144794	13.460439	-0.028891	0.068421	3.423691	0.000000	-0.006543	0.000000	0.000005	0.000001	0.000000	0.000000
6.901758	21.166158	13.426351	-0.098265	0.081308	3.421746	0.000000	0.002397	0.000000	0.000005	0.000001	0.000000	0.000000
7.450818	20.913318	13.597826	0.556036	-0.395458	3.394860	0.000000	-0.100186	0.000000	0.000005	0.000001	0.000000	0.000000
7.999878	19.959391	14.305150	1.171061	-0.900391	3.312055	0.000000	-0.200992	0.000000	0.000006	0.000000	0.000000	0.000000
8.548938	18.371759	15.598703	1.703368	-1.469457	3.174801	0.000000	-0.298232	0.000000	0.000006	0.000000	0.000000	0.000000
9.097998	16.262564	17.570623	2.115358	-2.143189	2.985532	0.000000	-0.390183	0.000000	0.000006	-0.000000	0.000000	0.000000
9.543958	14.616986	19.327714	1.587728	-1.780176	2.829833	0.000000	-0.308475	0.000000	0.000006	0.000000	0.000000	0.000000
9.984918	13.420064	20.707692	1.136926	-1.337400	2.711054	0.000000	-0.230764	0.000000	0.000006	0.000000	0.000000	0.000000
10.425878	12.596391	21.668749	0.738068	-0.833772	2.625932	0.000000	-0.155682	0.000000	0.000006	0.000000	0.000000	0.000000
10.866838	12.108337	22.167158	0.372930	-0.292209	2.573495	0.000000	-0.082372	0.000000	0.000006	0.000001	0.000000	0.000000
11.309048	11.933469	22.179721	0.053987	0.208202	2.553127	0.000000	-0.016262	0.000000	0.000007	0.000001	0.000000	0.000000
11.606371	11.908796	22.060073	0.029000	0.194216	2.548292	0.000000	-0.016262	0.000000	0.000007	0.000001	0.000000	0.000000
12.086371	11.900319	21.884465	-0.011341	0.171636	2.540486	0.000000	-0.016262	0.000000	0.000007	0.000001	0.000000	0.000000
12.566371	11.930570	21.730532	-0.051681	0.149057	2.532680	0.000000	-0.016262	0.000000	0.000008	0.000001	0.000000	0.000000
13.046371	11.999547	21.598276	-0.092021	0.126477	2.524874	0.000000	-0.016262	0.000000	0.000008	0.000001	0.000000	0.000000
13.526371	12.107250	21.487696	-0.132361	0.103898	2.517068	0.000000	-0.016262	0.000000	0.000009	0.000001	0.000000	0.000000
14.007621	12.254112	21.398589	-0.172807	0.081259	2.509242	0.000000	-0.016262	0.000000	0.000009	0.000001	0.000000	0.000000
14.304943	12.364300	21.354427	-0.167476	0.014911	2.504406	0.000000	-0.022403	0.000000	0.000009	0.000001	0.000000	0.000000
14.745903	12.670575	21.107547	-0.529721	0.542827	2.510160	0.000000	0.048524	0.000000	0.000009	0.000001	0.000000	0.000000
15.186863	13.305744	20.404242	-0.916167	1.046045	2.547281	0.000000	0.120003	0.000000	0.000010	0.000001	0.000000	0.000000
15.627823	14.298828	19.276510	-1.344471	1.501669	2.616192	0.000000	0.192849	0.000000	0.000011	0.000002	0.000000	0.000000
16.068783	15.695198	17.775662	-1.834200	1.888969	2.717679	0.000000	0.267891	0.000000	0.000011	0.000002	0.000000	0.000000
16.514743	17.582306	15.948484	-2.412485	2.191067	2.854591	0.000000	0.346447	0.000000	0.000012	0.000002	0.000000	0.000000
17.063803	20.005984	13.908245	-1.975614	1.546743	3.021079	0.000000	0.259108	0.000000	0.000013	0.000002	0.000000	0.000000
17.612863	21.869991	12.511264	-1.399195	1.012590	3.138277	0.000000	0.167173	0.000000	0.000014	0.000001	0.000000	0.000000
18.161923	23.042663	11.658037	-0.723943	0.550561	3.204109	0.000000	0.072273	0.000000	0.000015	0.000001	0.000000	0.000000
18.710983	23.441169	11.287790	0.002444	0.127747	3.217406	0.000000	-0.023909	0.000000	0.000015	0.000000	0.000000	0.000000
19.009556	23.480095	11.201990	-0.071577	0.130132	3.212776	0.000000	-0.015503	0.000000	0.000015	0.000000	0.000000	0.000000
19.342889	23.532570	11.125322	-0.085846	0.099871	3.207609	0.000000	-0.015503	0.000000	0.000015	0.000000	0.000000	0.000000
19.676223	23.594557	11.068828	-0.100116	0.069611	3.202441	0.000000	-0.015503	0.000000	0.000015	0.000000	0.000000	0.000000
20.010806	23.666636	11.032273	-0.231696	0.093897	3.197273	0.000000	0.000338	0.000000	0.000015	0.000000	0.000000	0.000000
20.308129	23.808349	10.984521	-0.307132	0.095406	3.197373	0.000000	0.008691	0.000000	0.000015	0.000000	0.000000	0.000000
20.857189	23.734983	11.101973	0.439963	-0.310582	3.175923	0.000000	-0.086710	0.000000	0.000016	-0.000000	0.000000	0.000000
21.406249	22.853496	11.674707	1.155980	-0.738693	3.102438	0.000000	-0.180573	0.000000	0.000015	-0.000001	0.000000	0.000000
21.955309	21.226152	12.743520	1.790346	-1.219419	2.978221	0.000000	-0.271233	0.000000	0.000015	-0.000001	0.000000	0.000000
22.504369	18.967899	14.384539	2.298249	-1.787002	2.805476	0.000000	-0.357082	0.000000	0.000014	-0.000002	0.000000	0.000000
22.950329	17.188206	15.857849	1.706538	-1.502742	2.663527	0.000000	-0.279866	0.000000	0.000014	-0.000001	0.000000	0.000000
23.391289	15.912485	17.032496	1.197491	-1.150963	2.556442	0.000000	-0.206291	0.000000	0.000013	-0.000001	0.000000	0.000000
23.832249	15.059972	17.872538	0.743153	-0.746816	2.481251	0.000000	-0.135067	0.000000	0.000013	-0.000000	0.000000	0.000000
24.273209	14.591720	18.339752	0.322768	-0.308690	2.437099	0.000000	-0.065380	0.000000	0.000013	-0.000000	0.000000	0.000000
24.715418	14.486453	18.412636	-0.047437	0.098264	2.423479	0.000000	-0.002381	0.000000	0.000013	0.000000	0.000000	0.000000
25.012741	14.520777	18.359051	-0.068007	0.081960	2.422771	0.000000	-0.002381	0.000000	0.000013	0.000000	0.000000	0.000000
25.346075	14.573802	18.310503	-0.091069	0.063682	2.421977	0.000000	-0.002381	0.000000	0.000013	0.000000	0.000000	0.000000
25.679408	14.642202	18.274141	-0.114131	0.045404	2.421183	0.000000	-0.002381	0.000000	0.000013	0.000000	0.000000	0.000000
26.013991	14.726021	18.250267	-0.017812	-0.120998	2.420362	0.000000	-0.022017	0.000000	0.000013	0.000000	0.000000	0.000000
26.311314	14.742617	18.327133	-0.001860	-0.182466	2.413816	0.000000	-0.027935	0.000000	0.000013	0.000000	0.000000	0.000000
26.752274	14.925897	18.289284	-0.415354	0.267972	2.416609	0.000000	0.040618	0.000000	0.000013	0.000000	0.000000	0.000000
27.193234	15.480802	17.858064	-0.847824	0.706217	2.449705	0.000000	0.109633	0.000000	0.000013	0.000001	0.000000	0.000000
27.634194	16.432687	17.053095	-1.319029	1.112330	2.513480	0.000000	0.179898	0.000000	0.000014	0.000001	0.000000	0.000000
28.075154	17.825040	15.910999	-1.850497	1.467833	2.608660	0.000000	0.252211	0.000000	0.000014	0.000001	0.000000	0.000000
28.521114	19.745663	14.466540	-2.471474	1.757463	2.737933	0.000000	0.327840	0.000000	0.000015	0.000002	0.000000	0.000000
29.070174	22.186786	12.857106	-1.948211	1.191092	2.895269	0.000000	0.244429	0.000000	0.000016	0.000001	0.000000	0.000000
29.619234	23.973875	11.819658	-1.287336	0.709560	3.005547	0.000000	0.156683	0.000000	0.000017	0.000001	0.000000	0.000000
30.168294	24.980699	11.280300	-0.535531	0.278568	3.066814	0.000000	0.066157	0.000000	0.000017	0.000000	0.000000	0.000000
30.717354	25.136141	11.200615	0.254102	-0.132582	3.077980	0.000000	-0.025542	0.000000	0.000017	-0.000000	0.000000	0.000000
31.015927	25.027290	11.270357	0.176135	-0.130262	3.072755	0.000000	-0.017501	0.000000	0.000017	-0.000000	0.000000	0.000000
31.349260	24.914443	11.367224	0.162403	-0.160340	3.066921	0.000000	-0.017501	0.000000	0.000017	-0.000000	0.000000	0.000000
31.682593	24.810752	11.484144	0.148671	-0.190418	3.061088	0.000000	-0.017501	0.000000	0.000017	-0.000000	0.000000	0.000000
32.017177	24.715878	11.621667	0.134888	-0.220609	3.055232	0.000000	-0.017501	0.000000	0.000017	-0.000000	0.000000	0.000000
32.314499	24.639309	11.760827	0.058270	-0.216713	3.050029	0.000000	-0.009533	0.000000	0.000016	-0.000000	0.000000	0.000000
32.863559	24.153181	12.238040	0.821870	-0.657562	3.019910	0.000000	-0.100019	0.000000	0.000016	-0.000001	0.000000	0.000000
33.412619	22.855599	13.222083	1.527417	-1.145249	2.940523	0.000000	-0.188731	0.000000	0.000016	-0.000001	0.000000	0.000000
33.961679	20.838219	14.783048	2.125075	-1.714509	2.813276	0.000000	-0.274096	0.000000	0.000015	-0.000002	0.000000	0.000000
34.510739	18.243537	17.032119	2.572628	-2.405889	2.640427	0.000000	-0.354599	0.000000	0.000014	-0.000002	0.000000	0.000000
34.956699	16.226086	19.043819	1.967417	-2.086219	2.498635	0.000000	-0.281662	0.000000	0.000013	-0.000002	0.000000	0.000000
35.397659	14.721717	20.707539	1.457102	-1.672373	2.389817	0.000000	-0.212361	0.000000	0.000012	-0.000002	0.000000	0.000000
35.838619	13.636459	21.971204	1.013359	-1.182435	2.310996	0.000000	-0.145479	0.000000	0.000011	-0.000001	0.000000	0.000000
36.279579	12.920730	22.777318	0.615913	-0.638698	2.261274	0.000000	-0.080253	0.000000	0.000011	-0.000001	0.000000	0.000000
36.721789	12.541137	23.089511	0.277253	-0.122571	2.240059	0.000000	-0.021435	0.000000	0.000011	-0.000001	0.000000	0.000000
37.019112	12.383860	23.166283	0.251723	-0.135641	2.233686	0.000000	-0.021435	0.000000	0.000010	-0.000001	0.000000	0.000000
37.352445	12.225586	23.261595	0.223100	-0.150294	2.226542	0.000000	-0.021435	0.000000	0.000010	-0.000001	0.000000	0.000000
37.685779	12.086393	23.366675	0.194478	-0.164948	2.219397	0.000000	-0.021435	0.000000	0.000010	-0.000001	0.000000	0.000000
38.020362	11.965867	23.481974	0.165748	-0.179656	2.212226	0.000000	-0.021435	0.000000	0.000010	-0.000001	0.000000	0.000000
38.317684	11.874896	23.592692	0.169336	-0.250578	2.205853	0.000000	-0.026843	0.000000	0.000009	-0.000001	0.000000	0.000000
38.758644	11.876961	23.552366	-0.174036	0.341680	2.207945	0.000000	0.036339	0.000000	0.000009	-0.000000	0.000000	0.000000
39.199604	12.184201	22.994602	-0.525359	0.918392	2.237962	0.000000	0.099936	0.000000	0.000009	-0.000000	0.000000	0.000000
39.640564	12.810653	21.944779	-0.900685	1.453317	2.296247	0.000000	0.164671	0.000000	0.000009	-0.000000	0.000000	0.000000
40.081524	13.784938	20.450661	-1.317161	1.922118	2.383464	0.000000	0.231281	0.000000	0.000009	0.000000	0.000000	0.000000
40.527484	15.169142	18.557659	-1.797640	2.304747	2.502077	0.000000	0.300931	0.000000	0.000009	0.000000	0.000000	0.000000
41.076544	16.935584	16.430414	-1.400527	1.592462	2.646774	0.000000	0.225367	0.000000	0.000009	0.000000	0.000000	0.000000
41.625604	18.208713	15.018841	-0.904488	0.993604	2.748822	0.000000	0.145805	0.000000	0.000009	-0.000000	0.000000	0.000000
42.174664	18.898600	14.222396	-0.344561	0.465519	2.806411	0.000000	0.063657	0.000000	0.000009	-0.000000	0.000000	0.000000
42.723724	18.956515	13.984350	0.239704	-0.029409	2.818519	0.000000	-0.019619	0.000000	0.000009	-0.000001	0.000000	0.000000
43.022297	18.847824	13.986469	0.173858	-0.014224	2.814860	0.000000	-0.012256	0.000000	0.000009	-0.000001	0.000000	0.000000
43.502297	18.693514	14.016601	0.147621	-0.048550	2.808977	0.000000	-0.012256	0.000000	0.000008	-0.000001	0.000000	0.000000
43.982297	18.564391	14.079685	0.121384	-0.082876	2.803095	0.000000	-0.012256	0.000000	0.000008	-0.000001	0.000000	0.000000
44.462297	18.460456	14.175722	0.095147	-0.117202	2.797212	0.000000	-0.012256	0.000000	0.000008	-0.000001	0.000000	0.000000
44.942297	18.381708	14.304712	0.068910	-0.151527	2.791330	0.000000	-0.012256	0.000000	0.000007	-0.000001	0.000000	0.000000
45.423547	18.328268	14.466940	-0.048203	-0.114265	2.785450	0.000000	0.001545	0.000000	0.000007	-0.000001	0.000000	0.000000
45.720870	18.361766	14.541077	-0.112436	-0.097094	2.785909	0.000000	0.008824	0.000000	0.000007	-0.000001	0.000000	0.000000
46.269930	18.176058	14.928943	0.448663	-0.613493	2.768181	0.000000	-0.073306	0.000000	0.000006	-0.000001	0.000000	0.000000
46.818990	17.388030	15.904402	0.978072	-1.173591	2.705651	0.000000	-0.154134	0.000000	0.000006	-0.000001	0.000000	0.000000
47.368050	16.053344	17.536933	1.438394	-1.817281	2.599426	0.000000	-0.232230	0.000000	0.000005	-0.000001	0.000000	0.000000
47.917110	14.266277	19.942819	1.797115	-2.590411	2.451393	0.000000	-0.306205	0.000000	0.000004	-0.000001	0.000000	0.000000
48.363070	12.875577	22.081871	1.332373	-2.185933	2.330130	0.000000	-0.237905	0.000000	0.000004	-0.000001	0.000000	0.000000
48.804030	11.880734	23.794552	0.932272	-1.683270	2.239684	0.000000	-0.172711	0.000000	0.000003	-0.000001	0.000000	0.000000
49.244990	11.218703	25.028329	0.574764	-1.104019	2.177525	0.000000	-0.109485	0.000000	0.000003	-0.000001	0.000000	0.000000
49.685950	10.859238	25.727068	0.243515	-0.474536	2.142946	0.000000	-0.047505	0.000000	0.000002	-0.000001	0.000000	0.000000
50.128160	10.786042	25.858692	-0.050274	0.113077	2.135562	0.000000	0.008697	0.000000	0.000002	-0.000001	0.000000	0.000000
50.425482	10.824154	25.794914	-0.077909	0.101432	2.138148	0.000000	0.008697	0.000000	0.000001	-0.000001	0.000000	0.000000
50.758816	10.886421	25.731644	-0.108892	0.088376	2.141048	0.000000	0.008697	0.000000	0.000001	-0.000001	0.000000	0.000000
51.092149	10.969343	25.677079	-0.139874	0.075321	2.143947	0.000000	0.008697	0.000000	0.000001	-0.000001	0.000000	0.000000
51.426732	11.073122	25.631581	-0.081140	-0.145719	2.146836	0.000000	-0.008719	0.000000	0.000000	-0.000001	0.000000	0.000000
51.724055	11.129408	25.721754	-0.080875	-0.220643	2.144243	0.000000	-0.013978	0.000000	0.000000	-0.000001	0.000000	0.000000
52.165015	11.346045	25.630183	-0.412274	0.427517	2.151669	0.000000	0.047685	0.000000	-0.000000	-0.000001	0.000000	0.000000
52.605975	11.862120	24.973413	-0.762510	1.056225	2.186379	0.000000	0.109892	0.000000	-0.000001	-0.000001	0.000000	0.000000
53.046935	12.701210	23.781327	-1.147582	1.636876	2.248769	0.000000	0.173350	0.000000	-0.000001	-0.000001	0.000000	0.000000
53.487895	13.901652	22.108164	-1.585083	2.143050	2.339549	0.000000	0.238782	0.000000	-0.000002	-0.000001	0.000000	0.000000
53.933855	15.538867	20.005035	-2.099233	2.553054	2.461259	0.000000	0.307332	0.000000	-0.000002	-0.000001	0.000000	0.000000
54.482915	17.646732	17.638488	-1.717084	1.782567	2.609824	0.000000	0.233028	0.000000	-0.000003	-0.000001	0.000000	0.000000
55.031975	19.265462	16.043759	-1.213650	1.139049	2.716394	0.000000	0.154591	0.000000	-0.000003	-0.000001	0.000000	0.000000
55.581035	20.280720	15.107258	-0.624489	0.576663	2.779080	0.000000	0.073411	0.000000	-0.000004	-0.000001	0.000000	0.000000
56.130095	20.620793	14.762281	0.008783	0.055351	2.796770	0.000000	-0.009071	0.000000	-0.000004	-0.000001	0.000000	0.000000
56.428668	20.652055	14.712287	-0.059606	0.073520	2.796244	0.000000	-0.001763	0.000000	-0.000005	-0.000001	0.000000	0.000000
56.762001	20.697192	14.670867	-0.075804	0.050740	2.795657	0.000000	-0.001763	0.000000	-0.000005	-0.000001	0.000000	0.000000
57.095334	20.753127	14.644633	-0.092002	0.027961	2.795069	0.000000	-0.001763	0.000000	-0.000005	-0.000001	0.000000	0.000000
57.429918	20.820132	14.633573	-0.108261	0.005096	2.794480	0.000000	-0.001763	0.000000	-0.000005	-0.000001	0.000000	0.000000
57.727240	20.888804	14.636583	-0.177290	0.023022	2.793956	0.000000	0.005538	0.000000	-0.000006	-0.000001	0.000000	0.000000
58.276300	20.727118	14.892365	0.470025	-0.491626	2.774358	0.000000	-0.076822	0.000000	-0.000006	-0.000001	0.000000	0.000000
58.825360	19.868707	15.729089	1.084139	-1.041291	2.709847	0.000000	-0.157819	0.000000	-0.000006	-0.000000	0.000000	0.000000
59.374420	18.374205	17.206354	1.621676	-1.665125	2.601568	0.000000	-0.236017	0.000000	-0.000006	-0.000000	0.000000	0.000000
59.923480	16.349177	19.429382	2.044665	-2.407563	2.451441	0.000000	-0.310028	0.000000	-0.000006	0.000000	0.000000	0.000000
60.369440	14.764195	21.405236	1.522011	-2.004299	2.328471	0.000000	-0.241749	0.000000	-0.000006	-0.000000	0.000000	0.000000
60.810400	13.624180	22.961360	1.073098	-1.511216	2.236317	0.000000	-0.176620	0.000000	-0.000006	-0.000000	0.000000	0.000000
61.251360	12.857038	24.050526	0.673212	-0.949374	2.172412	0.000000	-0.113502	0.000000	-0.000007	-0.000000	0.000000	0.000000
61.692320	12.427718	24.623179	0.304083	-0.344335	2.136028	0.000000	-0.051678	0.000000	-0.000007	-0.000001	0.000000	0.000000
62.134530	12.316660	24.652723	-0.021048	0.215856	2.126756	0.000000	0.004343	0.000000	-0.000007	-0.000001	0.000000	0.000000
62.431853	12.336357	24.528118	-0.045199	0.203234	2.128047	0.000000	0.004343	0.000000	-0.000007	-0.000001	0.000000	0.000000
62.765186	12.375514	24.397346	-0.072275	0.189082	2.129495	0.000000	0.004343	0.000000	-0.000008	-0.000001	0.000000	0.000000
63.098520	12.432723	24.276008	-0.099350	0.174931	2.130943	0.000000	0.004343	0.000000	-0.000008	-0.000001	0.000000	0.000000
63.433103	12.508297	24.163703	-0.126527	0.160727	2.132396	0.000000	0.004343	0.000000	-0.000008	-0.000001	0.000000	0.000000
63.730426	12.590717	24.071880	-0.119799	0.089068	2.133687	0.000000	-0.000890	0.000000	-0.000008	-0.000001	0.000000	0.000000
64.171386	12.856706	23.728224	-0.485694	0.687303	2.146835	0.000000	0.060575	0.000000	-0.000009	-0.000001	0.000000	0.000000
64.612346	13.453913	22.868799	-0.873779	1.254266	2.187211	0.000000	0.122729	0.000000	-0.000009	-0.000001	0.000000	0.000000
65.053306	14.409624	21.532710	-1.301784	1.764160	2.255278	0.000000	0.186282	0.000000	-0.000010	-0.000001	0.000000	0.000000
65.494266	15.767501	19.780747	-1.789265	2.193787	2.351809	0.000000	0.251956	0.000000	-0.000011	-0.000002	0.000000	0.000000
65.940226	17.612745	17.667831	-2.363183	2.524352	2.479477	0.000000	0.320902	0.000000	-0.000012	-0.000002	0.000000	0.000000
66.489286	19.978176	15.304131	-1.919463	1.806054	2.635309	0.000000	0.245889	0.000000	-0.000013	-0.000002	0.000000	0.000000
67.038346	21.778562	13.654363	-1.340162	1.216397	2.748694	0.000000	0.166516	0.000000	-0.000013	-0.000001	0.000000	0.000000
67.587406	22.886733	12.601017	-0.666198	0.713380	2.817622	0.000000	0.084189	0.000000	-0.000014	-0.000001	0.000000	0.000000
68.136466	23.224414	12.069067	0.054822	0.261177	2.840870	0.000000	0.000368	0.000000	-0.000014	-0.000000	0.000000	0.000000
68.435038	23.231756	11.902293	-0.018723	0.265856	2.843196	0.000000	0.007792	0.000000	-0.000014	-0.000000	0.000000	0.000000
68.768372	23.249022	11.735051	-0.033076	0.235871	2.845793	0.000000	0.007792	0.000000	-0.000014	-0.000000	0.000000	0.000000
69.101705	23.275857	11.587798	-0.047429	0.205886	2.848391	0.000000	0.007792	0.000000	-0.000015	-0.000000	0.000000	0.000000
69.436288	23.312415	11.460096	-0.061836	0.175788	2.850998	0.000000	0.007792	0.000000	-0.000015	-0.000000	0.000000	0.000000
69.733611	23.352992	11.363517	-0.135663	0.178737	2.853315	0.000000	0.015248	0.000000	-0.000015	-0.000000	0.000000	0.000000
70.282671	23.100892	11.394808	0.592094	-0.236063	2.838505	0.000000	-0.069113	0.000000	-0.000015	0.000000	0.000000	0.000000
