#ParticleID	Turn	x[m]	xp	y[m]	yp	z[m]	dE[GeV]# s	beta_x	beta_y	alpha_x	alpha_y	D_x	D_y	D_px	D_py	orbit_x	orbit_px	orbit_y	orbit_py
0.300000	11.810494	25.031376	-0.010728	-0.027118	2.618152	0.000000	-0.000004	0.000000	-0.000001	0.000001	0.000000	0.000000
0.601250	11.824642	25.051343	-0.036238	-0.039162	2.618150	0.000000	-0.000004	0.000000	-0.000000	0.000001	0.000000	0.000000
0.898573	11.853677	25.078165	-0.032347	-0.112547	2.618148	0.000000	-0.006425	0.000000	0.000000	0.000001	0.000000	0.000000
1.339533	12.034294	24.899231	-0.378808	0.516785	2.631608	0.000000	0.067533	0.000000	0.000001	0.000001	0.000000	0.000000
1.780493	12.526911	24.173564	-0.742575	1.122605	2.677819	0.000000	0.142261	0.000000	0.000001	0.000001	0.000000	0.000000
2.221453	13.354032	22.934181	-1.140269	1.677347	2.757307	0.000000	0.218608	0.000000	0.000002	0.000001	0.000000	0.000000
2.662413	14.553447	21.237473	-1.590058	2.155771	2.870978	0.000000	0.297445	0.000000	0.000003	0.000002	0.000000	0.000000
3.108373	16.200691	19.135757	-2.116781	2.537242	3.021987	0.000000	0.380160	0.000000	0.000003	0.000002	0.000000	0.000000
3.657433	18.313021	16.775202	-1.707619	1.787403	3.205446	0.000000	0.287122	0.000000	0.000004	0.000001	0.000000	0.000000
4.206493	19.906745	15.163735	-1.177839	1.164877	3.336345	0.000000	0.188992	0.000000	0.000005	0.000001	0.000000	0.000000
4.755553	20.869291	14.186576	-0.564862	0.625322	3.412364	0.000000	0.087509	0.000000	0.000006	0.000001	0.000000	0.000000
5.304613	21.132669	13.774125	0.088014	0.130308	3.432154	0.000000	-0.015526	0.000000	0.000006	0.000001	0.000000	0.000000
5.603185	21.117305	13.681473	0.018657	0.144019	3.430196	0.000000	-0.006559	0.000000	0.000007	0.000001	0.000000	0.000000
5.936519	21.110130	13.593750	0.002867	0.119150	3.428009	0.000000	-0.006559	0.000000	0.000007	0.000001	0.000000	0.000000
6.269852	21.113483	13.522606	-0.012924	0.094281	3.425823	0.000000	-0.006559	0.000000	0.000007	0.000001	0.000000	0.000000
6.604435	21.127434	13.467868	-0.028773	0.069319	3.423628	0.000000	-0.006559	0.000000	0.000008	0.000001	0.000000	0.000000
6.901758	21.148731	13.433244	-0.098112	0.082233	3.421678	0.000000	0.002381	0.000000	0.000008	0.000001	0.000000	0.000000
7.450818	20.896044	13.603806	0.555606	-0.394710	3.394784	0.000000	-0.100199	0.000000	0.000008	0.000001	0.000000	0.000000
7.999878	19.942898	14.310380	1.170078	-0.899767	3.311973	0.000000	-0.201002	0.000000	0.000009	0.000000	0.000000	0.000000
8.548938	18.356618	15.603296	1.701902	-1.468912	3.174713	0.000000	-0.298240	0.000000	0.000009	0.000000	0.000000	0.000000
9.097998	16.249252	17.574643	2.113512	-2.142684	2.985440	0.000000	-0.390188	0.000000	0.000009	-0.000000	0.000000	0.000000
9.543958	14.605139	19.331201	1.586279	-1.779492	2.829739	0.000000	-0.308482	0.000000	0.000009	0.000000	0.000000	0.000000
9.984918	13.409345	20.710509	1.135806	-1.336569	2.710956	0.000000	-0.230774	0.000000	0.000009	0.000000	0.000000	0.000000
10.425878	12.586535	21.670783	0.737224	-0.832834	2.625829	0.000000	-0.155694	0.000000	0.000009	0.000001	0.000000	0.000000
10.866838	12.099118	22.168332	0.372324	-0.291204	2.573386	0.000000	-0.082388	0.000000	0.000010	0.000001	0.000000	0.000000
11.309048	11.924691	22.179995	0.053570	0.209227	2.553011	0.000000	-0.016279	0.000000	0.000010	0.000001	0.000000	0.000000
11.606371	11.900271	22.059739	0.028565	0.195235	2.548170	0.000000	-0.016279	0.000000	0.000010	0.000001	0.000000	0.000000
12.086371	11.892225	21.883156	-0.011803	0.172647	2.540356	0.000000	-0.016279	0.000000	0.000011	0.000001	0.000000	0.000000
12.566371	11.922933	21.728257	-0.052172	0.150058	2.532541	0.000000	-0.016279	0.000000	0.000011	0.000001	0.000000	0.000000
13.046371	11.992394	21.595044	-0.092540	0.127470	2.524726	0.000000	-0.016279	0.000000	0.000012	0.000001	0.000000	0.000000
13.526371	12.100609	21.483515	-0.132908	0.104881	2.516912	0.000000	-0.016279	0.000000	0.000012	0.000001	0.000000	0.000000
14.007621	12.248011	21.393466	-0.173381	0.082234	2.509077	0.000000	-0.016279	0.000000	0.000013	0.000001	0.000000	0.000000
14.304943	12.358545	21.348726	-0.168083	0.015896	2.504236	0.000000	-0.022420	0.000000	0.000013	0.000001	0.000000	0.000000
14.745903	12.665304	21.101051	-0.530217	0.543637	2.509981	0.000000	0.048502	0.000000	0.000014	0.000001	0.000000	0.000000
15.186863	13.300870	20.397122	-0.916575	1.046644	2.547091	0.000000	0.119977	0.000000	0.000014	0.000002	0.000000	0.000000
15.627823	14.294282	19.268966	-1.344808	1.502029	2.615990	0.000000	0.192818	0.000000	0.000015	0.000002	0.000000	0.000000
16.068783	15.690924	17.767914	-1.834482	1.889073	2.717461	0.000000	0.267854	0.000000	0.000016	0.000003	0.000000	0.000000
16.514743	17.578265	15.940760	-2.412727	2.190909	2.854356	0.000000	0.346404	0.000000	0.000017	0.000003	0.000000	0.000000
17.063803	20.002323	13.900599	-1.976060	1.546757	3.020821	0.000000	0.259073	0.000000	0.000019	0.000002	0.000000	0.000000
17.612863	21.866919	12.503508	-1.399814	1.012778	3.138003	0.000000	0.167147	0.000000	0.000020	0.000002	0.000000	0.000000
18.161923	23.040348	11.649973	-0.724693	0.550936	3.203823	0.000000	0.072256	0.000000	0.000021	0.000001	0.000000	0.000000
18.710983	23.439724	11.279201	0.001618	0.128336	3.217113	0.000000	-0.023916	0.000000	0.000021	0.000000	0.000000	0.000000
19.009556	23.479139	11.193071	-0.072398	0.130671	3.212481	0.000000	-0.015512	0.000000	0.000021	0.000000	0.000000	0.000000
19.342889	23.532162	11.116053	-0.086669	0.100382	3.207310	0.000000	-0.015512	0.000000	0.000021	0.000000	0.000000	0.000000
19.676223	23.594699	11.059228	-0.100941	0.070093	3.202139	0.000000	-0.015512	0.000000	0.000022	0.000000	0.000000	0.000000
20.010806	23.667331	11.022359	-0.232527	0.094302	3.196969	0.000000	0.000327	0.000000	0.000022	0.000001	0.000000	0.000000
20.308129	23.809539	10.974374	-0.307967	0.095757	3.197066	0.000000	0.008679	0.000000	0.000022	0.000001	0.000000	0.000000
20.857189	23.737064	11.091283	0.439185	-0.309939	3.175612	0.000000	-0.086712	0.000000	0.000022	-0.000000	0.000000	0.000000
21.406249	22.856374	11.663130	1.155315	-0.737711	3.102129	0.000000	-0.180564	0.000000	0.000022	-0.000001	0.000000	0.000000
21.955309	21.229678	12.730647	1.789839	-1.218028	2.977919	0.000000	-0.271214	0.000000	0.000021	-0.000002	0.000000	0.000000
22.504369	18.971877	14.369871	2.297938	-1.785103	2.805188	0.000000	-0.357054	0.000000	0.000020	-0.000002	0.000000	0.000000
22.950329	17.192481	15.841635	1.706180	-1.501189	2.663250	0.000000	-0.279845	0.000000	0.000019	-0.000002	0.000000	0.000000
23.391289	15.917102	17.015092	1.197070	-1.149825	2.556172	0.000000	-0.206278	0.000000	0.000019	-0.000001	0.000000	0.000000
23.832249	15.064995	17.854333	0.742650	-0.746146	2.480986	0.000000	-0.135060	0.000000	0.000018	-0.000001	0.000000	0.000000
24.273209	14.597230	18.321174	0.322161	-0.308517	2.436835	0.000000	-0.065380	0.000000	0.000018	-0.000000	0.000000	0.000000
24.715418	14.492557	18.394127	-0.048164	0.097980	2.423214	0.000000	-0.002387	0.000000	0.000018	0.000000	0.000000	0.000000
25.012741	14.527311	18.340716	-0.068727	0.081661	2.422504	0.000000	-0.002387	0.000000	0.000018	0.000000	0.000000	0.000000
25.346075	14.580813	18.292374	-0.091780	0.063365	2.421708	0.000000	-0.002387	0.000000	0.000018	0.000000	0.000000	0.000000
25.679408	14.649685	18.256230	-0.114834	0.045069	2.420912	0.000000	-0.002387	0.000000	0.000018	0.000000	0.000000	0.000000
26.013991	14.733971	18.232585	-0.018443	-0.121207	2.420089	0.000000	-0.022020	0.000000	0.000018	0.000000	0.000000	0.000000
26.311314	14.750940	18.309579	-0.002461	-0.182646	2.413542	0.000000	-0.027938	0.000000	0.000018	-0.000000	0.000000	0.000000
26.752274	14.934841	18.272099	-0.416169	0.267320	2.416332	0.000000	0.040608	0.000000	0.000018	0.000000	0.000000	0.000000
27.193234	15.490573	17.841653	-0.848889	0.705122	2.449422	0.000000	0.109616	0.000000	0.000019	0.000001	0.000000	0.000000
27.634194	16.443526	17.037826	-1.320394	1.110843	2.513187	0.000000	0.179873	0.000000	0.000019	0.000001	0.000000	0.000000
28.075154	17.837236	15.897192	-1.852223	1.466020	2.608355	0.000000	0.252178	0.000000	0.000020	0.000002	0.000000	0.000000
28.521114	19.759591	14.454465	-2.473644	1.755408	2.737611	0.000000	0.327799	0.000000	0.000021	0.000002	0.000000	0.000000
29.070174	22.202911	12.847020	-1.950016	1.189504	2.894928	0.000000	0.244399	0.000000	0.000022	0.000002	0.000000	0.000000
29.619234	23.991723	11.811112	-1.288649	0.708325	3.005193	0.000000	0.156664	0.000000	0.000023	0.000001	0.000000	0.000000
30.168294	24.999674	11.272957	-0.536258	0.277599	3.066452	0.000000	0.066150	0.000000	0.000023	0.000000	0.000000	0.000000
30.717354	25.155567	11.194222	0.254012	-0.133353	3.077618	0.000000	-0.025537	0.000000	0.000023	-0.000000	0.000000	0.000000
31.015927	25.046795	11.264441	0.176008	-0.131072	3.072394	0.000000	-0.017497	0.000000	0.000023	-0.000000	0.000000	0.000000
31.349260	24.934030	11.361855	0.162287	-0.161172	3.066562	0.000000	-0.017497	0.000000	0.000023	-0.000000	0.000000	0.000000
31.682593	24.830413	11.479337	0.148566	-0.191272	3.060730	0.000000	-0.017497	0.000000	0.000023	-0.000000	0.000000	0.000000
32.017177	24.735605	11.617438	0.134794	-0.221485	3.054876	0.000000	-0.017497	0.000000	0.000023	-0.000000	0.000000	0.000000
32.314499	24.659089	11.757125	0.058138	-0.217620	3.049673	0.000000	-0.009531	0.000000	0.000023	-0.000000	0.000000	0.000000
32.863559	24.172745	12.235299	0.822393	-0.658415	3.019558	0.000000	-0.100005	0.000000	0.000022	-0.000001	0.000000	0.000000
33.412619	22.874244	13.220276	1.528559	-1.146108	2.940182	0.000000	-0.188706	0.000000	0.000021	-0.000002	0.000000	0.000000
33.961679	20.855305	14.782216	2.126754	-1.715435	2.812953	0.000000	-0.274060	0.000000	0.000020	-0.000002	0.000000	0.000000
34.510739	18.258536	17.032371	2.574726	-2.406950	2.640126	0.000000	-0.354553	0.000000	0.000019	-0.000003	0.000000	0.000000
34.956699	16.239423	19.045065	1.969059	-2.087378	2.498353	0.000000	-0.281624	0.000000	0.000018	-0.000003	0.000000	0.000000
35.397659	14.733776	20.709831	1.458368	-1.673577	2.389551	0.000000	-0.212330	0.000000	0.000016	-0.000002	0.000000	0.000000
35.838619	13.647546	21.974558	1.014306	-1.183629	2.310742	0.000000	-0.145454	0.000000	0.000016	-0.000002	0.000000	0.000000
36.279579	12.931106	22.781700	0.616585	-0.639827	2.261030	0.000000	-0.080235	0.000000	0.000015	-0.000001	0.000000	0.000000
36.721789	12.551029	23.094844	0.277703	-0.123595	2.239822	0.000000	-0.021422	0.000000	0.000014	-0.000001	0.000000	0.000000
37.019112	12.393481	23.172225	0.252187	-0.136666	2.233453	0.000000	-0.021422	0.000000	0.000014	-0.000001	0.000000	0.000000
37.352445	12.234892	23.268220	0.223580	-0.151319	2.226312	0.000000	-0.021422	0.000000	0.000014	-0.000001	0.000000	0.000000
37.685779	12.095374	23.373985	0.194974	-0.165973	2.219172	0.000000	-0.021422	0.000000	0.000013	-0.000001	0.000000	0.000000
38.020362	11.974511	23.489969	0.166260	-0.180682	2.212005	0.000000	-0.021422	0.000000	0.000013	-0.000001	0.000000	0.000000
38.317684	11.883231	23.601297	0.169882	-0.251623	2.205636	0.000000	-0.026830	0.000000	0.000013	-0.000001	0.000000	0.000000
38.758644	11.884897	23.561789	-0.173674	0.340877	2.207733	0.000000	0.036347	0.000000	0.000012	-0.000001	0.000000	0.000000
39.199604	12.191893	23.004613	-0.525166	0.917868	2.237752	0.000000	0.099938	0.000000	0.000012	-0.000000	0.000000	0.000000
39.640564	12.818244	21.955118	-0.900650	1.453096	2.296037	0.000000	0.164668	0.000000	0.000012	-0.000000	0.000000	0.000000
40.081524	13.792568	20.461058	-1.317283	1.922210	2.383251	0.000000	0.231272	0.000000	0.000012	0.000000	0.000000	0.000000
40.527484	15.176954	18.567835	-1.797926	2.305149	2.501859	0.000000	0.300917	0.000000	0.000012	0.000001	0.000000	0.000000
41.076544	16.943546	16.440297	-1.400512	1.592595	2.646551	0.000000	0.225360	0.000000	0.000012	0.000000	0.000000	0.000000
41.625604	18.216492	15.028721	-0.904173	0.993477	2.748597	0.000000	0.145805	0.000000	0.000012	-0.000000	0.000000	0.000000
42.174664	18.905878	14.232562	-0.343968	0.465122	2.806188	0.000000	0.063665	0.000000	0.000012	-0.000001	0.000000	0.000000
42.723724	18.963008	13.995111	0.240533	-0.030102	2.818302	0.000000	-0.019605	0.000000	0.000012	-0.000001	0.000000	0.000000
43.022297	18.853831	13.997623	0.174672	-0.014874	2.814647	0.000000	-0.012242	0.000000	0.000011	-0.000001	0.000000	0.000000
43.502297	18.698740	14.028366	0.148436	-0.049173	2.808771	0.000000	-0.012242	0.000000	0.000011	-0.000001	0.000000	0.000000
43.982297	18.568834	14.092036	0.122200	-0.083472	2.802896	0.000000	-0.012242	0.000000	0.000010	-0.000001	0.000000	0.000000
44.462297	18.464115	14.188633	0.095964	-0.117771	2.797020	0.000000	-0.012242	0.000000	0.000010	-0.000001	0.000000	0.000000
44.942297	18.384583	14.318157	0.069729	-0.152071	2.791145	0.000000	-0.012242	0.000000	0.000009	-0.000001	0.000000	0.000000
45.423547	18.330355	14.480895	-0.047394	-0.114712	2.785271	0.000000	0.001558	0.000000	0.000009	-0.000001	0.000000	0.000000
45.720870	18.363371	14.555293	-0.111628	-0.097487	2.785735	0.000000	0.008836	0.000000	0.000009	-0.000001	0.000000	0.000000
46.269930	18.176753	14.943829	0.449503	-0.614329	2.768015	0.000000	-0.073288	0.000000	0.000008	-0.000001	0.000000	0.000000
46.818990	17.387813	15.920474	0.978882	-1.174929	2.705496	0.000000	-0.154111	0.000000	0.000007	-0.000001	0.000000	0.000000
47.368050	16.052279	17.554793	1.439119	-1.819217	2.599286	0.000000	-0.232202	0.000000	0.000006	-0.000002	0.000000	0.000000
47.917110	14.264486	19.963195	1.797703	-2.593083	2.451269	0.000000	-0.306173	0.000000	0.000005	-0.000002	0.000000	0.000000
48.363070	12.873275	22.104435	1.332938	-2.188149	2.330021	0.000000	-0.237876	0.000000	0.000005	-0.000002	0.000000	0.000000
48.804030	11.877933	23.818831	0.932841	-1.684930	2.239587	0.000000	-0.172685	0.000000	0.000004	-0.000002	0.000000	0.000000
49.244990	11.215389	25.053800	0.575362	-1.105048	2.177440	0.000000	-0.109460	0.000000	0.000003	-0.000002	0.000000	0.000000
49.685950	10.855374	25.753150	0.244171	-0.474888	2.142870	0.000000	-0.047483	0.000000	0.000002	-0.000001	0.000000	0.000000
50.128160	10.781562	25.884778	-0.049543	0.113355	2.135496	0.000000	0.008717	0.000000	0.000002	-0.000001	0.000000	0.000000
50.425482	10.819242	25.820831	-0.077188	0.101721	2.138089	0.000000	0.008717	0.000000	0.000001	-0.000001	0.000000	0.000000
50.758816	10.881031	25.757365	-0.108181	0.088678	2.140995	0.000000	0.008717	0.000000	0.000001	-0.000001	0.000000	0.000000
51.092149	10.963482	25.702594	-0.139173	0.075635	2.143901	0.000000	0.008717	0.000000	0.000000	-0.000001	0.000000	0.000000
51.426732	11.066797	25.656883	-0.080501	-0.145599	2.146797	0.000000	-0.008699	0.000000	-0.000000	-0.000001	0.000000	0.000000
51.724055	11.122706	25.746981	-0.080265	-0.220573	2.144211	0.000000	-0.013957	0.000000	-0.000001	-0.000001	0.000000	0.000000
52.165015	11.338734	25.655053	-0.411497	0.428252	2.151645	0.000000	0.047705	0.000000	-0.000001	-0.000001	0.000000	0.000000
52.605975	11.854036	24.997353	-0.761529	1.057591	2.186364	0.000000	0.109911	0.000000	-0.000002	-0.000001	0.000000	0.000000
53.046935	12.692155	23.803805	-1.146352	1.638811	2.248763	0.000000	0.173369	0.000000	-0.000002	-0.000002	0.000000	0.000000
53.487895	13.891383	22.128716	-1.583550	2.145466	2.339552	0.000000	0.238801	0.000000	-0.000003	-0.000002	0.000000	0.000000
53.933855	15.527068	20.023256	-2.097322	2.555842	2.461271	0.000000	0.307352	0.000000	-0.000004	-0.000002	0.000000	0.000000
54.482915	17.632991	17.654047	-1.715481	1.784655	2.609847	0.000000	0.233047	0.000000	-0.000005	-0.000002	0.000000	0.000000
55.031975	19.250183	16.057340	-1.212468	1.140586	2.716427	0.000000	0.154609	0.000000	-0.000006	-0.000001	0.000000	0.000000
55.581035	20.264414	15.119403	-0.623812	0.577757	2.779123	0.000000	0.073428	0.000000	-0.000006	-0.000001	0.000000	0.000000
56.130095	20.604044	14.773430	0.008907	0.056081	2.796822	0.000000	-0.009055	0.000000	-0.000007	-0.000001	0.000000	0.000000
56.428668	20.635209	14.722979	-0.059451	0.074292	2.796301	0.000000	-0.001747	0.000000	-0.000007	-0.000001	0.000000	0.000000
56.762001	20.680246	14.681039	-0.075661	0.051527	2.795719	0.000000	-0.001747	0.000000	-0.000008	-0.000001	0.000000	0.000000
57.095334	20.736091	14.654276	-0.091872	0.028762	2.795136	0.000000	-0.001747	0.000000	-0.000008	-0.000001	0.000000	0.000000
57.429918	20.803013	14.642675	-0.108144	0.005911	2.794552	0.000000	-0.001747	0.000000	-0.000008	-0.000001	0.000000	0.000000
57.727240	20.871619	14.645198	-0.177141	0.023873	2.794033	0.000000	0.005554	0.000000	-0.000009	-0.000001	0.000000	0.000000
58.276300	20.710085	14.900176	0.469599	-0.491005	2.774443	0.000000	-0.076809	0.000000	-0.000009	-0.000001	0.000000	0.000000
58.825360	19.852447	15.736325	1.083168	-1.040856	2.709939	0.000000	-0.157809	0.000000	-0.000009	-0.000000	0.000000	0.000000
59.374420	18.359282	17.213199	1.620227	-1.664845	2.601665	0.000000	-0.236009	0.000000	-0.000010	-0.000000	0.000000	0.000000
59.923480	16.336061	19.435995	2.042842	-2.407418	2.451541	0.000000	-0.310024	0.000000	-0.000010	0.000000	0.000000	0.000000
60.369440	14.752525	21.411614	1.520580	-2.003918	2.328573	0.000000	-0.241742	0.000000	-0.000010	-0.000000	0.000000	0.000000
60.810400	13.613626	22.967304	1.071990	-1.510618	2.236423	0.000000	-0.176610	0.000000	-0.000010	-0.000000	0.000000	0.000000
61.251360	12.847337	24.055856	0.672376	-0.948586	2.172523	0.000000	-0.113490	0.000000	-0.000010	-0.000001	0.000000	0.000000
61.692320	12.418649	24.627743	0.303481	-0.343393	2.136145	0.000000	-0.051662	0.000000	-0.000010	-0.000001	0.000000	0.000000
62.134530	12.308030	24.656402	-0.021464	0.216898	2.126880	0.000000	0.004361	0.000000	-0.000011	-0.000001	0.000000	0.000000
62.431853	12.327979	24.531179	-0.045632	0.204272	2.128177	0.000000	0.004361	0.000000	-0.000011	-0.000001	0.000000	0.000000
62.765186	12.367432	24.399716	-0.072727	0.190117	2.129631	0.000000	0.004361	0.000000	-0.000011	-0.000001	0.000000	0.000000
63.098520	12.424948	24.277689	-0.099822	0.175962	2.131085	0.000000	0.004361	0.000000	-0.000012	-0.000001	0.000000	0.000000
63.433103	12.500845	24.164695	-0.127019	0.161754	2.132544	0.000000	0.004361	0.000000	-0.000012	-0.000001	0.000000	0.000000
63.730426	12.583562	24.072263	-0.120324	0.090088	2.133841	0.000000	-0.000873	0.000000	-0.000012	-0.000001	0.000000	0.000000
64.171386	12.849947	23.727711	-0.486070	0.688306	2.146997	0.000000	0.060596	0.000000	-0.000013	-0.000001	0.000000	0.000000
64.612346	13.447426	22.867426	-0.874023	1.255207	2.187384	0.000000	0.122755	0.000000	-0.000013	-0.000002	0.000000	0.000000
65.053306	14.403298	21.530550	-1.301907	1.764997	2.255463	0.000000	0.186312	0.000000	-0.000014	-0.000002	0.000000	0.000000
65.494266	15.761232	19.777910	-1.789272	2.194481	2.352009	0.000000	0.251991	0.000000	-0.000015	-0.000002	0.000000	0.000000
65.940226	17.606430	17.664452	-2.363075	2.524870	2.479694	0.000000	0.320942	0.000000	-0.000016	-0.000003	0.000000	0.000000
66.489286	19.971886	15.300186	-1.919617	1.806573	2.635547	0.000000	0.245923	0.000000	-0.000018	-0.000002	0.000000	0.000000
67.038346	21.772582	13.649830	-1.340568	1.216955	2.748948	0.000000	0.166541	0.000000	-0.000019	-0.000002	0.000000	0.000000
67.587406	22.881325	12.595831	-0.666828	0.714018	2.817888	0.000000	0.084205	0.000000	-0.000020	-0.000001	0.000000	0.000000
68.136466	23.219800	12.063117	0.054014	0.261939	2.841143	0.000000	0.000376	0.000000	-0.000020	-0.000000	0.000000	0.000000
68.435038	23.227620	11.895904	-0.019525	0.266580	2.843472	0.000000	0.007801	0.000000	-0.000020	-0.000000	0.000000	0.000000
68.768372	23.245422	11.728187	-0.033881	0.236568	2.846072	0.000000	0.007801	0.000000	-0.000020	-0.000000	0.000000	0.000000
69.101705	23.272794	11.580479	-0.048237	0.206556	2.848673	0.000000	0.007801	0.000000	-0.000021	-0.000000	0.000000	0.000000
69.436288	23.309894	11.452338	-0.062647	0.176431	2.851283	0.000000	0.007801	0.000000	-0.000021	-0.000000	0.000000	0.000000
69.733611	23.350955	11.355383	-0.136475	0.179336	2.853603	0.000000	0.015258	0.000000	-0.000021	-0.000001	0.000000	0.000000
70.282671	23.099775	11.385888	0.591239	-0.235223	2.838796	0.000000	-0.069112	0.000000	-0.000021	0.000000	0.000000	0.000000
