#ParticleID	Turn	x[m]	xp	y[m]	yp	z[m]	dE[GeV]# s	beta_x	beta_y	alpha_x	alpha_y	D_x	D_y	D_px	D_py	orbit_x	orbit_px	orbit_y	orbit_py
0.300000	11.820266	24.991766	-0.011824	-0.027511	2.618109	0.000000	0.000013	0.000000	0.000000	0.000001	0.000000	0.000000
0.601250	11.835069	25.011975	-0.037314	-0.039574	2.618113	0.000000	0.000013	0.000000	0.000001	0.000001	0.000000	0.000000
0.898573	11.864737	25.039047	-0.033375	-0.112882	2.618117	0.000000	-0.006407	0.000000	0.000001	0.000001	0.000000	0.000000
1.339533	12.046381	24.860864	-0.380115	0.515424	2.631585	0.000000	0.067550	0.000000	0.000001	0.000001	0.000000	0.000000
1.780493	12.540294	24.136829	-0.744221	1.120279	2.677803	0.000000	0.142277	0.000000	0.000001	0.000001	0.000000	0.000000
2.221453	13.369042	22.899885	-1.142328	1.674162	2.757299	0.000000	0.218624	0.000000	0.000002	0.000001	0.000000	0.000000
2.662413	14.570490	21.206312	-1.592625	2.151872	2.870977	0.000000	0.297461	0.000000	0.000002	0.000001	0.000000	0.000000
3.108373	16.220294	19.108329	-2.119978	2.532805	3.021993	0.000000	0.380176	0.000000	0.000002	0.000001	0.000000	0.000000
3.657433	18.335874	16.752026	-1.710307	1.784047	3.205461	0.000000	0.287138	0.000000	0.000003	0.000001	0.000000	0.000000
4.206493	19.932181	15.143763	-1.179829	1.162363	3.336369	0.000000	0.189007	0.000000	0.000003	0.000001	0.000000	0.000000
4.755553	20.896462	14.168987	-0.566013	0.623471	3.412396	0.000000	0.087523	0.000000	0.000003	0.000001	0.000000	0.000000
5.304613	21.160603	13.758266	0.087783	0.128988	3.432194	0.000000	-0.015513	0.000000	0.000004	0.000000	0.000000	0.000000
5.603185	21.145416	13.666431	0.018371	0.142643	3.430240	0.000000	-0.006545	0.000000	0.000004	0.000000	0.000000	0.000000
5.936519	21.138425	13.579631	0.002602	0.117756	3.428058	0.000000	-0.006545	0.000000	0.000004	0.000000	0.000000	0.000000
6.269852	21.141947	13.509423	-0.013168	0.092869	3.425876	0.000000	-0.006545	0.000000	0.000004	0.000000	0.000000	0.000000
6.604435	21.156054	13.455636	-0.028996	0.067889	3.423686	0.000000	-0.006545	0.000000	0.000004	0.000000	0.000000	0.000000
6.901758	21.177478	13.421866	-0.098392	0.080758	3.421740	0.000000	0.002395	0.000000	0.000004	0.000000	0.000000	0.000000
7.450818	20.924569	13.593877	0.556288	-0.395891	3.394853	0.000000	-0.100188	0.000000	0.000004	0.000000	0.000000	0.000000
7.999878	19.970165	14.301627	1.171675	-0.900738	3.312047	0.000000	-0.200993	0.000000	0.000005	0.000000	0.000000	0.000000
8.548938	18.381679	15.595526	1.704300	-1.469744	3.174793	0.000000	-0.298233	0.000000	0.000005	-0.000000	0.000000	0.000000
9.097998	16.271314	17.567737	2.116542	-2.143435	2.985523	0.000000	-0.390184	0.000000	0.000005	-0.000000	0.000000	0.000000
9.543958	14.624799	19.325101	1.588654	-1.780541	2.829823	0.000000	-0.308476	0.000000	0.000004	-0.000000	0.000000	0.000000
9.984918	13.427156	20.705446	1.137638	-1.337865	2.711044	0.000000	-0.230766	0.000000	0.000005	0.000000	0.000000	0.000000
10.425878	12.602938	21.666951	0.738598	-0.834318	2.625921	0.000000	-0.155683	0.000000	0.000005	0.000000	0.000000	0.000000
10.866838	12.114487	22.165867	0.373303	-0.292809	2.573484	0.000000	-0.082374	0.000000	0.000005	0.000000	0.000000	0.000000
11.309048	11.939353	22.178976	0.054235	0.207575	2.553115	0.000000	-0.016264	0.000000	0.000005	0.000000	0.000000	0.000000
11.606371	11.914528	22.059700	0.029259	0.193592	2.548279	0.000000	-0.016264	0.000000	0.000005	0.000000	0.000000	0.000000
12.086371	11.905794	21.884688	-0.011062	0.171017	2.540472	0.000000	-0.016264	0.000000	0.000005	0.000000	0.000000	0.000000
12.566371	11.935768	21.731348	-0.051384	0.148442	2.532665	0.000000	-0.016264	0.000000	0.000005	0.000000	0.000000	0.000000
13.046371	12.004451	21.599679	-0.091705	0.125868	2.524858	0.000000	-0.016264	0.000000	0.000006	0.000000	0.000000	0.000000
13.526371	12.111842	21.489682	-0.132027	0.103293	2.517051	0.000000	-0.016264	0.000000	0.000006	0.000000	0.000000	0.000000
14.007621	12.258373	21.401154	-0.172453	0.080660	2.509224	0.000000	-0.016264	0.000000	0.000006	0.000000	0.000000	0.000000
14.304943	12.368348	21.357348	-0.167100	0.014305	2.504388	0.000000	-0.022405	0.000000	0.000006	0.000000	0.000000	0.000000
14.745903	12.674327	21.110964	-0.529425	0.542314	2.510140	0.000000	0.048521	0.000000	0.000006	0.000001	0.000000	0.000000
15.186863	13.309266	20.408062	-0.915938	1.045647	2.547260	0.000000	0.119999	0.000000	0.000007	0.000001	0.000000	0.000000
15.627823	14.302173	19.280624	-1.344298	1.501405	2.616170	0.000000	0.192845	0.000000	0.000007	0.000001	0.000000	0.000000
16.068783	15.698411	17.779946	-1.834074	1.888850	2.717655	0.000000	0.267886	0.000000	0.000007	0.000001	0.000000	0.000000
16.514743	17.585426	15.952807	-2.412402	2.191100	2.854566	0.000000	0.346442	0.000000	0.000008	0.000001	0.000000	0.000000
17.063803	20.008931	13.912581	-1.975384	1.546686	3.021050	0.000000	0.259103	0.000000	0.000009	0.000001	0.000000	0.000000
17.612863	21.872613	12.515714	-1.398835	1.012438	3.138247	0.000000	0.167170	0.000000	0.000009	0.000001	0.000000	0.000000
18.161923	23.044830	11.662709	-0.723479	0.550304	3.204077	0.000000	0.072271	0.000000	0.000009	0.000000	0.000000	0.000000
18.710983	23.442783	11.292810	0.002980	0.127368	3.217373	0.000000	-0.023910	0.000000	0.000009	0.000000	0.000000	0.000000
19.009556	23.481392	11.207223	-0.071046	0.129782	3.212744	0.000000	-0.015505	0.000000	0.000010	0.000000	0.000000	0.000000
19.342889	23.533512	11.130783	-0.085313	0.099538	3.207575	0.000000	-0.015505	0.000000	0.000010	0.000000	0.000000	0.000000
19.676223	23.595143	11.074506	-0.099581	0.069294	3.202407	0.000000	-0.015505	0.000000	0.000010	0.000000	0.000000	0.000000
20.010806	23.666864	11.038157	-0.231160	0.093627	3.197239	0.000000	0.000336	0.000000	0.000010	0.000000	0.000000	0.000000
20.308129	23.808257	10.990561	-0.306596	0.095169	3.197339	0.000000	0.008690	0.000000	0.000010	0.000000	0.000000	0.000000
20.857189	23.734307	11.108367	0.440484	-0.310995	3.175889	0.000000	-0.086710	0.000000	0.000010	-0.000000	0.000000	0.000000
21.406249	22.852273	11.681663	1.156450	-0.739310	3.102404	0.000000	-0.180572	0.000000	0.000010	-0.000000	0.000000	0.000000
21.955309	21.224457	12.751284	1.790731	-1.220284	2.978188	0.000000	-0.271231	0.000000	0.000009	-0.000001	0.000000	0.000000
22.504369	18.965840	14.393417	2.298523	-1.788177	2.805444	0.000000	-0.357078	0.000000	0.000009	-0.000001	0.000000	0.000000
22.950329	17.185897	15.867687	1.706826	-1.503710	2.663497	0.000000	-0.279863	0.000000	0.000008	-0.000001	0.000000	0.000000
23.391289	15.909911	17.043081	1.197806	-1.151681	2.556412	0.000000	-0.206290	0.000000	0.000008	-0.000001	0.000000	0.000000
23.832249	15.057103	17.883633	0.743511	-0.747252	2.481222	0.000000	-0.135066	0.000000	0.000008	-0.000000	0.000000	0.000000
24.273209	14.588510	18.351098	0.323184	-0.308823	2.437070	0.000000	-0.065380	0.000000	0.000008	-0.000000	0.000000	0.000000
24.715418	14.482843	18.423961	-0.046950	0.098411	2.423450	0.000000	-0.002382	0.000000	0.000008	0.000000	0.000000	0.000000
25.012741	14.516879	18.370287	-0.067525	0.082117	2.422741	0.000000	-0.002382	0.000000	0.000008	0.000000	0.000000	0.000000
25.346075	14.569584	18.321631	-0.090591	0.063849	2.421948	0.000000	-0.002382	0.000000	0.000008	0.000000	0.000000	0.000000
25.679408	14.637667	18.285155	-0.113658	0.045581	2.421154	0.000000	-0.002382	0.000000	0.000008	0.000000	0.000000	0.000000
26.013991	14.721171	18.261158	-0.017383	-0.120898	2.420332	0.000000	-0.022017	0.000000	0.000008	-0.000000	0.000000	0.000000
26.311314	14.737514	18.337961	-0.001448	-0.182385	2.413786	0.000000	-0.027936	0.000000	0.000008	-0.000000	0.000000	0.000000
26.752274	14.920374	18.299912	-0.414810	0.268345	2.416579	0.000000	0.040616	0.000000	0.000008	0.000000	0.000000	0.000000
27.193234	15.474733	17.868240	-0.847124	0.706865	2.449674	0.000000	0.109631	0.000000	0.000008	0.000000	0.000000	0.000000
27.634194	16.425919	17.062588	-1.318140	1.113223	2.513447	0.000000	0.179894	0.000000	0.000008	0.000001	0.000000	0.000000
28.075154	17.817390	15.919612	-1.849379	1.468931	2.608626	0.000000	0.252207	0.000000	0.000008	0.000001	0.000000	0.000000
28.521114	19.736894	14.474101	-2.470073	1.758716	2.737897	0.000000	0.327835	0.000000	0.000009	0.000001	0.000000	0.000000
29.070174	22.176594	12.863458	-1.947037	1.192056	2.895231	0.000000	0.244425	0.000000	0.000009	0.000001	0.000000	0.000000
29.619234	23.962557	11.825078	-1.286471	0.710303	3.005509	0.000000	0.156680	0.000000	0.000010	0.000000	0.000000	0.000000
30.168294	24.968629	11.285000	-0.535036	0.279144	3.066774	0.000000	0.066156	0.000000	0.000010	0.000000	0.000000	0.000000
30.717354	25.123749	11.204756	0.254191	-0.132133	3.077940	0.000000	-0.025542	0.000000	0.000010	-0.000000	0.000000	0.000000
31.015927	25.014830	11.274218	0.176246	-0.129788	3.072715	0.000000	-0.017500	0.000000	0.000010	-0.000000	0.000000	0.000000
31.349260	24.901912	11.370765	0.162507	-0.159852	3.066882	0.000000	-0.017500	0.000000	0.000010	-0.000000	0.000000	0.000000
31.682593	24.798154	11.487354	0.148767	-0.189916	3.061048	0.000000	-0.017500	0.000000	0.000010	-0.000000	0.000000	0.000000
32.017177	24.703218	11.624536	0.134977	-0.220093	3.055193	0.000000	-0.017500	0.000000	0.000009	-0.000000	0.000000	0.000000
32.314499	24.626598	11.763386	0.058382	-0.216176	3.049990	0.000000	-0.009532	0.000000	0.000009	-0.000000	0.000000	0.000000
32.863559	24.140581	12.240036	0.821560	-0.657068	3.019871	0.000000	-0.100017	0.000000	0.000009	-0.000000	0.000000	0.000000
33.412619	22.843563	13.223544	1.526707	-1.144762	2.940485	0.000000	-0.188728	0.000000	0.000009	-0.000001	0.000000	0.000000
33.961679	20.827161	14.783961	2.124015	-1.713994	2.813241	0.000000	-0.274091	0.000000	0.000008	-0.000001	0.000000	0.000000
34.510739	18.233804	17.032435	2.571293	-2.405311	2.640394	0.000000	-0.354593	0.000000	0.000008	-0.000001	0.000000	0.000000
34.956699	16.217410	19.043586	1.966374	-2.085570	2.498604	0.000000	-0.281657	0.000000	0.000007	-0.000001	0.000000	0.000000
35.397659	14.713851	20.706714	1.456302	-1.671684	2.389787	0.000000	-0.212357	0.000000	0.000007	-0.000001	0.000000	0.000000
35.838619	13.629205	21.969765	1.012766	-1.181738	2.310968	0.000000	-0.145475	0.000000	0.000006	-0.000001	0.000000	0.000000
36.279579	12.913919	22.775273	0.615499	-0.638024	2.261248	0.000000	-0.080251	0.000000	0.000006	-0.000001	0.000000	0.000000
36.721789	12.534620	23.086891	0.276984	-0.121947	2.240033	0.000000	-0.021433	0.000000	0.000006	-0.000000	0.000000	0.000000
37.019112	12.377507	23.163292	0.251444	-0.135017	2.233661	0.000000	-0.021433	0.000000	0.000006	-0.000000	0.000000	0.000000
37.352445	12.219422	23.258187	0.222811	-0.149669	2.226517	0.000000	-0.021433	0.000000	0.000006	-0.000000	0.000000	0.000000
37.685779	12.080425	23.362851	0.194178	-0.164322	2.219373	0.000000	-0.021433	0.000000	0.000005	-0.000000	0.000000	0.000000
38.020362	11.960104	23.477731	0.165437	-0.179030	2.212202	0.000000	-0.021433	0.000000	0.000005	-0.000000	0.000000	0.000000
38.317684	11.869322	23.588076	0.169003	-0.249942	2.205829	0.000000	-0.026842	0.000000	0.000005	-0.000000	0.000000	0.000000
38.758644	11.871625	23.547246	-0.174246	0.342184	2.207922	0.000000	0.036340	0.000000	0.000005	-0.000000	0.000000	0.000000
39.199604	12.178999	22.989104	-0.525456	0.918742	2.237940	0.000000	0.099936	0.000000	0.000005	-0.000000	0.000000	0.000000
39.640564	12.805487	21.939045	-0.900672	1.453498	2.296225	0.000000	0.164670	0.000000	0.000005	-0.000000	0.000000	0.000000
40.081524	13.779712	20.444846	-1.317037	1.922121	2.383441	0.000000	0.231280	0.000000	0.000005	-0.000000	0.000000	0.000000
40.527484	15.163755	18.551923	-1.797400	2.304570	2.502053	0.000000	0.300929	0.000000	0.000005	0.000000	0.000000	0.000000
41.076544	16.930044	16.424792	-1.400491	1.592431	2.646750	0.000000	0.225366	0.000000	0.000005	-0.000000	0.000000	0.000000
41.625604	18.203246	15.013173	-0.904658	0.993719	2.748798	0.000000	0.145805	0.000000	0.000005	-0.000000	0.000000	0.000000
42.174664	18.893428	14.216519	-0.344925	0.465786	2.806387	0.000000	0.063658	0.000000	0.000004	-0.000000	0.000000	0.000000
42.723724	18.951839	13.978088	0.239172	-0.028969	2.818495	0.000000	-0.019618	0.000000	0.000004	-0.000000	0.000000	0.000000
43.022297	18.843460	13.979957	0.173335	-0.013810	2.814837	0.000000	-0.012254	0.000000	0.000004	-0.000000	0.000000	0.000000
43.502297	18.689653	14.009698	0.147096	-0.048151	2.808955	0.000000	-0.012254	0.000000	0.000004	-0.000000	0.000000	0.000000
43.982297	18.561034	14.072407	0.120858	-0.082493	2.803073	0.000000	-0.012254	0.000000	0.000004	-0.000000	0.000000	0.000000
44.462297	18.457605	14.168084	0.094620	-0.116834	2.797192	0.000000	-0.012254	0.000000	0.000003	-0.000000	0.000000	0.000000
44.942297	18.379365	14.296728	0.068381	-0.151175	2.791310	0.000000	-0.012254	0.000000	0.000003	-0.000000	0.000000	0.000000
45.423547	18.326435	14.458625	-0.048725	-0.113969	2.785430	0.000000	0.001547	0.000000	0.000003	-0.000000	0.000000	0.000000
45.720870	18.360244	14.532590	-0.112958	-0.096830	2.785890	0.000000	0.008826	0.000000	0.000003	-0.000000	0.000000	0.000000
46.269930	18.175131	14.920023	0.448106	-0.612964	2.768164	0.000000	-0.073303	0.000000	0.000003	-0.000001	0.000000	0.000000
46.818990	17.387717	15.894738	0.977517	-1.172758	2.705634	0.000000	-0.154131	0.000000	0.000002	-0.000001	0.000000	0.000000
47.368050	16.053621	17.526162	1.437881	-1.816085	2.599412	0.000000	-0.232226	0.000000	0.000002	-0.000001	0.000000	0.000000
47.917110	14.267077	19.930498	1.796681	-2.588768	2.451380	0.000000	-0.306201	0.000000	0.000002	-0.000001	0.000000	0.000000
48.363070	12.876752	22.068200	1.331964	-2.184563	2.330119	0.000000	-0.237901	0.000000	0.000001	-0.000001	0.000000	0.000000
48.804030	11.882264	23.779816	0.931870	-1.682234	2.239674	0.000000	-0.172708	0.000000	0.000001	-0.000001	0.000000	0.000000
49.244990	11.220591	25.012846	0.574350	-1.103365	2.177517	0.000000	-0.109481	0.000000	0.000001	-0.000001	0.000000	0.000000
49.685950	10.861503	25.711187	0.243071	-0.474294	2.142938	0.000000	-0.047502	0.000000	0.000000	-0.000001	0.000000	0.000000
50.128160	10.788722	25.842785	-0.050763	0.112934	2.135556	0.000000	0.008700	0.000000	0.000000	-0.000001	0.000000	0.000000
50.425482	10.827122	25.779094	-0.078393	0.101282	2.138143	0.000000	0.008700	0.000000	-0.000000	-0.000001	0.000000	0.000000
50.758816	10.889710	25.715926	-0.109369	0.088219	2.141043	0.000000	0.008700	0.000000	-0.000000	-0.000001	0.000000	0.000000
51.092149	10.972947	25.661468	-0.140345	0.075156	2.143943	0.000000	0.008700	0.000000	-0.000001	-0.000001	0.000000	0.000000
51.426732	11.077040	25.616082	-0.081573	-0.145766	2.146832	0.000000	-0.008717	0.000000	-0.000001	-0.000001	0.000000	0.000000
51.724055	11.133580	25.706286	-0.081290	-0.220660	2.144241	0.000000	-0.013975	0.000000	-0.000001	-0.000001	0.000000	0.000000
52.165015	11.350628	25.614910	-0.412795	0.427092	2.151667	0.000000	0.047688	0.000000	-0.000001	-0.000001	0.000000	0.000000
52.605975	11.867217	24.958687	-0.763159	1.055412	2.186378	0.000000	0.109894	0.000000	-0.000001	-0.000001	0.000000	0.000000
53.046935	12.706948	23.767477	-1.148390	1.635711	2.248769	0.000000	0.173352	0.000000	-0.000002	-0.000001	0.000000	0.000000
53.487895	13.908186	22.095477	-1.586088	2.141586	2.339551	0.000000	0.238784	0.000000	-0.000002	-0.000001	0.000000	0.000000
53.933855	15.546403	19.993763	-2.100481	2.551358	2.461262	0.000000	0.307335	0.000000	-0.000002	-0.000001	0.000000	0.000000
54.482915	17.655539	17.628833	-1.718139	1.781301	2.609827	0.000000	0.233031	0.000000	-0.000003	-0.000001	0.000000	0.000000
55.031975	19.275288	16.035300	-1.214437	1.138123	2.716399	0.000000	0.154593	0.000000	-0.000003	-0.000001	0.000000	0.000000
55.581035	20.291236	15.099661	-0.624952	0.576011	2.779086	0.000000	0.073413	0.000000	-0.000004	-0.000001	0.000000	0.000000
56.130095	20.631624	14.755271	0.008676	0.054926	2.796777	0.000000	-0.009068	0.000000	-0.000004	-0.000000	0.000000	0.000000
56.428668	20.662964	14.705544	-0.059734	0.073069	2.796252	0.000000	-0.001761	0.000000	-0.000004	-0.000000	0.000000	0.000000
56.762001	20.708183	14.664428	-0.075923	0.050281	2.795665	0.000000	-0.001761	0.000000	-0.000004	-0.000000	0.000000	0.000000
57.095334	20.764196	14.638504	-0.092113	0.027492	2.795078	0.000000	-0.001761	0.000000	-0.000004	-0.000000	0.000000	0.000000
57.429918	20.831271	14.627760	-0.108363	0.004619	2.794489	0.000000	-0.001761	0.000000	-0.000004	-0.000000	0.000000	0.000000
57.727240	20.900003	14.631057	-0.177414	0.022522	2.793966	0.000000	0.005540	0.000000	-0.000005	-0.000000	0.000000	0.000000
58.276300	20.738245	14.887303	0.470277	-0.491977	2.774368	0.000000	-0.076820	0.000000	-0.000005	-0.000000	0.000000	0.000000
58.825360	19.879359	15.724344	1.084749	-1.041519	2.709858	0.000000	-0.157818	0.000000	-0.000005	-0.000000	0.000000	0.000000
59.374420	18.384010	17.201798	1.622600	-1.665245	2.601580	0.000000	-0.236016	0.000000	-0.000005	0.000000	0.000000	0.000000
59.923480	16.357823	19.424903	2.045839	-2.407584	2.451454	0.000000	-0.310027	0.000000	-0.000005	0.000000	0.000000	0.000000
60.369440	14.771911	21.400845	1.522929	-2.004473	2.328483	0.000000	-0.241748	0.000000	-0.000005	0.000000	0.000000	0.000000
60.810400	13.631183	22.957186	1.073805	-1.511534	2.236330	0.000000	-0.176618	0.000000	-0.000005	-0.000000	0.000000	0.000000
61.251360	12.863498	24.046691	0.673739	-0.949821	2.172425	0.000000	-0.113501	0.000000	-0.000005	-0.000000	0.000000	0.000000
61.692320	12.433784	24.619789	0.304455	-0.344892	2.136042	0.000000	-0.051676	0.000000	-0.000005	-0.000000	0.000000	0.000000
62.134530	12.322459	24.649865	-0.020801	0.215223	2.126770	0.000000	0.004345	0.000000	-0.000005	-0.000000	0.000000	0.000000
62.431853	12.342005	24.525636	-0.044940	0.202602	2.128062	0.000000	0.004345	0.000000	-0.000005	-0.000000	0.000000	0.000000
62.765186	12.380986	24.395284	-0.072002	0.188453	2.129511	0.000000	0.004345	0.000000	-0.000005	-0.000000	0.000000	0.000000
63.098520	12.438008	24.274365	-0.099065	0.174304	2.130959	0.000000	0.004345	0.000000	-0.000005	-0.000000	0.000000	0.000000
63.433103	12.513388	24.162478	-0.126229	0.160102	2.132413	0.000000	0.004345	0.000000	-0.000006	-0.000000	0.000000	0.000000
63.730426	12.595626	24.071027	-0.119478	0.088449	2.133705	0.000000	-0.000888	0.000000	-0.000006	-0.000000	0.000000	0.000000
64.171386	12.861379	23.727922	-0.485477	0.686677	2.146853	0.000000	0.060577	0.000000	-0.000006	-0.000001	0.000000	0.000000
64.612346	13.458437	22.869042	-0.873656	1.253662	2.187231	0.000000	0.122733	0.000000	-0.000006	-0.000001	0.000000	0.000000
65.053306	14.414078	21.533465	-1.301749	1.763606	2.255299	0.000000	0.186286	0.000000	-0.000007	-0.000001	0.000000	0.000000
65.494266	15.771962	19.781960	-1.789316	2.193307	2.351832	0.000000	0.251960	0.000000	-0.000007	-0.000001	0.000000	0.000000
65.940226	17.617291	17.669429	-2.363323	2.523970	2.479502	0.000000	0.320907	0.000000	-0.000008	-0.000001	0.000000	0.000000
66.489286	19.982777	15.306138	-1.919421	1.805688	2.635336	0.000000	0.245894	0.000000	-0.000008	-0.000001	0.000000	0.000000
67.038346	21.783018	13.656775	-1.339940	1.216020	2.748723	0.000000	0.166519	0.000000	-0.000009	-0.000001	0.000000	0.000000
67.587406	22.890855	12.603861	-0.665813	0.712967	2.817652	0.000000	0.084191	0.000000	-0.000009	-0.000000	0.000000	0.000000
68.136466	23.228035	12.072398	0.055344	0.260697	2.840901	0.000000	0.000369	0.000000	-0.000009	-0.000000	0.000000	0.000000
68.435038	23.235069	11.905902	-0.018206	0.265398	2.843228	0.000000	0.007793	0.000000	-0.000009	-0.000000	0.000000	0.000000
68.768372	23.251990	11.738960	-0.032557	0.235429	2.845825	0.000000	0.007793	0.000000	-0.000009	-0.000000	0.000000	0.000000
69.101705	23.278478	11.591997	-0.046908	0.205459	2.848423	0.000000	0.007793	0.000000	-0.000009	-0.000000	0.000000	0.000000
69.436288	23.314686	11.464576	-0.061312	0.175378	2.851030	0.000000	0.007793	0.000000	-0.000009	-0.000000	0.000000	0.000000
69.733611	23.354951	11.368236	-0.135140	0.178351	2.853347	0.000000	0.015249	0.000000	-0.000009	-0.000000	0.000000	0.000000
70.282671	23.102245	11.400024	0.592667	-0.236588	2.838538	0.000000	-0.069113	0.000000	-0.000009	0.000000	0.000000	0.000000
