#ParticleID	Turn	x[m]	xp	y[m]	yp	z[m]	dE[GeV]# s	beta_x	beta_y	alpha_x	alpha_y	D_x	D_y	D_px	D_py	orbit_x	orbit_px	orbit_y	orbit_py
0.300000	11.831059	24.950830	-0.013250	-0.027755	2.618271	0.000000	-0.000049	0.000000	0.000000	0.000000	0.000000	0.000000
0.601250	11.846714	24.971192	-0.038717	-0.039838	2.618257	0.000000	-0.000049	0.000000	0.000000	0.000000	0.000000	0.000000
0.898573	11.877210	24.998427	-0.034726	-0.113067	2.618242	0.000000	-0.006470	0.000000	0.000000	0.000000	0.000000	0.000000
1.339533	12.060180	24.820881	-0.381784	0.514170	2.631683	0.000000	0.067491	0.000000	0.000000	0.000000	0.000000	0.000000
1.780493	12.555734	24.098404	-0.746286	1.118013	2.677876	0.000000	0.142220	0.000000	0.000000	0.000000	0.000000	0.000000
2.221453	13.386512	22.863868	-1.144883	1.670987	2.757347	0.000000	0.218568	0.000000	0.000000	0.000000	0.000000	0.000000
2.662413	14.590470	21.173444	-1.595786	2.147933	2.871001	0.000000	0.297407	0.000000	0.000001	0.000000	0.000000	0.000000
3.108373	16.243420	19.079252	-2.123897	2.528279	3.021993	0.000000	0.380122	0.000000	0.000001	0.000000	0.000000	0.000000
3.657433	18.363006	16.727276	-1.713642	1.780647	3.205431	0.000000	0.287084	0.000000	0.000001	0.000000	0.000000	0.000000
4.206493	19.962545	15.122243	-1.182344	1.159846	3.336311	0.000000	0.188954	0.000000	0.000001	0.000000	0.000000	0.000000
4.755553	20.929053	14.149830	-0.567532	0.621659	3.412310	0.000000	0.087473	0.000000	0.000001	0.000000	0.000000	0.000000
5.304613	21.194261	13.740773	0.087369	0.127751	3.432081	0.000000	-0.015560	0.000000	0.000001	0.000000	0.000000	0.000000
5.603185	21.179367	13.649710	0.017891	0.141342	3.430113	0.000000	-0.006593	0.000000	0.000001	0.000000	0.000000	0.000000
5.936519	21.172688	13.563785	0.002147	0.116434	3.427915	0.000000	-0.006593	0.000000	0.000001	0.000000	0.000000	0.000000
6.269852	21.176505	13.494465	-0.013597	0.091525	3.425718	0.000000	-0.006593	0.000000	0.000001	0.000000	0.000000	0.000000
6.604435	21.190891	13.441585	-0.029399	0.066523	3.423512	0.000000	-0.006593	0.000000	0.000001	0.000000	0.000000	0.000000
6.901758	21.212548	13.408633	-0.098866	0.079340	3.421552	0.000000	0.002347	0.000000	0.000001	0.000000	0.000000	0.000000
7.450818	20.959512	13.582002	0.556992	-0.396960	3.394641	0.000000	-0.100229	0.000000	0.000001	0.000000	0.000000	0.000000
7.999878	20.003705	14.290770	1.173508	-0.901534	3.311815	0.000000	-0.201027	0.000000	0.000001	0.000000	0.000000	0.000000
8.548938	18.412643	15.585419	1.707132	-1.470323	3.174544	0.000000	-0.298259	0.000000	0.000001	0.000000	0.000000	0.000000
9.097998	16.298708	17.558166	2.120173	-2.143839	2.985262	0.000000	-0.390201	0.000000	0.000001	-0.000000	0.000000	0.000000
9.543958	14.649323	19.316052	1.591483	-1.781303	2.829554	0.000000	-0.308501	0.000000	0.000001	-0.000000	0.000000	0.000000
9.984918	13.449487	20.697213	1.139801	-1.338948	2.710762	0.000000	-0.230797	0.000000	0.000001	0.000000	0.000000	0.000000
10.425878	12.623619	21.659797	0.740193	-0.835672	2.625623	0.000000	-0.155722	0.000000	0.000001	0.000000	0.000000	0.000000
10.866838	12.133984	22.160006	0.374402	-0.294374	2.573167	0.000000	-0.082421	0.000000	0.000001	0.000000	0.000000	0.000000
11.309048	11.958077	22.174566	0.054937	0.205880	2.552776	0.000000	-0.016319	0.000000	0.000001	0.000000	0.000000	0.000000
11.606371	11.932824	22.056296	0.029998	0.191904	2.547924	0.000000	-0.016319	0.000000	0.000002	0.000000	0.000000	0.000000
12.086371	11.923351	21.882899	-0.010263	0.169340	2.540091	0.000000	-0.016319	0.000000	0.000002	0.000000	0.000000	0.000000
12.566371	11.952530	21.731163	-0.050525	0.146776	2.532258	0.000000	-0.016319	0.000000	0.000002	0.000000	0.000000	0.000000
13.046371	12.020359	21.601089	-0.090786	0.124212	2.524424	0.000000	-0.016319	0.000000	0.000002	0.000000	0.000000	0.000000
13.526371	12.126839	21.492677	-0.131047	0.101648	2.516591	0.000000	-0.016319	0.000000	0.000002	0.000000	0.000000	0.000000
14.007621	12.272398	21.405728	-0.171414	0.079025	2.508738	0.000000	-0.016319	0.000000	0.000002	0.000000	0.000000	0.000000
14.304943	12.381743	21.362892	-0.165989	0.012661	2.503886	0.000000	-0.022459	0.000000	0.000002	0.000000	0.000000	0.000000
14.745903	12.686865	21.117880	-0.528584	0.540856	2.509611	0.000000	0.048454	0.000000	0.000002	0.000000	0.000000	0.000000
15.186863	13.321166	20.416157	-0.915328	1.044442	2.546698	0.000000	0.119918	0.000000	0.000002	0.000000	0.000000	0.000000
15.627823	14.313626	19.289650	-1.343891	1.500507	2.615570	0.000000	0.192748	0.000000	0.000002	0.000000	0.000000	0.000000
16.068783	15.709589	17.789613	-1.833852	1.888300	2.717009	0.000000	0.267774	0.000000	0.000002	0.000000	0.000000	0.000000
16.514743	17.596484	15.962798	-2.412355	2.190926	2.853866	0.000000	0.346312	0.000000	0.000002	0.000000	0.000000	0.000000
17.063803	20.019666	13.922860	-1.974846	1.546332	3.020286	0.000000	0.258997	0.000000	0.000003	0.000000	0.000000	0.000000
17.612863	21.882503	12.526490	-1.397844	1.011881	3.137432	0.000000	0.167089	0.000000	0.000003	0.000000	0.000000	0.000000
18.161923	23.053413	11.674227	-0.722105	0.549503	3.203226	0.000000	0.072217	0.000000	0.000003	0.000000	0.000000	0.000000
18.710983	23.449691	11.305367	0.004640	0.126265	3.216500	0.000000	-0.023936	0.000000	0.000003	0.000000	0.000000	0.000000
19.009556	23.487320	11.220406	-0.069402	0.128752	3.211863	0.000000	-0.015532	0.000000	0.000003	0.000000	0.000000	0.000000
19.342889	23.538341	11.144638	-0.083662	0.098552	3.206685	0.000000	-0.015532	0.000000	0.000003	0.000000	0.000000	0.000000
19.676223	23.598869	11.089003	-0.097922	0.068352	3.201508	0.000000	-0.015532	0.000000	0.000003	0.000000	0.000000	0.000000
20.010806	23.669478	11.053270	-0.229508	0.092803	3.196331	0.000000	0.000305	0.000000	0.000003	0.000000	0.000000	0.000000
20.308129	23.809886	11.006151	-0.304940	0.094429	3.196421	0.000000	0.008656	0.000000	0.000003	0.000000	0.000000	0.000000
20.857189	23.734096	11.125014	0.442158	-0.312190	3.174961	0.000000	-0.086714	0.000000	0.000003	-0.000000	0.000000	0.000000
21.406249	22.850268	11.699911	1.158024	-0.741046	3.101482	0.000000	-0.180546	0.000000	0.000003	-0.000000	0.000000	0.000000
21.955309	21.220831	12.771790	1.792094	-1.222685	2.977288	0.000000	-0.271175	0.000000	0.000003	-0.000000	0.000000	0.000000
22.504369	18.960880	14.417000	2.299578	-1.791413	2.804583	0.000000	-0.356994	0.000000	0.000003	-0.000000	0.000000	0.000000
22.950329	17.179999	15.893927	1.707882	-1.506406	2.662668	0.000000	-0.279801	0.000000	0.000003	-0.000000	0.000000	0.000000
23.391289	15.903064	17.071415	1.198912	-1.153717	2.555606	0.000000	-0.206248	0.000000	0.000003	-0.000000	0.000000	0.000000
23.832249	15.049240	17.913436	0.744716	-0.748534	2.480429	0.000000	-0.135045	0.000000	0.000003	-0.000000	0.000000	0.000000
24.273209	14.579521	18.381678	0.324545	-0.309294	2.436281	0.000000	-0.065380	0.000000	0.000002	-0.000000	0.000000	0.000000
24.715418	14.472558	18.454589	-0.045396	0.098695	2.422657	0.000000	-0.002400	0.000000	0.000002	0.000000	0.000000	0.000000
25.012741	14.505673	18.400737	-0.065982	0.082428	2.421943	0.000000	-0.002400	0.000000	0.000003	0.000000	0.000000	0.000000
25.346075	14.557355	18.351864	-0.089062	0.064189	2.421143	0.000000	-0.002400	0.000000	0.000003	0.000000	0.000000	0.000000
25.679408	14.624422	18.315151	-0.112141	0.045951	2.420343	0.000000	-0.002400	0.000000	0.000003	0.000000	0.000000	0.000000
26.013991	14.706916	18.290898	-0.015995	-0.120740	2.419515	0.000000	-0.022029	0.000000	0.000003	-0.000000	0.000000	0.000000
26.311314	14.722440	18.367599	-0.000114	-0.182274	2.412966	0.000000	-0.027946	0.000000	0.000003	-0.000000	0.000000	0.000000
26.752274	14.903955	18.329098	-0.413084	0.269255	2.415749	0.000000	0.040585	0.000000	0.000003	0.000000	0.000000	0.000000
27.193234	15.456592	17.896285	-0.844928	0.708533	2.448826	0.000000	0.109578	0.000000	0.000003	0.000000	0.000000	0.000000
27.634194	16.405598	17.088854	-1.315373	1.115574	2.512571	0.000000	0.179819	0.000000	0.000003	0.000000	0.000000	0.000000
28.075154	17.794330	15.943542	-1.845914	1.471857	2.607712	0.000000	0.252108	0.000000	0.000003	0.000000	0.000000	0.000000
28.521114	19.710371	14.495211	-2.465745	1.762086	2.736934	0.000000	0.327712	0.000000	0.000003	0.000000	0.000000	0.000000
29.070174	22.145665	12.881323	-1.943385	1.194631	2.894209	0.000000	0.244335	0.000000	0.000003	0.000000	0.000000	0.000000
29.619234	23.928109	11.840465	-1.283753	0.712267	3.004447	0.000000	0.156623	0.000000	0.000003	0.000000	0.000000	0.000000
30.168294	24.931800	11.298500	-0.533444	0.280637	3.065690	0.000000	0.066134	0.000000	0.000003	0.000000	0.000000	0.000000
30.717354	25.085844	11.216825	0.254545	-0.131004	3.076854	0.000000	-0.025529	0.000000	0.000003	-0.000000	0.000000	0.000000
31.015927	24.976663	11.285583	0.176675	-0.128591	3.071632	0.000000	-0.017490	0.000000	0.000003	-0.000000	0.000000	0.000000
31.349260	24.863467	11.381319	0.162913	-0.158616	3.065802	0.000000	-0.017490	0.000000	0.000003	-0.000000	0.000000	0.000000
31.682593	24.759445	11.497071	0.149151	-0.188641	3.059972	0.000000	-0.017490	0.000000	0.000003	-0.000000	0.000000	0.000000
32.017177	24.664261	11.633386	0.135337	-0.218778	3.054120	0.000000	-0.017490	0.000000	0.000003	-0.000000	0.000000	0.000000
32.314499	24.587433	11.771444	0.058820	-0.214803	3.048920	0.000000	-0.009524	0.000000	0.000003	-0.000000	0.000000	0.000000
32.863559	24.101652	12.246678	0.820694	-0.655847	3.018816	0.000000	-0.099974	0.000000	0.000003	-0.000000	0.000000	0.000000
33.412619	22.806278	13.228888	1.524598	-1.143606	2.939463	0.000000	-0.188651	0.000000	0.000003	-0.000000	0.000000	0.000000
33.961679	20.792810	14.788035	2.120812	-1.712821	2.812269	0.000000	-0.273982	0.000000	0.000003	-0.000000	0.000000	0.000000
34.510739	18.203470	17.035173	2.567222	-2.404037	2.639490	0.000000	-0.354454	0.000000	0.000003	-0.000000	0.000000	0.000000
34.956699	16.190293	19.045082	1.963206	-2.084068	2.497756	0.000000	-0.281540	0.000000	0.000002	-0.000000	0.000000	0.000000
35.397659	14.689186	20.706810	1.453886	-1.670024	2.388986	0.000000	-0.212262	0.000000	0.000002	-0.000000	0.000000	0.000000
35.838619	13.606382	21.968355	1.010990	-1.179996	2.310204	0.000000	-0.145400	0.000000	0.000002	-0.000000	0.000000	0.000000
36.279579	12.892411	22.772319	0.614283	-0.636279	2.260512	0.000000	-0.080195	0.000000	0.000002	-0.000000	0.000000	0.000000
36.721789	12.513961	23.082422	0.276222	-0.120269	2.239318	0.000000	-0.021394	0.000000	0.000002	-0.000000	0.000000	0.000000
37.019112	12.357310	23.157825	0.250650	-0.133336	2.232957	0.000000	-0.021394	0.000000	0.000002	-0.000000	0.000000	0.000000
37.352445	12.199767	23.251599	0.221981	-0.147986	2.225826	0.000000	-0.021394	0.000000	0.000002	-0.000000	0.000000	0.000000
37.685779	12.061336	23.355140	0.193311	-0.162636	2.218694	0.000000	-0.021394	0.000000	0.000002	-0.000000	0.000000	0.000000
38.020362	11.941607	23.468891	0.164535	-0.177341	2.211536	0.000000	-0.021394	0.000000	0.000002	-0.000000	0.000000	0.000000
38.317684	11.851370	23.578231	0.168025	-0.248228	2.205175	0.000000	-0.026802	0.000000	0.000002	-0.000000	0.000000	0.000000
38.758644	11.854358	23.536009	-0.174825	0.343614	2.207281	0.000000	0.036363	0.000000	0.000002	-0.000000	0.000000	0.000000
39.199604	12.162077	22.976755	-0.525663	0.919823	2.237306	0.000000	0.099943	0.000000	0.000002	-0.000000	0.000000	0.000000
39.640564	12.788589	21.925917	-0.900516	1.454180	2.295590	0.000000	0.164661	0.000000	0.000002	-0.000000	0.000000	0.000000
40.081524	13.762515	20.431304	-1.316512	1.922373	2.382798	0.000000	0.231254	0.000000	0.000002	0.000000	0.000000	0.000000
40.527484	15.145914	18.538355	-1.796479	2.304377	2.501396	0.000000	0.300886	0.000000	0.000002	0.000000	0.000000	0.000000
41.076544	16.911552	16.411257	-1.400233	1.592563	2.646075	0.000000	0.225345	0.000000	0.000002	0.000000	0.000000	0.000000
41.625604	18.184845	14.999312	-0.905081	0.994184	2.748117	0.000000	0.145806	0.000000	0.000002	-0.000000	0.000000	0.000000
42.174664	18.875854	14.201950	-0.345999	0.466618	2.805712	0.000000	0.063681	0.000000	0.000002	-0.000000	0.000000	0.000000
42.723724	18.935768	13.962379	0.237523	-0.027712	2.817839	0.000000	-0.019574	0.000000	0.000001	-0.000000	0.000000	0.000000
43.022297	18.828351	13.963528	0.171722	-0.012617	2.814193	0.000000	-0.012211	0.000000	0.000001	-0.000000	0.000000	0.000000
43.502297	18.676095	13.992143	0.145477	-0.046998	2.808332	0.000000	-0.012211	0.000000	0.000001	-0.000000	0.000000	0.000000
43.982297	18.549035	14.053763	0.119232	-0.081378	2.802470	0.000000	-0.012211	0.000000	0.000001	-0.000000	0.000000	0.000000
44.462297	18.447170	14.148389	0.092987	-0.115759	2.796609	0.000000	-0.012211	0.000000	0.000001	-0.000000	0.000000	0.000000
44.942297	18.370501	14.276020	0.066741	-0.150140	2.790748	0.000000	-0.012211	0.000000	0.000001	-0.000000	0.000000	0.000000
45.423547	18.319152	14.436940	-0.050335	-0.113081	2.784889	0.000000	0.001587	0.000000	0.000001	-0.000000	0.000000	0.000000
45.720870	18.353922	14.510384	-0.114562	-0.096026	2.785360	0.000000	0.008864	0.000000	0.000001	-0.000000	0.000000	0.000000
46.269930	18.170674	14.896557	0.446335	-0.611460	2.767659	0.000000	-0.073247	0.000000	0.000001	-0.000000	0.000000	0.000000
46.818990	17.385239	15.869189	0.975705	-1.170447	2.705165	0.000000	-0.154060	0.000000	0.000001	-0.000000	0.000000	0.000000
47.368050	16.053097	17.497560	1.436156	-1.812802	2.598985	0.000000	-0.232140	0.000000	0.000001	-0.000000	0.000000	0.000000
47.917110	14.268344	19.897654	1.795164	-2.584279	2.451004	0.000000	-0.306102	0.000000	0.000001	-0.000000	0.000000	0.000000
48.363070	12.879316	22.031657	1.330562	-2.180793	2.329784	0.000000	-0.237812	0.000000	0.000000	-0.000000	0.000000	0.000000
48.804030	11.886038	23.740329	0.930517	-1.679352	2.239377	0.000000	-0.172626	0.000000	0.000000	-0.000000	0.000000	0.000000
49.244990	11.225560	24.971258	0.572984	-1.101502	2.177254	0.000000	-0.109407	0.000000	0.000000	-0.000000	0.000000	0.000000
49.685950	10.867705	25.668439	0.241630	-0.473534	2.142707	0.000000	-0.047434	0.000000	0.000000	-0.000000	0.000000	0.000000
50.128160	10.796255	25.799869	-0.052326	0.112660	2.135353	0.000000	0.008763	0.000000	0.000000	-0.000000	0.000000	0.000000
50.425482	10.835581	25.736346	-0.079941	0.100990	2.137958	0.000000	0.008763	0.000000	0.000000	-0.000000	0.000000	0.000000
50.758816	10.899195	25.673381	-0.110900	0.087906	2.140879	0.000000	0.008763	0.000000	-0.000000	-0.000000	0.000000	0.000000
51.092149	10.983448	25.619139	-0.141860	0.074822	2.143800	0.000000	0.008763	0.000000	-0.000000	-0.000000	0.000000	0.000000
51.426732	11.088548	25.573983	-0.082978	-0.145780	2.146710	0.000000	-0.008653	0.000000	-0.000000	-0.000000	0.000000	0.000000
51.724055	11.145918	25.664201	-0.082643	-0.220589	2.144137	0.000000	-0.013911	0.000000	-0.000000	-0.000000	0.000000	0.000000
52.165015	11.364293	25.573254	-0.414464	0.426051	2.151591	0.000000	0.047750	0.000000	-0.000000	-0.000000	0.000000	0.000000
52.605975	11.882521	24.918426	-0.765221	1.053306	2.186329	0.000000	0.109954	0.000000	-0.000000	-0.000000	0.000000	0.000000
53.046935	12.724277	23.729508	-1.150938	1.632636	2.248746	0.000000	0.173411	0.000000	-0.000000	-0.000000	0.000000	0.000000
53.487895	13.928018	22.060597	-1.589239	2.137683	2.339554	0.000000	0.238843	0.000000	-0.000001	-0.000000	0.000000	0.000000
53.933855	15.569370	19.962672	-2.104386	2.546801	2.461291	0.000000	0.307394	0.000000	-0.000001	-0.000000	0.000000	0.000000
54.482915	17.682500	17.602075	-1.721465	1.777918	2.609889	0.000000	0.233089	0.000000	-0.000001	-0.000000	0.000000	0.000000
55.031975	19.305473	16.011726	-1.216948	1.135673	2.716491	0.000000	0.154649	0.000000	-0.000001	-0.000000	0.000000	0.000000
55.581035	20.323649	15.078348	-0.626473	0.574318	2.779208	0.000000	0.073465	0.000000	-0.000001	-0.000000	0.000000	0.000000
56.130095	20.665109	14.735458	0.008253	0.053871	2.796926	0.000000	-0.009021	0.000000	-0.000001	-0.000000	0.000000	0.000000
56.428668	20.696746	14.686400	-0.060220	0.071938	2.796414	0.000000	-0.001713	0.000000	-0.000001	-0.000000	0.000000	0.000000
56.762001	20.742281	14.646046	-0.076384	0.049124	2.795844	0.000000	-0.001713	0.000000	-0.000001	-0.000000	0.000000	0.000000
57.095334	20.798591	14.620902	-0.092547	0.026309	2.795273	0.000000	-0.001713	0.000000	-0.000001	-0.000000	0.000000	0.000000
57.429918	20.865949	14.610958	-0.108772	0.003410	2.794700	0.000000	-0.001713	0.000000	-0.000001	-0.000000	0.000000	0.000000
57.727240	20.934917	14.614981	-0.177890	0.021247	2.794190	0.000000	0.005588	0.000000	-0.000001	-0.000000	0.000000	0.000000
58.276300	20.773038	14.872380	0.470974	-0.492813	2.774617	0.000000	-0.076780	0.000000	-0.000001	-0.000000	0.000000	0.000000
58.825360	19.912760	15.710125	1.086571	-1.041975	2.710127	0.000000	-0.157785	0.000000	-0.000001	-0.000000	0.000000	0.000000
59.374420	18.414849	17.187888	1.625417	-1.665354	2.601864	0.000000	-0.235993	0.000000	-0.000001	-0.000000	0.000000	0.000000
59.923480	16.385110	19.410926	2.049452	-2.407353	2.451748	0.000000	-0.310014	0.000000	-0.000001	0.000000	0.000000	0.000000
60.369440	14.796341	21.386863	1.525744	-2.004695	2.328785	0.000000	-0.241726	0.000000	-0.000001	0.000000	0.000000	0.000000
60.810400	13.653432	22.943595	1.075956	-1.512195	2.236643	0.000000	-0.176589	0.000000	-0.000001	-0.000000	0.000000	0.000000
61.251360	12.884105	24.033867	0.675325	-0.950892	2.172753	0.000000	-0.113463	0.000000	-0.000001	-0.000000	0.000000	0.000000
61.692320	12.453214	24.608072	0.305548	-0.346324	2.136388	0.000000	-0.051629	0.000000	-0.000002	-0.000000	0.000000	0.000000
62.134530	12.341123	24.639551	-0.020107	0.213523	2.127140	0.000000	0.004400	0.000000	-0.000002	-0.000000	0.000000	0.000000
62.431853	12.360245	24.516332	-0.044208	0.200906	2.128448	0.000000	0.004400	0.000000	-0.000002	-0.000000	0.000000	0.000000
62.765186	12.398724	24.387109	-0.071229	0.186761	2.129915	0.000000	0.004400	0.000000	-0.000002	-0.000000	0.000000	0.000000
63.098520	12.455217	24.267317	-0.098250	0.172616	2.131381	0.000000	0.004400	0.000000	-0.000002	-0.000000	0.000000	0.000000
63.433103	12.530038	24.156559	-0.125372	0.158418	2.132854	0.000000	0.004400	0.000000	-0.000002	-0.000000	0.000000	0.000000
63.730426	12.611756	24.066108	-0.118546	0.086782	2.134162	0.000000	-0.000834	0.000000	-0.000002	-0.000000	0.000000	0.000000
64.171386	12.876841	23.724516	-0.484889	0.684924	2.147336	0.000000	0.060644	0.000000	-0.000002	-0.000000	0.000000	0.000000
64.612346	13.473522	22.867192	-0.873385	1.251901	2.187746	0.000000	0.122812	0.000000	-0.000002	-0.000000	0.000000	0.000000
65.053306	14.429060	21.533141	-1.301784	1.761918	2.255852	0.000000	0.186379	0.000000	-0.000002	-0.000000	0.000000	0.000000
65.494266	15.787110	19.783063	-1.789658	2.191770	2.352429	0.000000	0.252068	0.000000	-0.000002	-0.000000	0.000000	0.000000
65.940226	17.632889	17.671810	-2.363990	2.522655	2.480150	0.000000	0.321030	0.000000	-0.000002	-0.000000	0.000000	0.000000
66.489286	19.998778	15.309891	-1.919483	1.804487	2.636045	0.000000	0.245995	0.000000	-0.000003	-0.000000	0.000000	0.000000
67.038346	21.798751	13.661822	-1.339393	1.214850	2.749481	0.000000	0.166597	0.000000	-0.000003	-0.000000	0.000000	0.000000
67.587406	22.905669	12.610215	-0.664696	0.711743	2.818446	0.000000	0.084244	0.000000	-0.000003	-0.000000	0.000000	0.000000
68.136466	23.241343	12.080165	0.056953	0.259332	2.841717	0.000000	0.000396	0.000000	-0.000003	-0.000000	0.000000	0.000000
68.435038	23.247432	11.914461	-0.016621	0.264089	2.844052	0.000000	0.007821	0.000000	-0.000003	-0.000000	0.000000	0.000000
68.768372	23.263294	11.748378	-0.030963	0.234161	2.846659	0.000000	0.007821	0.000000	-0.000003	-0.000000	0.000000	0.000000
69.101705	23.288717	11.602247	-0.045306	0.204232	2.849266	0.000000	0.007821	0.000000	-0.000003	-0.000000	0.000000	0.000000
69.436288	23.323851	11.475633	-0.059702	0.174191	2.851883	0.000000	0.007821	0.000000	-0.000003	-0.000000	0.000000	0.000000
69.733611	23.363156	11.379988	-0.133540	0.177231	2.854208	0.000000	0.015279	0.000000	-0.000003	-0.000000	0.000000	0.000000
70.282671	23.108559	11.413191	0.594491	-0.238060	2.839408	0.000000	-0.069111	0.000000	-0.000003	0.000000	0.000000	0.000000
