#ParticleID	Turn	x[m]	xp	y[m]	yp	z[m]	dE[GeV]# s	beta_x	beta_y	alpha_x	alpha_y	D_x	D_y	D_px	D_py	orbit_x	orbit_px	orbit_y	orbit_py
0.300000	11.803079	25.059856	-0.010075	-0.026748	2.618356	0.000000	-0.000081	0.000000	-0.000002	0.000002	0.000000	0.000000
0.601250	11.816838	25.079596	-0.035600	-0.038778	2.618331	0.000000	-0.000081	0.000000	-0.000002	0.000002	0.000000	0.000000
0.898573	11.845498	25.106185	-0.031744	-0.112219	2.618306	0.000000	-0.006501	0.000000	-0.000001	0.000002	0.000000	0.000000
1.339533	12.025498	24.926636	-0.378003	0.517848	2.631733	0.000000	0.067460	0.000000	-0.000000	0.000002	0.000000	0.000000
1.780493	12.517302	24.199725	-0.741532	1.124352	2.677912	0.000000	0.142190	0.000000	0.000000	0.000002	0.000000	0.000000
2.221453	13.343381	22.958527	-1.138939	1.679700	2.757369	0.000000	0.218540	0.000000	0.000001	0.000002	0.000000	0.000000
2.662413	14.541476	21.259515	-1.588382	2.158622	2.871010	0.000000	0.297378	0.000000	0.000002	0.000002	0.000000	0.000000
3.108373	16.187039	19.155079	-2.114677	2.540463	3.021989	0.000000	0.380093	0.000000	0.000003	0.000002	0.000000	0.000000
3.657433	18.297247	16.791428	-1.705882	1.789852	3.205411	0.000000	0.287056	0.000000	0.000004	0.000002	0.000000	0.000000
4.206493	19.889323	15.177614	-1.176592	1.166728	3.336274	0.000000	0.188927	0.000000	0.000005	0.000002	0.000000	0.000000
4.755553	20.850811	14.198689	-0.564193	0.626708	3.412259	0.000000	0.087448	0.000000	0.000006	0.000001	0.000000	0.000000
5.304613	21.113795	13.784924	0.088058	0.131327	3.432016	0.000000	-0.015583	0.000000	0.000006	0.000001	0.000000	0.000000
5.603185	21.098379	13.691645	0.018738	0.145076	3.430040	0.000000	-0.006617	0.000000	0.000007	0.000001	0.000000	0.000000
5.936519	21.091155	13.603214	0.002933	0.120218	3.427834	0.000000	-0.006617	0.000000	0.000007	0.000001	0.000000	0.000000
6.269852	21.094468	13.531355	-0.012871	0.095360	3.425628	0.000000	-0.006617	0.000000	0.000008	0.000001	0.000000	0.000000
6.604435	21.108389	13.475892	-0.028735	0.070408	3.423414	0.000000	-0.006617	0.000000	0.000008	0.000001	0.000000	0.000000
6.901758	21.129667	13.440616	-0.098036	0.083351	3.421446	0.000000	0.002322	0.000000	0.000008	0.000001	0.000000	0.000000
7.450818	20.877248	13.610058	0.555046	-0.393777	3.394522	0.000000	-0.100250	0.000000	0.000009	0.000001	0.000000	0.000000
7.999878	19.925049	14.315679	1.168923	-0.898953	3.311685	0.000000	-0.201044	0.000000	0.000010	0.000001	0.000000	0.000000
8.548938	18.340330	15.607739	1.700233	-1.468159	3.174405	0.000000	-0.298272	0.000000	0.000010	0.000000	0.000000	0.000000
9.097998	16.235026	17.578268	2.111446	-2.141939	2.985117	0.000000	-0.390210	0.000000	0.000010	0.000000	0.000000	0.000000
9.543958	14.592556	19.334076	1.584647	-1.778561	2.829404	0.000000	-0.308513	0.000000	0.000010	0.000000	0.000000	0.000000
9.984918	13.398040	20.712496	1.134529	-1.335496	2.710606	0.000000	-0.230813	0.000000	0.000010	0.000001	0.000000	0.000000
10.425878	12.576222	21.671779	0.736244	-0.831667	2.625459	0.000000	-0.155743	0.000000	0.000011	0.000001	0.000000	0.000000
10.866838	12.089555	22.168278	0.371596	-0.289998	2.572992	0.000000	-0.082446	0.000000	0.000011	0.000001	0.000000	0.000000
11.309048	11.915673	22.178877	0.053038	0.210422	2.552589	0.000000	-0.016347	0.000000	0.000012	0.000001	0.000000	0.000000
11.606371	11.891574	22.057913	0.028015	0.196423	2.547728	0.000000	-0.016347	0.000000	0.000012	0.000001	0.000000	0.000000
12.086371	11.884070	21.880195	-0.012381	0.173822	2.539881	0.000000	-0.016347	0.000000	0.000013	0.000001	0.000000	0.000000
12.566371	11.915346	21.724174	-0.052777	0.151222	2.532033	0.000000	-0.016347	0.000000	0.000014	0.000001	0.000000	0.000000
13.046371	11.985402	21.589850	-0.093174	0.128621	2.524186	0.000000	-0.016347	0.000000	0.000014	0.000001	0.000000	0.000000
13.526371	12.094239	21.477222	-0.133570	0.106021	2.516339	0.000000	-0.016347	0.000000	0.000015	0.000001	0.000000	0.000000
14.007621	12.242292	21.386082	-0.174072	0.083361	2.508471	0.000000	-0.016347	0.000000	0.000016	0.000001	0.000000	0.000000
14.304943	12.353243	21.340674	-0.168805	0.017037	2.503610	0.000000	-0.022486	0.000000	0.000016	0.000001	0.000000	0.000000
14.745903	12.660594	21.092096	-0.530842	0.544537	2.509322	0.000000	0.048420	0.000000	0.000017	0.000002	0.000000	0.000000
15.186863	13.296680	20.387495	-0.917132	1.047261	2.546391	0.000000	0.119877	0.000000	0.000018	0.000002	0.000000	0.000000
15.627823	14.290562	19.258930	-1.345323	1.502336	2.615241	0.000000	0.192699	0.000000	0.000019	0.000003	0.000000	0.000000
16.068783	15.687648	17.757749	-1.834978	1.889055	2.716656	0.000000	0.267716	0.000000	0.000020	0.000003	0.000000	0.000000
16.514743	17.575431	15.930757	-2.413226	2.190566	2.853484	0.000000	0.346244	0.000000	0.000022	0.000004	0.000000	0.000000
17.063803	20.000142	13.890840	-1.976741	1.546654	3.019869	0.000000	0.258942	0.000000	0.000024	0.000003	0.000000	0.000000
17.612863	21.865565	12.493734	-1.400628	1.012906	3.136987	0.000000	0.167048	0.000000	0.000025	0.000002	0.000000	0.000000
18.161923	23.039935	11.639927	-0.725582	0.551306	3.202761	0.000000	0.072191	0.000000	0.000026	0.000001	0.000000	0.000000
18.710983	23.440301	11.268605	0.000716	0.128974	3.216024	0.000000	-0.023947	0.000000	0.000027	0.000001	0.000000	0.000000
19.009556	23.480254	11.182120	-0.073300	0.131249	3.211382	0.000000	-0.015546	0.000000	0.000027	0.000001	0.000000	0.000000
19.342889	23.533879	11.104729	-0.087573	0.100926	3.206200	0.000000	-0.015546	0.000000	0.000027	0.000001	0.000000	0.000000
19.676223	23.597018	11.047552	-0.101845	0.070603	3.201018	0.000000	-0.015546	0.000000	0.000028	0.000001	0.000000	0.000000
20.010806	23.670256	11.010354	-0.233447	0.094718	3.195836	0.000000	0.000288	0.000000	0.000028	0.000001	0.000000	0.000000
20.308129	23.813012	10.962131	-0.308897	0.096108	3.195921	0.000000	0.008636	0.000000	0.000028	0.000001	0.000000	0.000000
20.857189	23.741490	11.078465	0.438389	-0.309237	3.174454	0.000000	-0.086717	0.000000	0.000028	-0.000000	0.000000	0.000000
21.406249	22.861573	11.649327	1.154710	-0.736607	3.100978	0.000000	-0.180533	0.000000	0.000028	-0.000001	0.000000	0.000000
21.955309	21.235415	12.715377	1.789468	-1.216445	2.976796	0.000000	-0.271146	0.000000	0.000027	-0.000002	0.000000	0.000000
22.504369	18.977880	14.352549	2.297826	-1.782927	2.804112	0.000000	-0.356950	0.000000	0.000026	-0.000003	0.000000	0.000000
22.950329	17.198627	15.822549	1.705968	-1.499427	2.662215	0.000000	-0.279768	0.000000	0.000025	-0.000002	0.000000	0.000000
23.391289	15.923483	16.994664	1.196748	-1.148556	2.555166	0.000000	-0.206227	0.000000	0.000024	-0.000001	0.000000	0.000000
23.832249	15.071713	17.833025	0.742204	-0.745427	2.479996	0.000000	-0.135035	0.000000	0.000024	-0.000001	0.000000	0.000000
24.273209	14.604405	18.299487	0.321569	-0.308381	2.435850	0.000000	-0.065381	0.000000	0.000023	-0.000000	0.000000	0.000000
24.715418	14.500329	18.372583	-0.048910	0.097581	2.422223	0.000000	-0.002410	0.000000	0.000023	0.000000	0.000000	0.000000
25.012741	14.535524	18.319414	-0.069463	0.081244	2.421506	0.000000	-0.002410	0.000000	0.000024	0.000000	0.000000	0.000000
25.346075	14.589514	18.271356	-0.092506	0.062929	2.420703	0.000000	-0.002410	0.000000	0.000024	0.000000	0.000000	0.000000
25.679408	14.658866	18.235509	-0.115549	0.044613	2.419899	0.000000	-0.002410	0.000000	0.000024	0.000000	0.000000	0.000000
26.013991	14.743627	18.212176	-0.019069	-0.121518	2.419068	0.000000	-0.022035	0.000000	0.000024	0.000000	0.000000	0.000000
26.311314	14.760965	18.289361	-0.003052	-0.182925	2.412516	0.000000	-0.027950	0.000000	0.000024	0.000000	0.000000	0.000000
26.752274	14.945497	18.252368	-0.417013	0.266498	2.415296	0.000000	0.040569	0.000000	0.000024	0.000001	0.000000	0.000000
27.193234	15.502100	17.822873	-0.850027	0.703795	2.448362	0.000000	0.109550	0.000000	0.000025	0.000001	0.000000	0.000000
27.634194	16.456203	17.020418	-1.321875	1.109070	2.512092	0.000000	0.179779	0.000000	0.000025	0.000002	0.000000	0.000000
28.075154	17.851397	15.881514	-1.854117	1.463884	2.607212	0.000000	0.252056	0.000000	0.000026	0.000003	0.000000	0.000000
28.521114	19.775658	14.440820	-2.476041	1.753003	2.736407	0.000000	0.327647	0.000000	0.000028	0.000003	0.000000	0.000000
29.070174	22.221388	12.835708	-1.951982	1.187635	2.893649	0.000000	0.244287	0.000000	0.000029	0.000002	0.000000	0.000000
29.619234	24.012056	11.801621	-1.290044	0.706859	3.003864	0.000000	0.156594	0.000000	0.000030	0.000001	0.000000	0.000000
30.168294	25.021178	11.264903	-0.536983	0.276432	3.065097	0.000000	0.066123	0.000000	0.000031	0.000000	0.000000	0.000000
30.717354	25.177474	11.187326	0.254007	-0.134306	3.076260	0.000000	-0.025520	0.000000	0.000031	-0.000001	0.000000	0.000000
31.015927	25.068734	11.258132	0.175961	-0.132067	3.071040	0.000000	-0.017484	0.000000	0.000031	-0.000000	0.000000	0.000000
31.349260	24.955996	11.356218	0.162252	-0.162191	3.065212	0.000000	-0.017484	0.000000	0.000031	-0.000000	0.000000	0.000000
31.682593	24.852398	11.474387	0.148544	-0.192316	3.059384	0.000000	-0.017484	0.000000	0.000031	-0.000000	0.000000	0.000000
32.017177	24.757601	11.613196	0.134784	-0.222554	3.053534	0.000000	-0.017484	0.000000	0.000030	-0.000000	0.000000	0.000000
32.314499	24.681088	11.753525	0.058086	-0.218722	3.048336	0.000000	-0.009522	0.000000	0.000030	-0.000000	0.000000	0.000000
32.863559	24.194401	12.232880	0.823066	-0.659477	3.018237	0.000000	-0.099953	0.000000	0.000030	-0.000001	0.000000	0.000000
33.412619	22.894782	13.219036	1.529909	-1.147205	2.938902	0.000000	-0.188612	0.000000	0.000029	-0.000002	0.000000	0.000000
33.961679	20.874030	14.782236	2.128687	-1.716646	2.811735	0.000000	-0.273926	0.000000	0.000027	-0.000003	0.000000	0.000000
34.510739	18.274880	17.033822	2.577105	-2.408360	2.638994	0.000000	-0.354380	0.000000	0.000025	-0.000004	0.000000	0.000000
34.956699	16.253878	19.047820	1.970931	-2.088880	2.497291	0.000000	-0.281479	0.000000	0.000024	-0.000003	0.000000	0.000000
35.397659	14.746768	20.713925	1.459824	-1.675100	2.388547	0.000000	-0.212212	0.000000	0.000022	-0.000003	0.000000	0.000000
35.838619	13.659412	21.979979	1.015413	-1.185104	2.309785	0.000000	-0.145362	0.000000	0.000021	-0.000002	0.000000	0.000000
36.279579	12.942131	22.788377	0.617392	-0.641187	2.260109	0.000000	-0.080167	0.000000	0.000020	-0.000002	0.000000	0.000000
36.721789	12.561458	23.102649	0.278272	-0.124794	2.238925	0.000000	-0.021375	0.000000	0.000020	-0.000001	0.000000	0.000000
37.019112	12.403567	23.180743	0.252770	-0.137864	2.232570	0.000000	-0.021375	0.000000	0.000019	-0.000001	0.000000	0.000000
37.352445	12.244584	23.277537	0.224179	-0.152517	2.225446	0.000000	-0.021375	0.000000	0.000019	-0.000001	0.000000	0.000000
37.685779	12.104662	23.384099	0.195588	-0.167170	2.218321	0.000000	-0.021375	0.000000	0.000018	-0.000001	0.000000	0.000000
38.020362	11.983383	23.500885	0.166890	-0.181878	2.211170	0.000000	-0.021375	0.000000	0.000018	-0.000001	0.000000	0.000000
38.317684	11.891725	23.612924	0.170545	-0.252845	2.204815	0.000000	-0.026781	0.000000	0.000018	-0.000001	0.000000	0.000000
38.758644	11.892891	23.574354	-0.173199	0.339980	2.206929	0.000000	0.036375	0.000000	0.000017	-0.000001	0.000000	0.000000
39.199604	12.199541	23.017810	-0.524855	0.917337	2.236957	0.000000	0.099946	0.000000	0.000017	-0.000000	0.000000	0.000000
39.640564	12.825686	21.968613	-0.900490	1.452955	2.295241	0.000000	0.164655	0.000000	0.000017	0.000000	0.000000	0.000000
40.081524	13.799932	20.474502	-1.317266	1.922465	2.382444	0.000000	0.231239	0.000000	0.000017	0.000000	0.000000	0.000000
40.527484	15.184367	18.580877	-1.798053	2.305792	2.501032	0.000000	0.300862	0.000000	0.000017	0.000001	0.000000	0.000000
41.076544	16.950935	16.452834	-1.400340	1.592878	2.645701	0.000000	0.225332	0.000000	0.000018	0.000000	0.000000	0.000000
41.625604	18.223532	15.041132	-0.903714	0.993422	2.747740	0.000000	0.145806	0.000000	0.000018	-0.000000	0.000000	0.000000
42.174664	18.912270	14.245219	-0.343254	0.464725	2.805339	0.000000	0.063693	0.000000	0.000017	-0.000001	0.000000	0.000000
42.723724	18.968499	14.008404	0.241451	-0.030870	2.817476	0.000000	-0.019550	0.000000	0.000017	-0.000001	0.000000	0.000000
43.022297	18.858781	14.011349	0.175577	-0.015588	2.813837	0.000000	-0.012189	0.000000	0.000016	-0.000001	0.000000	0.000000
43.502297	18.702821	14.042761	0.149340	-0.049854	2.807986	0.000000	-0.012189	0.000000	0.000016	-0.000001	0.000000	0.000000
43.982297	18.572049	14.107069	0.123103	-0.084120	2.802136	0.000000	-0.012189	0.000000	0.000015	-0.000001	0.000000	0.000000
44.462297	18.466464	14.204272	0.096866	-0.118387	2.796286	0.000000	-0.012189	0.000000	0.000015	-0.000001	0.000000	0.000000
44.942297	18.386066	14.334371	0.070629	-0.152653	2.790436	0.000000	-0.012189	0.000000	0.000014	-0.000001	0.000000	0.000000
45.423547	18.330973	14.497654	-0.046498	-0.115178	2.784588	0.000000	0.001607	0.000000	0.000013	-0.000001	0.000000	0.000000
45.720870	18.363455	14.572323	-0.110728	-0.097888	2.785066	0.000000	0.008883	0.000000	0.000013	-0.000001	0.000000	0.000000
46.269930	18.175856	14.961585	0.450379	-0.615259	2.767378	0.000000	-0.073219	0.000000	0.000012	-0.000002	0.000000	0.000000
46.818990	17.385994	15.939570	0.979674	-1.176453	2.704902	0.000000	-0.154023	0.000000	0.000011	-0.000002	0.000000	0.000000
47.368050	16.049663	17.575936	1.439770	-1.821443	2.598746	0.000000	-0.232095	0.000000	0.000010	-0.000002	0.000000	0.000000
47.917110	14.261255	19.987237	1.798167	-2.596170	2.450793	0.000000	-0.306050	0.000000	0.000009	-0.000003	0.000000	0.000000
48.363070	12.869625	22.130999	1.333414	-2.190692	2.329597	0.000000	-0.237764	0.000000	0.000007	-0.000002	0.000000	0.000000
48.804030	11.873849	23.847356	0.933352	-1.686815	2.239210	0.000000	-0.172584	0.000000	0.000006	-0.000002	0.000000	0.000000
49.244990	11.210831	25.083664	0.575931	-1.106190	2.177106	0.000000	-0.109368	0.000000	0.000005	-0.000002	0.000000	0.000000
49.685950	10.850278	25.783672	0.244824	-0.475234	2.142575	0.000000	-0.047399	0.000000	0.000005	-0.000002	0.000000	0.000000
50.128160	10.775840	25.915246	-0.048790	0.113747	2.135237	0.000000	0.008795	0.000000	0.000004	-0.000002	0.000000	0.000000
50.425482	10.813076	25.851062	-0.076448	0.102126	2.137853	0.000000	0.008795	0.000000	0.000003	-0.000002	0.000000	0.000000
50.758816	10.874377	25.787321	-0.107455	0.089097	2.140785	0.000000	0.008795	0.000000	0.000003	-0.000002	0.000000	0.000000
51.092149	10.956349	25.732267	-0.138462	0.076068	2.143717	0.000000	0.008795	0.000000	0.000002	-0.000002	0.000000	0.000000
51.426732	11.059192	25.686261	-0.079866	-0.145389	2.146638	0.000000	-0.008620	0.000000	0.000001	-0.000002	0.000000	0.000000
51.724055	11.114728	25.776230	-0.079665	-0.220420	2.144076	0.000000	-0.013878	0.000000	0.000001	-0.000002	0.000000	0.000000
52.165015	11.330143	25.683827	-0.410701	0.429174	2.151545	0.000000	0.047781	0.000000	-0.000000	-0.000002	0.000000	0.000000
52.605975	11.844643	25.024989	-0.760500	1.059241	2.186297	0.000000	0.109985	0.000000	-0.000001	-0.000002	0.000000	0.000000
53.046935	12.681736	23.829692	-1.145044	1.641113	2.248728	0.000000	0.173441	0.000000	-0.000002	-0.000002	0.000000	0.000000
53.487895	13.879665	22.152322	-1.581902	2.148316	2.339550	0.000000	0.238873	0.000000	-0.000003	-0.000002	0.000000	0.000000
53.933855	15.513700	20.044122	-2.095256	2.559111	2.461301	0.000000	0.307424	0.000000	-0.000003	-0.000002	0.000000	0.000000
54.482915	17.617540	17.671787	-1.713776	1.787114	2.609916	0.000000	0.233118	0.000000	-0.000005	-0.000002	0.000000	0.000000
55.031975	19.233114	16.072742	-1.211243	1.142409	2.716535	0.000000	0.154677	0.000000	-0.000006	-0.000002	0.000000	0.000000
55.581035	20.246305	15.133090	-0.623154	0.579076	2.779267	0.000000	0.073492	0.000000	-0.000006	-0.000002	0.000000	0.000000
56.130095	20.585547	14.785902	0.008952	0.056988	2.797000	0.000000	-0.008997	0.000000	-0.000007	-0.000001	0.000000	0.000000
56.428668	20.616661	14.734885	-0.059371	0.075246	2.796496	0.000000	-0.001688	0.000000	-0.000008	-0.000001	0.000000	0.000000
56.762001	20.661650	14.692304	-0.075596	0.052496	2.795934	0.000000	-0.001688	0.000000	-0.000008	-0.000001	0.000000	0.000000
57.095334	20.717456	14.664890	-0.091821	0.029746	2.795372	0.000000	-0.001688	0.000000	-0.000009	-0.000001	0.000000	0.000000
57.429918	20.784349	14.652625	-0.108107	0.006910	2.794807	0.000000	-0.001688	0.000000	-0.000009	-0.000001	0.000000	0.000000
57.727240	20.852937	14.654550	-0.177069	0.024910	2.794306	0.000000	0.005613	0.000000	-0.000009	-0.000001	0.000000	0.000000
58.276300	20.691669	14.908530	0.469047	-0.490214	2.774746	0.000000	-0.076758	0.000000	-0.000010	-0.000001	0.000000	0.000000
58.825360	19.834962	15.743917	1.082032	-1.040254	2.710267	0.000000	-0.157768	0.000000	-0.000011	-0.000001	0.000000	0.000000
59.374420	18.343330	17.220215	1.618588	-1.664390	2.602013	0.000000	-0.235980	0.000000	-0.000011	-0.000000	0.000000	0.000000
59.923480	16.322134	19.442575	2.040814	-2.407076	2.451902	0.000000	-0.310006	0.000000	-0.000011	-0.000000	0.000000	0.000000
60.369440	14.740212	21.417775	1.518976	-2.003325	2.328944	0.000000	-0.241714	0.000000	-0.000011	-0.000000	0.000000	0.000000
60.810400	13.602570	22.972841	1.070733	-1.509801	2.236808	0.000000	-0.176573	0.000000	-0.000011	-0.000001	0.000000	0.000000
61.251360	12.837259	24.060588	0.671409	-0.947583	2.172927	0.000000	-0.113443	0.000000	-0.000012	-0.000001	0.000000	0.000000
61.692320	12.409312	24.631526	0.302760	-0.342251	2.136572	0.000000	-0.051604	0.000000	-0.000012	-0.000001	0.000000	0.000000
62.134530	12.299235	24.659131	-0.021994	0.218121	2.127336	0.000000	0.004429	0.000000	-0.000013	-0.000001	0.000000	0.000000
62.431853	12.319505	24.533182	-0.046180	0.205490	2.128654	0.000000	0.004429	0.000000	-0.000013	-0.000001	0.000000	0.000000
62.765186	12.359329	24.400909	-0.073295	0.191329	2.130130	0.000000	0.004429	0.000000	-0.000014	-0.000001	0.000000	0.000000
63.098520	12.417231	24.278077	-0.100410	0.177168	2.131607	0.000000	0.004429	0.000000	-0.000014	-0.000001	0.000000	0.000000
63.433103	12.493528	24.164277	-0.127627	0.162955	2.133089	0.000000	0.004429	0.000000	-0.000015	-0.000001	0.000000	0.000000
63.730426	12.576612	24.071132	-0.120966	0.091285	2.134407	0.000000	-0.000806	0.000000	-0.000015	-0.000001	0.000000	0.000000
64.171386	12.843499	23.725548	-0.486571	0.689442	2.147595	0.000000	0.060678	0.000000	-0.000016	-0.000002	0.000000	0.000000
64.612346	13.441367	22.864307	-0.874406	1.256230	2.188022	0.000000	0.122853	0.000000	-0.000017	-0.000002	0.000000	0.000000
65.053306	14.397531	21.526596	-1.302190	1.765861	2.256148	0.000000	0.186427	0.000000	-0.000018	-0.000003	0.000000	0.000000
65.494266	15.755675	19.773279	-1.789467	2.195146	2.352749	0.000000	0.252124	0.000000	-0.000019	-0.000003	0.000000	0.000000
65.940226	17.601012	17.659329	-2.363191	2.525304	2.480499	0.000000	0.321095	0.000000	-0.000021	-0.000004	0.000000	0.000000
66.489286	19.966733	15.294564	-1.919983	1.807054	2.636428	0.000000	0.246048	0.000000	-0.000022	-0.000003	0.000000	0.000000
67.038346	21.767956	13.643640	-1.341156	1.217516	2.749891	0.000000	0.166637	0.000000	-0.000024	-0.000002	0.000000	0.000000
67.587406	22.877449	12.588963	-0.667597	0.714700	2.818875	0.000000	0.084270	0.000000	-0.000025	-0.000001	0.000000	0.000000
68.136466	23.216844	12.055413	0.053117	0.262789	2.842157	0.000000	0.000409	0.000000	-0.000025	-0.000001	0.000000	0.000000
68.435038	23.225196	11.887711	-0.020418	0.267383	2.844497	0.000000	0.007836	0.000000	-0.000026	-0.000001	0.000000	0.000000
68.768372	23.243595	11.719471	-0.034776	0.237338	2.847109	0.000000	0.007836	0.000000	-0.000026	-0.000001	0.000000	0.000000
69.101705	23.271565	11.571260	-0.049135	0.207293	2.849722	0.000000	0.007836	0.000000	-0.000026	-0.000001	0.000000	0.000000
69.436288	23.309266	11.442637	-0.063547	0.177136	2.852344	0.000000	0.007836	0.000000	-0.000026	-0.000001	0.000000	0.000000
69.733611	23.350862	11.345272	-0.137379	0.179986	2.854674	0.000000	0.015297	0.000000	-0.000027	-0.000001	0.000000	0.000000
70.282671	23.100668	11.374905	0.590358	-0.234276	2.839880	0.000000	-0.069108	0.000000	-0.000027	0.000000	0.000000	0.000000
