#ParticleID	Turn	x[m]	xp	y[m]	yp	z[m]	dE[GeV]# s	beta_x	beta_y	alpha_x	alpha_y	D_x	D_y	D_px	D_py	orbit_x	orbit_px	orbit_y	orbit_py
0.300000	11.813285	25.020112	-0.011017	-0.027244	2.618116	0.000000	0.000009	0.000000	-0.000000	0.000001	0.000000	0.000000
0.601250	11.827606	25.040156	-0.036521	-0.039293	2.618119	0.000000	0.000009	0.000000	0.000000	0.000001	0.000000	0.000000
0.898573	11.856807	25.067058	-0.032617	-0.112656	2.618121	0.000000	-0.006411	0.000000	0.000001	0.000001	0.000000	0.000000
1.339533	12.037697	24.888349	-0.379156	0.516385	2.631587	0.000000	0.067546	0.000000	0.000001	0.000001	0.000000	0.000000
1.780493	12.530660	24.163157	-0.743018	1.121932	2.677804	0.000000	0.142273	0.000000	0.000002	0.000001	0.000000	0.000000
2.221453	13.358221	22.924477	-1.140826	1.676431	2.757297	0.000000	0.218620	0.000000	0.000002	0.000001	0.000000	0.000000
2.662413	14.558187	21.228668	-1.590755	2.154655	2.870974	0.000000	0.297458	0.000000	0.000003	0.000001	0.000000	0.000000
3.108373	16.206127	19.128019	-2.117651	2.535975	3.021988	0.000000	0.380172	0.000000	0.000003	0.000001	0.000000	0.000000
3.657433	18.319339	16.768679	-1.708346	1.786443	3.205453	0.000000	0.287134	0.000000	0.000004	0.000001	0.000000	0.000000
4.206493	19.913759	15.158130	-1.178372	1.164155	3.336359	0.000000	0.189003	0.000000	0.000005	0.000001	0.000000	0.000000
4.755553	20.876766	14.181657	-0.565164	0.624787	3.412385	0.000000	0.087520	0.000000	0.000005	0.000001	0.000000	0.000000
5.304613	21.140337	13.769708	0.087965	0.129922	3.432181	0.000000	-0.015516	0.000000	0.000006	0.000001	0.000000	0.000000
5.603185	21.125013	13.677295	0.018594	0.143618	3.430225	0.000000	-0.006548	0.000000	0.000006	0.000001	0.000000	0.000000
5.936519	21.117879	13.589841	0.002809	0.118744	3.428042	0.000000	-0.006548	0.000000	0.000006	0.000001	0.000000	0.000000
6.269852	21.121267	13.518970	-0.012975	0.093870	3.425859	0.000000	-0.006548	0.000000	0.000007	0.000001	0.000000	0.000000
6.604435	21.135251	13.464509	-0.028819	0.068903	3.423668	0.000000	-0.006548	0.000000	0.000007	0.000001	0.000000	0.000000
6.901758	21.156575	13.430133	-0.098173	0.081804	3.421721	0.000000	0.002391	0.000000	0.000007	0.000001	0.000000	0.000000
7.450818	20.903811	13.601119	0.555806	-0.395059	3.394832	0.000000	-0.100190	0.000000	0.000007	0.000001	0.000000	0.000000
7.999878	19.950306	14.308044	1.170527	-0.900061	3.312026	0.000000	-0.200995	0.000000	0.000008	0.000000	0.000000	0.000000
8.548938	18.363412	15.601262	1.702567	-1.469172	3.174770	0.000000	-0.298235	0.000000	0.000008	0.000000	0.000000	0.000000
9.097998	16.255218	17.572885	2.114346	-2.142930	2.985500	0.000000	-0.390184	0.000000	0.000008	-0.000000	0.000000	0.000000
9.543958	14.610442	19.329699	1.586935	-1.779818	2.829800	0.000000	-0.308477	0.000000	0.000008	0.000000	0.000000	0.000000
9.984918	13.414137	20.709323	1.136314	-1.336960	2.711020	0.000000	-0.230767	0.000000	0.000008	0.000000	0.000000	0.000000
10.425878	12.590935	21.669964	0.737608	-0.833271	2.625896	0.000000	-0.155686	0.000000	0.000008	0.000000	0.000000	0.000000
10.866838	12.103227	22.167912	0.372602	-0.291669	2.573458	0.000000	-0.082377	0.000000	0.000008	0.000001	0.000000	0.000000
11.309048	11.928597	22.179990	0.053763	0.208756	2.553088	0.000000	-0.016267	0.000000	0.000009	0.000001	0.000000	0.000000
11.606371	11.904059	22.060013	0.028766	0.194767	2.548251	0.000000	-0.016267	0.000000	0.000009	0.000001	0.000000	0.000000
12.086371	11.895814	21.883877	-0.011590	0.172183	2.540442	0.000000	-0.016267	0.000000	0.000009	0.000001	0.000000	0.000000
12.566371	11.926311	21.729422	-0.051945	0.149599	2.532633	0.000000	-0.016267	0.000000	0.000010	0.000001	0.000000	0.000000
13.046371	11.995549	21.596648	-0.092301	0.127014	2.524824	0.000000	-0.016267	0.000000	0.000010	0.000001	0.000000	0.000000
13.526371	12.103529	21.485554	-0.132657	0.104430	2.517015	0.000000	-0.016267	0.000000	0.000011	0.000001	0.000000	0.000000
14.007621	12.250683	21.395937	-0.173118	0.081787	2.509186	0.000000	-0.016267	0.000000	0.000011	0.000001	0.000000	0.000000
14.304943	12.361059	21.351462	-0.167805	0.015444	2.504349	0.000000	-0.022408	0.000000	0.000011	0.000001	0.000000	0.000000
14.745903	12.667595	21.104151	-0.529987	0.543269	2.510100	0.000000	0.048517	0.000000	0.000012	0.000001	0.000000	0.000000
15.186863	13.302976	20.400504	-0.916383	1.046375	2.547217	0.000000	0.119994	0.000000	0.000012	0.000001	0.000000	0.000000
15.627823	14.296231	19.272536	-1.344645	1.501873	2.616125	0.000000	0.192839	0.000000	0.000013	0.000002	0.000000	0.000000
16.068783	15.692739	17.771568	-1.834341	1.889036	2.717606	0.000000	0.267879	0.000000	0.000014	0.000002	0.000000	0.000000
16.514743	17.579961	15.944392	-2.412600	2.190995	2.854513	0.000000	0.346433	0.000000	0.000015	0.000002	0.000000	0.000000
17.063803	20.003830	13.904183	-1.975844	1.546761	3.020993	0.000000	0.259097	0.000000	0.000016	0.000002	0.000000	0.000000
17.612863	21.868147	12.507132	-1.399525	1.012699	3.138186	0.000000	0.167165	0.000000	0.000017	0.000001	0.000000	0.000000
18.161923	23.041226	11.653732	-0.724350	0.550769	3.204014	0.000000	0.072268	0.000000	0.000018	0.000001	0.000000	0.000000
18.710983	23.440208	11.283196	0.001990	0.128070	3.217309	0.000000	-0.023911	0.000000	0.000018	0.000000	0.000000	0.000000
19.009556	23.479403	11.197215	-0.072028	0.130427	3.212679	0.000000	-0.015506	0.000000	0.000018	0.000000	0.000000	0.000000
19.342889	23.532178	11.120355	-0.086299	0.100152	3.207510	0.000000	-0.015506	0.000000	0.000018	0.000000	0.000000	0.000000
19.676223	23.594468	11.063679	-0.100569	0.069876	3.202341	0.000000	-0.015506	0.000000	0.000018	0.000000	0.000000	0.000000
20.010806	23.666851	11.026952	-0.232152	0.094121	3.197173	0.000000	0.000334	0.000000	0.000018	0.000000	0.000000	0.000000
20.308129	23.808836	10.979071	-0.307591	0.095601	3.197272	0.000000	0.008687	0.000000	0.000019	0.000000	0.000000	0.000000
20.857189	23.735962	11.096224	0.439530	-0.310230	3.175820	0.000000	-0.086711	0.000000	0.000019	-0.000000	0.000000	0.000000
21.406249	22.854922	11.668474	1.155604	-0.738158	3.102336	0.000000	-0.180570	0.000000	0.000018	-0.000001	0.000000	0.000000
21.955309	21.227948	12.736583	1.790052	-1.218664	2.978122	0.000000	-0.271227	0.000000	0.000018	-0.000001	0.000000	0.000000
22.504369	18.969961	14.376627	2.298060	-1.785972	2.805381	0.000000	-0.357073	0.000000	0.000017	-0.000002	0.000000	0.000000
22.950329	17.190446	15.849098	1.706327	-1.501898	2.663436	0.000000	-0.279859	0.000000	0.000016	-0.000001	0.000000	0.000000
23.391289	15.914923	17.023098	1.197248	-1.150343	2.556353	0.000000	-0.206287	0.000000	0.000016	-0.000001	0.000000	0.000000
23.832249	15.062643	17.862702	0.742868	-0.746448	2.481164	0.000000	-0.135064	0.000000	0.000015	-0.000001	0.000000	0.000000
24.273209	14.594665	18.329709	0.322428	-0.308591	2.437012	0.000000	-0.065380	0.000000	0.000015	-0.000000	0.000000	0.000000
24.715418	14.489729	18.402626	-0.047840	0.098116	2.423392	0.000000	-0.002383	0.000000	0.000015	0.000000	0.000000	0.000000
25.012741	14.524292	18.349132	-0.068407	0.081804	2.422683	0.000000	-0.002383	0.000000	0.000015	0.000000	0.000000	0.000000
25.346075	14.577582	18.300691	-0.091464	0.063516	2.421889	0.000000	-0.002383	0.000000	0.000015	0.000000	0.000000	0.000000
25.679408	14.646244	18.264443	-0.114522	0.045229	2.421095	0.000000	-0.002383	0.000000	0.000015	0.000000	0.000000	0.000000
26.013991	14.730323	18.240689	-0.018164	-0.121105	2.420273	0.000000	-0.022018	0.000000	0.000015	0.000000	0.000000	0.000000
26.311314	14.747127	18.317621	-0.002196	-0.182558	2.413726	0.000000	-0.027936	0.000000	0.000015	-0.000000	0.000000	0.000000
26.752274	14.930753	18.279967	-0.415805	0.267624	2.416519	0.000000	0.040615	0.000000	0.000015	0.000000	0.000000	0.000000
27.193234	15.486115	17.849162	-0.848412	0.705629	2.449613	0.000000	0.109628	0.000000	0.000016	0.000001	0.000000	0.000000
27.634194	16.438589	17.044807	-1.319780	1.111529	2.513384	0.000000	0.179890	0.000000	0.000016	0.000001	0.000000	0.000000
28.075154	17.831688	15.903500	-1.851446	1.466855	2.608560	0.000000	0.252200	0.000000	0.000017	0.000002	0.000000	0.000000
28.521114	19.753263	14.459976	-2.472666	1.756352	2.737828	0.000000	0.327827	0.000000	0.000018	0.000002	0.000000	0.000000
29.070174	22.195594	12.851617	-1.949205	1.190234	2.895157	0.000000	0.244419	0.000000	0.000019	0.000001	0.000000	0.000000
29.619234	23.983633	11.815000	-1.288062	0.708894	3.005432	0.000000	0.156677	0.000000	0.000019	0.000001	0.000000	0.000000
30.168294	24.991081	11.276289	-0.535936	0.278047	3.066696	0.000000	0.066155	0.000000	0.000019	0.000000	0.000000	0.000000
30.717354	25.146778	11.197114	0.254045	-0.132995	3.077862	0.000000	-0.025540	0.000000	0.000019	-0.000000	0.000000	0.000000
31.015927	25.037975	11.267111	0.176058	-0.130696	3.072638	0.000000	-0.017500	0.000000	0.000019	-0.000000	0.000000	0.000000
31.349260	24.925179	11.364271	0.162332	-0.160786	3.066805	0.000000	-0.017500	0.000000	0.000019	-0.000000	0.000000	0.000000
31.682593	24.821533	11.481492	0.148606	-0.190876	3.060971	0.000000	-0.017500	0.000000	0.000019	-0.000000	0.000000	0.000000
32.017177	24.726700	11.619325	0.134829	-0.221078	3.055116	0.000000	-0.017500	0.000000	0.000019	-0.000000	0.000000	0.000000
32.314499	24.650165	11.758768	0.058190	-0.217199	3.049914	0.000000	-0.009532	0.000000	0.000019	-0.000000	0.000000	0.000000
32.863559	24.163927	12.236495	0.822150	-0.658018	3.019796	0.000000	-0.100015	0.000000	0.000019	-0.000001	0.000000	0.000000
33.412619	22.865849	13.221036	1.528037	-1.145705	2.940412	0.000000	-0.188723	0.000000	0.000018	-0.000001	0.000000	0.000000
33.961679	20.847620	14.782517	2.125991	-1.714999	2.813171	0.000000	-0.274084	0.000000	0.000017	-0.000002	0.000000	0.000000
34.510739	18.251798	17.032160	2.573776	-2.406448	2.640330	0.000000	-0.354584	0.000000	0.000016	-0.000003	0.000000	0.000000
34.956699	16.233439	19.044385	1.968314	-2.086833	2.498543	0.000000	-0.281649	0.000000	0.000015	-0.000002	0.000000	0.000000
35.397659	14.728371	20.708660	1.457793	-1.673013	2.389731	0.000000	-0.212351	0.000000	0.000014	-0.000002	0.000000	0.000000
35.838619	13.642584	21.972891	1.013874	-1.183073	2.310914	0.000000	-0.145471	0.000000	0.000013	-0.000001	0.000000	0.000000
36.279579	12.926469	22.779557	0.616277	-0.639304	2.261196	0.000000	-0.080247	0.000000	0.000012	-0.000001	0.000000	0.000000
36.721789	12.546615	23.092262	0.277494	-0.123124	2.239982	0.000000	-0.021430	0.000000	0.000012	-0.000001	0.000000	0.000000
37.019112	12.389193	23.169363	0.251972	-0.136195	2.233611	0.000000	-0.021430	0.000000	0.000012	-0.000001	0.000000	0.000000
37.352445	12.230749	23.265044	0.223359	-0.150848	2.226468	0.000000	-0.021430	0.000000	0.000011	-0.000001	0.000000	0.000000
37.685779	12.091382	23.370494	0.194745	-0.165502	2.219325	0.000000	-0.021430	0.000000	0.000011	-0.000001	0.000000	0.000000
38.020362	11.970674	23.486164	0.166024	-0.180211	2.212155	0.000000	-0.021430	0.000000	0.000011	-0.000001	0.000000	0.000000
38.317684	11.879537	23.597212	0.169631	-0.251143	2.205783	0.000000	-0.026839	0.000000	0.000010	-0.000001	0.000000	0.000000
38.758644	11.881387	23.557330	-0.173843	0.341242	2.207877	0.000000	0.036342	0.000000	0.000010	-0.000001	0.000000	0.000000
39.199604	12.188499	22.999888	-0.525261	0.918101	2.237895	0.000000	0.099937	0.000000	0.000010	-0.000000	0.000000	0.000000
39.640564	12.814903	21.950250	-0.900676	1.453188	2.296180	0.000000	0.164670	0.000000	0.000010	-0.000000	0.000000	0.000000
40.081524	13.789219	20.456173	-1.317240	1.922155	2.383396	0.000000	0.231278	0.000000	0.000010	0.000000	0.000000	0.000000
40.527484	15.173536	18.563064	-1.797812	2.304950	2.502007	0.000000	0.300926	0.000000	0.000010	0.000000	0.000000	0.000000
41.076544	16.940076	16.435675	-1.400532	1.592523	2.646703	0.000000	0.225364	0.000000	0.000010	0.000000	0.000000	0.000000
41.625604	18.213116	15.024111	-0.904324	0.993527	2.748750	0.000000	0.145805	0.000000	0.000010	-0.000000	0.000000	0.000000
42.174664	18.902735	14.227828	-0.344240	0.465299	2.806340	0.000000	0.063660	0.000000	0.000010	-0.000001	0.000000	0.000000
42.723724	18.960222	13.990109	0.240160	-0.029788	2.818450	0.000000	-0.019615	0.000000	0.000009	-0.000001	0.000000	0.000000
43.022297	18.851264	13.992443	0.174304	-0.014579	2.814792	0.000000	-0.012251	0.000000	0.000009	-0.000001	0.000000	0.000000
43.502297	18.696525	14.022908	0.148068	-0.048891	2.808912	0.000000	-0.012251	0.000000	0.000009	-0.000001	0.000000	0.000000
43.982297	18.566973	14.086313	0.121832	-0.083202	2.803032	0.000000	-0.012251	0.000000	0.000008	-0.000001	0.000000	0.000000
44.462297	18.462607	14.182657	0.095596	-0.117514	2.797152	0.000000	-0.012251	0.000000	0.000008	-0.000001	0.000000	0.000000
44.942297	18.383428	14.311940	0.069360	-0.151825	2.791271	0.000000	-0.012251	0.000000	0.000007	-0.000001	0.000000	0.000000
45.423547	18.329555	14.474448	-0.047759	-0.114511	2.785393	0.000000	0.001549	0.000000	0.000007	-0.000001	0.000000	0.000000
45.720870	18.362788	14.548729	-0.111993	-0.097311	2.785854	0.000000	0.008828	0.000000	0.000007	-0.000001	0.000000	0.000000
46.269930	18.176578	14.936962	0.449128	-0.613949	2.768129	0.000000	-0.073300	0.000000	0.000006	-0.000001	0.000000	0.000000
46.818990	17.388042	15.913066	0.978525	-1.174318	2.705602	0.000000	-0.154127	0.000000	0.000006	-0.000001	0.000000	0.000000
47.368050	16.052879	17.546567	1.438804	-1.818330	2.599382	0.000000	-0.232221	0.000000	0.000005	-0.000001	0.000000	0.000000
47.917110	14.265398	19.953816	1.797453	-2.591858	2.451354	0.000000	-0.306195	0.000000	0.000004	-0.000002	0.000000	0.000000
48.363070	12.874406	22.094053	1.332695	-2.187134	2.330096	0.000000	-0.237896	0.000000	0.000003	-0.000001	0.000000	0.000000
48.804030	11.879279	23.807665	0.932594	-1.684172	2.239654	0.000000	-0.172703	0.000000	0.000003	-0.000001	0.000000	0.000000
49.244990	11.216959	25.042090	0.575100	-1.104580	2.177499	0.000000	-0.109477	0.000000	0.000002	-0.000001	0.000000	0.000000
49.685950	10.857186	25.741164	0.243881	-0.474731	2.142923	0.000000	-0.047498	0.000000	0.000002	-0.000001	0.000000	0.000000
50.128160	10.783647	25.872795	-0.049868	0.113221	2.135543	0.000000	0.008704	0.000000	0.000001	-0.000001	0.000000	0.000000
50.425482	10.821519	25.808929	-0.077508	0.101582	2.138131	0.000000	0.008704	0.000000	0.000001	-0.000001	0.000000	0.000000
50.758816	10.883521	25.745557	-0.108496	0.088534	2.141032	0.000000	0.008704	0.000000	0.000000	-0.000001	0.000000	0.000000
51.092149	10.966181	25.690884	-0.139484	0.075485	2.143934	0.000000	0.008704	0.000000	-0.000000	-0.000001	0.000000	0.000000
51.426732	11.069701	25.645275	-0.080783	-0.145660	2.146825	0.000000	-0.008713	0.000000	-0.000000	-0.000001	0.000000	0.000000
51.724055	11.125777	25.735411	-0.080534	-0.220611	2.144235	0.000000	-0.013971	0.000000	-0.000001	-0.000001	0.000000	0.000000
52.165015	11.342074	25.643652	-0.411842	0.427909	2.151663	0.000000	0.047692	0.000000	-0.000001	-0.000001	0.000000	0.000000
52.605975	11.857720	24.986383	-0.761966	1.056959	2.186376	0.000000	0.109898	0.000000	-0.000002	-0.000001	0.000000	0.000000
53.046935	12.696273	23.793511	-1.146902	1.637918	2.248769	0.000000	0.173356	0.000000	-0.000002	-0.000001	0.000000	0.000000
53.487895	13.896045	22.119309	-1.584237	2.144354	2.339552	0.000000	0.238788	0.000000	-0.000003	-0.000001	0.000000	0.000000
53.933855	15.532416	20.014922	-2.098179	2.554560	2.461265	0.000000	0.307339	0.000000	-0.000004	-0.000001	0.000000	0.000000
54.482915	17.639209	17.646937	-1.716198	1.783694	2.609833	0.000000	0.233034	0.000000	-0.000005	-0.000001	0.000000	0.000000
55.031975	19.257088	16.051141	-1.212994	1.139877	2.716407	0.000000	0.154597	0.000000	-0.000005	-0.000001	0.000000	0.000000
55.581035	20.271774	15.113867	-0.624109	0.577251	2.779097	0.000000	0.073417	0.000000	-0.000006	-0.000001	0.000000	0.000000
56.130095	20.611595	14.768356	0.008859	0.055741	2.796789	0.000000	-0.009066	0.000000	-0.000006	-0.000001	0.000000	0.000000
56.428668	20.642799	14.718118	-0.059513	0.073933	2.796265	0.000000	-0.001758	0.000000	-0.000007	-0.000001	0.000000	0.000000
56.762001	20.687876	14.676420	-0.075718	0.051161	2.795679	0.000000	-0.001758	0.000000	-0.000007	-0.000001	0.000000	0.000000
57.095334	20.743756	14.649903	-0.091923	0.028390	2.795094	0.000000	-0.001758	0.000000	-0.000007	-0.000001	0.000000	0.000000
57.429918	20.810710	14.638553	-0.108189	0.005533	2.794506	0.000000	-0.001758	0.000000	-0.000007	-0.000001	0.000000	0.000000
57.727240	20.879342	14.641302	-0.177200	0.023478	2.793983	0.000000	0.005543	0.000000	-0.000008	-0.000001	0.000000	0.000000
58.276300	20.717731	14.896654	0.469797	-0.491296	2.774388	0.000000	-0.076818	0.000000	-0.000008	-0.000001	0.000000	0.000000
58.825360	19.859738	15.733075	1.083611	-1.041064	2.709879	0.000000	-0.157816	0.000000	-0.000008	-0.000000	0.000000	0.000000
59.374420	18.365966	17.210139	1.620884	-1.664985	2.601602	0.000000	-0.236014	0.000000	-0.000008	-0.000000	0.000000	0.000000
59.923480	16.341927	19.433056	2.043665	-2.407499	2.451476	0.000000	-0.310027	0.000000	-0.000008	0.000000	0.000000	0.000000
60.369440	14.757738	21.408795	1.521227	-2.004106	2.328506	0.000000	-0.241746	0.000000	-0.000008	-0.000000	0.000000	0.000000
60.810400	13.618335	22.964693	1.072492	-1.510903	2.236353	0.000000	-0.176617	0.000000	-0.000008	-0.000000	0.000000	0.000000
61.251360	12.851658	24.053535	0.672757	-0.948954	2.172450	0.000000	-0.113498	0.000000	-0.000009	-0.000000	0.000000	0.000000
61.692320	12.422682	24.625779	0.303758	-0.343830	2.136067	0.000000	-0.051673	0.000000	-0.000009	-0.000001	0.000000	0.000000
62.134530	12.311860	24.654846	-0.021271	0.216419	2.126798	0.000000	0.004348	0.000000	-0.000009	-0.000001	0.000000	0.000000
62.431853	12.331692	24.529907	-0.045431	0.203795	2.128091	0.000000	0.004348	0.000000	-0.000009	-0.000001	0.000000	0.000000
62.765186	12.371008	24.398762	-0.072517	0.189642	2.129541	0.000000	0.004348	0.000000	-0.000010	-0.000001	0.000000	0.000000
63.098520	12.428381	24.277052	-0.099604	0.175488	2.130991	0.000000	0.004348	0.000000	-0.000010	-0.000001	0.000000	0.000000
63.433103	12.504130	24.164374	-0.126792	0.161282	2.132446	0.000000	0.004348	0.000000	-0.000010	-0.000001	0.000000	0.000000
63.730426	12.586709	24.072222	-0.120082	0.089619	2.133739	0.000000	-0.000885	0.000000	-0.000011	-0.000001	0.000000	0.000000
64.171386	12.852910	23.728080	-0.485893	0.687849	2.146889	0.000000	0.060581	0.000000	-0.000011	-0.000001	0.000000	0.000000
64.612346	13.450260	22.868186	-0.873904	1.254781	2.187269	0.000000	0.122738	0.000000	-0.000012	-0.000001	0.000000	0.000000
65.053306	14.406049	21.531664	-1.301840	1.764622	2.255340	0.000000	0.186292	0.000000	-0.000012	-0.000002	0.000000	0.000000
65.494266	15.763945	19.779325	-1.789253	2.194175	2.351876	0.000000	0.251967	0.000000	-0.000013	-0.000002	0.000000	0.000000
65.940226	17.609149	17.666104	-2.363104	2.524647	2.479550	0.000000	0.320915	0.000000	-0.000014	-0.000002	0.000000	0.000000
66.489286	19.974574	15.302084	-1.919532	1.806346	2.635388	0.000000	0.245900	0.000000	-0.000015	-0.000002	0.000000	0.000000
67.038346	21.775115	13.651988	-1.340373	1.216706	2.748778	0.000000	0.166524	0.000000	-0.000016	-0.000001	0.000000	0.000000
67.587406	22.883591	12.598282	-0.666538	0.713731	2.817710	0.000000	0.084194	0.000000	-0.000017	-0.000001	0.000000	0.000000
68.136466	23.221704	12.065914	0.054378	0.261592	2.840960	0.000000	0.000371	0.000000	-0.000017	-0.000000	0.000000	0.000000
68.435038	23.229308	11.898900	-0.019162	0.266252	2.843288	0.000000	0.007795	0.000000	-0.000017	-0.000000	0.000000	0.000000
68.768372	23.246868	11.731399	-0.033517	0.236252	2.845886	0.000000	0.007795	0.000000	-0.000017	-0.000000	0.000000	0.000000
69.101705	23.273997	11.583897	-0.047872	0.206252	2.848484	0.000000	0.007795	0.000000	-0.000018	-0.000000	0.000000	0.000000
69.436288	23.310853	11.455955	-0.062281	0.176140	2.851092	0.000000	0.007795	0.000000	-0.000018	-0.000000	0.000000	0.000000
69.733611	23.351695	11.359171	-0.136108	0.179065	2.853410	0.000000	0.015251	0.000000	-0.000018	-0.000000	0.000000	0.000000
70.282671	23.100102	11.390033	0.591620	-0.235606	2.838602	0.000000	-0.069112	0.000000	-0.000018	0.000000	0.000000	0.000000
