#ParticleID	Turn	x[m]	xp	y[m]	yp	z[m]	dE[GeV]# s	beta_x	beta_y	alpha_x	alpha_y	D_x	D_y	D_px	D_py	orbit_x	orbit_px	orbit_y	orbit_py
0.300000	11.823219	24.980095	-0.012195	-0.027600	2.618138	0.000000	0.000003	0.000000	-0.000000	0.000001	0.000000	0.000000
0.601250	11.838243	25.000360	-0.037678	-0.039668	2.618138	0.000000	0.000003	0.000000	-0.000000	0.000001	0.000000	0.000000
0.898573	11.868126	25.027490	-0.033725	-0.112954	2.618139	0.000000	-0.006418	0.000000	-0.000000	0.000001	0.000000	0.000000
1.339533	12.050114	24.849505	-0.380551	0.515048	2.631602	0.000000	0.067540	0.000000	0.000000	0.000001	0.000000	0.000000
1.780493	12.544457	24.125930	-0.744763	1.119616	2.677816	0.000000	0.142267	0.000000	0.000000	0.000001	0.000000	0.000000
2.221453	13.373739	22.889687	-1.143001	1.673243	2.757308	0.000000	0.218615	0.000000	0.000001	0.000001	0.000000	0.000000
2.662413	14.575849	21.197023	-1.593460	2.150738	2.870982	0.000000	0.297452	0.000000	0.000001	0.000001	0.000000	0.000000
3.108373	16.226484	19.100129	-2.121014	2.531508	3.021994	0.000000	0.380167	0.000000	0.000001	0.000001	0.000000	0.000000
3.657433	18.343121	16.745068	-1.711186	1.783070	3.205457	0.000000	0.287129	0.000000	0.000002	0.000001	0.000000	0.000000
4.206493	19.940278	15.137736	-1.180488	1.161636	3.336360	0.000000	0.188998	0.000000	0.000002	0.000001	0.000000	0.000000
4.755553	20.905139	14.163646	-0.566406	0.622942	3.412383	0.000000	0.087515	0.000000	0.000002	0.000000	0.000000	0.000000
5.304613	21.169551	13.753414	0.087684	0.128620	3.432176	0.000000	-0.015521	0.000000	0.000002	0.000000	0.000000	0.000000
5.603185	21.154435	13.661809	0.018254	0.142257	3.430219	0.000000	-0.006553	0.000000	0.000003	0.000000	0.000000	0.000000
5.936519	21.147520	13.575268	0.002492	0.117365	3.428035	0.000000	-0.006553	0.000000	0.000003	0.000000	0.000000	0.000000
6.269852	21.151113	13.505323	-0.013270	0.092472	3.425850	0.000000	-0.006553	0.000000	0.000003	0.000000	0.000000	0.000000
6.604435	21.165286	13.451804	-0.029092	0.067486	3.423657	0.000000	-0.006553	0.000000	0.000003	0.000000	0.000000	0.000000
6.901758	21.186766	13.418275	-0.098507	0.080341	3.421709	0.000000	0.002387	0.000000	0.000003	0.000000	0.000000	0.000000
7.450818	20.933811	13.590691	0.556485	-0.396214	3.394818	0.000000	-0.100195	0.000000	0.000003	0.000000	0.000000	0.000000
7.999878	19.979025	14.298754	1.172169	-0.900991	3.312009	0.000000	-0.200999	0.000000	0.000003	0.000000	0.000000	0.000000
8.548938	18.389847	15.592900	1.705058	-1.469943	3.174751	0.000000	-0.298238	0.000000	0.000003	0.000000	0.000000	0.000000
9.097998	16.278530	17.565308	2.117509	-2.143596	2.985479	0.000000	-0.390187	0.000000	0.000003	-0.000000	0.000000	0.000000
9.543958	14.631250	19.322859	1.589409	-1.780798	2.829778	0.000000	-0.308480	0.000000	0.000003	0.000000	0.000000	0.000000
9.984918	13.433022	20.703468	1.138217	-1.338205	2.710997	0.000000	-0.230771	0.000000	0.000004	0.000000	0.000000	0.000000
10.425878	12.608360	21.665304	0.739027	-0.834726	2.625871	0.000000	-0.155690	0.000000	0.000004	0.000000	0.000000	0.000000
10.866838	12.119590	22.164603	0.373602	-0.293267	2.573431	0.000000	-0.082382	0.000000	0.000004	0.000000	0.000000	0.000000
11.309048	11.944243	22.178131	0.054430	0.207090	2.553058	0.000000	-0.016274	0.000000	0.000004	0.000000	0.000000	0.000000
11.606371	11.919300	22.059143	0.029463	0.193109	2.548220	0.000000	-0.016274	0.000000	0.000004	0.000000	0.000000	0.000000
12.086371	11.910362	21.884592	-0.010842	0.170538	2.540408	0.000000	-0.016274	0.000000	0.000004	0.000000	0.000000	0.000000
12.566371	11.940117	21.731710	-0.051148	0.147967	2.532597	0.000000	-0.016274	0.000000	0.000004	0.000000	0.000000	0.000000
13.046371	12.008566	21.600496	-0.091454	0.125396	2.524785	0.000000	-0.016274	0.000000	0.000005	0.000000	0.000000	0.000000
13.526371	12.115709	21.490950	-0.131760	0.102825	2.516974	0.000000	-0.016274	0.000000	0.000005	0.000000	0.000000	0.000000
14.007621	12.261975	21.402872	-0.172170	0.080195	2.509142	0.000000	-0.016274	0.000000	0.000005	0.000000	0.000000	0.000000
14.304943	12.371779	21.359341	-0.166799	0.013837	2.504303	0.000000	-0.022415	0.000000	0.000005	0.000000	0.000000	0.000000
14.745903	12.677523	21.113343	-0.529192	0.541909	2.510051	0.000000	0.048509	0.000000	0.000005	0.000001	0.000000	0.000000
15.186863	13.312283	20.410763	-0.915763	1.045326	2.547165	0.000000	0.119986	0.000000	0.000006	0.000001	0.000000	0.000000
15.627823	14.305058	19.283566	-1.344173	1.501180	2.616069	0.000000	0.192828	0.000000	0.000006	0.000001	0.000000	0.000000
16.068783	15.701206	17.783040	-1.833993	1.888732	2.717546	0.000000	0.267867	0.000000	0.000006	0.000001	0.000000	0.000000
16.514743	17.588167	15.955954	-2.412362	2.191096	2.854448	0.000000	0.346420	0.000000	0.000007	0.000001	0.000000	0.000000
17.063803	20.011558	13.915767	-1.975219	1.546619	3.020921	0.000000	0.259086	0.000000	0.000008	0.000001	0.000000	0.000000
17.612863	21.874995	12.519009	-1.398556	1.012305	3.138110	0.000000	0.167156	0.000000	0.000008	0.000001	0.000000	0.000000
18.161923	23.046852	11.666191	-0.723107	0.550095	3.203933	0.000000	0.072261	0.000000	0.000008	0.000000	0.000000	0.000000
18.710983	23.444356	11.296571	0.003420	0.127066	3.217225	0.000000	-0.023915	0.000000	0.000008	0.000000	0.000000	0.000000
19.009556	23.482706	11.211155	-0.070610	0.129502	3.212595	0.000000	-0.015509	0.000000	0.000009	0.000000	0.000000	0.000000
19.342889	23.534534	11.134897	-0.084875	0.099271	3.207425	0.000000	-0.015509	0.000000	0.000009	0.000000	0.000000	0.000000
19.676223	23.595873	11.078794	-0.099141	0.069040	3.202255	0.000000	-0.015509	0.000000	0.000009	0.000000	0.000000	0.000000
20.010806	23.667298	11.042611	-0.230721	0.093407	3.197086	0.000000	0.000331	0.000000	0.000009	0.000000	0.000000	0.000000
20.308129	23.808429	10.995142	-0.306155	0.094974	3.197184	0.000000	0.008684	0.000000	0.000009	0.000000	0.000000	0.000000
20.857189	23.733994	11.113233	0.440922	-0.311323	3.175732	0.000000	-0.086711	0.000000	0.000009	-0.000000	0.000000	0.000000
21.406249	22.851495	11.686974	1.156853	-0.739795	3.102248	0.000000	-0.180567	0.000000	0.000009	-0.000000	0.000000	0.000000
21.955309	21.223269	12.757229	1.791071	-1.220961	2.978036	0.000000	-0.271221	0.000000	0.000008	-0.000001	0.000000	0.000000
22.504369	18.964326	14.400231	2.298776	-1.789093	2.805299	0.000000	-0.357064	0.000000	0.000008	-0.000001	0.000000	0.000000
22.950329	17.184156	15.875250	1.707085	-1.504468	2.663356	0.000000	-0.279852	0.000000	0.000008	-0.000001	0.000000	0.000000
23.391289	15.907934	17.051231	1.198083	-1.152247	2.556276	0.000000	-0.206283	0.000000	0.000007	-0.000000	0.000000	0.000000
23.832249	15.054869	17.892188	0.743819	-0.747601	2.481088	0.000000	-0.135062	0.000000	0.000007	-0.000000	0.000000	0.000000
24.273209	14.585987	18.359859	0.323537	-0.308938	2.436936	0.000000	-0.065380	0.000000	0.000007	-0.000000	0.000000	0.000000
24.715418	14.479982	18.432719	-0.046544	0.098512	2.423315	0.000000	-0.002385	0.000000	0.000007	0.000000	0.000000	0.000000
25.012741	14.513777	18.378982	-0.067122	0.082225	2.422606	0.000000	-0.002385	0.000000	0.000007	0.000000	0.000000	0.000000
25.346075	14.566215	18.330252	-0.090192	0.063966	2.421811	0.000000	-0.002385	0.000000	0.000007	0.000000	0.000000	0.000000
25.679408	14.634033	18.293694	-0.113262	0.045706	2.421016	0.000000	-0.002385	0.000000	0.000007	0.000000	0.000000	0.000000
26.013991	14.717273	18.269612	-0.017022	-0.120833	2.420194	0.000000	-0.022019	0.000000	0.000007	0.000000	0.000000	0.000000
26.311314	14.733404	18.346374	-0.001102	-0.182333	2.413647	0.000000	-0.027938	0.000000	0.000007	0.000000	0.000000	0.000000
26.752274	14.915913	18.308178	-0.414358	0.268624	2.416438	0.000000	0.040611	0.000000	0.000007	0.000000	0.000000	0.000000
27.193234	15.469819	17.876165	-0.846545	0.707358	2.449530	0.000000	0.109622	0.000000	0.000008	0.000000	0.000000	0.000000
27.634194	16.420430	17.069992	-1.317408	1.113908	2.513299	0.000000	0.179882	0.000000	0.000008	0.000001	0.000000	0.000000
28.075154	17.811175	15.926339	-1.848459	1.469775	2.608471	0.000000	0.252190	0.000000	0.000008	0.000001	0.000000	0.000000
28.521114	19.729758	14.480016	-2.468922	1.759683	2.737734	0.000000	0.327814	0.000000	0.000008	0.000001	0.000000	0.000000
29.070174	22.168289	12.868440	-1.946069	1.192798	2.895058	0.000000	0.244410	0.000000	0.000009	0.000001	0.000000	0.000000
29.619234	23.953322	11.829343	-1.285756	0.710873	3.005328	0.000000	0.156670	0.000000	0.000009	0.000000	0.000000	0.000000
30.168294	24.958771	11.288715	-0.534623	0.279583	3.066590	0.000000	0.066152	0.000000	0.000009	0.000000	0.000000	0.000000
30.717354	25.113616	11.208046	0.254274	-0.131794	3.077756	0.000000	-0.025540	0.000000	0.000009	-0.000000	0.000000	0.000000
31.015927	25.004634	11.277298	0.176349	-0.129431	3.072531	0.000000	-0.017499	0.000000	0.000009	-0.000000	0.000000	0.000000
31.349260	24.891650	11.373602	0.162604	-0.159484	3.066698	0.000000	-0.017499	0.000000	0.000009	-0.000000	0.000000	0.000000
31.682593	24.787829	11.489943	0.148859	-0.189537	3.060865	0.000000	-0.017499	0.000000	0.000009	-0.000000	0.000000	0.000000
32.017177	24.692834	11.626867	0.135062	-0.219703	3.055011	0.000000	-0.017499	0.000000	0.000009	-0.000000	0.000000	0.000000
32.314499	24.616165	11.765483	0.058489	-0.215770	3.049808	0.000000	-0.009531	0.000000	0.000009	-0.000000	0.000000	0.000000
32.863559	24.130221	12.241710	0.821319	-0.656699	3.019692	0.000000	-0.100010	0.000000	0.000009	-0.000000	0.000000	0.000000
33.412619	22.833652	13.224821	1.526136	-1.144404	2.940312	0.000000	-0.188715	0.000000	0.000009	-0.000001	0.000000	0.000000
33.961679	20.818040	14.784840	2.123155	-1.713621	2.813076	0.000000	-0.274073	0.000000	0.000008	-0.000001	0.000000	0.000000
34.510739	18.225759	17.032884	2.570204	-2.404896	2.640241	0.000000	-0.354569	0.000000	0.000008	-0.000001	0.000000	0.000000
34.956699	16.210226	19.043637	1.965525	-2.085097	2.498459	0.000000	-0.281637	0.000000	0.000007	-0.000001	0.000000	0.000000
35.397659	14.707324	20.706330	1.455654	-1.671175	2.389651	0.000000	-0.212341	0.000000	0.000007	-0.000001	0.000000	0.000000
35.838619	13.623174	21.968926	1.012287	-1.181216	2.310838	0.000000	-0.145463	0.000000	0.000006	-0.000001	0.000000	0.000000
36.279579	12.908243	22.773976	0.615169	-0.637512	2.261122	0.000000	-0.080241	0.000000	0.000006	-0.000001	0.000000	0.000000
36.721789	12.529177	23.085155	0.276773	-0.121465	2.239911	0.000000	-0.021426	0.000000	0.000006	-0.000000	0.000000	0.000000
37.019112	12.372191	23.161269	0.251225	-0.134534	2.233541	0.000000	-0.021426	0.000000	0.000006	-0.000000	0.000000	0.000000
37.352445	12.214255	23.255843	0.222583	-0.149187	2.226399	0.000000	-0.021426	0.000000	0.000006	-0.000000	0.000000	0.000000
37.685779	12.075414	23.360185	0.193940	-0.163839	2.219257	0.000000	-0.021426	0.000000	0.000005	-0.000000	0.000000	0.000000
38.020362	11.955255	23.474742	0.165190	-0.178546	2.212088	0.000000	-0.021426	0.000000	0.000005	-0.000000	0.000000	0.000000
38.317684	11.864622	23.584799	0.168736	-0.249450	2.205718	0.000000	-0.026835	0.000000	0.000005	-0.000000	0.000000	0.000000
38.758644	11.867114	23.543574	-0.174409	0.342583	2.207813	0.000000	0.036344	0.000000	0.000005	-0.000000	0.000000	0.000000
39.199604	12.174589	22.985128	-0.525521	0.919029	2.237831	0.000000	0.099937	0.000000	0.000005	-0.000000	0.000000	0.000000
39.640564	12.801094	21.934870	-0.900644	1.453660	2.296116	0.000000	0.164669	0.000000	0.000005	-0.000000	0.000000	0.000000
40.081524	13.775252	20.440586	-1.316914	1.922151	2.383331	0.000000	0.231276	0.000000	0.000005	0.000000	0.000000	0.000000
40.527484	15.159140	18.547697	-1.797176	2.304465	2.501941	0.000000	0.300922	0.000000	0.000005	0.000000	0.000000	0.000000
41.076544	16.925278	16.420621	-1.400439	1.592433	2.646635	0.000000	0.225362	0.000000	0.000005	0.000000	0.000000	0.000000
41.625604	18.198520	15.008943	-0.904783	0.993825	2.748682	0.000000	0.145805	0.000000	0.000005	-0.000000	0.000000	0.000000
42.174664	18.888932	14.212112	-0.345217	0.466006	2.806272	0.000000	0.063662	0.000000	0.000005	-0.000000	0.000000	0.000000
42.723724	18.947747	13.973370	0.238733	-0.028621	2.818383	0.000000	-0.019610	0.000000	0.000005	-0.000000	0.000000	0.000000
43.022297	18.839624	13.975040	0.172906	-0.013481	2.814727	0.000000	-0.012247	0.000000	0.000005	-0.000000	0.000000	0.000000
43.502297	18.686230	14.004471	0.146666	-0.047834	2.808848	0.000000	-0.012247	0.000000	0.000004	-0.000000	0.000000	0.000000
43.982297	18.558026	14.066881	0.120426	-0.082187	2.802970	0.000000	-0.012247	0.000000	0.000004	-0.000000	0.000000	0.000000
44.462297	18.455012	14.162270	0.094186	-0.116540	2.797092	0.000000	-0.012247	0.000000	0.000004	-0.000000	0.000000	0.000000
44.942297	18.377189	14.290639	0.067946	-0.150894	2.791214	0.000000	-0.012247	0.000000	0.000004	-0.000000	0.000000	0.000000
45.423547	18.324679	14.452270	-0.049153	-0.113731	2.785338	0.000000	0.001554	0.000000	0.000004	-0.000000	0.000000	0.000000
45.720870	18.358743	14.526095	-0.113384	-0.096617	2.785800	0.000000	0.008832	0.000000	0.000004	-0.000000	0.000000	0.000000
46.269930	18.174123	14.913184	0.447641	-0.612547	2.768077	0.000000	-0.073294	0.000000	0.000003	-0.000000	0.000000	0.000000
46.818990	17.387225	15.887316	0.977047	-1.172107	2.705554	0.000000	-0.154119	0.000000	0.000003	-0.000001	0.000000	0.000000
47.368050	16.053633	17.517877	1.437439	-1.815154	2.599338	0.000000	-0.232211	0.000000	0.000003	-0.000001	0.000000	0.000000
47.917110	14.267544	19.921009	1.796298	-2.587491	2.451315	0.000000	-0.306185	0.000000	0.000002	-0.000001	0.000000	0.000000
48.363070	12.877548	22.057660	1.331608	-2.183496	2.330061	0.000000	-0.237886	0.000000	0.000002	-0.000001	0.000000	0.000000
48.804030	11.883369	23.768446	0.931523	-1.681424	2.239623	0.000000	-0.172694	0.000000	0.000002	-0.000001	0.000000	0.000000
49.244990	11.222003	25.000889	0.573997	-1.102849	2.177471	0.000000	-0.109469	0.000000	0.000001	-0.000001	0.000000	0.000000
49.685950	10.863235	25.698915	0.242696	-0.474096	2.142898	0.000000	-0.047490	0.000000	0.000001	-0.000001	0.000000	0.000000
50.128160	10.790801	25.830482	-0.051172	0.112836	2.135521	0.000000	0.008710	0.000000	0.000001	-0.000001	0.000000	0.000000
50.425482	10.829444	25.766850	-0.078798	0.101179	2.138110	0.000000	0.008710	0.000000	0.000001	-0.000001	0.000000	0.000000
50.758816	10.892299	25.703754	-0.109769	0.088110	2.141014	0.000000	0.008710	0.000000	0.000000	-0.000001	0.000000	0.000000
51.092149	10.975802	25.649370	-0.140740	0.075041	2.143918	0.000000	0.008710	0.000000	0.000000	-0.000001	0.000000	0.000000
51.426732	11.080158	25.604063	-0.081938	-0.145790	2.146811	0.000000	-0.008706	0.000000	0.000000	-0.000001	0.000000	0.000000
51.724055	11.136914	25.694283	-0.081641	-0.220659	2.144222	0.000000	-0.013964	0.000000	-0.000000	-0.000001	0.000000	0.000000
52.165015	11.354308	25.603046	-0.413231	0.426776	2.151653	0.000000	0.047698	0.000000	-0.000000	-0.000001	0.000000	0.000000
52.605975	11.871327	24.947238	-0.763701	1.054793	2.186369	0.000000	0.109904	0.000000	-0.000001	-0.000001	0.000000	0.000000
53.046935	12.711590	23.756696	-1.149061	1.634818	2.248764	0.000000	0.173362	0.000000	-0.000001	-0.000001	0.000000	0.000000
53.487895	13.913489	22.085590	-1.586919	2.140460	2.339550	0.000000	0.238794	0.000000	-0.000001	-0.000001	0.000000	0.000000
53.933855	15.552533	19.984967	-2.101513	2.550048	2.461266	0.000000	0.307345	0.000000	-0.000001	-0.000001	0.000000	0.000000
54.482915	17.662723	17.621284	-1.719015	1.780326	2.609837	0.000000	0.233041	0.000000	-0.000002	-0.000001	0.000000	0.000000
55.031975	19.283319	16.028671	-1.215095	1.137412	2.716413	0.000000	0.154602	0.000000	-0.000002	-0.000001	0.000000	0.000000
55.581035	20.299849	15.093691	-0.625347	0.575514	2.779106	0.000000	0.073422	0.000000	-0.000002	-0.000000	0.000000	0.000000
56.130095	20.640511	14.749746	0.008573	0.054609	2.796801	0.000000	-0.009060	0.000000	-0.000003	-0.000000	0.000000	0.000000
56.428668	20.671924	14.700219	-0.059853	0.072730	2.796278	0.000000	-0.001753	0.000000	-0.000003	-0.000000	0.000000	0.000000
56.762001	20.717220	14.659331	-0.076036	0.049934	2.795694	0.000000	-0.001753	0.000000	-0.000003	-0.000000	0.000000	0.000000
57.095334	20.773305	14.633640	-0.092218	0.027139	2.795110	0.000000	-0.001753	0.000000	-0.000003	-0.000000	0.000000	0.000000
57.429918	20.840449	14.623135	-0.108462	0.004258	2.794524	0.000000	-0.001753	0.000000	-0.000003	-0.000000	0.000000	0.000000
57.727240	20.909237	14.626648	-0.177530	0.022143	2.794003	0.000000	0.005548	0.000000	-0.000003	-0.000000	0.000000	0.000000
58.276300	20.747437	14.883242	0.470471	-0.492236	2.774409	0.000000	-0.076813	0.000000	-0.000004	-0.000000	0.000000	0.000000
58.825360	19.888172	15.720511	1.085239	-1.041677	2.709903	0.000000	-0.157812	0.000000	-0.000004	-0.000000	0.000000	0.000000
59.374420	18.392137	17.198089	1.623352	-1.665314	2.601627	0.000000	-0.236012	0.000000	-0.000004	-0.000000	0.000000	0.000000
59.923480	16.365004	19.421222	2.046800	-2.407567	2.451502	0.000000	-0.310025	0.000000	-0.000004	0.000000	0.000000	0.000000
60.369440	14.778332	21.397203	1.523679	-2.004580	2.328534	0.000000	-0.241744	0.000000	-0.000004	-0.000000	0.000000	0.000000
60.810400	13.637022	22.953690	1.074379	-1.511758	2.236382	0.000000	-0.176613	0.000000	-0.000004	-0.000000	0.000000	0.000000
61.251360	12.868897	24.043441	0.674165	-0.950152	2.172480	0.000000	-0.113494	0.000000	-0.000004	-0.000000	0.000000	0.000000
61.692320	12.438866	24.616872	0.304752	-0.345315	2.136100	0.000000	-0.051668	0.000000	-0.000004	-0.000000	0.000000	0.000000
62.134530	12.327331	24.647356	-0.020609	0.214734	2.126832	0.000000	0.004354	0.000000	-0.000004	-0.000000	0.000000	0.000000
62.431853	12.346760	24.523418	-0.044738	0.202115	2.128127	0.000000	0.004354	0.000000	-0.000004	-0.000000	0.000000	0.000000
62.765186	12.385602	24.393391	-0.071790	0.187967	2.129579	0.000000	0.004354	0.000000	-0.000004	-0.000000	0.000000	0.000000
63.098520	12.442479	24.272795	-0.098841	0.173819	2.131030	0.000000	0.004354	0.000000	-0.000005	-0.000000	0.000000	0.000000
63.433103	12.517705	24.161233	-0.125994	0.159618	2.132487	0.000000	0.004354	0.000000	-0.000005	-0.000000	0.000000	0.000000
63.730426	12.599801	24.070068	-0.119224	0.087969	2.133782	0.000000	-0.000879	0.000000	-0.000005	-0.000000	0.000000	0.000000
64.171386	12.865370	23.727393	-0.485311	0.686185	2.146935	0.000000	0.060589	0.000000	-0.000005	-0.000001	0.000000	0.000000
64.612346	13.462317	22.868945	-0.873571	1.253179	2.187318	0.000000	0.122746	0.000000	-0.000005	-0.000001	0.000000	0.000000
65.053306	14.417918	21.533782	-1.301742	1.763154	2.255392	0.000000	0.186301	0.000000	-0.000006	-0.000001	0.000000	0.000000
65.494266	15.775830	19.782653	-1.789385	2.192908	2.351933	0.000000	0.251979	0.000000	-0.000006	-0.000001	0.000000	0.000000
65.940226	17.621257	17.670449	-2.363474	2.523642	2.479611	0.000000	0.320928	0.000000	-0.000007	-0.000001	0.000000	0.000000
66.489286	19.986823	15.307504	-1.919416	1.805380	2.635455	0.000000	0.245911	0.000000	-0.000007	-0.000001	0.000000	0.000000
67.038346	21.786972	13.658479	-1.339780	1.215711	2.748851	0.000000	0.166532	0.000000	-0.000008	-0.000001	0.000000	0.000000
67.587406	22.894552	12.605915	-0.665508	0.712634	2.817786	0.000000	0.084200	0.000000	-0.000008	-0.000000	0.000000	0.000000
68.136466	23.231327	12.074841	0.055771	0.260317	2.841039	0.000000	0.000374	0.000000	-0.000008	-0.000000	0.000000	0.000000
68.435038	23.238109	11.908565	-0.017784	0.265035	2.843367	0.000000	0.007798	0.000000	-0.000008	-0.000000	0.000000	0.000000
68.768372	23.254749	11.741861	-0.032133	0.235078	2.845966	0.000000	0.007798	0.000000	-0.000008	-0.000000	0.000000	0.000000
69.101705	23.280954	11.595128	-0.046482	0.205120	2.848565	0.000000	0.007798	0.000000	-0.000008	-0.000000	0.000000	0.000000
69.436288	23.316877	11.467929	-0.060885	0.175051	2.851174	0.000000	0.007798	0.000000	-0.000008	-0.000000	0.000000	0.000000
69.733611	23.356887	11.371781	-0.134715	0.178044	2.853493	0.000000	0.015254	0.000000	-0.000008	-0.000000	0.000000	0.000000
70.282671	23.103683	11.403961	0.593144	-0.237001	2.838685	0.000000	-0.069112	0.000000	-0.000008	0.000000	0.000000	0.000000
