#ParticleID	Turn	x[m]	xp	y[m]	yp	z[m]	dE[GeV]# s	beta_x	beta_y	alpha_x	alpha_y	D_x	D_y	D_px	D_py	orbit_x	orbit_px	orbit_y	orbit_py
0.300000	11.814002	25.017319	-0.011092	-0.027274	2.618114	0.000000	0.000011	0.000000	-0.000002	0.000001	0.000000	0.000000
0.601250	11.828367	25.037382	-0.036594	-0.039325	2.618117	0.000000	0.000011	0.000000	-0.000001	0.000001	0.000000	0.000000
0.898573	11.857611	25.064303	-0.032686	-0.112683	2.618120	0.000000	-0.006409	0.000000	-0.000001	0.000001	0.000000	0.000000
1.339533	12.038570	24.885650	-0.379245	0.516286	2.631586	0.000000	0.067548	0.000000	-0.000000	0.000001	0.000000	0.000000
1.780493	12.531623	24.160576	-0.743131	1.121765	2.677804	0.000000	0.142275	0.000000	0.000000	0.000001	0.000000	0.000000
2.221453	13.359296	22.922071	-1.140969	1.676204	2.757298	0.000000	0.218622	0.000000	0.000001	0.000001	0.000000	0.000000
2.662413	14.559403	21.226485	-1.590934	2.154377	2.870975	0.000000	0.297459	0.000000	0.000002	0.000001	0.000000	0.000000
3.108373	16.207522	19.126101	-2.117874	2.535661	3.021990	0.000000	0.380174	0.000000	0.000002	0.000001	0.000000	0.000000
3.657433	18.320960	16.767062	-1.708533	1.786205	3.205456	0.000000	0.287136	0.000000	0.000003	0.000001	0.000000	0.000000
4.206493	19.915559	15.156741	-1.178509	1.163976	3.336363	0.000000	0.189005	0.000000	0.000004	0.000001	0.000000	0.000000
4.755553	20.878684	14.180439	-0.565241	0.624655	3.412389	0.000000	0.087521	0.000000	0.000004	0.000001	0.000000	0.000000
5.304613	21.142304	13.768614	0.087953	0.129826	3.432185	0.000000	-0.015514	0.000000	0.000005	0.000001	0.000000	0.000000
5.603185	21.126990	13.676261	0.018577	0.143518	3.430230	0.000000	-0.006547	0.000000	0.000005	0.000001	0.000000	0.000000
5.936519	21.119866	13.588874	0.002794	0.118643	3.428048	0.000000	-0.006547	0.000000	0.000005	0.000001	0.000000	0.000000
6.269852	21.123265	13.518070	-0.012989	0.093768	3.425865	0.000000	-0.006547	0.000000	0.000006	0.000001	0.000000	0.000000
6.604435	21.137257	13.463678	-0.028831	0.068799	3.423674	0.000000	-0.006547	0.000000	0.000006	0.000001	0.000000	0.000000
6.901758	21.158587	13.429364	-0.098190	0.081698	3.421727	0.000000	0.002393	0.000000	0.000006	0.000001	0.000000	0.000000
7.450818	20.905805	13.600455	0.555857	-0.395145	3.394839	0.000000	-0.100189	0.000000	0.000007	0.000001	0.000000	0.000000
7.999878	19.952209	14.307467	1.170641	-0.900134	3.312033	0.000000	-0.200994	0.000000	0.000007	0.000001	0.000000	0.000000
8.548938	18.365157	15.600760	1.702737	-1.469237	3.174778	0.000000	-0.298234	0.000000	0.000007	0.000000	0.000000	0.000000
9.097998	16.256751	17.572451	2.114560	-2.142990	2.985508	0.000000	-0.390184	0.000000	0.000007	0.000000	0.000000	0.000000
9.543958	14.611806	19.329328	1.587102	-1.779899	2.829808	0.000000	-0.308476	0.000000	0.000007	0.000000	0.000000	0.000000
9.984918	13.415370	20.709031	1.136444	-1.337056	2.711029	0.000000	-0.230766	0.000000	0.000008	0.000000	0.000000	0.000000
10.425878	12.592068	21.669762	0.737706	-0.833379	2.625905	0.000000	-0.155685	0.000000	0.000008	0.000001	0.000000	0.000000
10.866838	12.104286	22.167809	0.372672	-0.291784	2.573467	0.000000	-0.082376	0.000000	0.000008	0.000001	0.000000	0.000000
11.309048	11.929604	22.179990	0.053812	0.208640	2.553097	0.000000	-0.016266	0.000000	0.000009	0.000001	0.000000	0.000000
11.606371	11.905036	22.060082	0.028817	0.194651	2.548261	0.000000	-0.016266	0.000000	0.000009	0.000001	0.000000	0.000000
12.086371	11.896741	21.884057	-0.011535	0.172068	2.540452	0.000000	-0.016266	0.000000	0.000009	0.000001	0.000000	0.000000
12.566371	11.927184	21.729711	-0.051888	0.149485	2.532644	0.000000	-0.016266	0.000000	0.000010	0.000001	0.000000	0.000000
13.046371	11.996366	21.597046	-0.092240	0.126902	2.524836	0.000000	-0.016266	0.000000	0.000010	0.000001	0.000000	0.000000
13.526371	12.104286	21.486060	-0.132593	0.104318	2.517028	0.000000	-0.016266	0.000000	0.000011	0.000001	0.000000	0.000000
14.007621	12.251377	21.396550	-0.173051	0.081677	2.509199	0.000000	-0.016266	0.000000	0.000011	0.000001	0.000000	0.000000
14.304943	12.361712	21.352141	-0.167735	0.015332	2.504363	0.000000	-0.022407	0.000000	0.000012	0.000001	0.000000	0.000000
14.745903	12.668192	21.104919	-0.529929	0.543178	2.510114	0.000000	0.048519	0.000000	0.000012	0.000001	0.000000	0.000000
15.186863	13.303526	20.401341	-0.916335	1.046310	2.547232	0.000000	0.119997	0.000000	0.000013	0.000002	0.000000	0.000000
15.627823	14.296743	19.273419	-1.344605	1.501835	2.616140	0.000000	0.192841	0.000000	0.000014	0.000002	0.000000	0.000000
16.068783	15.693218	17.772472	-1.834306	1.889028	2.717623	0.000000	0.267882	0.000000	0.000014	0.000002	0.000000	0.000000
16.514743	17.580411	15.945290	-2.412570	2.191016	2.854531	0.000000	0.346437	0.000000	0.000016	0.000003	0.000000	0.000000
17.063803	20.004234	13.905068	-1.975791	1.546762	3.021013	0.000000	0.259100	0.000000	0.000017	0.000002	0.000000	0.000000
17.612863	21.868481	12.508028	-1.399452	1.012679	3.138208	0.000000	0.167167	0.000000	0.000018	0.000002	0.000000	0.000000
18.161923	23.041473	11.654660	-0.724263	0.550728	3.204036	0.000000	0.072269	0.000000	0.000019	0.000001	0.000000	0.000000
18.710983	23.440353	11.284182	0.002085	0.128004	3.217331	0.000000	-0.023911	0.000000	0.000019	0.000000	0.000000	0.000000
19.009556	23.479491	11.198238	-0.071933	0.130367	3.212702	0.000000	-0.015506	0.000000	0.000019	0.000000	0.000000	0.000000
19.342889	23.532203	11.121417	-0.086203	0.100095	3.207533	0.000000	-0.015506	0.000000	0.000019	0.000000	0.000000	0.000000
19.676223	23.594429	11.064778	-0.100473	0.069822	3.202364	0.000000	-0.015506	0.000000	0.000020	0.000000	0.000000	0.000000
20.010806	23.666748	11.028086	-0.232055	0.094076	3.197196	0.000000	0.000335	0.000000	0.000020	0.000001	0.000000	0.000000
20.308129	23.808675	10.980231	-0.307492	0.095562	3.197295	0.000000	0.008688	0.000000	0.000020	0.000001	0.000000	0.000000
20.857189	23.735696	11.097445	0.439621	-0.310303	3.175844	0.000000	-0.086711	0.000000	0.000020	-0.000000	0.000000	0.000000
21.406249	22.854563	11.669796	1.155682	-0.738270	3.102359	0.000000	-0.180571	0.000000	0.000020	-0.000001	0.000000	0.000000
21.955309	21.227514	12.738051	1.790110	-1.218822	2.978145	0.000000	-0.271228	0.000000	0.000019	-0.000001	0.000000	0.000000
22.504369	18.969476	14.378300	2.298095	-1.786188	2.805403	0.000000	-0.357075	0.000000	0.000018	-0.000002	0.000000	0.000000
22.950329	17.189927	15.850947	1.706368	-1.502074	2.663457	0.000000	-0.279860	0.000000	0.000018	-0.000001	0.000000	0.000000
23.391289	15.914366	17.025082	1.197297	-1.150472	2.556374	0.000000	-0.206288	0.000000	0.000017	-0.000001	0.000000	0.000000
23.832249	15.062038	17.864776	0.742927	-0.746524	2.481184	0.000000	-0.135065	0.000000	0.000017	-0.000001	0.000000	0.000000
24.273209	14.594004	18.331825	0.322499	-0.308610	2.437032	0.000000	-0.065380	0.000000	0.000017	-0.000000	0.000000	0.000000
24.715418	14.488998	18.404733	-0.047756	0.098150	2.423412	0.000000	-0.002382	0.000000	0.000017	0.000000	0.000000	0.000000
25.012741	14.523511	18.351218	-0.068323	0.081840	2.422703	0.000000	-0.002382	0.000000	0.000017	0.000000	0.000000	0.000000
25.346075	14.576746	18.302753	-0.091382	0.063554	2.421909	0.000000	-0.002382	0.000000	0.000017	0.000000	0.000000	0.000000
25.679408	14.645353	18.266479	-0.114440	0.045268	2.421115	0.000000	-0.002382	0.000000	0.000017	0.000000	0.000000	0.000000
26.013991	14.729378	18.242698	-0.018091	-0.121080	2.420293	0.000000	-0.022018	0.000000	0.000017	0.000000	0.000000	0.000000
26.311314	14.746139	18.319615	-0.002127	-0.182535	2.413747	0.000000	-0.027936	0.000000	0.000017	0.000000	0.000000	0.000000
26.752274	14.929693	18.281916	-0.415711	0.267701	2.416539	0.000000	0.040615	0.000000	0.000017	0.000001	0.000000	0.000000
27.193234	15.484960	17.851021	-0.848289	0.705756	2.449634	0.000000	0.109629	0.000000	0.000017	0.000001	0.000000	0.000000
27.634194	16.437310	17.046534	-1.319622	1.111700	2.513406	0.000000	0.179892	0.000000	0.000018	0.000001	0.000000	0.000000
28.075154	17.830251	15.905059	-1.851245	1.467063	2.608583	0.000000	0.252203	0.000000	0.000019	0.000002	0.000000	0.000000
28.521114	19.751624	14.461337	-2.472413	1.756587	2.737852	0.000000	0.327830	0.000000	0.000020	0.000002	0.000000	0.000000
29.070174	22.193700	12.852750	-1.948995	1.190416	2.895182	0.000000	0.244422	0.000000	0.000021	0.000002	0.000000	0.000000
29.619234	23.981539	11.815956	-1.287910	0.709036	3.005458	0.000000	0.156678	0.000000	0.000022	0.000001	0.000000	0.000000
30.168294	24.988857	11.277107	-0.535853	0.278159	3.066722	0.000000	0.066156	0.000000	0.000022	0.000000	0.000000	0.000000
30.717354	25.144503	11.197822	0.254054	-0.132905	3.077889	0.000000	-0.025540	0.000000	0.000022	-0.000000	0.000000	0.000000
31.015927	25.035691	11.267764	0.176073	-0.130602	3.072664	0.000000	-0.017500	0.000000	0.000022	-0.000000	0.000000	0.000000
31.349260	24.922885	11.364861	0.162345	-0.160690	3.066831	0.000000	-0.017500	0.000000	0.000022	-0.000000	0.000000	0.000000
31.682593	24.819231	11.482017	0.148618	-0.190777	3.060998	0.000000	-0.017500	0.000000	0.000022	-0.000000	0.000000	0.000000
32.017177	24.724390	11.619783	0.134840	-0.220978	3.055143	0.000000	-0.017500	0.000000	0.000021	-0.000000	0.000000	0.000000
32.314499	24.647849	11.759165	0.058207	-0.217096	3.049939	0.000000	-0.009532	0.000000	0.000021	-0.000000	0.000000	0.000000
32.863559	24.161634	12.236782	0.822090	-0.657920	3.019821	0.000000	-0.100016	0.000000	0.000021	-0.000001	0.000000	0.000000
33.412619	22.863662	13.221215	1.527905	-1.145606	2.940437	0.000000	-0.188725	0.000000	0.000020	-0.000002	0.000000	0.000000
33.961679	20.845613	14.782583	2.125796	-1.714891	2.813195	0.000000	-0.274087	0.000000	0.000019	-0.000002	0.000000	0.000000
34.510739	18.250034	17.032099	2.573531	-2.406324	2.640351	0.000000	-0.354587	0.000000	0.000018	-0.000003	0.000000	0.000000
34.956699	16.231869	19.044209	1.968123	-2.086698	2.498564	0.000000	-0.281652	0.000000	0.000017	-0.000002	0.000000	0.000000
35.397659	14.726950	20.708363	1.457646	-1.672874	2.389750	0.000000	-0.212353	0.000000	0.000016	-0.000002	0.000000	0.000000
35.838619	13.641275	21.972472	1.013764	-1.182936	2.310932	0.000000	-0.145473	0.000000	0.000015	-0.000002	0.000000	0.000000
36.279579	12.925242	22.779020	0.616199	-0.639176	2.261213	0.000000	-0.080249	0.000000	0.000014	-0.000001	0.000000	0.000000
36.721789	12.545444	23.091617	0.277442	-0.123007	2.239999	0.000000	-0.021431	0.000000	0.000014	-0.000001	0.000000	0.000000
37.019112	12.388054	23.168649	0.251918	-0.136078	2.233627	0.000000	-0.021431	0.000000	0.000014	-0.000001	0.000000	0.000000
37.352445	12.229647	23.264252	0.223303	-0.150731	2.226484	0.000000	-0.021431	0.000000	0.000013	-0.000001	0.000000	0.000000
37.685779	12.090316	23.369624	0.194688	-0.165385	2.219340	0.000000	-0.021431	0.000000	0.000013	-0.000001	0.000000	0.000000
38.020362	11.969648	23.485215	0.165965	-0.180094	2.212170	0.000000	-0.021431	0.000000	0.000013	-0.000001	0.000000	0.000000
38.317684	11.878547	23.596193	0.169567	-0.251023	2.205798	0.000000	-0.026840	0.000000	0.000012	-0.000001	0.000000	0.000000
38.758644	11.880443	23.556217	-0.173886	0.341334	2.207891	0.000000	0.036341	0.000000	0.000012	-0.000001	0.000000	0.000000
39.199604	12.187584	22.998709	-0.525283	0.918161	2.237910	0.000000	0.099936	0.000000	0.000012	-0.000000	0.000000	0.000000
39.640564	12.814000	21.949034	-0.900679	1.453211	2.296195	0.000000	0.164670	0.000000	0.000012	0.000000	0.000000	0.000000
40.081524	13.788310	20.454952	-1.317225	1.922142	2.383410	0.000000	0.231279	0.000000	0.000012	0.000000	0.000000	0.000000
40.527484	15.172604	18.561871	-1.797778	2.304901	2.502022	0.000000	0.300927	0.000000	0.000012	0.000001	0.000000	0.000000
41.076544	16.939126	16.434518	-1.400533	1.592505	2.646718	0.000000	0.225365	0.000000	0.000012	0.000000	0.000000	0.000000
41.625604	18.212187	15.022956	-0.904361	0.993541	2.748765	0.000000	0.145805	0.000000	0.000012	-0.000000	0.000000	0.000000
42.174664	18.901865	14.226641	-0.344310	0.465344	2.806355	0.000000	0.063659	0.000000	0.000012	-0.000001	0.000000	0.000000
42.723724	18.959444	13.988855	0.240062	-0.029708	2.818464	0.000000	-0.019616	0.000000	0.000012	-0.000001	0.000000	0.000000
43.022297	18.850543	13.991144	0.174210	-0.014506	2.814806	0.000000	-0.012252	0.000000	0.000011	-0.000001	0.000000	0.000000
43.502297	18.695895	14.021541	0.147973	-0.048820	2.808925	0.000000	-0.012252	0.000000	0.000011	-0.000001	0.000000	0.000000
43.982297	18.566434	14.084879	0.121737	-0.083135	2.803045	0.000000	-0.012252	0.000000	0.000011	-0.000001	0.000000	0.000000
44.462297	18.462160	14.181160	0.095501	-0.117450	2.797164	0.000000	-0.012252	0.000000	0.000010	-0.000001	0.000000	0.000000
44.942297	18.383072	14.310383	0.069265	-0.151764	2.791283	0.000000	-0.012252	0.000000	0.000010	-0.000001	0.000000	0.000000
45.423547	18.329291	14.472834	-0.047854	-0.114461	2.785405	0.000000	0.001548	0.000000	0.000009	-0.000001	0.000000	0.000000
45.720870	18.362581	14.547085	-0.112086	-0.097268	2.785865	0.000000	0.008827	0.000000	0.000009	-0.000001	0.000000	0.000000
46.269930	18.176477	14.935243	0.449031	-0.613855	2.768139	0.000000	-0.073301	0.000000	0.000008	-0.000001	0.000000	0.000000
46.818990	17.388047	15.911213	0.978430	-1.174166	2.705612	0.000000	-0.154129	0.000000	0.000008	-0.000001	0.000000	0.000000
47.368050	16.052984	17.544512	1.438719	-1.818110	2.599391	0.000000	-0.232223	0.000000	0.000007	-0.000002	0.000000	0.000000
47.917110	14.265589	19.951474	1.797383	-2.591554	2.451361	0.000000	-0.306198	0.000000	0.000006	-0.000002	0.000000	0.000000
48.363070	12.874657	22.091462	1.332628	-2.186883	2.330103	0.000000	-0.237898	0.000000	0.000005	-0.000002	0.000000	0.000000
48.804030	11.879589	23.804879	0.932527	-1.683984	2.239660	0.000000	-0.172705	0.000000	0.000004	-0.000002	0.000000	0.000000
49.244990	11.217330	25.039171	0.575030	-1.104465	2.177504	0.000000	-0.109479	0.000000	0.000004	-0.000001	0.000000	0.000000
49.685950	10.857621	25.738176	0.243804	-0.474693	2.142927	0.000000	-0.047499	0.000000	0.000003	-0.000001	0.000000	0.000000
50.128160	10.784154	25.869809	-0.049954	0.113188	2.135546	0.000000	0.008702	0.000000	0.000002	-0.000001	0.000000	0.000000
50.425482	10.822077	25.805963	-0.077593	0.101548	2.138133	0.000000	0.008702	0.000000	0.000002	-0.000001	0.000000	0.000000
50.758816	10.884134	25.742615	-0.108579	0.088498	2.141035	0.000000	0.008702	0.000000	0.000002	-0.000001	0.000000	0.000000
51.092149	10.966849	25.687966	-0.139566	0.075447	2.143936	0.000000	0.008702	0.000000	0.000001	-0.000001	0.000000	0.000000
51.426732	11.070424	25.642382	-0.080859	-0.145675	2.146826	0.000000	-0.008714	0.000000	0.000001	-0.000001	0.000000	0.000000
51.724055	11.126544	25.732528	-0.080606	-0.220620	2.144235	0.000000	-0.013973	0.000000	0.000000	-0.000001	0.000000	0.000000
52.165015	11.342913	25.640810	-0.411933	0.427824	2.151663	0.000000	0.047690	0.000000	-0.000000	-0.000001	0.000000	0.000000
52.605975	11.858650	24.983649	-0.762081	1.056802	2.186375	0.000000	0.109896	0.000000	-0.000001	-0.000001	0.000000	0.000000
53.046935	12.697317	23.790945	-1.147046	1.637696	2.248767	0.000000	0.173354	0.000000	-0.000001	-0.000001	0.000000	0.000000
53.487895	13.897230	22.116964	-1.584416	2.144077	2.339550	0.000000	0.238786	0.000000	-0.000002	-0.000001	0.000000	0.000000
53.933855	15.533779	20.012843	-2.098402	2.554241	2.461262	0.000000	0.307337	0.000000	-0.000003	-0.000001	0.000000	0.000000
54.482915	17.640799	17.645163	-1.716386	1.783455	2.609830	0.000000	0.233033	0.000000	-0.000003	-0.000001	0.000000	0.000000
55.031975	19.258858	16.049593	-1.213132	1.139701	2.716403	0.000000	0.154595	0.000000	-0.000004	-0.000001	0.000000	0.000000
55.581035	20.273664	15.112484	-0.624190	0.577125	2.779091	0.000000	0.073415	0.000000	-0.000005	-0.000001	0.000000	0.000000
56.130095	20.613538	14.767088	0.008843	0.055656	2.796783	0.000000	-0.009067	0.000000	-0.000005	-0.000001	0.000000	0.000000
56.428668	20.644755	14.716902	-0.059533	0.073844	2.796258	0.000000	-0.001759	0.000000	-0.000006	-0.000001	0.000000	0.000000
56.762001	20.689844	14.675264	-0.075736	0.051070	2.795672	0.000000	-0.001759	0.000000	-0.000006	-0.000001	0.000000	0.000000
57.095334	20.745736	14.648808	-0.091939	0.028297	2.795086	0.000000	-0.001759	0.000000	-0.000006	-0.000001	0.000000	0.000000
57.429918	20.812700	14.637521	-0.108203	0.005439	2.794498	0.000000	-0.001759	0.000000	-0.000007	-0.000001	0.000000	0.000000
57.727240	20.881340	14.640326	-0.177219	0.023380	2.793975	0.000000	0.005541	0.000000	-0.000007	-0.000001	0.000000	0.000000
58.276300	20.719713	14.895772	0.469846	-0.491368	2.774379	0.000000	-0.076819	0.000000	-0.000007	-0.000001	0.000000	0.000000
58.825360	19.861631	15.732260	1.083723	-1.041116	2.709870	0.000000	-0.157816	0.000000	-0.000008	-0.000000	0.000000	0.000000
59.374420	18.367704	17.209371	1.621051	-1.665019	2.601592	0.000000	-0.236015	0.000000	-0.000008	-0.000000	0.000000	0.000000
59.923480	16.343456	19.432317	2.043876	-2.407519	2.451467	0.000000	-0.310027	0.000000	-0.000008	0.000000	0.000000	0.000000
60.369440	14.759100	21.408086	1.521393	-2.004152	2.328497	0.000000	-0.241747	0.000000	-0.000008	-0.000000	0.000000	0.000000
60.810400	13.619567	22.964036	1.072621	-1.510973	2.236344	0.000000	-0.176617	0.000000	-0.000008	-0.000000	0.000000	0.000000
61.251360	12.852791	24.052950	0.672853	-0.949046	2.172440	0.000000	-0.113499	0.000000	-0.000008	-0.000001	0.000000	0.000000
61.692320	12.423742	24.625282	0.303827	-0.343938	2.136057	0.000000	-0.051674	0.000000	-0.000009	-0.000001	0.000000	0.000000
62.134530	12.312870	24.654451	-0.021223	0.216299	2.126787	0.000000	0.004347	0.000000	-0.000009	-0.000001	0.000000	0.000000
62.431853	12.332673	24.529583	-0.045381	0.203676	2.128080	0.000000	0.004347	0.000000	-0.000009	-0.000001	0.000000	0.000000
62.765186	12.371955	24.398517	-0.072465	0.189523	2.129529	0.000000	0.004347	0.000000	-0.000010	-0.000001	0.000000	0.000000
63.098520	12.429294	24.276886	-0.099550	0.175370	2.130979	0.000000	0.004347	0.000000	-0.000010	-0.000001	0.000000	0.000000
63.433103	12.505005	24.164288	-0.126735	0.161164	2.132433	0.000000	0.004347	0.000000	-0.000010	-0.000001	0.000000	0.000000
63.730426	12.587550	24.072205	-0.120022	0.089502	2.133726	0.000000	-0.000886	0.000000	-0.000011	-0.000001	0.000000	0.000000
64.171386	12.853706	23.728166	-0.485851	0.687734	2.146875	0.000000	0.060580	0.000000	-0.000011	-0.000001	0.000000	0.000000
64.612346	13.451025	22.868371	-0.873876	1.254674	2.187255	0.000000	0.122735	0.000000	-0.000012	-0.000002	0.000000	0.000000
65.053306	14.406796	21.531938	-1.301827	1.764528	2.255325	0.000000	0.186289	0.000000	-0.000013	-0.000002	0.000000	0.000000
65.494266	15.764687	19.779675	-1.789254	2.194097	2.351860	0.000000	0.251965	0.000000	-0.000014	-0.000002	0.000000	0.000000
65.940226	17.609897	17.666514	-2.363119	2.524590	2.479532	0.000000	0.320912	0.000000	-0.000015	-0.000003	0.000000	0.000000
66.489286	19.975322	15.302556	-1.919515	1.806288	2.635369	0.000000	0.245897	0.000000	-0.000016	-0.000002	0.000000	0.000000
67.038346	21.775828	13.652526	-1.340327	1.216644	2.748758	0.000000	0.166522	0.000000	-0.000017	-0.000002	0.000000	0.000000
67.587406	22.884238	12.598894	-0.666465	0.713658	2.817689	0.000000	0.084193	0.000000	-0.000018	-0.000001	0.000000	0.000000
68.136466	23.222260	12.066612	0.054472	0.261505	2.840938	0.000000	0.000370	0.000000	-0.000018	-0.000000	0.000000	0.000000
68.435038	23.229808	11.899648	-0.019070	0.266169	2.843266	0.000000	0.007794	0.000000	-0.000018	-0.000000	0.000000	0.000000
68.768372	23.247307	11.732201	-0.033425	0.236173	2.845864	0.000000	0.007794	0.000000	-0.000018	-0.000000	0.000000	0.000000
69.101705	23.274374	11.584751	-0.047779	0.206176	2.848462	0.000000	0.007794	0.000000	-0.000019	-0.000000	0.000000	0.000000
69.436288	23.311167	11.456859	-0.062188	0.176067	2.851070	0.000000	0.007794	0.000000	-0.000019	-0.000000	0.000000	0.000000
69.733611	23.351954	11.360117	-0.136015	0.178998	2.853387	0.000000	0.015250	0.000000	-0.000019	-0.000001	0.000000	0.000000
70.282671	23.100256	11.391068	0.591718	-0.235701	2.838579	0.000000	-0.069112	0.000000	-0.000019	0.000000	0.000000	0.000000
