#ParticleID	Turn	x[m]	xp	y[m]	yp	z[m]	dE[GeV]# s	beta_x	beta_y	alpha_x	alpha_y	D_x	D_y	D_px	D_py	orbit_x	orbit_px	orbit_y	orbit_py
0.300000	11.825596	24.970862	-0.012506	-0.027659	2.618170	0.000000	-0.000010	0.000000	-0.000000	0.000000	0.000000	0.000000
0.601250	11.840806	24.991164	-0.037985	-0.039732	2.618167	0.000000	-0.000010	0.000000	0.000000	0.000000	0.000000	0.000000
0.898573	11.870870	25.018333	-0.034020	-0.113000	2.618164	0.000000	-0.006430	0.000000	0.000000	0.000000	0.000000	0.000000
1.339533	12.053149	24.840496	-0.380916	0.514761	2.631622	0.000000	0.067528	0.000000	0.000000	0.000000	0.000000	0.000000
1.780493	12.547851	24.117276	-0.745215	1.119101	2.677832	0.000000	0.142256	0.000000	0.000000	0.000000	0.000000	0.000000
2.221453	13.377578	22.881579	-1.143561	1.672524	2.757318	0.000000	0.218604	0.000000	0.000001	0.000000	0.000000	0.000000
2.662413	14.580238	21.189628	-1.594153	2.149847	2.870987	0.000000	0.297441	0.000000	0.000001	0.000000	0.000000	0.000000
3.108373	16.231563	19.093590	-2.121873	2.530485	3.021995	0.000000	0.380156	0.000000	0.000001	0.000000	0.000000	0.000000
3.657433	18.349079	16.739507	-1.711917	1.782301	3.205452	0.000000	0.287118	0.000000	0.000001	0.000000	0.000000	0.000000
4.206493	19.946944	15.132906	-1.181039	1.161066	3.336350	0.000000	0.188988	0.000000	0.000001	0.000000	0.000000	0.000000
4.755553	20.912292	14.159351	-0.566738	0.622531	3.412367	0.000000	0.087505	0.000000	0.000002	0.000000	0.000000	0.000000
5.304613	21.176938	13.749499	0.087594	0.128337	3.432155	0.000000	-0.015530	0.000000	0.000002	0.000000	0.000000	0.000000
5.603185	21.161885	13.658069	0.018150	0.141961	3.430196	0.000000	-0.006563	0.000000	0.000002	0.000000	0.000000	0.000000
5.936519	21.155037	13.571728	0.002393	0.117063	3.428008	0.000000	-0.006563	0.000000	0.000002	0.000000	0.000000	0.000000
6.269852	21.158694	13.501985	-0.013363	0.092166	3.425820	0.000000	-0.006563	0.000000	0.000002	0.000000	0.000000	0.000000
6.604435	21.172928	13.448672	-0.029179	0.067175	3.423624	0.000000	-0.006563	0.000000	0.000002	0.000000	0.000000	0.000000
6.901758	21.194458	13.415330	-0.098610	0.080018	3.421673	0.000000	0.002377	0.000000	0.000002	0.000000	0.000000	0.000000
7.450818	20.941474	13.588055	0.556640	-0.396459	3.394777	0.000000	-0.100203	0.000000	0.000002	0.000000	0.000000	0.000000
7.999878	19.986379	14.296354	1.172572	-0.901176	3.311965	0.000000	-0.201006	0.000000	0.000002	0.000000	0.000000	0.000000
8.548938	18.396635	15.590676	1.705680	-1.470081	3.174704	0.000000	-0.298243	0.000000	0.000002	0.000000	0.000000	0.000000
9.097998	16.284535	17.563214	2.118306	-2.143697	2.985429	0.000000	-0.390191	0.000000	0.000002	-0.000000	0.000000	0.000000
9.543958	14.636624	19.320891	1.590030	-1.780978	2.829727	0.000000	-0.308485	0.000000	0.000002	0.000000	0.000000	0.000000
9.984918	13.437915	20.701691	1.138692	-1.338456	2.710943	0.000000	-0.230777	0.000000	0.000002	0.000000	0.000000	0.000000
10.425878	12.612891	21.663775	0.739378	-0.835036	2.625814	0.000000	-0.155698	0.000000	0.000003	0.000000	0.000000	0.000000
10.866838	12.123860	22.163369	0.373844	-0.293622	2.573370	0.000000	-0.082392	0.000000	0.000003	0.000000	0.000000	0.000000
11.309048	11.948343	22.177226	0.054585	0.206707	2.552993	0.000000	-0.016284	0.000000	0.000003	0.000000	0.000000	0.000000
11.606371	11.923305	22.058464	0.029627	0.192728	2.548151	0.000000	-0.016284	0.000000	0.000003	0.000000	0.000000	0.000000
12.086371	11.914204	21.884279	-0.010666	0.170159	2.540334	0.000000	-0.016284	0.000000	0.000003	0.000000	0.000000	0.000000
12.566371	11.943784	21.731759	-0.050959	0.147591	2.532518	0.000000	-0.016284	0.000000	0.000003	0.000000	0.000000	0.000000
13.046371	12.012045	21.600904	-0.091251	0.125022	2.524701	0.000000	-0.016284	0.000000	0.000003	0.000000	0.000000	0.000000
13.526371	12.118987	21.491716	-0.131544	0.102453	2.516885	0.000000	-0.016284	0.000000	0.000003	0.000000	0.000000	0.000000
14.007621	12.265039	21.403994	-0.171941	0.079826	2.509048	0.000000	-0.016284	0.000000	0.000003	0.000000	0.000000	0.000000
14.304943	12.374704	21.360682	-0.166554	0.013466	2.504206	0.000000	-0.022425	0.000000	0.000004	0.000000	0.000000	0.000000
14.745903	12.680259	21.114993	-0.529006	0.541583	2.509948	0.000000	0.048496	0.000000	0.000004	0.000000	0.000000	0.000000
15.186863	13.314878	20.412676	-0.915628	1.045058	2.547056	0.000000	0.119970	0.000000	0.000004	0.000000	0.000000	0.000000
15.627823	14.307553	19.285684	-1.344081	1.500984	2.615952	0.000000	0.192809	0.000000	0.000004	0.000001	0.000000	0.000000
16.068783	15.703638	17.785296	-1.833942	1.888617	2.717420	0.000000	0.267845	0.000000	0.000004	0.000001	0.000000	0.000000
16.514743	17.590570	15.958276	-2.412348	2.191067	2.854312	0.000000	0.346394	0.000000	0.000005	0.000001	0.000000	0.000000
17.063803	20.013886	13.918144	-1.975098	1.546547	3.020773	0.000000	0.259065	0.000000	0.000005	0.000001	0.000000	0.000000
17.612863	21.877134	12.521491	-1.398337	1.012184	3.137951	0.000000	0.167140	0.000000	0.000005	0.000000	0.000000	0.000000
18.161923	23.048703	11.668836	-0.722804	0.549918	3.203768	0.000000	0.072251	0.000000	0.000006	0.000000	0.000000	0.000000
18.710983	23.445839	11.299447	0.003784	0.126820	3.217055	0.000000	-0.023920	0.000000	0.000006	0.000000	0.000000	0.000000
19.009556	23.483973	11.214171	-0.070249	0.129272	3.212423	0.000000	-0.015515	0.000000	0.000006	0.000000	0.000000	0.000000
19.342889	23.535561	11.138063	-0.084513	0.099051	3.207252	0.000000	-0.015515	0.000000	0.000006	0.000000	0.000000	0.000000
19.676223	23.596658	11.082102	-0.098778	0.068830	3.202080	0.000000	-0.015515	0.000000	0.000006	0.000000	0.000000	0.000000
20.010806	23.667840	11.046056	-0.230359	0.093225	3.196909	0.000000	0.000325	0.000000	0.000006	0.000000	0.000000	0.000000
20.308129	23.808755	10.998692	-0.305792	0.094811	3.197005	0.000000	0.008677	0.000000	0.000006	0.000000	0.000000	0.000000
20.857189	23.733917	11.117019	0.441287	-0.311590	3.175551	0.000000	-0.086711	0.000000	0.000006	-0.000000	0.000000	0.000000
21.406249	22.851028	11.691117	1.157196	-0.740184	3.102068	0.000000	-0.180562	0.000000	0.000006	-0.000000	0.000000	0.000000
21.955309	21.222450	12.761879	1.791366	-1.221500	2.977860	0.000000	-0.271210	0.000000	0.000006	-0.000000	0.000000	0.000000
22.504369	18.963218	14.405573	2.299003	-1.789821	2.805131	0.000000	-0.357048	0.000000	0.000005	-0.000001	0.000000	0.000000
22.950329	17.182846	15.881190	1.707313	-1.505074	2.663195	0.000000	-0.279840	0.000000	0.000005	-0.000000	0.000000	0.000000
23.391289	15.906419	17.057640	1.198323	-1.152703	2.556118	0.000000	-0.206275	0.000000	0.000005	-0.000000	0.000000	0.000000
23.832249	15.053133	17.898926	0.744081	-0.747886	2.480933	0.000000	-0.135058	0.000000	0.000005	-0.000000	0.000000	0.000000
24.273209	14.584006	18.366768	0.323833	-0.309040	2.436782	0.000000	-0.065380	0.000000	0.000005	-0.000000	0.000000	0.000000
24.715418	14.477718	18.439635	-0.046204	0.098580	2.423161	0.000000	-0.002389	0.000000	0.000005	0.000000	0.000000	0.000000
25.012741	14.511312	18.385855	-0.066784	0.082299	2.422451	0.000000	-0.002389	0.000000	0.000005	0.000000	0.000000	0.000000
25.346075	14.563526	18.337073	-0.089857	0.064047	2.421654	0.000000	-0.002389	0.000000	0.000005	0.000000	0.000000	0.000000
25.679408	14.631122	18.300460	-0.112931	0.045794	2.420858	0.000000	-0.002389	0.000000	0.000005	0.000000	0.000000	0.000000
26.013991	14.714142	18.276316	-0.016719	-0.120794	2.420034	0.000000	-0.022022	0.000000	0.000005	0.000000	0.000000	0.000000
26.311314	14.730094	18.353053	-0.000811	-0.182304	2.413487	0.000000	-0.027940	0.000000	0.000005	-0.000000	0.000000	0.000000
26.752274	14.912309	18.314752	-0.413981	0.268832	2.416276	0.000000	0.040605	0.000000	0.000005	0.000000	0.000000	0.000000
27.193234	15.465838	17.882479	-0.846064	0.707737	2.449364	0.000000	0.109611	0.000000	0.000005	0.000000	0.000000	0.000000
27.634194	16.415971	17.075902	-1.316802	1.114440	2.513128	0.000000	0.179867	0.000000	0.000005	0.000000	0.000000	0.000000
28.075154	17.806116	15.931720	-1.847700	1.470437	2.608293	0.000000	0.252171	0.000000	0.000005	0.000001	0.000000	0.000000
28.521114	19.723941	14.484760	-2.467974	1.760444	2.737546	0.000000	0.327790	0.000000	0.000006	0.000001	0.000000	0.000000
29.070174	22.161506	12.872450	-1.945269	1.193380	2.894858	0.000000	0.244392	0.000000	0.000006	0.000000	0.000000	0.000000
29.619234	23.945769	11.832793	-1.285161	0.711318	3.005121	0.000000	0.156659	0.000000	0.000006	0.000000	0.000000	0.000000
30.168294	24.950697	11.291736	-0.534274	0.279922	3.066378	0.000000	0.066148	0.000000	0.000006	0.000000	0.000000	0.000000
30.717354	25.105307	11.210742	0.254350	-0.131536	3.077543	0.000000	-0.025537	0.000000	0.000006	-0.000000	0.000000	0.000000
31.015927	24.996268	11.279833	0.176442	-0.129157	3.072320	0.000000	-0.017497	0.000000	0.000006	-0.000000	0.000000	0.000000
31.349260	24.883224	11.375952	0.162691	-0.159202	3.066487	0.000000	-0.017497	0.000000	0.000006	-0.000000	0.000000	0.000000
31.682593	24.779346	11.492101	0.148941	-0.189246	3.060655	0.000000	-0.017497	0.000000	0.000006	-0.000000	0.000000	0.000000
32.017177	24.684298	11.628828	0.135139	-0.219403	3.054801	0.000000	-0.017497	0.000000	0.000006	-0.000000	0.000000	0.000000
32.314499	24.607585	11.767263	0.058582	-0.215457	3.049599	0.000000	-0.009529	0.000000	0.000006	-0.000000	0.000000	0.000000
32.863559	24.121696	12.243166	0.821127	-0.656419	3.019486	0.000000	-0.100001	0.000000	0.000006	-0.000000	0.000000	0.000000
33.412619	22.825489	13.225978	1.525672	-1.144137	2.940112	0.000000	-0.188700	0.000000	0.000006	-0.000000	0.000000	0.000000
33.961679	20.810523	14.785703	2.122451	-1.713348	2.812886	0.000000	-0.274052	0.000000	0.000005	-0.000001	0.000000	0.000000
34.510739	18.219123	17.033434	2.569311	-2.404598	2.640064	0.000000	-0.354542	0.000000	0.000005	-0.000001	0.000000	0.000000
34.956699	16.204297	19.043898	1.964830	-2.084749	2.498294	0.000000	-0.281614	0.000000	0.000005	-0.000001	0.000000	0.000000
35.397659	14.701934	20.706268	1.455123	-1.670793	2.389495	0.000000	-0.212322	0.000000	0.000004	-0.000001	0.000000	0.000000
35.838619	13.618188	21.968517	1.011896	-1.180817	2.310689	0.000000	-0.145448	0.000000	0.000004	-0.000000	0.000000	0.000000
36.279579	12.903547	22.773215	0.614900	-0.637115	2.260979	0.000000	-0.080230	0.000000	0.000004	-0.000000	0.000000	0.000000
36.721789	12.524668	23.084050	0.276605	-0.121086	2.239772	0.000000	-0.021419	0.000000	0.000004	-0.000000	0.000000	0.000000
37.019112	12.367785	23.159939	0.251050	-0.134155	2.233403	0.000000	-0.021419	0.000000	0.000004	-0.000000	0.000000	0.000000
37.352445	12.209968	23.254259	0.222399	-0.148806	2.226264	0.000000	-0.021419	0.000000	0.000004	-0.000000	0.000000	0.000000
37.685779	12.071252	23.358348	0.193749	-0.163458	2.219124	0.000000	-0.021419	0.000000	0.000004	-0.000000	0.000000	0.000000
38.020362	11.951224	23.472649	0.164991	-0.178165	2.211958	0.000000	-0.021419	0.000000	0.000003	-0.000000	0.000000	0.000000
38.317684	11.860711	23.582479	0.168521	-0.249063	2.205590	0.000000	-0.026827	0.000000	0.000003	-0.000000	0.000000	0.000000
38.758644	11.863354	23.540942	-0.174537	0.342903	2.207687	0.000000	0.036349	0.000000	0.000003	-0.000000	0.000000	0.000000
39.199604	12.170906	22.982248	-0.525569	0.919268	2.237707	0.000000	0.099939	0.000000	0.000003	-0.000000	0.000000	0.000000
39.640564	12.797418	21.931820	-0.900612	1.453807	2.295992	0.000000	0.164667	0.000000	0.000003	-0.000000	0.000000	0.000000
40.081524	13.771514	20.437450	-1.316802	1.922198	2.383205	0.000000	0.231270	0.000000	0.000003	0.000000	0.000000	0.000000
40.527484	15.155265	18.544564	-1.796978	2.304411	2.501812	0.000000	0.300913	0.000000	0.000003	0.000000	0.000000	0.000000
41.076544	16.921263	16.417506	-1.400386	1.592454	2.646503	0.000000	0.225358	0.000000	0.000003	0.000000	0.000000	0.000000
41.625604	18.194529	15.005762	-0.904878	0.993924	2.748548	0.000000	0.145805	0.000000	0.000003	-0.000000	0.000000	0.000000
42.174664	18.885124	14.208777	-0.345454	0.466190	2.806139	0.000000	0.063666	0.000000	0.000003	-0.000000	0.000000	0.000000
42.723724	18.944269	13.969781	0.238372	-0.028340	2.818255	0.000000	-0.019602	0.000000	0.000003	-0.000000	0.000000	0.000000
43.022297	18.836356	13.971291	0.172552	-0.013214	2.814601	0.000000	-0.012238	0.000000	0.000003	-0.000000	0.000000	0.000000
43.502297	18.683302	14.000470	0.146311	-0.047576	2.808726	0.000000	-0.012238	0.000000	0.000003	-0.000000	0.000000	0.000000
43.982297	18.555439	14.062637	0.120070	-0.081939	2.802852	0.000000	-0.012238	0.000000	0.000003	-0.000000	0.000000	0.000000
44.462297	18.452768	14.157792	0.093828	-0.116301	2.796978	0.000000	-0.012238	0.000000	0.000003	-0.000000	0.000000	0.000000
44.942297	18.375289	14.285935	0.067587	-0.150663	2.791104	0.000000	-0.012238	0.000000	0.000002	-0.000000	0.000000	0.000000
45.423547	18.323125	14.447349	-0.049506	-0.113533	2.785231	0.000000	0.001561	0.000000	0.000002	-0.000000	0.000000	0.000000
45.720870	18.357400	14.521058	-0.113736	-0.096438	2.785696	0.000000	0.008840	0.000000	0.000002	-0.000000	0.000000	0.000000
46.269930	18.173187	14.907866	0.447254	-0.612210	2.767978	0.000000	-0.073283	0.000000	0.000002	-0.000000	0.000000	0.000000
46.818990	17.386722	15.881530	0.976652	-1.171588	2.705462	0.000000	-0.154105	0.000000	0.000002	-0.000000	0.000000	0.000000
47.368050	16.053554	17.511404	1.437065	-1.814415	2.599255	0.000000	-0.232194	0.000000	0.000002	-0.000000	0.000000	0.000000
47.917110	14.267853	19.913580	1.795970	-2.586479	2.451241	0.000000	-0.306165	0.000000	0.000001	-0.000000	0.000000	0.000000
48.363070	12.878137	22.049399	1.331304	-2.182647	2.329996	0.000000	-0.237868	0.000000	0.000001	-0.000000	0.000000	0.000000
48.804030	11.884221	23.759522	0.931230	-1.680777	2.239565	0.000000	-0.172678	0.000000	0.000001	-0.000000	0.000000	0.000000
49.244990	11.223115	24.991494	0.573700	-1.102432	2.177419	0.000000	-0.109454	0.000000	0.000001	-0.000000	0.000000	0.000000
49.685950	10.864615	25.689261	0.242382	-0.473928	2.142852	0.000000	-0.047477	0.000000	0.000001	-0.000000	0.000000	0.000000
50.128160	10.792472	25.820793	-0.051513	0.112770	2.135481	0.000000	0.008723	0.000000	0.000000	-0.000000	0.000000	0.000000
50.425482	10.831316	25.757202	-0.079135	0.101109	2.138074	0.000000	0.008723	0.000000	0.000000	-0.000000	0.000000	0.000000
50.758816	10.894396	25.694154	-0.110103	0.088035	2.140982	0.000000	0.008723	0.000000	0.000000	-0.000000	0.000000	0.000000
51.092149	10.978121	25.639822	-0.141071	0.074962	2.143890	0.000000	0.008723	0.000000	0.000000	-0.000000	0.000000	0.000000
51.426732	11.082696	25.594570	-0.082244	-0.145797	2.146786	0.000000	-0.008693	0.000000	-0.000000	-0.000000	0.000000	0.000000
51.724055	11.139632	25.684795	-0.081936	-0.220647	2.144202	0.000000	-0.013952	0.000000	-0.000000	-0.000000	0.000000	0.000000
52.165015	11.357316	25.593659	-0.413595	0.426537	2.151638	0.000000	0.047711	0.000000	-0.000000	-0.000000	0.000000	0.000000
52.605975	11.874692	24.938168	-0.764151	1.054315	2.186359	0.000000	0.109916	0.000000	-0.000001	-0.000000	0.000000	0.000000
53.046935	12.715398	23.748147	-1.149618	1.634121	2.248759	0.000000	0.173374	0.000000	-0.000001	-0.000000	0.000000	0.000000
53.487895	13.917844	22.077740	-1.587608	2.139577	2.339550	0.000000	0.238806	0.000000	-0.000001	-0.000000	0.000000	0.000000
53.933855	15.557574	19.977973	-2.102367	2.549019	2.461271	0.000000	0.307357	0.000000	-0.000001	-0.000000	0.000000	0.000000
54.482915	17.668638	17.615270	-1.719742	1.779561	2.609848	0.000000	0.233052	0.000000	-0.000001	-0.000000	0.000000	0.000000
55.031975	19.289938	16.023377	-1.215643	1.136857	2.716431	0.000000	0.154613	0.000000	-0.000002	-0.000000	0.000000	0.000000
55.581035	20.306954	15.088910	-0.625677	0.575130	2.779129	0.000000	0.073432	0.000000	-0.000002	-0.000000	0.000000	0.000000
56.130095	20.647849	14.745306	0.008483	0.054367	2.796830	0.000000	-0.009051	0.000000	-0.000002	-0.000000	0.000000	0.000000
56.428668	20.679325	14.695932	-0.059957	0.072471	2.796309	0.000000	-0.001743	0.000000	-0.000002	-0.000000	0.000000	0.000000
56.762001	20.724689	14.655219	-0.076134	0.049670	2.795728	0.000000	-0.001743	0.000000	-0.000002	-0.000000	0.000000	0.000000
57.095334	20.780837	14.629706	-0.092311	0.026869	2.795147	0.000000	-0.001743	0.000000	-0.000002	-0.000000	0.000000	0.000000
57.429918	20.848041	14.619383	-0.108549	0.003982	2.794564	0.000000	-0.001743	0.000000	-0.000002	-0.000000	0.000000	0.000000
57.727240	20.916879	14.623062	-0.177631	0.021853	2.794046	0.000000	0.005557	0.000000	-0.000002	-0.000000	0.000000	0.000000
58.276300	20.755050	14.879921	0.470626	-0.492429	2.774457	0.000000	-0.076805	0.000000	-0.000003	-0.000000	0.000000	0.000000
58.825360	19.895478	15.717353	1.085640	-1.041786	2.709955	0.000000	-0.157806	0.000000	-0.000003	-0.000000	0.000000	0.000000
59.374420	18.398879	17.195009	1.623971	-1.665346	2.601682	0.000000	-0.236007	0.000000	-0.000003	-0.000000	0.000000	0.000000
59.923480	16.370967	19.418137	2.047592	-2.407526	2.451560	0.000000	-0.310022	0.000000	-0.000003	0.000000	0.000000	0.000000
60.369440	14.783668	21.394127	1.524297	-2.004639	2.328592	0.000000	-0.241740	0.000000	-0.000003	-0.000000	0.000000	0.000000
60.810400	13.641880	22.950709	1.074852	-1.511915	2.236443	0.000000	-0.176607	0.000000	-0.000003	-0.000000	0.000000	0.000000
61.251360	12.873395	24.040639	0.674514	-0.950399	2.172544	0.000000	-0.113487	0.000000	-0.000003	-0.000000	0.000000	0.000000
61.692320	12.443104	24.614324	0.304993	-0.345641	2.136167	0.000000	-0.051659	0.000000	-0.000003	-0.000000	0.000000	0.000000
62.134530	12.331399	24.645126	-0.020455	0.214350	2.126904	0.000000	0.004365	0.000000	-0.000003	-0.000000	0.000000	0.000000
62.431853	12.350734	24.521415	-0.044576	0.201732	2.128202	0.000000	0.004365	0.000000	-0.000003	-0.000000	0.000000	0.000000
62.765186	12.389465	24.391643	-0.071618	0.187585	2.129657	0.000000	0.004365	0.000000	-0.000003	-0.000000	0.000000	0.000000
63.098520	12.446225	24.271302	-0.098661	0.173438	2.131112	0.000000	0.004365	0.000000	-0.000003	-0.000000	0.000000	0.000000
63.433103	12.521327	24.159994	-0.125805	0.159238	2.132573	0.000000	0.004365	0.000000	-0.000003	-0.000000	0.000000	0.000000
63.730426	12.603308	24.069056	-0.119018	0.087593	2.133871	0.000000	-0.000868	0.000000	-0.000003	-0.000000	0.000000	0.000000
64.171386	12.868729	23.726721	-0.485180	0.685792	2.147029	0.000000	0.060602	0.000000	-0.000003	-0.000000	0.000000	0.000000
64.612346	13.465592	22.868621	-0.873509	1.252787	2.187418	0.000000	0.122762	0.000000	-0.000004	-0.000000	0.000000	0.000000
65.053306	14.421167	21.533796	-1.301746	1.762781	2.255500	0.000000	0.186320	0.000000	-0.000004	-0.000001	0.000000	0.000000
65.494266	15.779111	19.782982	-1.789456	2.192570	2.352049	0.000000	0.252000	0.000000	-0.000004	-0.000001	0.000000	0.000000
65.940226	17.624632	17.671057	-2.363614	2.523356	2.479737	0.000000	0.320952	0.000000	-0.000004	-0.000001	0.000000	0.000000
66.489286	19.990280	15.308412	-1.919424	1.805117	2.635593	0.000000	0.245931	0.000000	-0.000005	-0.000001	0.000000	0.000000
67.038346	21.790366	13.659671	-1.339656	1.215452	2.748998	0.000000	0.166548	0.000000	-0.000005	-0.000000	0.000000	0.000000
67.587406	22.897741	12.607396	-0.665261	0.712362	2.817941	0.000000	0.084210	0.000000	-0.000005	-0.000000	0.000000	0.000000
68.136466	23.234185	12.076638	0.056124	0.260012	2.841197	0.000000	0.000379	0.000000	-0.000005	-0.000000	0.000000	0.000000
68.435038	23.240761	11.910539	-0.017436	0.264742	2.843527	0.000000	0.007803	0.000000	-0.000005	-0.000000	0.000000	0.000000
68.768372	23.257167	11.744027	-0.031783	0.234794	2.846128	0.000000	0.007803	0.000000	-0.000006	-0.000000	0.000000	0.000000
69.101705	23.283138	11.597480	-0.046130	0.204846	2.848730	0.000000	0.007803	0.000000	-0.000006	-0.000000	0.000000	0.000000
69.436288	23.318825	11.470461	-0.060531	0.174786	2.851340	0.000000	0.007803	0.000000	-0.000006	-0.000000	0.000000	0.000000
69.733611	23.358625	11.374468	-0.134363	0.177794	2.853661	0.000000	0.015260	0.000000	-0.000006	-0.000000	0.000000	0.000000
70.282671	23.105006	11.406965	0.593543	-0.237331	2.838855	0.000000	-0.069112	0.000000	-0.000006	0.000000	0.000000	0.000000
