#ParticleID	Turn	x[m]	xp	y[m]	yp	z[m]	dE[GeV]# s	beta_x	beta_y	alpha_x	alpha_y	D_x	D_y	D_px	D_py	orbit_x	orbit_px	orbit_y	orbit_py
0.300000	11.828529	24.959886	-0.012901	-0.027718	2.618221	0.000000	-0.000029	0.000000	-0.000000	0.000000	0.000000	0.000000
0.601250	11.843976	24.980225	-0.038374	-0.039796	2.618212	0.000000	-0.000029	0.000000	0.000000	0.000000	0.000000	0.000000
0.898573	11.874269	25.007434	-0.034395	-0.113043	2.618203	0.000000	-0.006450	0.000000	0.000000	0.000000	0.000000	0.000000
1.339533	12.056916	24.829761	-0.381378	0.514432	2.631653	0.000000	0.067510	0.000000	0.000000	0.000000	0.000000	0.000000
1.780493	12.552071	24.106953	-0.745785	1.118500	2.677854	0.000000	0.142238	0.000000	0.000000	0.000000	0.000000	0.000000
2.221453	13.382358	22.871897	-1.144265	1.671677	2.757333	0.000000	0.218586	0.000000	0.000000	0.000000	0.000000	0.000000
2.662413	14.585710	21.180786	-1.595024	2.148795	2.870994	0.000000	0.297424	0.000000	0.000001	0.000000	0.000000	0.000000
3.108373	16.237901	19.085762	-2.122952	2.529274	3.021995	0.000000	0.380139	0.000000	0.000001	0.000000	0.000000	0.000000
3.657433	18.356521	16.732836	-1.712836	1.781392	3.205442	0.000000	0.287101	0.000000	0.000001	0.000000	0.000000	0.000000
4.206493	19.955277	15.127097	-1.181734	1.160395	3.336331	0.000000	0.188971	0.000000	0.000001	0.000000	0.000000	0.000000
4.755553	20.921243	14.154171	-0.567159	0.622049	3.412339	0.000000	0.087489	0.000000	0.000001	0.000000	0.000000	0.000000
5.304613	21.186186	13.744760	0.087476	0.128011	3.432119	0.000000	-0.015545	0.000000	0.000001	0.000000	0.000000	0.000000
5.603185	21.171217	13.653534	0.018014	0.141617	3.430155	0.000000	-0.006578	0.000000	0.000001	0.000000	0.000000	0.000000
5.936519	21.164458	13.567424	0.002264	0.116714	3.427962	0.000000	-0.006578	0.000000	0.000001	0.000000	0.000000	0.000000
6.269852	21.168198	13.497916	-0.013486	0.091810	3.425770	0.000000	-0.006578	0.000000	0.000001	0.000000	0.000000	0.000000
6.604435	21.182512	13.444843	-0.029294	0.066814	3.423569	0.000000	-0.006578	0.000000	0.000002	0.000000	0.000000	0.000000
6.901758	21.204108	13.411717	-0.098744	0.079643	3.421613	0.000000	0.002362	0.000000	0.000002	0.000000	0.000000	0.000000
7.450818	20.951094	13.584800	0.556830	-0.396739	3.394710	0.000000	-0.100216	0.000000	0.000002	0.000000	0.000000	0.000000
7.999878	19.995617	14.293363	1.173073	-0.901380	3.311890	0.000000	-0.201016	0.000000	0.000002	0.000000	0.000000	0.000000
8.548938	18.405168	15.587875	1.706456	-1.470224	3.174624	0.000000	-0.298251	0.000000	0.000002	0.000000	0.000000	0.000000
9.097998	16.292088	17.560541	2.119304	-2.143789	2.985346	0.000000	-0.390196	0.000000	0.000002	-0.000000	0.000000	0.000000
9.543958	14.643389	19.318343	1.590806	-1.781168	2.829641	0.000000	-0.308493	0.000000	0.000002	0.000000	0.000000	0.000000
9.984918	13.444078	20.699352	1.139285	-1.338736	2.710853	0.000000	-0.230787	0.000000	0.000002	0.000000	0.000000	0.000000
10.425878	12.618602	21.661717	0.739814	-0.835391	2.625719	0.000000	-0.155710	0.000000	0.000002	0.000000	0.000000	0.000000
10.866838	12.129248	22.161652	0.374143	-0.294038	2.573269	0.000000	-0.082406	0.000000	0.000002	0.000000	0.000000	0.000000
11.309048	11.953522	22.175896	0.054774	0.206254	2.552885	0.000000	-0.016302	0.000000	0.000002	0.000000	0.000000	0.000000
11.606371	11.928368	22.057404	0.029827	0.192276	2.548038	0.000000	-0.016302	0.000000	0.000002	0.000000	0.000000	0.000000
12.086371	11.919067	21.883651	-0.010449	0.169710	2.540213	0.000000	-0.016302	0.000000	0.000002	0.000000	0.000000	0.000000
12.566371	11.948431	21.731561	-0.050725	0.147144	2.532388	0.000000	-0.016302	0.000000	0.000002	0.000000	0.000000	0.000000
13.046371	12.016460	21.601134	-0.091001	0.124578	2.524563	0.000000	-0.016302	0.000000	0.000002	0.000000	0.000000	0.000000
13.526371	12.123154	21.492371	-0.131277	0.102012	2.516739	0.000000	-0.016302	0.000000	0.000002	0.000000	0.000000	0.000000
14.007621	12.268941	21.405072	-0.171658	0.079387	2.508893	0.000000	-0.016302	0.000000	0.000002	0.000000	0.000000	0.000000
14.304943	12.378435	21.362021	-0.166251	0.013025	2.504046	0.000000	-0.022442	0.000000	0.000003	0.000000	0.000000	0.000000
14.745903	12.683757	21.116701	-0.528779	0.541188	2.509780	0.000000	0.048475	0.000000	0.000003	0.000000	0.000000	0.000000
15.186863	13.318204	20.414705	-0.915465	1.044727	2.546878	0.000000	0.119944	0.000000	0.000003	0.000000	0.000000	0.000000
15.627823	14.310762	19.287972	-1.343976	1.500732	2.615761	0.000000	0.192779	0.000000	0.000003	0.000000	0.000000	0.000000
16.068783	15.706777	17.787767	-1.833889	1.888455	2.717215	0.000000	0.267810	0.000000	0.000003	0.000000	0.000000	0.000000
16.514743	17.593685	15.960847	-2.412346	2.191004	2.854090	0.000000	0.346353	0.000000	0.000003	0.000001	0.000000	0.000000
17.063803	20.016924	13.920808	-1.974959	1.546440	3.020531	0.000000	0.259031	0.000000	0.000004	0.000000	0.000000	0.000000
17.612863	21.879947	12.524300	-1.398070	1.012026	3.137693	0.000000	0.167115	0.000000	0.000004	0.000000	0.000000	0.000000
18.161923	23.051162	11.671852	-0.722429	0.549696	3.203498	0.000000	0.072234	0.000000	0.000004	0.000000	0.000000	0.000000
18.710983	23.447839	11.302748	0.004241	0.126520	3.216779	0.000000	-0.023928	0.000000	0.000004	0.000000	0.000000	0.000000
19.009556	23.485704	11.217642	-0.069797	0.128992	3.212144	0.000000	-0.015523	0.000000	0.000004	0.000000	0.000000	0.000000
19.342889	23.536989	11.141717	-0.084059	0.098782	3.206969	0.000000	-0.015523	0.000000	0.000004	0.000000	0.000000	0.000000
19.676223	23.597783	11.085932	-0.098321	0.068573	3.201795	0.000000	-0.015523	0.000000	0.000004	0.000000	0.000000	0.000000
20.010806	23.668659	11.050054	-0.229905	0.092999	3.196621	0.000000	0.000315	0.000000	0.000004	0.000000	0.000000	0.000000
20.308129	23.809303	11.002822	-0.305338	0.094606	3.196714	0.000000	0.008667	0.000000	0.000004	0.000000	0.000000	0.000000
20.857189	23.733959	11.121438	0.441750	-0.311915	3.175257	0.000000	-0.086713	0.000000	0.000004	-0.000000	0.000000	0.000000
21.406249	22.850571	11.695970	1.157634	-0.740654	3.101776	0.000000	-0.180554	0.000000	0.000004	-0.000000	0.000000	0.000000
21.955309	21.221539	12.767341	1.791749	-1.222147	2.977575	0.000000	-0.271193	0.000000	0.000004	-0.000000	0.000000	0.000000
22.504369	18.961929	14.411863	2.299304	-1.790691	2.804858	0.000000	-0.357021	0.000000	0.000004	-0.000000	0.000000	0.000000
22.950329	17.181291	15.888195	1.707612	-1.505801	2.662932	0.000000	-0.279821	0.000000	0.000004	-0.000000	0.000000	0.000000
23.391289	15.904596	17.065211	1.198634	-1.153254	2.555863	0.000000	-0.206262	0.000000	0.000004	-0.000000	0.000000	0.000000
23.832249	15.051026	17.906895	0.744417	-0.748236	2.480682	0.000000	-0.135052	0.000000	0.000003	-0.000000	0.000000	0.000000
24.273209	14.581585	18.374951	0.324211	-0.309173	2.436533	0.000000	-0.065380	0.000000	0.000003	-0.000000	0.000000	0.000000
24.715418	14.474938	18.447836	-0.045774	0.098649	2.422910	0.000000	-0.002395	0.000000	0.000003	0.000000	0.000000	0.000000
25.012741	14.508278	18.394014	-0.066358	0.082376	2.422198	0.000000	-0.002395	0.000000	0.000003	0.000000	0.000000	0.000000
25.346075	14.560208	18.345178	-0.089434	0.064131	2.421399	0.000000	-0.002395	0.000000	0.000003	0.000000	0.000000	0.000000
25.679408	14.627523	18.308506	-0.112511	0.045886	2.420601	0.000000	-0.002395	0.000000	0.000003	0.000000	0.000000	0.000000
26.013991	14.710263	18.284299	-0.016335	-0.120758	2.419776	0.000000	-0.022025	0.000000	0.000003	0.000000	0.000000	0.000000
26.311314	14.725988	18.361012	-0.000441	-0.182282	2.413227	0.000000	-0.027943	0.000000	0.000003	-0.000000	0.000000	0.000000
26.752274	14.907831	18.322596	-0.413504	0.269070	2.416014	0.000000	0.040595	0.000000	0.000003	0.000000	0.000000	0.000000
27.193234	15.460884	17.890023	-0.845458	0.708178	2.449096	0.000000	0.109595	0.000000	0.000004	0.000000	0.000000	0.000000
27.634194	16.410417	17.082974	-1.316040	1.115066	2.512850	0.000000	0.179843	0.000000	0.000004	0.000000	0.000000	0.000000
28.075154	17.799808	15.938169	-1.846747	1.471218	2.608003	0.000000	0.252139	0.000000	0.000004	0.000000	0.000000	0.000000
28.521114	19.716681	14.490456	-2.466785	1.761346	2.737241	0.000000	0.327751	0.000000	0.000004	0.000000	0.000000	0.000000
29.070174	22.153034	12.877278	-1.944264	1.194068	2.894535	0.000000	0.244363	0.000000	0.000004	0.000000	0.000000	0.000000
29.619234	23.936327	11.836960	-1.284411	0.711841	3.004785	0.000000	0.156641	0.000000	0.000004	0.000000	0.000000	0.000000
30.168294	24.940597	11.295402	-0.533833	0.280318	3.066035	0.000000	0.066141	0.000000	0.000004	0.000000	0.000000	0.000000
30.717354	25.094907	11.214030	0.254452	-0.131240	3.077200	0.000000	-0.025533	0.000000	0.000004	-0.000000	0.000000	0.000000
31.015927	24.985794	11.282936	0.176564	-0.128842	3.071977	0.000000	-0.017493	0.000000	0.000004	-0.000000	0.000000	0.000000
31.349260	24.872670	11.378842	0.162807	-0.158876	3.066146	0.000000	-0.017493	0.000000	0.000004	-0.000000	0.000000	0.000000
31.682593	24.768717	11.494770	0.149050	-0.188909	3.060315	0.000000	-0.017493	0.000000	0.000004	-0.000000	0.000000	0.000000
32.017177	24.673598	11.631268	0.135242	-0.219056	3.054462	0.000000	-0.017493	0.000000	0.000004	-0.000000	0.000000	0.000000
32.314499	24.596825	11.769494	0.058707	-0.215094	3.049261	0.000000	-0.009526	0.000000	0.000004	-0.000000	0.000000	0.000000
32.863559	24.110996	12.245024	0.820893	-0.656099	3.019152	0.000000	-0.099988	0.000000	0.000004	-0.000000	0.000000	0.000000
33.412619	22.815236	13.227498	1.525096	-1.143837	2.939788	0.000000	-0.188676	0.000000	0.000004	-0.000000	0.000000	0.000000
33.961679	20.801072	14.786895	2.121574	-1.713048	2.812578	0.000000	-0.274017	0.000000	0.000004	-0.000000	0.000000	0.000000
34.510739	18.210774	17.034286	2.568194	-2.404275	2.639778	0.000000	-0.354498	0.000000	0.000004	-0.000001	0.000000	0.000000
34.956699	16.196829	19.044432	1.963962	-2.084362	2.498026	0.000000	-0.281577	0.000000	0.000003	-0.000000	0.000000	0.000000
35.397659	14.695138	20.706440	1.454461	-1.670361	2.389241	0.000000	-0.212292	0.000000	0.000003	-0.000000	0.000000	0.000000
35.838619	13.611897	21.968295	1.011411	-1.180359	2.310447	0.000000	-0.145424	0.000000	0.000003	-0.000000	0.000000	0.000000
36.279579	12.897614	22.772585	0.614569	-0.636652	2.260746	0.000000	-0.080213	0.000000	0.000003	-0.000000	0.000000	0.000000
36.721789	12.518966	23.083017	0.276399	-0.120637	2.239545	0.000000	-0.021407	0.000000	0.000003	-0.000000	0.000000	0.000000
37.019112	12.362208	23.158639	0.250834	-0.133705	2.233181	0.000000	-0.021407	0.000000	0.000003	-0.000000	0.000000	0.000000
37.352445	12.204538	23.252659	0.222174	-0.148356	2.226045	0.000000	-0.021407	0.000000	0.000003	-0.000000	0.000000	0.000000
37.685779	12.065976	23.356447	0.193514	-0.163007	2.218910	0.000000	-0.021407	0.000000	0.000002	-0.000000	0.000000	0.000000
38.020362	11.946108	23.470446	0.164746	-0.177713	2.211748	0.000000	-0.021407	0.000000	0.000002	-0.000000	0.000000	0.000000
38.317684	11.855744	23.580008	0.168255	-0.248605	2.205383	0.000000	-0.026815	0.000000	0.000002	-0.000000	0.000000	0.000000
38.758644	11.858572	23.538096	-0.174693	0.343290	2.207485	0.000000	0.036356	0.000000	0.000002	-0.000000	0.000000	0.000000
39.199604	12.166215	22.979100	-0.525621	0.919565	2.237507	0.000000	0.099941	0.000000	0.000002	-0.000000	0.000000	0.000000
39.640564	12.792729	21.928454	-0.900564	1.454001	2.295792	0.000000	0.164664	0.000000	0.000002	-0.000000	0.000000	0.000000
40.081524	13.766738	20.433962	-1.316651	1.922281	2.383002	0.000000	0.231262	0.000000	0.000002	0.000000	0.000000	0.000000
40.527484	15.150305	18.541053	-1.796716	2.304377	2.501604	0.000000	0.300900	0.000000	0.000002	0.000000	0.000000	0.000000
41.076544	16.916116	16.413988	-1.400308	1.592503	2.646289	0.000000	0.225351	0.000000	0.000002	0.000000	0.000000	0.000000
41.625604	18.189400	15.002144	-0.904989	0.994058	2.748333	0.000000	0.145806	0.000000	0.000002	-0.000000	0.000000	0.000000
42.174664	18.880218	14.204960	-0.345746	0.466419	2.805926	0.000000	0.063674	0.000000	0.000002	-0.000000	0.000000	0.000000
42.723724	18.939774	13.965654	0.237919	-0.027999	2.818047	0.000000	-0.019588	0.000000	0.000002	-0.000000	0.000000	0.000000
43.022297	18.832126	13.966968	0.172109	-0.012890	2.814397	0.000000	-0.012225	0.000000	0.000002	-0.000000	0.000000	0.000000
43.502297	18.679498	13.995841	0.145866	-0.047263	2.808529	0.000000	-0.012225	0.000000	0.000002	-0.000000	0.000000	0.000000
43.982297	18.552063	14.057712	0.119622	-0.081635	2.802662	0.000000	-0.012225	0.000000	0.000002	-0.000000	0.000000	0.000000
44.462297	18.449823	14.152581	0.093379	-0.116008	2.796794	0.000000	-0.012225	0.000000	0.000002	-0.000000	0.000000	0.000000
44.942297	18.372775	14.280448	0.067136	-0.150380	2.790926	0.000000	-0.012225	0.000000	0.000002	-0.000000	0.000000	0.000000
45.423547	18.321047	14.441595	-0.049949	-0.113290	2.785060	0.000000	0.001574	0.000000	0.000002	-0.000000	0.000000	0.000000
45.720870	18.355585	14.515162	-0.114177	-0.096217	2.785528	0.000000	0.008852	0.000000	0.000002	-0.000000	0.000000	0.000000
46.269930	18.171887	14.901626	0.446765	-0.611802	2.767819	0.000000	-0.073265	0.000000	0.000001	-0.000000	0.000000	0.000000
46.818990	17.385969	15.874728	0.976149	-1.170965	2.705313	0.000000	-0.154083	0.000000	0.000001	-0.000000	0.000000	0.000000
47.368050	16.053346	17.503781	1.436583	-1.813533	2.599120	0.000000	-0.232167	0.000000	0.000001	-0.000000	0.000000	0.000000
47.917110	14.268146	19.904818	1.795544	-2.585275	2.451123	0.000000	-0.306134	0.000000	0.000001	-0.000000	0.000000	0.000000
48.363070	12.878793	22.039643	1.330912	-2.181634	2.329890	0.000000	-0.237840	0.000000	0.000001	-0.000000	0.000000	0.000000
48.804030	11.885215	23.748974	0.930852	-1.680000	2.239471	0.000000	-0.172652	0.000000	0.000001	-0.000000	0.000000	0.000000
49.244990	11.224442	24.980378	0.573321	-1.101927	2.177337	0.000000	-0.109431	0.000000	0.000000	-0.000000	0.000000	0.000000
49.685950	10.866284	25.677829	0.241982	-0.473718	2.142780	0.000000	-0.047455	0.000000	0.000000	-0.000000	0.000000	0.000000
50.128160	10.794509	25.809310	-0.051946	0.112704	2.135417	0.000000	0.008743	0.000000	0.000000	-0.000000	0.000000	0.000000
50.425482	10.833610	25.745760	-0.079564	0.101037	2.138016	0.000000	0.008743	0.000000	0.000000	-0.000000	0.000000	0.000000
50.758816	10.896974	25.682762	-0.110527	0.087958	2.140930	0.000000	0.008743	0.000000	0.000000	-0.000000	0.000000	0.000000
51.092149	10.980979	25.628483	-0.141490	0.074879	2.143845	0.000000	0.008743	0.000000	-0.000000	-0.000000	0.000000	0.000000
51.426732	11.085834	25.583287	-0.082634	-0.145794	2.146748	0.000000	-0.008673	0.000000	-0.000000	-0.000000	0.000000	0.000000
51.724055	11.143000	25.673512	-0.082311	-0.220622	2.144170	0.000000	-0.013931	0.000000	-0.000000	-0.000000	0.000000	0.000000
52.165015	11.361052	25.582485	-0.414057	0.426265	2.151615	0.000000	0.047730	0.000000	-0.000000	-0.000000	0.000000	0.000000
52.605975	11.878881	24.927362	-0.764720	1.053756	2.186344	0.000000	0.109935	0.000000	-0.000000	-0.000000	0.000000	0.000000
53.046935	12.720146	23.737950	-1.150321	1.633303	2.248753	0.000000	0.173393	0.000000	-0.000001	-0.000000	0.000000	0.000000
53.487895	13.923282	22.068367	-1.588477	2.138535	2.339552	0.000000	0.238825	0.000000	-0.000001	-0.000000	0.000000	0.000000
53.933855	15.563877	19.969612	-2.103443	2.547801	2.461281	0.000000	0.307375	0.000000	-0.000001	-0.000000	0.000000	0.000000
54.482915	17.676041	17.608066	-1.720660	1.778658	2.609868	0.000000	0.233070	0.000000	-0.000001	-0.000000	0.000000	0.000000
55.031975	19.298232	16.017023	-1.216338	1.136205	2.716461	0.000000	0.154631	0.000000	-0.000001	-0.000000	0.000000	0.000000
55.581035	20.315864	15.083157	-0.626100	0.574681	2.779168	0.000000	0.073449	0.000000	-0.000001	-0.000000	0.000000	0.000000
56.130095	20.657058	14.739950	0.008363	0.054090	2.796877	0.000000	-0.009036	0.000000	-0.000001	-0.000000	0.000000	0.000000
56.428668	20.688619	14.690752	-0.060095	0.072174	2.796362	0.000000	-0.001728	0.000000	-0.000001	-0.000000	0.000000	0.000000
56.762001	20.734072	14.650238	-0.076265	0.049366	2.795786	0.000000	-0.001728	0.000000	-0.000002	-0.000000	0.000000	0.000000
57.095334	20.790305	14.624931	-0.092435	0.026558	2.795210	0.000000	-0.001728	0.000000	-0.000002	-0.000000	0.000000	0.000000
57.429918	20.857590	14.614819	-0.108666	0.003664	2.794631	0.000000	-0.001728	0.000000	-0.000002	-0.000000	0.000000	0.000000
57.727240	20.926496	14.618689	-0.177767	0.021516	2.794118	0.000000	0.005572	0.000000	-0.000002	-0.000000	0.000000	0.000000
58.276300	20.764637	14.875850	0.470814	-0.492646	2.774537	0.000000	-0.076793	0.000000	-0.000002	-0.000000	0.000000	0.000000
58.825360	19.904686	15.713462	1.086138	-1.041898	2.710040	0.000000	-0.157796	0.000000	-0.000002	-0.000000	0.000000	0.000000
59.374420	18.407386	17.191188	1.624744	-1.665362	2.601772	0.000000	-0.236000	0.000000	-0.000002	-0.000000	0.000000	0.000000
59.923480	16.378498	19.414281	2.048585	-2.407446	2.451653	0.000000	-0.310018	0.000000	-0.000002	0.000000	0.000000	0.000000
60.369440	14.790415	21.390254	1.525070	-2.004683	2.328688	0.000000	-0.241733	0.000000	-0.000002	-0.000000	0.000000	0.000000
60.810400	13.648027	22.946930	1.075442	-1.512079	2.236542	0.000000	-0.176598	0.000000	-0.000002	-0.000000	0.000000	0.000000
61.251360	12.879093	24.037055	0.674948	-0.950677	2.172648	0.000000	-0.113475	0.000000	-0.000002	-0.000000	0.000000	0.000000
61.692320	12.448480	24.611030	0.305291	-0.346020	2.136277	0.000000	-0.051644	0.000000	-0.000002	-0.000000	0.000000	0.000000
62.134530	12.336567	24.642206	-0.020267	0.213896	2.127021	0.000000	0.004383	0.000000	-0.000002	-0.000000	0.000000	0.000000
62.431853	12.355788	24.518765	-0.044378	0.201278	2.128324	0.000000	0.004383	0.000000	-0.000002	-0.000000	0.000000	0.000000
62.765186	12.394383	24.389295	-0.071409	0.187132	2.129785	0.000000	0.004383	0.000000	-0.000002	-0.000000	0.000000	0.000000
63.098520	12.451000	24.269255	-0.098440	0.172987	2.131246	0.000000	0.004383	0.000000	-0.000002	-0.000000	0.000000	0.000000
63.433103	12.525950	24.158249	-0.125572	0.158788	2.132713	0.000000	0.004383	0.000000	-0.000002	-0.000000	0.000000	0.000000
63.730426	12.607790	24.067578	-0.118764	0.087148	2.134016	0.000000	-0.000851	0.000000	-0.000002	-0.000000	0.000000	0.000000
64.171386	12.873030	23.725650	-0.485023	0.685319	2.147182	0.000000	0.060623	0.000000	-0.000002	-0.000000	0.000000	0.000000
64.612346	13.469793	22.867971	-0.873440	1.252308	2.187582	0.000000	0.122787	0.000000	-0.000003	-0.000000	0.000000	0.000000
65.053306	14.425346	21.533564	-1.301762	1.762318	2.255675	0.000000	0.186349	0.000000	-0.000003	-0.000000	0.000000	0.000000
65.494266	15.783342	19.783143	-1.789559	2.192144	2.352238	0.000000	0.252034	0.000000	-0.000003	-0.000000	0.000000	0.000000
65.940226	17.628996	17.671574	-2.363808	2.522986	2.479943	0.000000	0.320991	0.000000	-0.000003	-0.000001	0.000000	0.000000
66.489286	19.994766	15.309314	-1.919450	1.804783	2.635818	0.000000	0.245963	0.000000	-0.000003	-0.000000	0.000000	0.000000
67.038346	21.794787	13.660930	-1.339512	1.215130	2.749239	0.000000	0.166572	0.000000	-0.000004	-0.000000	0.000000	0.000000
67.587406	22.901915	12.609014	-0.664958	0.712028	2.818192	0.000000	0.084227	0.000000	-0.000004	-0.000000	0.000000	0.000000
68.136466	23.237947	12.078639	0.056566	0.259642	2.841456	0.000000	0.000388	0.000000	-0.000004	-0.000000	0.000000	0.000000
68.435038	23.244263	11.912755	-0.017001	0.264388	2.843789	0.000000	0.007812	0.000000	-0.000004	-0.000000	0.000000	0.000000
68.768372	23.260378	11.746476	-0.031345	0.234450	2.846393	0.000000	0.007812	0.000000	-0.000004	-0.000000	0.000000	0.000000
69.101705	23.286057	11.600155	-0.045690	0.204513	2.848997	0.000000	0.007812	0.000000	-0.000004	-0.000000	0.000000	0.000000
69.436288	23.321449	11.473355	-0.060088	0.174464	2.851611	0.000000	0.007812	0.000000	-0.000004	-0.000000	0.000000	0.000000
69.733611	23.360984	11.377551	-0.133923	0.177489	2.853934	0.000000	0.015269	0.000000	-0.000004	-0.000000	0.000000	0.000000
70.282671	23.106844	11.410431	0.594047	-0.237728	2.839131	0.000000	-0.069111	0.000000	-0.000004	0.000000	0.000000	0.000000
