#ParticleID	Turn	x[m]	xp	y[m]	yp	z[m]	dE[GeV]# s	beta_x	beta_y	alpha_x	alpha_y	D_x	D_y	D_px	D_py	orbit_x	orbit_px	orbit_y	orbit_py
0.300000	11.817744	25.002023	-0.011518	-0.027423	2.618101	0.000000	0.000016	0.000000	-0.000000	0.000001	0.000000	0.000000
0.601250	11.832364	25.022177	-0.037013	-0.039481	2.618106	0.000000	0.000016	0.000000	-0.000000	0.000001	0.000000	0.000000
0.898573	11.861855	25.049193	-0.033087	-0.112809	2.618111	0.000000	-0.006404	0.000000	0.000000	0.000001	0.000000	0.000000
1.339533	12.043214	24.870827	-0.379753	0.515764	2.631580	0.000000	0.067553	0.000000	0.000001	0.000001	0.000000	0.000000
1.780493	12.536770	24.146381	-0.743770	1.120870	2.677799	0.000000	0.142280	0.000000	0.000001	0.000001	0.000000	0.000000
2.221453	13.365074	22.908815	-1.141767	1.674977	2.757296	0.000000	0.218627	0.000000	0.000001	0.000001	0.000000	0.000000
2.662413	14.565968	21.214438	-1.591928	2.152874	2.870975	0.000000	0.297464	0.000000	0.000002	0.000001	0.000000	0.000000
3.108373	16.215077	19.115494	-2.119111	2.533949	3.021993	0.000000	0.380179	0.000000	0.000002	0.000001	0.000000	0.000000
3.657433	18.329774	16.758096	-1.709574	1.784910	3.205462	0.000000	0.287141	0.000000	0.000003	0.000001	0.000000	0.000000
4.206493	19.925374	15.149010	-1.179281	1.163007	3.336371	0.000000	0.189009	0.000000	0.000003	0.000001	0.000000	0.000000
4.755553	20.889174	14.173626	-0.565690	0.623942	3.412400	0.000000	0.087526	0.000000	0.000004	0.000001	0.000000	0.000000
5.304613	21.153094	13.762467	0.087859	0.129319	3.432199	0.000000	-0.015510	0.000000	0.000004	0.000001	0.000000	0.000000
5.603185	21.137851	13.670427	0.018462	0.142989	3.430245	0.000000	-0.006543	0.000000	0.000004	0.000001	0.000000	0.000000
5.936519	21.130801	13.583395	0.002687	0.118107	3.428064	0.000000	-0.006543	0.000000	0.000004	0.000001	0.000000	0.000000
6.269852	21.134268	13.512951	-0.013088	0.093225	3.425883	0.000000	-0.006543	0.000000	0.000004	0.000001	0.000000	0.000000
6.604435	21.148323	13.458924	-0.028922	0.068250	3.423693	0.000000	-0.006543	0.000000	0.000005	0.000001	0.000000	0.000000
6.901758	21.169705	13.424939	-0.098303	0.081131	3.421748	0.000000	0.002397	0.000000	0.000005	0.000001	0.000000	0.000000
7.450818	20.916841	13.596587	0.556117	-0.395598	3.394862	0.000000	-0.100186	0.000000	0.000005	0.000000	0.000000	0.000000
7.999878	19.962763	14.304049	1.171255	-0.900504	3.312058	0.000000	-0.200991	0.000000	0.000005	0.000000	0.000000	0.000000
8.548938	18.374861	15.597716	1.703661	-1.469552	3.174804	0.000000	-0.298232	0.000000	0.000005	0.000000	0.000000	0.000000
9.097998	16.265299	17.569733	2.115730	-2.143273	2.985535	0.000000	-0.390183	0.000000	0.000005	-0.000000	0.000000	0.000000
9.543958	14.619426	19.326915	1.588019	-1.780297	2.829836	0.000000	-0.308475	0.000000	0.000005	0.000000	0.000000	0.000000
9.984918	13.422277	20.707013	1.137150	-1.337551	2.711057	0.000000	-0.230764	0.000000	0.000005	0.000000	0.000000	0.000000
10.425878	12.598433	21.668216	0.738235	-0.833948	2.625935	0.000000	-0.155681	0.000000	0.000006	0.000000	0.000000	0.000000
10.866838	12.110254	22.166788	0.373048	-0.292401	2.573498	0.000000	-0.082372	0.000000	0.000006	0.000001	0.000000	0.000000
11.309048	11.935301	22.179526	0.054066	0.208002	2.553131	0.000000	-0.016261	0.000000	0.000006	0.000001	0.000000	0.000000
11.606371	11.910579	22.059997	0.029082	0.194016	2.548296	0.000000	-0.016261	0.000000	0.000006	0.000001	0.000000	0.000000
12.086371	11.902020	21.884579	-0.011252	0.171438	2.540490	0.000000	-0.016261	0.000000	0.000007	0.000001	0.000000	0.000000
12.566371	11.932183	21.730835	-0.051586	0.148861	2.532684	0.000000	-0.016261	0.000000	0.000007	0.000001	0.000000	0.000000
13.046371	12.001066	21.598766	-0.091921	0.126283	2.524878	0.000000	-0.016261	0.000000	0.000007	0.000001	0.000000	0.000000
13.526371	12.108670	21.488372	-0.132255	0.103705	2.517073	0.000000	-0.016261	0.000000	0.000007	0.000001	0.000000	0.000000
14.007621	12.255427	21.399451	-0.172695	0.081068	2.509247	0.000000	-0.016261	0.000000	0.000008	0.000001	0.000000	0.000000
14.304943	12.365548	21.355402	-0.167357	0.014717	2.504411	0.000000	-0.022403	0.000000	0.000008	0.000001	0.000000	0.000000
14.745903	12.671728	21.108680	-0.529626	0.542664	2.510165	0.000000	0.048524	0.000000	0.000008	0.000001	0.000000	0.000000
15.186863	13.306824	20.405502	-0.916093	1.045921	2.547286	0.000000	0.120003	0.000000	0.000009	0.000001	0.000000	0.000000
15.627823	14.299850	19.277861	-1.344414	1.501588	2.616198	0.000000	0.192850	0.000000	0.000009	0.000001	0.000000	0.000000
16.068783	15.696175	17.777065	-1.834156	1.888935	2.717685	0.000000	0.267892	0.000000	0.000010	0.000002	0.000000	0.000000
16.514743	17.583250	15.949895	-2.412454	2.191082	2.854598	0.000000	0.346448	0.000000	0.000011	0.000002	0.000000	0.000000
17.063803	20.006869	13.909656	-1.975538	1.546728	3.021086	0.000000	0.259109	0.000000	0.000011	0.000001	0.000000	0.000000
17.612863	21.870770	12.512708	-1.399079	1.012544	3.138285	0.000000	0.167174	0.000000	0.000012	0.000001	0.000000	0.000000
18.161923	23.043297	11.659549	-0.723796	0.550481	3.204117	0.000000	0.072273	0.000000	0.000013	0.000001	0.000000	0.000000
18.710983	23.441629	11.289412	0.002612	0.127627	3.217414	0.000000	-0.023909	0.000000	0.000013	0.000000	0.000000	0.000000
19.009556	23.480456	11.203679	-0.071411	0.130021	3.212785	0.000000	-0.015503	0.000000	0.000013	0.000000	0.000000	0.000000
19.342889	23.532819	11.127083	-0.085679	0.099766	3.207617	0.000000	-0.015503	0.000000	0.000013	0.000000	0.000000	0.000000
19.676223	23.594695	11.070657	-0.099948	0.069511	3.202449	0.000000	-0.015503	0.000000	0.000013	0.000000	0.000000	0.000000
20.010806	23.666662	11.034167	-0.231528	0.093813	3.197282	0.000000	0.000338	0.000000	0.000013	0.000000	0.000000	0.000000
20.308129	23.808274	10.986464	-0.306964	0.095332	3.197382	0.000000	0.008691	0.000000	0.000013	0.000000	0.000000	0.000000
20.857189	23.734726	11.104026	0.440125	-0.310713	3.175932	0.000000	-0.086710	0.000000	0.000013	-0.000000	0.000000	0.000000
21.406249	22.853070	11.676939	1.156125	-0.738889	3.102447	0.000000	-0.180573	0.000000	0.000013	-0.000000	0.000000	0.000000
21.955309	21.225582	12.746008	1.790462	-1.219694	2.978230	0.000000	-0.271233	0.000000	0.000013	-0.000001	0.000000	0.000000
22.504369	18.967221	14.387382	2.298330	-1.787376	2.805485	0.000000	-0.357083	0.000000	0.000012	-0.000001	0.000000	0.000000
22.950329	17.187453	15.860997	1.706625	-1.503050	2.663536	0.000000	-0.279866	0.000000	0.000012	-0.000001	0.000000	0.000000
23.391289	15.911652	17.035882	1.197586	-1.151191	2.556450	0.000000	-0.206292	0.000000	0.000011	-0.000001	0.000000	0.000000
23.832249	15.059049	17.876085	0.743263	-0.746953	2.481259	0.000000	-0.135067	0.000000	0.000011	-0.000000	0.000000	0.000000
24.273209	14.590692	18.343377	0.322897	-0.308730	2.437106	0.000000	-0.065380	0.000000	0.000011	-0.000000	0.000000	0.000000
24.715418	14.485301	18.416252	-0.047285	0.098313	2.423487	0.000000	-0.002381	0.000000	0.000011	0.000000	0.000000	0.000000
25.012741	14.519535	18.362637	-0.067857	0.082012	2.422779	0.000000	-0.002381	0.000000	0.000011	0.000000	0.000000	0.000000
25.346075	14.572461	18.314054	-0.090920	0.063737	2.421985	0.000000	-0.002381	0.000000	0.000011	0.000000	0.000000	0.000000
25.679408	14.640763	18.277654	-0.113984	0.045463	2.421191	0.000000	-0.002381	0.000000	0.000011	0.000000	0.000000	0.000000
26.013991	14.724484	18.253740	-0.017679	-0.120964	2.420370	0.000000	-0.022017	0.000000	0.000011	0.000000	0.000000	0.000000
26.311314	14.741002	18.330584	-0.001732	-0.182438	2.413824	0.000000	-0.027935	0.000000	0.000011	-0.000000	0.000000	0.000000
26.752274	14.924151	18.292670	-0.415184	0.268093	2.416618	0.000000	0.040618	0.000000	0.000011	0.000000	0.000000	0.000000
27.193234	15.478886	17.861305	-0.847605	0.706425	2.449713	0.000000	0.109634	0.000000	0.000011	0.000001	0.000000	0.000000
27.634194	16.430552	17.056116	-1.318751	1.112616	2.513488	0.000000	0.179898	0.000000	0.000012	0.000001	0.000000	0.000000
28.075154	17.822629	15.913739	-1.850146	1.468184	2.608669	0.000000	0.252211	0.000000	0.000012	0.000001	0.000000	0.000000
28.521114	19.742901	14.468943	-2.471035	1.757863	2.737942	0.000000	0.327841	0.000000	0.000013	0.000002	0.000000	0.000000
29.070174	22.183579	12.859122	-1.947843	1.191400	2.895279	0.000000	0.244430	0.000000	0.000013	0.000001	0.000000	0.000000
29.619234	23.970316	11.821376	-1.287066	0.709798	3.005558	0.000000	0.156683	0.000000	0.000014	0.000001	0.000000	0.000000
30.168294	24.976906	11.281787	-0.535377	0.278753	3.066824	0.000000	0.066157	0.000000	0.000014	0.000000	0.000000	0.000000
30.717354	25.132248	11.201922	0.254128	-0.132437	3.077991	0.000000	-0.025542	0.000000	0.000014	-0.000000	0.000000	0.000000
31.015927	25.023377	11.271574	0.176168	-0.130109	3.072766	0.000000	-0.017501	0.000000	0.000014	-0.000000	0.000000	0.000000
31.349260	24.910510	11.368338	0.162434	-0.160183	3.066932	0.000000	-0.017501	0.000000	0.000014	-0.000000	0.000000	0.000000
31.682593	24.806799	11.485151	0.148699	-0.190256	3.061098	0.000000	-0.017501	0.000000	0.000014	-0.000000	0.000000	0.000000
32.017177	24.711907	11.622564	0.134914	-0.220443	3.055243	0.000000	-0.017501	0.000000	0.000014	-0.000000	0.000000	0.000000
32.314499	24.635323	11.761625	0.058303	-0.216540	3.050040	0.000000	-0.009533	0.000000	0.000014	-0.000000	0.000000	0.000000
32.863559	24.149233	12.238656	0.821771	-0.657402	3.019920	0.000000	-0.100019	0.000000	0.000014	-0.000001	0.000000	0.000000
33.412619	22.851830	13.222525	1.527192	-1.145090	2.940533	0.000000	-0.188732	0.000000	0.000013	-0.000001	0.000000	0.000000
33.961679	20.834759	14.783311	2.124741	-1.714340	2.813286	0.000000	-0.274097	0.000000	0.000012	-0.000001	0.000000	0.000000
34.510739	18.240494	17.032186	2.572208	-2.405699	2.640436	0.000000	-0.354600	0.000000	0.000011	-0.000002	0.000000	0.000000
34.956699	16.223375	19.043707	1.967088	-2.086007	2.498643	0.000000	-0.281663	0.000000	0.000011	-0.000002	0.000000	0.000000
35.397659	14.719261	20.707234	1.456850	-1.672149	2.389825	0.000000	-0.212362	0.000000	0.000010	-0.000001	0.000000	0.000000
35.838619	13.634196	21.970700	1.013172	-1.182210	2.311004	0.000000	-0.145479	0.000000	0.000009	-0.000001	0.000000	0.000000
36.279579	12.918607	22.776619	0.615782	-0.638481	2.261282	0.000000	-0.080253	0.000000	0.000009	-0.000001	0.000000	0.000000
36.721789	12.539108	23.088627	0.277167	-0.122371	2.240066	0.000000	-0.021435	0.000000	0.000009	-0.000001	0.000000	0.000000
37.019112	12.381884	23.165281	0.251634	-0.135441	2.233693	0.000000	-0.021435	0.000000	0.000009	-0.000001	0.000000	0.000000
37.352445	12.223670	23.260459	0.223008	-0.150095	2.226549	0.000000	-0.021435	0.000000	0.000008	-0.000001	0.000000	0.000000
37.685779	12.084540	23.365407	0.194382	-0.164748	2.219404	0.000000	-0.021435	0.000000	0.000008	-0.000001	0.000000	0.000000
38.020362	11.964079	23.480572	0.165649	-0.179456	2.212232	0.000000	-0.021435	0.000000	0.000008	-0.000001	0.000000	0.000000
38.317684	11.873168	23.591171	0.169231	-0.250375	2.205860	0.000000	-0.026844	0.000000	0.000008	-0.000001	0.000000	0.000000
38.758644	11.875308	23.550684	-0.174103	0.341840	2.207951	0.000000	0.036339	0.000000	0.000008	-0.000000	0.000000	0.000000
39.199604	12.182592	22.992802	-0.525392	0.918501	2.237969	0.000000	0.099936	0.000000	0.000007	-0.000000	0.000000	0.000000
39.640564	12.809058	21.942905	-0.900684	1.453371	2.296254	0.000000	0.164671	0.000000	0.000007	-0.000000	0.000000	0.000000
40.081524	13.783327	20.448765	-1.317125	1.922114	2.383470	0.000000	0.231281	0.000000	0.000007	0.000000	0.000000	0.000000
40.527484	15.167484	18.555793	-1.797569	2.304685	2.502084	0.000000	0.300931	0.000000	0.000007	0.000000	0.000000	0.000000
41.076544	16.933883	16.428589	-1.400519	1.592448	2.646781	0.000000	0.225367	0.000000	0.000007	0.000000	0.000000	0.000000
41.625604	18.207038	15.017005	-0.904544	0.993638	2.748829	0.000000	0.145805	0.000000	0.000007	-0.000000	0.000000	0.000000
42.174664	18.897019	14.220496	-0.344676	0.465602	2.806418	0.000000	0.063657	0.000000	0.000007	-0.000000	0.000000	0.000000
42.723724	18.955090	13.982329	0.239538	-0.029270	2.818525	0.000000	-0.019620	0.000000	0.000007	-0.000001	0.000000	0.000000
43.022297	18.846497	13.984369	0.173694	-0.014093	2.814866	0.000000	-0.012256	0.000000	0.000007	-0.000001	0.000000	0.000000
43.502297	18.692345	14.014377	0.147457	-0.048424	2.808984	0.000000	-0.012256	0.000000	0.000007	-0.000001	0.000000	0.000000
43.982297	18.563380	14.077343	0.121219	-0.082755	2.803101	0.000000	-0.012256	0.000000	0.000006	-0.000001	0.000000	0.000000
44.462297	18.459603	14.173266	0.094982	-0.117086	2.797218	0.000000	-0.012256	0.000000	0.000006	-0.000001	0.000000	0.000000
44.942297	18.381014	14.302147	0.068745	-0.151417	2.791336	0.000000	-0.012256	0.000000	0.000006	-0.000001	0.000000	0.000000
45.423547	18.327734	14.464271	-0.048367	-0.114172	2.785455	0.000000	0.001545	0.000000	0.000005	-0.000001	0.000000	0.000000
45.720870	18.361330	14.538354	-0.112600	-0.097011	2.785915	0.000000	0.008823	0.000000	0.000005	-0.000001	0.000000	0.000000
46.269930	18.175808	14.926083	0.448490	-0.613326	2.768187	0.000000	-0.073306	0.000000	0.000005	-0.000001	0.000000	0.000000
46.818990	17.387970	15.901306	0.977900	-1.173326	2.705656	0.000000	-0.154135	0.000000	0.000004	-0.000001	0.000000	0.000000
47.368050	16.053466	17.533485	1.438237	-1.816900	2.599431	0.000000	-0.232230	0.000000	0.000004	-0.000001	0.000000	0.000000
47.917110	14.266558	19.938877	1.796983	-2.589887	2.451397	0.000000	-0.306206	0.000000	0.000003	-0.000001	0.000000	0.000000
48.363070	12.875972	22.077498	1.332248	-2.185497	2.330134	0.000000	-0.237906	0.000000	0.000003	-0.000001	0.000000	0.000000
48.804030	11.881237	23.789840	0.932149	-1.682940	2.239687	0.000000	-0.172712	0.000000	0.000002	-0.000001	0.000000	0.000000
49.244990	11.219316	25.023380	0.574636	-1.103812	2.177528	0.000000	-0.109485	0.000000	0.000002	-0.000001	0.000000	0.000000
49.685950	10.859968	25.721994	0.243378	-0.474460	2.142948	0.000000	-0.047505	0.000000	0.000001	-0.000001	0.000000	0.000000
50.128160	10.786901	25.853611	-0.050426	0.113029	2.135565	0.000000	0.008697	0.000000	0.000001	-0.000001	0.000000	0.000000
50.425482	10.825102	25.789862	-0.078059	0.101382	2.138151	0.000000	0.008697	0.000000	0.000001	-0.000001	0.000000	0.000000
50.758816	10.887469	25.726626	-0.109040	0.088324	2.141050	0.000000	0.008697	0.000000	0.000000	-0.000001	0.000000	0.000000
51.092149	10.970489	25.672096	-0.140020	0.075266	2.143949	0.000000	0.008697	0.000000	0.000000	-0.000001	0.000000	0.000000
51.426732	11.074365	25.626636	-0.081274	-0.145736	2.146837	0.000000	-0.008720	0.000000	-0.000000	-0.000001	0.000000	0.000000
51.724055	11.130730	25.716820	-0.081003	-0.220651	2.144245	0.000000	-0.013978	0.000000	-0.000000	-0.000001	0.000000	0.000000
52.165015	11.347494	25.625313	-0.412436	0.427379	2.151670	0.000000	0.047685	0.000000	-0.000001	-0.000001	0.000000	0.000000
52.605975	11.863729	24.968719	-0.762712	1.055964	2.186379	0.000000	0.109891	0.000000	-0.000001	-0.000001	0.000000	0.000000
53.046935	12.703019	23.776914	-1.147834	1.636502	2.248769	0.000000	0.173349	0.000000	-0.000002	-0.000001	0.000000	0.000000
53.487895	13.903709	22.104124	-1.585397	2.142582	2.339550	0.000000	0.238781	0.000000	-0.000002	-0.000001	0.000000	0.000000
53.933855	15.541237	20.001447	-2.099623	2.552512	2.461259	0.000000	0.307332	0.000000	-0.000002	-0.000001	0.000000	0.000000
54.482915	17.649499	17.635417	-1.717414	1.782162	2.609824	0.000000	0.233028	0.000000	-0.000003	-0.000001	0.000000	0.000000
55.031975	19.268547	16.041071	-1.213894	1.138752	2.716394	0.000000	0.154590	0.000000	-0.000003	-0.000001	0.000000	0.000000
55.581035	20.284019	15.104846	-0.624632	0.576453	2.779080	0.000000	0.073411	0.000000	-0.000004	-0.000001	0.000000	0.000000
56.130095	20.624188	14.760058	0.008751	0.055214	2.796769	0.000000	-0.009071	0.000000	-0.000004	-0.000001	0.000000	0.000000
56.428668	20.655473	14.710151	-0.059644	0.073374	2.796243	0.000000	-0.001763	0.000000	-0.000004	-0.000001	0.000000	0.000000
56.762001	20.700634	14.668829	-0.075839	0.050592	2.795655	0.000000	-0.001763	0.000000	-0.000005	-0.000001	0.000000	0.000000
57.095334	20.756592	14.642695	-0.092034	0.027810	2.795068	0.000000	-0.001763	0.000000	-0.000005	-0.000001	0.000000	0.000000
57.429918	20.823617	14.631736	-0.108290	0.004942	2.794478	0.000000	-0.001763	0.000000	-0.000005	-0.000001	0.000000	0.000000
57.727240	20.892306	14.634839	-0.177326	0.022861	2.793954	0.000000	0.005537	0.000000	-0.000005	-0.000001	0.000000	0.000000
58.276300	20.730595	14.890771	0.470106	-0.491740	2.774356	0.000000	-0.076822	0.000000	-0.000006	-0.000000	0.000000	0.000000
58.825360	19.872033	15.727599	1.084332	-1.041367	2.709845	0.000000	-0.157819	0.000000	-0.000006	-0.000000	0.000000	0.000000
59.374420	18.377265	17.204928	1.621966	-1.665168	2.601566	0.000000	-0.236017	0.000000	-0.000006	-0.000000	0.000000	0.000000
59.923480	16.351872	19.427986	2.045033	-2.407575	2.451439	0.000000	-0.310028	0.000000	-0.000006	0.000000	0.000000	0.000000
60.369440	14.766599	21.403872	1.522299	-2.004359	2.328468	0.000000	-0.241749	0.000000	-0.000006	-0.000000	0.000000	0.000000
60.810400	13.626360	22.960068	1.073321	-1.511321	2.236314	0.000000	-0.176620	0.000000	-0.000006	-0.000000	0.000000	0.000000
61.251360	12.859046	24.049345	0.673379	-0.949519	2.172409	0.000000	-0.113503	0.000000	-0.000006	-0.000000	0.000000	0.000000
61.692320	12.429602	24.622142	0.304201	-0.344514	2.136025	0.000000	-0.051678	0.000000	-0.000006	-0.000001	0.000000	0.000000
62.134530	12.318459	24.651857	-0.020969	0.215654	2.126753	0.000000	0.004342	0.000000	-0.000006	-0.000001	0.000000	0.000000
62.431853	12.338107	24.527373	-0.045116	0.203032	2.128044	0.000000	0.004342	0.000000	-0.000007	-0.000001	0.000000	0.000000
62.765186	12.377208	24.396735	-0.072188	0.188881	2.129491	0.000000	0.004342	0.000000	-0.000007	-0.000001	0.000000	0.000000
63.098520	12.434357	24.275531	-0.099259	0.174731	2.130939	0.000000	0.004342	0.000000	-0.000007	-0.000001	0.000000	0.000000
63.433103	12.509870	24.163359	-0.126432	0.160527	2.132392	0.000000	0.004342	0.000000	-0.000007	-0.000001	0.000000	0.000000
63.730426	12.592232	24.071655	-0.119697	0.088870	2.133683	0.000000	-0.000891	0.000000	-0.000007	-0.000001	0.000000	0.000000
64.171386	12.858145	23.728174	-0.485624	0.687104	2.146830	0.000000	0.060574	0.000000	-0.000008	-0.000001	0.000000	0.000000
64.612346	13.455303	22.868922	-0.873738	1.254075	2.187207	0.000000	0.122729	0.000000	-0.000008	-0.000001	0.000000	0.000000
65.053306	14.410989	21.532993	-1.301770	1.763987	2.255273	0.000000	0.186281	0.000000	-0.000009	-0.000001	0.000000	0.000000
65.494266	15.768865	19.781173	-1.789276	2.193638	2.351804	0.000000	0.251955	0.000000	-0.000009	-0.000001	0.000000	0.000000
65.940226	17.614131	17.668376	-2.363221	2.524235	2.479471	0.000000	0.320901	0.000000	-0.000010	-0.000002	0.000000	0.000000
66.489286	19.979573	15.304801	-1.919445	1.805941	2.635302	0.000000	0.245889	0.000000	-0.000011	-0.000001	0.000000	0.000000
67.038346	21.779910	13.655159	-1.340089	1.216279	2.748687	0.000000	0.166515	0.000000	-0.000012	-0.000001	0.000000	0.000000
67.587406	22.887973	12.601949	-0.666076	0.713250	2.817614	0.000000	0.084188	0.000000	-0.000012	-0.000001	0.000000	0.000000
68.136466	23.225496	12.070153	0.054986	0.261025	2.840862	0.000000	0.000368	0.000000	-0.000012	-0.000000	0.000000	0.000000
68.435038	23.232741	11.903466	-0.018560	0.265711	2.843188	0.000000	0.007791	0.000000	-0.000012	-0.000000	0.000000	0.000000
68.768372	23.249899	11.736319	-0.032913	0.235731	2.845786	0.000000	0.007791	0.000000	-0.000012	-0.000000	0.000000	0.000000
69.101705	23.276625	11.589158	-0.047265	0.205751	2.848383	0.000000	0.007791	0.000000	-0.000013	-0.000000	0.000000	0.000000
69.436288	23.313073	11.461545	-0.061672	0.175658	2.850990	0.000000	0.007791	0.000000	-0.000013	-0.000000	0.000000	0.000000
69.733611	23.353552	11.365041	-0.135499	0.178615	2.853306	0.000000	0.015247	0.000000	-0.000013	-0.000000	0.000000	0.000000
70.282671	23.101263	11.396490	0.592273	-0.236230	2.838497	0.000000	-0.069113	0.000000	-0.000013	0.000000	0.000000	0.000000
