#ParticleID	Turn	x[m]	xp	y[m]	yp	z[m]	dE[GeV]# s	beta_x	beta_y	alpha_x	alpha_y	D_x	D_y	D_px	D_py	orbit_x	orbit_px	orbit_y	orbit_py
0.300000	11.807685	25.042469	-0.010460	-0.026984	2.618208	0.000000	-0.000025	0.000000	-0.000001	0.000001	0.000000	0.000000
0.601250	11.821674	25.062353	-0.035976	-0.039022	2.618200	0.000000	-0.000025	0.000000	-0.000000	0.000001	0.000000	0.000000
0.898573	11.850554	25.089090	-0.032098	-0.112429	2.618192	0.000000	-0.006446	0.000000	0.000000	0.000001	0.000000	0.000000
1.339533	12.030919	24.909925	-0.378481	0.517190	2.631643	0.000000	0.067513	0.000000	0.000001	0.000001	0.000000	0.000000
1.780493	12.523208	24.183781	-0.742156	1.123277	2.677845	0.000000	0.142241	0.000000	0.000001	0.000002	0.000000	0.000000
2.221453	13.349912	22.943698	-1.139738	1.678256	2.757325	0.000000	0.218590	0.000000	0.000002	0.000002	0.000000	0.000000
2.662413	14.548801	21.246098	-1.589392	2.156876	2.870987	0.000000	0.297427	0.000000	0.000003	0.000002	0.000000	0.000000
3.108373	16.195378	19.143327	-2.115947	2.538493	3.021988	0.000000	0.380142	0.000000	0.000003	0.000002	0.000000	0.000000
3.657433	18.306864	16.781569	-1.706926	1.788353	3.205437	0.000000	0.287104	0.000000	0.000004	0.000002	0.000000	0.000000
4.206493	19.899928	15.169193	-1.177336	1.165593	3.336326	0.000000	0.188974	0.000000	0.000005	0.000001	0.000000	0.000000
4.755553	20.862043	14.191352	-0.564585	0.625856	3.412336	0.000000	0.087492	0.000000	0.000006	0.000001	0.000000	0.000000
5.304613	21.125250	13.778396	0.088046	0.130697	3.432117	0.000000	-0.015542	0.000000	0.000006	0.000001	0.000000	0.000000
5.603185	21.109857	13.685505	0.018703	0.144424	3.430154	0.000000	-0.006575	0.000000	0.000007	0.000001	0.000000	0.000000
5.936519	21.102653	13.597510	0.002908	0.119559	3.427962	0.000000	-0.006575	0.000000	0.000007	0.000001	0.000000	0.000000
6.269852	21.105980	13.526093	-0.012888	0.094694	3.425770	0.000000	-0.006575	0.000000	0.000007	0.000001	0.000000	0.000000
6.604435	21.119909	13.471077	-0.028744	0.069736	3.423570	0.000000	-0.006575	0.000000	0.000008	0.000001	0.000000	0.000000
6.901758	21.141191	13.436203	-0.098067	0.082662	3.421615	0.000000	0.002365	0.000000	0.000008	0.000001	0.000000	0.000000
7.450818	20.888593	13.606337	0.555399	-0.394356	3.394713	0.000000	-0.100213	0.000000	0.000009	0.000001	0.000000	0.000000
7.999878	19.935807	14.312552	1.169634	-0.899462	3.311895	0.000000	-0.201014	0.000000	0.000009	0.000001	0.000000	0.000000
8.548938	18.350132	15.605150	1.701252	-1.468635	3.174630	0.000000	-0.298249	0.000000	0.000009	0.000000	0.000000	0.000000
9.097998	16.243572	17.576199	2.112702	-2.142416	2.985353	0.000000	-0.390194	0.000000	0.000009	-0.000000	0.000000	0.000000
9.543958	14.600102	19.332484	1.585641	-1.779149	2.829648	0.000000	-0.308491	0.000000	0.000009	0.000000	0.000000	0.000000
9.984918	13.404807	20.711461	1.135309	-1.336167	2.710861	0.000000	-0.230785	0.000000	0.000009	0.000000	0.000000	0.000000
10.425878	12.582382	21.671361	0.736845	-0.832390	2.625728	0.000000	-0.155708	0.000000	0.000010	0.000001	0.000000	0.000000
10.866838	12.095253	22.168508	0.372046	-0.290740	2.573279	0.000000	-0.082404	0.000000	0.000010	0.000001	0.000000	0.000000
11.309048	11.921031	22.179759	0.053371	0.209692	2.552896	0.000000	-0.016298	0.000000	0.000010	0.000001	0.000000	0.000000
11.606371	11.896731	22.059228	0.028359	0.195697	2.548050	0.000000	-0.016298	0.000000	0.000011	0.000001	0.000000	0.000000
12.086371	11.888888	21.882203	-0.012020	0.173104	2.540226	0.000000	-0.016298	0.000000	0.000011	0.000001	0.000000	0.000000
12.566371	11.919810	21.726868	-0.052400	0.150511	2.532403	0.000000	-0.016298	0.000000	0.000012	0.000001	0.000000	0.000000
13.046371	11.989496	21.593222	-0.092780	0.127918	2.524579	0.000000	-0.016298	0.000000	0.000012	0.000001	0.000000	0.000000
13.526371	12.097947	21.481265	-0.133159	0.105325	2.516755	0.000000	-0.016298	0.000000	0.000013	0.000001	0.000000	0.000000
14.007621	12.245596	21.390791	-0.173644	0.082673	2.508911	0.000000	-0.016298	0.000000	0.000013	0.000001	0.000000	0.000000
14.304943	12.356289	21.345790	-0.168359	0.016340	2.504065	0.000000	-0.022438	0.000000	0.000014	0.000001	0.000000	0.000000
14.745903	12.663272	21.097762	-0.530450	0.543993	2.509801	0.000000	0.048480	0.000000	0.000014	0.000001	0.000000	0.000000
15.186863	13.299030	20.393565	-0.916777	1.046894	2.546900	0.000000	0.119949	0.000000	0.000015	0.000002	0.000000	0.000000
15.627823	14.292609	19.265238	-1.344988	1.502163	2.615785	0.000000	0.192785	0.000000	0.000016	0.000002	0.000000	0.000000
16.068783	15.689403	17.764121	-1.834648	1.889085	2.717241	0.000000	0.267816	0.000000	0.000017	0.000003	0.000000	0.000000
16.514743	17.576889	15.937012	-2.412886	2.190797	2.854118	0.000000	0.346360	0.000000	0.000018	0.000003	0.000000	0.000000
17.063803	20.001166	13.896925	-1.976298	1.546733	3.020561	0.000000	0.259038	0.000000	0.000020	0.000003	0.000000	0.000000
17.612863	21.866060	12.499812	-1.400114	1.012840	3.137725	0.000000	0.167120	0.000000	0.000021	0.000002	0.000000	0.000000
18.161923	23.039842	11.646160	-0.725033	0.551089	3.203532	0.000000	0.072238	0.000000	0.000022	0.000001	0.000000	0.000000
18.710983	23.439603	11.275165	0.001261	0.128590	3.216815	0.000000	-0.023925	0.000000	0.000022	0.000000	0.000000	0.000000
19.009556	23.479232	11.188894	-0.072755	0.130903	3.212181	0.000000	-0.015522	0.000000	0.000022	0.000000	0.000000	0.000000
19.342889	23.532492	11.111726	-0.087027	0.100601	3.207007	0.000000	-0.015522	0.000000	0.000023	0.000000	0.000000	0.000000
19.676223	23.595267	11.054759	-0.101299	0.070299	3.201833	0.000000	-0.015522	0.000000	0.000023	0.000000	0.000000	0.000000
20.010806	23.668139	11.017758	-0.232890	0.094472	3.196659	0.000000	0.000317	0.000000	0.000023	0.000001	0.000000	0.000000
20.308129	23.810563	10.969676	-0.308334	0.095902	3.196753	0.000000	0.008667	0.000000	0.000023	0.000001	0.000000	0.000000
20.857189	23.738470	11.086352	0.438860	-0.309659	3.175295	0.000000	-0.086713	0.000000	0.000023	-0.000000	0.000000	0.000000
21.406249	22.858103	11.657809	1.155054	-0.737276	3.101814	0.000000	-0.180556	0.000000	0.000023	-0.000001	0.000000	0.000000
21.955309	21.231649	12.724750	1.789662	-1.217407	2.977612	0.000000	-0.271196	0.000000	0.000022	-0.000002	0.000000	0.000000
22.504369	18.973990	14.363170	2.297856	-1.784252	2.804894	0.000000	-0.357025	0.000000	0.000021	-0.000002	0.000000	0.000000
22.950329	17.194681	15.834243	1.706067	-1.500497	2.662967	0.000000	-0.279824	0.000000	0.000020	-0.000002	0.000000	0.000000
23.391289	15.919417	17.007172	1.196919	-1.149324	2.555897	0.000000	-0.206264	0.000000	0.000020	-0.000001	0.000000	0.000000
23.832249	15.067462	17.846063	0.742456	-0.745857	2.480715	0.000000	-0.135053	0.000000	0.000019	-0.000001	0.000000	0.000000
24.273209	14.599891	18.312748	0.321914	-0.308454	2.436566	0.000000	-0.065381	0.000000	0.000019	-0.000000	0.000000	0.000000
24.715418	14.495463	18.385749	-0.048467	0.097834	2.422943	0.000000	-0.002393	0.000000	0.000019	0.000000	0.000000	0.000000
25.012741	14.530397	18.332426	-0.069027	0.081508	2.422231	0.000000	-0.002393	0.000000	0.000019	0.000000	0.000000	0.000000
25.346075	14.584098	18.284189	-0.092077	0.063205	2.421433	0.000000	-0.002393	0.000000	0.000019	0.000000	0.000000	0.000000
25.679408	14.653166	18.248153	-0.115126	0.044901	2.420635	0.000000	-0.002393	0.000000	0.000019	0.000000	0.000000	0.000000
26.013991	14.737647	18.224624	-0.018701	-0.121318	2.419810	0.000000	-0.022025	0.000000	0.000019	0.000000	0.000000	0.000000
26.311314	14.754768	18.301687	-0.002706	-0.182746	2.413261	0.000000	-0.027942	0.000000	0.000019	0.000000	0.000000	0.000000
26.752274	14.938927	18.264389	-0.416511	0.267008	2.416049	0.000000	0.040597	0.000000	0.000020	0.000001	0.000000	0.000000
27.193234	15.495009	17.834306	-0.849344	0.704613	2.449132	0.000000	0.109598	0.000000	0.000020	0.000001	0.000000	0.000000
27.634194	16.448420	17.031007	-1.320982	1.110159	2.512888	0.000000	0.179847	0.000000	0.000020	0.000002	0.000000	0.000000
28.075154	17.842718	15.891042	-1.852972	1.465193	2.608042	0.000000	0.252145	0.000000	0.000021	0.000002	0.000000	0.000000
28.521114	19.765827	14.449104	-2.474590	1.754474	2.737282	0.000000	0.327758	0.000000	0.000022	0.000003	0.000000	0.000000
29.070174	22.210100	12.842564	-1.950797	1.188779	2.894578	0.000000	0.244368	0.000000	0.000024	0.000002	0.000000	0.000000
29.619234	23.999652	11.807361	-1.289208	0.707759	3.004830	0.000000	0.156645	0.000000	0.000024	0.000001	0.000000	0.000000
30.168294	25.008076	11.269760	-0.536557	0.277150	3.066081	0.000000	0.066143	0.000000	0.000025	0.000000	0.000000	0.000000
30.717354	25.164144	11.191469	0.253995	-0.133717	3.077247	0.000000	-0.025532	0.000000	0.000025	-0.000000	0.000000	0.000000
31.015927	25.055394	11.261912	0.175974	-0.131452	3.072024	0.000000	-0.017494	0.000000	0.000025	-0.000000	0.000000	0.000000
31.349260	24.942650	11.359583	0.162258	-0.161561	3.066192	0.000000	-0.017494	0.000000	0.000024	-0.000000	0.000000	0.000000
31.682593	24.839050	11.477327	0.148542	-0.191671	3.060361	0.000000	-0.017494	0.000000	0.000024	-0.000000	0.000000	0.000000
32.017177	24.744257	11.615699	0.134775	-0.221894	3.054508	0.000000	-0.017494	0.000000	0.000024	-0.000000	0.000000	0.000000
32.314499	24.667751	11.755632	0.058101	-0.218042	3.049307	0.000000	-0.009528	0.000000	0.000024	-0.000000	0.000000	0.000000
32.863559	24.181290	12.234256	0.822643	-0.658818	3.019197	0.000000	-0.099991	0.000000	0.000024	-0.000001	0.000000	0.000000
33.412619	22.882365	13.219679	1.529077	-1.146521	2.939832	0.000000	-0.188681	0.000000	0.000023	-0.000002	0.000000	0.000000
33.961679	20.862726	14.782091	2.127504	-1.715888	2.812619	0.000000	-0.274023	0.000000	0.000022	-0.000003	0.000000	0.000000
34.510739	18.265031	17.032780	2.575655	-2.407474	2.639816	0.000000	-0.354506	0.000000	0.000020	-0.000003	0.000000	0.000000
34.956699	16.245181	19.045961	1.969788	-2.087941	2.498062	0.000000	-0.281584	0.000000	0.000019	-0.000003	0.000000	0.000000
35.397659	14.738965	20.711231	1.458933	-1.674152	2.389276	0.000000	-0.212298	0.000000	0.000018	-0.000002	0.000000	0.000000
35.838619	13.652299	21.976460	1.014733	-1.184190	2.310480	0.000000	-0.145429	0.000000	0.000017	-0.000002	0.000000	0.000000
36.279579	12.935536	22.784083	0.616892	-0.640349	2.260778	0.000000	-0.080216	0.000000	0.000016	-0.000001	0.000000	0.000000
36.721789	12.555235	23.097662	0.277915	-0.124060	2.239576	0.000000	-0.021409	0.000000	0.000015	-0.000001	0.000000	0.000000
37.019112	12.397559	23.175320	0.252405	-0.137131	2.233211	0.000000	-0.021409	0.000000	0.000015	-0.000001	0.000000	0.000000
37.352445	12.238822	23.271625	0.223805	-0.151785	2.226075	0.000000	-0.021409	0.000000	0.000015	-0.000001	0.000000	0.000000
37.685779	12.099152	23.377700	0.195205	-0.166438	2.218939	0.000000	-0.021409	0.000000	0.000014	-0.000001	0.000000	0.000000
38.020362	11.978132	23.493996	0.166498	-0.181147	2.211776	0.000000	-0.021409	0.000000	0.000014	-0.000001	0.000000	0.000000
38.317684	11.886709	23.605600	0.170134	-0.252098	2.205411	0.000000	-0.026817	0.000000	0.000014	-0.000001	0.000000	0.000000
38.758644	11.888188	23.566459	-0.173499	0.340523	2.207512	0.000000	0.036355	0.000000	0.000013	-0.000001	0.000000	0.000000
39.199604	12.195060	23.009536	-0.525059	0.917650	2.237534	0.000000	0.099940	0.000000	0.000013	-0.000000	0.000000	0.000000
39.640564	12.821346	21.960170	-0.900607	1.453025	2.295819	0.000000	0.164664	0.000000	0.000013	-0.000000	0.000000	0.000000
40.081524	13.795659	20.466106	-1.317302	1.922289	2.383030	0.000000	0.231263	0.000000	0.000013	0.000000	0.000000	0.000000
40.527484	15.180090	18.572746	-1.798008	2.305375	2.501633	0.000000	0.300902	0.000000	0.000013	0.000001	0.000000	0.000000
41.076544	16.946705	16.445035	-1.400471	1.592687	2.646318	0.000000	0.225352	0.000000	0.000013	0.000000	0.000000	0.000000
41.625604	18.219538	15.033427	-0.904011	0.993443	2.748362	0.000000	0.145805	0.000000	0.000013	-0.000000	0.000000	0.000000
42.174664	18.908684	14.237376	-0.343696	0.464959	2.805955	0.000000	0.063672	0.000000	0.000013	-0.000001	0.000000	0.000000
42.723724	18.965463	14.000180	0.240895	-0.030407	2.818075	0.000000	-0.019590	0.000000	0.000012	-0.000001	0.000000	0.000000
43.022297	18.856074	14.002864	0.175028	-0.015158	2.814425	0.000000	-0.012227	0.000000	0.000012	-0.000001	0.000000	0.000000
43.502297	18.700640	14.033873	0.148792	-0.049444	2.808556	0.000000	-0.012227	0.000000	0.000012	-0.000001	0.000000	0.000000
43.982297	18.570393	14.097797	0.122556	-0.083731	2.802687	0.000000	-0.012227	0.000000	0.000011	-0.000001	0.000000	0.000000
44.462297	18.465332	14.194637	0.096320	-0.118018	2.796819	0.000000	-0.012227	0.000000	0.000011	-0.000001	0.000000	0.000000
44.942297	18.385458	14.324391	0.070085	-0.152304	2.790950	0.000000	-0.012227	0.000000	0.000010	-0.000001	0.000000	0.000000
45.423547	18.330887	14.487348	-0.047041	-0.114901	2.785084	0.000000	0.001571	0.000000	0.000010	-0.000001	0.000000	0.000000
45.720870	18.363693	14.561855	-0.111274	-0.097650	2.785551	0.000000	0.008849	0.000000	0.000009	-0.000001	0.000000	0.000000
46.269930	18.176683	14.950681	0.449857	-0.614697	2.767840	0.000000	-0.073269	0.000000	0.000009	-0.000001	0.000000	0.000000
46.818990	17.387365	15.927853	0.979212	-1.175527	2.705333	0.000000	-0.154087	0.000000	0.000008	-0.000002	0.000000	0.000000
47.368050	16.051493	17.562973	1.439401	-1.820087	2.599138	0.000000	-0.232172	0.000000	0.000007	-0.000002	0.000000	0.000000
47.917110	14.263425	19.972507	1.797918	-2.594288	2.451138	0.000000	-0.306139	0.000000	0.000006	-0.000002	0.000000	0.000000
48.363070	12.872024	22.114732	1.333151	-2.189143	2.329904	0.000000	-0.237845	0.000000	0.000005	-0.000002	0.000000	0.000000
48.804030	11.876491	23.829896	0.933062	-1.685670	2.239484	0.000000	-0.172657	0.000000	0.000004	-0.000002	0.000000	0.000000
49.244990	11.213744	25.065392	0.575602	-1.105500	2.177348	0.000000	-0.109435	0.000000	0.000003	-0.000002	0.000000	0.000000
49.685950	10.853505	25.765005	0.244440	-0.475031	2.142789	0.000000	-0.047460	0.000000	0.000003	-0.000002	0.000000	0.000000
50.128160	10.779437	25.896620	-0.049237	0.113498	2.135425	0.000000	0.008739	0.000000	0.000002	-0.000002	0.000000	0.000000
50.425482	10.816936	25.832587	-0.076886	0.101869	2.138024	0.000000	0.008739	0.000000	0.000002	-0.000002	0.000000	0.000000
50.758816	10.878526	25.769020	-0.107884	0.088831	2.140937	0.000000	0.008739	0.000000	0.000001	-0.000002	0.000000	0.000000
51.092149	10.960781	25.714145	-0.138882	0.075794	2.143850	0.000000	0.008739	0.000000	0.000001	-0.000002	0.000000	0.000000
51.426732	11.063902	25.668325	-0.080239	-0.145526	2.146753	0.000000	-0.008677	0.000000	0.000000	-0.000002	0.000000	0.000000
51.724055	11.119657	25.758379	-0.080016	-0.220523	2.144174	0.000000	-0.013935	0.000000	-0.000000	-0.000002	0.000000	0.000000
52.165015	11.335432	25.666274	-0.411172	0.428602	2.151617	0.000000	0.047726	0.000000	-0.000001	-0.000002	0.000000	0.000000
52.605975	11.850410	25.008138	-0.761113	1.058225	2.186345	0.000000	0.109931	0.000000	-0.000002	-0.000002	0.000000	0.000000
53.046935	12.688116	23.813917	-1.145828	1.639700	2.248753	0.000000	0.173389	0.000000	-0.000002	-0.000002	0.000000	0.000000
53.487895	13.886824	22.137945	-1.582892	2.146570	2.339551	0.000000	0.238821	0.000000	-0.000003	-0.000002	0.000000	0.000000
53.933855	15.521851	20.031423	-2.096499	2.557111	2.461279	0.000000	0.307372	0.000000	-0.000004	-0.000002	0.000000	0.000000
54.482915	17.626942	17.661001	-1.714797	1.785608	2.609865	0.000000	0.233066	0.000000	-0.000005	-0.000002	0.000000	0.000000
55.031975	19.243482	16.063388	-1.211971	1.141290	2.716456	0.000000	0.154627	0.000000	-0.000006	-0.000001	0.000000	0.000000
55.581035	20.257286	15.124790	-0.623537	0.578264	2.779162	0.000000	0.073445	0.000000	-0.000007	-0.000001	0.000000	0.000000
56.130095	20.596745	14.778352	0.008941	0.056426	2.796870	0.000000	-0.009039	0.000000	-0.000007	-0.000001	0.000000	0.000000
56.428668	20.627881	14.727685	-0.059403	0.074656	2.796354	0.000000	-0.001731	0.000000	-0.000007	-0.000001	0.000000	0.000000
56.762001	20.672888	14.685501	-0.075620	0.051897	2.795777	0.000000	-0.001731	0.000000	-0.000008	-0.000001	0.000000	0.000000
57.095334	20.728707	14.658490	-0.091836	0.029137	2.795200	0.000000	-0.001731	0.000000	-0.000008	-0.000001	0.000000	0.000000
57.429918	20.795607	14.646635	-0.108113	0.006293	2.794621	0.000000	-0.001731	0.000000	-0.000009	-0.000001	0.000000	0.000000
57.727240	20.864196	14.648929	-0.177096	0.024270	2.794107	0.000000	0.005570	0.000000	-0.000009	-0.000001	0.000000	0.000000
58.276300	20.702750	14.903528	0.469395	-0.490707	2.774525	0.000000	-0.076795	0.000000	-0.000009	-0.000001	0.000000	0.000000
58.825360	19.845466	15.739393	1.082731	-1.040635	2.710028	0.000000	-0.157797	0.000000	-0.000010	-0.000000	0.000000	0.000000
59.374420	18.352896	17.216061	1.619587	-1.664686	2.601760	0.000000	-0.236001	0.000000	-0.000010	-0.000000	0.000000	0.000000
59.923480	16.330468	19.438710	2.042045	-2.407309	2.451640	0.000000	-0.310019	0.000000	-0.000010	0.000000	0.000000	0.000000
60.369440	14.747566	21.414186	1.519951	-2.003708	2.328674	0.000000	-0.241734	0.000000	-0.000010	-0.000000	0.000000	0.000000
60.810400	13.609159	22.969649	1.071500	-1.510317	2.236528	0.000000	-0.176600	0.000000	-0.000010	-0.000000	0.000000	0.000000
61.251360	12.843250	24.057901	0.672002	-0.948207	2.172633	0.000000	-0.113477	0.000000	-0.000010	-0.000001	0.000000	0.000000
61.692320	12.414847	24.629427	0.303207	-0.342955	2.136261	0.000000	-0.051646	0.000000	-0.000011	-0.000001	0.000000	0.000000
62.134530	12.304431	24.657679	-0.021661	0.217373	2.127005	0.000000	0.004379	0.000000	-0.000011	-0.000001	0.000000	0.000000
62.431853	12.324500	24.532174	-0.045836	0.204745	2.128307	0.000000	0.004379	0.000000	-0.000011	-0.000001	0.000000	0.000000
62.765186	12.364091	24.400396	-0.072939	0.190588	2.129767	0.000000	0.004379	0.000000	-0.000012	-0.000001	0.000000	0.000000
63.098520	12.421752	24.278057	-0.100042	0.176431	2.131227	0.000000	0.004379	0.000000	-0.000012	-0.000001	0.000000	0.000000
63.433103	12.497799	24.164750	-0.127247	0.162220	2.132693	0.000000	0.004379	0.000000	-0.000013	-0.000001	0.000000	0.000000
63.730426	12.580654	24.072041	-0.120567	0.090553	2.133995	0.000000	-0.000855	0.000000	-0.000013	-0.000001	0.000000	0.000000
64.171386	12.847226	23.727085	-0.486253	0.688753	2.147160	0.000000	0.060618	0.000000	-0.000013	-0.000001	0.000000	0.000000
64.612346	13.444844	22.866421	-0.874155	1.255616	2.187558	0.000000	0.122782	0.000000	-0.000014	-0.000002	0.000000	0.000000
65.053306	14.400811	21.529209	-1.301994	1.765349	2.255650	0.000000	0.186343	0.000000	-0.000015	-0.000002	0.000000	0.000000
65.494266	15.758803	19.776289	-1.789317	2.194760	2.352212	0.000000	0.252028	0.000000	-0.000016	-0.000003	0.000000	0.000000
65.940226	17.604023	17.662620	-2.363080	2.525062	2.479914	0.000000	0.320984	0.000000	-0.000017	-0.000003	0.000000	0.000000
66.489286	19.969544	15.298138	-1.919728	1.806778	2.635787	0.000000	0.245957	0.000000	-0.000019	-0.000002	0.000000	0.000000
67.038346	21.770416	13.647544	-1.340776	1.217186	2.749206	0.000000	0.166567	0.000000	-0.000020	-0.000002	0.000000	0.000000
67.587406	22.879435	12.593270	-0.667119	0.714292	2.818158	0.000000	0.084223	0.000000	-0.000021	-0.000001	0.000000	0.000000
68.136466	23.218266	12.060223	0.053660	0.262275	2.841420	0.000000	0.000385	0.000000	-0.000021	-0.000000	0.000000	0.000000
68.435038	23.226295	11.892816	-0.019876	0.266898	2.843752	0.000000	0.007811	0.000000	-0.000021	-0.000001	0.000000	0.000000
68.768372	23.244331	11.724892	-0.034233	0.236874	2.846356	0.000000	0.007811	0.000000	-0.000022	-0.000001	0.000000	0.000000
69.101705	23.271938	11.576984	-0.048590	0.206849	2.848960	0.000000	0.007811	0.000000	-0.000022	-0.000001	0.000000	0.000000
69.436288	23.309275	11.448651	-0.063001	0.176712	2.851573	0.000000	0.007811	0.000000	-0.000022	-0.000001	0.000000	0.000000
69.733611	23.350546	11.351533	-0.136829	0.179595	2.853895	0.000000	0.015269	0.000000	-0.000022	-0.000001	0.000000	0.000000
70.282671	23.099759	11.381693	0.590881	-0.234851	2.839093	0.000000	-0.069111	0.000000	-0.000022	0.000000	0.000000	0.000000
