#ParticleID	Turn	x[m]	xp	y[m]	yp	z[m]	dE[GeV]# s	beta_x	beta_y	alpha_x	alpha_y	D_x	D_y	D_px	D_py	orbit_x	orbit_px	orbit_y	orbit_py
0.300000	11.823378	24.979476	-0.012215	-0.027604	2.618140	0.000000	0.000002	0.000000	-0.000000	0.000001	0.000000	0.000000
0.601250	11.838414	24.999743	-0.037698	-0.039673	2.618141	0.000000	0.000002	0.000000	-0.000000	0.000001	0.000000	0.000000
0.898573	11.868309	25.026876	-0.033744	-0.112958	2.618141	0.000000	-0.006418	0.000000	-0.000000	0.000001	0.000000	0.000000
1.339533	12.050316	24.848902	-0.380575	0.515028	2.631604	0.000000	0.067539	0.000000	0.000000	0.000001	0.000000	0.000000
1.780493	12.544683	24.125351	-0.744792	1.119581	2.677818	0.000000	0.142267	0.000000	0.000000	0.000001	0.000000	0.000000
2.221453	13.373994	22.889145	-1.143038	1.673194	2.757309	0.000000	0.218614	0.000000	0.000001	0.000001	0.000000	0.000000
2.662413	14.576140	21.196529	-1.593505	2.150678	2.870983	0.000000	0.297451	0.000000	0.000001	0.000001	0.000000	0.000000
3.108373	16.226821	19.099692	-2.121071	2.531439	3.021995	0.000000	0.380166	0.000000	0.000001	0.000001	0.000000	0.000000
3.657433	18.343516	16.744698	-1.711234	1.783018	3.205457	0.000000	0.287128	0.000000	0.000001	0.000001	0.000000	0.000000
4.206493	19.940719	15.137415	-1.180524	1.161597	3.336360	0.000000	0.188997	0.000000	0.000002	0.000001	0.000000	0.000000
4.755553	20.905612	14.163361	-0.566427	0.622914	3.412382	0.000000	0.087514	0.000000	0.000002	0.000000	0.000000	0.000000
5.304613	21.170039	13.753155	0.087678	0.128600	3.432176	0.000000	-0.015521	0.000000	0.000002	0.000000	0.000000	0.000000
5.603185	21.154927	13.661562	0.018248	0.142237	3.430219	0.000000	-0.006554	0.000000	0.000002	0.000000	0.000000	0.000000
5.936519	21.148016	13.575035	0.002486	0.117344	3.428034	0.000000	-0.006554	0.000000	0.000002	0.000000	0.000000	0.000000
6.269852	21.151613	13.505103	-0.013276	0.092451	3.425849	0.000000	-0.006554	0.000000	0.000003	0.000000	0.000000	0.000000
6.604435	21.165791	13.451598	-0.029097	0.067465	3.423656	0.000000	-0.006554	0.000000	0.000003	0.000000	0.000000	0.000000
6.901758	21.187273	13.418082	-0.098514	0.080319	3.421707	0.000000	0.002386	0.000000	0.000003	0.000000	0.000000	0.000000
7.450818	20.934317	13.590519	0.556495	-0.396231	3.394816	0.000000	-0.100195	0.000000	0.000003	0.000000	0.000000	0.000000
7.999878	19.979510	14.298599	1.172196	-0.901004	3.312007	0.000000	-0.200999	0.000000	0.000003	0.000000	0.000000	0.000000
8.548938	18.390294	15.592757	1.705099	-1.469953	3.174749	0.000000	-0.298238	0.000000	0.000003	0.000000	0.000000	0.000000
9.097998	16.278926	17.565174	2.117562	-2.143604	2.985477	0.000000	-0.390187	0.000000	0.000003	-0.000000	0.000000	0.000000
9.543958	14.631604	19.322734	1.589450	-1.780811	2.829776	0.000000	-0.308481	0.000000	0.000003	0.000000	0.000000	0.000000
9.984918	13.433344	20.703357	1.138248	-1.338223	2.710995	0.000000	-0.230771	0.000000	0.000003	0.000000	0.000000	0.000000
10.425878	12.608659	21.665210	0.739050	-0.834747	2.625868	0.000000	-0.155691	0.000000	0.000003	0.000000	0.000000	0.000000
10.866838	12.119871	22.164530	0.373618	-0.293291	2.573428	0.000000	-0.082383	0.000000	0.000004	0.000000	0.000000	0.000000
11.309048	11.944513	22.178080	0.054440	0.207064	2.553055	0.000000	-0.016274	0.000000	0.000004	0.000000	0.000000	0.000000
11.606371	11.919563	22.059107	0.029474	0.193084	2.548216	0.000000	-0.016274	0.000000	0.000004	0.000000	0.000000	0.000000
12.086371	11.910614	21.884580	-0.010831	0.170513	2.540404	0.000000	-0.016274	0.000000	0.000004	0.000000	0.000000	0.000000
12.566371	11.940358	21.731722	-0.051136	0.147942	2.532593	0.000000	-0.016274	0.000000	0.000004	0.000000	0.000000	0.000000
13.046371	12.008794	21.600533	-0.091440	0.125371	2.524781	0.000000	-0.016274	0.000000	0.000004	0.000000	0.000000	0.000000
13.526371	12.115924	21.491011	-0.131745	0.102800	2.516969	0.000000	-0.016274	0.000000	0.000005	0.000000	0.000000	0.000000
14.007621	12.262176	21.402957	-0.172155	0.080170	2.509137	0.000000	-0.016274	0.000000	0.000005	0.000000	0.000000	0.000000
14.304943	12.371970	21.359441	-0.166783	0.013812	2.504298	0.000000	-0.022415	0.000000	0.000005	0.000000	0.000000	0.000000
14.745903	12.677702	21.113463	-0.529180	0.541888	2.510046	0.000000	0.048509	0.000000	0.000005	0.000001	0.000000	0.000000
15.186863	13.312452	20.410900	-0.915754	1.045308	2.547159	0.000000	0.119985	0.000000	0.000005	0.000001	0.000000	0.000000
15.627823	14.305220	19.283716	-1.344166	1.501168	2.616062	0.000000	0.192827	0.000000	0.000006	0.000001	0.000000	0.000000
16.068783	15.701364	17.783199	-1.833990	1.888725	2.717539	0.000000	0.267866	0.000000	0.000006	0.000001	0.000000	0.000000
16.514743	17.588323	15.956117	-2.412360	2.191095	2.854440	0.000000	0.346418	0.000000	0.000007	0.000001	0.000000	0.000000
17.063803	20.011709	13.915932	-1.975210	1.546615	3.020913	0.000000	0.259084	0.000000	0.000007	0.000001	0.000000	0.000000
17.612863	21.875132	12.519180	-1.398541	1.012297	3.138101	0.000000	0.167155	0.000000	0.000008	0.000001	0.000000	0.000000
18.161923	23.046970	11.666374	-0.723086	0.550083	3.203924	0.000000	0.072261	0.000000	0.000008	0.000000	0.000000	0.000000
18.710983	23.444450	11.296768	0.003444	0.127050	3.217216	0.000000	-0.023915	0.000000	0.000008	0.000000	0.000000	0.000000
19.009556	23.482785	11.211361	-0.070586	0.129487	3.212585	0.000000	-0.015510	0.000000	0.000008	0.000000	0.000000	0.000000
19.342889	23.534597	11.135114	-0.084851	0.099256	3.207415	0.000000	-0.015510	0.000000	0.000008	0.000000	0.000000	0.000000
19.676223	23.595920	11.079020	-0.099117	0.069026	3.202245	0.000000	-0.015510	0.000000	0.000008	0.000000	0.000000	0.000000
20.010806	23.667330	11.042845	-0.230697	0.093396	3.197076	0.000000	0.000331	0.000000	0.000008	0.000000	0.000000	0.000000
20.308129	23.808447	10.995383	-0.306131	0.094963	3.197174	0.000000	0.008684	0.000000	0.000008	0.000000	0.000000	0.000000
20.857189	23.733985	11.113490	0.440946	-0.311341	3.175722	0.000000	-0.086711	0.000000	0.000009	-0.000000	0.000000	0.000000
21.406249	22.851461	11.687254	1.156876	-0.739821	3.102238	0.000000	-0.180567	0.000000	0.000008	-0.000000	0.000000	0.000000
21.955309	21.223212	12.757543	1.791090	-1.220997	2.978026	0.000000	-0.271221	0.000000	0.000008	-0.000001	0.000000	0.000000
22.504369	18.964250	14.400592	2.298790	-1.789142	2.805289	0.000000	-0.357063	0.000000	0.000008	-0.000001	0.000000	0.000000
22.950329	17.184067	15.875651	1.707100	-1.504508	2.663347	0.000000	-0.279852	0.000000	0.000008	-0.000001	0.000000	0.000000
23.391289	15.907832	17.051662	1.198099	-1.152278	2.556267	0.000000	-0.206282	0.000000	0.000007	-0.000000	0.000000	0.000000
23.832249	15.054753	17.892641	0.743836	-0.747619	2.481079	0.000000	-0.135062	0.000000	0.000007	-0.000000	0.000000	0.000000
24.273209	14.585854	18.360324	0.323556	-0.308945	2.436927	0.000000	-0.065380	0.000000	0.000007	-0.000000	0.000000	0.000000
24.715418	14.479831	18.433184	-0.046521	0.098517	2.423307	0.000000	-0.002385	0.000000	0.000007	0.000000	0.000000	0.000000
25.012741	14.513613	18.379443	-0.067099	0.082230	2.422597	0.000000	-0.002385	0.000000	0.000007	0.000000	0.000000	0.000000
25.346075	14.566036	18.330709	-0.090170	0.063972	2.421802	0.000000	-0.002385	0.000000	0.000007	0.000000	0.000000	0.000000
25.679408	14.633839	18.294148	-0.113240	0.045713	2.421007	0.000000	-0.002385	0.000000	0.000007	0.000000	0.000000	0.000000
26.013991	14.717065	18.270061	-0.017003	-0.120830	2.420184	0.000000	-0.022019	0.000000	0.000007	0.000000	0.000000	0.000000
26.311314	14.733184	18.346821	-0.001083	-0.182330	2.413638	0.000000	-0.027938	0.000000	0.000007	0.000000	0.000000	0.000000
26.752274	14.915674	18.308618	-0.414333	0.268638	2.416429	0.000000	0.040610	0.000000	0.000007	0.000000	0.000000	0.000000
27.193234	15.469555	17.876587	-0.846513	0.707384	2.449520	0.000000	0.109621	0.000000	0.000007	0.000000	0.000000	0.000000
27.634194	16.420134	17.070387	-1.317368	1.113944	2.513289	0.000000	0.179881	0.000000	0.000008	0.000001	0.000000	0.000000
28.075154	17.810840	15.926698	-1.848409	1.469820	2.608461	0.000000	0.252189	0.000000	0.000008	0.000001	0.000000	0.000000
28.521114	19.729374	14.480332	-2.468860	1.759734	2.737723	0.000000	0.327813	0.000000	0.000008	0.000001	0.000000	0.000000
29.070174	22.167841	12.868706	-1.946017	1.192837	2.895046	0.000000	0.244409	0.000000	0.000009	0.000001	0.000000	0.000000
29.619234	23.952823	11.829572	-1.285717	0.710903	3.005316	0.000000	0.156670	0.000000	0.000009	0.000000	0.000000	0.000000
30.168294	24.958238	11.288914	-0.534600	0.279606	3.066578	0.000000	0.066152	0.000000	0.000009	0.000000	0.000000	0.000000
30.717354	25.113068	11.208223	0.254278	-0.131776	3.077743	0.000000	-0.025539	0.000000	0.000009	-0.000000	0.000000	0.000000
31.015927	25.004082	11.277464	0.176355	-0.129412	3.072519	0.000000	-0.017498	0.000000	0.000009	-0.000000	0.000000	0.000000
31.349260	24.891093	11.373756	0.162610	-0.159465	3.066686	0.000000	-0.017498	0.000000	0.000009	-0.000000	0.000000	0.000000
31.682593	24.787269	11.490083	0.148864	-0.189517	3.060853	0.000000	-0.017498	0.000000	0.000009	-0.000000	0.000000	0.000000
32.017177	24.692271	11.626995	0.135067	-0.219682	3.054999	0.000000	-0.017498	0.000000	0.000009	-0.000000	0.000000	0.000000
32.314499	24.615599	11.765598	0.058495	-0.215749	3.049796	0.000000	-0.009531	0.000000	0.000009	-0.000000	0.000000	0.000000
32.863559	24.129659	12.241803	0.821307	-0.656680	3.019680	0.000000	-0.100009	0.000000	0.000009	-0.000000	0.000000	0.000000
33.412619	22.833113	13.224893	1.526106	-1.144385	2.940300	0.000000	-0.188714	0.000000	0.000009	-0.000001	0.000000	0.000000
33.961679	20.817544	14.784891	2.123108	-1.713602	2.813064	0.000000	-0.274072	0.000000	0.000008	-0.000001	0.000000	0.000000
34.510739	18.225321	17.032913	2.570145	-2.404875	2.640230	0.000000	-0.354568	0.000000	0.000007	-0.000001	0.000000	0.000000
34.956699	16.209835	19.043646	1.965479	-2.085073	2.498450	0.000000	-0.281636	0.000000	0.000007	-0.000001	0.000000	0.000000
35.397659	14.706969	20.706317	1.455619	-1.671149	2.389642	0.000000	-0.212340	0.000000	0.000007	-0.000001	0.000000	0.000000
35.838619	13.622845	21.968889	1.012261	-1.181189	2.310829	0.000000	-0.145462	0.000000	0.000006	-0.000001	0.000000	0.000000
36.279579	12.907934	22.773915	0.615151	-0.637485	2.261114	0.000000	-0.080241	0.000000	0.000006	-0.000001	0.000000	0.000000
36.721789	12.528880	23.085071	0.276762	-0.121439	2.239903	0.000000	-0.021426	0.000000	0.000006	-0.000000	0.000000	0.000000
37.019112	12.371901	23.161170	0.251213	-0.134509	2.233533	0.000000	-0.021426	0.000000	0.000006	-0.000000	0.000000	0.000000
37.352445	12.213973	23.255727	0.222570	-0.149161	2.226391	0.000000	-0.021426	0.000000	0.000006	-0.000000	0.000000	0.000000
37.685779	12.075140	23.360051	0.193927	-0.163813	2.219249	0.000000	-0.021426	0.000000	0.000005	-0.000000	0.000000	0.000000
38.020362	11.954990	23.474591	0.165177	-0.178521	2.212081	0.000000	-0.021426	0.000000	0.000005	-0.000000	0.000000	0.000000
38.317684	11.864365	23.584633	0.168722	-0.249424	2.205710	0.000000	-0.026835	0.000000	0.000005	-0.000000	0.000000	0.000000
38.758644	11.866867	23.543387	-0.174417	0.342605	2.207805	0.000000	0.036344	0.000000	0.000005	-0.000000	0.000000	0.000000
39.199604	12.174347	22.984925	-0.525525	0.919045	2.237824	0.000000	0.099937	0.000000	0.000005	-0.000000	0.000000	0.000000
39.640564	12.800852	21.934656	-0.900642	1.453669	2.296109	0.000000	0.164669	0.000000	0.000005	-0.000000	0.000000	0.000000
40.081524	13.775007	20.440367	-1.316907	1.922153	2.383324	0.000000	0.231275	0.000000	0.000005	0.000000	0.000000	0.000000
40.527484	15.158886	18.547478	-1.797163	2.304461	2.501933	0.000000	0.300921	0.000000	0.000005	0.000000	0.000000	0.000000
41.076544	16.925015	16.420405	-1.400436	1.592433	2.646627	0.000000	0.225362	0.000000	0.000005	0.000000	0.000000	0.000000
41.625604	18.198259	15.008723	-0.904790	0.993831	2.748673	0.000000	0.145805	0.000000	0.000005	-0.000000	0.000000	0.000000
42.174664	18.888684	14.211882	-0.345233	0.466018	2.806263	0.000000	0.063662	0.000000	0.000005	-0.000000	0.000000	0.000000
42.723724	18.947520	13.973123	0.238709	-0.028602	2.818375	0.000000	-0.019610	0.000000	0.000005	-0.000000	0.000000	0.000000
43.022297	18.839411	13.974783	0.172882	-0.013463	2.814719	0.000000	-0.012246	0.000000	0.000005	-0.000000	0.000000	0.000000
43.502297	18.686039	14.004197	0.146642	-0.047817	2.808841	0.000000	-0.012246	0.000000	0.000004	-0.000000	0.000000	0.000000
43.982297	18.557858	14.066591	0.120402	-0.082171	2.802963	0.000000	-0.012246	0.000000	0.000004	-0.000000	0.000000	0.000000
44.462297	18.454867	14.161965	0.094162	-0.116525	2.797085	0.000000	-0.012246	0.000000	0.000004	-0.000000	0.000000	0.000000
44.942297	18.377066	14.290318	0.067922	-0.150878	2.791207	0.000000	-0.012246	0.000000	0.000004	-0.000000	0.000000	0.000000
45.423547	18.324579	14.451935	-0.049176	-0.113718	2.785331	0.000000	0.001554	0.000000	0.000004	-0.000000	0.000000	0.000000
45.720870	18.358657	14.525753	-0.113407	-0.096605	2.785793	0.000000	0.008833	0.000000	0.000004	-0.000000	0.000000	0.000000
46.269930	18.174063	14.912823	0.447616	-0.612525	2.768071	0.000000	-0.073293	0.000000	0.000003	-0.000000	0.000000	0.000000
46.818990	17.387194	15.886924	0.977021	-1.172073	2.705548	0.000000	-0.154119	0.000000	0.000003	-0.000001	0.000000	0.000000
47.368050	16.053629	17.517439	1.437415	-1.815105	2.599333	0.000000	-0.232210	0.000000	0.000003	-0.000001	0.000000	0.000000
47.917110	14.267566	19.920507	1.796277	-2.587423	2.451310	0.000000	-0.306183	0.000000	0.000002	-0.000001	0.000000	0.000000
48.363070	12.877587	22.057103	1.331588	-2.183439	2.330057	0.000000	-0.237885	0.000000	0.000002	-0.000001	0.000000	0.000000
48.804030	11.883426	23.767844	0.931504	-1.681381	2.239619	0.000000	-0.172693	0.000000	0.000002	-0.000001	0.000000	0.000000
49.244990	11.222077	25.000256	0.573978	-1.102822	2.177468	0.000000	-0.109468	0.000000	0.000001	-0.000001	0.000000	0.000000
49.685950	10.863326	25.698265	0.242675	-0.474085	2.142895	0.000000	-0.047490	0.000000	0.000001	-0.000001	0.000000	0.000000
50.128160	10.790911	25.829829	-0.051194	0.112831	2.135518	0.000000	0.008711	0.000000	0.000001	-0.000001	0.000000	0.000000
50.425482	10.829567	25.766201	-0.078820	0.101174	2.138108	0.000000	0.008711	0.000000	0.000001	-0.000001	0.000000	0.000000
50.758816	10.892438	25.703108	-0.109791	0.088105	2.141012	0.000000	0.008711	0.000000	0.000001	-0.000001	0.000000	0.000000
51.092149	10.975955	25.648728	-0.140762	0.075035	2.143916	0.000000	0.008711	0.000000	0.000000	-0.000001	0.000000	0.000000
51.426732	11.080325	25.603426	-0.081958	-0.145790	2.146809	0.000000	-0.008705	0.000000	0.000000	-0.000001	0.000000	0.000000
51.724055	11.137093	25.693645	-0.081661	-0.220659	2.144221	0.000000	-0.013963	0.000000	0.000000	-0.000001	0.000000	0.000000
52.165015	11.354506	25.602416	-0.413255	0.426760	2.151652	0.000000	0.047699	0.000000	-0.000000	-0.000001	0.000000	0.000000
52.605975	11.871548	24.946629	-0.763730	1.054761	2.186368	0.000000	0.109905	0.000000	-0.000000	-0.000001	0.000000	0.000000
53.046935	12.711841	23.756123	-1.149098	1.634771	2.248763	0.000000	0.173363	0.000000	-0.000001	-0.000001	0.000000	0.000000
53.487895	13.913775	22.085064	-1.586965	2.140401	2.339550	0.000000	0.238795	0.000000	-0.000001	-0.000001	0.000000	0.000000
53.933855	15.552865	19.984498	-2.101569	2.549979	2.461265	0.000000	0.307346	0.000000	-0.000001	-0.000001	0.000000	0.000000
54.482915	17.663113	17.620881	-1.719063	1.780274	2.609837	0.000000	0.233041	0.000000	-0.000002	-0.000001	0.000000	0.000000
55.031975	19.283754	16.028317	-1.215131	1.137375	2.716414	0.000000	0.154603	0.000000	-0.000002	-0.000001	0.000000	0.000000
55.581035	20.300316	15.093371	-0.625368	0.575488	2.779106	0.000000	0.073423	0.000000	-0.000002	-0.000000	0.000000	0.000000
56.130095	20.640994	14.749450	0.008567	0.054592	2.796802	0.000000	-0.009060	0.000000	-0.000002	-0.000000	0.000000	0.000000
56.428668	20.672411	14.699933	-0.059860	0.072712	2.796279	0.000000	-0.001752	0.000000	-0.000003	-0.000000	0.000000	0.000000
56.762001	20.717711	14.659057	-0.076042	0.049916	2.795695	0.000000	-0.001752	0.000000	-0.000003	-0.000000	0.000000	0.000000
57.095334	20.773800	14.633378	-0.092224	0.027121	2.795111	0.000000	-0.001752	0.000000	-0.000003	-0.000000	0.000000	0.000000
57.429918	20.840948	14.622886	-0.108467	0.004239	2.794525	0.000000	-0.001752	0.000000	-0.000003	-0.000000	0.000000	0.000000
57.727240	20.909739	14.626410	-0.177536	0.022123	2.794004	0.000000	0.005548	0.000000	-0.000003	-0.000000	0.000000	0.000000
58.276300	20.747937	14.883023	0.470481	-0.492250	2.774411	0.000000	-0.076813	0.000000	-0.000003	-0.000000	0.000000	0.000000
58.825360	19.888652	15.720303	1.085266	-1.041685	2.709905	0.000000	-0.157812	0.000000	-0.000003	-0.000000	0.000000	0.000000
59.374420	18.392579	17.197887	1.623393	-1.665316	2.601629	0.000000	-0.236011	0.000000	-0.000004	-0.000000	0.000000	0.000000
59.923480	16.365394	19.421020	2.046852	-2.407565	2.451505	0.000000	-0.310025	0.000000	-0.000004	0.000000	0.000000	0.000000
60.369440	14.778681	21.397003	1.523720	-2.004585	2.328536	0.000000	-0.241744	0.000000	-0.000004	-0.000000	0.000000	0.000000
60.810400	13.637340	22.953497	1.074411	-1.511769	2.236385	0.000000	-0.176613	0.000000	-0.000004	-0.000000	0.000000	0.000000
61.251360	12.869192	24.043260	0.674188	-0.950169	2.172483	0.000000	-0.113494	0.000000	-0.000004	-0.000000	0.000000	0.000000
61.692320	12.439143	24.616709	0.304768	-0.345338	2.136103	0.000000	-0.051667	0.000000	-0.000004	-0.000000	0.000000	0.000000
62.134530	12.327596	24.647215	-0.020598	0.214708	2.126836	0.000000	0.004355	0.000000	-0.000004	-0.000000	0.000000	0.000000
62.431853	12.347019	24.523292	-0.044727	0.202089	2.128131	0.000000	0.004355	0.000000	-0.000004	-0.000000	0.000000	0.000000
62.765186	12.385854	24.393282	-0.071778	0.187941	2.129583	0.000000	0.004355	0.000000	-0.000004	-0.000000	0.000000	0.000000
63.098520	12.442723	24.272704	-0.098829	0.173794	2.131035	0.000000	0.004355	0.000000	-0.000004	-0.000000	0.000000	0.000000
63.433103	12.517941	24.161158	-0.125982	0.159593	2.132492	0.000000	0.004355	0.000000	-0.000005	-0.000000	0.000000	0.000000
63.730426	12.600030	24.070009	-0.119210	0.087944	2.133787	0.000000	-0.000878	0.000000	-0.000005	-0.000000	0.000000	0.000000
64.171386	12.865588	23.727357	-0.485302	0.686158	2.146940	0.000000	0.060589	0.000000	-0.000005	-0.000001	0.000000	0.000000
64.612346	13.462530	22.868932	-0.873567	1.253153	2.187323	0.000000	0.122747	0.000000	-0.000005	-0.000001	0.000000	0.000000
65.053306	14.418129	21.533791	-1.301742	1.763130	2.255398	0.000000	0.186302	0.000000	-0.000005	-0.000001	0.000000	0.000000
65.494266	15.776042	19.782683	-1.789390	2.192886	2.351939	0.000000	0.251980	0.000000	-0.000006	-0.000001	0.000000	0.000000
65.940226	17.621475	17.670496	-2.363483	2.523623	2.479618	0.000000	0.320929	0.000000	-0.000006	-0.000001	0.000000	0.000000
66.489286	19.987046	15.307571	-1.919416	1.805363	2.635463	0.000000	0.245912	0.000000	-0.000007	-0.000001	0.000000	0.000000
67.038346	21.787191	13.658564	-1.339771	1.215694	2.748859	0.000000	0.166533	0.000000	-0.000007	-0.000001	0.000000	0.000000
67.587406	22.894757	12.606019	-0.665492	0.712616	2.817795	0.000000	0.084201	0.000000	-0.000008	-0.000000	0.000000	0.000000
68.136466	23.231510	12.074966	0.055794	0.260296	2.841047	0.000000	0.000374	0.000000	-0.000008	-0.000000	0.000000	0.000000
68.435038	23.238279	11.908702	-0.017761	0.265016	2.843376	0.000000	0.007798	0.000000	-0.000008	-0.000000	0.000000	0.000000
68.768372	23.254903	11.742010	-0.032110	0.235059	2.845975	0.000000	0.007798	0.000000	-0.000008	-0.000000	0.000000	0.000000
69.101705	23.281093	11.595290	-0.046459	0.205102	2.848574	0.000000	0.007798	0.000000	-0.000008	-0.000000	0.000000	0.000000
69.436288	23.317000	11.468103	-0.060861	0.175033	2.851183	0.000000	0.007798	0.000000	-0.000008	-0.000000	0.000000	0.000000
69.733611	23.356996	11.371965	-0.134691	0.178028	2.853502	0.000000	0.015254	0.000000	-0.000008	-0.000000	0.000000	0.000000
70.282671	23.103765	11.404166	0.593170	-0.237023	2.838695	0.000000	-0.069112	0.000000	-0.000008	0.000000	0.000000	0.000000
