#ParticleID	Turn	x[m]	xp	y[m]	yp	z[m]	dE[GeV]# s	beta_x	beta_y	alpha_x	alpha_y	D_x	D_y	D_px	D_py	orbit_x	orbit_px	orbit_y	orbit_py
0.300000	11.806126	25.048490	-0.010320	-0.026906	2.618247	0.000000	-0.000041	0.000000	-0.000001	0.000002	0.000000	0.000000
0.601250	11.820031	25.068327	-0.035840	-0.038942	2.618235	0.000000	-0.000041	0.000000	-0.000000	0.000002	0.000000	0.000000
0.898573	11.848832	25.095015	-0.031969	-0.112360	2.618222	0.000000	-0.006461	0.000000	0.000000	0.000002	0.000000	0.000000
1.339533	12.029065	24.915720	-0.378310	0.517414	2.631666	0.000000	0.067498	0.000000	0.000001	0.000002	0.000000	0.000000
1.780493	12.521181	24.189314	-0.741935	1.123646	2.677861	0.000000	0.142227	0.000000	0.000001	0.000002	0.000000	0.000000
2.221453	13.347665	22.948847	-1.139456	1.678754	2.757335	0.000000	0.218575	0.000000	0.000002	0.000002	0.000000	0.000000
2.662413	14.546274	21.250760	-1.589037	2.157479	2.870991	0.000000	0.297413	0.000000	0.000003	0.000002	0.000000	0.000000
3.108373	16.192495	19.147414	-2.115501	2.539174	3.021986	0.000000	0.380128	0.000000	0.000004	0.000002	0.000000	0.000000
3.657433	18.303531	16.785002	-1.706558	1.788870	3.205426	0.000000	0.287090	0.000000	0.000005	0.000002	0.000000	0.000000
4.206493	19.896245	15.172130	-1.177071	1.165984	3.336308	0.000000	0.188961	0.000000	0.000006	0.000002	0.000000	0.000000
4.755553	20.858135	14.193916	-0.564442	0.626149	3.412310	0.000000	0.087480	0.000000	0.000007	0.000001	0.000000	0.000000
5.304613	21.121258	13.780683	0.088056	0.130912	3.432085	0.000000	-0.015553	0.000000	0.000007	0.000001	0.000000	0.000000
5.603185	21.105853	13.687659	0.018722	0.144646	3.430118	0.000000	-0.006586	0.000000	0.000008	0.000001	0.000000	0.000000
5.936519	21.098638	13.599515	0.002923	0.119784	3.427922	0.000000	-0.006586	0.000000	0.000008	0.000001	0.000000	0.000000
6.269852	21.101955	13.527947	-0.012876	0.094922	3.425726	0.000000	-0.006586	0.000000	0.000008	0.000001	0.000000	0.000000
6.604435	21.115877	13.472778	-0.028734	0.069966	3.423522	0.000000	-0.006586	0.000000	0.000009	0.000001	0.000000	0.000000
6.901758	21.137153	13.437766	-0.098049	0.082898	3.421563	0.000000	0.002353	0.000000	0.000009	0.000001	0.000000	0.000000
7.450818	20.884611	13.607665	0.555282	-0.394159	3.394655	0.000000	-0.100224	0.000000	0.000010	0.000001	0.000000	0.000000
7.999878	19.932023	14.313679	1.169391	-0.899291	3.311831	0.000000	-0.201022	0.000000	0.000010	0.000001	0.000000	0.000000
8.548938	18.346676	15.606098	1.700900	-1.468478	3.174563	0.000000	-0.298255	0.000000	0.000010	0.000000	0.000000	0.000000
9.097998	16.240552	17.576976	2.112266	-2.142261	2.985283	0.000000	-0.390198	0.000000	0.000010	-0.000000	0.000000	0.000000
9.543958	14.597429	19.333104	1.585296	-1.778954	2.829575	0.000000	-0.308497	0.000000	0.000010	0.000000	0.000000	0.000000
9.984918	13.402403	20.711895	1.135039	-1.335941	2.710786	0.000000	-0.230793	0.000000	0.000011	0.000000	0.000000	0.000000
10.425878	12.580187	21.671586	0.736639	-0.832145	2.625649	0.000000	-0.155717	0.000000	0.000011	0.000001	0.000000	0.000000
10.866838	12.093216	22.168512	0.371894	-0.290486	2.573195	0.000000	-0.082415	0.000000	0.000011	0.000001	0.000000	0.000000
11.309048	11.919108	22.179539	0.053260	0.209944	2.552806	0.000000	-0.016312	0.000000	0.000012	0.000001	0.000000	0.000000
11.606371	11.894875	22.058858	0.028244	0.195948	2.547956	0.000000	-0.016312	0.000000	0.000012	0.000001	0.000000	0.000000
12.086371	11.887146	21.881594	-0.012141	0.173353	2.540126	0.000000	-0.016312	0.000000	0.000013	0.000001	0.000000	0.000000
12.566371	11.918187	21.726021	-0.052527	0.150757	2.532295	0.000000	-0.016312	0.000000	0.000013	0.000001	0.000000	0.000000
13.046371	11.987998	21.592140	-0.092913	0.128162	2.524465	0.000000	-0.016312	0.000000	0.000014	0.000001	0.000000	0.000000
13.526371	12.096579	21.479950	-0.133299	0.105566	2.516635	0.000000	-0.016312	0.000000	0.000015	0.000001	0.000000	0.000000
14.007621	12.244365	21.389245	-0.173789	0.082912	2.508784	0.000000	-0.016312	0.000000	0.000015	0.000001	0.000000	0.000000
14.304943	12.355146	21.344103	-0.168511	0.016582	2.503934	0.000000	-0.022451	0.000000	0.000016	0.000001	0.000000	0.000000
14.745903	12.662253	21.095883	-0.530582	0.544184	2.509663	0.000000	0.048463	0.000000	0.000016	0.000002	0.000000	0.000000
15.186863	13.298120	20.391543	-0.916893	1.047026	2.546753	0.000000	0.119929	0.000000	0.000017	0.000002	0.000000	0.000000
15.627823	14.291797	19.263128	-1.345095	1.502230	2.615629	0.000000	0.192761	0.000000	0.000018	0.000003	0.000000	0.000000
16.068783	15.688683	17.761982	-1.834750	1.889083	2.717073	0.000000	0.267788	0.000000	0.000019	0.000003	0.000000	0.000000
16.514743	17.576259	15.934905	-2.412988	2.190727	2.853935	0.000000	0.346327	0.000000	0.000021	0.000004	0.000000	0.000000
17.063803	20.000671	13.894868	-1.976439	1.546713	3.020362	0.000000	0.259011	0.000000	0.000022	0.000003	0.000000	0.000000
17.612863	21.865737	12.497750	-1.400284	1.012868	3.137513	0.000000	0.167100	0.000000	0.000024	0.000002	0.000000	0.000000
18.161923	23.039717	11.644039	-0.725220	0.551168	3.203311	0.000000	0.072225	0.000000	0.000025	0.000001	0.000000	0.000000
18.710983	23.439688	11.272927	0.001070	0.128726	3.216588	0.000000	-0.023931	0.000000	0.000025	0.000000	0.000000	0.000000
19.009556	23.479430	11.186580	-0.072945	0.131025	3.211952	0.000000	-0.015528	0.000000	0.000025	0.000001	0.000000	0.000000
19.342889	23.532817	11.109333	-0.087217	0.100716	3.206775	0.000000	-0.015528	0.000000	0.000025	0.000001	0.000000	0.000000
19.676223	23.595720	11.052292	-0.101490	0.070407	3.201599	0.000000	-0.015528	0.000000	0.000026	0.000001	0.000000	0.000000
20.010806	23.668720	11.015220	-0.233084	0.094561	3.196423	0.000000	0.000309	0.000000	0.000026	0.000001	0.000000	0.000000
20.308129	23.811259	10.967087	-0.308529	0.095976	3.196515	0.000000	0.008659	0.000000	0.000026	0.000001	0.000000	0.000000
20.857189	23.739367	11.083642	0.438692	-0.309510	3.175054	0.000000	-0.086714	0.000000	0.000026	-0.000000	0.000000	0.000000
21.406249	22.859164	11.654891	1.154925	-0.737042	3.101574	0.000000	-0.180549	0.000000	0.000026	-0.000001	0.000000	0.000000
21.955309	21.232825	12.721521	1.789581	-1.217072	2.977379	0.000000	-0.271181	0.000000	0.000025	-0.000002	0.000000	0.000000
22.504369	18.975227	14.359507	2.297829	-1.783791	2.804670	0.000000	-0.357004	0.000000	0.000024	-0.000003	0.000000	0.000000
22.950329	17.195950	15.830206	1.706019	-1.500124	2.662752	0.000000	-0.279808	0.000000	0.000023	-0.000002	0.000000	0.000000
23.391289	15.920738	17.002851	1.196850	-1.149055	2.555688	0.000000	-0.206253	0.000000	0.000022	-0.000001	0.000000	0.000000
23.832249	15.068855	17.841556	0.742361	-0.745705	2.480510	0.000000	-0.135048	0.000000	0.000022	-0.000001	0.000000	0.000000
24.273209	14.601381	18.308161	0.321788	-0.308425	2.436361	0.000000	-0.065381	0.000000	0.000022	-0.000000	0.000000	0.000000
24.715418	14.497080	18.381191	-0.048625	0.097751	2.422737	0.000000	-0.002398	0.000000	0.000022	0.000000	0.000000	0.000000
25.012741	14.532107	18.327919	-0.069183	0.081421	2.422024	0.000000	-0.002398	0.000000	0.000022	0.000000	0.000000	0.000000
25.346075	14.585912	18.279741	-0.092231	0.063113	2.421224	0.000000	-0.002398	0.000000	0.000022	0.000000	0.000000	0.000000
25.679408	14.655081	18.243769	-0.115278	0.044805	2.420425	0.000000	-0.002398	0.000000	0.000022	0.000000	0.000000	0.000000
26.013991	14.739663	18.220304	-0.018834	-0.121383	2.419598	0.000000	-0.022028	0.000000	0.000022	0.000000	0.000000	0.000000
26.311314	14.756862	18.297408	-0.002832	-0.182803	2.413049	0.000000	-0.027944	0.000000	0.000022	0.000000	0.000000	0.000000
26.752274	14.941156	18.260211	-0.416690	0.266836	2.415834	0.000000	0.040589	0.000000	0.000022	0.000001	0.000000	0.000000
27.193234	15.497422	17.830329	-0.849585	0.704333	2.448913	0.000000	0.109585	0.000000	0.000022	0.000001	0.000000	0.000000
27.634194	16.451076	17.027319	-1.321295	1.109785	2.512661	0.000000	0.179828	0.000000	0.000023	0.000002	0.000000	0.000000
28.075154	17.845688	15.887719	-1.853372	1.464741	2.607806	0.000000	0.252120	0.000000	0.000024	0.000002	0.000000	0.000000
28.521114	19.769198	14.446210	-2.475096	1.753965	2.737033	0.000000	0.327726	0.000000	0.000025	0.000003	0.000000	0.000000
29.070174	22.213980	12.840163	-1.951212	1.188384	2.894314	0.000000	0.244345	0.000000	0.000026	0.000002	0.000000	0.000000
29.619234	24.003925	11.805345	-1.289504	0.707449	3.004555	0.000000	0.156631	0.000000	0.000027	0.000001	0.000000	0.000000
30.168294	25.012598	11.268047	-0.536711	0.276904	3.065801	0.000000	0.066137	0.000000	0.000028	0.000000	0.000000	0.000000
30.717354	25.168752	11.189999	0.253992	-0.133917	3.076966	0.000000	-0.025529	0.000000	0.000028	-0.000001	0.000000	0.000000
31.015927	25.060010	11.260567	0.175962	-0.131661	3.071744	0.000000	-0.017491	0.000000	0.000028	-0.000000	0.000000	0.000000
31.349260	24.947272	11.358379	0.162249	-0.161776	3.065914	0.000000	-0.017491	0.000000	0.000028	-0.000000	0.000000	0.000000
31.682593	24.843677	11.476268	0.148536	-0.191891	3.060083	0.000000	-0.017491	0.000000	0.000027	-0.000000	0.000000	0.000000
32.017177	24.748887	11.614789	0.134771	-0.222119	3.054231	0.000000	-0.017491	0.000000	0.000027	-0.000000	0.000000	0.000000
32.314499	24.672383	11.754858	0.058090	-0.218275	3.049031	0.000000	-0.009526	0.000000	0.000027	-0.000000	0.000000	0.000000
32.863559	24.185850	12.233731	0.822784	-0.659042	3.018924	0.000000	-0.099980	0.000000	0.000027	-0.000001	0.000000	0.000000
33.412619	22.886690	13.219403	1.529361	-1.146752	2.939568	0.000000	-0.188661	0.000000	0.000026	-0.000002	0.000000	0.000000
33.961679	20.866670	14.782080	2.127911	-1.716143	2.812368	0.000000	-0.273996	0.000000	0.000024	-0.000003	0.000000	0.000000
34.510739	18.268473	17.033069	2.576156	-2.407770	2.639583	0.000000	-0.354470	0.000000	0.000023	-0.000004	0.000000	0.000000
34.956699	16.248225	19.046525	1.970182	-2.088257	2.497843	0.000000	-0.281554	0.000000	0.000021	-0.000003	0.000000	0.000000
35.397659	14.741702	20.712076	1.459240	-1.674473	2.389069	0.000000	-0.212273	0.000000	0.000020	-0.000003	0.000000	0.000000
35.838619	13.654799	21.977586	1.014965	-1.184502	2.310283	0.000000	-0.145410	0.000000	0.000019	-0.000002	0.000000	0.000000
36.279579	12.937859	22.785474	0.617062	-0.640637	2.260588	0.000000	-0.080202	0.000000	0.000018	-0.000002	0.000000	0.000000
36.721789	12.557433	23.099292	0.278035	-0.124314	2.239392	0.000000	-0.021399	0.000000	0.000017	-0.000001	0.000000	0.000000
37.019112	12.399685	23.177101	0.252527	-0.137384	2.233029	0.000000	-0.021399	0.000000	0.000017	-0.000001	0.000000	0.000000
37.352445	12.240865	23.273575	0.223931	-0.152038	2.225897	0.000000	-0.021399	0.000000	0.000017	-0.000001	0.000000	0.000000
37.685779	12.101110	23.379818	0.195334	-0.166691	2.218764	0.000000	-0.021399	0.000000	0.000016	-0.000001	0.000000	0.000000
38.020362	11.980003	23.496283	0.166630	-0.181400	2.211605	0.000000	-0.021399	0.000000	0.000016	-0.000001	0.000000	0.000000
38.317684	11.888501	23.608038	0.170273	-0.252356	2.205243	0.000000	-0.026806	0.000000	0.000015	-0.000001	0.000000	0.000000
38.758644	11.889875	23.569096	-0.173400	0.340333	2.207348	0.000000	0.036361	0.000000	0.000015	-0.000001	0.000000	0.000000
39.199604	12.196675	23.012306	-0.524995	0.917537	2.237371	0.000000	0.099942	0.000000	0.000015	-0.000000	0.000000	0.000000
39.640564	12.822919	21.963004	-0.900575	1.452994	2.295656	0.000000	0.164662	0.000000	0.000014	-0.000000	0.000000	0.000000
40.081524	13.797217	20.468931	-1.317300	1.922341	2.382865	0.000000	0.231257	0.000000	0.000015	0.000000	0.000000	0.000000
40.527484	15.181659	18.575488	-1.798036	2.305509	2.501463	0.000000	0.300891	0.000000	0.000015	0.000001	0.000000	0.000000
41.076544	16.948270	16.447671	-1.400436	1.592746	2.646144	0.000000	0.225347	0.000000	0.000015	0.000000	0.000000	0.000000
41.625604	18.221032	15.036038	-0.903915	0.993430	2.748187	0.000000	0.145806	0.000000	0.000015	-0.000000	0.000000	0.000000
42.174664	18.910042	14.240040	-0.343547	0.464874	2.805781	0.000000	0.063678	0.000000	0.000015	-0.000001	0.000000	0.000000
42.723724	18.966632	14.002980	0.241088	-0.030569	2.817907	0.000000	-0.019578	0.000000	0.000014	-0.000001	0.000000	0.000000
43.022297	18.857129	14.005755	0.175218	-0.015309	2.814259	0.000000	-0.012217	0.000000	0.000014	-0.000001	0.000000	0.000000
43.502297	18.701512	14.036906	0.148982	-0.049589	2.808396	0.000000	-0.012217	0.000000	0.000013	-0.000001	0.000000	0.000000
43.982297	18.571083	14.100966	0.122746	-0.083868	2.802533	0.000000	-0.012217	0.000000	0.000013	-0.000001	0.000000	0.000000
44.462297	18.465840	14.197934	0.096510	-0.118148	2.796669	0.000000	-0.012217	0.000000	0.000012	-0.000001	0.000000	0.000000
44.942297	18.385783	14.327810	0.070274	-0.152428	2.790806	0.000000	-0.012217	0.000000	0.000011	-0.000001	0.000000	0.000000
45.423547	18.331030	14.490883	-0.046852	-0.115000	2.784945	0.000000	0.001582	0.000000	0.000011	-0.000001	0.000000	0.000000
45.720870	18.363724	14.565448	-0.111084	-0.097736	2.785415	0.000000	0.008859	0.000000	0.000010	-0.000001	0.000000	0.000000
46.269930	18.176507	14.954428	0.450042	-0.614894	2.767711	0.000000	-0.073255	0.000000	0.000010	-0.000001	0.000000	0.000000
46.818990	17.386994	15.931884	0.979380	-1.175849	2.705213	0.000000	-0.154069	0.000000	0.000009	-0.000002	0.000000	0.000000
47.368050	16.050953	17.567437	1.439539	-1.820558	2.599029	0.000000	-0.232151	0.000000	0.000008	-0.000002	0.000000	0.000000
47.917110	14.262754	19.977584	1.798017	-2.594940	2.451042	0.000000	-0.306114	0.000000	0.000007	-0.000002	0.000000	0.000000
48.363070	12.871264	22.120342	1.333252	-2.189681	2.329819	0.000000	-0.237822	0.000000	0.000006	-0.000002	0.000000	0.000000
48.804030	11.875638	23.835922	0.933171	-1.686069	2.239408	0.000000	-0.172636	0.000000	0.000005	-0.000002	0.000000	0.000000
49.244990	11.212791	25.071701	0.575723	-1.105742	2.177281	0.000000	-0.109416	0.000000	0.000004	-0.000002	0.000000	0.000000
49.685950	10.852438	25.771454	0.244579	-0.475105	2.142730	0.000000	-0.047442	0.000000	0.000003	-0.000002	0.000000	0.000000
50.128160	10.778237	25.903059	-0.049078	0.113580	2.135374	0.000000	0.008755	0.000000	0.000002	-0.000002	0.000000	0.000000
50.425482	10.815643	25.838976	-0.076729	0.101953	2.137977	0.000000	0.008755	0.000000	0.000002	-0.000002	0.000000	0.000000
50.758816	10.877129	25.775352	-0.107730	0.088919	2.140896	0.000000	0.008755	0.000000	0.000001	-0.000002	0.000000	0.000000
51.092149	10.959283	25.720417	-0.138732	0.075884	2.143815	0.000000	0.008755	0.000000	0.000001	-0.000002	0.000000	0.000000
51.426732	11.062305	25.674536	-0.080104	-0.145483	2.146723	0.000000	-0.008661	0.000000	0.000000	-0.000002	0.000000	0.000000
51.724055	11.117981	25.764563	-0.079889	-0.220492	2.144148	0.000000	-0.013919	0.000000	-0.000000	-0.000002	0.000000	0.000000
52.165015	11.333626	25.672359	-0.411004	0.428795	2.151599	0.000000	0.047742	0.000000	-0.000001	-0.000002	0.000000	0.000000
52.605975	11.848434	25.013984	-0.760896	1.058573	2.186334	0.000000	0.109947	0.000000	-0.000002	-0.000002	0.000000	0.000000
53.046935	12.685924	23.819393	-1.145552	1.640186	2.248748	0.000000	0.173404	0.000000	-0.000003	-0.000002	0.000000	0.000000
53.487895	13.884358	22.142941	-1.582544	2.147172	2.339553	0.000000	0.238836	0.000000	-0.000004	-0.000002	0.000000	0.000000
53.933855	15.519037	20.035839	-2.096063	2.557802	2.461288	0.000000	0.307387	0.000000	-0.000004	-0.000002	0.000000	0.000000
54.482915	17.623688	17.664757	-1.714437	1.786128	2.609882	0.000000	0.233081	0.000000	-0.000006	-0.000002	0.000000	0.000000
55.031975	19.239886	16.066651	-1.211712	1.141675	2.716481	0.000000	0.154641	0.000000	-0.000006	-0.000002	0.000000	0.000000
55.581035	20.253470	15.127691	-0.623397	0.578542	2.779195	0.000000	0.073459	0.000000	-0.000007	-0.000001	0.000000	0.000000
56.130095	20.592847	14.780998	0.008951	0.056617	2.796910	0.000000	-0.009027	0.000000	-0.000008	-0.000001	0.000000	0.000000
56.428668	20.623971	14.730212	-0.059386	0.074857	2.796397	0.000000	-0.001719	0.000000	-0.000008	-0.000001	0.000000	0.000000
56.762001	20.668969	14.687892	-0.075606	0.052101	2.795825	0.000000	-0.001719	0.000000	-0.000009	-0.000001	0.000000	0.000000
57.095334	20.724779	14.660744	-0.091825	0.029345	2.795252	0.000000	-0.001719	0.000000	-0.000009	-0.000001	0.000000	0.000000
57.429918	20.791672	14.648750	-0.108105	0.006503	2.794677	0.000000	-0.001719	0.000000	-0.000010	-0.000001	0.000000	0.000000
57.727240	20.860258	14.650918	-0.177081	0.024489	2.794167	0.000000	0.005582	0.000000	-0.000010	-0.000001	0.000000	0.000000
58.276300	20.698868	14.905306	0.469279	-0.490540	2.774591	0.000000	-0.076784	0.000000	-0.000011	-0.000001	0.000000	0.000000
58.825360	19.841780	15.741011	1.082491	-1.040509	2.710099	0.000000	-0.157789	0.000000	-0.000011	-0.000001	0.000000	0.000000
59.374420	18.349533	17.217558	1.619242	-1.664591	2.601834	0.000000	-0.235995	0.000000	-0.000011	-0.000000	0.000000	0.000000
59.923480	16.327533	19.440118	2.041617	-2.407239	2.451717	0.000000	-0.310015	0.000000	-0.000011	0.000000	0.000000	0.000000
60.369440	14.744971	21.415507	1.519613	-2.003584	2.328754	0.000000	-0.241729	0.000000	-0.000011	-0.000000	0.000000	0.000000
60.810400	13.606829	22.970839	1.071235	-1.510146	2.236610	0.000000	-0.176592	0.000000	-0.000011	-0.000000	0.000000	0.000000
61.251360	12.841126	24.058922	0.671798	-0.947996	2.172719	0.000000	-0.113467	0.000000	-0.000012	-0.000001	0.000000	0.000000
61.692320	12.412879	24.630248	0.303055	-0.342714	2.136352	0.000000	-0.051635	0.000000	-0.000012	-0.000001	0.000000	0.000000
62.134530	12.302578	24.658278	-0.021772	0.217631	2.127101	0.000000	0.004393	0.000000	-0.000012	-0.000001	0.000000	0.000000
62.431853	12.322714	24.532619	-0.045951	0.205002	2.128408	0.000000	0.004393	0.000000	-0.000013	-0.000001	0.000000	0.000000
62.765186	12.362384	24.400671	-0.073059	0.190844	2.129873	0.000000	0.004393	0.000000	-0.000013	-0.000001	0.000000	0.000000
63.098520	12.420125	24.278161	-0.100166	0.176685	2.131337	0.000000	0.004393	0.000000	-0.000014	-0.000001	0.000000	0.000000
63.433103	12.496257	24.164684	-0.127375	0.162474	2.132808	0.000000	0.004393	0.000000	-0.000014	-0.000001	0.000000	0.000000
63.730426	12.579189	24.071824	-0.120702	0.090805	2.134114	0.000000	-0.000841	0.000000	-0.000015	-0.000001	0.000000	0.000000
64.171386	12.845866	23.726651	-0.486358	0.688993	2.147286	0.000000	0.060635	0.000000	-0.000015	-0.000002	0.000000	0.000000
64.612346	13.443565	22.865785	-0.874235	1.255832	2.187692	0.000000	0.122802	0.000000	-0.000016	-0.000002	0.000000	0.000000
65.053306	14.399593	21.528395	-1.302053	1.765532	2.255794	0.000000	0.186367	0.000000	-0.000017	-0.000002	0.000000	0.000000
65.494266	15.757629	19.775332	-1.789357	2.194902	2.352366	0.000000	0.252055	0.000000	-0.000018	-0.000003	0.000000	0.000000
65.940226	17.602878	17.661558	-2.363104	2.525156	2.480082	0.000000	0.321016	0.000000	-0.000020	-0.000003	0.000000	0.000000
66.489286	19.968453	15.296968	-1.919804	1.806881	2.635972	0.000000	0.245983	0.000000	-0.000021	-0.000003	0.000000	0.000000
67.038346	21.769435	13.646253	-1.340900	1.217306	2.749403	0.000000	0.166587	0.000000	-0.000023	-0.000002	0.000000	0.000000
67.587406	22.878611	12.591835	-0.667281	0.714436	2.818364	0.000000	0.084237	0.000000	-0.000023	-0.000001	0.000000	0.000000
68.136466	23.217636	12.058611	0.053472	0.262455	2.841632	0.000000	0.000392	0.000000	-0.000024	-0.000001	0.000000	0.000000
68.435038	23.225777	11.891100	-0.020064	0.267068	2.843966	0.000000	0.007818	0.000000	-0.000024	-0.000001	0.000000	0.000000
68.768372	23.243939	11.723065	-0.034422	0.237037	2.846572	0.000000	0.007818	0.000000	-0.000024	-0.000001	0.000000	0.000000
69.101705	23.271673	11.575051	-0.048780	0.207005	2.849178	0.000000	0.007818	0.000000	-0.000025	-0.000001	0.000000	0.000000
69.436288	23.309136	11.446616	-0.063191	0.176861	2.851794	0.000000	0.007818	0.000000	-0.000025	-0.000001	0.000000	0.000000
69.733611	23.350520	11.349411	-0.137021	0.179734	2.854119	0.000000	0.015277	0.000000	-0.000025	-0.000001	0.000000	0.000000
70.282671	23.099943	11.379386	0.590694	-0.234650	2.839318	0.000000	-0.069110	0.000000	-0.000025	0.000000	0.000000	0.000000
