#ParticleID	Turn	x[m]	xp	y[m]	yp	z[m]	dE[GeV]# s	beta_x	beta_y	alpha_x	alpha_y	D_x	D_y	D_px	D_py	orbit_x	orbit_px	orbit_y	orbit_py
0.300000	11.802465	25.061975	-0.010032	-0.026715	2.618378	0.000000	-0.000090	0.000000	-0.000002	0.000002	0.000000	0.000000
0.601250	11.816199	25.081695	-0.035558	-0.038744	2.618351	0.000000	-0.000090	0.000000	-0.000001	0.000002	0.000000	0.000000
0.898573	11.844834	25.108264	-0.031705	-0.112189	2.618323	0.000000	-0.006511	0.000000	-0.000000	0.000002	0.000000	0.000000
1.339533	12.024792	24.928664	-0.377948	0.517932	2.631746	0.000000	0.067451	0.000000	0.000000	0.000002	0.000000	0.000000
1.780493	12.516541	24.201656	-0.741458	1.124487	2.677921	0.000000	0.142182	0.000000	0.000001	0.000002	0.000000	0.000000
2.221453	13.342546	22.960319	-1.138844	1.679879	2.757375	0.000000	0.218531	0.000000	0.000002	0.000002	0.000000	0.000000
2.662413	14.540545	21.261132	-1.588260	2.158838	2.871012	0.000000	0.297370	0.000000	0.000003	0.000002	0.000000	0.000000
3.108373	16.185986	19.156492	-2.114523	2.540705	3.021988	0.000000	0.380085	0.000000	0.000004	0.000002	0.000000	0.000000
3.657433	18.296040	16.792608	-1.705757	1.790037	3.205405	0.000000	0.287048	0.000000	0.000005	0.000002	0.000000	0.000000
4.206493	19.888000	15.178616	-1.176505	1.166869	3.336264	0.000000	0.188920	0.000000	0.000006	0.000002	0.000000	0.000000
4.755553	20.849416	14.199555	-0.564150	0.626815	3.412244	0.000000	0.087440	0.000000	0.000006	0.000001	0.000000	0.000000
5.304613	21.112379	13.785689	0.088053	0.131407	3.431997	0.000000	-0.015590	0.000000	0.000007	0.000001	0.000000	0.000000
5.603185	21.096964	13.692361	0.018736	0.145159	3.430019	0.000000	-0.006624	0.000000	0.000008	0.000001	0.000000	0.000000
5.936519	21.089741	13.603874	0.002931	0.120301	3.427811	0.000000	-0.006624	0.000000	0.000008	0.000001	0.000000	0.000000
6.269852	21.093056	13.531959	-0.012875	0.095444	3.425602	0.000000	-0.006624	0.000000	0.000008	0.000001	0.000000	0.000000
6.604435	21.106980	13.476439	-0.028740	0.070493	3.423386	0.000000	-0.006624	0.000000	0.000009	0.000001	0.000000	0.000000
6.901758	21.128261	13.441113	-0.098038	0.083438	3.421416	0.000000	0.002315	0.000000	0.000009	0.000001	0.000000	0.000000
7.450818	20.875869	13.610468	0.554998	-0.393702	3.394488	0.000000	-0.100256	0.000000	0.000010	0.000001	0.000000	0.000000
7.999878	19.923748	14.316011	1.168831	-0.898885	3.311648	0.000000	-0.201049	0.000000	0.000010	0.000001	0.000000	0.000000
8.548938	18.339150	15.607998	1.700104	-1.468093	3.174366	0.000000	-0.298276	0.000000	0.000011	0.000000	0.000000	0.000000
9.097998	16.234004	17.578455	2.111290	-2.141871	2.985077	0.000000	-0.390212	0.000000	0.000011	-0.000000	0.000000	0.000000
9.543958	14.591658	19.334196	1.584523	-1.778481	2.829362	0.000000	-0.308516	0.000000	0.000011	0.000000	0.000000	0.000000
9.984918	13.397239	20.712542	1.134430	-1.335408	2.710562	0.000000	-0.230818	0.000000	0.000011	0.000001	0.000000	0.000000
10.425878	12.575498	21.671745	0.736167	-0.831575	2.625413	0.000000	-0.155749	0.000000	0.000011	0.000001	0.000000	0.000000
10.866838	12.088891	22.168162	0.371537	-0.289906	2.572944	0.000000	-0.082453	0.000000	0.000012	0.000001	0.000000	0.000000
11.309048	11.915054	22.178680	0.052993	0.210511	2.552537	0.000000	-0.016355	0.000000	0.000012	0.000001	0.000000	0.000000
11.606371	11.890982	22.057663	0.027969	0.196511	2.547674	0.000000	-0.016355	0.000000	0.000013	0.000001	0.000000	0.000000
12.086371	11.883523	21.879861	-0.012429	0.173910	2.539822	0.000000	-0.016355	0.000000	0.000013	0.000001	0.000000	0.000000
12.566371	11.914846	21.723757	-0.052828	0.151308	2.531971	0.000000	-0.016355	0.000000	0.000014	0.000001	0.000000	0.000000
13.046371	11.984952	21.589350	-0.093226	0.128707	2.524120	0.000000	-0.016355	0.000000	0.000015	0.000001	0.000000	0.000000
13.526371	12.093840	21.476640	-0.133624	0.106105	2.516269	0.000000	-0.016355	0.000000	0.000015	0.000001	0.000000	0.000000
14.007621	12.241946	21.385419	-0.174128	0.083445	2.508397	0.000000	-0.016355	0.000000	0.000016	0.000001	0.000000	0.000000
14.304943	12.352930	21.339962	-0.168863	0.017121	2.503534	0.000000	-0.022494	0.000000	0.000016	0.000001	0.000000	0.000000
14.745903	12.660329	21.091318	-0.530895	0.544601	2.509242	0.000000	0.048410	0.000000	0.000017	0.000002	0.000000	0.000000
15.186863	13.296460	20.386672	-0.917182	1.047301	2.546307	0.000000	0.119864	0.000000	0.000018	0.000002	0.000000	0.000000
15.627823	14.290386	19.258083	-1.345372	1.502350	2.615151	0.000000	0.192684	0.000000	0.000019	0.000003	0.000000	0.000000
16.068783	15.687517	17.756901	-1.835029	1.889043	2.716558	0.000000	0.267699	0.000000	0.000020	0.000003	0.000000	0.000000
16.514743	17.575347	15.929932	-2.413282	2.190528	2.853378	0.000000	0.346224	0.000000	0.000022	0.000004	0.000000	0.000000
17.063803	20.000125	13.890044	-1.976806	1.546636	3.019753	0.000000	0.258927	0.000000	0.000024	0.000003	0.000000	0.000000
17.612863	21.865622	12.492947	-1.400699	1.012909	3.136864	0.000000	0.167036	0.000000	0.000025	0.000002	0.000000	0.000000
18.161923	23.040071	11.639126	-0.725653	0.551328	3.202633	0.000000	0.072183	0.000000	0.000026	0.000001	0.000000	0.000000
18.710983	23.440513	11.267768	0.000649	0.129018	3.215893	0.000000	-0.023951	0.000000	0.000027	0.000001	0.000000	0.000000
19.009556	23.480506	11.181259	-0.073367	0.131288	3.211250	0.000000	-0.015550	0.000000	0.000027	0.000001	0.000000	0.000000
19.342889	23.534175	11.103842	-0.087640	0.100963	3.206066	0.000000	-0.015550	0.000000	0.000027	0.000001	0.000000	0.000000
19.676223	23.597360	11.046642	-0.101912	0.070637	3.200883	0.000000	-0.015550	0.000000	0.000027	0.000001	0.000000	0.000000
20.010806	23.670642	11.009422	-0.233516	0.094745	3.195699	0.000000	0.000283	0.000000	0.000027	0.000001	0.000000	0.000000
20.308129	23.813440	10.961184	-0.308968	0.096130	3.195783	0.000000	0.008631	0.000000	0.000028	0.000001	0.000000	0.000000
20.857189	23.741987	11.077479	0.438334	-0.309188	3.174314	0.000000	-0.086718	0.000000	0.000028	-0.000000	0.000000	0.000000
21.406249	22.862120	11.648271	1.154675	-0.736528	3.100839	0.000000	-0.180529	0.000000	0.000027	-0.000001	0.000000	0.000000
21.955309	21.235990	12.714214	1.789454	-1.216329	2.976661	0.000000	-0.271137	0.000000	0.000027	-0.000002	0.000000	0.000000
22.504369	18.978457	14.351235	2.297836	-1.782766	2.803983	0.000000	-0.356937	0.000000	0.000025	-0.000003	0.000000	0.000000
22.950329	17.199201	15.821106	1.705966	-1.499298	2.662091	0.000000	-0.279759	0.000000	0.000024	-0.000002	0.000000	0.000000
23.391289	15.924062	16.993124	1.196735	-1.148465	2.555045	0.000000	-0.206221	0.000000	0.000024	-0.000001	0.000000	0.000000
23.832249	15.072310	17.831423	0.742178	-0.745377	2.479877	0.000000	-0.135032	0.000000	0.000023	-0.000001	0.000000	0.000000
24.273209	14.605029	18.297861	0.321530	-0.308376	2.435732	0.000000	-0.065381	0.000000	0.000023	-0.000000	0.000000	0.000000
24.715418	14.500994	18.370972	-0.048961	0.097546	2.422104	0.000000	-0.002413	0.000000	0.000023	0.000000	0.000000	0.000000
25.012741	14.536220	18.317824	-0.069514	0.081208	2.421387	0.000000	-0.002413	0.000000	0.000023	0.000000	0.000000	0.000000
25.346075	14.590243	18.269791	-0.092556	0.062891	2.420582	0.000000	-0.002413	0.000000	0.000023	0.000000	0.000000	0.000000
25.679408	14.659628	18.233970	-0.115598	0.044573	2.419778	0.000000	-0.002413	0.000000	0.000023	0.000000	0.000000	0.000000
26.013991	14.744422	18.210664	-0.019110	-0.121546	2.418946	0.000000	-0.022037	0.000000	0.000023	0.000000	0.000000	0.000000
26.311314	14.761784	18.287867	-0.003091	-0.182952	2.412393	0.000000	-0.027952	0.000000	0.000023	0.000000	0.000000	0.000000
26.752274	14.946358	18.250915	-0.417072	0.266431	2.415171	0.000000	0.040564	0.000000	0.000023	0.000001	0.000000	0.000000
27.193234	15.503023	17.821496	-0.850109	0.703691	2.448235	0.000000	0.109542	0.000000	0.000024	0.000001	0.000000	0.000000
27.634194	16.457210	17.019147	-1.321984	1.108934	2.511961	0.000000	0.179768	0.000000	0.000025	0.000002	0.000000	0.000000
28.075154	17.852513	15.880375	-1.854257	1.463721	2.607075	0.000000	0.252041	0.000000	0.000026	0.000003	0.000000	0.000000
28.521114	19.776917	14.439835	-2.476220	1.752822	2.736263	0.000000	0.327628	0.000000	0.000027	0.000003	0.000000	0.000000
29.070174	22.222825	12.834899	-1.952126	1.187493	2.893497	0.000000	0.244273	0.000000	0.000028	0.000002	0.000000	0.000000
29.619234	24.013628	11.800950	-1.290143	0.706747	3.003706	0.000000	0.156585	0.000000	0.000029	0.000001	0.000000	0.000000
30.168294	25.022831	11.264343	-0.537031	0.276341	3.064935	0.000000	0.066120	0.000000	0.000030	0.000000	0.000000	0.000000
30.717354	25.179150	11.186857	0.254014	-0.134382	3.076098	0.000000	-0.025518	0.000000	0.000030	-0.000001	0.000000	0.000000
31.015927	25.070408	11.257710	0.175964	-0.132145	3.070878	0.000000	-0.017483	0.000000	0.000030	-0.000000	0.000000	0.000000
31.349260	24.957668	11.355849	0.162256	-0.162272	3.065051	0.000000	-0.017483	0.000000	0.000030	-0.000000	0.000000	0.000000
31.682593	24.854066	11.474072	0.148549	-0.192398	3.059223	0.000000	-0.017483	0.000000	0.000029	-0.000000	0.000000	0.000000
32.017177	24.759266	11.612936	0.134790	-0.222637	3.053374	0.000000	-0.017483	0.000000	0.000029	-0.000000	0.000000	0.000000
32.314499	24.682749	11.753316	0.058087	-0.218807	3.048176	0.000000	-0.009520	0.000000	0.000029	-0.000000	0.000000	0.000000
32.863559	24.196030	12.232763	0.823122	-0.659561	3.018080	0.000000	-0.099947	0.000000	0.000029	-0.000001	0.000000	0.000000
33.412619	22.896321	13.219014	1.530016	-1.147294	2.938749	0.000000	-0.188601	0.000000	0.000028	-0.000002	0.000000	0.000000
33.961679	20.875427	14.782318	2.128837	-1.716747	2.811590	0.000000	-0.273909	0.000000	0.000026	-0.000003	0.000000	0.000000
34.510739	18.276094	17.034024	2.577287	-2.408479	2.638859	0.000000	-0.354360	0.000000	0.000024	-0.000004	0.000000	0.000000
34.956699	16.254947	19.048131	1.971075	-2.089003	2.497165	0.000000	-0.281462	0.000000	0.000023	-0.000003	0.000000	0.000000
35.397659	14.747724	20.714345	1.459937	-1.675223	2.388428	0.000000	-0.212198	0.000000	0.000021	-0.000003	0.000000	0.000000
35.838619	13.660280	21.980504	1.015499	-1.185220	2.309671	0.000000	-0.145351	0.000000	0.000020	-0.000002	0.000000	0.000000
36.279579	12.942933	22.789000	0.617457	-0.641291	2.259999	0.000000	-0.080159	0.000000	0.000019	-0.000002	0.000000	0.000000
36.721789	12.562212	23.103358	0.278320	-0.124884	2.238819	0.000000	-0.021369	0.000000	0.000019	-0.000001	0.000000	0.000000
37.019112	12.404292	23.181505	0.252819	-0.137954	2.232465	0.000000	-0.021369	0.000000	0.000018	-0.000001	0.000000	0.000000
37.352445	12.245277	23.278359	0.224229	-0.152607	2.225343	0.000000	-0.021369	0.000000	0.000018	-0.000001	0.000000	0.000000
37.685779	12.105321	23.384982	0.195639	-0.167260	2.218220	0.000000	-0.021369	0.000000	0.000018	-0.000001	0.000000	0.000000
38.020362	11.984008	23.501828	0.166941	-0.181968	2.211071	0.000000	-0.021369	0.000000	0.000017	-0.000001	0.000000	0.000000
38.317684	11.892319	23.613920	0.170599	-0.252938	2.204718	0.000000	-0.026775	0.000000	0.000017	-0.000001	0.000000	0.000000
38.758644	11.893443	23.575420	-0.173157	0.339915	2.206834	0.000000	0.036379	0.000000	0.000016	-0.000001	0.000000	0.000000
39.199604	12.200062	23.018919	-0.524825	0.917302	2.236863	0.000000	0.099947	0.000000	0.000016	-0.000000	0.000000	0.000000
39.640564	12.826184	21.969739	-0.900470	1.452953	2.295147	0.000000	0.164654	0.000000	0.000016	-0.000000	0.000000	0.000000
40.081524	13.800416	20.475616	-1.317255	1.922495	2.382349	0.000000	0.231235	0.000000	0.000016	0.000000	0.000000	0.000000
40.527484	15.184845	18.581949	-1.798049	2.305853	2.500935	0.000000	0.300856	0.000000	0.000016	0.000001	0.000000	0.000000
41.076544	16.951397	16.453856	-1.400316	1.592909	2.645601	0.000000	0.225329	0.000000	0.000016	0.000000	0.000000	0.000000
41.625604	18.223958	15.042137	-0.903672	0.993425	2.747639	0.000000	0.145806	0.000000	0.000016	-0.000000	0.000000	0.000000
42.174664	18.912640	14.246236	-0.343196	0.464700	2.805239	0.000000	0.063696	0.000000	0.000016	-0.000001	0.000000	0.000000
42.723724	18.968799	14.009465	0.241521	-0.030925	2.817379	0.000000	-0.019543	0.000000	0.000015	-0.000001	0.000000	0.000000
43.022297	18.859040	14.012440	0.175645	-0.015638	2.813742	0.000000	-0.012183	0.000000	0.000015	-0.000001	0.000000	0.000000
43.502297	18.703015	14.043899	0.149408	-0.049902	2.807894	0.000000	-0.012183	0.000000	0.000014	-0.000001	0.000000	0.000000
43.982297	18.572178	14.108252	0.123170	-0.084166	2.802047	0.000000	-0.012183	0.000000	0.000014	-0.000001	0.000000	0.000000
44.462297	18.466528	14.205497	0.096933	-0.118429	2.796200	0.000000	-0.012183	0.000000	0.000013	-0.000001	0.000000	0.000000
44.942297	18.386066	14.335636	0.070696	-0.152693	2.790353	0.000000	-0.012183	0.000000	0.000013	-0.000001	0.000000	0.000000
45.423547	18.330908	14.498955	-0.046431	-0.115209	2.784508	0.000000	0.001613	0.000000	0.000012	-0.000001	0.000000	0.000000
45.720870	18.363351	14.573642	-0.110661	-0.097913	2.784988	0.000000	0.008889	0.000000	0.000012	-0.000001	0.000000	0.000000
46.269930	18.175680	14.962954	0.450441	-0.615325	2.767304	0.000000	-0.073211	0.000000	0.000011	-0.000002	0.000000	0.000000
46.818990	17.385756	15.941035	0.979726	-1.176564	2.704834	0.000000	-0.154012	0.000000	0.000010	-0.000002	0.000000	0.000000
47.368050	16.049375	17.577551	1.439808	-1.821607	2.598684	0.000000	-0.232082	0.000000	0.000009	-0.000002	0.000000	0.000000
47.917110	14.260933	19.989068	1.798189	-2.596400	2.450738	0.000000	-0.306035	0.000000	0.000008	-0.000002	0.000000	0.000000
48.363070	12.869283	22.133016	1.333440	-2.190879	2.329548	0.000000	-0.237751	0.000000	0.000006	-0.000002	0.000000	0.000000
48.804030	11.873483	23.849516	0.933382	-1.686952	2.239167	0.000000	-0.172571	0.000000	0.000005	-0.000002	0.000000	0.000000
49.244990	11.210435	25.085921	0.575968	-1.106270	2.177068	0.000000	-0.109357	0.000000	0.000005	-0.000002	0.000000	0.000000
49.685950	10.849847	25.785973	0.244868	-0.475254	2.142542	0.000000	-0.047389	0.000000	0.000004	-0.000002	0.000000	0.000000
50.128160	10.775367	25.917538	-0.048738	0.113782	2.135208	0.000000	0.008804	0.000000	0.000003	-0.000002	0.000000	0.000000
50.425482	10.812572	25.853334	-0.076396	0.102161	2.137826	0.000000	0.008804	0.000000	0.000002	-0.000002	0.000000	0.000000
50.758816	10.873839	25.789569	-0.107405	0.089133	2.140762	0.000000	0.008804	0.000000	0.000002	-0.000002	0.000000	0.000000
51.092149	10.955778	25.734489	-0.138413	0.076106	2.143697	0.000000	0.008804	0.000000	0.000001	-0.000002	0.000000	0.000000
51.426732	11.058589	25.688458	-0.079823	-0.145368	2.146621	0.000000	-0.008611	0.000000	0.000001	-0.000002	0.000000	0.000000
51.724055	11.114100	25.778415	-0.079625	-0.220404	2.144062	0.000000	-0.013868	0.000000	0.000000	-0.000002	0.000000	0.000000
52.165015	11.329472	25.685971	-0.410645	0.429247	2.151535	0.000000	0.047791	0.000000	-0.000001	-0.000002	0.000000	0.000000
52.605975	11.843916	25.027044	-0.760427	1.059368	2.186291	0.000000	0.109994	0.000000	-0.000002	-0.000002	0.000000	0.000000
53.046935	12.680935	23.831613	-1.144950	1.641289	2.248726	0.000000	0.173450	0.000000	-0.000002	-0.000002	0.000000	0.000000
53.487895	13.878771	22.154070	-1.581782	2.148532	2.339552	0.000000	0.238882	0.000000	-0.000003	-0.000002	0.000000	0.000000
53.933855	15.512685	20.045663	-2.095105	2.559358	2.461307	0.000000	0.307433	0.000000	-0.000004	-0.000002	0.000000	0.000000
54.482915	17.616374	17.673091	-1.713653	1.787301	2.609926	0.000000	0.233127	0.000000	-0.000005	-0.000002	0.000000	0.000000
55.031975	19.231832	16.073868	-1.211157	1.142548	2.716550	0.000000	0.154685	0.000000	-0.000006	-0.000002	0.000000	0.000000
55.581035	20.244952	15.134085	-0.623111	0.579178	2.779287	0.000000	0.073500	0.000000	-0.000007	-0.000002	0.000000	0.000000
56.130095	20.584171	14.786802	0.008949	0.057060	2.797024	0.000000	-0.008990	0.000000	-0.000008	-0.000001	0.000000	0.000000
56.428668	20.615285	14.735740	-0.059371	0.075322	2.796522	0.000000	-0.001681	0.000000	-0.000008	-0.000001	0.000000	0.000000
56.762001	20.660274	14.693109	-0.075598	0.052572	2.795962	0.000000	-0.001681	0.000000	-0.000009	-0.000001	0.000000	0.000000
57.095334	20.716081	14.665643	-0.091824	0.029823	2.795402	0.000000	-0.001681	0.000000	-0.000009	-0.000001	0.000000	0.000000
57.429918	20.782976	14.653326	-0.108111	0.006989	2.794840	0.000000	-0.001681	0.000000	-0.000010	-0.000001	0.000000	0.000000
57.727240	20.851567	14.655204	-0.177070	0.024992	2.794341	0.000000	0.005621	0.000000	-0.000010	-0.000001	0.000000	0.000000
58.276300	20.690325	14.909104	0.469000	-0.490149	2.774785	0.000000	-0.076752	0.000000	-0.000011	-0.000001	0.000000	0.000000
58.825360	19.833693	15.744427	1.081943	-1.040202	2.710309	0.000000	-0.157763	0.000000	-0.000011	-0.000001	0.000000	0.000000
59.374420	18.342179	17.220672	1.618463	-1.664346	2.602057	0.000000	-0.235976	0.000000	-0.000011	-0.000000	0.000000	0.000000
59.923480	16.321136	19.442988	2.040662	-2.407038	2.451948	0.000000	-0.310004	0.000000	-0.000011	0.000000	0.000000	0.000000
60.369440	14.739336	21.418146	1.518855	-2.003269	2.328991	0.000000	-0.241711	0.000000	-0.000011	-0.000000	0.000000	0.000000
60.810400	13.601789	22.973155	1.070637	-1.509731	2.236857	0.000000	-0.176569	0.000000	-0.000012	-0.000000	0.000000	0.000000
61.251360	12.836553	24.060835	0.671334	-0.947502	2.172977	0.000000	-0.113437	0.000000	-0.000012	-0.000001	0.000000	0.000000
61.692320	12.408665	24.631697	0.302702	-0.342162	2.136625	0.000000	-0.051597	0.000000	-0.000012	-0.000001	0.000000	0.000000
62.134530	12.298632	24.659222	-0.022038	0.218214	2.127393	0.000000	0.004437	0.000000	-0.000013	-0.000001	0.000000	0.000000
62.431853	12.318928	24.533218	-0.046225	0.205582	2.128712	0.000000	0.004437	0.000000	-0.000013	-0.000001	0.000000	0.000000
62.765186	12.358784	24.400883	-0.073342	0.191421	2.130192	0.000000	0.004437	0.000000	-0.000014	-0.000001	0.000000	0.000000
63.098520	12.416717	24.277990	-0.100458	0.177260	2.131671	0.000000	0.004437	0.000000	-0.000014	-0.000001	0.000000	0.000000
63.433103	12.493047	24.164130	-0.127676	0.163045	2.133156	0.000000	0.004437	0.000000	-0.000015	-0.000001	0.000000	0.000000
63.730426	12.576161	24.070931	-0.121018	0.091376	2.134476	0.000000	-0.000798	0.000000	-0.000015	-0.000001	0.000000	0.000000
64.171386	12.843090	23.725270	-0.486615	0.689525	2.147668	0.000000	0.060688	0.000000	-0.000016	-0.000002	0.000000	0.000000
64.612346	13.440993	22.863961	-0.874443	1.256302	2.188100	0.000000	0.122864	0.000000	-0.000017	-0.000002	0.000000	0.000000
65.053306	14.397186	21.526193	-1.302221	1.765917	2.256232	0.000000	0.186441	0.000000	-0.000018	-0.000003	0.000000	0.000000
65.494266	15.755356	19.772833	-1.789495	2.195185	2.352840	0.000000	0.252140	0.000000	-0.000019	-0.000003	0.000000	0.000000
65.940226	17.600716	17.658857	-2.363216	2.525324	2.480597	0.000000	0.321114	0.000000	-0.000021	-0.000004	0.000000	0.000000
66.489286	19.966475	15.294066	-1.920023	1.807081	2.636535	0.000000	0.246064	0.000000	-0.000022	-0.000003	0.000000	0.000000
67.038346	21.767749	13.643107	-1.341210	1.217552	2.750005	0.000000	0.166649	0.000000	-0.000024	-0.000002	0.000000	0.000000
67.587406	22.877306	12.588386	-0.667660	0.714746	2.818995	0.000000	0.084278	0.000000	-0.000025	-0.000001	0.000000	0.000000
68.136466	23.216772	12.054776	0.053050	0.262851	2.842280	0.000000	0.000413	0.000000	-0.000025	-0.000001	0.000000	0.000000
68.435038	23.225165	11.887040	-0.020485	0.267440	2.844621	0.000000	0.007841	0.000000	-0.000025	-0.000001	0.000000	0.000000
68.768372	23.243607	11.718762	-0.034843	0.237393	2.847235	0.000000	0.007841	0.000000	-0.000026	-0.000001	0.000000	0.000000
69.101705	23.271622	11.570516	-0.049201	0.207345	2.849849	0.000000	0.007841	0.000000	-0.000026	-0.000001	0.000000	0.000000
69.436288	23.309368	11.441859	-0.063613	0.177185	2.852472	0.000000	0.007841	0.000000	-0.000026	-0.000001	0.000000	0.000000
69.733611	23.351003	11.344465	-0.137446	0.180031	2.854804	0.000000	0.015301	0.000000	-0.000026	-0.000001	0.000000	0.000000
70.282671	23.100880	11.374036	0.590297	-0.234208	2.840011	0.000000	-0.069108	0.000000	-0.000026	0.000000	0.000000	0.000000
