#ParticleID	Turn	x[m]	xp	y[m]	yp	z[m]	dE[GeV]# s	beta_x	beta_y	alpha_x	alpha_y	D_x	D_y	D_px	D_py	orbit_x	orbit_px	orbit_y	orbit_py
0.300000	11.833121	24.943796	-0.013536	-0.027776	2.618317	0.000000	-0.000066	0.000000	-0.000000	0.000000	0.000000	0.000000
0.601250	11.848947	24.964172	-0.038999	-0.039863	2.618297	0.000000	-0.000066	0.000000	-0.000000	0.000000	0.000000	0.000000
0.898573	11.879610	24.991423	-0.034997	-0.113078	2.618277	0.000000	-0.006487	0.000000	-0.000000	0.000000	0.000000	0.000000
1.339533	12.062846	24.813968	-0.382118	0.513974	2.631711	0.000000	0.067474	0.000000	0.000000	0.000000	0.000000	0.000000
1.780493	12.558726	24.091742	-0.746696	1.117641	2.677897	0.000000	0.142204	0.000000	0.000000	0.000000	0.000000	0.000000
2.221453	13.389907	22.857606	-1.145389	1.670457	2.757361	0.000000	0.218553	0.000000	0.000000	0.000000	0.000000	0.000000
2.662413	14.594362	21.167712	-1.596412	2.147267	2.871008	0.000000	0.297391	0.000000	0.000000	0.000000	0.000000	0.000000
3.108373	16.247934	19.074163	-2.124671	2.527509	3.021994	0.000000	0.380107	0.000000	0.000000	0.000000	0.000000	0.000000
3.657433	18.368313	16.722922	-1.714303	1.780071	3.205424	0.000000	0.287069	0.000000	0.000000	0.000000	0.000000	0.000000
4.206493	19.968493	15.118433	-1.182845	1.159424	3.336295	0.000000	0.188940	0.000000	0.000000	0.000000	0.000000	0.000000
4.755553	20.935447	14.146414	-0.567838	0.621360	3.412287	0.000000	0.087459	0.000000	0.000000	0.000000	0.000000	0.000000
5.304613	21.200874	13.737627	0.087279	0.127555	3.432051	0.000000	-0.015573	0.000000	0.000000	0.000000	0.000000	0.000000
5.603185	21.186043	13.646687	0.017788	0.141134	3.430079	0.000000	-0.006605	0.000000	0.000000	0.000000	0.000000	0.000000
5.936519	21.179431	13.560902	0.002049	0.116221	3.427877	0.000000	-0.006605	0.000000	0.000000	0.000000	0.000000	0.000000
6.269852	21.183310	13.491725	-0.013689	0.091309	3.425675	0.000000	-0.006605	0.000000	0.000000	0.000000	0.000000	0.000000
6.604435	21.197756	13.438991	-0.029487	0.066303	3.423465	0.000000	-0.006605	0.000000	0.000000	0.000000	0.000000	0.000000
6.901758	21.219465	13.406171	-0.098967	0.079110	3.421501	0.000000	0.002334	0.000000	0.000001	0.000000	0.000000	0.000000
7.450818	20.966411	13.579756	0.557124	-0.397124	3.394583	0.000000	-0.100240	0.000000	0.000001	0.000000	0.000000	0.000000
7.999878	20.010337	14.288673	1.173862	-0.901644	3.311752	0.000000	-0.201036	0.000000	0.000001	0.000000	0.000000	0.000000
8.548938	18.418773	15.583417	1.707685	-1.470386	3.174476	0.000000	-0.298266	0.000000	0.000001	0.000000	0.000000	0.000000
9.097998	16.304140	17.556210	2.120886	-2.143860	2.985191	0.000000	-0.390206	0.000000	0.000001	-0.000000	0.000000	0.000000
9.543958	14.654192	19.314146	1.592037	-1.781393	2.829480	0.000000	-0.308507	0.000000	0.000001	0.000000	0.000000	0.000000
9.984918	13.453928	20.695415	1.140223	-1.339101	2.710685	0.000000	-0.230806	0.000000	0.000001	0.000000	0.000000	0.000000
10.425878	12.627738	21.658159	0.740502	-0.835882	2.625542	0.000000	-0.155733	0.000000	0.000001	0.000000	0.000000	0.000000
10.866838	12.137875	22.158574	0.374613	-0.294631	2.573080	0.000000	-0.082434	0.000000	0.000001	0.000000	0.000000	0.000000
11.309048	11.961821	22.173378	0.055069	0.205591	2.552683	0.000000	-0.016334	0.000000	0.000001	0.000000	0.000000	0.000000
11.606371	11.936487	22.055280	0.030137	0.191615	2.547827	0.000000	-0.016334	0.000000	0.000001	0.000000	0.000000	0.000000
12.086371	11.926875	21.882160	-0.010112	0.169052	2.539986	0.000000	-0.016334	0.000000	0.000001	0.000000	0.000000	0.000000
12.566371	11.955902	21.730699	-0.050361	0.146490	2.532146	0.000000	-0.016334	0.000000	0.000001	0.000000	0.000000	0.000000
13.046371	12.023569	21.600899	-0.090611	0.123927	2.524305	0.000000	-0.016334	0.000000	0.000001	0.000000	0.000000	0.000000
13.526371	12.129875	21.492759	-0.130860	0.101365	2.516465	0.000000	-0.016334	0.000000	0.000001	0.000000	0.000000	0.000000
14.007621	12.275249	21.406082	-0.171214	0.078743	2.508604	0.000000	-0.016334	0.000000	0.000001	0.000000	0.000000	0.000000
14.304943	12.384473	21.363413	-0.165776	0.012379	2.503747	0.000000	-0.022474	0.000000	0.000001	0.000000	0.000000	0.000000
14.745903	12.689431	21.118643	-0.528426	0.540594	2.509466	0.000000	0.048435	0.000000	0.000001	0.000000	0.000000	0.000000
15.186863	13.323614	20.417138	-0.915218	1.044212	2.546544	0.000000	0.119896	0.000000	0.000001	0.000000	0.000000	0.000000
15.627823	14.315997	19.290815	-1.343824	1.500320	2.615404	0.000000	0.192722	0.000000	0.000001	0.000000	0.000000	0.000000
16.068783	15.711917	17.790922	-1.833825	1.888164	2.716831	0.000000	0.267743	0.000000	0.000001	0.000000	0.000000	0.000000
16.514743	17.598806	15.964201	-2.412367	2.190848	2.853674	0.000000	0.346276	0.000000	0.000001	0.000000	0.000000	0.000000
17.063803	20.021945	13.924359	-1.974758	1.546236	3.020076	0.000000	0.258968	0.000000	0.000001	0.000000	0.000000	0.000000
17.612863	21.884632	12.528108	-1.397661	1.011758	3.137208	0.000000	0.167067	0.000000	0.000001	0.000000	0.000000	0.000000
18.161923	23.055295	11.675998	-0.721841	0.549346	3.202991	0.000000	0.072202	0.000000	0.000001	0.000000	0.000000	0.000000
18.710983	23.451246	11.307334	0.004967	0.126063	3.216260	0.000000	-0.023943	0.000000	0.000002	0.000000	0.000000	0.000000
19.009556	23.488682	11.222489	-0.069078	0.128562	3.211620	0.000000	-0.015539	0.000000	0.000002	0.000000	0.000000	0.000000
19.342889	23.539487	11.146846	-0.083337	0.098368	3.206440	0.000000	-0.015539	0.000000	0.000002	0.000000	0.000000	0.000000
19.676223	23.599798	11.091331	-0.097596	0.068175	3.201260	0.000000	-0.015539	0.000000	0.000002	0.000000	0.000000	0.000000
20.010806	23.670188	11.055714	-0.229184	0.092646	3.196081	0.000000	0.000296	0.000000	0.000002	0.000000	0.000000	0.000000
20.308129	23.810402	11.008687	-0.304616	0.094285	3.196169	0.000000	0.008647	0.000000	0.000002	0.000000	0.000000	0.000000
20.857189	23.734249	11.127747	0.442492	-0.312409	3.174705	0.000000	-0.086715	0.000000	0.000002	-0.000000	0.000000	0.000000
21.406249	22.850059	11.702932	1.158345	-0.741355	3.101228	0.000000	-0.180538	0.000000	0.000002	-0.000000	0.000000	0.000000
21.955309	21.220286	12.775210	1.792378	-1.223106	2.977040	0.000000	-0.271159	0.000000	0.000002	-0.000000	0.000000	0.000000
22.504369	18.960051	14.420957	2.299807	-1.791977	2.804346	0.000000	-0.356971	0.000000	0.000001	-0.000000	0.000000	0.000000
22.950329	17.178970	15.898348	1.708106	-1.506881	2.662439	0.000000	-0.279784	0.000000	0.000001	-0.000000	0.000000	0.000000
23.391289	15.901835	17.076209	1.199142	-1.154081	2.555384	0.000000	-0.206237	0.000000	0.000001	-0.000000	0.000000	0.000000
23.832249	15.047802	17.918496	0.744963	-0.748772	2.480210	0.000000	-0.135039	0.000000	0.000001	-0.000000	0.000000	0.000000
24.273209	14.577854	18.386887	0.324819	-0.309394	2.436064	0.000000	-0.065380	0.000000	0.000001	-0.000000	0.000000	0.000000
24.715418	14.470632	18.459824	-0.045085	0.098724	2.422438	0.000000	-0.002405	0.000000	0.000001	0.000000	0.000000	0.000000
25.012741	14.503563	18.405954	-0.065674	0.082460	2.421723	0.000000	-0.002405	0.000000	0.000001	0.000000	0.000000	0.000000
25.346075	14.555039	18.357058	-0.088756	0.064227	2.420921	0.000000	-0.002405	0.000000	0.000001	0.000000	0.000000	0.000000
25.679408	14.621904	18.320317	-0.111838	0.045994	2.420120	0.000000	-0.002405	0.000000	0.000001	0.000000	0.000000	0.000000
26.013991	14.704195	18.296034	-0.015716	-0.120734	2.419290	0.000000	-0.022032	0.000000	0.000001	0.000000	0.000000	0.000000
26.311314	14.719554	18.372730	0.000155	-0.182276	2.412739	0.000000	-0.027949	0.000000	0.000001	0.000000	0.000000	0.000000
26.752274	14.900800	18.334169	-0.412740	0.269392	2.415521	0.000000	0.040576	0.000000	0.000001	0.000000	0.000000	0.000000
27.193234	15.453095	17.901177	-0.844493	0.708803	2.448592	0.000000	0.109563	0.000000	0.000001	0.000000	0.000000	0.000000
27.634194	16.401670	17.093454	-1.314827	1.115964	2.512330	0.000000	0.179798	0.000000	0.000001	0.000000	0.000000	0.000000
28.075154	17.789864	15.947752	-1.845233	1.472349	2.607460	0.000000	0.252081	0.000000	0.000001	0.000000	0.000000	0.000000
28.521114	19.705224	14.498944	-2.464895	1.762658	2.736669	0.000000	0.327678	0.000000	0.000002	0.000000	0.000000	0.000000
29.070174	22.139650	12.884506	-1.942665	1.195065	2.893928	0.000000	0.244310	0.000000	0.000002	0.000000	0.000000	0.000000
29.619234	23.921399	11.843232	-1.283214	0.712594	3.004154	0.000000	0.156608	0.000000	0.000002	0.000000	0.000000	0.000000
30.168294	24.924616	11.300956	-0.533124	0.280880	3.065391	0.000000	0.066128	0.000000	0.000002	0.000000	0.000000	0.000000
30.717354	25.078440	11.219052	0.254624	-0.130828	3.076554	0.000000	-0.025525	0.000000	0.000002	-0.000000	0.000000	0.000000
31.015927	24.969202	11.287699	0.176768	-0.128402	3.071333	0.000000	-0.017487	0.000000	0.000002	-0.000000	0.000000	0.000000
31.349260	24.855946	11.383307	0.163001	-0.158420	3.065504	0.000000	-0.017487	0.000000	0.000002	-0.000000	0.000000	0.000000
31.682593	24.751867	11.498926	0.149234	-0.188437	3.059675	0.000000	-0.017487	0.000000	0.000002	-0.000000	0.000000	0.000000
32.017177	24.656628	11.635103	0.135416	-0.218568	3.053825	0.000000	-0.017487	0.000000	0.000002	-0.000000	0.000000	0.000000
32.314499	24.579755	11.773034	0.058914	-0.214582	3.048626	0.000000	-0.009521	0.000000	0.000002	-0.000000	0.000000	0.000000
32.863559	24.094011	12.248044	0.820532	-0.655659	3.018525	0.000000	-0.099962	0.000000	0.000002	-0.000000	0.000000	0.000000
33.412619	22.798951	13.230060	1.524192	-1.143437	2.939181	0.000000	-0.188630	0.000000	0.000002	-0.000000	0.000000	0.000000
33.961679	20.786051	14.789027	2.120190	-1.712660	2.812000	0.000000	-0.273953	0.000000	0.000002	-0.000000	0.000000	0.000000
34.510739	18.197493	17.035987	2.566428	-2.403872	2.639240	0.000000	-0.354415	0.000000	0.000001	-0.000000	0.000000	0.000000
34.956699	16.184943	19.045726	1.962589	-2.083857	2.497522	0.000000	-0.281508	0.000000	0.000001	-0.000000	0.000000	0.000000
35.397659	14.684314	20.707251	1.453417	-1.669777	2.388765	0.000000	-0.212235	0.000000	0.000001	-0.000000	0.000000	0.000000
35.838619	13.601868	21.968566	1.010646	-1.179723	2.309993	0.000000	-0.145380	0.000000	0.000001	-0.000000	0.000000	0.000000
36.279579	12.888149	22.772283	0.614049	-0.635994	2.260309	0.000000	-0.080180	0.000000	0.000001	-0.000000	0.000000	0.000000
36.721789	12.509861	23.082133	0.276079	-0.119984	2.239121	0.000000	-0.021384	0.000000	0.000001	-0.000000	0.000000	0.000000
37.019112	12.353298	23.157366	0.250500	-0.133051	2.232763	0.000000	-0.021384	0.000000	0.000001	-0.000000	0.000000	0.000000
37.352445	12.195857	23.250950	0.221823	-0.147700	2.225635	0.000000	-0.021384	0.000000	0.000001	-0.000000	0.000000	0.000000
37.685779	12.057533	23.354299	0.193147	-0.162349	2.218507	0.000000	-0.021384	0.000000	0.000001	-0.000000	0.000000	0.000000
38.020362	11.937916	23.467858	0.164363	-0.177053	2.211352	0.000000	-0.021384	0.000000	0.000001	-0.000000	0.000000	0.000000
38.317684	11.847784	23.577026	0.167838	-0.247937	2.204994	0.000000	-0.026791	0.000000	0.000001	-0.000000	0.000000	0.000000
38.758644	11.850900	23.534562	-0.174932	0.343870	2.207104	0.000000	0.036370	0.000000	0.000001	-0.000000	0.000000	0.000000
39.199604	12.158681	22.975104	-0.525695	0.920030	2.237130	0.000000	0.099945	0.000000	0.000001	-0.000000	0.000000	0.000000
39.640564	12.785189	21.924106	-0.900476	1.454331	2.295415	0.000000	0.164658	0.000000	0.000001	-0.000000	0.000000	0.000000
40.081524	13.759046	20.429389	-1.316396	1.922460	2.382621	0.000000	0.231247	0.000000	0.000001	0.000000	0.000000	0.000000
40.527484	15.142306	18.536392	-1.796282	2.304396	2.501214	0.000000	0.300874	0.000000	0.000001	0.000000	0.000000	0.000000
41.076544	16.907800	16.409250	-1.400169	1.592624	2.645888	0.000000	0.225339	0.000000	0.000001	0.000000	0.000000	0.000000
41.625604	18.181099	14.997214	-0.905155	0.994291	2.747929	0.000000	0.145806	0.000000	0.000001	-0.000000	0.000000	0.000000
42.174664	18.872262	14.199706	-0.346205	0.466779	2.805526	0.000000	0.063687	0.000000	0.000001	-0.000000	0.000000	0.000000
42.723724	18.932469	13.959922	0.237199	-0.027485	2.817657	0.000000	-0.019561	0.000000	0.000001	-0.000000	0.000000	0.000000
43.022297	18.825240	13.960941	0.171406	-0.012400	2.814015	0.000000	-0.012199	0.000000	0.000001	-0.000000	0.000000	0.000000
43.502297	18.673289	13.989351	0.145159	-0.046787	2.808159	0.000000	-0.012199	0.000000	0.000001	-0.000000	0.000000	0.000000
43.982297	18.546534	14.050772	0.118912	-0.081174	2.802304	0.000000	-0.012199	0.000000	0.000001	-0.000000	0.000000	0.000000
44.462297	18.444977	14.145205	0.092666	-0.115561	2.796448	0.000000	-0.012199	0.000000	0.000001	-0.000000	0.000000	0.000000
44.942297	18.368617	14.272649	0.066419	-0.149948	2.790592	0.000000	-0.012199	0.000000	0.000001	-0.000000	0.000000	0.000000
45.423547	18.317580	14.433387	-0.050652	-0.112912	2.784739	0.000000	0.001598	0.000000	0.000001	-0.000000	0.000000	0.000000
45.720870	18.352538	14.506732	-0.114877	-0.095871	2.785214	0.000000	0.008875	0.000000	0.000001	-0.000000	0.000000	0.000000
46.269930	18.169658	14.892673	0.445983	-0.611189	2.767520	0.000000	-0.073232	0.000000	0.000001	-0.000000	0.000000	0.000000
46.818990	17.384620	15.864936	0.975340	-1.170041	2.705035	0.000000	-0.154040	0.000000	0.000001	-0.000000	0.000000	0.000000
47.368050	16.052874	17.492774	1.435804	-1.812232	2.598867	0.000000	-0.232116	0.000000	0.000001	-0.000000	0.000000	0.000000
47.917110	14.268488	19.892134	1.794850	-2.583504	2.450899	0.000000	-0.306075	0.000000	0.000000	-0.000000	0.000000	0.000000
48.363070	12.879727	22.025496	1.330274	-2.180137	2.329692	0.000000	-0.237787	0.000000	0.000000	-0.000000	0.000000	0.000000
48.804030	11.886698	23.733653	0.930241	-1.678845	2.239295	0.000000	-0.172604	0.000000	0.000000	-0.000000	0.000000	0.000000
49.244990	11.226462	24.964210	0.572708	-1.101166	2.177181	0.000000	-0.109387	0.000000	0.000000	-0.000000	0.000000	0.000000
49.685950	10.868856	25.661176	0.241341	-0.473385	2.142642	0.000000	-0.047415	0.000000	0.000000	-0.000000	0.000000	0.000000
50.128160	10.797672	25.792559	-0.052638	0.112634	2.135296	0.000000	0.008780	0.000000	0.000000	-0.000000	0.000000	0.000000
50.425482	10.837183	25.729053	-0.080250	0.100960	2.137907	0.000000	0.008780	0.000000	0.000000	-0.000000	0.000000	0.000000
50.758816	10.901002	25.666109	-0.111207	0.087872	2.140833	0.000000	0.008780	0.000000	0.000000	-0.000000	0.000000	0.000000
51.092149	10.985458	25.611890	-0.142163	0.074785	2.143760	0.000000	0.008780	0.000000	0.000000	-0.000000	0.000000	0.000000
51.426732	11.090761	25.566760	-0.083260	-0.145762	2.146676	0.000000	-0.008635	0.000000	0.000000	-0.000000	0.000000	0.000000
51.724055	11.148297	25.656968	-0.082915	-0.220557	2.144108	0.000000	-0.013893	0.000000	0.000000	-0.000000	0.000000	0.000000
52.165015	11.366938	25.566077	-0.414797	0.425892	2.151570	0.000000	0.047767	0.000000	-0.000000	-0.000000	0.000000	0.000000
52.605975	11.885493	24.911470	-0.765631	1.052963	2.186315	0.000000	0.109971	0.000000	-0.000000	-0.000000	0.000000	0.000000
53.046935	12.727651	23.722931	-1.151444	1.632125	2.248739	0.000000	0.173428	0.000000	-0.000000	-0.000000	0.000000	0.000000
53.487895	13.931889	22.054538	-1.589862	2.137026	2.339554	0.000000	0.238860	0.000000	-0.000000	-0.000000	0.000000	0.000000
53.933855	15.573860	19.957252	-2.105158	2.546029	2.461298	0.000000	0.307411	0.000000	-0.000000	-0.000000	0.000000	0.000000
54.482915	17.687782	17.597389	-1.722125	1.777348	2.609905	0.000000	0.233105	0.000000	-0.000000	-0.000000	0.000000	0.000000
55.031975	19.311395	16.007574	-1.217450	1.135264	2.716516	0.000000	0.154664	0.000000	-0.000000	-0.000000	0.000000	0.000000
55.581035	20.330018	15.074570	-0.626780	0.574042	2.779240	0.000000	0.073480	0.000000	-0.000000	-0.000000	0.000000	0.000000
56.130095	20.671698	14.731920	0.008162	0.053708	2.796966	0.000000	-0.009008	0.000000	-0.000000	-0.000000	0.000000	0.000000
56.428668	20.703398	14.682966	-0.060323	0.071761	2.796459	0.000000	-0.001700	0.000000	-0.000000	-0.000000	0.000000	0.000000
56.762001	20.749000	14.642732	-0.076482	0.048942	2.795892	0.000000	-0.001700	0.000000	-0.000000	-0.000000	0.000000	0.000000
57.095334	20.805374	14.617710	-0.092641	0.026123	2.795325	0.000000	-0.001700	0.000000	-0.000001	-0.000000	0.000000	0.000000
57.429918	20.872793	14.607893	-0.108861	0.003218	2.794757	0.000000	-0.001700	0.000000	-0.000001	-0.000000	0.000000	0.000000
57.727240	20.941812	14.612031	-0.177991	0.021043	2.794251	0.000000	0.005601	0.000000	-0.000001	-0.000000	0.000000	0.000000
58.276300	20.779917	14.869608	0.471104	-0.492935	2.774685	0.000000	-0.076769	0.000000	-0.000001	-0.000000	0.000000	0.000000
58.825360	19.919372	15.707447	1.086924	-1.042024	2.710200	0.000000	-0.157777	0.000000	-0.000001	-0.000000	0.000000	0.000000
59.374420	18.420962	17.185225	1.625968	-1.665334	2.601941	0.000000	-0.235986	0.000000	-0.000001	-0.000000	0.000000	0.000000
59.923480	16.390527	19.408203	2.050162	-2.407261	2.451828	0.000000	-0.310010	0.000000	-0.000001	0.000000	0.000000	0.000000
60.369440	14.801198	21.384095	1.526296	-2.004688	2.328868	0.000000	-0.241720	0.000000	-0.000001	-0.000000	0.000000	0.000000
60.810400	13.657861	22.940858	1.076376	-1.512272	2.236729	0.000000	-0.176581	0.000000	-0.000001	-0.000000	0.000000	0.000000
61.251360	12.888215	24.031234	0.675633	-0.951050	2.172843	0.000000	-0.113452	0.000000	-0.000001	-0.000000	0.000000	0.000000
61.692320	12.457097	24.605611	0.305758	-0.346555	2.136483	0.000000	-0.051616	0.000000	-0.000001	-0.000000	0.000000	0.000000
62.134530	12.344859	24.637323	-0.019976	0.213236	2.127241	0.000000	0.004415	0.000000	-0.000001	-0.000000	0.000000	0.000000
62.431853	12.363902	24.514275	-0.044071	0.200619	2.128554	0.000000	0.004415	0.000000	-0.000001	-0.000000	0.000000	0.000000
62.765186	12.402286	24.385244	-0.071083	0.186474	2.130025	0.000000	0.004415	0.000000	-0.000001	-0.000000	0.000000	0.000000
63.098520	12.458679	24.265642	-0.098096	0.172329	2.131497	0.000000	0.004415	0.000000	-0.000001	-0.000000	0.000000	0.000000
63.433103	12.533394	24.155076	-0.125210	0.158131	2.132974	0.000000	0.004415	0.000000	-0.000001	-0.000000	0.000000	0.000000
63.730426	12.615013	24.064795	-0.118368	0.086500	2.134287	0.000000	-0.000819	0.000000	-0.000001	-0.000000	0.000000	0.000000
64.171386	12.879972	23.723465	-0.484781	0.684614	2.147469	0.000000	0.060662	0.000000	-0.000001	-0.000000	0.000000	0.000000
64.612346	13.476587	22.866421	-0.873343	1.251578	2.187888	0.000000	0.122833	0.000000	-0.000001	-0.000000	0.000000	0.000000
65.053306	14.432115	21.532656	-1.301804	1.761597	2.256003	0.000000	0.186404	0.000000	-0.000001	-0.000000	0.000000	0.000000
65.494266	15.790211	19.782855	-1.789742	2.191464	2.352592	0.000000	0.252098	0.000000	-0.000001	-0.000000	0.000000	0.000000
65.940226	17.636095	17.671862	-2.364143	2.522380	2.480328	0.000000	0.321065	0.000000	-0.000001	-0.000000	0.000000	0.000000
66.489286	20.002084	15.310226	-1.919513	1.804245	2.636240	0.000000	0.246023	0.000000	-0.000001	-0.000000	0.000000	0.000000
67.038346	21.802022	13.662413	-1.339298	1.214623	2.749690	0.000000	0.166619	0.000000	-0.000001	-0.000000	0.000000	0.000000
67.587406	22.908770	12.611053	-0.664483	0.711516	2.818664	0.000000	0.084258	0.000000	-0.000001	-0.000000	0.000000	0.000000
68.136466	23.244152	12.081260	0.057269	0.259088	2.841941	0.000000	0.000404	0.000000	-0.000001	-0.000000	0.000000	0.000000
68.435038	23.250056	11.915700	-0.016310	0.263853	2.844279	0.000000	0.007829	0.000000	-0.000001	-0.000000	0.000000	0.000000
68.768372	23.265709	11.749771	-0.030650	0.233931	2.846888	0.000000	0.007829	0.000000	-0.000001	-0.000000	0.000000	0.000000
69.101705	23.290923	11.603791	-0.044991	0.204009	2.849498	0.000000	0.007829	0.000000	-0.000001	-0.000000	0.000000	0.000000
69.436288	23.325846	11.477324	-0.059386	0.173975	2.852118	0.000000	0.007829	0.000000	-0.000001	-0.000000	0.000000	0.000000
69.733611	23.364962	11.381805	-0.133226	0.177025	2.854445	0.000000	0.015287	0.000000	-0.000001	-0.000000	0.000000	0.000000
70.282671	23.109991	11.415263	0.594856	-0.238321	2.839648	0.000000	-0.069110	0.000000	-0.000002	0.000000	0.000000	0.000000
