#ParticleID	Turn	x[m]	xp	y[m]	yp	z[m]	dE[GeV]# s	beta_x	beta_y	alpha_x	alpha_y	D_x	D_y	D_px	D_py	orbit_x	orbit_px	orbit_y	orbit_py
0.300000	11.819638	24.994327	-0.011746	-0.027490	2.618107	0.000000	0.000014	0.000000	-0.000000	0.000001	0.000000	0.000000
0.601250	11.834395	25.014523	-0.037237	-0.039552	2.618111	0.000000	0.000014	0.000000	0.000000	0.000001	0.000000	0.000000
0.898573	11.864018	25.041582	-0.033301	-0.112865	2.618115	0.000000	-0.006406	0.000000	0.000000	0.000001	0.000000	0.000000
1.339533	12.045588	24.863355	-0.380023	0.515508	2.631583	0.000000	0.067551	0.000000	0.000001	0.000001	0.000000	0.000000
1.780493	12.539411	24.139218	-0.744106	1.120425	2.677802	0.000000	0.142278	0.000000	0.000001	0.000001	0.000000	0.000000
2.221453	13.368047	22.902120	-1.142186	1.674365	2.757298	0.000000	0.218625	0.000000	0.000001	0.000001	0.000000	0.000000
2.662413	14.569354	21.208347	-1.592448	2.152122	2.870977	0.000000	0.297462	0.000000	0.000002	0.000001	0.000000	0.000000
3.108373	16.218982	19.110124	-2.119759	2.533090	3.021994	0.000000	0.380177	0.000000	0.000002	0.000001	0.000000	0.000000
3.657433	18.334339	16.753549	-1.710121	1.784262	3.205462	0.000000	0.287139	0.000000	0.000002	0.000001	0.000000	0.000000
4.206493	19.930467	15.145081	-1.179690	1.162523	3.336370	0.000000	0.189008	0.000000	0.000003	0.000001	0.000000	0.000000
4.755553	20.894625	14.170153	-0.565931	0.623588	3.412398	0.000000	0.087524	0.000000	0.000003	0.000001	0.000000	0.000000
5.304613	21.158709	13.759324	0.087803	0.129070	3.432197	0.000000	-0.015512	0.000000	0.000003	0.000000	0.000000	0.000000
5.603185	21.143507	13.667439	0.018395	0.142729	3.430242	0.000000	-0.006545	0.000000	0.000004	0.000000	0.000000	0.000000
5.936519	21.136501	13.580582	0.002624	0.117843	3.428061	0.000000	-0.006545	0.000000	0.000004	0.000000	0.000000	0.000000
6.269852	21.140008	13.510315	-0.013146	0.092957	3.425879	0.000000	-0.006545	0.000000	0.000004	0.000000	0.000000	0.000000
6.604435	21.154102	13.456469	-0.028976	0.067978	3.423689	0.000000	-0.006545	0.000000	0.000004	0.000000	0.000000	0.000000
6.901758	21.175515	13.422646	-0.098369	0.080851	3.421743	0.000000	0.002395	0.000000	0.000004	0.000000	0.000000	0.000000
7.450818	20.922616	13.594568	0.556245	-0.395819	3.394857	0.000000	-0.100187	0.000000	0.000004	0.000000	0.000000	0.000000
7.999878	19.968293	14.302247	1.171569	-0.900682	3.312052	0.000000	-0.200993	0.000000	0.000005	0.000000	0.000000	0.000000
8.548938	18.379954	15.596090	1.704139	-1.469698	3.174797	0.000000	-0.298233	0.000000	0.000005	0.000000	0.000000	0.000000
9.097998	16.269791	17.568256	2.116338	-2.143398	2.985528	0.000000	-0.390184	0.000000	0.000005	-0.000000	0.000000	0.000000
9.543958	14.623438	19.325577	1.588494	-1.780483	2.829828	0.000000	-0.308476	0.000000	0.000005	0.000000	0.000000	0.000000
9.984918	13.425920	20.705862	1.137516	-1.337789	2.711050	0.000000	-0.230765	0.000000	0.000005	0.000000	0.000000	0.000000
10.425878	12.601795	21.667293	0.738507	-0.834227	2.625926	0.000000	-0.155683	0.000000	0.000005	0.000000	0.000000	0.000000
10.866838	12.113413	22.166124	0.373239	-0.292708	2.573490	0.000000	-0.082374	0.000000	0.000005	0.000000	0.000000	0.000000
11.309048	11.938323	22.179141	0.054193	0.207681	2.553121	0.000000	-0.016263	0.000000	0.000005	0.000001	0.000000	0.000000
11.606371	11.913524	22.059802	0.029215	0.193698	2.548286	0.000000	-0.016263	0.000000	0.000005	0.000001	0.000000	0.000000
12.086371	11.904834	21.884688	-0.011110	0.171122	2.540479	0.000000	-0.016263	0.000000	0.000005	0.000001	0.000000	0.000000
12.566371	11.934855	21.731247	-0.051434	0.148547	2.532673	0.000000	-0.016263	0.000000	0.000006	0.000001	0.000000	0.000000
13.046371	12.003588	21.599479	-0.091759	0.125971	2.524866	0.000000	-0.016263	0.000000	0.000006	0.000001	0.000000	0.000000
13.526371	12.111032	21.489382	-0.132084	0.103396	2.517059	0.000000	-0.016263	0.000000	0.000006	0.000001	0.000000	0.000000
14.007621	12.257620	21.400756	-0.172514	0.080762	2.509232	0.000000	-0.016263	0.000000	0.000006	0.000001	0.000000	0.000000
14.304943	12.367631	21.356889	-0.167164	0.014408	2.504397	0.000000	-0.022404	0.000000	0.000007	0.000000	0.000000	0.000000
14.745903	12.673660	21.110421	-0.529475	0.542402	2.510150	0.000000	0.048522	0.000000	0.000007	0.000001	0.000000	0.000000
15.186863	13.308638	20.407448	-0.915976	1.045717	2.547270	0.000000	0.120001	0.000000	0.000007	0.000001	0.000000	0.000000
15.627823	14.301574	19.279958	-1.344326	1.501453	2.616180	0.000000	0.192846	0.000000	0.000008	0.000001	0.000000	0.000000
16.068783	15.697833	17.779249	-1.834093	1.888874	2.717666	0.000000	0.267888	0.000000	0.000008	0.000001	0.000000	0.000000
16.514743	17.584861	15.952099	-2.412413	2.191099	2.854578	0.000000	0.346444	0.000000	0.000009	0.000001	0.000000	0.000000
17.063803	20.008393	13.911867	-1.975421	1.546698	3.021064	0.000000	0.259105	0.000000	0.000009	0.000001	0.000000	0.000000
17.612863	21.872128	12.514977	-1.398895	1.012466	3.138261	0.000000	0.167171	0.000000	0.000010	0.000001	0.000000	0.000000
18.161923	23.044422	11.661933	-0.723558	0.550350	3.204092	0.000000	0.072272	0.000000	0.000010	0.000001	0.000000	0.000000
18.710983	23.442471	11.291973	0.002887	0.127434	3.217388	0.000000	-0.023910	0.000000	0.000011	0.000000	0.000000	0.000000
19.009556	23.481135	11.206349	-0.071138	0.129842	3.212759	0.000000	-0.015504	0.000000	0.000011	0.000000	0.000000	0.000000
19.342889	23.533316	11.129870	-0.085406	0.099596	3.207591	0.000000	-0.015504	0.000000	0.000011	0.000000	0.000000	0.000000
19.676223	23.595009	11.073555	-0.099673	0.069349	3.202423	0.000000	-0.015504	0.000000	0.000011	0.000000	0.000000	0.000000
20.010806	23.666792	11.037169	-0.231253	0.093674	3.197255	0.000000	0.000337	0.000000	0.000011	0.000000	0.000000	0.000000
20.308129	23.808240	10.989546	-0.306688	0.095211	3.197355	0.000000	0.008690	0.000000	0.000011	0.000000	0.000000	0.000000
20.857189	23.734391	11.107290	0.440393	-0.310923	3.175905	0.000000	-0.086710	0.000000	0.000011	-0.000000	0.000000	0.000000
21.406249	22.852453	11.680490	1.156367	-0.739204	3.102420	0.000000	-0.180572	0.000000	0.000011	-0.000000	0.000000	0.000000
21.955309	21.224722	12.749973	1.790662	-1.220137	2.978203	0.000000	-0.271232	0.000000	0.000011	-0.000001	0.000000	0.000000
22.504369	18.966171	14.391916	2.298472	-1.787977	2.805459	0.000000	-0.357080	0.000000	0.000010	-0.000001	0.000000	0.000000
22.950329	17.186275	15.866021	1.706774	-1.503544	2.663511	0.000000	-0.279864	0.000000	0.000010	-0.000001	0.000000	0.000000
23.391289	15.910336	17.041288	1.197750	-1.151558	2.556426	0.000000	-0.206290	0.000000	0.000009	-0.000001	0.000000	0.000000
23.832249	15.057581	17.881752	0.743447	-0.747176	2.481235	0.000000	-0.135066	0.000000	0.000009	-0.000000	0.000000	0.000000
24.273209	14.589048	18.349173	0.323111	-0.308798	2.437083	0.000000	-0.065380	0.000000	0.000009	-0.000000	0.000000	0.000000
24.715418	14.483451	18.422038	-0.047035	0.098388	2.423463	0.000000	-0.002382	0.000000	0.000009	0.000000	0.000000	0.000000
25.012741	14.517537	18.368378	-0.067609	0.082092	2.422755	0.000000	-0.002382	0.000000	0.000009	0.000000	0.000000	0.000000
25.346075	14.570298	18.319739	-0.090675	0.063822	2.421961	0.000000	-0.002382	0.000000	0.000009	0.000000	0.000000	0.000000
25.679408	14.638437	18.283281	-0.113740	0.045553	2.421167	0.000000	-0.002382	0.000000	0.000009	0.000000	0.000000	0.000000
26.013991	14.721996	18.259304	-0.017458	-0.120913	2.420346	0.000000	-0.022017	0.000000	0.000009	0.000000	0.000000	0.000000
26.311314	14.738384	18.336117	-0.001520	-0.182396	2.413800	0.000000	-0.027936	0.000000	0.000009	-0.000000	0.000000	0.000000
26.752274	14.921316	18.298099	-0.414905	0.268283	2.416593	0.000000	0.040617	0.000000	0.000009	0.000000	0.000000	0.000000
27.193234	15.475771	17.866503	-0.847246	0.706757	2.449688	0.000000	0.109632	0.000000	0.000009	0.000000	0.000000	0.000000
27.634194	16.427079	17.060966	-1.318294	1.113073	2.513462	0.000000	0.179896	0.000000	0.000010	0.000001	0.000000	0.000000
28.075154	17.818702	15.918139	-1.849572	1.468745	2.608641	0.000000	0.252208	0.000000	0.000010	0.000001	0.000000	0.000000
28.521114	19.738400	14.472805	-2.470315	1.758503	2.737914	0.000000	0.327837	0.000000	0.000010	0.000001	0.000000	0.000000
29.070174	22.178347	12.862367	-1.947240	1.191893	2.895248	0.000000	0.244427	0.000000	0.000011	0.000001	0.000000	0.000000
29.619234	23.964505	11.824144	-1.286622	0.710178	3.005526	0.000000	0.156681	0.000000	0.000011	0.000001	0.000000	0.000000
30.168294	24.970709	11.284188	-0.535123	0.279047	3.066792	0.000000	0.066156	0.000000	0.000012	0.000000	0.000000	0.000000
30.717354	25.125885	11.204037	0.254174	-0.132207	3.077958	0.000000	-0.025542	0.000000	0.000011	-0.000000	0.000000	0.000000
31.015927	25.016979	11.273546	0.176226	-0.129867	3.072733	0.000000	-0.017501	0.000000	0.000011	-0.000000	0.000000	0.000000
31.349260	24.904075	11.370146	0.162488	-0.159934	3.066900	0.000000	-0.017501	0.000000	0.000011	-0.000000	0.000000	0.000000
31.682593	24.800329	11.486790	0.148750	-0.190000	3.061066	0.000000	-0.017501	0.000000	0.000011	-0.000000	0.000000	0.000000
32.017177	24.705404	11.624029	0.134960	-0.220179	3.055211	0.000000	-0.017501	0.000000	0.000011	-0.000000	0.000000	0.000000
32.314499	24.628794	11.762932	0.058362	-0.216266	3.050008	0.000000	-0.009532	0.000000	0.000011	-0.000000	0.000000	0.000000
32.863559	24.142758	12.239675	0.821612	-0.657150	3.019889	0.000000	-0.100018	0.000000	0.000011	-0.000001	0.000000	0.000000
33.412619	22.845645	13.223272	1.526829	-1.144842	2.940502	0.000000	-0.188729	0.000000	0.000011	-0.000001	0.000000	0.000000
33.961679	20.829074	14.783779	2.124197	-1.714078	2.813257	0.000000	-0.274093	0.000000	0.000010	-0.000001	0.000000	0.000000
34.510739	18.235489	17.032350	2.571523	-2.405404	2.640409	0.000000	-0.354596	0.000000	0.000009	-0.000002	0.000000	0.000000
34.956699	16.218913	19.043590	1.966553	-2.085676	2.498618	0.000000	-0.281659	0.000000	0.000009	-0.000001	0.000000	0.000000
35.397659	14.715214	20.706815	1.456440	-1.671798	2.389801	0.000000	-0.212359	0.000000	0.000008	-0.000001	0.000000	0.000000
35.838619	13.630463	21.969969	1.012868	-1.181854	2.310981	0.000000	-0.145477	0.000000	0.000008	-0.000001	0.000000	0.000000
36.279579	12.915100	22.775578	0.615570	-0.638137	2.261260	0.000000	-0.080252	0.000000	0.000007	-0.000001	0.000000	0.000000
36.721789	12.535752	23.087293	0.277030	-0.122052	2.240045	0.000000	-0.021434	0.000000	0.000007	-0.000001	0.000000	0.000000
37.019112	12.378610	23.163757	0.251491	-0.135122	2.233672	0.000000	-0.021434	0.000000	0.000007	-0.000001	0.000000	0.000000
37.352445	12.220493	23.258723	0.222860	-0.149775	2.226528	0.000000	-0.021434	0.000000	0.000007	-0.000001	0.000000	0.000000
37.685779	12.081463	23.363457	0.194229	-0.164428	2.219384	0.000000	-0.021434	0.000000	0.000007	-0.000001	0.000000	0.000000
38.020362	11.961107	23.478408	0.165490	-0.179136	2.212212	0.000000	-0.021434	0.000000	0.000006	-0.000001	0.000000	0.000000
38.317684	11.870293	23.588817	0.169060	-0.250050	2.205840	0.000000	-0.026843	0.000000	0.000006	-0.000001	0.000000	0.000000
38.758644	11.872555	23.548072	-0.174211	0.342098	2.207932	0.000000	0.036340	0.000000	0.000006	-0.000000	0.000000	0.000000
39.199604	12.179907	22.989996	-0.525440	0.918681	2.237950	0.000000	0.099936	0.000000	0.000006	-0.000000	0.000000	0.000000
39.640564	12.806391	21.939979	-0.900676	1.453464	2.296235	0.000000	0.164670	0.000000	0.000006	-0.000000	0.000000	0.000000
40.081524	13.780628	20.445797	-1.317060	1.922116	2.383451	0.000000	0.231280	0.000000	0.000006	0.000000	0.000000	0.000000
40.527484	15.164700	18.552864	-1.797444	2.304595	2.502064	0.000000	0.300930	0.000000	0.000006	0.000000	0.000000	0.000000
41.076544	16.931018	16.425717	-1.400499	1.592433	2.646761	0.000000	0.225366	0.000000	0.000006	0.000000	0.000000	0.000000
41.625604	18.204209	15.014109	-0.904630	0.993697	2.748809	0.000000	0.145805	0.000000	0.000006	-0.000000	0.000000	0.000000
42.174664	18.894341	14.217493	-0.344863	0.465739	2.806397	0.000000	0.063658	0.000000	0.000006	-0.000000	0.000000	0.000000
42.723724	18.952667	13.979129	0.239264	-0.029045	2.818506	0.000000	-0.019619	0.000000	0.000006	-0.000001	0.000000	0.000000
43.022297	18.844234	13.981040	0.173425	-0.013881	2.814847	0.000000	-0.012255	0.000000	0.000005	-0.000001	0.000000	0.000000
43.502297	18.690340	14.010849	0.147187	-0.048220	2.808965	0.000000	-0.012255	0.000000	0.000005	-0.000001	0.000000	0.000000
43.982297	18.561634	14.073623	0.120949	-0.082559	2.803083	0.000000	-0.012255	0.000000	0.000005	-0.000001	0.000000	0.000000
44.462297	18.458118	14.169362	0.094711	-0.116898	2.797201	0.000000	-0.012255	0.000000	0.000005	-0.000001	0.000000	0.000000
44.942297	18.379789	14.298066	0.068473	-0.151236	2.791319	0.000000	-0.012255	0.000000	0.000004	-0.000001	0.000000	0.000000
45.423547	18.326771	14.460021	-0.048634	-0.114021	2.785439	0.000000	0.001546	0.000000	0.000004	-0.000000	0.000000	0.000000
45.720870	18.360526	14.534016	-0.112867	-0.096877	2.785899	0.000000	0.008825	0.000000	0.000004	-0.000000	0.000000	0.000000
46.269930	18.175310	14.921523	0.448203	-0.613055	2.768171	0.000000	-0.073304	0.000000	0.000004	-0.000001	0.000000	0.000000
46.818990	17.387789	15.896366	0.977614	-1.172900	2.705641	0.000000	-0.154133	0.000000	0.000003	-0.000001	0.000000	0.000000
47.368050	16.053589	17.527979	1.437972	-1.816289	2.599418	0.000000	-0.232227	0.000000	0.000003	-0.000001	0.000000	0.000000
47.917110	14.266951	19.932579	1.796758	-2.589047	2.451385	0.000000	-0.306203	0.000000	0.000002	-0.000001	0.000000	0.000000
48.363070	12.876560	22.070510	1.332037	-2.184796	2.330124	0.000000	-0.237903	0.000000	0.000002	-0.000001	0.000000	0.000000
48.804030	11.882009	23.782308	0.931941	-1.682411	2.239678	0.000000	-0.172709	0.000000	0.000002	-0.000001	0.000000	0.000000
49.244990	11.220273	25.015466	0.574423	-1.103478	2.177520	0.000000	-0.109483	0.000000	0.000001	-0.000001	0.000000	0.000000
49.685950	10.861119	25.713877	0.243149	-0.474337	2.142941	0.000000	-0.047503	0.000000	0.000001	-0.000001	0.000000	0.000000
50.128160	10.788265	25.845481	-0.050678	0.112956	2.135559	0.000000	0.008699	0.000000	0.000001	-0.000001	0.000000	0.000000
50.425482	10.826615	25.781776	-0.078308	0.101306	2.138145	0.000000	0.008699	0.000000	0.000000	-0.000001	0.000000	0.000000
50.758816	10.889147	25.718593	-0.109285	0.088244	2.141045	0.000000	0.008699	0.000000	0.000000	-0.000001	0.000000	0.000000
51.092149	10.972329	25.664117	-0.140262	0.075182	2.143945	0.000000	0.008699	0.000000	-0.000000	-0.000001	0.000000	0.000000
51.426732	11.076367	25.618714	-0.081497	-0.145760	2.146833	0.000000	-0.008718	0.000000	-0.000000	-0.000001	0.000000	0.000000
51.724055	11.132863	25.708913	-0.081217	-0.220659	2.144242	0.000000	-0.013976	0.000000	-0.000000	-0.000001	0.000000	0.000000
52.165015	11.349839	25.617505	-0.412704	0.427163	2.151667	0.000000	0.047687	0.000000	-0.000001	-0.000001	0.000000	0.000000
52.605975	11.866338	24.961192	-0.763046	1.055548	2.186378	0.000000	0.109893	0.000000	-0.000001	-0.000001	0.000000	0.000000
53.046935	12.705958	23.769834	-1.148250	1.635907	2.248768	0.000000	0.173351	0.000000	-0.000001	-0.000001	0.000000	0.000000
53.487895	13.907057	22.097638	-1.585913	2.141834	2.339550	0.000000	0.238783	0.000000	-0.000002	-0.000001	0.000000	0.000000
53.933855	15.545100	19.995684	-2.100265	2.551645	2.461260	0.000000	0.307334	0.000000	-0.000002	-0.000001	0.000000	0.000000
54.482915	17.654016	17.630480	-1.717956	1.781515	2.609825	0.000000	0.233030	0.000000	-0.000003	-0.000001	0.000000	0.000000
55.031975	19.273587	16.036745	-1.214300	1.138279	2.716396	0.000000	0.154592	0.000000	-0.000003	-0.000001	0.000000	0.000000
55.581035	20.289415	15.100961	-0.624871	0.576120	2.779083	0.000000	0.073412	0.000000	-0.000003	-0.000001	0.000000	0.000000
56.130095	20.629747	14.756473	0.008695	0.054997	2.796774	0.000000	-0.009069	0.000000	-0.000004	-0.000000	0.000000	0.000000
56.428668	20.661073	14.706701	-0.059711	0.073144	2.796248	0.000000	-0.001762	0.000000	-0.000004	-0.000000	0.000000	0.000000
56.762001	20.706277	14.665534	-0.075902	0.050357	2.795661	0.000000	-0.001762	0.000000	-0.000004	-0.000000	0.000000	0.000000
57.095334	20.762275	14.639558	-0.092093	0.027571	2.795074	0.000000	-0.001762	0.000000	-0.000004	-0.000000	0.000000	0.000000
57.429918	20.829338	14.628762	-0.108344	0.004698	2.794484	0.000000	-0.001762	0.000000	-0.000004	-0.000000	0.000000	0.000000
57.727240	20.898058	14.632011	-0.177391	0.022606	2.793961	0.000000	0.005539	0.000000	-0.000005	-0.000001	0.000000	0.000000
58.276300	20.736312	14.888180	0.470234	-0.491919	2.774363	0.000000	-0.076821	0.000000	-0.000005	-0.000000	0.000000	0.000000
58.825360	19.877507	15.725169	1.084644	-1.041483	2.709853	0.000000	-0.157818	0.000000	-0.000005	-0.000000	0.000000	0.000000
59.374420	18.382304	17.202595	1.622440	-1.665228	2.601574	0.000000	-0.236016	0.000000	-0.000005	-0.000000	0.000000	0.000000
59.923480	16.356318	19.425691	2.045636	-2.407585	2.451448	0.000000	-0.310028	0.000000	-0.000005	0.000000	0.000000	0.000000
60.369440	14.770567	21.401621	1.522770	-2.004448	2.328477	0.000000	-0.241748	0.000000	-0.000005	-0.000000	0.000000	0.000000
60.810400	13.629962	22.957928	1.073683	-1.511483	2.236323	0.000000	-0.176619	0.000000	-0.000005	-0.000000	0.000000	0.000000
61.251360	12.862371	24.047378	0.673649	-0.949748	2.172419	0.000000	-0.113501	0.000000	-0.000005	-0.000000	0.000000	0.000000
61.692320	12.432724	24.620402	0.304392	-0.344799	2.136035	0.000000	-0.051677	0.000000	-0.000005	-0.000000	0.000000	0.000000
62.134530	12.321444	24.650389	-0.020843	0.215330	2.126764	0.000000	0.004344	0.000000	-0.000005	-0.000001	0.000000	0.000000
62.431853	12.341016	24.526097	-0.044984	0.202709	2.128055	0.000000	0.004344	0.000000	-0.000006	-0.000001	0.000000	0.000000
62.765186	12.380027	24.395673	-0.072049	0.188560	2.129503	0.000000	0.004344	0.000000	-0.000006	-0.000001	0.000000	0.000000
63.098520	12.437081	24.274683	-0.099114	0.174410	2.130952	0.000000	0.004344	0.000000	-0.000006	-0.000001	0.000000	0.000000
63.433103	12.512494	24.162726	-0.126280	0.160208	2.132405	0.000000	0.004344	0.000000	-0.000006	-0.000001	0.000000	0.000000
63.730426	12.594764	24.071211	-0.119533	0.088554	2.133697	0.000000	-0.000889	0.000000	-0.000006	-0.000001	0.000000	0.000000
64.171386	12.860557	23.728012	-0.485513	0.686784	2.146845	0.000000	0.060576	0.000000	-0.000006	-0.000001	0.000000	0.000000
64.612346	13.457639	22.869039	-0.873675	1.253766	2.187222	0.000000	0.122731	0.000000	-0.000007	-0.000001	0.000000	0.000000
65.053306	14.413291	21.533373	-1.301753	1.763703	2.255289	0.000000	0.186284	0.000000	-0.000007	-0.000001	0.000000	0.000000
65.494266	15.771172	19.781788	-1.789304	2.193392	2.351822	0.000000	0.251958	0.000000	-0.000008	-0.000001	0.000000	0.000000
65.940226	17.616484	17.669188	-2.363296	2.524039	2.479491	0.000000	0.320904	0.000000	-0.000008	-0.000001	0.000000	0.000000
66.489286	19.981957	15.305823	-1.919426	1.805753	2.635323	0.000000	0.245892	0.000000	-0.000009	-0.000001	0.000000	0.000000
67.038346	21.782221	13.656389	-1.339977	1.216086	2.748709	0.000000	0.166518	0.000000	-0.000010	-0.000001	0.000000	0.000000
67.587406	22.890114	12.603400	-0.665879	0.713038	2.817638	0.000000	0.084190	0.000000	-0.000010	-0.000001	0.000000	0.000000
68.136466	23.227381	12.071853	0.055253	0.260779	2.840886	0.000000	0.000369	0.000000	-0.000010	-0.000000	0.000000	0.000000
68.435038	23.234468	11.905309	-0.018295	0.265477	2.843213	0.000000	0.007792	0.000000	-0.000010	-0.000000	0.000000	0.000000
68.768372	23.251448	11.738315	-0.032647	0.235505	2.845811	0.000000	0.007792	0.000000	-0.000010	-0.000000	0.000000	0.000000
69.101705	23.277997	11.591303	-0.046998	0.205533	2.848408	0.000000	0.007792	0.000000	-0.000010	-0.000000	0.000000	0.000000
69.436288	23.314266	11.463833	-0.061403	0.175448	2.851015	0.000000	0.007792	0.000000	-0.000010	-0.000000	0.000000	0.000000
69.733611	23.354585	11.367452	-0.135231	0.178418	2.853332	0.000000	0.015248	0.000000	-0.000011	-0.000000	0.000000	0.000000
70.282671	23.101985	11.399155	0.592567	-0.236498	2.838523	0.000000	-0.069113	0.000000	-0.000011	0.000000	0.000000	0.000000
