#ParticleID	Turn	x[m]	xp	y[m]	yp	z[m]	dE[GeV]# s	beta_x	beta_y	alpha_x	alpha_y	D_x	D_y	D_px	D_py	orbit_x	orbit_px	orbit_y	orbit_py
0.300000	11.835192	24.937053	-0.013824	-0.027791	2.618363	0.000000	-0.000083	0.000000	-0.000000	0.000000	0.000000	0.000000
0.601250	11.851190	24.957439	-0.039282	-0.039881	2.618338	0.000000	-0.000083	0.000000	-0.000000	0.000000	0.000000	0.000000
0.898573	11.882020	24.984701	-0.035271	-0.113083	2.618313	0.000000	-0.006504	0.000000	-0.000000	0.000000	0.000000	0.000000
1.339533	12.065524	24.807329	-0.382453	0.513792	2.631739	0.000000	0.067458	0.000000	-0.000000	0.000000	0.000000	0.000000
1.780493	12.561733	24.085340	-0.747109	1.117290	2.677918	0.000000	0.142188	0.000000	-0.000000	0.000000	0.000000	0.000000
2.221453	13.393319	22.851583	-1.145898	1.669952	2.757375	0.000000	0.218537	0.000000	-0.000000	0.000000	0.000000	0.000000
2.662413	14.598273	21.162193	-1.597040	2.146633	2.871015	0.000000	0.297376	0.000000	-0.000000	0.000000	0.000000	0.000000
3.108373	16.252470	19.069257	-2.125448	2.526772	3.021994	0.000000	0.380091	0.000000	-0.000000	0.000000	0.000000	0.000000
3.657433	18.373645	16.718718	-1.714967	1.779522	3.205416	0.000000	0.287054	0.000000	-0.000000	0.000000	0.000000	0.000000
4.206493	19.974471	15.114749	-1.183349	1.159023	3.336279	0.000000	0.188925	0.000000	-0.000000	0.000000	0.000000	0.000000
4.755553	20.941873	14.143102	-0.568146	0.621078	3.412263	0.000000	0.087445	0.000000	-0.000000	0.000000	0.000000	0.000000
5.304613	21.207520	13.734570	0.087189	0.127371	3.432019	0.000000	-0.015586	0.000000	-0.000000	0.000000	0.000000	0.000000
5.603185	21.192752	13.643745	0.017685	0.140939	3.430043	0.000000	-0.006619	0.000000	-0.000000	0.000000	0.000000	0.000000
5.936519	21.186207	13.558092	0.001951	0.116022	3.427837	0.000000	-0.006619	0.000000	-0.000000	0.000000	0.000000	0.000000
6.269852	21.190150	13.489049	-0.013782	0.091106	3.425630	0.000000	-0.006619	0.000000	-0.000000	0.000000	0.000000	0.000000
6.604435	21.204657	13.436452	-0.029575	0.066096	3.423416	0.000000	-0.006619	0.000000	-0.000000	0.000000	0.000000	0.000000
6.901758	21.226416	13.403756	-0.099070	0.078893	3.421448	0.000000	0.002321	0.000000	-0.000000	0.000000	0.000000	0.000000
7.450818	20.973347	13.577541	0.557255	-0.397276	3.394523	0.000000	-0.100252	0.000000	-0.000000	0.000000	0.000000	0.000000
7.999878	20.017003	14.286594	1.174218	-0.901742	3.311686	0.000000	-0.201046	0.000000	-0.000000	0.000000	0.000000	0.000000
8.548938	18.424935	15.581419	1.708241	-1.470436	3.174406	0.000000	-0.298274	0.000000	-0.000000	0.000000	0.000000	0.000000
9.097998	16.309601	17.554244	2.121601	-2.143867	2.985118	0.000000	-0.390211	0.000000	-0.000000	0.000000	0.000000	0.000000
9.543958	14.659087	19.312215	1.592593	-1.781467	2.829403	0.000000	-0.308514	0.000000	-0.000000	0.000000	0.000000	0.000000
9.984918	13.458392	20.693578	1.140647	-1.339239	2.710605	0.000000	-0.230815	0.000000	-0.000000	0.000000	0.000000	0.000000
10.425878	12.631879	21.656469	0.740813	-0.836076	2.625458	0.000000	-0.155744	0.000000	-0.000000	0.000000	0.000000	0.000000
10.866838	12.141787	22.157077	0.374825	-0.294873	2.572991	0.000000	-0.082448	0.000000	0.000000	0.000000	0.000000	0.000000
11.309048	11.965585	22.172113	0.055201	0.205314	2.552587	0.000000	-0.016350	0.000000	0.000000	0.000000	0.000000	0.000000
11.606371	11.940171	22.054179	0.030277	0.191339	2.547726	0.000000	-0.016350	0.000000	0.000000	0.000000	0.000000	0.000000
12.086371	11.930419	21.881323	-0.009960	0.168777	2.539878	0.000000	-0.016350	0.000000	0.000000	0.000000	0.000000	0.000000
12.566371	11.959295	21.730127	-0.050198	0.146216	2.532030	0.000000	-0.016350	0.000000	0.000000	0.000000	0.000000	0.000000
13.046371	12.026798	21.600589	-0.090435	0.123654	2.524183	0.000000	-0.016350	0.000000	0.000000	0.000000	0.000000	0.000000
13.526371	12.132930	21.492710	-0.130672	0.101093	2.516335	0.000000	-0.016350	0.000000	0.000000	0.000000	0.000000	0.000000
14.007621	12.278116	21.406294	-0.171014	0.078473	2.508466	0.000000	-0.016350	0.000000	0.000000	0.000000	0.000000	0.000000
14.304943	12.387220	21.363786	-0.165561	0.012108	2.503605	0.000000	-0.022489	0.000000	0.000000	0.000000	0.000000	0.000000
14.745903	12.692014	21.119249	-0.528267	0.540339	2.509316	0.000000	0.048416	0.000000	0.000000	0.000000	0.000000	0.000000
15.186863	13.326079	20.417956	-0.915108	1.043985	2.546385	0.000000	0.119873	0.000000	0.000000	0.000000	0.000000	0.000000
15.627823	14.318383	19.291818	-1.343757	1.500131	2.615235	0.000000	0.192695	0.000000	0.000000	0.000000	0.000000	0.000000
16.068783	15.714263	17.792071	-1.833799	1.888022	2.716648	0.000000	0.267712	0.000000	0.000000	0.000000	0.000000	0.000000
16.514743	17.601146	15.965454	-2.412380	2.190760	2.853476	0.000000	0.346239	0.000000	0.000000	0.000000	0.000000	0.000000
17.063803	20.024244	13.925715	-1.974670	1.546133	3.019860	0.000000	0.258938	0.000000	0.000000	0.000000	0.000000	0.000000
17.612863	21.886780	12.529589	-1.397478	1.011633	3.136977	0.000000	0.167044	0.000000	0.000000	0.000000	0.000000	0.000000
18.161923	23.057196	11.677633	-0.721575	0.549190	3.202750	0.000000	0.072187	0.000000	0.000000	0.000000	0.000000	0.000000
18.710983	23.452819	11.309162	0.005296	0.125864	3.216013	0.000000	-0.023950	0.000000	0.000000	0.000000	0.000000	0.000000
19.009556	23.490061	11.224431	-0.068753	0.128375	3.211371	0.000000	-0.015547	0.000000	0.000000	0.000000	0.000000	0.000000
19.342889	23.540649	11.148910	-0.083010	0.098188	3.206188	0.000000	-0.015547	0.000000	0.000000	0.000000	0.000000	0.000000
19.676223	23.600742	11.093514	-0.097268	0.068001	3.201006	0.000000	-0.015547	0.000000	0.000000	0.000000	0.000000	0.000000
20.010806	23.670911	11.058010	-0.228858	0.092490	3.195824	0.000000	0.000287	0.000000	0.000000	0.000000	0.000000	0.000000
20.308129	23.810930	11.011074	-0.304289	0.094142	3.195909	0.000000	0.008637	0.000000	0.000000	0.000000	0.000000	0.000000
20.857189	23.734411	11.130329	0.442829	-0.312622	3.174442	0.000000	-0.086716	0.000000	0.000000	0.000000	0.000000	0.000000
21.406249	22.849856	11.705793	1.158669	-0.741654	3.100967	0.000000	-0.180531	0.000000	0.000000	0.000000	0.000000	0.000000
21.955309	21.219747	12.778456	1.792666	-1.223513	2.976786	0.000000	-0.271144	0.000000	0.000000	-0.000000	0.000000	0.000000
22.504369	18.959226	14.424721	2.300038	-1.792519	2.804102	0.000000	-0.356947	0.000000	0.000000	-0.000000	0.000000	0.000000
22.950329	17.177942	15.902560	1.708332	-1.507339	2.662205	0.000000	-0.279766	0.000000	0.000000	-0.000000	0.000000	0.000000
23.391289	15.900605	17.080780	1.199374	-1.154435	2.555155	0.000000	-0.206225	0.000000	0.000000	-0.000000	0.000000	0.000000
23.832249	15.046362	17.923327	0.745212	-0.749005	2.479986	0.000000	-0.135034	0.000000	0.000000	0.000000	0.000000	0.000000
24.273209	14.576183	18.391867	0.325096	-0.309496	2.435841	0.000000	-0.065380	0.000000	0.000000	0.000000	0.000000	0.000000
24.715418	14.468699	18.464834	-0.044773	0.098745	2.422214	0.000000	-0.002411	0.000000	0.000000	0.000000	0.000000	0.000000
25.012741	14.501445	18.410949	-0.065364	0.082486	2.421497	0.000000	-0.002411	0.000000	0.000000	0.000000	0.000000	0.000000
25.346075	14.552716	18.362035	-0.088448	0.064258	2.420693	0.000000	-0.002411	0.000000	0.000000	0.000000	0.000000	0.000000
25.679408	14.619376	18.325273	-0.111532	0.046029	2.419890	0.000000	-0.002411	0.000000	0.000000	0.000000	0.000000	0.000000
26.013991	14.701464	18.300964	-0.015436	-0.120734	2.419059	0.000000	-0.022036	0.000000	0.000000	0.000000	0.000000	0.000000
26.311314	14.716657	18.377659	0.000425	-0.182284	2.412507	0.000000	-0.027952	0.000000	0.000000	0.000000	0.000000	0.000000
26.752274	14.897633	18.339046	-0.412395	0.269517	2.415286	0.000000	0.040567	0.000000	0.000000	0.000000	0.000000	0.000000
27.193234	15.449583	17.905886	-0.844055	0.709056	2.448352	0.000000	0.109548	0.000000	0.000000	0.000000	0.000000	0.000000
27.634194	16.397725	17.097888	-1.314279	1.116333	2.512081	0.000000	0.179777	0.000000	0.000001	0.000000	0.000000	0.000000
28.075154	17.785377	15.951815	-1.844548	1.472818	2.607201	0.000000	0.252053	0.000000	0.000001	0.000000	0.000000	0.000000
28.521114	19.700053	14.502552	-2.464041	1.763205	2.736396	0.000000	0.327643	0.000000	0.000001	0.000000	0.000000	0.000000
29.070174	22.133608	12.887589	-1.941942	1.195479	2.893638	0.000000	0.244284	0.000000	0.000001	0.000000	0.000000	0.000000
29.619234	23.914658	11.845920	-1.282673	0.712905	3.003853	0.000000	0.156591	0.000000	0.000001	0.000000	0.000000	0.000000
30.168294	24.917399	11.303350	-0.532802	0.281109	3.065084	0.000000	0.066121	0.000000	0.000001	0.000000	0.000000	0.000000
30.717354	25.071002	11.221231	0.254702	-0.130664	3.076246	0.000000	-0.025521	0.000000	0.000001	0.000000	0.000000	0.000000
31.015927	24.961707	11.289775	0.176861	-0.128226	3.071026	0.000000	-0.017484	0.000000	0.000001	0.000000	0.000000	0.000000
31.349260	24.848390	11.385262	0.163090	-0.158237	3.065198	0.000000	-0.017484	0.000000	0.000001	0.000000	0.000000	0.000000
31.682593	24.744253	11.500757	0.149318	-0.188248	3.059370	0.000000	-0.017484	0.000000	0.000001	0.000000	0.000000	0.000000
32.017177	24.648960	11.636805	0.135495	-0.218371	3.053521	0.000000	-0.017484	0.000000	0.000001	0.000000	0.000000	0.000000
32.314499	24.572040	11.774617	0.059010	-0.214375	3.048322	0.000000	-0.009519	0.000000	0.000001	0.000000	0.000000	0.000000
32.863559	24.086332	12.249419	0.820370	-0.655485	3.018225	0.000000	-0.099950	0.000000	0.000001	-0.000000	0.000000	0.000000
33.412619	22.791587	13.231256	1.523784	-1.143285	2.938891	0.000000	-0.188609	0.000000	0.000001	-0.000000	0.000000	0.000000
33.961679	20.779258	14.790062	2.119565	-1.712517	2.811725	0.000000	-0.273922	0.000000	0.000001	-0.000000	0.000000	0.000000
34.510739	18.191485	17.036866	2.565631	-2.403729	2.638984	0.000000	-0.354376	0.000000	0.000001	-0.000000	0.000000	0.000000
34.956699	16.179566	19.046457	1.961970	-2.083667	2.497282	0.000000	-0.281475	0.000000	0.000001	-0.000000	0.000000	0.000000
35.397659	14.679416	20.707798	1.452945	-1.669550	2.388538	0.000000	-0.212208	0.000000	0.000001	-0.000000	0.000000	0.000000
35.838619	13.597328	21.968901	1.010301	-1.179470	2.309776	0.000000	-0.145358	0.000000	0.000001	-0.000000	0.000000	0.000000
36.279579	12.883864	22.772386	0.613816	-0.635725	2.260100	0.000000	-0.080164	0.000000	0.000001	-0.000000	0.000000	0.000000
36.721789	12.505738	23.081996	0.275935	-0.119712	2.238918	0.000000	-0.021373	0.000000	0.000001	-0.000000	0.000000	0.000000
37.019112	12.349261	23.157067	0.250350	-0.132778	2.232563	0.000000	-0.021373	0.000000	0.000001	-0.000000	0.000000	0.000000
37.352445	12.191923	23.250469	0.221666	-0.147426	2.225439	0.000000	-0.021373	0.000000	0.000001	-0.000000	0.000000	0.000000
37.685779	12.053707	23.353636	0.192982	-0.162074	2.218314	0.000000	-0.021373	0.000000	0.000001	-0.000000	0.000000	0.000000
38.020362	11.934203	23.467010	0.164190	-0.176778	2.211163	0.000000	-0.021373	0.000000	0.000001	-0.000000	0.000000	0.000000
38.317684	11.844175	23.576015	0.167651	-0.247658	2.204809	0.000000	-0.026780	0.000000	0.000000	-0.000000	0.000000	0.000000
38.758644	11.847421	23.533318	-0.175040	0.344117	2.206923	0.000000	0.036376	0.000000	0.000000	0.000000	0.000000	0.000000
39.199604	12.155264	22.973659	-0.525727	0.920236	2.236951	0.000000	0.099947	0.000000	0.000001	0.000000	0.000000	0.000000
39.640564	12.781767	21.922501	-0.900434	1.454485	2.295235	0.000000	0.164655	0.000000	0.000001	0.000000	0.000000	0.000000
40.081524	13.755554	20.427673	-1.316279	1.922556	2.382438	0.000000	0.231239	0.000000	0.000001	0.000000	0.000000	0.000000
40.527484	15.138674	18.534619	-1.796083	2.304429	2.501027	0.000000	0.300862	0.000000	0.000001	0.000000	0.000000	0.000000
41.076544	16.904022	16.407421	-1.400104	1.592694	2.645696	0.000000	0.225333	0.000000	0.000001	0.000000	0.000000	0.000000
41.625604	18.177325	14.995285	-0.905228	0.994402	2.747735	0.000000	0.145806	0.000000	0.000001	0.000000	0.000000	0.000000
42.174664	18.868643	14.197630	-0.346412	0.466939	2.805334	0.000000	0.063694	0.000000	0.000001	-0.000000	0.000000	0.000000
42.723724	18.929145	13.957638	0.236873	-0.027264	2.817471	0.000000	-0.019549	0.000000	0.000001	-0.000000	0.000000	0.000000
43.022297	18.822105	13.958529	0.171088	-0.012189	2.813832	0.000000	-0.012187	0.000000	0.000001	-0.000000	0.000000	0.000000
43.502297	18.670460	13.986739	0.144840	-0.046582	2.807982	0.000000	-0.012187	0.000000	0.000001	-0.000000	0.000000	0.000000
43.982297	18.544013	14.047966	0.118591	-0.080974	2.802132	0.000000	-0.012187	0.000000	0.000001	-0.000000	0.000000	0.000000
44.462297	18.442765	14.142210	0.092343	-0.115367	2.796282	0.000000	-0.012187	0.000000	0.000001	-0.000000	0.000000	0.000000
44.942297	18.366715	14.269471	0.066094	-0.149760	2.790432	0.000000	-0.012187	0.000000	0.000001	-0.000000	0.000000	0.000000
45.423547	18.315991	14.430030	-0.050970	-0.112747	2.784584	0.000000	0.001609	0.000000	0.000001	-0.000000	0.000000	0.000000
45.720870	18.351139	14.503278	-0.115193	-0.095719	2.785063	0.000000	0.008886	0.000000	0.000001	-0.000000	0.000000	0.000000
46.269930	18.168630	14.888992	0.445628	-0.610927	2.767376	0.000000	-0.073216	0.000000	0.000001	-0.000000	0.000000	0.000000
46.818990	17.383990	15.860898	0.974972	-1.169649	2.704901	0.000000	-0.154020	0.000000	0.000001	-0.000000	0.000000	0.000000
47.368050	16.052643	17.488223	1.435450	-1.811684	2.598745	0.000000	-0.232092	0.000000	0.000000	-0.000000	0.000000	0.000000
47.917110	14.268627	19.886878	1.794534	-2.582760	2.450792	0.000000	-0.306047	0.000000	0.000000	-0.000000	0.000000	0.000000
48.363070	12.880136	22.019625	1.329984	-2.179506	2.329597	0.000000	-0.237761	0.000000	0.000000	-0.000000	0.000000	0.000000
48.804030	11.887356	23.727285	0.929963	-1.678355	2.239210	0.000000	-0.172581	0.000000	0.000000	-0.000000	0.000000	0.000000
49.244990	11.227365	24.957480	0.572430	-1.100839	2.177106	0.000000	-0.109366	0.000000	0.000000	-0.000000	0.000000	0.000000
49.685950	10.870008	25.654236	0.241050	-0.473237	2.142576	0.000000	-0.047396	0.000000	0.000000	-0.000000	0.000000	0.000000
50.128160	10.799093	25.785570	-0.052952	0.112614	2.135238	0.000000	0.008798	0.000000	0.000000	-0.000000	0.000000	0.000000
50.425482	10.838790	25.722076	-0.080561	0.100938	2.137854	0.000000	0.008798	0.000000	0.000000	-0.000000	0.000000	0.000000
50.758816	10.902815	25.659148	-0.111515	0.087847	2.140787	0.000000	0.008798	0.000000	0.000000	-0.000000	0.000000	0.000000
51.092149	10.987476	25.604947	-0.142468	0.074755	2.143719	0.000000	0.008798	0.000000	0.000000	-0.000000	0.000000	0.000000
51.426732	11.092981	25.559838	-0.083544	-0.145739	2.146641	0.000000	-0.008617	0.000000	0.000000	-0.000000	0.000000	0.000000
51.724055	11.150685	25.650033	-0.083189	-0.220519	2.144079	0.000000	-0.013875	0.000000	0.000000	-0.000000	0.000000	0.000000
52.165015	11.369595	25.559191	-0.415133	0.425746	2.151548	0.000000	0.047784	0.000000	0.000000	-0.000000	0.000000	0.000000
52.605975	11.888478	24.904792	-0.766043	1.052640	2.186300	0.000000	0.109988	0.000000	0.000000	-0.000000	0.000000	0.000000
53.046935	12.731041	23.716611	-1.151952	1.631639	2.248732	0.000000	0.173444	0.000000	0.000000	-0.000000	0.000000	0.000000
53.487895	13.935777	22.048709	-1.590490	2.136401	2.339554	0.000000	0.238876	0.000000	0.000000	-0.000000	0.000000	0.000000
53.933855	15.578373	19.952034	-2.105934	2.545291	2.461306	0.000000	0.307427	0.000000	0.000000	-0.000000	0.000000	0.000000
54.482915	17.693090	17.592869	-1.722788	1.776804	2.609921	0.000000	0.233121	0.000000	0.000000	-0.000000	0.000000	0.000000
55.031975	19.317349	16.003564	-1.217954	1.134876	2.716541	0.000000	0.154679	0.000000	0.000000	-0.000000	0.000000	0.000000
55.581035	20.336420	15.070914	-0.627089	0.573782	2.779274	0.000000	0.073494	0.000000	0.000000	-0.000000	0.000000	0.000000
56.130095	20.678322	14.728489	0.008070	0.053557	2.797008	0.000000	-0.008994	0.000000	0.000000	-0.000000	0.000000	0.000000
56.428668	20.710086	14.679632	-0.060428	0.071596	2.796504	0.000000	-0.001686	0.000000	0.000000	-0.000000	0.000000	0.000000
56.762001	20.755756	14.639509	-0.076582	0.048772	2.795942	0.000000	-0.001686	0.000000	0.000000	-0.000000	0.000000	0.000000
57.095334	20.812195	14.614602	-0.092736	0.025949	2.795380	0.000000	-0.001686	0.000000	0.000000	-0.000000	0.000000	0.000000
57.429918	20.879676	14.604903	-0.108950	0.003040	2.794816	0.000000	-0.001686	0.000000	0.000000	-0.000000	0.000000	0.000000
57.727240	20.948746	14.609148	-0.178094	0.020853	2.794314	0.000000	0.005615	0.000000	0.000000	-0.000000	0.000000	0.000000
58.276300	20.786836	14.866889	0.471235	-0.493046	2.774755	0.000000	-0.076757	0.000000	0.000000	-0.000000	0.000000	0.000000
58.825360	19.926024	15.704810	1.087278	-1.042062	2.710276	0.000000	-0.157767	0.000000	0.000000	-0.000000	0.000000	0.000000
59.374420	18.427112	17.182592	1.626521	-1.665303	2.602021	0.000000	-0.235979	0.000000	0.000000	-0.000000	0.000000	0.000000
59.923480	16.395977	19.405497	2.050875	-2.407159	2.451911	0.000000	-0.310006	0.000000	0.000000	-0.000000	0.000000	0.000000
60.369440	14.806085	21.381335	1.526850	-2.004668	2.328953	0.000000	-0.241714	0.000000	0.000000	-0.000000	0.000000	0.000000
60.810400	13.662319	22.938117	1.076798	-1.512335	2.236817	0.000000	-0.176572	0.000000	0.000000	-0.000000	0.000000	0.000000
61.251360	12.892351	24.028584	0.675942	-0.951193	2.172936	0.000000	-0.113442	0.000000	-0.000000	-0.000000	0.000000	0.000000
61.692320	12.461004	24.603120	0.305968	-0.346771	2.136581	0.000000	-0.051603	0.000000	-0.000000	-0.000000	0.000000	0.000000
62.134530	12.348621	24.635053	-0.019846	0.212961	2.127345	0.000000	0.004431	0.000000	-0.000000	-0.000000	0.000000	0.000000
62.431853	12.367583	24.512168	-0.043933	0.200345	2.128662	0.000000	0.004431	0.000000	-0.000000	-0.000000	0.000000	0.000000
62.765186	12.405873	24.383319	-0.070937	0.186200	2.130139	0.000000	0.004431	0.000000	-0.000000	-0.000000	0.000000	0.000000
63.098520	12.462166	24.263901	-0.097941	0.172056	2.131616	0.000000	0.004431	0.000000	-0.000000	-0.000000	0.000000	0.000000
63.433103	12.536774	24.153517	-0.125047	0.157858	2.133099	0.000000	0.004431	0.000000	-0.000000	-0.000000	0.000000	0.000000
63.730426	12.618294	24.063399	-0.118190	0.086231	2.134416	0.000000	-0.000804	0.000000	-0.000000	-0.000000	0.000000	0.000000
64.171386	12.883128	23.722321	-0.484673	0.684315	2.147605	0.000000	0.060681	0.000000	-0.000000	-0.000000	0.000000	0.000000
64.612346	13.479677	22.865549	-0.873300	1.251263	2.188033	0.000000	0.122856	0.000000	-0.000000	-0.000000	0.000000	0.000000
65.053306	14.435195	21.532064	-1.301826	1.761279	2.256160	0.000000	0.186430	0.000000	-0.000000	-0.000000	0.000000	0.000000
65.494266	15.793339	19.782539	-1.789828	2.191159	2.352761	0.000000	0.252128	0.000000	-0.000000	-0.000000	0.000000	0.000000
65.940226	17.639329	17.671807	-2.364297	2.522101	2.480511	0.000000	0.321100	0.000000	-0.000000	-0.000000	0.000000	0.000000
66.489286	20.005421	15.310456	-1.919544	1.804002	2.636440	0.000000	0.246052	0.000000	-0.000000	-0.000000	0.000000	0.000000
67.038346	21.805324	13.662898	-1.339204	1.214398	2.749904	0.000000	0.166641	0.000000	-0.000000	-0.000000	0.000000	0.000000
67.587406	22.911901	12.611783	-0.664269	0.711293	2.818889	0.000000	0.084273	0.000000	-0.000000	-0.000000	0.000000	0.000000
68.136466	23.246990	12.082242	0.057587	0.258851	2.842172	0.000000	0.000411	0.000000	-0.000000	-0.000000	0.000000	0.000000
68.435038	23.252708	11.916820	-0.015997	0.263624	2.844512	0.000000	0.007837	0.000000	-0.000000	-0.000000	0.000000	0.000000
68.768372	23.268153	11.751042	-0.030336	0.233708	2.847124	0.000000	0.007837	0.000000	-0.000000	-0.000000	0.000000	0.000000
69.101705	23.293156	11.605209	-0.044675	0.203793	2.849736	0.000000	0.007837	0.000000	-0.000000	-0.000000	0.000000	0.000000
69.436288	23.327867	11.478884	-0.059068	0.173765	2.852359	0.000000	0.007837	0.000000	-0.000000	-0.000000	0.000000	0.000000
69.733611	23.366794	11.383490	-0.132911	0.176824	2.854689	0.000000	0.015296	0.000000	-0.000000	-0.000000	0.000000	0.000000
70.282671	23.111446	11.417195	0.595222	-0.238573	2.839894	0.000000	-0.069109	0.000000	-0.000000	-0.000000	0.000000	0.000000
