#ParticleID	Turn	x[m]	xp	y[m]	yp	z[m]	dE[GeV]# s	beta_x	beta_y	alpha_x	alpha_y	D_x	D_y	D_px	D_py	orbit_x	orbit_px	orbit_y	orbit_py
0.300000	11.819163	24.996247	-0.011689	-0.027474	2.618105	0.000000	0.000015	0.000000	-0.000000	0.000001	0.000000	0.000000
0.601250	11.833885	25.016434	-0.037180	-0.039534	2.618110	0.000000	0.000015	0.000000	0.000000	0.000001	0.000000	0.000000
0.898573	11.863475	25.043482	-0.033247	-0.112852	2.618114	0.000000	-0.006405	0.000000	0.000000	0.000001	0.000000	0.000000
1.339533	12.044991	24.865220	-0.379955	0.515571	2.631582	0.000000	0.067552	0.000000	0.000001	0.000001	0.000000	0.000000
1.780493	12.538747	24.141007	-0.744021	1.120536	2.677802	0.000000	0.142279	0.000000	0.000001	0.000001	0.000000	0.000000
2.221453	13.367299	22.903792	-1.142080	1.674517	2.757298	0.000000	0.218626	0.000000	0.000001	0.000001	0.000000	0.000000
2.662413	14.568501	21.209869	-1.592317	2.152309	2.870977	0.000000	0.297463	0.000000	0.000002	0.000001	0.000000	0.000000
3.108373	16.217999	19.111466	-2.119595	2.533304	3.021994	0.000000	0.380178	0.000000	0.000002	0.000001	0.000000	0.000000
3.657433	18.333188	16.754686	-1.709983	1.784424	3.205462	0.000000	0.287140	0.000000	0.000002	0.000001	0.000000	0.000000
4.206493	19.929183	15.146064	-1.179586	1.162644	3.336371	0.000000	0.189008	0.000000	0.000003	0.000001	0.000000	0.000000
4.755553	20.893251	14.171023	-0.565870	0.623676	3.412400	0.000000	0.087525	0.000000	0.000003	0.000001	0.000000	0.000000
5.304613	21.157293	13.760112	0.087818	0.129131	3.432198	0.000000	-0.015511	0.000000	0.000003	0.000000	0.000000	0.000000
5.603185	21.142080	13.668189	0.018412	0.142793	3.430244	0.000000	-0.006544	0.000000	0.000004	0.000001	0.000000	0.000000
5.936519	21.135063	13.581288	0.002640	0.117908	3.428063	0.000000	-0.006544	0.000000	0.000004	0.000001	0.000000	0.000000
6.269852	21.138560	13.510977	-0.013131	0.093024	3.425881	0.000000	-0.006544	0.000000	0.000004	0.000001	0.000000	0.000000
6.604435	21.152644	13.457086	-0.028962	0.068046	3.423692	0.000000	-0.006544	0.000000	0.000004	0.000001	0.000000	0.000000
6.901758	21.174048	13.423223	-0.098352	0.080920	3.421746	0.000000	0.002396	0.000000	0.000004	0.000001	0.000000	0.000000
7.450818	20.921158	13.595077	0.556213	-0.395764	3.394860	0.000000	-0.100187	0.000000	0.000004	0.000000	0.000000	0.000000
7.999878	19.966897	14.302702	1.171490	-0.900638	3.312055	0.000000	-0.200992	0.000000	0.000005	0.000000	0.000000	0.000000
8.548938	18.378668	15.596503	1.704019	-1.469662	3.174801	0.000000	-0.298233	0.000000	0.000005	0.000000	0.000000	0.000000
9.097998	16.268657	17.568632	2.116184	-2.143368	2.985531	0.000000	-0.390183	0.000000	0.000005	-0.000000	0.000000	0.000000
9.543958	14.622425	19.325919	1.588374	-1.780437	2.829832	0.000000	-0.308475	0.000000	0.000005	0.000000	0.000000	0.000000
9.984918	13.425000	20.706159	1.137424	-1.337730	2.711053	0.000000	-0.230765	0.000000	0.000005	0.000000	0.000000	0.000000
10.425878	12.600946	21.667533	0.738439	-0.834158	2.625930	0.000000	-0.155682	0.000000	0.000005	0.000000	0.000000	0.000000
10.866838	12.112614	22.166300	0.373191	-0.292632	2.573494	0.000000	-0.082373	0.000000	0.000005	0.000000	0.000000	0.000000
11.309048	11.937559	22.179247	0.054161	0.207761	2.553126	0.000000	-0.016263	0.000000	0.000005	0.000001	0.000000	0.000000
11.606371	11.912779	22.059861	0.029182	0.193777	2.548290	0.000000	-0.016263	0.000000	0.000005	0.000001	0.000000	0.000000
12.086371	11.904122	21.884671	-0.011145	0.171201	2.540484	0.000000	-0.016263	0.000000	0.000006	0.000001	0.000000	0.000000
12.566371	11.934178	21.731155	-0.051473	0.148625	2.532678	0.000000	-0.016263	0.000000	0.000006	0.000001	0.000000	0.000000
13.046371	12.002949	21.599311	-0.091800	0.126049	2.524872	0.000000	-0.016263	0.000000	0.000006	0.000001	0.000000	0.000000
13.526371	12.110434	21.489141	-0.132127	0.103473	2.517065	0.000000	-0.016263	0.000000	0.000006	0.000001	0.000000	0.000000
14.007621	12.257064	21.400441	-0.172559	0.080838	2.509239	0.000000	-0.016263	0.000000	0.000007	0.000001	0.000000	0.000000
14.304943	12.367102	21.356529	-0.167213	0.014485	2.504403	0.000000	-0.022404	0.000000	0.000007	0.000001	0.000000	0.000000
14.745903	12.673170	21.109997	-0.529513	0.542468	2.510156	0.000000	0.048523	0.000000	0.000007	0.000001	0.000000	0.000000
15.186863	13.308177	20.406973	-0.916005	1.045768	2.547277	0.000000	0.120002	0.000000	0.000007	0.000001	0.000000	0.000000
15.627823	14.301135	19.279444	-1.344347	1.501487	2.616188	0.000000	0.192848	0.000000	0.000008	0.000001	0.000000	0.000000
16.068783	15.697410	17.778713	-1.834109	1.888890	2.717674	0.000000	0.267890	0.000000	0.000008	0.000001	0.000000	0.000000
16.514743	17.584450	15.951557	-2.412423	2.191096	2.854587	0.000000	0.346446	0.000000	0.000009	0.000002	0.000000	0.000000
17.063803	20.008002	13.911322	-1.975450	1.546707	3.021074	0.000000	0.259107	0.000000	0.000010	0.000001	0.000000	0.000000
17.612863	21.871779	12.514417	-1.398941	1.012486	3.138272	0.000000	0.167172	0.000000	0.000010	0.000001	0.000000	0.000000
18.161923	23.044131	11.661344	-0.723618	0.550383	3.204103	0.000000	0.072272	0.000000	0.000011	0.000001	0.000000	0.000000
18.710983	23.442251	11.291339	0.002818	0.127482	3.217399	0.000000	-0.023910	0.000000	0.000011	0.000000	0.000000	0.000000
19.009556	23.480956	11.205688	-0.071207	0.129887	3.212770	0.000000	-0.015504	0.000000	0.000011	0.000000	0.000000	0.000000
19.342889	23.533183	11.129179	-0.085475	0.099639	3.207602	0.000000	-0.015504	0.000000	0.000011	0.000000	0.000000	0.000000
19.676223	23.594923	11.072836	-0.099743	0.069390	3.202434	0.000000	-0.015504	0.000000	0.000011	0.000000	0.000000	0.000000
20.010806	23.666752	11.036425	-0.231322	0.093709	3.197267	0.000000	0.000337	0.000000	0.000011	0.000000	0.000000	0.000000
20.308129	23.808242	10.988781	-0.306758	0.095241	3.197367	0.000000	0.008691	0.000000	0.000011	0.000000	0.000000	0.000000
20.857189	23.734469	11.106480	0.440325	-0.310870	3.175917	0.000000	-0.086710	0.000000	0.000011	-0.000000	0.000000	0.000000
21.406249	22.852603	11.679607	1.156305	-0.739125	3.102431	0.000000	-0.180573	0.000000	0.000011	-0.000000	0.000000	0.000000
21.955309	21.224933	12.748987	1.790610	-1.220026	2.978215	0.000000	-0.271232	0.000000	0.000011	-0.000001	0.000000	0.000000
22.504369	18.966432	14.390787	2.298436	-1.787827	2.805470	0.000000	-0.357081	0.000000	0.000010	-0.000001	0.000000	0.000000
22.950329	17.186568	15.864770	1.706735	-1.503421	2.663522	0.000000	-0.279865	0.000000	0.000010	-0.000001	0.000000	0.000000
23.391289	15.910665	17.039941	1.197708	-1.151466	2.556436	0.000000	-0.206291	0.000000	0.000010	-0.000001	0.000000	0.000000
23.832249	15.057949	17.880340	0.743400	-0.747120	2.481245	0.000000	-0.135066	0.000000	0.000009	-0.000000	0.000000	0.000000
24.273209	14.589461	18.347728	0.323057	-0.308781	2.437093	0.000000	-0.065380	0.000000	0.000009	-0.000000	0.000000	0.000000
24.715418	14.483916	18.420596	-0.047099	0.098370	2.423473	0.000000	-0.002381	0.000000	0.000009	0.000000	0.000000	0.000000
25.012741	14.518039	18.366946	-0.067672	0.082073	2.422765	0.000000	-0.002381	0.000000	0.000009	0.000000	0.000000	0.000000
25.346075	14.570842	18.318321	-0.090737	0.063802	2.421971	0.000000	-0.002381	0.000000	0.000009	0.000000	0.000000	0.000000
25.679408	14.639022	18.281877	-0.113802	0.045531	2.421178	0.000000	-0.002381	0.000000	0.000009	0.000000	0.000000	0.000000
26.013991	14.722622	18.257916	-0.017514	-0.120925	2.420356	0.000000	-0.022017	0.000000	0.000009	0.000000	0.000000	0.000000
26.311314	14.739043	18.334736	-0.001574	-0.182406	2.413810	0.000000	-0.027936	0.000000	0.000009	-0.000000	0.000000	0.000000
26.752274	14.922031	18.296744	-0.414976	0.268236	2.416603	0.000000	0.040617	0.000000	0.000009	0.000000	0.000000	0.000000
27.193234	15.476556	17.865205	-0.847337	0.706674	2.449699	0.000000	0.109633	0.000000	0.000010	0.000000	0.000000	0.000000
27.634194	16.427955	17.059754	-1.318410	1.112959	2.513473	0.000000	0.179897	0.000000	0.000010	0.000001	0.000000	0.000000
28.075154	17.819693	15.917039	-1.849717	1.468605	2.608653	0.000000	0.252210	0.000000	0.000010	0.000001	0.000000	0.000000
28.521114	19.739535	14.471840	-2.470497	1.758344	2.737926	0.000000	0.327839	0.000000	0.000011	0.000001	0.000000	0.000000
29.070174	22.179667	12.861555	-1.947393	1.191770	2.895261	0.000000	0.244428	0.000000	0.000011	0.000001	0.000000	0.000000
29.619234	23.965972	11.823451	-1.286734	0.710083	3.005540	0.000000	0.156682	0.000000	0.000012	0.000001	0.000000	0.000000
30.168294	24.972273	11.283586	-0.535188	0.278974	3.066806	0.000000	0.066157	0.000000	0.000012	0.000000	0.000000	0.000000
30.717354	25.127492	11.203506	0.254162	-0.132264	3.077972	0.000000	-0.025542	0.000000	0.000012	-0.000000	0.000000	0.000000
31.015927	25.018595	11.273051	0.176211	-0.129927	3.072747	0.000000	-0.017501	0.000000	0.000012	-0.000000	0.000000	0.000000
31.349260	24.905700	11.369691	0.162474	-0.159995	3.066913	0.000000	-0.017501	0.000000	0.000012	-0.000000	0.000000	0.000000
31.682593	24.801963	11.486378	0.148737	-0.190064	3.061080	0.000000	-0.017501	0.000000	0.000012	-0.000000	0.000000	0.000000
32.017177	24.707047	11.623660	0.134948	-0.220245	3.055224	0.000000	-0.017501	0.000000	0.000012	-0.000000	0.000000	0.000000
32.314499	24.630444	11.762601	0.058346	-0.216334	3.050021	0.000000	-0.009532	0.000000	0.000012	-0.000000	0.000000	0.000000
32.863559	24.144395	12.239416	0.821652	-0.657213	3.019902	0.000000	-0.100018	0.000000	0.000011	-0.000001	0.000000	0.000000
33.412619	22.847209	13.223080	1.526920	-1.144903	2.940515	0.000000	-0.188730	0.000000	0.000011	-0.000001	0.000000	0.000000
33.961679	20.830512	14.783656	2.124334	-1.714143	2.813269	0.000000	-0.274095	0.000000	0.000010	-0.000001	0.000000	0.000000
34.510739	18.236755	17.032301	2.571696	-2.405477	2.640421	0.000000	-0.354597	0.000000	0.000010	-0.000002	0.000000	0.000000
34.956699	16.220043	19.043610	1.966688	-2.085758	2.498628	0.000000	-0.281661	0.000000	0.000009	-0.000001	0.000000	0.000000
35.397659	14.716239	20.706910	1.456544	-1.671885	2.389811	0.000000	-0.212360	0.000000	0.000008	-0.000001	0.000000	0.000000
35.838619	13.631409	21.970141	1.012944	-1.181942	2.310990	0.000000	-0.145478	0.000000	0.000008	-0.000001	0.000000	0.000000
36.279579	12.915989	22.775827	0.615623	-0.638222	2.261269	0.000000	-0.080252	0.000000	0.000008	-0.000001	0.000000	0.000000
36.721789	12.536603	23.087615	0.277064	-0.122132	2.240054	0.000000	-0.021434	0.000000	0.000007	-0.000001	0.000000	0.000000
37.019112	12.379441	23.164126	0.251527	-0.135202	2.233681	0.000000	-0.021434	0.000000	0.000007	-0.000001	0.000000	0.000000
37.352445	12.221299	23.259145	0.222897	-0.149855	2.226537	0.000000	-0.021434	0.000000	0.000007	-0.000001	0.000000	0.000000
37.685779	12.082244	23.363932	0.194267	-0.164508	2.219392	0.000000	-0.021434	0.000000	0.000007	-0.000001	0.000000	0.000000
38.020362	11.961862	23.478937	0.165530	-0.179216	2.212221	0.000000	-0.021434	0.000000	0.000007	-0.000001	0.000000	0.000000
38.317684	11.871023	23.589393	0.169103	-0.250131	2.205848	0.000000	-0.026843	0.000000	0.000006	-0.000001	0.000000	0.000000
38.758644	11.873255	23.548713	-0.174184	0.342033	2.207940	0.000000	0.036339	0.000000	0.000006	-0.000000	0.000000	0.000000
39.199604	12.180590	22.990685	-0.525428	0.918635	2.237958	0.000000	0.099936	0.000000	0.000006	-0.000000	0.000000	0.000000
39.640564	12.807070	21.940699	-0.900678	1.453440	2.296243	0.000000	0.164671	0.000000	0.000006	-0.000000	0.000000	0.000000
40.081524	13.781315	20.446528	-1.317077	1.922115	2.383459	0.000000	0.231281	0.000000	0.000006	0.000000	0.000000	0.000000
40.527484	15.165409	18.553586	-1.797476	2.304616	2.502072	0.000000	0.300930	0.000000	0.000006	0.000000	0.000000	0.000000
41.076544	16.931749	16.426427	-1.400505	1.592436	2.646769	0.000000	0.225366	0.000000	0.000006	0.000000	0.000000	0.000000
41.625604	18.204932	15.014825	-0.904609	0.993681	2.748817	0.000000	0.145805	0.000000	0.000006	-0.000000	0.000000	0.000000
42.174664	18.895026	14.218237	-0.344816	0.465705	2.806406	0.000000	0.063658	0.000000	0.000006	-0.000000	0.000000	0.000000
42.723724	18.953288	13.979922	0.239333	-0.029101	2.818514	0.000000	-0.019619	0.000000	0.000006	-0.000001	0.000000	0.000000
43.022297	18.844814	13.981866	0.173493	-0.013934	2.814855	0.000000	-0.012255	0.000000	0.000006	-0.000001	0.000000	0.000000
43.502297	18.690855	14.011724	0.147255	-0.048271	2.808973	0.000000	-0.012255	0.000000	0.000005	-0.000001	0.000000	0.000000
43.982297	18.562084	14.074546	0.121017	-0.082608	2.803090	0.000000	-0.012255	0.000000	0.000005	-0.000001	0.000000	0.000000
44.462297	18.458501	14.170332	0.094780	-0.116945	2.797208	0.000000	-0.012255	0.000000	0.000005	-0.000001	0.000000	0.000000
44.942297	18.380107	14.299081	0.068542	-0.151282	2.791326	0.000000	-0.012255	0.000000	0.000005	-0.000001	0.000000	0.000000
45.423547	18.327022	14.461078	-0.048567	-0.114059	2.785445	0.000000	0.001545	0.000000	0.000004	-0.000001	0.000000	0.000000
45.720870	18.360737	14.535095	-0.112800	-0.096910	2.785905	0.000000	0.008824	0.000000	0.000004	-0.000000	0.000000	0.000000
46.269930	18.175444	14.922658	0.448276	-0.613123	2.768177	0.000000	-0.073305	0.000000	0.000004	-0.000001	0.000000	0.000000
46.818990	17.387842	15.897596	0.977687	-1.173007	2.705647	0.000000	-0.154134	0.000000	0.000004	-0.000001	0.000000	0.000000
47.368050	16.053565	17.529350	1.438040	-1.816441	2.599423	0.000000	-0.232229	0.000000	0.000003	-0.000001	0.000000	0.000000
47.917110	14.266858	19.934148	1.796816	-2.589257	2.451390	0.000000	-0.306204	0.000000	0.000003	-0.000001	0.000000	0.000000
48.363070	12.876417	22.072252	1.332091	-2.184971	2.330128	0.000000	-0.237904	0.000000	0.000002	-0.000001	0.000000	0.000000
48.804030	11.881819	23.784186	0.931994	-1.682544	2.239682	0.000000	-0.172710	0.000000	0.000002	-0.000001	0.000000	0.000000
49.244990	11.220036	25.017439	0.574477	-1.103561	2.177523	0.000000	-0.109484	0.000000	0.000001	-0.000001	0.000000	0.000000
49.685950	10.860832	25.715901	0.243207	-0.474368	2.142944	0.000000	-0.047504	0.000000	0.000001	-0.000001	0.000000	0.000000
50.128160	10.787924	25.847508	-0.050614	0.112974	2.135561	0.000000	0.008698	0.000000	0.000001	-0.000001	0.000000	0.000000
50.425482	10.826237	25.783793	-0.078245	0.101324	2.138147	0.000000	0.008698	0.000000	0.000001	-0.000001	0.000000	0.000000
50.758816	10.888726	25.720597	-0.109223	0.088264	2.141047	0.000000	0.008698	0.000000	0.000000	-0.000001	0.000000	0.000000
51.092149	10.971867	25.666108	-0.140201	0.075203	2.143946	0.000000	0.008698	0.000000	0.000000	-0.000001	0.000000	0.000000
51.426732	11.075864	25.620691	-0.081440	-0.145754	2.146835	0.000000	-0.008719	0.000000	-0.000000	-0.000001	0.000000	0.000000
51.724055	11.132326	25.710886	-0.081163	-0.220657	2.144243	0.000000	-0.013977	0.000000	-0.000000	-0.000001	0.000000	0.000000
52.165015	11.349249	25.619454	-0.412636	0.427216	2.151668	0.000000	0.047686	0.000000	-0.000001	-0.000001	0.000000	0.000000
52.605975	11.865681	24.963071	-0.762961	1.055652	2.186378	0.000000	0.109892	0.000000	-0.000001	-0.000001	0.000000	0.000000
53.046935	12.705217	23.771602	-1.148144	1.636056	2.248769	0.000000	0.173350	0.000000	-0.000001	-0.000001	0.000000	0.000000
53.487895	13.906213	22.099258	-1.585783	2.142020	2.339549	0.000000	0.238782	0.000000	-0.000002	-0.000001	0.000000	0.000000
53.933855	15.544125	19.997124	-2.100102	2.551861	2.461260	0.000000	0.307333	0.000000	-0.000002	-0.000001	0.000000	0.000000
54.482915	17.652876	17.631714	-1.717819	1.781677	2.609824	0.000000	0.233029	0.000000	-0.000003	-0.000001	0.000000	0.000000
55.031975	19.272314	16.037827	-1.214197	1.138397	2.716395	0.000000	0.154591	0.000000	-0.000003	-0.000001	0.000000	0.000000
55.581035	20.288052	15.101933	-0.624810	0.576203	2.779081	0.000000	0.073412	0.000000	-0.000003	-0.000001	0.000000	0.000000
56.130095	20.628342	14.757370	0.008710	0.055051	2.796771	0.000000	-0.009070	0.000000	-0.000004	-0.000001	0.000000	0.000000
56.428668	20.659657	14.707565	-0.059693	0.073201	2.796245	0.000000	-0.001762	0.000000	-0.000004	-0.000001	0.000000	0.000000
56.762001	20.704850	14.666360	-0.075885	0.050415	2.795658	0.000000	-0.001762	0.000000	-0.000004	-0.000001	0.000000	0.000000
57.095334	20.760838	14.640344	-0.092077	0.027630	2.795071	0.000000	-0.001762	0.000000	-0.000004	-0.000001	0.000000	0.000000
57.429918	20.827891	14.629508	-0.108330	0.004759	2.794481	0.000000	-0.001762	0.000000	-0.000004	-0.000001	0.000000	0.000000
57.727240	20.896603	14.632721	-0.177374	0.022669	2.793958	0.000000	0.005538	0.000000	-0.000005	-0.000001	0.000000	0.000000
58.276300	20.734865	14.888831	0.470202	-0.491875	2.774360	0.000000	-0.076822	0.000000	-0.000005	-0.000000	0.000000	0.000000
58.825360	19.876121	15.725781	1.084566	-1.041454	2.709849	0.000000	-0.157819	0.000000	-0.000005	-0.000000	0.000000	0.000000
59.374420	18.381028	17.203183	1.622321	-1.665214	2.601570	0.000000	-0.236016	0.000000	-0.000005	-0.000000	0.000000	0.000000
59.923480	16.355191	19.426271	2.045484	-2.407583	2.451444	0.000000	-0.310028	0.000000	-0.000005	0.000000	0.000000	0.000000
60.369440	14.769561	21.402191	1.522652	-2.004427	2.328473	0.000000	-0.241748	0.000000	-0.000005	-0.000000	0.000000	0.000000
60.810400	13.629048	22.958471	1.073591	-1.511444	2.236319	0.000000	-0.176619	0.000000	-0.000005	-0.000000	0.000000	0.000000
61.251360	12.861527	24.047879	0.673581	-0.949691	2.172414	0.000000	-0.113502	0.000000	-0.000005	-0.000000	0.000000	0.000000
61.692320	12.431931	24.620846	0.304344	-0.344728	2.136030	0.000000	-0.051677	0.000000	-0.000005	-0.000000	0.000000	0.000000
62.134530	12.320686	24.650766	-0.020874	0.215411	2.126759	0.000000	0.004343	0.000000	-0.000006	-0.000001	0.000000	0.000000
62.431853	12.340276	24.526425	-0.045017	0.202790	2.128050	0.000000	0.004343	0.000000	-0.000006	-0.000001	0.000000	0.000000
62.765186	12.379310	24.395949	-0.072083	0.188640	2.129498	0.000000	0.004343	0.000000	-0.000006	-0.000001	0.000000	0.000000
63.098520	12.436388	24.274905	-0.099150	0.174490	2.130946	0.000000	0.004343	0.000000	-0.000006	-0.000001	0.000000	0.000000
63.433103	12.511826	24.162894	-0.126318	0.160288	2.132399	0.000000	0.004343	0.000000	-0.000006	-0.000001	0.000000	0.000000
63.730426	12.594118	24.071332	-0.119574	0.088633	2.133691	0.000000	-0.000889	0.000000	-0.000006	-0.000001	0.000000	0.000000
64.171386	12.859941	23.728063	-0.485541	0.686864	2.146838	0.000000	0.060575	0.000000	-0.000007	-0.000001	0.000000	0.000000
64.612346	13.457043	22.869020	-0.873691	1.253844	2.187215	0.000000	0.122730	0.000000	-0.000007	-0.000001	0.000000	0.000000
65.053306	14.412702	21.533288	-1.301757	1.763774	2.255282	0.000000	0.186283	0.000000	-0.000007	-0.000001	0.000000	0.000000
65.494266	15.770581	19.781643	-1.789296	2.193455	2.351814	0.000000	0.251957	0.000000	-0.000008	-0.000001	0.000000	0.000000
65.940226	17.615880	17.668993	-2.363276	2.524089	2.479482	0.000000	0.320903	0.000000	-0.000009	-0.000001	0.000000	0.000000
66.489286	19.981345	15.305575	-1.919430	1.805801	2.635314	0.000000	0.245890	0.000000	-0.000009	-0.000001	0.000000	0.000000
67.038346	21.781626	13.656088	-1.340005	1.216135	2.748700	0.000000	0.166517	0.000000	-0.000010	-0.000001	0.000000	0.000000
67.587406	22.889562	12.603042	-0.665928	0.713092	2.817628	0.000000	0.084189	0.000000	-0.000010	-0.000001	0.000000	0.000000
68.136466	23.226893	12.071433	0.055186	0.260841	2.840876	0.000000	0.000369	0.000000	-0.000010	-0.000000	0.000000	0.000000
68.435038	23.234019	11.904854	-0.018362	0.265536	2.843202	0.000000	0.007792	0.000000	-0.000011	-0.000000	0.000000	0.000000
68.768372	23.251045	11.737821	-0.032714	0.235562	2.845800	0.000000	0.007792	0.000000	-0.000011	-0.000000	0.000000	0.000000
69.101705	23.277638	11.590772	-0.047065	0.205587	2.848397	0.000000	0.007792	0.000000	-0.000011	-0.000000	0.000000	0.000000
69.436288	23.313952	11.463266	-0.061471	0.175501	2.851004	0.000000	0.007792	0.000000	-0.000011	-0.000000	0.000000	0.000000
69.733611	23.354312	11.366854	-0.135298	0.178467	2.853321	0.000000	0.015248	0.000000	-0.000011	-0.000000	0.000000	0.000000
70.282671	23.101790	11.398493	0.592492	-0.236431	2.838512	0.000000	-0.069113	0.000000	-0.000011	0.000000	0.000000	0.000000
