#ParticleID	Turn	x[m]	xp	y[m]	yp	z[m]	dE[GeV]# s	beta_x	beta_y	alpha_x	alpha_y	D_x	D_y	D_px	D_py	orbit_x	orbit_px	orbit_y	orbit_py
0.300000	11.833529	24.942485	-0.013591	-0.027780	2.618328	0.000000	-0.000069	0.000000	-0.000001	0.000000	0.000000	0.000000
0.601250	11.849388	24.962863	-0.039053	-0.039867	2.618307	0.000000	-0.000069	0.000000	-0.000001	0.000000	0.000000	0.000000
0.898573	11.880083	24.990117	-0.035050	-0.113080	2.618287	0.000000	-0.006490	0.000000	-0.000001	0.000000	0.000000	0.000000
1.339533	12.063370	24.812680	-0.382182	0.513938	2.631719	0.000000	0.067471	0.000000	-0.000001	0.000000	0.000000	0.000000
1.780493	12.559314	24.090501	-0.746776	1.117572	2.677903	0.000000	0.142201	0.000000	-0.000001	0.000000	0.000000	0.000000
2.221453	13.390573	22.856440	-1.145487	1.670358	2.757366	0.000000	0.218550	0.000000	-0.000001	0.000000	0.000000	0.000000
2.662413	14.595125	21.166644	-1.596533	2.147143	2.871012	0.000000	0.297389	0.000000	-0.000001	0.000000	0.000000	0.000000
3.108373	16.248817	19.073215	-2.124821	2.527365	3.021997	0.000000	0.380104	0.000000	-0.000001	0.000000	0.000000	0.000000
3.657433	18.369349	16.722111	-1.714431	1.779964	3.205425	0.000000	0.287066	0.000000	-0.000001	0.000000	0.000000	0.000000
4.206493	19.969654	15.117724	-1.182942	1.159345	3.336295	0.000000	0.188937	0.000000	-0.000001	0.000000	0.000000	0.000000
4.755553	20.936695	14.145778	-0.567897	0.621305	3.412285	0.000000	0.087456	0.000000	-0.000001	0.000000	0.000000	0.000000
5.304613	21.202163	13.737042	0.087263	0.127518	3.432047	0.000000	-0.015575	0.000000	-0.000001	0.000000	0.000000	0.000000
5.603185	21.187344	13.646125	0.017768	0.141095	3.430074	0.000000	-0.006608	0.000000	-0.000001	0.000000	0.000000	0.000000
5.936519	21.180744	13.560366	0.002031	0.116182	3.427871	0.000000	-0.006608	0.000000	-0.000001	0.000000	0.000000	0.000000
6.269852	21.184636	13.491216	-0.013707	0.091269	3.425669	0.000000	-0.006608	0.000000	-0.000000	0.000000	0.000000	0.000000
6.604435	21.199093	13.438508	-0.029503	0.066262	3.423458	0.000000	-0.006608	0.000000	-0.000000	0.000000	0.000000	0.000000
6.901758	21.220811	13.405713	-0.098987	0.079067	3.421493	0.000000	0.002332	0.000000	-0.000000	0.000000	0.000000	0.000000
7.450818	20.967755	13.579337	0.557149	-0.397154	3.394574	0.000000	-0.100242	0.000000	-0.000000	0.000000	0.000000	0.000000
7.999878	20.011628	14.288282	1.173931	-0.901664	3.311741	0.000000	-0.201038	0.000000	-0.000000	0.000000	0.000000	0.000000
8.548938	18.419967	15.583043	1.707793	-1.470397	3.174465	0.000000	-0.298268	0.000000	-0.000000	0.000000	0.000000	0.000000
9.097998	16.305198	17.555845	2.121024	-2.143864	2.985179	0.000000	-0.390208	0.000000	-0.000000	0.000000	0.000000	0.000000
9.543958	14.655140	19.313789	1.592144	-1.781409	2.829467	0.000000	-0.308509	0.000000	-0.000000	0.000000	0.000000	0.000000
9.984918	13.454793	20.695078	1.140305	-1.339130	2.710671	0.000000	-0.230808	0.000000	-0.000000	0.000000	0.000000	0.000000
10.425878	12.628540	21.657852	0.740563	-0.835921	2.625527	0.000000	-0.155736	0.000000	-0.000000	0.000000	0.000000	0.000000
10.866838	12.138633	22.158305	0.374654	-0.294678	2.573064	0.000000	-0.082437	0.000000	0.000000	0.000000	0.000000	0.000000
11.309048	11.962550	22.173154	0.055094	0.205537	2.552666	0.000000	-0.016337	0.000000	0.000000	0.000000	0.000000	0.000000
11.606371	11.937201	22.055087	0.030165	0.191561	2.547808	0.000000	-0.016337	0.000000	0.000000	0.000000	0.000000	0.000000
12.086371	11.927561	21.882019	-0.010083	0.168999	2.539966	0.000000	-0.016337	0.000000	0.000000	0.000000	0.000000	0.000000
12.566371	11.956559	21.730610	-0.050330	0.146436	2.532124	0.000000	-0.016337	0.000000	0.000000	0.000000	0.000000	0.000000
13.046371	12.024194	21.600861	-0.090577	0.123874	2.524282	0.000000	-0.016337	0.000000	0.000000	0.000000	0.000000	0.000000
13.526371	12.130466	21.492771	-0.130824	0.101312	2.516440	0.000000	-0.016337	0.000000	0.000000	0.000000	0.000000	0.000000
14.007621	12.275803	21.406145	-0.171175	0.078691	2.508578	0.000000	-0.016337	0.000000	0.000000	0.000000	0.000000	0.000000
14.304943	12.385004	21.363507	-0.165734	0.012326	2.503720	0.000000	-0.022477	0.000000	0.000000	0.000000	0.000000	0.000000
14.745903	12.689930	21.118782	-0.528395	0.540545	2.509437	0.000000	0.048431	0.000000	0.000001	0.000000	0.000000	0.000000
15.186863	13.324090	20.417318	-0.915196	1.044169	2.546514	0.000000	0.119891	0.000000	0.000001	0.000000	0.000000	0.000000
15.627823	14.316457	19.291030	-1.343811	1.500285	2.615372	0.000000	0.192717	0.000000	0.000001	0.000000	0.000000	0.000000
16.068783	15.712369	17.791163	-1.833820	1.888138	2.716796	0.000000	0.267737	0.000000	0.000001	0.000000	0.000000	0.000000
16.514743	17.599257	15.964461	-2.412369	2.190833	2.853636	0.000000	0.346269	0.000000	0.000001	0.000000	0.000000	0.000000
17.063803	20.022387	13.924636	-1.974740	1.546218	3.020035	0.000000	0.258962	0.000000	0.000001	0.000000	0.000000	0.000000
17.612863	21.885044	12.528408	-1.397625	1.011735	3.137163	0.000000	0.167062	0.000000	0.000001	0.000000	0.000000	0.000000
18.161923	23.055659	11.676327	-0.721789	0.549317	3.202945	0.000000	0.072199	0.000000	0.000001	0.000000	0.000000	0.000000
18.710983	23.451546	11.307700	0.005031	0.126025	3.216212	0.000000	-0.023944	0.000000	0.000001	0.000000	0.000000	0.000000
19.009556	23.488945	11.222877	-0.069015	0.128526	3.211572	0.000000	-0.015541	0.000000	0.000001	0.000000	0.000000	0.000000
19.342889	23.539707	11.147257	-0.083274	0.098334	3.206391	0.000000	-0.015541	0.000000	0.000001	0.000000	0.000000	0.000000
19.676223	23.599976	11.091765	-0.097532	0.068142	3.201211	0.000000	-0.015541	0.000000	0.000001	0.000000	0.000000	0.000000
20.010806	23.670323	11.056169	-0.229120	0.092616	3.196031	0.000000	0.000294	0.000000	0.000001	0.000000	0.000000	0.000000
20.308129	23.810499	11.009159	-0.304552	0.094258	3.196118	0.000000	0.008645	0.000000	0.000001	0.000000	0.000000	0.000000
20.857189	23.734275	11.128257	0.442558	-0.312450	3.174654	0.000000	-0.086715	0.000000	0.000001	0.000000	0.000000	0.000000
21.406249	22.850014	11.703495	1.158408	-0.741413	3.101177	0.000000	-0.180537	0.000000	0.000001	0.000000	0.000000	0.000000
21.955309	21.220177	12.775848	1.792434	-1.223185	2.976991	0.000000	-0.271157	0.000000	0.000001	-0.000000	0.000000	0.000000
22.504369	18.959887	14.421695	2.299851	-1.792082	2.804298	0.000000	-0.356966	0.000000	0.000001	-0.000000	0.000000	0.000000
22.950329	17.178767	15.899173	1.708150	-1.506970	2.662393	0.000000	-0.279780	0.000000	0.000001	-0.000000	0.000000	0.000000
23.391289	15.901594	17.077103	1.199187	-1.154150	2.555339	0.000000	-0.206235	0.000000	0.000001	-0.000000	0.000000	0.000000
23.832249	15.047520	17.919440	0.745011	-0.748816	2.480166	0.000000	-0.135038	0.000000	0.000001	0.000000	0.000000	0.000000
24.273209	14.577527	18.387860	0.324873	-0.309413	2.436020	0.000000	-0.065380	0.000000	0.000001	0.000000	0.000000	0.000000
24.715418	14.470255	18.460801	-0.045025	0.098729	2.422394	0.000000	-0.002407	0.000000	0.000001	0.000000	0.000000	0.000000
25.012741	14.503150	18.406928	-0.065614	0.082466	2.421678	0.000000	-0.002407	0.000000	0.000001	0.000000	0.000000	0.000000
25.346075	14.554587	18.358027	-0.088696	0.064234	2.420876	0.000000	-0.002407	0.000000	0.000001	0.000000	0.000000	0.000000
25.679408	14.621411	18.321282	-0.111779	0.046002	2.420074	0.000000	-0.002407	0.000000	0.000001	0.000000	0.000000	0.000000
26.013991	14.703664	18.296993	-0.015662	-0.120733	2.419244	0.000000	-0.022033	0.000000	0.000001	0.000000	0.000000	0.000000
26.311314	14.718991	18.373688	0.000207	-0.182277	2.412693	0.000000	-0.027950	0.000000	0.000001	0.000000	0.000000	0.000000
26.752274	14.900185	18.335116	-0.412674	0.269417	2.415474	0.000000	0.040574	0.000000	0.000001	0.000000	0.000000	0.000000
27.193234	15.452412	17.902090	-0.844408	0.708853	2.448544	0.000000	0.109560	0.000000	0.000001	0.000000	0.000000	0.000000
27.634194	16.400904	17.094313	-1.314721	1.116036	2.512280	0.000000	0.179794	0.000000	0.000002	0.000000	0.000000	0.000000
28.075154	17.788993	15.948538	-1.845100	1.472441	2.607408	0.000000	0.252075	0.000000	0.000002	0.000000	0.000000	0.000000
28.521114	19.704221	14.499641	-2.464730	1.762765	2.736614	0.000000	0.327671	0.000000	0.000002	0.000000	0.000000	0.000000
29.070174	22.138478	12.885100	-1.942525	1.195147	2.893870	0.000000	0.244304	0.000000	0.000002	0.000000	0.000000	0.000000
29.619234	23.920092	11.843749	-1.283110	0.712656	3.004093	0.000000	0.156604	0.000000	0.000002	0.000000	0.000000	0.000000
30.168294	24.923217	11.301415	-0.533062	0.280925	3.065330	0.000000	0.066126	0.000000	0.000002	0.000000	0.000000	0.000000
30.717354	25.076999	11.219468	0.254639	-0.130795	3.076492	0.000000	-0.025524	0.000000	0.000002	0.000000	0.000000	0.000000
31.015927	24.967750	11.288094	0.176786	-0.128367	3.071271	0.000000	-0.017486	0.000000	0.000002	0.000000	0.000000	0.000000
31.349260	24.854481	11.383678	0.163018	-0.158383	3.065443	0.000000	-0.017486	0.000000	0.000002	0.000000	0.000000	0.000000
31.682593	24.750392	11.499272	0.149250	-0.188400	3.059614	0.000000	-0.017486	0.000000	0.000002	0.000000	0.000000	0.000000
32.017177	24.655142	11.635423	0.135431	-0.218528	3.053763	0.000000	-0.017486	0.000000	0.000002	0.000000	0.000000	0.000000
32.314499	24.578260	11.773331	0.058933	-0.214541	3.048564	0.000000	-0.009521	0.000000	0.000002	0.000000	0.000000	0.000000
32.863559	24.092522	12.248300	0.820501	-0.655624	3.018464	0.000000	-0.099960	0.000000	0.000002	-0.000000	0.000000	0.000000
33.412619	22.797523	13.230279	1.524113	-1.143406	2.939122	0.000000	-0.188626	0.000000	0.000002	-0.000000	0.000000	0.000000
33.961679	20.784733	14.789213	2.120069	-1.712630	2.811945	0.000000	-0.273946	0.000000	0.000002	-0.000000	0.000000	0.000000
34.510739	18.196328	17.036140	2.566274	-2.403842	2.639188	0.000000	-0.354408	0.000000	0.000002	-0.000000	0.000000	0.000000
34.956699	16.183900	19.045848	1.962469	-2.083817	2.497473	0.000000	-0.281502	0.000000	0.000002	-0.000000	0.000000	0.000000
35.397659	14.683363	20.707336	1.453325	-1.669731	2.388719	0.000000	-0.212230	0.000000	0.000002	-0.000000	0.000000	0.000000
35.838619	13.600986	21.968608	1.010580	-1.179673	2.309949	0.000000	-0.145375	0.000000	0.000002	-0.000000	0.000000	0.000000
36.279579	12.887317	22.772279	0.614004	-0.635941	2.260266	0.000000	-0.080177	0.000000	0.000002	-0.000000	0.000000	0.000000
36.721789	12.509060	23.082082	0.276051	-0.119931	2.239079	0.000000	-0.021382	0.000000	0.000002	-0.000000	0.000000	0.000000
37.019112	12.352513	23.157284	0.250471	-0.132997	2.232722	0.000000	-0.021382	0.000000	0.000002	-0.000000	0.000000	0.000000
37.352445	12.195092	23.250832	0.221793	-0.147646	2.225595	0.000000	-0.021382	0.000000	0.000002	-0.000000	0.000000	0.000000
37.685779	12.056789	23.354146	0.193115	-0.162295	2.218467	0.000000	-0.021382	0.000000	0.000002	-0.000000	0.000000	0.000000
38.020362	11.937194	23.467668	0.164329	-0.176999	2.211313	0.000000	-0.021382	0.000000	0.000001	-0.000000	0.000000	0.000000
38.317684	11.847082	23.576805	0.167802	-0.247882	2.204956	0.000000	-0.026789	0.000000	0.000001	-0.000000	0.000000	0.000000
38.758644	11.850224	23.534295	-0.174953	0.343918	2.207067	0.000000	0.036371	0.000000	0.000001	0.000000	0.000000	0.000000
39.199604	12.158017	22.974798	-0.525701	0.920070	2.237093	0.000000	0.099945	0.000000	0.000001	0.000000	0.000000	0.000000
39.640564	12.784523	21.923770	-0.900467	1.454359	2.295377	0.000000	0.164657	0.000000	0.000002	0.000000	0.000000	0.000000
40.081524	13.758367	20.429032	-1.316373	1.922477	2.382583	0.000000	0.231245	0.000000	0.000002	0.000000	0.000000	0.000000
40.527484	15.141600	18.536026	-1.796243	2.304400	2.501175	0.000000	0.300872	0.000000	0.000002	0.000000	0.000000	0.000000
41.076544	16.907066	16.408876	-1.400156	1.592636	2.645848	0.000000	0.225337	0.000000	0.000002	0.000000	0.000000	0.000000
41.625604	18.180365	14.996821	-0.905169	0.994312	2.747888	0.000000	0.145806	0.000000	0.000002	0.000000	0.000000	0.000000
42.174664	18.871558	14.199286	-0.346245	0.466810	2.805485	0.000000	0.063688	0.000000	0.000002	-0.000000	0.000000	0.000000
42.723724	18.931823	13.959462	0.237136	-0.027442	2.817618	0.000000	-0.019559	0.000000	0.000002	-0.000000	0.000000	0.000000
43.022297	18.824630	13.960456	0.171345	-0.012359	2.813976	0.000000	-0.012197	0.000000	0.000002	-0.000000	0.000000	0.000000
43.502297	18.672738	13.988827	0.145097	-0.046748	2.808122	0.000000	-0.012197	0.000000	0.000002	-0.000000	0.000000	0.000000
43.982297	18.546043	14.050211	0.118850	-0.081136	2.802267	0.000000	-0.012197	0.000000	0.000002	-0.000000	0.000000	0.000000
44.462297	18.444546	14.144608	0.092603	-0.115524	2.796413	0.000000	-0.012197	0.000000	0.000002	-0.000000	0.000000	0.000000
44.942297	18.368245	14.272017	0.066356	-0.149912	2.790558	0.000000	-0.012197	0.000000	0.000002	-0.000000	0.000000	0.000000
45.423547	18.317269	14.432720	-0.050713	-0.112881	2.784705	0.000000	0.001600	0.000000	0.000002	-0.000000	0.000000	0.000000
45.720870	18.352264	14.506047	-0.114937	-0.095843	2.785181	0.000000	0.008877	0.000000	0.000002	-0.000000	0.000000	0.000000
46.269930	18.169455	14.891945	0.445914	-0.611139	2.767489	0.000000	-0.073229	0.000000	0.000002	-0.000000	0.000000	0.000000
46.818990	17.384494	15.864139	0.975269	-1.169965	2.705006	0.000000	-0.154036	0.000000	0.000001	-0.000000	0.000000	0.000000
47.368050	16.052825	17.491878	1.435735	-1.812125	2.598840	0.000000	-0.232111	0.000000	0.000001	-0.000000	0.000000	0.000000
47.917110	14.268511	19.891101	1.794789	-2.583359	2.450876	0.000000	-0.306069	0.000000	0.000001	-0.000000	0.000000	0.000000
48.363070	12.879802	22.024343	1.330218	-2.180015	2.329671	0.000000	-0.237782	0.000000	0.000001	-0.000000	0.000000	0.000000
48.804030	11.886821	23.732404	0.930187	-1.678750	2.239276	0.000000	-0.172599	0.000000	0.000001	-0.000000	0.000000	0.000000
49.244990	11.226632	24.962891	0.572654	-1.101103	2.177164	0.000000	-0.109382	0.000000	0.000001	-0.000000	0.000000	0.000000
49.685950	10.869074	25.659817	0.241285	-0.473358	2.142627	0.000000	-0.047411	0.000000	0.000001	-0.000000	0.000000	0.000000
50.128160	10.797942	25.791192	-0.052699	0.112629	2.135283	0.000000	0.008783	0.000000	0.000001	-0.000000	0.000000	0.000000
50.425482	10.837489	25.727688	-0.080310	0.100955	2.137894	0.000000	0.008783	0.000000	0.000001	-0.000000	0.000000	0.000000
50.758816	10.901348	25.664748	-0.111266	0.087866	2.140822	0.000000	0.008783	0.000000	0.000001	-0.000000	0.000000	0.000000
51.092149	10.985844	25.610533	-0.142222	0.074778	2.143750	0.000000	0.008783	0.000000	0.000001	-0.000000	0.000000	0.000000
51.426732	11.091185	25.565408	-0.083315	-0.145758	2.146667	0.000000	-0.008632	0.000000	0.000001	-0.000000	0.000000	0.000000
51.724055	11.148754	25.655614	-0.082968	-0.220550	2.144100	0.000000	-0.013890	0.000000	0.000001	-0.000000	0.000000	0.000000
52.165015	11.367447	25.564733	-0.414862	0.425863	2.151563	0.000000	0.047770	0.000000	0.000001	-0.000000	0.000000	0.000000
52.605975	11.886065	24.910167	-0.765711	1.052899	2.186310	0.000000	0.109974	0.000000	0.000001	-0.000000	0.000000	0.000000
53.046935	12.728302	23.721699	-1.151542	1.632030	2.248736	0.000000	0.173431	0.000000	0.000001	-0.000000	0.000000	0.000000
53.487895	13.932636	22.053401	-1.589984	2.136904	2.339552	0.000000	0.238863	0.000000	0.000001	-0.000000	0.000000	0.000000
53.933855	15.574728	19.956235	-2.105308	2.545884	2.461297	0.000000	0.307414	0.000000	0.000001	-0.000000	0.000000	0.000000
54.482915	17.688803	17.596508	-1.722253	1.777242	2.609905	0.000000	0.233108	0.000000	0.000001	-0.000000	0.000000	0.000000
55.031975	19.312542	16.006794	-1.217547	1.135188	2.716518	0.000000	0.154667	0.000000	0.000001	-0.000000	0.000000	0.000000
55.581035	20.331251	15.073859	-0.626840	0.573991	2.779244	0.000000	0.073483	0.000000	0.000001	-0.000000	0.000000	0.000000
56.130095	20.672975	14.731253	0.008144	0.053678	2.796972	0.000000	-0.009005	0.000000	0.000000	-0.000000	0.000000	0.000000
56.428668	20.704688	14.682319	-0.060343	0.071728	2.796465	0.000000	-0.001697	0.000000	0.000000	-0.000000	0.000000	0.000000
56.762001	20.750302	14.642107	-0.076501	0.048908	2.795899	0.000000	-0.001697	0.000000	0.000000	-0.000000	0.000000	0.000000
57.095334	20.806689	14.617108	-0.092659	0.026088	2.795334	0.000000	-0.001697	0.000000	0.000000	-0.000000	0.000000	0.000000
57.429918	20.874120	14.607314	-0.108878	0.003183	2.794766	0.000000	-0.001697	0.000000	0.000000	-0.000000	0.000000	0.000000
57.727240	20.943149	14.611474	-0.178011	0.021005	2.794261	0.000000	0.005604	0.000000	0.000000	-0.000000	0.000000	0.000000
58.276300	20.781251	14.869083	0.471130	-0.492958	2.774696	0.000000	-0.076766	0.000000	0.000000	-0.000000	0.000000	0.000000
58.825360	19.920654	15.706939	1.086992	-1.042033	2.710213	0.000000	-0.157775	0.000000	0.000000	-0.000000	0.000000	0.000000
59.374420	18.422147	17.184721	1.626075	-1.665329	2.601955	0.000000	-0.235985	0.000000	0.000000	-0.000000	0.000000	0.000000
59.923480	16.391577	19.407686	2.050300	-2.407244	2.451842	0.000000	-0.310009	0.000000	0.000000	-0.000000	0.000000	0.000000
60.369440	14.802139	21.383570	1.526403	-2.004686	2.328883	0.000000	-0.241719	0.000000	0.000000	-0.000000	0.000000	0.000000
60.810400	13.658720	22.940338	1.076458	-1.512286	2.236744	0.000000	-0.176579	0.000000	0.000000	-0.000000	0.000000	0.000000
61.251360	12.889011	24.030733	0.675693	-0.951079	2.172860	0.000000	-0.113450	0.000000	-0.000000	-0.000000	0.000000	0.000000
61.692320	12.457848	24.605142	0.305799	-0.346598	2.136501	0.000000	-0.051614	0.000000	-0.000000	-0.000000	0.000000	0.000000
62.134530	12.345582	24.636898	-0.019951	0.213182	2.127260	0.000000	0.004418	0.000000	-0.000000	-0.000000	0.000000	0.000000
62.431853	12.364610	24.513882	-0.044044	0.200565	2.128574	0.000000	0.004418	0.000000	-0.000000	-0.000000	0.000000	0.000000
62.765186	12.402976	24.384886	-0.071055	0.186420	2.130046	0.000000	0.004418	0.000000	-0.000000	-0.000000	0.000000	0.000000
63.098520	12.459350	24.265321	-0.098066	0.172276	2.131519	0.000000	0.004418	0.000000	-0.000000	-0.000000	0.000000	0.000000
63.433103	12.534043	24.154790	-0.125178	0.158078	2.132998	0.000000	0.004418	0.000000	-0.000000	-0.000000	0.000000	0.000000
63.730426	12.615643	24.064541	-0.118334	0.086448	2.134311	0.000000	-0.000816	0.000000	-0.000000	-0.000000	0.000000	0.000000
64.171386	12.880579	23.723261	-0.484760	0.684556	2.147494	0.000000	0.060666	0.000000	-0.000000	-0.000000	0.000000	0.000000
64.612346	13.477181	22.866268	-0.873334	1.251518	2.187915	0.000000	0.122838	0.000000	-0.000000	-0.000000	0.000000	0.000000
65.053306	14.432707	21.532557	-1.301808	1.761536	2.256033	0.000000	0.186409	0.000000	-0.000001	-0.000000	0.000000	0.000000
65.494266	15.790812	19.782809	-1.789758	2.191406	2.352624	0.000000	0.252104	0.000000	-0.000001	-0.000000	0.000000	0.000000
65.940226	17.636716	17.671865	-2.364172	2.522327	2.480362	0.000000	0.321071	0.000000	-0.000001	-0.000000	0.000000	0.000000
66.489286	20.002725	15.310282	-1.919519	1.804199	2.636278	0.000000	0.246029	0.000000	-0.000001	-0.000000	0.000000	0.000000
67.038346	21.802656	13.662518	-1.339280	1.214580	2.749731	0.000000	0.166623	0.000000	-0.000001	-0.000000	0.000000	0.000000
67.587406	22.909370	12.611205	-0.664441	0.711473	2.818707	0.000000	0.084261	0.000000	-0.000001	-0.000000	0.000000	0.000000
68.136466	23.244696	12.081460	0.057330	0.259042	2.841985	0.000000	0.000405	0.000000	-0.000001	-0.000000	0.000000	0.000000
68.435038	23.250564	11.915926	-0.016250	0.263809	2.844323	0.000000	0.007831	0.000000	-0.000001	-0.000000	0.000000	0.000000
68.768372	23.266177	11.750027	-0.030590	0.233888	2.846934	0.000000	0.007831	0.000000	-0.000001	-0.000000	0.000000	0.000000
69.101705	23.291351	11.604075	-0.044930	0.203968	2.849544	0.000000	0.007831	0.000000	-0.000001	-0.000000	0.000000	0.000000
69.436288	23.326232	11.477635	-0.059324	0.173935	2.852164	0.000000	0.007831	0.000000	-0.000001	-0.000000	0.000000	0.000000
69.733611	23.365312	11.382141	-0.133165	0.176986	2.854492	0.000000	0.015289	0.000000	-0.000001	-0.000000	0.000000	0.000000
70.282671	23.110268	11.415646	0.594926	-0.238370	2.839695	0.000000	-0.069110	0.000000	-0.000001	-0.000000	0.000000	0.000000
