#ParticleID	Turn	x[m]	xp	y[m]	yp	z[m]	dE[GeV]# s	beta_x	beta_y	alpha_x	alpha_y	D_x	D_y	D_px	D_py	orbit_x	orbit_px	orbit_y	orbit_py
0.300000	11.809258	25.036344	-0.010606	-0.027060	2.618176	0.000000	-0.000013	0.000000	-0.000002	0.000001	0.000000	0.000000
0.601250	11.823334	25.056275	-0.036119	-0.039102	2.618172	0.000000	-0.000013	0.000000	-0.000001	0.000001	0.000000	0.000000
0.898573	11.852298	25.083060	-0.032233	-0.112497	2.618168	0.000000	-0.006433	0.000000	-0.000001	0.000001	0.000000	0.000000
1.339533	12.032800	24.904025	-0.378660	0.516964	2.631624	0.000000	0.067525	0.000000	0.000000	0.000001	0.000000	0.000000
1.780493	12.525269	24.178146	-0.742386	1.122904	2.677831	0.000000	0.142253	0.000000	0.000001	0.000001	0.000000	0.000000
2.221453	13.352202	22.938452	-1.140030	1.677752	2.757316	0.000000	0.218601	0.000000	0.000001	0.000002	0.000000	0.000000
2.662413	14.551380	21.241346	-1.589759	2.156264	2.870984	0.000000	0.297438	0.000000	0.000002	0.000002	0.000000	0.000000
3.108373	16.198324	19.139158	-2.116407	2.537801	3.021990	0.000000	0.380153	0.000000	0.000003	0.000002	0.000000	0.000000
3.657433	18.310275	16.778065	-1.707307	1.787827	3.205444	0.000000	0.287115	0.000000	0.000004	0.000002	0.000000	0.000000
4.206493	19.903701	15.166193	-1.177611	1.165196	3.336339	0.000000	0.188985	0.000000	0.000004	0.000001	0.000000	0.000000
4.755553	20.866051	14.188730	-0.564735	0.625560	3.412355	0.000000	0.087502	0.000000	0.000005	0.000001	0.000000	0.000000
5.304613	21.129349	13.776054	0.088031	0.130480	3.432141	0.000000	-0.015532	0.000000	0.000006	0.000001	0.000000	0.000000
5.603185	21.113971	13.683296	0.018680	0.144199	3.430181	0.000000	-0.006565	0.000000	0.000006	0.000001	0.000000	0.000000
5.936519	21.106782	13.595453	0.002888	0.119332	3.427992	0.000000	-0.006565	0.000000	0.000006	0.000001	0.000000	0.000000
6.269852	21.110121	13.524187	-0.012905	0.094465	3.425803	0.000000	-0.006565	0.000000	0.000007	0.000001	0.000000	0.000000
6.604435	21.124060	13.469326	-0.028757	0.069504	3.423606	0.000000	-0.006565	0.000000	0.000007	0.000001	0.000000	0.000000
6.901758	21.145349	13.434591	-0.098090	0.082424	3.421654	0.000000	0.002375	0.000000	0.000007	0.000001	0.000000	0.000000
7.450818	20.892700	13.604963	0.555515	-0.394553	3.394757	0.000000	-0.100205	0.000000	0.000008	0.000001	0.000000	0.000000
7.999878	19.939713	14.311379	1.169881	-0.899633	3.311942	0.000000	-0.201007	0.000000	0.000008	0.000001	0.000000	0.000000
8.548938	18.353703	15.604156	1.701612	-1.468792	3.174681	0.000000	-0.298244	0.000000	0.000009	0.000000	0.000000	0.000000
9.097998	16.246697	17.575374	2.113150	-2.142569	2.985406	0.000000	-0.390191	0.000000	0.000009	0.000000	0.000000	0.000000
9.543958	14.602871	19.331815	1.585994	-1.779343	2.829703	0.000000	-0.308486	0.000000	0.000009	0.000000	0.000000	0.000000
9.984918	13.407300	20.710978	1.135584	-1.336392	2.710919	0.000000	-0.230779	0.000000	0.000009	0.000000	0.000000	0.000000
10.425878	12.584661	21.671086	0.737055	-0.832637	2.625789	0.000000	-0.155700	0.000000	0.000009	0.000001	0.000000	0.000000
10.866838	12.097372	22.168457	0.372201	-0.290998	2.573344	0.000000	-0.082394	0.000000	0.000009	0.000001	0.000000	0.000000
11.309048	11.923036	22.179936	0.053483	0.209435	2.552965	0.000000	-0.016287	0.000000	0.000010	0.000001	0.000000	0.000000
11.606371	11.898668	22.059557	0.028474	0.195442	2.548122	0.000000	-0.016287	0.000000	0.000010	0.000001	0.000000	0.000000
12.086371	11.890712	21.882776	-0.011899	0.172852	2.540304	0.000000	-0.016287	0.000000	0.000011	0.000001	0.000000	0.000000
12.566371	11.921514	21.727682	-0.052272	0.150261	2.532486	0.000000	-0.016287	0.000000	0.000011	0.000001	0.000000	0.000000
13.046371	11.991075	21.594274	-0.092646	0.127671	2.524667	0.000000	-0.016287	0.000000	0.000012	0.000001	0.000000	0.000000
13.526371	12.099394	21.482554	-0.133019	0.105080	2.516849	0.000000	-0.016287	0.000000	0.000013	0.000001	0.000000	0.000000
14.007621	12.246905	21.392314	-0.173498	0.082431	2.509010	0.000000	-0.016287	0.000000	0.000013	0.000001	0.000000	0.000000
14.304943	12.357510	21.347457	-0.168205	0.016095	2.504167	0.000000	-0.022427	0.000000	0.000013	0.000001	0.000000	0.000000
14.745903	12.664368	21.099624	-0.530319	0.543798	2.509908	0.000000	0.048493	0.000000	0.000014	0.000001	0.000000	0.000000
15.186863	13.300018	20.395573	-0.916663	1.046759	2.547014	0.000000	0.119966	0.000000	0.000015	0.000002	0.000000	0.000000
15.627823	14.293501	19.267338	-1.344885	1.502093	2.615907	0.000000	0.192804	0.000000	0.000016	0.000002	0.000000	0.000000
16.068783	15.690208	17.766253	-1.834552	1.889083	2.717372	0.000000	0.267839	0.000000	0.000017	0.000003	0.000000	0.000000
16.514743	17.577609	15.939115	-2.412793	2.190864	2.854259	0.000000	0.346387	0.000000	0.000018	0.000003	0.000000	0.000000
17.063803	20.001760	13.898982	-1.976162	1.546750	3.020716	0.000000	0.259059	0.000000	0.000020	0.000003	0.000000	0.000000
17.612863	21.866486	12.501877	-1.399945	1.012808	3.137891	0.000000	0.167136	0.000000	0.000021	0.000002	0.000000	0.000000
18.161923	23.040070	11.648287	-0.724843	0.551006	3.203705	0.000000	0.072249	0.000000	0.000022	0.000001	0.000000	0.000000
18.710983	23.439618	11.277413	0.001458	0.128451	3.216992	0.000000	-0.023920	0.000000	0.000022	0.000000	0.000000	0.000000
19.009556	23.479129	11.191219	-0.072558	0.130776	3.212359	0.000000	-0.015516	0.000000	0.000022	0.000001	0.000000	0.000000
19.342889	23.532257	11.114133	-0.086829	0.100482	3.207187	0.000000	-0.015516	0.000000	0.000022	0.000001	0.000000	0.000000
19.676223	23.594901	11.057243	-0.101101	0.070187	3.202015	0.000000	-0.015516	0.000000	0.000023	0.000001	0.000000	0.000000
20.010806	23.667641	11.020314	-0.232689	0.094380	3.196843	0.000000	0.000323	0.000000	0.000023	0.000001	0.000000	0.000000
20.308129	23.809945	10.972285	-0.308131	0.095823	3.196939	0.000000	0.008674	0.000000	0.000023	0.000001	0.000000	0.000000
20.857189	23.737641	11.089088	0.439038	-0.309812	3.175483	0.000000	-0.086712	0.000000	0.000023	-0.000000	0.000000	0.000000
21.406249	22.857099	11.660759	1.155195	-0.737515	3.102001	0.000000	-0.180561	0.000000	0.000023	-0.000001	0.000000	0.000000
21.955309	21.230514	12.728017	1.789755	-1.217749	2.977795	0.000000	-0.271207	0.000000	0.000022	-0.000002	0.000000	0.000000
22.504369	18.972782	14.366880	2.297896	-1.784721	2.805068	0.000000	-0.357042	0.000000	0.000021	-0.000002	0.000000	0.000000
22.950329	17.193429	15.838334	1.706125	-1.500878	2.663135	0.000000	-0.279836	0.000000	0.000020	-0.000002	0.000000	0.000000
23.391289	15.918105	17.011553	1.196999	-1.149599	2.556060	0.000000	-0.206272	0.000000	0.000020	-0.000001	0.000000	0.000000
23.832249	15.066068	17.850636	0.742561	-0.746015	2.480876	0.000000	-0.135057	0.000000	0.000019	-0.000001	0.000000	0.000000
24.273209	14.598392	18.317406	0.322048	-0.308487	2.436725	0.000000	-0.065381	0.000000	0.000019	-0.000000	0.000000	0.000000
24.715418	14.493830	18.390379	-0.048301	0.097917	2.423103	0.000000	-0.002390	0.000000	0.000019	0.000000	0.000000	0.000000
25.012741	14.528665	18.337006	-0.068862	0.081595	2.422392	0.000000	-0.002390	0.000000	0.000019	0.000000	0.000000	0.000000
25.346075	14.582257	18.288709	-0.091914	0.063295	2.421596	0.000000	-0.002390	0.000000	0.000019	0.000000	0.000000	0.000000
25.679408	14.651218	18.252612	-0.114966	0.044996	2.420799	0.000000	-0.002390	0.000000	0.000019	0.000000	0.000000	0.000000
26.013991	14.735592	18.229017	-0.018560	-0.121254	2.419975	0.000000	-0.022022	0.000000	0.000019	0.000000	0.000000	0.000000
26.311314	14.752630	18.306041	-0.002573	-0.182688	2.413427	0.000000	-0.027940	0.000000	0.000020	0.000000	0.000000	0.000000
26.752274	14.936648	18.268640	-0.416323	0.267183	2.416217	0.000000	0.040603	0.000000	0.000020	0.000001	0.000000	0.000000
27.193234	15.492538	17.838355	-0.849094	0.704897	2.449303	0.000000	0.109609	0.000000	0.000020	0.000001	0.000000	0.000000
27.634194	16.445696	17.034762	-1.320658	1.110538	2.513065	0.000000	0.179862	0.000000	0.000021	0.000002	0.000000	0.000000
28.075154	17.839670	15.894426	-1.852558	1.465651	2.608227	0.000000	0.252165	0.000000	0.000021	0.000002	0.000000	0.000000
28.521114	19.762362	14.452051	-2.474067	1.754990	2.737476	0.000000	0.327782	0.000000	0.000023	0.000003	0.000000	0.000000
29.070174	22.206109	12.845010	-1.950366	1.189180	2.894784	0.000000	0.244387	0.000000	0.000024	0.000002	0.000000	0.000000
29.619234	23.995253	11.809417	-1.288901	0.708073	3.005044	0.000000	0.156656	0.000000	0.000025	0.000001	0.000000	0.000000
30.168294	25.003418	11.271508	-0.536394	0.277400	3.066300	0.000000	0.066147	0.000000	0.000025	0.000000	0.000000	0.000000
30.717354	25.159392	11.192969	0.254001	-0.133514	3.077466	0.000000	-0.025535	0.000000	0.000025	-0.000000	0.000000	0.000000
31.015927	25.050631	11.263288	0.175991	-0.131240	3.072242	0.000000	-0.017496	0.000000	0.000025	-0.000000	0.000000	0.000000
31.349260	24.937877	11.360816	0.162272	-0.161344	3.066410	0.000000	-0.017496	0.000000	0.000025	-0.000000	0.000000	0.000000
31.682593	24.834268	11.478414	0.148553	-0.191449	3.060579	0.000000	-0.017496	0.000000	0.000025	-0.000000	0.000000	0.000000
32.017177	24.739469	11.616635	0.134784	-0.221666	3.054725	0.000000	-0.017496	0.000000	0.000025	-0.000000	0.000000	0.000000
32.314499	24.662958	11.756431	0.058121	-0.217807	3.049523	0.000000	-0.009530	0.000000	0.000024	-0.000000	0.000000	0.000000
32.863559	24.176563	12.234804	0.822504	-0.658593	3.019410	0.000000	-0.100000	0.000000	0.000024	-0.000001	0.000000	0.000000
33.412619	22.877874	13.219979	1.528789	-1.146290	2.940038	0.000000	-0.188696	0.000000	0.000023	-0.000002	0.000000	0.000000
33.961679	20.858623	14.782126	2.127088	-1.715634	2.812816	0.000000	-0.274045	0.000000	0.000022	-0.000003	0.000000	0.000000
34.510739	18.261441	17.032515	2.575141	-2.407179	2.639999	0.000000	-0.354534	0.000000	0.000020	-0.000003	0.000000	0.000000
34.956699	16.241999	19.045422	1.969384	-2.087625	2.498233	0.000000	-0.281608	0.000000	0.000019	-0.000003	0.000000	0.000000
35.397659	14.736098	20.710410	1.458620	-1.673830	2.389438	0.000000	-0.212317	0.000000	0.000018	-0.000002	0.000000	0.000000
35.838619	13.649674	21.975359	1.014496	-1.183878	2.310634	0.000000	-0.145444	0.000000	0.000017	-0.000002	0.000000	0.000000
36.279579	12.933090	22.782715	0.616722	-0.640060	2.260926	0.000000	-0.080228	0.000000	0.000016	-0.000001	0.000000	0.000000
36.721789	12.552914	23.096053	0.277797	-0.123803	2.239720	0.000000	-0.021417	0.000000	0.000016	-0.000001	0.000000	0.000000
37.019112	12.395309	23.173558	0.252283	-0.136874	2.233353	0.000000	-0.021417	0.000000	0.000015	-0.000001	0.000000	0.000000
37.352445	12.236655	23.269692	0.223680	-0.151527	2.226214	0.000000	-0.021417	0.000000	0.000015	-0.000001	0.000000	0.000000
37.685779	12.097070	23.375594	0.195076	-0.166181	2.219076	0.000000	-0.021417	0.000000	0.000015	-0.000001	0.000000	0.000000
38.020362	11.976137	23.491718	0.166366	-0.180890	2.211910	0.000000	-0.021417	0.000000	0.000014	-0.000001	0.000000	0.000000
38.317684	11.884795	23.603170	0.169993	-0.251835	2.205543	0.000000	-0.026825	0.000000	0.000014	-0.000001	0.000000	0.000000
38.758644	11.886378	23.563826	-0.173598	0.340718	2.207642	0.000000	0.036350	0.000000	0.000014	-0.000001	0.000000	0.000000
39.199604	12.193320	23.006764	-0.525120	0.917769	2.237662	0.000000	0.099939	0.000000	0.000013	-0.000000	0.000000	0.000000
39.640564	12.819644	21.957329	-0.900633	1.453061	2.295947	0.000000	0.164666	0.000000	0.000013	-0.000000	0.000000	0.000000
40.081524	13.793965	20.463270	-1.317294	1.922241	2.383159	0.000000	0.231268	0.000000	0.000013	0.000000	0.000000	0.000000
40.527484	15.178374	18.569990	-1.797966	2.305245	2.501765	0.000000	0.300910	0.000000	0.000014	0.000001	0.000000	0.000000
41.076544	16.944980	16.442380	-1.400496	1.592632	2.646454	0.000000	0.225356	0.000000	0.000014	0.000000	0.000000	0.000000
41.625604	18.217878	15.030793	-0.904103	0.993459	2.748499	0.000000	0.145805	0.000000	0.000014	-0.000000	0.000000	0.000000
42.174664	18.907159	14.234684	-0.343848	0.465048	2.806091	0.000000	0.063668	0.000000	0.000014	-0.000001	0.000000	0.000000
42.723724	18.964133	13.997349	0.240695	-0.030239	2.818207	0.000000	-0.019599	0.000000	0.000013	-0.000001	0.000000	0.000000
43.022297	18.854861	13.999939	0.174831	-0.015002	2.814554	0.000000	-0.012236	0.000000	0.000013	-0.000001	0.000000	0.000000
43.502297	18.699616	14.030802	0.148595	-0.049296	2.808682	0.000000	-0.012236	0.000000	0.000012	-0.000001	0.000000	0.000000
43.982297	18.569558	14.094587	0.122359	-0.083589	2.802809	0.000000	-0.012236	0.000000	0.000012	-0.000001	0.000000	0.000000
44.462297	18.464686	14.191293	0.096124	-0.117883	2.796936	0.000000	-0.012236	0.000000	0.000011	-0.000001	0.000000	0.000000
44.942297	18.385001	14.320922	0.069888	-0.152177	2.791063	0.000000	-0.012236	0.000000	0.000011	-0.000001	0.000000	0.000000
45.423547	18.330619	14.483759	-0.047236	-0.114798	2.785192	0.000000	0.001563	0.000000	0.000010	-0.000001	0.000000	0.000000
45.720870	18.363542	14.558207	-0.111469	-0.097562	2.785658	0.000000	0.008841	0.000000	0.000010	-0.000001	0.000000	0.000000
46.269930	18.176747	14.946875	0.449663	-0.614495	2.767942	0.000000	-0.073280	0.000000	0.000009	-0.000001	0.000000	0.000000
46.818990	17.387636	15.923758	0.979032	-1.175198	2.705427	0.000000	-0.154101	0.000000	0.000009	-0.000002	0.000000	0.000000
47.368050	16.051948	17.558436	1.439248	-1.819607	2.599224	0.000000	-0.232190	0.000000	0.000008	-0.000002	0.000000	0.000000
47.917110	14.264029	19.967345	1.797802	-2.593622	2.451214	0.000000	-0.306159	0.000000	0.000007	-0.000002	0.000000	0.000000
48.363070	12.872730	22.109026	1.333036	-2.188595	2.329971	0.000000	-0.237863	0.000000	0.000006	-0.000002	0.000000	0.000000
48.804030	11.877300	23.823767	0.932942	-1.685263	2.239543	0.000000	-0.172673	0.000000	0.000005	-0.000002	0.000000	0.000000
49.244990	11.214664	25.058973	0.575471	-1.105252	2.177400	0.000000	-0.109450	0.000000	0.000004	-0.000002	0.000000	0.000000
49.685950	10.854547	25.758443	0.244293	-0.474954	2.142835	0.000000	-0.047473	0.000000	0.000003	-0.000002	0.000000	0.000000
50.128160	10.780619	25.890068	-0.049405	0.113417	2.135466	0.000000	0.008726	0.000000	0.000003	-0.000002	0.000000	0.000000
50.425482	10.818217	25.826083	-0.077051	0.101785	2.138060	0.000000	0.008726	0.000000	0.000002	-0.000002	0.000000	0.000000
50.758816	10.879917	25.762574	-0.108047	0.088744	2.140970	0.000000	0.008726	0.000000	0.000002	-0.000002	0.000000	0.000000
51.092149	10.962280	25.707758	-0.139042	0.075704	2.143879	0.000000	0.008726	0.000000	0.000001	-0.000002	0.000000	0.000000
51.426732	11.065507	25.661999	-0.080383	-0.145568	2.146777	0.000000	-0.008690	0.000000	0.000001	-0.000002	0.000000	0.000000
51.724055	11.121346	25.752079	-0.080153	-0.220552	2.144194	0.000000	-0.013948	0.000000	0.000000	-0.000002	0.000000	0.000000
52.165015	11.337260	25.660073	-0.411351	0.428407	2.151632	0.000000	0.047714	0.000000	-0.000000	-0.000002	0.000000	0.000000
52.605975	11.852416	25.002180	-0.761342	1.057873	2.186355	0.000000	0.109919	0.000000	-0.000001	-0.000002	0.000000	0.000000
53.046935	12.690350	23.808332	-1.146117	1.639207	2.248757	0.000000	0.173377	0.000000	-0.000002	-0.000002	0.000000	0.000000
53.487895	13.889344	22.132850	-1.583254	2.145959	2.339550	0.000000	0.238809	0.000000	-0.000003	-0.000002	0.000000	0.000000
53.933855	15.524733	20.026915	-2.096952	2.556409	2.461272	0.000000	0.307360	0.000000	-0.000003	-0.000002	0.000000	0.000000
54.482915	17.630283	17.657165	-1.715174	1.785081	2.609852	0.000000	0.233055	0.000000	-0.000004	-0.000002	0.000000	0.000000
55.031975	19.247182	16.060053	-1.212244	1.140900	2.716437	0.000000	0.154616	0.000000	-0.000005	-0.000001	0.000000	0.000000
55.581035	20.261220	15.121822	-0.623687	0.577983	2.779137	0.000000	0.073435	0.000000	-0.000006	-0.000001	0.000000	0.000000
56.130095	20.600772	14.775643	0.008923	0.056234	2.796839	0.000000	-0.009049	0.000000	-0.000006	-0.000001	0.000000	0.000000
56.428668	20.631923	14.725096	-0.059428	0.074453	2.796320	0.000000	-0.001741	0.000000	-0.000007	-0.000001	0.000000	0.000000
56.762001	20.676946	14.683048	-0.075641	0.051691	2.795740	0.000000	-0.001741	0.000000	-0.000007	-0.000001	0.000000	0.000000
57.095334	20.732778	14.656175	-0.091854	0.028928	2.795160	0.000000	-0.001741	0.000000	-0.000007	-0.000001	0.000000	0.000000
57.429918	20.799689	14.644462	-0.108129	0.006080	2.794578	0.000000	-0.001741	0.000000	-0.000008	-0.000001	0.000000	0.000000
57.727240	20.868287	14.646883	-0.177119	0.024049	2.794061	0.000000	0.005560	0.000000	-0.000008	-0.000001	0.000000	0.000000
58.276300	20.706791	14.901694	0.469509	-0.490874	2.774474	0.000000	-0.076803	0.000000	-0.000009	-0.000001	0.000000	0.000000
58.825360	19.849309	15.737718	1.082973	-1.040761	2.709973	0.000000	-0.157804	0.000000	-0.000009	-0.000001	0.000000	0.000000
59.374420	18.356410	17.214504	1.619941	-1.664778	2.601702	0.000000	-0.236006	0.000000	-0.000009	-0.000000	0.000000	0.000000
59.923480	16.333544	19.437240	2.042485	-2.407374	2.451580	0.000000	-0.310022	0.000000	-0.000009	0.000000	0.000000	0.000000
60.369440	14.750292	21.412799	1.520298	-2.003829	2.328613	0.000000	-0.241738	0.000000	-0.000009	-0.000000	0.000000	0.000000
60.810400	13.611613	22.968391	1.071771	-1.510487	2.236464	0.000000	-0.176606	0.000000	-0.000010	-0.000000	0.000000	0.000000
61.251360	12.845494	24.056812	0.672210	-0.948419	2.172566	0.000000	-0.113485	0.000000	-0.000010	-0.000001	0.000000	0.000000
61.692320	12.416932	24.628539	0.303359	-0.343199	2.136191	0.000000	-0.051656	0.000000	-0.000010	-0.000001	0.000000	0.000000
62.134530	12.306403	24.657017	-0.021551	0.217110	2.126930	0.000000	0.004368	0.000000	-0.000011	-0.000001	0.000000	0.000000
62.431853	12.326405	24.531668	-0.045722	0.204483	2.128229	0.000000	0.004368	0.000000	-0.000011	-0.000001	0.000000	0.000000
62.765186	12.365919	24.400065	-0.072821	0.190327	2.129685	0.000000	0.004368	0.000000	-0.000011	-0.000001	0.000000	0.000000
63.098520	12.423499	24.277898	-0.099919	0.176171	2.131142	0.000000	0.004368	0.000000	-0.000012	-0.000001	0.000000	0.000000
63.433103	12.499463	24.164765	-0.127120	0.161962	2.132604	0.000000	0.004368	0.000000	-0.000012	-0.000001	0.000000	0.000000
63.730426	12.582241	24.072209	-0.120432	0.090296	2.133903	0.000000	-0.000865	0.000000	-0.000012	-0.000001	0.000000	0.000000
64.171386	12.848708	23.727476	-0.486151	0.688507	2.147062	0.000000	0.060605	0.000000	-0.000013	-0.000001	0.000000	0.000000
64.612346	13.446248	22.867021	-0.874080	1.255392	2.187454	0.000000	0.122766	0.000000	-0.000014	-0.000002	0.000000	0.000000
65.053306	14.402160	21.529992	-1.301943	1.765157	2.255538	0.000000	0.186325	0.000000	-0.000015	-0.000002	0.000000	0.000000
65.494266	15.760117	19.777224	-1.789289	2.194609	2.352091	0.000000	0.252006	0.000000	-0.000016	-0.000003	0.000000	0.000000
65.940226	17.605323	17.663668	-2.363073	2.524960	2.479783	0.000000	0.320959	0.000000	-0.000017	-0.000003	0.000000	0.000000
66.489286	19.970803	15.299301	-1.919663	1.806668	2.635644	0.000000	0.245937	0.000000	-0.000018	-0.000002	0.000000	0.000000
67.038346	21.771574	13.648835	-1.340659	1.217061	2.749052	0.000000	0.166552	0.000000	-0.000020	-0.000002	0.000000	0.000000
67.587406	22.880439	12.594711	-0.666957	0.714142	2.817997	0.000000	0.084213	0.000000	-0.000020	-0.000001	0.000000	0.000000
68.136466	23.219073	12.061846	0.053855	0.262090	2.841255	0.000000	0.000380	0.000000	-0.000021	-0.000001	0.000000	0.000000
68.435038	23.226986	11.894545	-0.019682	0.266724	2.843585	0.000000	0.007805	0.000000	-0.000021	-0.000001	0.000000	0.000000
68.768372	23.244893	11.726736	-0.034039	0.236706	2.846187	0.000000	0.007805	0.000000	-0.000021	-0.000001	0.000000	0.000000
69.101705	23.272371	11.578937	-0.048395	0.206688	2.848789	0.000000	0.007805	0.000000	-0.000021	-0.000001	0.000000	0.000000
69.436288	23.309577	11.450710	-0.062806	0.176558	2.851400	0.000000	0.007805	0.000000	-0.000022	-0.000001	0.000000	0.000000
69.733611	23.350732	11.353681	-0.136634	0.179454	2.853721	0.000000	0.015263	0.000000	-0.000022	-0.000001	0.000000	0.000000
70.282671	23.099729	11.384031	0.591077	-0.235056	2.838916	0.000000	-0.069111	0.000000	-0.000022	0.000000	0.000000	0.000000
