#ParticleID	Turn	x[m]	xp	y[m]	yp	z[m]	dE[GeV]# s	beta_x	beta_y	alpha_x	alpha_y	D_x	D_y	D_px	D_py	orbit_x	orbit_px	orbit_y	orbit_py
0.300000	11.830351	24.953338	-0.013151	-0.027746	2.618256	0.000000	-0.000043	0.000000	-0.000000	0.000000	0.000000	0.000000
0.601250	11.845947	24.973694	-0.038620	-0.039828	2.618243	0.000000	-0.000043	0.000000	-0.000000	0.000000	0.000000	0.000000
0.898573	11.876385	25.000923	-0.034632	-0.113061	2.618230	0.000000	-0.006464	0.000000	0.000000	0.000000	0.000000	0.000000
1.339533	12.059264	24.823343	-0.381669	0.514242	2.631674	0.000000	0.067496	0.000000	0.000000	0.000000	0.000000	0.000000
1.780493	12.554705	24.100775	-0.746144	1.118147	2.677869	0.000000	0.142225	0.000000	0.000000	0.000000	0.000000	0.000000
2.221453	13.385344	22.866096	-1.144708	1.671177	2.757342	0.000000	0.218573	0.000000	0.000000	0.000000	0.000000	0.000000
2.662413	14.589131	21.175483	-1.595571	2.148171	2.870998	0.000000	0.297411	0.000000	0.000001	0.000000	0.000000	0.000000
3.108373	16.241867	19.081061	-2.123630	2.528554	3.021992	0.000000	0.380126	0.000000	0.000001	0.000000	0.000000	0.000000
3.657433	18.361180	16.728822	-1.713414	1.780853	3.205433	0.000000	0.287089	0.000000	0.000001	0.000000	0.000000	0.000000
4.206493	19.960498	15.123594	-1.182171	1.159997	3.336315	0.000000	0.188959	0.000000	0.000001	0.000000	0.000000	0.000000
4.755553	20.926852	14.151040	-0.567426	0.621766	3.412316	0.000000	0.087477	0.000000	0.000001	0.000000	0.000000	0.000000
5.304613	21.191985	13.741886	0.087400	0.127822	3.432090	0.000000	-0.015556	0.000000	0.000001	0.000000	0.000000	0.000000
5.603185	21.177070	13.650779	0.017926	0.141417	3.430123	0.000000	-0.006588	0.000000	0.000001	0.000000	0.000000	0.000000
5.936519	21.170367	13.564803	0.002181	0.116510	3.427927	0.000000	-0.006588	0.000000	0.000001	0.000000	0.000000	0.000000
6.269852	21.174162	13.495432	-0.013565	0.091603	3.425731	0.000000	-0.006588	0.000000	0.000002	0.000000	0.000000	0.000000
6.604435	21.188527	13.442499	-0.029369	0.066603	3.423526	0.000000	-0.006588	0.000000	0.000002	0.000000	0.000000	0.000000
6.901758	21.210166	13.409499	-0.098831	0.079423	3.421567	0.000000	0.002351	0.000000	0.000002	0.000000	0.000000	0.000000
7.450818	20.957135	13.582791	0.556948	-0.396900	3.394658	0.000000	-0.100225	0.000000	0.000002	0.000000	0.000000	0.000000
7.999878	20.001421	14.291503	1.173386	-0.901493	3.311834	0.000000	-0.201024	0.000000	0.000002	0.000000	0.000000	0.000000
8.548938	18.410530	15.586117	1.706942	-1.470298	3.174565	0.000000	-0.298257	0.000000	0.000002	0.000000	0.000000	0.000000
9.097998	16.296837	17.558845	2.119928	-2.143828	2.985284	0.000000	-0.390200	0.000000	0.000002	-0.000000	0.000000	0.000000
9.543958	14.647644	19.316710	1.591292	-1.781269	2.829576	0.000000	-0.308498	0.000000	0.000002	0.000000	0.000000	0.000000
9.984918	13.447956	20.697832	1.139656	-1.338892	2.710786	0.000000	-0.230794	0.000000	0.000002	0.000000	0.000000	0.000000
10.425878	12.622198	21.660357	0.740087	-0.835596	2.625649	0.000000	-0.155719	0.000000	0.000002	0.000000	0.000000	0.000000
10.866838	12.132642	22.160491	0.374330	-0.294282	2.573194	0.000000	-0.082417	0.000000	0.000002	0.000000	0.000000	0.000000
11.309048	11.956785	22.174964	0.054892	0.205984	2.552805	0.000000	-0.016314	0.000000	0.000002	0.000000	0.000000	0.000000
11.606371	11.931560	22.056632	0.029950	0.192007	2.547955	0.000000	-0.016314	0.000000	0.000002	0.000000	0.000000	0.000000
12.086371	11.922135	21.883137	-0.010315	0.169442	2.540124	0.000000	-0.016314	0.000000	0.000002	0.000000	0.000000	0.000000
12.566371	11.951365	21.731303	-0.050581	0.146878	2.532293	0.000000	-0.016314	0.000000	0.000002	0.000000	0.000000	0.000000
13.046371	12.019250	21.601131	-0.090846	0.124313	2.524462	0.000000	-0.016314	0.000000	0.000002	0.000000	0.000000	0.000000
13.526371	12.125790	21.492622	-0.131112	0.101749	2.516631	0.000000	-0.016314	0.000000	0.000003	0.000000	0.000000	0.000000
14.007621	12.271413	21.405576	-0.171482	0.079126	2.508780	0.000000	-0.016314	0.000000	0.000003	0.000000	0.000000	0.000000
14.304943	12.380800	21.362680	-0.166063	0.012763	2.503929	0.000000	-0.022454	0.000000	0.000003	0.000000	0.000000	0.000000
14.745903	12.685978	21.117582	-0.528638	0.540949	2.509657	0.000000	0.048460	0.000000	0.000003	0.000000	0.000000	0.000000
15.186863	13.320320	20.415782	-0.915366	1.044523	2.546747	0.000000	0.119925	0.000000	0.000003	0.000000	0.000000	0.000000
15.627823	14.312807	19.289210	-1.343914	1.500572	2.615622	0.000000	0.192757	0.000000	0.000003	0.000000	0.000000	0.000000
16.068783	15.708783	17.789124	-1.833861	1.888346	2.717065	0.000000	0.267784	0.000000	0.000003	0.000001	0.000000	0.000000
16.514743	17.595681	15.962277	-2.412351	2.190951	2.853927	0.000000	0.346323	0.000000	0.000004	0.000001	0.000000	0.000000
17.063803	20.018876	13.922307	-1.974877	1.546365	3.020353	0.000000	0.259007	0.000000	0.000004	0.000000	0.000000	0.000000
17.612863	21.881765	12.525896	-1.397907	1.011923	3.137503	0.000000	0.167096	0.000000	0.000004	0.000000	0.000000	0.000000
18.161923	23.052761	11.673581	-0.722196	0.549558	3.203300	0.000000	0.072222	0.000000	0.000004	0.000000	0.000000	0.000000
18.710983	23.449151	11.304651	0.004527	0.126337	3.216576	0.000000	-0.023933	0.000000	0.000004	0.000000	0.000000	0.000000
19.009556	23.486846	11.219650	-0.069513	0.128820	3.211939	0.000000	-0.015529	0.000000	0.000005	0.000000	0.000000	0.000000
19.342889	23.537941	11.143837	-0.083774	0.098617	3.206763	0.000000	-0.015529	0.000000	0.000005	0.000000	0.000000	0.000000
19.676223	23.598544	11.088160	-0.098035	0.068414	3.201586	0.000000	-0.015529	0.000000	0.000005	0.000000	0.000000	0.000000
20.010806	23.669228	11.052386	-0.229620	0.092858	3.196410	0.000000	0.000307	0.000000	0.000005	0.000000	0.000000	0.000000
20.308129	23.809702	11.005236	-0.305051	0.094479	3.196501	0.000000	0.008659	0.000000	0.000005	0.000000	0.000000	0.000000
20.857189	23.734037	11.124029	0.442043	-0.312113	3.175042	0.000000	-0.086713	0.000000	0.000005	-0.000000	0.000000	0.000000
21.406249	22.850334	11.698824	1.157914	-0.740937	3.101562	0.000000	-0.180548	0.000000	0.000005	-0.000000	0.000000	0.000000
21.955309	21.221011	12.770562	1.791996	-1.222536	2.977367	0.000000	-0.271180	0.000000	0.000004	-0.000000	0.000000	0.000000
22.504369	18.961157	14.415581	2.299500	-1.791213	2.804658	0.000000	-0.357002	0.000000	0.000004	-0.000000	0.000000	0.000000
22.950329	17.180346	15.892342	1.707805	-1.506238	2.662740	0.000000	-0.279806	0.000000	0.000004	-0.000000	0.000000	0.000000
23.391289	15.903479	17.069700	1.198833	-1.153588	2.555676	0.000000	-0.206252	0.000000	0.000004	-0.000000	0.000000	0.000000
23.832249	15.049728	17.911626	0.744632	-0.748451	2.480498	0.000000	-0.135047	0.000000	0.000004	-0.000000	0.000000	0.000000
24.273209	14.580086	18.379816	0.324451	-0.309259	2.436350	0.000000	-0.065380	0.000000	0.000004	-0.000000	0.000000	0.000000
24.715418	14.473213	18.452719	-0.045502	0.098684	2.422726	0.000000	-0.002399	0.000000	0.000004	0.000000	0.000000	0.000000
25.012741	14.506391	18.398874	-0.066088	0.082415	2.422013	0.000000	-0.002399	0.000000	0.000004	0.000000	0.000000	0.000000
25.346075	14.558142	18.350011	-0.089167	0.064174	2.421213	0.000000	-0.002399	0.000000	0.000004	0.000000	0.000000	0.000000
25.679408	14.625280	18.313308	-0.112245	0.045934	2.420414	0.000000	-0.002399	0.000000	0.000004	0.000000	0.000000	0.000000
26.013991	14.707843	18.289067	-0.016091	-0.120744	2.419587	0.000000	-0.022028	0.000000	0.000004	0.000000	0.000000	0.000000
26.311314	14.723423	18.365771	-0.000207	-0.182274	2.413037	0.000000	-0.027945	0.000000	0.000004	0.000000	0.000000	0.000000
26.752274	14.905031	18.327291	-0.413203	0.269205	2.415822	0.000000	0.040588	0.000000	0.000004	0.000000	0.000000	0.000000
27.193234	15.457786	17.894543	-0.845077	0.708437	2.448900	0.000000	0.109583	0.000000	0.000004	0.000000	0.000000	0.000000
27.634194	16.406940	17.087217	-1.315560	1.115435	2.512648	0.000000	0.179826	0.000000	0.000004	0.000000	0.000000	0.000000
28.075154	17.795858	15.942044	-1.846148	1.471681	2.607792	0.000000	0.252117	0.000000	0.000004	0.000000	0.000000	0.000000
28.521114	19.712132	14.493884	-2.466037	1.761881	2.737019	0.000000	0.327723	0.000000	0.000004	0.000001	0.000000	0.000000
29.070174	22.147723	12.880191	-1.943632	1.194476	2.894299	0.000000	0.244343	0.000000	0.000005	0.000000	0.000000	0.000000
29.619234	23.930406	11.839482	-1.283939	0.712150	3.004540	0.000000	0.156628	0.000000	0.000005	0.000000	0.000000	0.000000
30.168294	24.934261	11.297628	-0.533554	0.280550	3.065785	0.000000	0.066136	0.000000	0.000005	0.000000	0.000000	0.000000
30.717354	25.088381	11.216036	0.254518	-0.131068	3.076949	0.000000	-0.025530	0.000000	0.000005	-0.000000	0.000000	0.000000
31.015927	24.979219	11.284834	0.176644	-0.128660	3.071727	0.000000	-0.017491	0.000000	0.000005	-0.000000	0.000000	0.000000
31.349260	24.866043	11.380616	0.162883	-0.158687	3.065897	0.000000	-0.017491	0.000000	0.000005	-0.000000	0.000000	0.000000
31.682593	24.762042	11.496416	0.149122	-0.188714	3.060067	0.000000	-0.017491	0.000000	0.000005	-0.000000	0.000000	0.000000
32.017177	24.666876	11.632781	0.135310	-0.218854	3.054215	0.000000	-0.017491	0.000000	0.000005	-0.000000	0.000000	0.000000
32.314499	24.590064	11.770885	0.058789	-0.214883	3.049014	0.000000	-0.009524	0.000000	0.000005	-0.000000	0.000000	0.000000
32.863559	24.104269	12.246200	0.820750	-0.655916	3.018909	0.000000	-0.099978	0.000000	0.000005	-0.000000	0.000000	0.000000
33.412619	22.808786	13.228482	1.524738	-1.143668	2.939553	0.000000	-0.188658	0.000000	0.000005	-0.000000	0.000000	0.000000
33.961679	20.795123	14.787695	2.121026	-1.712881	2.812354	0.000000	-0.273992	0.000000	0.000004	-0.000001	0.000000	0.000000
34.510739	18.205514	17.034900	2.567495	-2.404100	2.639569	0.000000	-0.354466	0.000000	0.000004	-0.000001	0.000000	0.000000
34.956699	16.192122	19.044871	1.963418	-2.084146	2.497830	0.000000	-0.281551	0.000000	0.000004	-0.000001	0.000000	0.000000
35.397659	14.690852	20.706674	1.454047	-1.670115	2.389057	0.000000	-0.212270	0.000000	0.000003	-0.000000	0.000000	0.000000
35.838619	13.607925	21.968304	1.011108	-1.180095	2.310271	0.000000	-0.145407	0.000000	0.000003	-0.000000	0.000000	0.000000
36.279579	12.893866	22.772358	0.614363	-0.636382	2.260577	0.000000	-0.080200	0.000000	0.000003	-0.000000	0.000000	0.000000
36.721789	12.515361	23.082551	0.276271	-0.120371	2.239381	0.000000	-0.021398	0.000000	0.000003	-0.000000	0.000000	0.000000
37.019112	12.358680	23.158015	0.250702	-0.133438	2.233019	0.000000	-0.021398	0.000000	0.000003	-0.000000	0.000000	0.000000
37.352445	12.201101	23.251857	0.222035	-0.148089	2.225887	0.000000	-0.021398	0.000000	0.000003	-0.000000	0.000000	0.000000
37.685779	12.062634	23.355466	0.193368	-0.162739	2.218754	0.000000	-0.021398	0.000000	0.000003	-0.000000	0.000000	0.000000
38.020362	11.942866	23.469286	0.164594	-0.177444	2.211595	0.000000	-0.021398	0.000000	0.000003	-0.000000	0.000000	0.000000
38.317684	11.852593	23.578687	0.168089	-0.248332	2.205233	0.000000	-0.026805	0.000000	0.000003	-0.000000	0.000000	0.000000
38.758644	11.855536	23.536551	-0.174788	0.343524	2.207338	0.000000	0.036361	0.000000	0.000003	-0.000000	0.000000	0.000000
39.199604	12.163235	22.977369	-0.525651	0.919750	2.237362	0.000000	0.099942	0.000000	0.000003	-0.000000	0.000000	0.000000
39.640564	12.789747	21.926586	-0.900530	1.454128	2.295646	0.000000	0.164662	0.000000	0.000003	-0.000000	0.000000	0.000000
40.081524	13.763696	20.432009	-1.316551	1.922344	2.382855	0.000000	0.231256	0.000000	0.000003	0.000000	0.000000	0.000000
40.527484	15.147143	18.539074	-1.796546	2.304374	2.501454	0.000000	0.300890	0.000000	0.000003	0.000000	0.000000	0.000000
41.076544	16.912830	16.411988	-1.400254	1.592544	2.646134	0.000000	0.225347	0.000000	0.000003	0.000000	0.000000	0.000000
41.625604	18.186121	15.000073	-0.905056	0.994147	2.748177	0.000000	0.145806	0.000000	0.000003	-0.000000	0.000000	0.000000
42.174664	18.877076	14.202762	-0.345929	0.466562	2.805772	0.000000	0.063679	0.000000	0.000003	-0.000000	0.000000	0.000000
42.723724	18.936891	13.963265	0.237633	-0.027792	2.817897	0.000000	-0.019577	0.000000	0.000002	-0.000000	0.000000	0.000000
43.022297	18.829409	13.964460	0.171831	-0.012693	2.814250	0.000000	-0.012215	0.000000	0.000002	-0.000000	0.000000	0.000000
43.502297	18.677049	13.993147	0.145586	-0.047072	2.808387	0.000000	-0.012215	0.000000	0.000002	-0.000000	0.000000	0.000000
43.982297	18.549884	14.054838	0.119341	-0.081450	2.802524	0.000000	-0.012215	0.000000	0.000002	-0.000000	0.000000	0.000000
44.462297	18.447913	14.149532	0.093097	-0.115829	2.796661	0.000000	-0.012215	0.000000	0.000002	-0.000000	0.000000	0.000000
44.942297	18.371138	14.277229	0.066852	-0.150207	2.790798	0.000000	-0.012215	0.000000	0.000002	-0.000000	0.000000	0.000000
45.423547	18.319683	14.438213	-0.050227	-0.113140	2.784937	0.000000	0.001583	0.000000	0.000002	-0.000000	0.000000	0.000000
45.720870	18.354388	14.511692	-0.114454	-0.096080	2.785408	0.000000	0.008861	0.000000	0.000002	-0.000000	0.000000	0.000000
46.269930	18.171014	14.897947	0.446456	-0.611556	2.767704	0.000000	-0.073252	0.000000	0.000002	-0.000000	0.000000	0.000000
46.818990	17.385443	15.870710	0.975830	-1.170591	2.705207	0.000000	-0.154066	0.000000	0.000002	-0.000000	0.000000	0.000000
47.368050	16.053166	17.499270	1.436276	-1.813005	2.599023	0.000000	-0.232148	0.000000	0.000001	-0.000000	0.000000	0.000000
47.917110	14.268287	19.899625	1.795271	-2.584555	2.451037	0.000000	-0.306111	0.000000	0.000001	-0.000000	0.000000	0.000000
48.363070	12.879168	22.033856	1.330660	-2.181026	2.329814	0.000000	-0.237820	0.000000	0.000001	-0.000000	0.000000	0.000000
48.804030	11.885806	23.742711	0.930611	-1.679533	2.239404	0.000000	-0.172634	0.000000	0.000001	-0.000000	0.000000	0.000000
49.244990	11.225245	24.973773	0.573079	-1.101621	2.177277	0.000000	-0.109414	0.000000	0.000001	-0.000000	0.000000	0.000000
49.685950	10.867305	25.671030	0.241729	-0.473587	2.142727	0.000000	-0.047440	0.000000	0.000001	-0.000000	0.000000	0.000000
50.128160	10.795764	25.802476	-0.052219	0.112671	2.135371	0.000000	0.008757	0.000000	0.000000	-0.000000	0.000000	0.000000
50.425482	10.835027	25.738947	-0.079835	0.101001	2.137975	0.000000	0.008757	0.000000	0.000000	-0.000000	0.000000	0.000000
50.758816	10.898570	25.675973	-0.110796	0.087919	2.140894	0.000000	0.008757	0.000000	0.000000	-0.000000	0.000000	0.000000
51.092149	10.982754	25.621722	-0.141756	0.074836	2.143813	0.000000	0.008757	0.000000	0.000000	-0.000000	0.000000	0.000000
51.426732	11.087785	25.576556	-0.082881	-0.145785	2.146721	0.000000	-0.008659	0.000000	-0.000000	-0.000000	0.000000	0.000000
51.724055	11.145098	25.666777	-0.082550	-0.220600	2.144147	0.000000	-0.013917	0.000000	-0.000000	-0.000000	0.000000	0.000000
52.165015	11.363382	25.575810	-0.414350	0.426108	2.151598	0.000000	0.047744	0.000000	-0.000000	-0.000000	0.000000	0.000000
52.605975	11.881498	24.920901	-0.765080	1.053429	2.186334	0.000000	0.109949	0.000000	-0.000000	-0.000000	0.000000	0.000000
53.046935	12.723116	23.731848	-1.150765	1.632819	2.248749	0.000000	0.173406	0.000000	-0.000001	-0.000000	0.000000	0.000000
53.487895	13.926688	22.062752	-1.589025	2.137918	2.339554	0.000000	0.238838	0.000000	-0.000001	-0.000000	0.000000	0.000000
53.933855	15.567827	19.964598	-2.104121	2.547077	2.461289	0.000000	0.307389	0.000000	-0.000001	-0.000000	0.000000	0.000000
54.482915	17.680686	17.603739	-1.721239	1.778122	2.609884	0.000000	0.233084	0.000000	-0.000001	-0.000000	0.000000	0.000000
55.031975	19.303439	16.013200	-1.216777	1.135819	2.716484	0.000000	0.154644	0.000000	-0.000001	-0.000000	0.000000	0.000000
55.581035	20.321462	15.079688	-0.626368	0.574418	2.779198	0.000000	0.073461	0.000000	-0.000001	-0.000000	0.000000	0.000000
56.130095	20.662848	14.736711	0.008284	0.053931	2.796914	0.000000	-0.009025	0.000000	-0.000001	-0.000000	0.000000	0.000000
56.428668	20.694464	14.687615	-0.060185	0.072002	2.796401	0.000000	-0.001717	0.000000	-0.000002	-0.000000	0.000000	0.000000
56.762001	20.739976	14.647218	-0.076350	0.049189	2.795829	0.000000	-0.001717	0.000000	-0.000002	-0.000000	0.000000	0.000000
57.095334	20.796264	14.622029	-0.092516	0.026377	2.795256	0.000000	-0.001717	0.000000	-0.000002	-0.000000	0.000000	0.000000
57.429918	20.863602	14.612040	-0.108742	0.003479	2.794682	0.000000	-0.001717	0.000000	-0.000002	-0.000000	0.000000	0.000000
57.727240	20.932553	14.616021	-0.177855	0.021320	2.794171	0.000000	0.005584	0.000000	-0.000002	-0.000000	0.000000	0.000000
58.276300	20.770679	14.873355	0.470929	-0.492768	2.774596	0.000000	-0.076783	0.000000	-0.000002	-0.000000	0.000000	0.000000
58.825360	19.910494	15.711066	1.086449	-1.041955	2.710104	0.000000	-0.157788	0.000000	-0.000002	-0.000000	0.000000	0.000000
59.374420	18.412755	17.188821	1.625228	-1.665359	2.601840	0.000000	-0.235995	0.000000	-0.000002	-0.000000	0.000000	0.000000
59.923480	16.383255	19.411878	2.049209	-2.407382	2.451723	0.000000	-0.310015	0.000000	-0.000002	0.000000	0.000000	0.000000
60.369440	14.794679	21.387828	1.525554	-2.004695	2.328759	0.000000	-0.241728	0.000000	-0.000002	-0.000000	0.000000	0.000000
60.810400	13.651916	22.944546	1.075811	-1.512166	2.236616	0.000000	-0.176592	0.000000	-0.000002	-0.000000	0.000000	0.000000
61.251360	12.882700	24.034780	0.675219	-0.950834	2.172725	0.000000	-0.113466	0.000000	-0.000002	-0.000000	0.000000	0.000000
61.692320	12.451888	24.608923	0.305475	-0.346241	2.136358	0.000000	-0.051633	0.000000	-0.000002	-0.000000	0.000000	0.000000
62.134530	12.339846	24.640318	-0.020152	0.213626	2.127108	0.000000	0.004395	0.000000	-0.000002	-0.000000	0.000000	0.000000
62.431853	12.358996	24.517038	-0.044256	0.201009	2.128415	0.000000	0.004395	0.000000	-0.000002	-0.000000	0.000000	0.000000
62.765186	12.397508	24.387747	-0.071280	0.186863	2.129880	0.000000	0.004395	0.000000	-0.000002	-0.000000	0.000000	0.000000
63.098520	12.454036	24.267887	-0.098304	0.172718	2.131345	0.000000	0.004395	0.000000	-0.000002	-0.000000	0.000000	0.000000
63.433103	12.528893	24.157060	-0.125429	0.158520	2.132815	0.000000	0.004395	0.000000	-0.000003	-0.000000	0.000000	0.000000
63.730426	12.610646	24.066548	-0.118607	0.086883	2.134122	0.000000	-0.000839	0.000000	-0.000003	-0.000000	0.000000	0.000000
64.171386	12.875774	23.724864	-0.484927	0.685033	2.147294	0.000000	0.060638	0.000000	-0.000003	-0.000000	0.000000	0.000000
64.612346	13.472478	22.867441	-0.873401	1.252015	2.187701	0.000000	0.122805	0.000000	-0.000003	-0.000000	0.000000	0.000000
65.053306	14.428020	21.533291	-1.301778	1.762031	2.255804	0.000000	0.186370	0.000000	-0.000003	-0.000000	0.000000	0.000000
65.494266	15.786056	19.783116	-1.789630	2.191876	2.352377	0.000000	0.252059	0.000000	-0.000003	-0.000001	0.000000	0.000000
65.940226	17.631799	17.671773	-2.363939	2.522750	2.480093	0.000000	0.321020	0.000000	-0.000003	-0.000001	0.000000	0.000000
66.489286	19.997655	15.309756	-1.919474	1.804572	2.635983	0.000000	0.245986	0.000000	-0.000004	-0.000000	0.000000	0.000000
67.038346	21.797642	13.661598	-1.339427	1.214929	2.749415	0.000000	0.166590	0.000000	-0.000004	-0.000000	0.000000	0.000000
67.587406	22.904618	12.609904	-0.664769	0.711823	2.818377	0.000000	0.084239	0.000000	-0.000004	-0.000000	0.000000	0.000000
68.136466	23.240393	12.079764	0.056844	0.259418	2.841645	0.000000	0.000394	0.000000	-0.000004	-0.000000	0.000000	0.000000
68.435038	23.246546	11.914010	-0.016728	0.264172	2.843980	0.000000	0.007819	0.000000	-0.000004	-0.000000	0.000000	0.000000
68.768372	23.262479	11.747872	-0.031071	0.234241	2.846586	0.000000	0.007819	0.000000	-0.000004	-0.000000	0.000000	0.000000
69.101705	23.287974	11.601688	-0.045414	0.204311	2.849192	0.000000	0.007819	0.000000	-0.000004	-0.000000	0.000000	0.000000
69.436288	23.323181	11.475022	-0.059811	0.174268	2.851808	0.000000	0.007819	0.000000	-0.000004	-0.000000	0.000000	0.000000
69.733611	23.362551	11.379332	-0.133649	0.177304	2.854133	0.000000	0.015276	0.000000	-0.000004	-0.000000	0.000000	0.000000
70.282671	23.108083	11.412445	0.594366	-0.237968	2.839332	0.000000	-0.069111	0.000000	-0.000004	0.000000	0.000000	0.000000
