#ParticleID	Turn	x[m]	xp	y[m]	yp	z[m]	dE[GeV]# s	beta_x	beta_y	alpha_x	alpha_y	D_x	D_y	D_px	D_py	orbit_x	orbit_px	orbit_y	orbit_py
0.300000	11.834570	24.939112	-0.013735	-0.027788	2.618351	0.000000	-0.000078	0.000000	-0.000001	0.000000	0.000000	0.000000
0.601250	11.850515	24.959496	-0.039195	-0.039876	2.618327	0.000000	-0.000078	0.000000	-0.000001	0.000000	0.000000	0.000000
0.898573	11.881293	24.986756	-0.035186	-0.113083	2.618303	0.000000	-0.006499	0.000000	-0.000001	0.000000	0.000000	0.000000
1.339533	12.064714	24.809360	-0.382350	0.513846	2.631732	0.000000	0.067462	0.000000	-0.000001	0.000000	0.000000	0.000000
1.780493	12.560821	24.087300	-0.746982	1.117396	2.677912	0.000000	0.142192	0.000000	-0.000001	0.000000	0.000000	0.000000
2.221453	13.392282	22.853428	-1.145742	1.670105	2.757371	0.000000	0.218542	0.000000	-0.000001	0.000000	0.000000	0.000000
2.662413	14.597084	21.163885	-1.596847	2.146825	2.871014	0.000000	0.297380	0.000000	-0.000001	0.000000	0.000000	0.000000
3.108373	16.251088	19.070763	-2.125210	2.526997	3.021995	0.000000	0.380096	0.000000	-0.000001	0.000000	0.000000	0.000000
3.657433	18.372019	16.720011	-1.714763	1.779689	3.205418	0.000000	0.287058	0.000000	-0.000001	0.000000	0.000000	0.000000
4.206493	19.972646	15.115884	-1.183194	1.159144	3.336284	0.000000	0.188929	0.000000	-0.000001	0.000000	0.000000	0.000000
4.755553	20.939910	14.144124	-0.568050	0.621163	3.412270	0.000000	0.087449	0.000000	-0.000001	0.000000	0.000000	0.000000
5.304613	21.205487	13.735516	0.087218	0.127426	3.432028	0.000000	-0.015582	0.000000	-0.000001	0.000000	0.000000	0.000000
5.603185	21.190699	13.644657	0.017718	0.140997	3.430053	0.000000	-0.006615	0.000000	-0.000000	0.000000	0.000000	0.000000
5.936519	21.184132	13.558964	0.001983	0.116082	3.427848	0.000000	-0.006615	0.000000	-0.000000	0.000000	0.000000	0.000000
6.269852	21.188056	13.489881	-0.013753	0.091167	3.425643	0.000000	-0.006615	0.000000	-0.000000	0.000000	0.000000	0.000000
6.604435	21.202543	13.437243	-0.029547	0.066158	3.423430	0.000000	-0.006615	0.000000	-0.000000	0.000000	0.000000	0.000000
6.901758	21.224286	13.404510	-0.099037	0.078958	3.421463	0.000000	0.002325	0.000000	-0.000000	0.000000	0.000000	0.000000
7.450818	20.971220	13.578235	0.557216	-0.397231	3.394540	0.000000	-0.100248	0.000000	-0.000000	0.000000	0.000000	0.000000
7.999878	20.014958	14.287249	1.174110	-0.901714	3.311705	0.000000	-0.201043	0.000000	-0.000000	0.000000	0.000000	0.000000
8.548938	18.423044	15.582052	1.708071	-1.470424	3.174426	0.000000	-0.298272	0.000000	-0.000000	0.000000	0.000000	0.000000
9.097998	16.307923	17.554870	2.121382	-2.143869	2.985138	0.000000	-0.390210	0.000000	0.000000	0.000000	0.000000	0.000000
9.543958	14.657582	19.312834	1.592423	-1.781447	2.829425	0.000000	-0.308512	0.000000	0.000000	0.000000	0.000000	0.000000
9.984918	13.457019	20.694171	1.140517	-1.339199	2.710627	0.000000	-0.230812	0.000000	0.000000	0.000000	0.000000	0.000000
10.425878	12.630605	21.657019	0.740719	-0.836019	2.625481	0.000000	-0.155741	0.000000	0.000000	0.000000	0.000000	0.000000
10.866838	12.140582	22.157569	0.374761	-0.294800	2.573016	0.000000	-0.082444	0.000000	0.000000	0.000000	0.000000	0.000000
11.309048	11.964425	22.172535	0.055161	0.205398	2.552614	0.000000	-0.016345	0.000000	0.000000	0.000000	0.000000	0.000000
11.606371	11.939035	22.054550	0.030235	0.191423	2.547754	0.000000	-0.016345	0.000000	0.000001	0.000000	0.000000	0.000000
12.086371	11.929325	21.881614	-0.010006	0.168861	2.539908	0.000000	-0.016345	0.000000	0.000001	0.000000	0.000000	0.000000
12.566371	11.958246	21.730337	-0.050247	0.146300	2.532062	0.000000	-0.016345	0.000000	0.000001	0.000000	0.000000	0.000000
13.046371	12.025799	21.600719	-0.090488	0.123738	2.524216	0.000000	-0.016345	0.000000	0.000001	0.000000	0.000000	0.000000
13.526371	12.131983	21.492760	-0.130729	0.101176	2.516371	0.000000	-0.016345	0.000000	0.000001	0.000000	0.000000	0.000000
14.007621	12.277227	21.406264	-0.171075	0.078556	2.508504	0.000000	-0.016345	0.000000	0.000001	0.000000	0.000000	0.000000
14.304943	12.386367	21.363706	-0.165626	0.012191	2.503644	0.000000	-0.022485	0.000000	0.000001	0.000000	0.000000	0.000000
14.745903	12.691210	21.119097	-0.528315	0.540418	2.509357	0.000000	0.048421	0.000000	0.000001	0.000000	0.000000	0.000000
15.186863	13.325311	20.417738	-0.915141	1.044057	2.546429	0.000000	0.119879	0.000000	0.000001	0.000000	0.000000	0.000000
15.627823	14.317638	19.291540	-1.343776	1.500192	2.615281	0.000000	0.192702	0.000000	0.000001	0.000000	0.000000	0.000000
16.068783	15.713530	17.791746	-1.833806	1.888069	2.716699	0.000000	0.267720	0.000000	0.000002	0.000000	0.000000	0.000000
16.514743	17.600413	15.965094	-2.412374	2.190791	2.853530	0.000000	0.346250	0.000000	0.000002	0.000000	0.000000	0.000000
17.063803	20.023521	13.925319	-1.974695	1.546167	3.019920	0.000000	0.258947	0.000000	0.000002	0.000000	0.000000	0.000000
17.612863	21.886102	12.529152	-1.397533	1.011674	3.137041	0.000000	0.167051	0.000000	0.000002	0.000000	0.000000	0.000000
18.161923	23.056593	11.677146	-0.721656	0.549240	3.202817	0.000000	0.072192	0.000000	0.000002	0.000000	0.000000	0.000000
18.710983	23.452316	11.308615	0.005195	0.125927	3.216081	0.000000	-0.023948	0.000000	0.000002	0.000000	0.000000	0.000000
19.009556	23.489617	11.223848	-0.068852	0.128433	3.211439	0.000000	-0.015545	0.000000	0.000002	0.000000	0.000000	0.000000
19.342889	23.540271	11.148289	-0.083110	0.098244	3.206258	0.000000	-0.015545	0.000000	0.000002	0.000000	0.000000	0.000000
19.676223	23.600430	11.092856	-0.097368	0.068056	3.201076	0.000000	-0.015545	0.000000	0.000002	0.000000	0.000000	0.000000
20.010806	23.670667	11.057317	-0.228957	0.092539	3.195895	0.000000	0.000289	0.000000	0.000002	0.000000	0.000000	0.000000
20.308129	23.810745	11.010352	-0.304388	0.094187	3.195981	0.000000	0.008640	0.000000	0.000003	0.000000	0.000000	0.000000
20.857189	23.734336	11.129547	0.442727	-0.312557	3.174515	0.000000	-0.086716	0.000000	0.000003	0.000000	0.000000	0.000000
21.406249	22.849893	11.704925	1.158570	-0.741562	3.101039	0.000000	-0.180533	0.000000	0.000003	-0.000000	0.000000	0.000000
21.955309	21.219887	12.777470	1.792577	-1.223388	2.976856	0.000000	-0.271148	0.000000	0.000003	-0.000000	0.000000	0.000000
22.504369	18.959455	14.423576	2.299965	-1.792353	2.804169	0.000000	-0.356954	0.000000	0.000002	-0.000000	0.000000	0.000000
22.950329	17.178234	15.901278	1.708262	-1.507199	2.662269	0.000000	-0.279771	0.000000	0.000002	-0.000000	0.000000	0.000000
23.391289	15.900960	17.079388	1.199302	-1.154326	2.555218	0.000000	-0.206229	0.000000	0.000002	-0.000000	0.000000	0.000000
23.832249	15.046781	17.921855	0.745135	-0.748933	2.480048	0.000000	-0.135035	0.000000	0.000002	-0.000000	0.000000	0.000000
24.273209	14.576672	18.390348	0.325011	-0.309464	2.435902	0.000000	-0.065380	0.000000	0.000002	0.000000	0.000000	0.000000
24.715418	14.469268	18.463305	-0.044868	0.098740	2.422275	0.000000	-0.002409	0.000000	0.000002	0.000000	0.000000	0.000000
25.012741	14.502071	18.409424	-0.065458	0.082480	2.421559	0.000000	-0.002409	0.000000	0.000002	0.000000	0.000000	0.000000
25.346075	14.553404	18.360514	-0.088542	0.064250	2.420756	0.000000	-0.002409	0.000000	0.000002	0.000000	0.000000	0.000000
25.679408	14.620127	18.323757	-0.111626	0.046020	2.419953	0.000000	-0.002409	0.000000	0.000002	0.000000	0.000000	0.000000
26.013991	14.702277	18.299455	-0.015521	-0.120732	2.419122	0.000000	-0.022035	0.000000	0.000003	0.000000	0.000000	0.000000
26.311314	14.717521	18.376149	0.000342	-0.182279	2.412571	0.000000	-0.027951	0.000000	0.000003	0.000000	0.000000	0.000000
26.752274	14.898580	18.337549	-0.412501	0.269481	2.415350	0.000000	0.040570	0.000000	0.000003	0.000000	0.000000	0.000000
27.193234	15.450636	17.904439	-0.844189	0.708981	2.448418	0.000000	0.109552	0.000000	0.000003	0.000000	0.000000	0.000000
27.634194	16.398910	17.096523	-1.314446	1.116222	2.512149	0.000000	0.179783	0.000000	0.000003	0.000000	0.000000	0.000000
28.075154	17.786727	15.950561	-1.844756	1.472676	2.607272	0.000000	0.252061	0.000000	0.000003	0.000000	0.000000	0.000000
28.521114	19.701611	14.501437	-2.464301	1.763039	2.736470	0.000000	0.327653	0.000000	0.000003	0.000000	0.000000	0.000000
29.070174	22.135431	12.886633	-1.942162	1.195354	2.893717	0.000000	0.244291	0.000000	0.000003	0.000000	0.000000	0.000000
29.619234	23.916695	11.845084	-1.282838	0.712812	3.003935	0.000000	0.156596	0.000000	0.000003	0.000000	0.000000	0.000000
30.168294	24.919582	11.302601	-0.532902	0.281041	3.065168	0.000000	0.066123	0.000000	0.000004	0.000000	0.000000	0.000000
30.717354	25.073254	11.220546	0.254677	-0.130712	3.076331	0.000000	-0.025522	0.000000	0.000004	-0.000000	0.000000	0.000000
31.015927	24.963976	11.289120	0.176833	-0.128278	3.071110	0.000000	-0.017485	0.000000	0.000004	0.000000	0.000000	0.000000
31.349260	24.850678	11.384643	0.163063	-0.158291	3.065282	0.000000	-0.017485	0.000000	0.000004	0.000000	0.000000	0.000000
31.682593	24.746559	11.500175	0.149293	-0.188304	3.059454	0.000000	-0.017485	0.000000	0.000004	0.000000	0.000000	0.000000
32.017177	24.651282	11.636261	0.135471	-0.218430	3.053604	0.000000	-0.017485	0.000000	0.000004	0.000000	0.000000	0.000000
32.314499	24.574377	11.774109	0.058982	-0.214437	3.048405	0.000000	-0.009520	0.000000	0.000004	0.000000	0.000000	0.000000
32.863559	24.088657	12.248974	0.820420	-0.655537	3.018307	0.000000	-0.099954	0.000000	0.000004	-0.000000	0.000000	0.000000
33.412619	22.793815	13.230864	1.523908	-1.143329	2.938970	0.000000	-0.188615	0.000000	0.000003	-0.000000	0.000000	0.000000
33.961679	20.781312	14.789716	2.119755	-1.712558	2.811800	0.000000	-0.273930	0.000000	0.000003	-0.000000	0.000000	0.000000
34.510739	18.193300	17.036563	2.565873	-2.403769	2.639054	0.000000	-0.354387	0.000000	0.000003	-0.000000	0.000000	0.000000
34.956699	16.181189	19.046196	1.962158	-2.083722	2.497347	0.000000	-0.281485	0.000000	0.000003	-0.000000	0.000000	0.000000
35.397659	14.680894	20.707591	1.453089	-1.669617	2.388600	0.000000	-0.212216	0.000000	0.000003	-0.000000	0.000000	0.000000
35.838619	13.598696	21.968757	1.010407	-1.179546	2.309835	0.000000	-0.145364	0.000000	0.000003	-0.000000	0.000000	0.000000
36.279579	12.885155	22.772312	0.613887	-0.635806	2.260157	0.000000	-0.080168	0.000000	0.000003	-0.000000	0.000000	0.000000
36.721789	12.506979	23.081996	0.275979	-0.119795	2.238973	0.000000	-0.021376	0.000000	0.000003	-0.000000	0.000000	0.000000
37.019112	12.350476	23.157116	0.250396	-0.132861	2.232617	0.000000	-0.021376	0.000000	0.000003	-0.000000	0.000000	0.000000
37.352445	12.193106	23.250573	0.221714	-0.147509	2.225492	0.000000	-0.021376	0.000000	0.000003	-0.000000	0.000000	0.000000
37.685779	12.054858	23.353796	0.193032	-0.162158	2.218367	0.000000	-0.021376	0.000000	0.000003	-0.000000	0.000000	0.000000
38.020362	11.935319	23.467226	0.164243	-0.176861	2.211215	0.000000	-0.021376	0.000000	0.000002	-0.000000	0.000000	0.000000
38.317684	11.845260	23.576280	0.167707	-0.247742	2.204859	0.000000	-0.026783	0.000000	0.000002	-0.000000	0.000000	0.000000
38.758644	11.848467	23.533654	-0.175007	0.344042	2.206972	0.000000	0.036375	0.000000	0.000002	-0.000000	0.000000	0.000000
39.199604	12.156291	22.974056	-0.525718	0.920173	2.236999	0.000000	0.099946	0.000000	0.000002	0.000000	0.000000	0.000000
39.640564	12.782795	21.922949	-0.900446	1.454436	2.295283	0.000000	0.164656	0.000000	0.000002	0.000000	0.000000	0.000000
40.081524	13.756603	20.428157	-1.316314	1.922524	2.382488	0.000000	0.231241	0.000000	0.000003	0.000000	0.000000	0.000000
40.527484	15.139765	18.535123	-1.796143	2.304415	2.501078	0.000000	0.300865	0.000000	0.000003	0.000000	0.000000	0.000000
41.076544	16.905158	16.407946	-1.400123	1.592670	2.645748	0.000000	0.225334	0.000000	0.000003	0.000000	0.000000	0.000000
41.625604	18.178459	14.995843	-0.905206	0.994366	2.747787	0.000000	0.145806	0.000000	0.000003	0.000000	0.000000	0.000000
42.174664	18.869730	14.198234	-0.346350	0.466890	2.805386	0.000000	0.063692	0.000000	0.000003	-0.000000	0.000000	0.000000
42.723724	18.930143	13.958307	0.236971	-0.027332	2.817521	0.000000	-0.019552	0.000000	0.000003	-0.000000	0.000000	0.000000
43.022297	18.823046	13.959237	0.171185	-0.012254	2.813881	0.000000	-0.012191	0.000000	0.000003	-0.000000	0.000000	0.000000
43.502297	18.671308	13.987509	0.144937	-0.046645	2.808030	0.000000	-0.012191	0.000000	0.000003	-0.000000	0.000000	0.000000
43.982297	18.544768	14.048795	0.118689	-0.081036	2.802178	0.000000	-0.012191	0.000000	0.000003	-0.000000	0.000000	0.000000
44.462297	18.443426	14.143098	0.092441	-0.115427	2.796327	0.000000	-0.012191	0.000000	0.000003	-0.000000	0.000000	0.000000
44.942297	18.367282	14.270415	0.066193	-0.149818	2.790475	0.000000	-0.012191	0.000000	0.000003	-0.000000	0.000000	0.000000
45.423547	18.316463	14.431030	-0.050873	-0.112798	2.784626	0.000000	0.001606	0.000000	0.000002	-0.000000	0.000000	0.000000
45.720870	18.351553	14.504309	-0.115096	-0.095767	2.785103	0.000000	0.008883	0.000000	0.000002	-0.000000	0.000000	0.000000
46.269930	18.168931	14.890094	0.445736	-0.611008	2.767415	0.000000	-0.073221	0.000000	0.000002	-0.000000	0.000000	0.000000
46.818990	17.384170	15.862110	0.975084	-1.169770	2.704937	0.000000	-0.154026	0.000000	0.000002	-0.000000	0.000000	0.000000
47.368050	16.052702	17.489592	1.435557	-1.811851	2.598778	0.000000	-0.232099	0.000000	0.000002	-0.000000	0.000000	0.000000
47.917110	14.268574	19.888463	1.794629	-2.582987	2.450821	0.000000	-0.306055	0.000000	0.000002	-0.000000	0.000000	0.000000
48.363070	12.880002	22.021397	1.330072	-2.179699	2.329622	0.000000	-0.237769	0.000000	0.000002	-0.000000	0.000000	0.000000
48.804030	11.887146	23.729210	0.930047	-1.678505	2.239233	0.000000	-0.172587	0.000000	0.000002	-0.000000	0.000000	0.000000
49.244990	11.227081	24.959516	0.572514	-1.100941	2.177126	0.000000	-0.109371	0.000000	0.000001	-0.000000	0.000000	0.000000
49.685950	10.869649	25.656338	0.241138	-0.473284	2.142593	0.000000	-0.047401	0.000000	0.000001	-0.000000	0.000000	0.000000
50.128160	10.798652	25.787689	-0.052857	0.112618	2.135253	0.000000	0.008793	0.000000	0.000001	-0.000000	0.000000	0.000000
50.425482	10.838292	25.724193	-0.080467	0.100943	2.137868	0.000000	0.008793	0.000000	0.000001	-0.000000	0.000000	0.000000
50.758816	10.902255	25.661261	-0.111421	0.087853	2.140799	0.000000	0.008793	0.000000	0.000001	-0.000000	0.000000	0.000000
51.092149	10.986854	25.607056	-0.142376	0.074763	2.143729	0.000000	0.008793	0.000000	0.000001	-0.000000	0.000000	0.000000
51.426732	11.092297	25.561942	-0.083458	-0.145748	2.146650	0.000000	-0.008622	0.000000	0.000001	-0.000000	0.000000	0.000000
51.724055	11.149950	25.652142	-0.083106	-0.220532	2.144086	0.000000	-0.013880	0.000000	0.000001	-0.000000	0.000000	0.000000
52.165015	11.368779	25.561286	-0.415031	0.425789	2.151553	0.000000	0.047779	0.000000	0.000001	-0.000000	0.000000	0.000000
52.605975	11.887562	24.906825	-0.765918	1.052737	2.186303	0.000000	0.109983	0.000000	0.000001	-0.000000	0.000000	0.000000
53.046935	12.730002	23.718536	-1.151797	1.631786	2.248733	0.000000	0.173440	0.000000	0.000001	-0.000000	0.000000	0.000000
53.487895	13.934587	22.050486	-1.590299	2.136590	2.339553	0.000000	0.238871	0.000000	0.000001	-0.000000	0.000000	0.000000
53.933855	15.576993	19.953626	-2.105698	2.545514	2.461303	0.000000	0.307423	0.000000	0.000001	-0.000000	0.000000	0.000000
54.482915	17.691467	17.594250	-1.722587	1.776969	2.609916	0.000000	0.233116	0.000000	0.000001	-0.000000	0.000000	0.000000
55.031975	19.315530	16.004790	-1.217801	1.134993	2.716533	0.000000	0.154675	0.000000	0.000001	-0.000000	0.000000	0.000000
55.581035	20.334466	15.072034	-0.626996	0.573860	2.779264	0.000000	0.073490	0.000000	0.000000	-0.000000	0.000000	0.000000
56.130095	20.676302	14.729541	0.008097	0.053601	2.796995	0.000000	-0.008998	0.000000	0.000000	-0.000000	0.000000	0.000000
56.428668	20.708047	14.680656	-0.060397	0.071645	2.796490	0.000000	-0.001690	0.000000	0.000000	-0.000000	0.000000	0.000000
56.762001	20.753696	14.640500	-0.076552	0.048823	2.795927	0.000000	-0.001690	0.000000	0.000000	-0.000000	0.000000	0.000000
57.095334	20.810116	14.615559	-0.092708	0.026000	2.795364	0.000000	-0.001690	0.000000	0.000000	-0.000000	0.000000	0.000000
57.429918	20.877578	14.605825	-0.108924	0.003093	2.794798	0.000000	-0.001690	0.000000	0.000000	-0.000000	0.000000	0.000000
57.727240	20.946634	14.610038	-0.178063	0.020909	2.794296	0.000000	0.005611	0.000000	0.000000	-0.000000	0.000000	0.000000
58.276300	20.784729	14.867731	0.471194	-0.493014	2.774735	0.000000	-0.076760	0.000000	0.000000	-0.000000	0.000000	0.000000
58.825360	19.923999	15.705628	1.087169	-1.042053	2.710254	0.000000	-0.157770	0.000000	-0.000000	-0.000000	0.000000	0.000000
59.374420	18.425240	17.183413	1.626352	-1.665315	2.601998	0.000000	-0.235981	0.000000	-0.000000	-0.000000	0.000000	0.000000
59.923480	16.394319	19.406343	2.050658	-2.407194	2.451887	0.000000	-0.310007	0.000000	-0.000000	-0.000000	0.000000	0.000000
60.369440	14.804599	21.382201	1.526681	-2.004678	2.328929	0.000000	-0.241716	0.000000	-0.000000	-0.000000	0.000000	0.000000
60.810400	13.660964	22.938980	1.076669	-1.512319	2.236792	0.000000	-0.176575	0.000000	-0.000000	-0.000000	0.000000	0.000000
61.251360	12.891095	24.029422	0.675848	-0.951151	2.172909	0.000000	-0.113445	0.000000	-0.000000	-0.000000	0.000000	0.000000
61.692320	12.459818	24.603911	0.305904	-0.346707	2.136553	0.000000	-0.051607	0.000000	-0.000001	-0.000000	0.000000	0.000000
62.134530	12.347479	24.635777	-0.019886	0.213044	2.127316	0.000000	0.004426	0.000000	-0.000001	-0.000000	0.000000	0.000000
62.431853	12.366466	24.512843	-0.043975	0.200427	2.128632	0.000000	0.004426	0.000000	-0.000001	-0.000000	0.000000	0.000000
62.765186	12.404785	24.383940	-0.070982	0.186283	2.130107	0.000000	0.004426	0.000000	-0.000001	-0.000000	0.000000	0.000000
63.098520	12.461109	24.264466	-0.097989	0.172138	2.131583	0.000000	0.004426	0.000000	-0.000001	-0.000000	0.000000	0.000000
63.433103	12.535750	24.154027	-0.125097	0.157941	2.133064	0.000000	0.004426	0.000000	-0.000001	-0.000000	0.000000	0.000000
63.730426	12.617300	24.063859	-0.118244	0.086312	2.134380	0.000000	-0.000808	0.000000	-0.000001	-0.000000	0.000000	0.000000
64.171386	12.882173	23.722706	-0.484707	0.684406	2.147567	0.000000	0.060675	0.000000	-0.000001	-0.000000	0.000000	0.000000
64.612346	13.478742	22.865850	-0.873314	1.251360	2.187992	0.000000	0.122850	0.000000	-0.000001	-0.000000	0.000000	0.000000
65.053306	14.434264	21.532279	-1.301820	1.761378	2.256116	0.000000	0.186423	0.000000	-0.000001	-0.000000	0.000000	0.000000
65.494266	15.792393	19.782668	-1.789803	2.191254	2.352714	0.000000	0.252120	0.000000	-0.000001	-0.000000	0.000000	0.000000
65.940226	17.638352	17.671854	-2.364251	2.522189	2.480460	0.000000	0.321090	0.000000	-0.000002	-0.000000	0.000000	0.000000
66.489286	20.004414	15.310413	-1.919535	1.804078	2.636385	0.000000	0.246044	0.000000	-0.000002	-0.000000	0.000000	0.000000
67.038346	21.804328	13.662775	-1.339233	1.214468	2.749844	0.000000	0.166634	0.000000	-0.000002	-0.000000	0.000000	0.000000
67.587406	22.910958	12.611584	-0.664334	0.711361	2.818827	0.000000	0.084269	0.000000	-0.000002	-0.000000	0.000000	0.000000
68.136466	23.246136	12.081966	0.057490	0.258923	2.842108	0.000000	0.000409	0.000000	-0.000002	-0.000000	0.000000	0.000000
68.435038	23.251911	11.916501	-0.016093	0.263694	2.844447	0.000000	0.007835	0.000000	-0.000002	-0.000000	0.000000	0.000000
68.768372	23.267420	11.750677	-0.030433	0.233777	2.847059	0.000000	0.007835	0.000000	-0.000002	-0.000000	0.000000	0.000000
69.101705	23.292488	11.604799	-0.044772	0.203859	2.849670	0.000000	0.007835	0.000000	-0.000002	-0.000000	0.000000	0.000000
69.436288	23.327264	11.478430	-0.059165	0.173830	2.852292	0.000000	0.007835	0.000000	-0.000002	-0.000000	0.000000	0.000000
69.733611	23.366249	11.382997	-0.133009	0.176886	2.854621	0.000000	0.015294	0.000000	-0.000002	-0.000000	0.000000	0.000000
70.282671	23.111017	11.416626	0.595109	-0.238496	2.839826	0.000000	-0.069109	0.000000	-0.000002	-0.000000	0.000000	0.000000
