#ParticleID	Turn	x[m]	xp	y[m]	yp	z[m]	dE[GeV]# s	beta_x	beta_y	alpha_x	alpha_y	D_x	D_y	D_px	D_py	orbit_x	orbit_px	orbit_y	orbit_py
0.300000	11.827185	24.964872	-0.012719	-0.027693	2.618198	0.000000	-0.000020	0.000000	-0.000001	0.000000	0.000000	0.000000
0.601250	11.842523	24.985195	-0.038194	-0.039769	2.618192	0.000000	-0.000020	0.000000	-0.000000	0.000000	0.000000	0.000000
0.898573	11.872710	25.012388	-0.034221	-0.113026	2.618186	0.000000	-0.006440	0.000000	-0.000000	0.000000	0.000000	0.000000
1.339533	12.055186	24.834642	-0.381164	0.514579	2.631640	0.000000	0.067519	0.000000	-0.000000	0.000000	0.000000	0.000000
1.780493	12.550132	24.111649	-0.745522	1.118771	2.677845	0.000000	0.142247	0.000000	-0.000000	0.000000	0.000000	0.000000
2.221453	13.380160	22.876303	-1.143940	1.672060	2.757327	0.000000	0.218595	0.000000	0.000000	0.000000	0.000000	0.000000
2.662413	14.583193	21.184812	-1.594622	2.149271	2.870993	0.000000	0.297432	0.000000	0.000000	0.000000	0.000000	0.000000
3.108373	16.234984	19.089329	-2.122454	2.529823	3.021997	0.000000	0.380147	0.000000	0.000000	0.000000	0.000000	0.000000
3.657433	18.353094	16.735879	-1.712411	1.781804	3.205449	0.000000	0.287110	0.000000	0.000000	0.000000	0.000000	0.000000
4.206493	19.951439	15.129749	-1.181412	1.160698	3.336342	0.000000	0.188979	0.000000	0.000001	0.000000	0.000000	0.000000
4.755553	20.917119	14.156539	-0.566964	0.622266	3.412354	0.000000	0.087497	0.000000	0.000001	0.000000	0.000000	0.000000
5.304613	21.181923	13.746929	0.087532	0.128157	3.432138	0.000000	-0.015538	0.000000	0.000001	0.000000	0.000000	0.000000
5.603185	21.166915	13.655612	0.018078	0.141771	3.430176	0.000000	-0.006570	0.000000	0.000001	0.000000	0.000000	0.000000
5.936519	21.160115	13.569398	0.002325	0.116871	3.427986	0.000000	-0.006570	0.000000	0.000001	0.000000	0.000000	0.000000
6.269852	21.163816	13.499784	-0.013428	0.091970	3.425796	0.000000	-0.006570	0.000000	0.000001	0.000000	0.000000	0.000000
6.604435	21.178092	13.446603	-0.029240	0.066976	3.423598	0.000000	-0.006570	0.000000	0.000001	0.000000	0.000000	0.000000
6.901758	21.199658	13.413380	-0.098682	0.079812	3.421644	0.000000	0.002370	0.000000	0.000001	0.000000	0.000000	0.000000
7.450818	20.946657	13.586302	0.556743	-0.396614	3.394744	0.000000	-0.100210	0.000000	0.000001	0.000000	0.000000	0.000000
7.999878	19.991356	14.294748	1.172843	-0.901290	3.311928	0.000000	-0.201011	0.000000	0.000002	0.000000	0.000000	0.000000
8.548938	18.401231	15.589177	1.706098	-1.470163	3.174664	0.000000	-0.298247	0.000000	0.000002	0.000000	0.000000	0.000000
9.097998	16.288603	17.561789	2.118844	-2.143752	2.985388	0.000000	-0.390194	0.000000	0.000002	0.000000	0.000000	0.000000
9.543958	14.640267	19.319539	1.590448	-1.781086	2.829684	0.000000	-0.308489	0.000000	0.000002	0.000000	0.000000	0.000000
9.984918	13.441233	20.700456	1.139012	-1.338612	2.710898	0.000000	-0.230783	0.000000	0.000002	0.000000	0.000000	0.000000
10.425878	12.615966	21.662696	0.739613	-0.835232	2.625766	0.000000	-0.155704	0.000000	0.000002	0.000000	0.000000	0.000000
10.866838	12.126761	22.162478	0.374005	-0.293850	2.573319	0.000000	-0.082399	0.000000	0.000002	0.000000	0.000000	0.000000
11.309048	11.951130	22.176546	0.054687	0.206460	2.552938	0.000000	-0.016293	0.000000	0.000002	0.000000	0.000000	0.000000
11.606371	11.926030	22.057932	0.029735	0.192481	2.548094	0.000000	-0.016293	0.000000	0.000002	0.000000	0.000000	0.000000
12.086371	11.916820	21.883983	-0.010549	0.169914	2.540273	0.000000	-0.016293	0.000000	0.000002	0.000000	0.000000	0.000000
12.566371	11.946283	21.731697	-0.050832	0.147347	2.532452	0.000000	-0.016293	0.000000	0.000002	0.000000	0.000000	0.000000
13.046371	12.014419	21.601077	-0.091116	0.124780	2.524631	0.000000	-0.016293	0.000000	0.000002	0.000000	0.000000	0.000000
13.526371	12.121226	21.492120	-0.131400	0.102213	2.516810	0.000000	-0.016293	0.000000	0.000003	0.000000	0.000000	0.000000
14.007621	12.267136	21.404629	-0.171788	0.079587	2.508969	0.000000	-0.016293	0.000000	0.000003	0.000000	0.000000	0.000000
14.304943	12.376708	21.361460	-0.166390	0.013225	2.504124	0.000000	-0.022434	0.000000	0.000003	0.000000	0.000000	0.000000
14.745903	12.682137	21.115972	-0.528883	0.541368	2.509862	0.000000	0.048485	0.000000	0.000003	0.000000	0.000000	0.000000
15.186863	13.316662	20.413828	-0.915539	1.044880	2.546965	0.000000	0.119956	0.000000	0.000003	0.000000	0.000000	0.000000
15.627823	14.309273	19.286975	-1.344023	1.500850	2.615854	0.000000	0.192794	0.000000	0.000003	0.000000	0.000000	0.000000
16.068783	15.705320	17.786683	-1.833912	1.888533	2.717315	0.000000	0.267827	0.000000	0.000003	0.000001	0.000000	0.000000
16.514743	17.592237	15.959713	-2.412345	2.191037	2.854198	0.000000	0.346373	0.000000	0.000004	0.000001	0.000000	0.000000
17.063803	20.015510	13.919627	-1.975021	1.546492	3.020648	0.000000	0.259047	0.000000	0.000004	0.000001	0.000000	0.000000
17.612863	21.878635	12.523050	-1.398192	1.012101	3.137818	0.000000	0.167127	0.000000	0.000004	0.000000	0.000000	0.000000
18.161923	23.050012	11.670506	-0.722601	0.549799	3.203629	0.000000	0.072242	0.000000	0.000005	0.000000	0.000000	0.000000
18.710983	23.446900	11.301270	0.004030	0.126658	3.216913	0.000000	-0.023924	0.000000	0.000005	0.000000	0.000000	0.000000
19.009556	23.484889	11.216086	-0.070006	0.129121	3.212279	0.000000	-0.015519	0.000000	0.000005	0.000000	0.000000	0.000000
19.342889	23.536314	11.140077	-0.084269	0.098906	3.207106	0.000000	-0.015519	0.000000	0.000005	0.000000	0.000000	0.000000
19.676223	23.597248	11.084211	-0.098532	0.068691	3.201933	0.000000	-0.015519	0.000000	0.000005	0.000000	0.000000	0.000000
20.010806	23.668265	11.048256	-0.230114	0.093103	3.196761	0.000000	0.000319	0.000000	0.000005	0.000000	0.000000	0.000000
20.308129	23.809034	11.000963	-0.305547	0.094701	3.196855	0.000000	0.008672	0.000000	0.000005	0.000000	0.000000	0.000000
20.857189	23.733923	11.119445	0.441536	-0.311766	3.175399	0.000000	-0.086712	0.000000	0.000005	0.000000	0.000000	0.000000
21.406249	22.850767	11.693779	1.157431	-0.740439	3.101918	0.000000	-0.180558	0.000000	0.000005	-0.000000	0.000000	0.000000
21.955309	21.221945	12.764873	1.791571	-1.221852	2.977713	0.000000	-0.271201	0.000000	0.000005	-0.000000	0.000000	0.000000
22.504369	18.962511	14.409018	2.299164	-1.790295	2.804990	0.000000	-0.357034	0.000000	0.000004	-0.000000	0.000000	0.000000
22.950329	17.181997	15.885024	1.707473	-1.505469	2.663059	0.000000	-0.279830	0.000000	0.000004	-0.000000	0.000000	0.000000
23.391289	15.905427	17.061781	1.198489	-1.153003	2.555987	0.000000	-0.206268	0.000000	0.000004	-0.000000	0.000000	0.000000
23.832249	15.051989	17.903283	0.744261	-0.748075	2.480803	0.000000	-0.135055	0.000000	0.000004	-0.000000	0.000000	0.000000
24.273209	14.582693	18.371240	0.324036	-0.309111	2.436653	0.000000	-0.065380	0.000000	0.000004	-0.000000	0.000000	0.000000
24.715418	14.476213	18.444115	-0.045973	0.098620	2.423031	0.000000	-0.002392	0.000000	0.000004	0.000000	0.000000	0.000000
25.012741	14.509670	18.390311	-0.066555	0.082343	2.422320	0.000000	-0.002392	0.000000	0.000004	0.000000	0.000000	0.000000
25.346075	14.561731	18.341498	-0.089630	0.064095	2.421523	0.000000	-0.002392	0.000000	0.000004	0.000000	0.000000	0.000000
25.679408	14.629176	18.304851	-0.112705	0.045846	2.420725	0.000000	-0.002392	0.000000	0.000004	0.000000	0.000000	0.000000
26.013991	14.712045	18.280671	-0.016513	-0.120772	2.419900	0.000000	-0.022024	0.000000	0.000004	0.000000	0.000000	0.000000
26.311314	14.727875	18.357394	-0.000612	-0.182290	2.413352	0.000000	-0.027942	0.000000	0.000004	0.000000	0.000000	0.000000
26.752274	14.909890	18.319028	-0.413724	0.268964	2.416140	0.000000	0.040599	0.000000	0.000004	0.000000	0.000000	0.000000
27.193234	15.463163	17.886589	-0.845738	0.707980	2.449225	0.000000	0.109603	0.000000	0.000004	0.000000	0.000000	0.000000
27.634194	16.412973	17.079753	-1.316391	1.114783	2.512984	0.000000	0.179854	0.000000	0.000004	0.000000	0.000000	0.000000
28.075154	17.802712	15.935230	-1.847187	1.470865	2.608143	0.000000	0.252154	0.000000	0.000005	0.000000	0.000000	0.000000
28.521114	19.720024	14.487858	-2.467333	1.760937	2.737388	0.000000	0.327770	0.000000	0.000005	0.000001	0.000000	0.000000
29.070174	22.156936	12.875073	-1.944728	1.193757	2.894691	0.000000	0.244377	0.000000	0.000005	0.000000	0.000000	0.000000
29.619234	23.940677	11.835054	-1.284757	0.711605	3.004947	0.000000	0.156650	0.000000	0.000005	0.000000	0.000000	0.000000
30.168294	24.945250	11.293722	-0.534037	0.280139	3.066200	0.000000	0.066144	0.000000	0.000005	0.000000	0.000000	0.000000
30.717354	25.099700	11.212520	0.254405	-0.131373	3.077365	0.000000	-0.025535	0.000000	0.000005	-0.000000	0.000000	0.000000
31.015927	24.990621	11.281508	0.176507	-0.128984	3.072142	0.000000	-0.017495	0.000000	0.000005	-0.000000	0.000000	0.000000
31.349260	24.877534	11.377510	0.162753	-0.159022	3.066310	0.000000	-0.017495	0.000000	0.000005	-0.000000	0.000000	0.000000
31.682593	24.773617	11.493538	0.148999	-0.189061	3.060479	0.000000	-0.017495	0.000000	0.000005	-0.000000	0.000000	0.000000
32.017177	24.678531	11.630139	0.135194	-0.219212	3.054625	0.000000	-0.017495	0.000000	0.000005	-0.000000	0.000000	0.000000
32.314499	24.601786	11.768458	0.058649	-0.215257	3.049423	0.000000	-0.009528	0.000000	0.000005	-0.000000	0.000000	0.000000
32.863559	24.115929	12.244156	0.821001	-0.656242	3.019312	0.000000	-0.099994	0.000000	0.000005	-0.000000	0.000000	0.000000
33.412619	22.819964	13.226780	1.525361	-1.143970	2.939944	0.000000	-0.188687	0.000000	0.000005	-0.000000	0.000000	0.000000
33.961679	20.805430	14.786322	2.121978	-1.713180	2.812726	0.000000	-0.274034	0.000000	0.000005	-0.000001	0.000000	0.000000
34.510739	18.214625	17.033862	2.568709	-2.404416	2.639915	0.000000	-0.354519	0.000000	0.000004	-0.000001	0.000000	0.000000
34.956699	16.200274	19.044148	1.964362	-2.084533	2.498154	0.000000	-0.281595	0.000000	0.000004	-0.000001	0.000000	0.000000
35.397659	14.698273	20.706316	1.454766	-1.670553	2.389363	0.000000	-0.212306	0.000000	0.000004	-0.000000	0.000000	0.000000
35.838619	13.614799	21.968347	1.011634	-1.180564	2.310563	0.000000	-0.145436	0.000000	0.000004	-0.000000	0.000000	0.000000
36.279579	12.900351	22.772820	0.614722	-0.636861	2.260858	0.000000	-0.080221	0.000000	0.000004	-0.000000	0.000000	0.000000
36.721789	12.521597	23.083434	0.276493	-0.120841	2.239654	0.000000	-0.021413	0.000000	0.000004	-0.000000	0.000000	0.000000
37.019112	12.364782	23.159177	0.250933	-0.133909	2.233287	0.000000	-0.021413	0.000000	0.000003	-0.000000	0.000000	0.000000
37.352445	12.207045	23.253334	0.222277	-0.148560	2.226150	0.000000	-0.021413	0.000000	0.000003	-0.000000	0.000000	0.000000
37.685779	12.068412	23.357258	0.193622	-0.163212	2.219013	0.000000	-0.021413	0.000000	0.000003	-0.000000	0.000000	0.000000
38.020362	11.948470	23.471394	0.164858	-0.177918	2.211848	0.000000	-0.021413	0.000000	0.000003	-0.000000	0.000000	0.000000
38.317684	11.858037	23.581077	0.168377	-0.248812	2.205482	0.000000	-0.026821	0.000000	0.000003	-0.000000	0.000000	0.000000
38.758644	11.860781	23.539335	-0.174621	0.343114	2.207582	0.000000	0.036352	0.000000	0.000003	-0.000000	0.000000	0.000000
39.199604	12.168382	22.980478	-0.525598	0.919428	2.237603	0.000000	0.099940	0.000000	0.000003	-0.000000	0.000000	0.000000
39.640564	12.794896	21.929934	-0.900587	1.453909	2.295887	0.000000	0.164665	0.000000	0.000003	0.000000	0.000000	0.000000
40.081524	13.768945	20.435500	-1.316722	1.922239	2.383099	0.000000	0.231266	0.000000	0.000003	0.000000	0.000000	0.000000
40.527484	15.152598	18.542606	-1.796838	2.304387	2.501704	0.000000	0.300906	0.000000	0.000003	0.000000	0.000000	0.000000
41.076544	16.918497	16.415550	-1.400345	1.592477	2.646391	0.000000	0.225354	0.000000	0.000003	0.000000	0.000000	0.000000
41.625604	18.191773	15.003755	-0.904939	0.993995	2.748435	0.000000	0.145805	0.000000	0.000003	-0.000000	0.000000	0.000000
42.174664	18.882489	14.206663	-0.345612	0.466313	2.806028	0.000000	0.063670	0.000000	0.000003	-0.000000	0.000000	0.000000
42.723724	18.941856	13.967500	0.238127	-0.028155	2.818146	0.000000	-0.019594	0.000000	0.000003	-0.000000	0.000000	0.000000
43.022297	18.834086	13.968903	0.172314	-0.013039	2.814494	0.000000	-0.012231	0.000000	0.000003	-0.000000	0.000000	0.000000
43.502297	18.681261	13.997917	0.146071	-0.047407	2.808623	0.000000	-0.012231	0.000000	0.000003	-0.000000	0.000000	0.000000
43.982297	18.553629	14.059924	0.119829	-0.081774	2.802752	0.000000	-0.012231	0.000000	0.000003	-0.000000	0.000000	0.000000
44.462297	18.451190	14.154924	0.093586	-0.116142	2.796881	0.000000	-0.012231	0.000000	0.000003	-0.000000	0.000000	0.000000
44.942297	18.373943	14.282917	0.067344	-0.150510	2.791010	0.000000	-0.012231	0.000000	0.000003	-0.000000	0.000000	0.000000
45.423547	18.322014	14.444187	-0.049744	-0.113402	2.785141	0.000000	0.001568	0.000000	0.000002	-0.000000	0.000000	0.000000
45.720870	18.356430	14.517819	-0.113973	-0.096320	2.785607	0.000000	0.008846	0.000000	0.000002	-0.000000	0.000000	0.000000
46.269930	18.172495	14.904441	0.446991	-0.611989	2.767894	0.000000	-0.073274	0.000000	0.000002	-0.000000	0.000000	0.000000
46.818990	17.386323	15.877800	0.976382	-1.171249	2.705383	0.000000	-0.154094	0.000000	0.000002	-0.000000	0.000000	0.000000
47.368050	16.053448	17.507227	1.436806	-1.813934	2.599183	0.000000	-0.232180	0.000000	0.000002	-0.000000	0.000000	0.000000
47.917110	14.268016	19.908781	1.795742	-2.585822	2.451178	0.000000	-0.306149	0.000000	0.000002	-0.000000	0.000000	0.000000
48.363070	12.878495	22.044058	1.331094	-2.182095	2.329940	0.000000	-0.237854	0.000000	0.000001	-0.000000	0.000000	0.000000
48.804030	11.884760	23.753750	0.931027	-1.680354	2.239515	0.000000	-0.172664	0.000000	0.000001	-0.000000	0.000000	0.000000
49.244990	11.223832	24.985413	0.573496	-1.102158	2.177375	0.000000	-0.109442	0.000000	0.000001	-0.000000	0.000000	0.000000
49.685950	10.865516	25.683009	0.242167	-0.473815	2.142813	0.000000	-0.047466	0.000000	0.000001	-0.000000	0.000000	0.000000
50.128160	10.793571	25.814516	-0.051746	0.112732	2.135446	0.000000	0.008733	0.000000	0.000001	-0.000000	0.000000	0.000000
50.425482	10.832553	25.750949	-0.079366	0.101068	2.138043	0.000000	0.008733	0.000000	0.000001	-0.000000	0.000000	0.000000
50.758816	10.895786	25.687929	-0.110331	0.087991	2.140954	0.000000	0.008733	0.000000	0.000001	-0.000000	0.000000	0.000000
51.092149	10.979661	25.633627	-0.141296	0.074914	2.143865	0.000000	0.008733	0.000000	0.000000	-0.000000	0.000000	0.000000
51.426732	11.084387	25.588408	-0.082454	-0.145797	2.146765	0.000000	-0.008683	0.000000	0.000000	-0.000000	0.000000	0.000000
51.724055	11.141447	25.678634	-0.082138	-0.220635	2.144184	0.000000	-0.013941	0.000000	0.000000	-0.000000	0.000000	0.000000
52.165015	11.359328	25.587559	-0.413844	0.426387	2.151624	0.000000	0.047721	0.000000	0.000000	-0.000000	0.000000	0.000000
52.605975	11.876948	24.932270	-0.764457	1.054008	2.186349	0.000000	0.109926	0.000000	-0.000000	-0.000000	0.000000	0.000000
53.046935	12.717955	23.742583	-1.149997	1.633673	2.248754	0.000000	0.173383	0.000000	-0.000000	-0.000000	0.000000	0.000000
53.487895	13.920773	22.072628	-1.588076	2.139007	2.339550	0.000000	0.238815	0.000000	-0.000000	-0.000000	0.000000	0.000000
53.933855	15.560968	19.973414	-2.102946	2.548353	2.461274	0.000000	0.307366	0.000000	-0.000000	-0.000000	0.000000	0.000000
54.482915	17.672624	17.611344	-1.720236	1.779067	2.609857	0.000000	0.233061	0.000000	-0.000001	-0.000000	0.000000	0.000000
55.031975	19.294404	16.019917	-1.216017	1.136500	2.716444	0.000000	0.154622	0.000000	-0.000001	-0.000000	0.000000	0.000000
55.581035	20.311751	15.085779	-0.625904	0.574883	2.779147	0.000000	0.073441	0.000000	-0.000001	-0.000000	0.000000	0.000000
56.130095	20.652807	14.742393	0.008419	0.054214	2.796852	0.000000	-0.009043	0.000000	-0.000001	-0.000000	0.000000	0.000000
56.428668	20.684328	14.693116	-0.060030	0.072307	2.796334	0.000000	-0.001735	0.000000	-0.000001	-0.000000	0.000000	0.000000
56.762001	20.729739	14.652513	-0.076204	0.049502	2.795756	0.000000	-0.001735	0.000000	-0.000001	-0.000000	0.000000	0.000000
57.095334	20.785933	14.627113	-0.092377	0.026697	2.795178	0.000000	-0.001735	0.000000	-0.000001	-0.000000	0.000000	0.000000
57.429918	20.853180	14.616907	-0.108611	0.003807	2.794597	0.000000	-0.001735	0.000000	-0.000001	-0.000000	0.000000	0.000000
57.727240	20.922055	14.620691	-0.177703	0.021667	2.794081	0.000000	0.005565	0.000000	-0.000001	-0.000000	0.000000	0.000000
58.276300	20.760208	14.877717	0.470728	-0.492550	2.774497	0.000000	-0.076799	0.000000	-0.000002	-0.000000	0.000000	0.000000
58.825360	19.900432	15.715251	1.085909	-1.041850	2.709997	0.000000	-0.157800	0.000000	-0.000002	-0.000000	0.000000	0.000000
59.374420	18.403455	17.192949	1.624387	-1.665359	2.601727	0.000000	-0.236003	0.000000	-0.000002	-0.000000	0.000000	0.000000
59.923480	16.375017	19.416063	2.048127	-2.407487	2.451606	0.000000	-0.310020	0.000000	-0.000002	-0.000000	0.000000	0.000000
60.369440	14.787296	21.392048	1.524713	-2.004668	2.328640	0.000000	-0.241736	0.000000	-0.000002	-0.000000	0.000000	0.000000
60.810400	13.645184	22.948685	1.075170	-1.512008	2.236493	0.000000	-0.176603	0.000000	-0.000002	-0.000000	0.000000	0.000000
61.251360	12.876457	24.038724	0.674748	-0.950554	2.172596	0.000000	-0.113481	0.000000	-0.000002	-0.000000	0.000000	0.000000
61.692320	12.445992	24.612570	0.305154	-0.345850	2.136223	0.000000	-0.051651	0.000000	-0.000002	-0.000000	0.000000	0.000000
62.134530	12.334175	24.643577	-0.020353	0.214102	2.126964	0.000000	0.004374	0.000000	-0.000002	-0.000000	0.000000	0.000000
62.431853	12.353448	24.520014	-0.044469	0.201484	2.128264	0.000000	0.004374	0.000000	-0.000002	-0.000000	0.000000	0.000000
62.765186	12.392106	24.390407	-0.071505	0.187337	2.129722	0.000000	0.004374	0.000000	-0.000002	-0.000000	0.000000	0.000000
63.098520	12.448788	24.270231	-0.098541	0.173191	2.131180	0.000000	0.004374	0.000000	-0.000002	-0.000000	0.000000	0.000000
63.433103	12.523808	24.159088	-0.125679	0.158992	2.132644	0.000000	0.004374	0.000000	-0.000002	-0.000000	0.000000	0.000000
63.730426	12.605713	24.068296	-0.118881	0.087350	2.133945	0.000000	-0.000859	0.000000	-0.000003	-0.000000	0.000000	0.000000
64.171386	12.871036	23.726183	-0.485095	0.685534	2.147107	0.000000	0.060613	0.000000	-0.000003	-0.000000	0.000000	0.000000
64.612346	13.467845	22.868311	-0.873471	1.252527	2.187502	0.000000	0.122775	0.000000	-0.000003	-0.000000	0.000000	0.000000
65.053306	14.423406	21.533712	-1.301754	1.762531	2.255590	0.000000	0.186335	0.000000	-0.000003	-0.000000	0.000000	0.000000
65.494266	15.781378	19.783110	-1.789510	2.192342	2.352146	0.000000	0.252017	0.000000	-0.000003	-0.000001	0.000000	0.000000
65.940226	17.626969	17.671375	-2.363717	2.523159	2.479843	0.000000	0.320972	0.000000	-0.000003	-0.000001	0.000000	0.000000
66.489286	19.992681	15.308935	-1.919437	1.804938	2.635709	0.000000	0.245948	0.000000	-0.000004	-0.000001	0.000000	0.000000
67.038346	21.792730	13.660385	-1.339578	1.215279	2.749122	0.000000	0.166560	0.000000	-0.000004	-0.000000	0.000000	0.000000
67.587406	22.899971	12.608304	-0.665097	0.712182	2.818070	0.000000	0.084219	0.000000	-0.000004	-0.000000	0.000000	0.000000
68.136466	23.236194	12.077754	0.056362	0.259811	2.841330	0.000000	0.000384	0.000000	-0.000004	-0.000000	0.000000	0.000000
68.435038	23.242629	11.911771	-0.017202	0.264550	2.843662	0.000000	0.007808	0.000000	-0.000004	-0.000000	0.000000	0.000000
68.768372	23.258879	11.745385	-0.031547	0.234608	2.846264	0.000000	0.007808	0.000000	-0.000004	-0.000000	0.000000	0.000000
69.101705	23.284693	11.598961	-0.045893	0.204666	2.848867	0.000000	0.007808	0.000000	-0.000004	-0.000000	0.000000	0.000000
69.436288	23.320221	11.472061	-0.060293	0.174611	2.851479	0.000000	0.007808	0.000000	-0.000005	-0.000000	0.000000	0.000000
69.733611	23.359878	11.376170	-0.134126	0.177629	2.853801	0.000000	0.015265	0.000000	-0.000005	-0.000000	0.000000	0.000000
70.282671	23.105979	11.408876	0.593814	-0.237547	2.838997	0.000000	-0.069112	0.000000	-0.000005	0.000000	0.000000	0.000000
