#ParticleID	Turn	x[m]	xp	y[m]	yp	z[m]	dE[GeV]# s	beta_x	beta_y	alpha_x	alpha_y	D_x	D_y	D_px	D_py	orbit_x	orbit_px	orbit_y	orbit_py
0.300000	11.815015	25.013210	-0.011203	-0.027316	2.618109	0.000000	0.000014	0.000000	-0.000002	0.000001	0.000000	0.000000
0.601250	11.829447	25.033299	-0.036704	-0.039369	2.618113	0.000000	0.000014	0.000000	-0.000001	0.000001	0.000000	0.000000
0.898573	11.858755	25.060246	-0.032790	-0.112720	2.618117	0.000000	-0.006407	0.000000	-0.000001	0.000001	0.000000	0.000000
1.339533	12.039818	24.881673	-0.379378	0.516143	2.631584	0.000000	0.067550	0.000000	-0.000000	0.000001	0.000000	0.000000
1.780493	12.533004	24.156770	-0.743299	1.121522	2.677803	0.000000	0.142277	0.000000	0.000000	0.000001	0.000000	0.000000
2.221453	13.360843	22.918519	-1.141179	1.675872	2.757298	0.000000	0.218624	0.000000	0.000001	0.000001	0.000000	0.000000
2.662413	14.561158	21.223260	-1.591197	2.153972	2.870976	0.000000	0.297461	0.000000	0.000001	0.000001	0.000000	0.000000
3.108373	16.209539	19.123263	-2.118202	2.535200	3.021993	0.000000	0.380176	0.000000	0.000002	0.000001	0.000000	0.000000
3.657433	18.323309	16.764666	-1.708808	1.785856	3.205460	0.000000	0.287138	0.000000	0.000002	0.000001	0.000000	0.000000
4.206493	19.918172	15.154679	-1.178712	1.163714	3.336368	0.000000	0.189007	0.000000	0.000003	0.000001	0.000000	0.000000
4.755553	20.881474	14.178624	-0.565358	0.624462	3.412395	0.000000	0.087523	0.000000	0.000003	0.000001	0.000000	0.000000
5.304613	21.145171	13.766981	0.087931	0.129688	3.432193	0.000000	-0.015513	0.000000	0.000004	0.000001	0.000000	0.000000
5.603185	21.129875	13.674713	0.018549	0.143374	3.430239	0.000000	-0.006545	0.000000	0.000004	0.000001	0.000000	0.000000
5.936519	21.122769	13.587422	0.002768	0.118497	3.428057	0.000000	-0.006545	0.000000	0.000004	0.000001	0.000000	0.000000
6.269852	21.126184	13.516716	-0.013013	0.093620	3.425875	0.000000	-0.006545	0.000000	0.000005	0.000001	0.000000	0.000000
6.604435	21.140192	13.462423	-0.028853	0.068650	3.423685	0.000000	-0.006545	0.000000	0.000005	0.000001	0.000000	0.000000
6.901758	21.161534	13.428198	-0.098218	0.081545	3.421738	0.000000	0.002395	0.000000	0.000005	0.000001	0.000000	0.000000
7.450818	20.908728	13.599441	0.555928	-0.395269	3.394851	0.000000	-0.100188	0.000000	0.000006	0.000001	0.000000	0.000000
7.999878	19.955002	14.306577	1.170805	-0.900236	3.312046	0.000000	-0.200993	0.000000	0.000006	0.000001	0.000000	0.000000
8.548938	18.367724	15.599974	1.702983	-1.469325	3.174791	0.000000	-0.298233	0.000000	0.000006	0.000000	0.000000	0.000000
9.097998	16.259010	17.571758	2.114871	-2.143072	2.985521	0.000000	-0.390183	0.000000	0.000006	0.000000	0.000000	0.000000
9.543958	14.613819	19.328721	1.587346	-1.780010	2.829822	0.000000	-0.308476	0.000000	0.000006	0.000000	0.000000	0.000000
9.984918	13.417193	20.708534	1.136632	-1.337193	2.711043	0.000000	-0.230765	0.000000	0.000007	0.000000	0.000000	0.000000
10.425878	12.593746	21.669394	0.737848	-0.833534	2.625920	0.000000	-0.155683	0.000000	0.000007	0.000001	0.000000	0.000000
10.866838	12.105857	22.167584	0.372773	-0.291951	2.573482	0.000000	-0.082374	0.000000	0.000007	0.000001	0.000000	0.000000
11.309048	11.931102	22.179915	0.053881	0.208468	2.553114	0.000000	-0.016264	0.000000	0.000007	0.000001	0.000000	0.000000
11.606371	11.906493	22.060109	0.028889	0.194481	2.548278	0.000000	-0.016264	0.000000	0.000008	0.000001	0.000000	0.000000
12.086371	11.898126	21.884247	-0.011459	0.171899	2.540471	0.000000	-0.016264	0.000000	0.000008	0.000001	0.000000	0.000000
12.566371	11.928493	21.730063	-0.051806	0.149317	2.532664	0.000000	-0.016264	0.000000	0.000009	0.000001	0.000000	0.000000
13.046371	11.997595	21.597558	-0.092154	0.126735	2.524857	0.000000	-0.016264	0.000000	0.000009	0.000001	0.000000	0.000000
13.526371	12.105430	21.486731	-0.132502	0.104154	2.517049	0.000000	-0.016264	0.000000	0.000010	0.000001	0.000000	0.000000
14.007621	12.252431	21.397379	-0.172955	0.081513	2.509222	0.000000	-0.016264	0.000000	0.000010	0.000001	0.000000	0.000000
14.304943	12.362708	21.353067	-0.167633	0.015167	2.504386	0.000000	-0.022405	0.000000	0.000010	0.000001	0.000000	0.000000
14.745903	12.669107	21.105979	-0.529847	0.543041	2.510138	0.000000	0.048521	0.000000	0.000011	0.000001	0.000000	0.000000
15.186863	13.304376	20.402507	-0.916268	1.046208	2.547258	0.000000	0.120000	0.000000	0.000011	0.000001	0.000000	0.000000
15.627823	14.297539	19.274657	-1.344551	1.501772	2.616168	0.000000	0.192845	0.000000	0.000012	0.000002	0.000000	0.000000
16.068783	15.693972	17.773747	-1.834262	1.889008	2.717653	0.000000	0.267887	0.000000	0.000013	0.000002	0.000000	0.000000
16.514743	17.581129	15.946564	-2.412534	2.191040	2.854563	0.000000	0.346442	0.000000	0.000014	0.000002	0.000000	0.000000
17.063803	20.004892	13.906332	-1.975719	1.546757	3.021048	0.000000	0.259104	0.000000	0.000015	0.000002	0.000000	0.000000
17.612863	21.869044	12.509312	-1.399350	1.012646	3.138244	0.000000	0.167170	0.000000	0.000016	0.000001	0.000000	0.000000
18.161923	23.041910	11.655998	-0.724137	0.550664	3.204074	0.000000	0.072271	0.000000	0.000017	0.000001	0.000000	0.000000
18.710983	23.440644	11.285610	0.002225	0.127904	3.217370	0.000000	-0.023910	0.000000	0.000017	0.000000	0.000000	0.000000
19.009556	23.479699	11.199722	-0.071794	0.130276	3.212741	0.000000	-0.015505	0.000000	0.000017	0.000000	0.000000	0.000000
19.342889	23.532319	11.122960	-0.086064	0.100008	3.207573	0.000000	-0.015505	0.000000	0.000017	0.000000	0.000000	0.000000
19.676223	23.594452	11.066377	-0.100334	0.069740	3.202404	0.000000	-0.015505	0.000000	0.000018	0.000000	0.000000	0.000000
20.010806	23.666677	11.029738	-0.231915	0.094007	3.197236	0.000000	0.000336	0.000000	0.000018	0.000001	0.000000	0.000000
20.308129	23.808521	10.981923	-0.307352	0.095502	3.197336	0.000000	0.008689	0.000000	0.000018	0.000001	0.000000	0.000000
20.857189	23.735391	11.099229	0.439753	-0.310411	3.175885	0.000000	-0.086710	0.000000	0.000018	-0.000000	0.000000	0.000000
21.406249	22.854122	11.671729	1.155796	-0.738435	3.102400	0.000000	-0.180572	0.000000	0.000018	-0.000001	0.000000	0.000000
21.955309	21.226961	12.740202	1.790200	-1.219055	2.978185	0.000000	-0.271231	0.000000	0.000017	-0.000001	0.000000	0.000000
22.504369	18.968842	14.380752	2.298152	-1.786506	2.805441	0.000000	-0.357079	0.000000	0.000017	-0.000002	0.000000	0.000000
22.950329	17.189239	15.853658	1.706432	-1.502335	2.663494	0.000000	-0.279863	0.000000	0.000016	-0.000001	0.000000	0.000000
23.391289	15.913618	17.027993	1.197370	-1.150663	2.556409	0.000000	-0.206290	0.000000	0.000016	-0.000001	0.000000	0.000000
23.832249	15.061219	17.867822	0.743013	-0.746637	2.481219	0.000000	-0.135066	0.000000	0.000015	-0.000000	0.000000	0.000000
24.273209	14.593101	18.334935	0.322603	-0.308640	2.437067	0.000000	-0.065381	0.000000	0.000015	-0.000000	0.000000	0.000000
24.715418	14.487995	18.407832	-0.047632	0.098196	2.423446	0.000000	-0.002382	0.000000	0.000015	0.000000	0.000000	0.000000
25.012741	14.522434	18.354288	-0.068201	0.081889	2.422738	0.000000	-0.002382	0.000000	0.000015	0.000000	0.000000	0.000000
25.346075	14.575588	18.305790	-0.091261	0.063606	2.421944	0.000000	-0.002382	0.000000	0.000015	0.000000	0.000000	0.000000
25.679408	14.644115	18.269481	-0.114320	0.045323	2.421150	0.000000	-0.002382	0.000000	0.000015	0.000000	0.000000	0.000000
26.013991	14.728060	18.245662	-0.017983	-0.121046	2.420329	0.000000	-0.022017	0.000000	0.000015	0.000000	0.000000	0.000000
26.311314	14.744758	18.322558	-0.002024	-0.182506	2.413782	0.000000	-0.027936	0.000000	0.000015	0.000000	0.000000	0.000000
26.752274	14.928206	18.284799	-0.415573	0.267808	2.416576	0.000000	0.040617	0.000000	0.000016	0.000000	0.000000	0.000000
27.193234	15.483333	17.853776	-0.848108	0.705938	2.449670	0.000000	0.109631	0.000000	0.000016	0.000001	0.000000	0.000000
27.634194	16.435502	17.049099	-1.319391	1.111948	2.513444	0.000000	0.179895	0.000000	0.000016	0.000001	0.000000	0.000000
28.075154	17.828214	15.907380	-1.850954	1.467365	2.608622	0.000000	0.252207	0.000000	0.000017	0.000002	0.000000	0.000000
28.521114	19.749295	14.463368	-2.472047	1.756931	2.737893	0.000000	0.327835	0.000000	0.000018	0.000002	0.000000	0.000000
29.070174	22.191000	12.854449	-1.948690	1.190682	2.895227	0.000000	0.244425	0.000000	0.000019	0.000002	0.000000	0.000000
29.619234	23.978548	11.817398	-1.287687	0.709242	3.005504	0.000000	0.156680	0.000000	0.000020	0.000001	0.000000	0.000000
30.168294	24.985675	11.278348	-0.535728	0.278321	3.066769	0.000000	0.066156	0.000000	0.000020	0.000000	0.000000	0.000000
30.717354	25.141243	11.198905	0.254072	-0.132777	3.077936	0.000000	-0.025541	0.000000	0.000020	-0.000000	0.000000	0.000000
31.015927	25.032416	11.268768	0.176096	-0.130468	3.072711	0.000000	-0.017500	0.000000	0.000020	-0.000000	0.000000	0.000000
31.349260	24.919595	11.365774	0.162367	-0.160552	3.066877	0.000000	-0.017500	0.000000	0.000020	-0.000000	0.000000	0.000000
31.682593	24.815927	11.482837	0.148638	-0.190635	3.061044	0.000000	-0.017500	0.000000	0.000020	-0.000000	0.000000	0.000000
32.017177	24.721074	11.620507	0.134857	-0.220832	3.055188	0.000000	-0.017500	0.000000	0.000020	-0.000000	0.000000	0.000000
32.314499	24.644523	11.759802	0.058231	-0.216945	3.049985	0.000000	-0.009533	0.000000	0.000020	-0.000000	0.000000	0.000000
32.863559	24.158343	12.237259	0.822004	-0.657778	3.019866	0.000000	-0.100018	0.000000	0.000019	-0.000001	0.000000	0.000000
33.412619	22.860523	13.221537	1.527714	-1.145464	2.940481	0.000000	-0.188728	0.000000	0.000019	-0.000001	0.000000	0.000000
33.961679	20.842736	14.782745	2.125515	-1.714738	2.813236	0.000000	-0.274092	0.000000	0.000018	-0.000002	0.000000	0.000000
34.510739	18.247507	17.032083	2.573179	-2.406150	2.640390	0.000000	-0.354593	0.000000	0.000016	-0.000003	0.000000	0.000000
34.956699	16.229620	19.044029	1.967847	-2.086507	2.498600	0.000000	-0.281657	0.000000	0.000015	-0.000002	0.000000	0.000000
35.397659	14.724916	20.708010	1.457434	-1.672675	2.389784	0.000000	-0.212357	0.000000	0.000014	-0.000002	0.000000	0.000000
35.838619	13.639404	21.971943	1.013606	-1.182738	2.310964	0.000000	-0.145476	0.000000	0.000014	-0.000001	0.000000	0.000000
36.279579	12.923490	22.778320	0.616087	-0.638987	2.261244	0.000000	-0.080251	0.000000	0.000013	-0.000001	0.000000	0.000000
36.721789	12.543773	23.090758	0.277368	-0.122836	2.240030	0.000000	-0.021433	0.000000	0.000013	-0.000001	0.000000	0.000000
37.019112	12.386427	23.167688	0.251841	-0.135906	2.233657	0.000000	-0.021433	0.000000	0.000013	-0.000001	0.000000	0.000000
37.352445	12.228072	23.263177	0.223223	-0.150560	2.226513	0.000000	-0.021433	0.000000	0.000012	-0.000001	0.000000	0.000000
37.685779	12.088796	23.368434	0.194605	-0.165213	2.219369	0.000000	-0.021433	0.000000	0.000012	-0.000001	0.000000	0.000000
38.020362	11.968183	23.483911	0.165880	-0.179922	2.212198	0.000000	-0.021433	0.000000	0.000012	-0.000001	0.000000	0.000000
38.317684	11.877133	23.594787	0.169477	-0.250848	2.205826	0.000000	-0.026842	0.000000	0.000012	-0.000001	0.000000	0.000000
38.758644	11.879096	23.554674	-0.173945	0.341469	2.207918	0.000000	0.036340	0.000000	0.000011	-0.000001	0.000000	0.000000
39.199604	12.186276	22.997066	-0.525314	0.918250	2.237936	0.000000	0.099936	0.000000	0.000011	-0.000000	0.000000	0.000000
39.640564	12.812707	21.947335	-0.900683	1.453251	2.296221	0.000000	0.164670	0.000000	0.000011	0.000000	0.000000	0.000000
40.081524	13.787009	20.453241	-1.317202	1.922130	2.383437	0.000000	0.231280	0.000000	0.000011	0.000000	0.000000	0.000000
40.527484	15.171270	18.560194	-1.797726	2.304837	2.502049	0.000000	0.300929	0.000000	0.000011	0.000001	0.000000	0.000000
41.076544	16.937763	16.432886	-1.400532	1.592486	2.646746	0.000000	0.225366	0.000000	0.000012	0.000000	0.000000	0.000000
41.625604	18.210852	15.021322	-0.904412	0.993564	2.748793	0.000000	0.145805	0.000000	0.000012	-0.000000	0.000000	0.000000
42.174664	18.900613	14.224958	-0.344408	0.465411	2.806382	0.000000	0.063658	0.000000	0.000011	-0.000001	0.000000	0.000000
42.723724	18.958323	13.987071	0.239923	-0.029591	2.818491	0.000000	-0.019618	0.000000	0.000011	-0.000001	0.000000	0.000000
43.022297	18.849504	13.989294	0.174073	-0.014396	2.814832	0.000000	-0.012254	0.000000	0.000011	-0.000001	0.000000	0.000000
43.502297	18.694987	14.019587	0.147836	-0.048715	2.808951	0.000000	-0.012254	0.000000	0.000010	-0.000001	0.000000	0.000000
43.982297	18.565658	14.082827	0.121600	-0.083034	2.803069	0.000000	-0.012254	0.000000	0.000010	-0.000001	0.000000	0.000000
44.462297	18.461516	14.179013	0.095363	-0.117353	2.797188	0.000000	-0.012254	0.000000	0.000010	-0.000001	0.000000	0.000000
44.942297	18.382561	14.308146	0.069127	-0.151672	2.791306	0.000000	-0.012254	0.000000	0.000009	-0.000001	0.000000	0.000000
45.423547	18.328912	14.470510	-0.047990	-0.114385	2.785426	0.000000	0.001546	0.000000	0.000009	-0.000001	0.000000	0.000000
45.720870	18.362283	14.544718	-0.112222	-0.097201	2.785886	0.000000	0.008825	0.000000	0.000009	-0.000001	0.000000	0.000000
46.269930	18.176332	14.932762	0.448889	-0.613714	2.768159	0.000000	-0.073304	0.000000	0.000008	-0.000001	0.000000	0.000000
46.818990	17.388057	15.908533	0.978292	-1.173941	2.705630	0.000000	-0.154132	0.000000	0.000007	-0.000001	0.000000	0.000000
47.368050	16.053139	17.541531	1.438594	-1.817785	2.599408	0.000000	-0.232226	0.000000	0.000007	-0.000002	0.000000	0.000000
47.917110	14.265869	19.948072	1.797281	-2.591106	2.451376	0.000000	-0.306202	0.000000	0.000006	-0.000002	0.000000	0.000000
48.363070	12.875026	22.087694	1.332530	-2.186511	2.330116	0.000000	-0.237901	0.000000	0.000005	-0.000002	0.000000	0.000000
48.804030	11.880044	23.800823	0.932429	-1.683705	2.239671	0.000000	-0.172708	0.000000	0.000004	-0.000001	0.000000	0.000000
49.244990	11.217872	25.034914	0.574927	-1.104291	2.177514	0.000000	-0.109482	0.000000	0.000004	-0.000001	0.000000	0.000000
49.685950	10.858258	25.733816	0.243693	-0.474633	2.142935	0.000000	-0.047502	0.000000	0.000003	-0.000001	0.000000	0.000000
50.128160	10.784896	25.865447	-0.050078	0.113143	2.135553	0.000000	0.008699	0.000000	0.000003	-0.000001	0.000000	0.000000
50.425482	10.822891	25.801628	-0.077715	0.101501	2.138140	0.000000	0.008699	0.000000	0.000002	-0.000001	0.000000	0.000000
50.758816	10.885030	25.738312	-0.108700	0.088449	2.141040	0.000000	0.008699	0.000000	0.000002	-0.000001	0.000000	0.000000
51.092149	10.967825	25.683697	-0.139685	0.075396	2.143940	0.000000	0.008699	0.000000	0.000001	-0.000001	0.000000	0.000000
51.426732	11.071479	25.638147	-0.080967	-0.145694	2.146830	0.000000	-0.008717	0.000000	0.000001	-0.000001	0.000000	0.000000
51.724055	11.127663	25.728305	-0.080710	-0.220630	2.144238	0.000000	-0.013975	0.000000	0.000001	-0.000001	0.000000	0.000000
52.165015	11.344136	25.636646	-0.412065	0.427702	2.151664	0.000000	0.047688	0.000000	0.000000	-0.000001	0.000000	0.000000
52.605975	11.860003	24.979639	-0.762247	1.056575	2.186375	0.000000	0.109894	0.000000	-0.000000	-0.000001	0.000000	0.000000
53.046935	12.698834	23.787178	-1.147254	1.637374	2.248767	0.000000	0.173352	0.000000	-0.000001	-0.000001	0.000000	0.000000
53.487895	13.898952	22.113518	-1.584675	2.143674	2.339548	0.000000	0.238784	0.000000	-0.000001	-0.000001	0.000000	0.000000
53.933855	15.535760	20.009786	-2.098725	2.553775	2.461259	0.000000	0.307334	0.000000	-0.000002	-0.000001	0.000000	0.000000
54.482915	17.643108	17.642551	-1.716657	1.783107	2.609825	0.000000	0.233030	0.000000	-0.000003	-0.000001	0.000000	0.000000
55.031975	19.261427	16.047312	-1.213333	1.139445	2.716397	0.000000	0.154593	0.000000	-0.000003	-0.000001	0.000000	0.000000
55.581035	20.276409	15.110442	-0.624305	0.576943	2.779084	0.000000	0.073413	0.000000	-0.000004	-0.000001	0.000000	0.000000
56.130095	20.616359	14.765211	0.008820	0.055536	2.796775	0.000000	-0.009069	0.000000	-0.000004	-0.000001	0.000000	0.000000
56.428668	20.647592	14.715101	-0.059560	0.073716	2.796249	0.000000	-0.001761	0.000000	-0.000005	-0.000001	0.000000	0.000000
56.762001	20.692699	14.673549	-0.075761	0.050940	2.795663	0.000000	-0.001761	0.000000	-0.000005	-0.000001	0.000000	0.000000
57.095334	20.748607	14.647181	-0.091963	0.028164	2.795076	0.000000	-0.001761	0.000000	-0.000005	-0.000001	0.000000	0.000000
57.429918	20.815587	14.635983	-0.108225	0.005304	2.794487	0.000000	-0.001761	0.000000	-0.000006	-0.000001	0.000000	0.000000
57.727240	20.884238	14.638869	-0.177245	0.023239	2.793964	0.000000	0.005539	0.000000	-0.000006	-0.000001	0.000000	0.000000
58.276300	20.722587	14.894448	0.469917	-0.491471	2.774366	0.000000	-0.076820	0.000000	-0.000006	-0.000001	0.000000	0.000000
58.825360	19.864375	15.731031	1.083886	-1.041186	2.709857	0.000000	-0.157818	0.000000	-0.000007	-0.000000	0.000000	0.000000
59.374420	18.370224	17.208205	1.621295	-1.665064	2.601578	0.000000	-0.236016	0.000000	-0.000007	-0.000000	0.000000	0.000000
59.923480	16.345672	19.431186	2.044183	-2.407539	2.451452	0.000000	-0.310027	0.000000	-0.000007	-0.000000	0.000000	0.000000
60.369440	14.761072	21.406991	1.521634	-2.004213	2.328482	0.000000	-0.241748	0.000000	-0.000007	-0.000000	0.000000	0.000000
60.810400	13.621352	22.963012	1.072807	-1.511071	2.236328	0.000000	-0.176618	0.000000	-0.000007	-0.000000	0.000000	0.000000
61.251360	12.854433	24.052026	0.672994	-0.949176	2.172424	0.000000	-0.113501	0.000000	-0.000007	-0.000001	0.000000	0.000000
61.692320	12.425278	24.624485	0.303927	-0.344095	2.136041	0.000000	-0.051676	0.000000	-0.000008	-0.000001	0.000000	0.000000
62.134530	12.314332	24.653803	-0.021154	0.216125	2.126770	0.000000	0.004345	0.000000	-0.000008	-0.000001	0.000000	0.000000
62.431853	12.334094	24.529038	-0.045309	0.203502	2.128062	0.000000	0.004345	0.000000	-0.000008	-0.000001	0.000000	0.000000
62.765186	12.373327	24.398087	-0.072390	0.189350	2.129511	0.000000	0.004345	0.000000	-0.000009	-0.000001	0.000000	0.000000
63.098520	12.430614	24.276571	-0.099471	0.175198	2.130959	0.000000	0.004345	0.000000	-0.000009	-0.000001	0.000000	0.000000
63.433103	12.506272	24.164088	-0.126654	0.160993	2.132413	0.000000	0.004345	0.000000	-0.000009	-0.000001	0.000000	0.000000
63.730426	12.588767	24.072107	-0.119935	0.089332	2.133705	0.000000	-0.000888	0.000000	-0.000010	-0.000001	0.000000	0.000000
64.171386	12.854857	23.728218	-0.485789	0.687566	2.146853	0.000000	0.060577	0.000000	-0.000010	-0.000001	0.000000	0.000000
64.612346	13.452132	22.868567	-0.873837	1.254516	2.187231	0.000000	0.122732	0.000000	-0.000011	-0.000001	0.000000	0.000000
65.053306	14.407878	21.532267	-1.301808	1.764386	2.255300	0.000000	0.186285	0.000000	-0.000011	-0.000002	0.000000	0.000000
65.494266	15.765762	19.780119	-1.789256	2.193978	2.351833	0.000000	0.251960	0.000000	-0.000012	-0.000002	0.000000	0.000000
65.940226	17.610982	17.667052	-2.363141	2.524500	2.479503	0.000000	0.320906	0.000000	-0.000013	-0.000002	0.000000	0.000000
66.489286	19.976406	15.303192	-1.919492	1.806199	2.635337	0.000000	0.245893	0.000000	-0.000014	-0.000002	0.000000	0.000000
67.038346	21.776863	13.653262	-1.340261	1.216549	2.748724	0.000000	0.166519	0.000000	-0.000015	-0.000001	0.000000	0.000000
67.587406	22.885179	12.599741	-0.666361	0.713551	2.817653	0.000000	0.084190	0.000000	-0.000016	-0.000001	0.000000	0.000000
68.136466	23.223068	12.067588	0.054608	0.261377	2.840902	0.000000	0.000369	0.000000	-0.000016	-0.000000	0.000000	0.000000
68.435038	23.230536	11.900698	-0.018935	0.266047	2.843229	0.000000	0.007793	0.000000	-0.000016	-0.000000	0.000000	0.000000
68.768372	23.247944	11.733331	-0.033289	0.236055	2.845826	0.000000	0.007793	0.000000	-0.000017	-0.000000	0.000000	0.000000
69.101705	23.274921	11.585958	-0.047643	0.206063	2.848424	0.000000	0.007793	0.000000	-0.000017	-0.000000	0.000000	0.000000
69.436288	23.311622	11.458140	-0.062051	0.175959	2.851032	0.000000	0.007793	0.000000	-0.000017	-0.000000	0.000000	0.000000
69.733611	23.352327	11.361461	-0.135878	0.178896	2.853349	0.000000	0.015249	0.000000	-0.000017	-0.000001	0.000000	0.000000
70.282671	23.100473	11.392544	0.591864	-0.235842	2.838540	0.000000	-0.069112	0.000000	-0.000017	0.000000	0.000000	0.000000
