#ParticleID	Turn	x[m]	xp	y[m]	yp	z[m]	dE[GeV]# s	beta_x	beta_y	alpha_x	alpha_y	D_x	D_y	D_px	D_py	orbit_x	orbit_px	orbit_y	orbit_py
0.300000	11.831683	24.948625	-0.013338	-0.027762	2.618283	0.000000	-0.000054	0.000000	0.000001	0.000000	0.000000	0.000000
0.601250	11.847390	24.968991	-0.038803	-0.039846	2.618267	0.000000	-0.000054	0.000000	0.000001	0.000000	0.000000	0.000000
0.898573	11.877937	24.996232	-0.034809	-0.113070	2.618251	0.000000	-0.006474	0.000000	0.000001	0.000000	0.000000	0.000000
1.339533	12.060989	24.818714	-0.381887	0.514109	2.631690	0.000000	0.067486	0.000000	0.000001	0.000000	0.000000	0.000000
1.780493	12.556643	24.096316	-0.746412	1.117897	2.677881	0.000000	0.142215	0.000000	0.000001	0.000000	0.000000	0.000000
2.221453	13.387545	22.861905	-1.145038	1.670821	2.757350	0.000000	0.218564	0.000000	0.000001	0.000000	0.000000	0.000000
2.662413	14.591655	21.171647	-1.595978	2.147724	2.871002	0.000000	0.297402	0.000000	0.000001	0.000000	0.000000	0.000000
3.108373	16.244796	19.077656	-2.124134	2.528038	3.021992	0.000000	0.380117	0.000000	0.000001	0.000000	0.000000	0.000000
3.657433	18.364625	16.725911	-1.713845	1.780467	3.205428	0.000000	0.287080	0.000000	0.000001	0.000000	0.000000	0.000000
4.206493	19.964360	15.121048	-1.182498	1.159714	3.336305	0.000000	0.188950	0.000000	0.000001	0.000000	0.000000	0.000000
4.755553	20.931006	14.148758	-0.567626	0.621566	3.412302	0.000000	0.087469	0.000000	0.000001	0.000000	0.000000	0.000000
5.304613	21.196282	13.739786	0.087340	0.127690	3.432071	0.000000	-0.015564	0.000000	0.000001	0.000000	0.000000	0.000000
5.603185	21.181408	13.648761	0.017859	0.141277	3.430102	0.000000	-0.006596	0.000000	0.000001	0.000000	0.000000	0.000000
5.936519	21.174749	13.562880	0.002117	0.116367	3.427903	0.000000	-0.006596	0.000000	0.000001	0.000000	0.000000	0.000000
6.269852	21.178586	13.493605	-0.013626	0.091457	3.425704	0.000000	-0.006596	0.000000	0.000001	0.000000	0.000000	0.000000
6.604435	21.192990	13.440771	-0.029427	0.066454	3.423497	0.000000	-0.006596	0.000000	0.000002	0.000000	0.000000	0.000000
6.901758	21.214663	13.407860	-0.098897	0.079267	3.421536	0.000000	0.002343	0.000000	0.000002	0.000000	0.000000	0.000000
7.450818	20.961622	13.581297	0.557032	-0.397012	3.394623	0.000000	-0.100232	0.000000	0.000002	0.000000	0.000000	0.000000
7.999878	20.005734	14.290112	1.173616	-0.901569	3.311796	0.000000	-0.201029	0.000000	0.000002	-0.000000	0.000000	0.000000
8.548938	18.414518	15.584791	1.707301	-1.470343	3.174523	0.000000	-0.298261	0.000000	0.000002	-0.000000	0.000000	0.000000
9.097998	16.300371	17.557553	2.120391	-2.143846	2.985241	0.000000	-0.390203	0.000000	0.000001	-0.000000	0.000000	0.000000
9.543958	14.650813	19.315454	1.591652	-1.781331	2.829531	0.000000	-0.308502	0.000000	0.000001	-0.000000	0.000000	0.000000
9.984918	13.450847	20.696650	1.139930	-1.338997	2.710739	0.000000	-0.230800	0.000000	0.000001	-0.000000	0.000000	0.000000
10.425878	12.624880	21.659284	0.740287	-0.835738	2.625599	0.000000	-0.155726	0.000000	0.000001	-0.000000	0.000000	0.000000
10.866838	12.135176	22.159558	0.374467	-0.294455	2.573141	0.000000	-0.082425	0.000000	0.000001	0.000000	0.000000	0.000000
11.309048	11.959224	22.174194	0.054977	0.205789	2.552748	0.000000	-0.016323	0.000000	0.000001	0.000000	0.000000	0.000000
11.606371	11.933946	22.055978	0.030040	0.191813	2.547895	0.000000	-0.016323	0.000000	0.000001	0.000000	0.000000	0.000000
12.086371	11.924431	21.882668	-0.010217	0.169249	2.540060	0.000000	-0.016323	0.000000	0.000001	0.000000	0.000000	0.000000
12.566371	11.953563	21.731019	-0.050475	0.146686	2.532225	0.000000	-0.016323	0.000000	0.000001	0.000000	0.000000	0.000000
13.046371	12.021343	21.601031	-0.090733	0.124122	2.524389	0.000000	-0.016323	0.000000	0.000001	0.000000	0.000000	0.000000
13.526371	12.127770	21.492704	-0.130990	0.101559	2.516554	0.000000	-0.016323	0.000000	0.000001	0.000000	0.000000	0.000000
14.007621	12.273273	21.405840	-0.171353	0.078937	2.508698	0.000000	-0.016323	0.000000	0.000001	0.000000	0.000000	0.000000
14.304943	12.382581	21.363056	-0.165924	0.012573	2.503845	0.000000	-0.022464	0.000000	0.000001	0.000000	0.000000	0.000000
14.745903	12.687653	21.118121	-0.528536	0.540774	2.509569	0.000000	0.048448	0.000000	0.000001	0.000000	0.000000	0.000000
15.186863	13.321918	20.416466	-0.915295	1.044370	2.546653	0.000000	0.119912	0.000000	0.000002	0.000000	0.000000	0.000000
15.627823	14.314355	19.290016	-1.343871	1.500448	2.615521	0.000000	0.192741	0.000000	0.000002	0.000000	0.000000	0.000000
16.068783	15.710305	17.790025	-1.833845	1.888257	2.716957	0.000000	0.267765	0.000000	0.000002	0.000000	0.000000	0.000000
16.514743	17.597199	15.963239	-2.412360	2.190902	2.853810	0.000000	0.346301	0.000000	0.000002	0.000000	0.000000	0.000000
17.063803	20.020368	13.923331	-1.974820	1.546302	3.020225	0.000000	0.258989	0.000000	0.000002	0.000000	0.000000	0.000000
17.612863	21.883160	12.526998	-1.397789	1.011842	3.137367	0.000000	0.167083	0.000000	0.000002	0.000000	0.000000	0.000000
18.161923	23.053995	11.674783	-0.722024	0.549454	3.203158	0.000000	0.072213	0.000000	0.000002	0.000000	0.000000	0.000000
18.710983	23.450173	11.305985	0.004740	0.126202	3.216430	0.000000	-0.023938	0.000000	0.000002	-0.000000	0.000000	0.000000
19.009556	23.487743	11.221061	-0.069303	0.128693	3.211792	0.000000	-0.015534	0.000000	0.000002	-0.000000	0.000000	0.000000
19.342889	23.538698	11.145332	-0.083563	0.098495	3.206614	0.000000	-0.015534	0.000000	0.000002	-0.000000	0.000000	0.000000
19.676223	23.599160	11.089734	-0.097823	0.068297	3.201436	0.000000	-0.015534	0.000000	0.000002	-0.000000	0.000000	0.000000
20.010806	23.669702	11.054037	-0.229409	0.092754	3.196258	0.000000	0.000302	0.000000	0.000002	0.000000	0.000000	0.000000
20.308129	23.810051	11.006948	-0.304842	0.094384	3.196348	0.000000	0.008653	0.000000	0.000002	0.000000	0.000000	0.000000
20.857189	23.734151	11.125872	0.442260	-0.312259	3.174887	0.000000	-0.086714	0.000000	0.000002	-0.000000	0.000000	0.000000
21.406249	22.850212	11.700859	1.158122	-0.741143	3.101408	0.000000	-0.180543	0.000000	0.000002	-0.000000	0.000000	0.000000
21.955309	21.220673	12.772863	1.792181	-1.222817	2.977217	0.000000	-0.271170	0.000000	0.000002	-0.000000	0.000000	0.000000
22.504369	18.960634	14.418241	2.299649	-1.791590	2.804514	0.000000	-0.356987	0.000000	0.000002	-0.000000	0.000000	0.000000
22.950329	17.179692	15.895313	1.707951	-1.506555	2.662602	0.000000	-0.279796	0.000000	0.000002	-0.000000	0.000000	0.000000
23.391289	15.902695	17.072918	1.198982	-1.153831	2.555542	0.000000	-0.206245	0.000000	0.000002	-0.000000	0.000000	0.000000
23.832249	15.048808	17.915022	0.744792	-0.748608	2.480366	0.000000	-0.135043	0.000000	0.000002	-0.000000	0.000000	0.000000
24.273209	14.579019	18.383311	0.324629	-0.309325	2.436219	0.000000	-0.065380	0.000000	0.000001	-0.000000	0.000000	0.000000
24.715418	14.471977	18.456229	-0.045301	0.098704	2.422594	0.000000	-0.002402	0.000000	0.000001	-0.000000	0.000000	0.000000
25.012741	14.505036	18.402372	-0.065888	0.082438	2.421880	0.000000	-0.002402	0.000000	0.000001	-0.000000	0.000000	0.000000
25.346075	14.556655	18.353492	-0.088968	0.064201	2.421079	0.000000	-0.002402	0.000000	0.000001	-0.000000	0.000000	0.000000
25.679408	14.623660	18.316770	-0.112048	0.045964	2.420279	0.000000	-0.002402	0.000000	0.000001	-0.000000	0.000000	0.000000
26.013991	14.706092	18.292508	-0.015910	-0.120738	2.419451	0.000000	-0.022030	0.000000	0.000001	-0.000000	0.000000	0.000000
26.311314	14.721565	18.369208	-0.000031	-0.182275	2.412901	0.000000	-0.027947	0.000000	0.000001	-0.000000	0.000000	0.000000
26.752274	14.902998	18.330688	-0.412979	0.269297	2.415684	0.000000	0.040582	0.000000	0.000001	-0.000000	0.000000	0.000000
27.193234	15.455530	17.897819	-0.844795	0.708617	2.448759	0.000000	0.109574	0.000000	0.000001	0.000000	0.000000	0.000000
27.634194	16.404404	17.090297	-1.315206	1.115696	2.512502	0.000000	0.179813	0.000000	0.000001	0.000000	0.000000	0.000000
28.075154	17.792973	15.944863	-1.845706	1.472011	2.607640	0.000000	0.252100	0.000000	0.000001	0.000000	0.000000	0.000000
28.521114	19.708806	14.496383	-2.465486	1.762265	2.736858	0.000000	0.327702	0.000000	0.000001	0.000000	0.000000	0.000000
29.070174	22.143834	12.882322	-1.943165	1.194767	2.894129	0.000000	0.244327	0.000000	0.000002	0.000000	0.000000	0.000000
29.619234	23.926066	11.841334	-1.283589	0.712370	3.004363	0.000000	0.156619	0.000000	0.000002	0.000000	0.000000	0.000000
30.168294	24.929612	11.299272	-0.533346	0.280713	3.065605	0.000000	0.066132	0.000000	0.000002	-0.000000	0.000000	0.000000
30.717354	25.083588	11.217526	0.254570	-0.130950	3.076768	0.000000	-0.025528	0.000000	0.000002	-0.000000	0.000000	0.000000
31.015927	24.974390	11.286249	0.176703	-0.128532	3.071547	0.000000	-0.017489	0.000000	0.000001	-0.000000	0.000000	0.000000
31.349260	24.861175	11.381945	0.162940	-0.158555	3.065717	0.000000	-0.017489	0.000000	0.000001	-0.000000	0.000000	0.000000
31.682593	24.757137	11.497655	0.149176	-0.188577	3.059887	0.000000	-0.017489	0.000000	0.000001	-0.000000	0.000000	0.000000
32.017177	24.661936	11.633927	0.135361	-0.218712	3.054036	0.000000	-0.017489	0.000000	0.000001	-0.000000	0.000000	0.000000
32.314499	24.585094	11.771945	0.058848	-0.214733	3.048836	0.000000	-0.009523	0.000000	0.000001	-0.000000	0.000000	0.000000
32.863559	24.099325	12.247109	0.820644	-0.655788	3.018733	0.000000	-0.099971	0.000000	0.000001	-0.000000	0.000000	0.000000
33.412619	22.804047	13.229258	1.524473	-1.143553	2.939382	0.000000	-0.188645	0.000000	0.000001	-0.000000	0.000000	0.000000
33.961679	20.790753	14.788348	2.120622	-1.712771	2.812192	0.000000	-0.273974	0.000000	0.000001	-0.000000	0.000000	0.000000
34.510739	18.201652	17.035430	2.566980	-2.403985	2.639419	0.000000	-0.354443	0.000000	0.000001	-0.000000	0.000000	0.000000
34.956699	16.188666	19.045285	1.963018	-2.084002	2.497689	0.000000	-0.281531	0.000000	0.000001	-0.000000	0.000000	0.000000
35.397659	14.687706	20.706949	1.453743	-1.669947	2.388923	0.000000	-0.212254	0.000000	0.000001	-0.000000	0.000000	0.000000
35.838619	13.605011	21.968422	1.010885	-1.179910	2.310144	0.000000	-0.145394	0.000000	0.000001	-0.000000	0.000000	0.000000
36.279579	12.891117	22.772309	0.614211	-0.636189	2.260454	0.000000	-0.080190	0.000000	0.000001	-0.000000	0.000000	0.000000
36.721789	12.512717	23.082332	0.276178	-0.120180	2.239262	0.000000	-0.021391	0.000000	0.000001	-0.000000	0.000000	0.000000
37.019112	12.356093	23.157682	0.250604	-0.133247	2.232902	0.000000	-0.021391	0.000000	0.000001	-0.000000	0.000000	0.000000
37.352445	12.198581	23.251396	0.221933	-0.147897	2.225772	0.000000	-0.021391	0.000000	0.000001	-0.000000	0.000000	0.000000
37.685779	12.060183	23.354877	0.193261	-0.162546	2.218641	0.000000	-0.021391	0.000000	0.000001	-0.000000	0.000000	0.000000
38.020362	11.940488	23.468568	0.164482	-0.177251	2.211484	0.000000	-0.021391	0.000000	0.000001	-0.000000	0.000000	0.000000
38.317684	11.850283	23.577854	0.167968	-0.248138	2.205124	0.000000	-0.026799	0.000000	0.000000	-0.000000	0.000000	0.000000
38.758644	11.853310	23.535557	-0.174858	0.343694	2.207231	0.000000	0.036365	0.000000	0.000000	-0.000000	0.000000	0.000000
39.199604	12.161048	22.976240	-0.525673	0.919887	2.237256	0.000000	0.099944	0.000000	0.000000	-0.000000	0.000000	0.000000
39.640564	12.787558	21.925352	-0.900504	1.454226	2.295541	0.000000	0.164660	0.000000	0.000000	-0.000000	0.000000	0.000000
40.081524	13.761464	20.430707	-1.316477	1.922400	2.382748	0.000000	0.231252	0.000000	0.000000	-0.000000	0.000000	0.000000
40.527484	15.144821	18.537743	-1.796419	2.304383	2.501345	0.000000	0.300883	0.000000	0.000000	-0.000000	0.000000	0.000000
41.076544	16.910416	16.410631	-1.400213	1.592582	2.646022	0.000000	0.225343	0.000000	0.000000	-0.000000	0.000000	0.000000
41.625604	18.183710	14.998658	-0.905104	0.994217	2.748064	0.000000	0.145806	0.000000	0.000000	-0.000000	0.000000	0.000000
42.174664	18.874766	14.201251	-0.346062	0.466668	2.805660	0.000000	0.063683	0.000000	0.000000	-0.000000	0.000000	0.000000
42.723724	18.934770	13.961614	0.237424	-0.027641	2.817788	0.000000	-0.019570	0.000000	0.000000	-0.000000	0.000000	0.000000
43.022297	18.827410	13.962722	0.171626	-0.012549	2.814143	0.000000	-0.012208	0.000000	0.000000	-0.000000	0.000000	0.000000
43.502297	18.675247	13.991273	0.145380	-0.046932	2.808284	0.000000	-0.012208	0.000000	0.000000	-0.000000	0.000000	0.000000
43.982297	18.548280	14.052831	0.119134	-0.081314	2.802424	0.000000	-0.012208	0.000000	-0.000000	-0.000000	0.000000	0.000000
44.462297	18.446509	14.147396	0.092889	-0.115697	2.796564	0.000000	-0.012208	0.000000	-0.000000	-0.000000	0.000000	0.000000
44.942297	18.369934	14.274969	0.066643	-0.150080	2.790705	0.000000	-0.012208	0.000000	-0.000000	-0.000000	0.000000	0.000000
45.423547	18.318680	14.435832	-0.050432	-0.113028	2.784847	0.000000	0.001590	0.000000	-0.000000	-0.000000	0.000000	0.000000
45.720870	18.353508	14.509246	-0.114658	-0.095977	2.785320	0.000000	0.008868	0.000000	-0.000000	-0.000000	0.000000	0.000000
46.269930	18.170372	14.895345	0.446227	-0.611375	2.767621	0.000000	-0.073243	0.000000	-0.000000	-0.000000	0.000000	0.000000
46.818990	17.385058	15.867862	0.975594	-1.170320	2.705129	0.000000	-0.154054	0.000000	-0.000000	-0.000000	0.000000	0.000000
47.368050	16.053037	17.496066	1.436049	-1.812623	2.598953	0.000000	-0.232133	0.000000	-0.000000	-0.000000	0.000000	0.000000
47.917110	14.268395	19.895930	1.795069	-2.584036	2.450975	0.000000	-0.306095	0.000000	-0.000000	-0.000000	0.000000	0.000000
48.363070	12.879448	22.029732	1.330475	-2.180588	2.329759	0.000000	-0.237804	0.000000	-0.000000	-0.000000	0.000000	0.000000
48.804030	11.886246	23.738243	0.930433	-1.679193	2.239355	0.000000	-0.172620	0.000000	-0.000000	-0.000000	0.000000	0.000000
49.244990	11.225842	24.969055	0.572900	-1.101397	2.177234	0.000000	-0.109401	0.000000	-0.000000	-0.000000	0.000000	0.000000
49.685950	10.868063	25.666169	0.241542	-0.473487	2.142689	0.000000	-0.047428	0.000000	-0.000001	-0.000000	0.000000	0.000000
50.128160	10.796694	25.797584	-0.052421	0.112652	2.135338	0.000000	0.008768	0.000000	-0.000001	-0.000000	0.000000	0.000000
50.425482	10.836076	25.734066	-0.080035	0.100980	2.137945	0.000000	0.008768	0.000000	-0.000001	-0.000000	0.000000	0.000000
50.758816	10.899753	25.671108	-0.110994	0.087895	2.140867	0.000000	0.008768	0.000000	-0.000001	-0.000000	0.000000	0.000000
51.092149	10.984068	25.616872	-0.141952	0.074810	2.143790	0.000000	0.008768	0.000000	-0.000001	-0.000000	0.000000	0.000000
51.426732	11.089230	25.571725	-0.083064	-0.145774	2.146702	0.000000	-0.008648	0.000000	-0.000001	-0.000000	0.000000	0.000000
51.724055	11.146650	25.661939	-0.082725	-0.220580	2.144131	0.000000	-0.013906	0.000000	-0.000001	-0.000000	0.000000	0.000000
52.165015	11.365106	25.571011	-0.414565	0.426001	2.151586	0.000000	0.047755	0.000000	-0.000001	-0.000000	0.000000	0.000000
52.605975	11.883434	24.916252	-0.765346	1.053198	2.186326	0.000000	0.109959	0.000000	-0.000001	-0.000000	0.000000	0.000000
53.046935	12.725312	23.727453	-1.151092	1.632476	2.248746	0.000000	0.173416	0.000000	-0.000001	-0.000000	0.000000	0.000000
53.487895	13.929205	22.058704	-1.589429	2.137478	2.339555	0.000000	0.238848	0.000000	-0.000001	-0.000000	0.000000	0.000000
53.933855	15.570746	19.960979	-2.104621	2.546559	2.461295	0.000000	0.307399	0.000000	-0.000001	-0.000000	0.000000	0.000000
54.482915	17.684117	17.600612	-1.721666	1.777740	2.609895	0.000000	0.233093	0.000000	-0.000001	-0.000000	0.000000	0.000000
55.031975	19.307285	16.010430	-1.217101	1.135545	2.716500	0.000000	0.154653	0.000000	-0.000001	-0.000000	0.000000	0.000000
55.581035	20.325597	15.077169	-0.626566	0.574232	2.779219	0.000000	0.073470	0.000000	-0.000001	-0.000000	0.000000	0.000000
56.130095	20.667124	14.734355	0.008226	0.053820	2.796939	0.000000	-0.009017	0.000000	-0.000001	-0.000000	0.000000	0.000000
56.428668	20.698780	14.685329	-0.060251	0.071882	2.796429	0.000000	-0.001709	0.000000	-0.000001	-0.000000	0.000000	0.000000
56.762001	20.744335	14.645013	-0.076413	0.049067	2.795859	0.000000	-0.001709	0.000000	-0.000002	-0.000000	0.000000	0.000000
57.095334	20.800664	14.619907	-0.092576	0.026251	2.795290	0.000000	-0.001709	0.000000	-0.000002	-0.000000	0.000000	0.000000
57.429918	20.868041	14.610003	-0.108799	0.003350	2.794718	0.000000	-0.001709	0.000000	-0.000002	-0.000000	0.000000	0.000000
57.727240	20.937024	14.614062	-0.177920	0.021183	2.794210	0.000000	0.005592	0.000000	-0.000002	-0.000000	0.000000	0.000000
58.276300	20.775139	14.871516	0.471014	-0.492851	2.774638	0.000000	-0.076777	0.000000	-0.000002	-0.000000	0.000000	0.000000
58.825360	19.914780	15.709291	1.086679	-1.041990	2.710150	0.000000	-0.157783	0.000000	-0.000002	0.000000	0.000000	0.000000
59.374420	18.416716	17.187059	1.625586	-1.665348	2.601888	0.000000	-0.235991	0.000000	-0.000002	0.000000	0.000000	0.000000
59.923480	16.386764	19.410078	2.049669	-2.407325	2.451772	0.000000	-0.310013	0.000000	-0.000001	0.000000	0.000000	0.000000
60.369440	14.797824	21.386002	1.525913	-2.004693	2.328811	0.000000	-0.241724	0.000000	-0.000001	0.000000	0.000000	0.000000
60.810400	13.654784	22.942744	1.076084	-1.512220	2.236669	0.000000	-0.176587	0.000000	-0.000001	0.000000	0.000000	0.000000
61.251360	12.885360	24.033048	0.675419	-0.950941	2.172780	0.000000	-0.113460	0.000000	-0.000001	0.000000	0.000000	0.000000
61.692320	12.454399	24.607307	0.305612	-0.346396	2.136417	0.000000	-0.051626	0.000000	-0.000001	-0.000000	0.000000	0.000000
62.134530	12.342263	24.638859	-0.020067	0.213433	2.127170	0.000000	0.004404	0.000000	-0.000001	-0.000000	0.000000	0.000000
62.431853	12.361361	24.515693	-0.044166	0.200817	2.128479	0.000000	0.004404	0.000000	-0.000001	-0.000000	0.000000	0.000000
62.765186	12.399811	24.386530	-0.071184	0.186671	2.129948	0.000000	0.004404	0.000000	-0.000001	-0.000000	0.000000	0.000000
63.098520	12.456273	24.266798	-0.098203	0.172526	2.131416	0.000000	0.004404	0.000000	-0.000001	-0.000000	0.000000	0.000000
63.433103	12.531061	24.156099	-0.125322	0.158328	2.132889	0.000000	0.004404	0.000000	-0.000001	-0.000000	0.000000	0.000000
63.730426	12.612749	24.065701	-0.118491	0.086694	2.134199	0.000000	-0.000829	0.000000	-0.000001	-0.000000	0.000000	0.000000
64.171386	12.877795	23.724192	-0.484856	0.684827	2.147375	0.000000	0.060649	0.000000	-0.000001	-0.000000	0.000000	0.000000
64.612346	13.474456	22.866954	-0.873372	1.251801	2.187788	0.000000	0.122818	0.000000	-0.000002	-0.000000	0.000000	0.000000
65.053306	14.429990	21.532993	-1.301790	1.761818	2.255896	0.000000	0.186386	0.000000	-0.000002	-0.000000	0.000000	0.000000
65.494266	15.788054	19.783001	-1.789683	2.191675	2.352477	0.000000	0.252077	0.000000	-0.000002	-0.000000	0.000000	0.000000
65.940226	17.633864	17.671829	-2.364036	2.522569	2.480202	0.000000	0.321040	0.000000	-0.000002	-0.000000	0.000000	0.000000
66.489286	19.999783	15.309998	-1.919492	1.804412	2.636102	0.000000	0.246004	0.000000	-0.000002	-0.000000	0.000000	0.000000
67.038346	21.799745	13.662008	-1.339364	1.214779	2.749542	0.000000	0.166603	0.000000	-0.000002	-0.000000	0.000000	0.000000
67.587406	22.906611	12.610478	-0.664630	0.711672	2.818510	0.000000	0.084248	0.000000	-0.000002	-0.000000	0.000000	0.000000
68.136466	23.242196	12.080508	0.057050	0.259256	2.841782	0.000000	0.000398	0.000000	-0.000002	0.000000	0.000000	0.000000
68.435038	23.248228	11.914849	-0.016525	0.264015	2.844118	0.000000	0.007824	0.000000	-0.000002	0.000000	0.000000	0.000000
68.768372	23.264026	11.748815	-0.030867	0.234089	2.846726	0.000000	0.007824	0.000000	-0.000002	0.000000	0.000000	0.000000
69.101705	23.289384	11.602731	-0.045209	0.204163	2.849334	0.000000	0.007824	0.000000	-0.000002	0.000000	0.000000	0.000000
69.436288	23.324454	11.476162	-0.059605	0.174124	2.851951	0.000000	0.007824	0.000000	-0.000002	0.000000	0.000000	0.000000
69.733611	23.363701	11.380557	-0.133444	0.177166	2.854277	0.000000	0.015281	0.000000	-0.000002	-0.000000	0.000000	0.000000
70.282671	23.108989	11.413839	0.594603	-0.238142	2.839478	0.000000	-0.069110	0.000000	-0.000002	0.000000	0.000000	0.000000
