#ParticleID	Turn	x[m]	xp	y[m]	yp	z[m]	dE[GeV]# s	beta_x	beta_y	alpha_x	alpha_y	D_x	D_y	D_px	D_py	orbit_x	orbit_px	orbit_y	orbit_py
0.300000	11.821719	24.986072	-0.012002	-0.027556	2.618124	0.000000	0.000009	0.000000	-0.000001	0.000001	0.000000	0.000000
0.601250	11.836628	25.006310	-0.037488	-0.039622	2.618126	0.000000	0.000009	0.000000	-0.000001	0.000001	0.000000	0.000000
0.898573	11.866399	25.033411	-0.033543	-0.112920	2.618129	0.000000	-0.006412	0.000000	-0.000001	0.000001	0.000000	0.000000
1.339533	12.048208	24.855328	-0.380324	0.515238	2.631594	0.000000	0.067546	0.000000	-0.000000	0.000001	0.000000	0.000000
1.780493	12.542328	24.131520	-0.744482	1.119953	2.677811	0.000000	0.142273	0.000000	0.000000	0.000001	0.000000	0.000000
2.221453	13.371334	22.894920	-1.142653	1.673711	2.757305	0.000000	0.218620	0.000000	0.000000	0.000001	0.000000	0.000000
2.662413	14.573102	21.201792	-1.593029	2.151317	2.870981	0.000000	0.297457	0.000000	0.000001	0.000001	0.000000	0.000000
3.108373	16.223308	19.104341	-2.120479	2.532171	3.021996	0.000000	0.380172	0.000000	0.000001	0.000001	0.000000	0.000000
3.657433	18.339399	16.748646	-1.710732	1.783569	3.205461	0.000000	0.287134	0.000000	0.000001	0.000001	0.000000	0.000000
4.206493	19.936116	15.140839	-1.180146	1.162007	3.336367	0.000000	0.189003	0.000000	0.000002	0.000001	0.000000	0.000000
4.755553	20.900676	14.166399	-0.566201	0.623211	3.412393	0.000000	0.087519	0.000000	0.000002	0.000001	0.000000	0.000000
5.304613	21.164946	13.755919	0.087738	0.128806	3.432188	0.000000	-0.015517	0.000000	0.000002	0.000000	0.000000	0.000000
5.603185	21.149792	13.664198	0.018317	0.142453	3.430233	0.000000	-0.006549	0.000000	0.000002	0.000000	0.000000	0.000000
5.936519	21.142836	13.577526	0.002551	0.117563	3.428050	0.000000	-0.006549	0.000000	0.000002	0.000000	0.000000	0.000000
6.269852	21.146391	13.507447	-0.013215	0.092673	3.425866	0.000000	-0.006549	0.000000	0.000003	0.000000	0.000000	0.000000
6.604435	21.160529	13.453792	-0.029040	0.067690	3.423675	0.000000	-0.006549	0.000000	0.000003	0.000000	0.000000	0.000000
6.901758	21.181978	13.420141	-0.098446	0.080553	3.421728	0.000000	0.002391	0.000000	0.000003	0.000000	0.000000	0.000000
7.450818	20.929045	13.592351	0.556385	-0.396051	3.394839	0.000000	-0.100191	0.000000	0.000003	0.000000	0.000000	0.000000
7.999878	19.974453	14.300257	1.171916	-0.900865	3.312032	0.000000	-0.200996	0.000000	0.000003	0.000000	0.000000	0.000000
8.548938	18.385631	15.594281	1.704669	-1.469845	3.174776	0.000000	-0.298236	0.000000	0.000003	0.000000	0.000000	0.000000
9.097998	16.274804	17.566594	2.117012	-2.143520	2.985505	0.000000	-0.390185	0.000000	0.000004	0.000000	0.000000	0.000000
9.543958	14.627917	19.324054	1.589021	-1.780671	2.829805	0.000000	-0.308478	0.000000	0.000004	0.000000	0.000000	0.000000
9.984918	13.429990	20.704532	1.137920	-1.338035	2.711025	0.000000	-0.230768	0.000000	0.000004	0.000000	0.000000	0.000000
10.425878	12.605556	21.666201	0.738807	-0.834519	2.625900	0.000000	-0.155686	0.000000	0.000004	0.000000	0.000000	0.000000
10.866838	12.116949	22.165306	0.373449	-0.293034	2.573461	0.000000	-0.082378	0.000000	0.000004	0.000000	0.000000	0.000000
11.309048	11.941711	22.178620	0.054331	0.207338	2.553091	0.000000	-0.016268	0.000000	0.000004	0.000001	0.000000	0.000000
11.606371	11.916827	22.059485	0.029360	0.193356	2.548254	0.000000	-0.016268	0.000000	0.000004	0.000001	0.000000	0.000000
12.086371	11.907993	21.884698	-0.010954	0.170783	2.540445	0.000000	-0.016268	0.000000	0.000005	0.000001	0.000000	0.000000
12.566371	11.937860	21.731581	-0.051268	0.148210	2.532636	0.000000	-0.016268	0.000000	0.000005	0.000001	0.000000	0.000000
13.046371	12.006428	21.600134	-0.091582	0.125638	2.524827	0.000000	-0.016268	0.000000	0.000005	0.000001	0.000000	0.000000
13.526371	12.113697	21.490357	-0.131896	0.103065	2.517018	0.000000	-0.016268	0.000000	0.000005	0.000001	0.000000	0.000000
14.007621	12.260099	21.402048	-0.172315	0.080433	2.509188	0.000000	-0.016268	0.000000	0.000006	0.000001	0.000000	0.000000
14.304943	12.369990	21.358377	-0.166953	0.014077	2.504351	0.000000	-0.022409	0.000000	0.000006	0.000001	0.000000	0.000000
14.745903	12.675854	21.112180	-0.529311	0.542118	2.510101	0.000000	0.048516	0.000000	0.000006	0.000001	0.000000	0.000000
15.186863	13.310704	20.409432	-0.915851	1.045493	2.547218	0.000000	0.119993	0.000000	0.000006	0.000001	0.000000	0.000000
15.627823	14.303545	19.282109	-1.344234	1.501300	2.616125	0.000000	0.192837	0.000000	0.000007	0.000001	0.000000	0.000000
16.068783	15.699737	17.781501	-1.834031	1.888798	2.717607	0.000000	0.267878	0.000000	0.000007	0.000001	0.000000	0.000000
16.514743	17.586722	15.954382	-2.412378	2.191104	2.854514	0.000000	0.346432	0.000000	0.000008	0.000001	0.000000	0.000000
17.063803	20.010167	13.914169	-1.975300	1.546658	3.020994	0.000000	0.259096	0.000000	0.000009	0.000001	0.000000	0.000000
17.612863	21.873726	12.517350	-1.398697	1.012377	3.138186	0.000000	0.167164	0.000000	0.000009	0.000001	0.000000	0.000000
18.161923	23.045766	11.664434	-0.723297	0.550205	3.204014	0.000000	0.072267	0.000000	0.000009	0.000001	0.000000	0.000000
18.710983	23.443501	11.294668	0.003193	0.127223	3.217308	0.000000	-0.023912	0.000000	0.000010	0.000000	0.000000	0.000000
19.009556	23.481984	11.209164	-0.070834	0.129647	3.212678	0.000000	-0.015507	0.000000	0.000010	0.000000	0.000000	0.000000
19.342889	23.533962	11.132812	-0.085101	0.099409	3.207509	0.000000	-0.015507	0.000000	0.000010	0.000000	0.000000	0.000000
19.676223	23.595452	11.076618	-0.099367	0.069172	3.202340	0.000000	-0.015507	0.000000	0.000010	0.000000	0.000000	0.000000
20.010806	23.667029	11.040348	-0.230947	0.093522	3.197171	0.000000	0.000334	0.000000	0.000010	0.000000	0.000000	0.000000
20.308129	23.808295	10.992813	-0.306381	0.095076	3.197270	0.000000	0.008687	0.000000	0.000010	0.000000	0.000000	0.000000
20.857189	23.734109	11.110756	0.440696	-0.311153	3.175819	0.000000	-0.086710	0.000000	0.000010	-0.000000	0.000000	0.000000
21.406249	22.851851	11.684268	1.156644	-0.739545	3.102334	0.000000	-0.180570	0.000000	0.000010	-0.000000	0.000000	0.000000
21.955309	21.223839	12.754197	1.790892	-1.220613	2.978120	0.000000	-0.271226	0.000000	0.000010	-0.000001	0.000000	0.000000
22.504369	18.965068	14.396753	2.298641	-1.788623	2.805379	0.000000	-0.357072	0.000000	0.000009	-0.000001	0.000000	0.000000
22.950329	17.185019	15.871388	1.706948	-1.504079	2.663434	0.000000	-0.279858	0.000000	0.000009	-0.000001	0.000000	0.000000
23.391289	15.908921	17.047067	1.197938	-1.151956	2.556351	0.000000	-0.206287	0.000000	0.000009	-0.000000	0.000000	0.000000
23.832249	15.055990	17.887815	0.743658	-0.747420	2.481162	0.000000	-0.135064	0.000000	0.000009	-0.000000	0.000000	0.000000
24.273209	14.587258	18.355379	0.323354	-0.308877	2.437010	0.000000	-0.065380	0.000000	0.000008	-0.000000	0.000000	0.000000
24.715418	14.481428	18.428238	-0.046754	0.098463	2.423389	0.000000	-0.002383	0.000000	0.000008	0.000000	0.000000	0.000000
25.012741	14.515347	18.374531	-0.067330	0.082172	2.422681	0.000000	-0.002383	0.000000	0.000009	0.000000	0.000000	0.000000
25.346075	14.567923	18.325838	-0.090398	0.063909	2.421886	0.000000	-0.002383	0.000000	0.000009	0.000000	0.000000	0.000000
25.679408	14.635878	18.289320	-0.113467	0.045645	2.421092	0.000000	-0.002383	0.000000	0.000009	0.000000	0.000000	0.000000
26.013991	14.719255	18.265279	-0.017209	-0.120864	2.420270	0.000000	-0.022018	0.000000	0.000009	0.000000	0.000000	0.000000
26.311314	14.735496	18.342061	-0.001282	-0.182356	2.413723	0.000000	-0.027937	0.000000	0.000009	0.000000	0.000000	0.000000
26.752274	14.918187	18.303937	-0.414592	0.268484	2.416516	0.000000	0.040614	0.000000	0.000009	0.000000	0.000000	0.000000
27.193234	15.472327	17.872096	-0.846844	0.707108	2.449609	0.000000	0.109627	0.000000	0.000009	0.000001	0.000000	0.000000
27.634194	16.423235	17.066188	-1.317785	1.113559	2.513380	0.000000	0.179889	0.000000	0.000009	0.000001	0.000000	0.000000
28.075154	17.814353	15.922880	-1.848932	1.469345	2.608556	0.000000	0.252199	0.000000	0.000010	0.000001	0.000000	0.000000
28.521114	19.733410	14.476971	-2.469514	1.759189	2.737824	0.000000	0.327825	0.000000	0.000010	0.000001	0.000000	0.000000
29.070174	22.172543	12.865871	-1.946568	1.192419	2.895153	0.000000	0.244418	0.000000	0.000011	0.000001	0.000000	0.000000
29.619234	23.958056	11.827140	-1.286125	0.710583	3.005427	0.000000	0.156676	0.000000	0.000011	0.000001	0.000000	0.000000
30.168294	24.963828	11.286791	-0.534837	0.279360	3.066690	0.000000	0.066154	0.000000	0.000011	0.000000	0.000000	0.000000
30.717354	25.118816	11.206337	0.254229	-0.131965	3.077857	0.000000	-0.025541	0.000000	0.000011	-0.000000	0.000000	0.000000
31.015927	25.009867	11.275695	0.176295	-0.129611	3.072632	0.000000	-0.017500	0.000000	0.000011	-0.000000	0.000000	0.000000
31.349260	24.896918	11.372122	0.162553	-0.159670	3.066798	0.000000	-0.017500	0.000000	0.000011	-0.000000	0.000000	0.000000
31.682593	24.793130	11.488588	0.148810	-0.189729	3.060965	0.000000	-0.017500	0.000000	0.000011	-0.000000	0.000000	0.000000
32.017177	24.698167	11.625643	0.135016	-0.219900	3.055110	0.000000	-0.017500	0.000000	0.000011	-0.000000	0.000000	0.000000
32.314499	24.621524	11.764378	0.058433	-0.215976	3.049907	0.000000	-0.009532	0.000000	0.000011	-0.000000	0.000000	0.000000
32.863559	24.135543	12.240819	0.821442	-0.656886	3.019790	0.000000	-0.100014	0.000000	0.000011	-0.000000	0.000000	0.000000
33.412619	22.838743	13.224130	1.526429	-1.144583	2.940406	0.000000	-0.188722	0.000000	0.000010	-0.000001	0.000000	0.000000
33.961679	20.822726	14.784348	2.123596	-1.713807	2.813166	0.000000	-0.274083	0.000000	0.000010	-0.000001	0.000000	0.000000
34.510739	18.229892	17.032606	2.570763	-2.405102	2.640324	0.000000	-0.354583	0.000000	0.000009	-0.000001	0.000000	0.000000
34.956699	16.213918	19.043557	1.965961	-2.085334	2.498538	0.000000	-0.281648	0.000000	0.000009	-0.000001	0.000000	0.000000
35.397659	14.710678	20.706468	1.455987	-1.671431	2.389725	0.000000	-0.212350	0.000000	0.000008	-0.000001	0.000000	0.000000
35.838619	13.626273	21.969294	1.012532	-1.181480	2.310909	0.000000	-0.145470	0.000000	0.000008	-0.000001	0.000000	0.000000
36.279579	12.911160	22.774576	0.615338	-0.637773	2.261190	0.000000	-0.080246	0.000000	0.000007	-0.000001	0.000000	0.000000
36.721789	12.531975	23.085979	0.276881	-0.121711	2.239977	0.000000	-0.021430	0.000000	0.000007	-0.000000	0.000000	0.000000
37.019112	12.374924	23.162240	0.251337	-0.134781	2.233606	0.000000	-0.021430	0.000000	0.000007	-0.000000	0.000000	0.000000
37.352445	12.216912	23.256978	0.222699	-0.149433	2.226463	0.000000	-0.021430	0.000000	0.000007	-0.000000	0.000000	0.000000
37.685779	12.077992	23.361485	0.194061	-0.164086	2.219319	0.000000	-0.021430	0.000000	0.000007	-0.000000	0.000000	0.000000
38.020362	11.957750	23.476206	0.165316	-0.178794	2.212149	0.000000	-0.021430	0.000000	0.000007	-0.000000	0.000000	0.000000
38.317684	11.867040	23.586411	0.168872	-0.249701	2.205778	0.000000	-0.026839	0.000000	0.000006	-0.000000	0.000000	0.000000
38.758644	11.869436	23.545388	-0.174326	0.342379	2.207871	0.000000	0.036342	0.000000	0.000006	-0.000000	0.000000	0.000000
39.199604	12.176860	22.987099	-0.525489	0.918880	2.237890	0.000000	0.099937	0.000000	0.000006	-0.000000	0.000000	0.000000
39.640564	12.803358	21.936945	-0.900660	1.453573	2.296174	0.000000	0.164669	0.000000	0.000006	0.000000	0.000000	0.000000
40.081524	13.777553	20.442709	-1.316979	1.922130	2.383390	0.000000	0.231278	0.000000	0.000006	0.000000	0.000000	0.000000
40.527484	15.161522	18.549807	-1.797293	2.304512	2.502001	0.000000	0.300926	0.000000	0.000006	0.000000	0.000000	0.000000
41.076544	16.927740	16.422709	-1.400468	1.592427	2.646696	0.000000	0.225364	0.000000	0.000006	0.000000	0.000000	0.000000
41.625604	18.200964	15.011066	-0.904721	0.993768	2.748744	0.000000	0.145805	0.000000	0.000006	-0.000000	0.000000	0.000000
42.174664	18.891259	14.214328	-0.345068	0.465892	2.806333	0.000000	0.063660	0.000000	0.000006	-0.000000	0.000000	0.000000
42.723724	18.949867	13.975747	0.238958	-0.028800	2.818443	0.000000	-0.019614	0.000000	0.000006	-0.000000	0.000000	0.000000
43.022297	18.841612	13.977519	0.173126	-0.013650	2.814785	0.000000	-0.012251	0.000000	0.000006	-0.000000	0.000000	0.000000
43.502297	18.688006	14.007110	0.146887	-0.047998	2.808905	0.000000	-0.012251	0.000000	0.000006	-0.000000	0.000000	0.000000
43.982297	18.559589	14.069675	0.120648	-0.082345	2.803025	0.000000	-0.012251	0.000000	0.000006	-0.000000	0.000000	0.000000
44.462297	18.456361	14.165213	0.094409	-0.116692	2.797145	0.000000	-0.012251	0.000000	0.000005	-0.000000	0.000000	0.000000
44.942297	18.378323	14.293724	0.068170	-0.151040	2.791265	0.000000	-0.012251	0.000000	0.000005	-0.000000	0.000000	0.000000
45.423547	18.325597	14.455493	-0.048933	-0.113855	2.785386	0.000000	0.001550	0.000000	0.000005	-0.000000	0.000000	0.000000
45.720870	18.359530	14.529391	-0.113164	-0.096729	2.785847	0.000000	0.008828	0.000000	0.000005	-0.000000	0.000000	0.000000
46.269930	18.174656	14.916658	0.447881	-0.612762	2.768122	0.000000	-0.073299	0.000000	0.000005	-0.000001	0.000000	0.000000
46.818990	17.387491	15.891090	0.977290	-1.172442	2.705596	0.000000	-0.154126	0.000000	0.000004	-0.000001	0.000000	0.000000
47.368050	16.053638	17.522094	1.437669	-1.815631	2.599376	0.000000	-0.232219	0.000000	0.000004	-0.000001	0.000000	0.000000
47.917110	14.267312	19.925843	1.796497	-2.588145	2.451348	0.000000	-0.306194	0.000000	0.000003	-0.000001	0.000000	0.000000
48.363070	12.877145	22.063032	1.331793	-2.184043	2.330091	0.000000	-0.237894	0.000000	0.000003	-0.000001	0.000000	0.000000
48.804030	11.882806	23.774244	0.931703	-1.681841	2.239649	0.000000	-0.172702	0.000000	0.000002	-0.000001	0.000000	0.000000
49.244990	11.221281	25.006990	0.574180	-1.103116	2.177494	0.000000	-0.109476	0.000000	0.000002	-0.000001	0.000000	0.000000
49.685950	10.862347	25.705180	0.242890	-0.474200	2.142918	0.000000	-0.047497	0.000000	0.000002	-0.000001	0.000000	0.000000
50.128160	10.789733	25.836765	-0.050961	0.112883	2.135538	0.000000	0.008704	0.000000	0.000001	-0.000001	0.000000	0.000000
50.425482	10.828251	25.773105	-0.078588	0.101229	2.138126	0.000000	0.008704	0.000000	0.000001	-0.000001	0.000000	0.000000
50.758816	10.890968	25.709974	-0.109562	0.088163	2.141028	0.000000	0.008704	0.000000	0.000001	-0.000001	0.000000	0.000000
51.092149	10.974334	25.655554	-0.140536	0.075097	2.143930	0.000000	0.008704	0.000000	0.000001	-0.000001	0.000000	0.000000
51.426732	11.078554	25.610209	-0.081749	-0.145780	2.146820	0.000000	-0.008712	0.000000	0.000001	-0.000001	0.000000	0.000000
51.724055	11.135199	25.700421	-0.081460	-0.220661	2.144230	0.000000	-0.013970	0.000000	0.000000	-0.000001	0.000000	0.000000
52.165015	11.352414	25.609115	-0.413006	0.426936	2.151659	0.000000	0.047693	0.000000	0.000000	-0.000001	0.000000	0.000000
52.605975	11.869211	24.953097	-0.763421	1.055108	2.186372	0.000000	0.109899	0.000000	-0.000000	-0.000001	0.000000	0.000000
53.046935	12.709200	23.762215	-1.148715	1.635273	2.248765	0.000000	0.173356	0.000000	-0.000001	-0.000001	0.000000	0.000000
53.487895	13.910758	22.090654	-1.586491	2.141035	2.339548	0.000000	0.238789	0.000000	-0.000001	-0.000001	0.000000	0.000000
53.933855	15.549376	19.989473	-2.100981	2.550717	2.461261	0.000000	0.307339	0.000000	-0.000001	-0.000001	0.000000	0.000000
54.482915	17.659023	17.625154	-1.718564	1.780824	2.609829	0.000000	0.233035	0.000000	-0.000002	-0.000001	0.000000	0.000000
55.031975	19.279182	16.032072	-1.214756	1.137775	2.716403	0.000000	0.154597	0.000000	-0.000002	-0.000001	0.000000	0.000000
55.581035	20.295412	15.096756	-0.625143	0.575767	2.779092	0.000000	0.073417	0.000000	-0.000002	-0.000001	0.000000	0.000000
56.130095	20.635932	14.752585	0.008626	0.054769	2.796785	0.000000	-0.009065	0.000000	-0.000002	-0.000000	0.000000	0.000000
56.428668	20.667307	14.702957	-0.059791	0.072901	2.796261	0.000000	-0.001757	0.000000	-0.000003	-0.000000	0.000000	0.000000
56.762001	20.712563	14.661954	-0.075977	0.050109	2.795675	0.000000	-0.001757	0.000000	-0.000003	-0.000000	0.000000	0.000000
57.095334	20.768610	14.636145	-0.092163	0.027318	2.795090	0.000000	-0.001757	0.000000	-0.000003	-0.000000	0.000000	0.000000
57.429918	20.835718	14.625519	-0.108410	0.004441	2.794502	0.000000	-0.001757	0.000000	-0.000003	-0.000000	0.000000	0.000000
57.727240	20.904477	14.628923	-0.177469	0.022335	2.793980	0.000000	0.005543	0.000000	-0.000003	-0.000000	0.000000	0.000000
58.276300	20.742697	14.885342	0.470372	-0.492107	2.774384	0.000000	-0.076817	0.000000	-0.000004	-0.000000	0.000000	0.000000
58.825360	19.883626	15.722497	1.084988	-1.041600	2.709876	0.000000	-0.157815	0.000000	-0.000004	-0.000000	0.000000	0.000000
59.374420	18.387944	17.200017	1.622965	-1.665283	2.601599	0.000000	-0.236014	0.000000	-0.000004	-0.000000	0.000000	0.000000
59.923480	16.361298	19.423141	2.046305	-2.407582	2.451473	0.000000	-0.310026	0.000000	-0.000004	-0.000000	0.000000	0.000000
60.369440	14.775017	21.399107	1.523293	-2.004531	2.328504	0.000000	-0.241746	0.000000	-0.000004	-0.000000	0.000000	0.000000
60.810400	13.634006	22.955524	1.074084	-1.511648	2.236351	0.000000	-0.176616	0.000000	-0.000004	-0.000000	0.000000	0.000000
61.251360	12.866108	24.045153	0.673946	-0.949986	2.172448	0.000000	-0.113498	0.000000	-0.000004	-0.000000	0.000000	0.000000
61.692320	12.436239	24.618416	0.304600	-0.345101	2.136066	0.000000	-0.051672	0.000000	-0.000004	-0.000000	0.000000	0.000000
62.134530	12.324812	24.648693	-0.020707	0.214983	2.126797	0.000000	0.004349	0.000000	-0.000004	-0.000001	0.000000	0.000000
62.431853	12.344300	24.524606	-0.044841	0.202363	2.128090	0.000000	0.004349	0.000000	-0.000005	-0.000001	0.000000	0.000000
62.765186	12.383214	24.394414	-0.071898	0.188215	2.129540	0.000000	0.004349	0.000000	-0.000005	-0.000001	0.000000	0.000000
63.098520	12.440165	24.273653	-0.098956	0.174067	2.130990	0.000000	0.004349	0.000000	-0.000005	-0.000001	0.000000	0.000000
63.433103	12.515470	24.161925	-0.126115	0.159865	2.132445	0.000000	0.004349	0.000000	-0.000005	-0.000001	0.000000	0.000000
63.730426	12.597639	24.070614	-0.119354	0.088214	2.133738	0.000000	-0.000884	0.000000	-0.000005	-0.000001	0.000000	0.000000
64.171386	12.863301	23.727719	-0.485395	0.686437	2.146888	0.000000	0.060582	0.000000	-0.000006	-0.000001	0.000000	0.000000
64.612346	13.460305	22.869049	-0.873613	1.253428	2.187269	0.000000	0.122739	0.000000	-0.000006	-0.000001	0.000000	0.000000
65.053306	14.415924	21.533672	-1.301744	1.763389	2.255340	0.000000	0.186293	0.000000	-0.000006	-0.000001	0.000000	0.000000
65.494266	15.773820	19.782346	-1.789347	2.193117	2.351876	0.000000	0.251968	0.000000	-0.000007	-0.000001	0.000000	0.000000
65.940226	17.619195	17.669971	-2.363393	2.523815	2.479550	0.000000	0.320916	0.000000	-0.000007	-0.000001	0.000000	0.000000
66.489286	19.984716	15.306843	-1.919416	1.805541	2.635388	0.000000	0.245901	0.000000	-0.000008	-0.000001	0.000000	0.000000
67.038346	21.784911	13.657641	-1.339861	1.215872	2.748779	0.000000	0.166525	0.000000	-0.000009	-0.000001	0.000000	0.000000
67.587406	22.892621	12.604895	-0.665664	0.712806	2.817711	0.000000	0.084195	0.000000	-0.000009	-0.000001	0.000000	0.000000
68.136466	23.229605	12.073621	0.055551	0.260512	2.840961	0.000000	0.000372	0.000000	-0.000009	-0.000000	0.000000	0.000000
68.435038	23.236517	11.907232	-0.018002	0.265222	2.843289	0.000000	0.007795	0.000000	-0.000009	-0.000000	0.000000	0.000000
68.768372	23.253301	11.740405	-0.032352	0.235259	2.845887	0.000000	0.007795	0.000000	-0.000009	-0.000000	0.000000	0.000000
69.101705	23.279652	11.593554	-0.046702	0.205295	2.848485	0.000000	0.007795	0.000000	-0.000009	-0.000000	0.000000	0.000000
69.436288	23.315722	11.466240	-0.061105	0.175219	2.851094	0.000000	0.007795	0.000000	-0.000009	-0.000000	0.000000	0.000000
69.733611	23.355864	11.369993	-0.134934	0.178203	2.853411	0.000000	0.015251	0.000000	-0.000010	-0.000000	0.000000	0.000000
70.282671	23.102918	11.401972	0.592897	-0.236789	2.838603	0.000000	-0.069113	0.000000	-0.000010	0.000000	0.000000	0.000000
