#ParticleID	Turn	x[m]	xp	y[m]	yp	z[m]	dE[GeV]# s	beta_x	beta_y	alpha_x	alpha_y	D_x	D_y	D_px	D_py	orbit_x	orbit_px	orbit_y	orbit_py
0.300000	11.804414	25.054953	-0.010178	-0.026818	2.618304	0.000000	-0.000061	0.000000	-0.000002	0.000002	0.000000	0.000000
0.601250	11.818235	25.074735	-0.035701	-0.038851	2.618285	0.000000	-0.000061	0.000000	-0.000001	0.000002	0.000000	0.000000
0.898573	11.846953	25.101369	-0.031838	-0.112282	2.618266	0.000000	-0.006482	0.000000	-0.000001	0.000002	0.000000	0.000000
1.339533	12.027051	24.921931	-0.378133	0.517659	2.631701	0.000000	0.067479	0.000000	0.000000	0.000002	0.000000	0.000000
1.780493	12.518988	24.195239	-0.741703	1.124046	2.677888	0.000000	0.142208	0.000000	0.000001	0.000002	0.000000	0.000000
2.221453	13.345240	22.954358	-1.139160	1.679290	2.757353	0.000000	0.218557	0.000000	0.000002	0.000002	0.000000	0.000000
2.662413	14.543554	21.255746	-1.588662	2.158128	2.871002	0.000000	0.297395	0.000000	0.000002	0.000002	0.000000	0.000000
3.108373	16.189399	19.151781	-2.115030	2.539906	3.021988	0.000000	0.380110	0.000000	0.000003	0.000002	0.000000	0.000000
3.657433	18.299962	16.788666	-1.706171	1.789428	3.205419	0.000000	0.287073	0.000000	0.000004	0.000002	0.000000	0.000000
4.206493	19.892310	15.175259	-1.176795	1.166406	3.336292	0.000000	0.188944	0.000000	0.000005	0.000002	0.000000	0.000000
4.755553	20.853967	14.196641	-0.564297	0.626465	3.412285	0.000000	0.087463	0.000000	0.000006	0.000001	0.000000	0.000000
5.304613	21.117007	13.783108	0.088060	0.131146	3.432050	0.000000	-0.015569	0.000000	0.000007	0.000001	0.000000	0.000000
5.603185	21.101594	13.689940	0.018734	0.144889	3.430079	0.000000	-0.006602	0.000000	0.000007	0.000001	0.000000	0.000000
5.936519	21.094372	13.601634	0.002932	0.120029	3.427878	0.000000	-0.006602	0.000000	0.000007	0.000001	0.000000	0.000000
6.269852	21.097685	13.529901	-0.012870	0.095169	3.425677	0.000000	-0.006602	0.000000	0.000008	0.000001	0.000000	0.000000
6.604435	21.111604	13.474565	-0.028731	0.070216	3.423467	0.000000	-0.006602	0.000000	0.000008	0.000001	0.000000	0.000000
6.901758	21.132880	13.439405	-0.098039	0.083154	3.421504	0.000000	0.002337	0.000000	0.000009	0.000001	0.000000	0.000000
7.450818	20.880404	13.609045	0.555150	-0.393944	3.394587	0.000000	-0.100237	0.000000	0.000009	0.000001	0.000000	0.000000
7.999878	19.928035	14.314838	1.169126	-0.899101	3.311757	0.000000	-0.201034	0.000000	0.000010	0.000001	0.000000	0.000000
8.548938	18.343044	15.607056	1.700521	-1.468300	3.174483	0.000000	-0.298264	0.000000	0.000010	0.000000	0.000000	0.000000
9.097998	16.237386	17.577740	2.111800	-2.142082	2.985199	0.000000	-0.390204	0.000000	0.000010	0.000000	0.000000	0.000000
9.543958	14.594634	19.333690	1.584927	-1.778734	2.829488	0.000000	-0.308505	0.000000	0.000010	0.000000	0.000000	0.000000
9.984918	13.399898	20.712273	1.134749	-1.335691	2.710694	0.000000	-0.230803	0.000000	0.000010	0.000001	0.000000	0.000000
10.425878	12.577908	21.671734	0.736415	-0.831875	2.625552	0.000000	-0.155730	0.000000	0.000011	0.000001	0.000000	0.000000
10.866838	12.091109	22.168419	0.371726	-0.290210	2.573092	0.000000	-0.082431	0.000000	0.000011	0.000001	0.000000	0.000000
11.309048	11.917127	22.179203	0.053136	0.210216	2.552695	0.000000	-0.016330	0.000000	0.000011	0.000001	0.000000	0.000000
11.606371	11.892969	22.058361	0.028116	0.196218	2.547840	0.000000	-0.016330	0.000000	0.000012	0.000001	0.000000	0.000000
12.086371	11.885366	21.880839	-0.012276	0.173619	2.540001	0.000000	-0.016330	0.000000	0.000013	0.000001	0.000000	0.000000
12.566371	11.916539	21.725012	-0.052668	0.151021	2.532162	0.000000	-0.016330	0.000000	0.000013	0.000001	0.000000	0.000000
13.046371	11.986488	21.590879	-0.093059	0.128423	2.524322	0.000000	-0.016330	0.000000	0.000014	0.000001	0.000000	0.000000
13.526371	12.095213	21.478440	-0.133451	0.105825	2.516483	0.000000	-0.016330	0.000000	0.000014	0.000001	0.000000	0.000000
14.007621	12.243149	21.387488	-0.173948	0.083167	2.508624	0.000000	-0.016330	0.000000	0.000015	0.000001	0.000000	0.000000
14.304943	12.354026	21.342194	-0.168677	0.016840	2.503768	0.000000	-0.022469	0.000000	0.000015	0.000001	0.000000	0.000000
14.745903	12.661270	21.093771	-0.530727	0.544386	2.509488	0.000000	0.048441	0.000000	0.000016	0.000002	0.000000	0.000000
15.186863	13.297259	20.389281	-0.917025	1.047162	2.546568	0.000000	0.119902	0.000000	0.000017	0.000002	0.000000	0.000000
15.627823	14.291049	19.260779	-1.345220	1.502293	2.615431	0.000000	0.192729	0.000000	0.000018	0.000003	0.000000	0.000000
16.068783	15.688044	17.759610	-1.834873	1.889071	2.716859	0.000000	0.267751	0.000000	0.000019	0.000003	0.000000	0.000000
16.514743	17.575731	15.932578	-2.413116	2.190640	2.853704	0.000000	0.346285	0.000000	0.000021	0.000004	0.000000	0.000000
17.063803	20.000305	13.892604	-1.976605	1.546683	3.020110	0.000000	0.258976	0.000000	0.000023	0.000003	0.000000	0.000000
17.612863	21.865568	12.495491	-1.400476	1.012892	3.137244	0.000000	0.167073	0.000000	0.000024	0.000002	0.000000	0.000000
18.161923	23.039767	11.641723	-0.725424	0.551248	3.203029	0.000000	0.072207	0.000000	0.000025	0.000001	0.000000	0.000000
18.710983	23.439961	11.270490	0.000868	0.128868	3.216299	0.000000	-0.023939	0.000000	0.000025	0.000001	0.000000	0.000000
19.009556	23.479824	11.184064	-0.073148	0.131154	3.211660	0.000000	-0.015538	0.000000	0.000026	0.000001	0.000000	0.000000
19.342889	23.533347	11.106734	-0.087420	0.100837	3.206481	0.000000	-0.015538	0.000000	0.000026	0.000001	0.000000	0.000000
19.676223	23.596385	11.049615	-0.101693	0.070520	3.201301	0.000000	-0.015538	0.000000	0.000026	0.000001	0.000000	0.000000
20.010806	23.669521	11.012470	-0.233291	0.094652	3.196122	0.000000	0.000298	0.000000	0.000026	0.000001	0.000000	0.000000
20.308129	23.812184	10.964285	-0.308739	0.096053	3.196211	0.000000	0.008647	0.000000	0.000026	0.000001	0.000000	0.000000
20.857189	23.740504	11.080713	0.438517	-0.309353	3.174747	0.000000	-0.086716	0.000000	0.000027	-0.000000	0.000000	0.000000
21.406249	22.860469	11.651740	1.154798	-0.736794	3.101269	0.000000	-0.180541	0.000000	0.000026	-0.000001	0.000000	0.000000
21.955309	21.234241	12.718039	1.789509	-1.216714	2.977081	0.000000	-0.271163	0.000000	0.000026	-0.000002	0.000000	0.000000
22.504369	18.976687	14.355561	2.297819	-1.783299	2.804384	0.000000	-0.356976	0.000000	0.000024	-0.000003	0.000000	0.000000
22.950329	17.197430	15.825862	1.705983	-1.499726	2.662477	0.000000	-0.279787	0.000000	0.000023	-0.000002	0.000000	0.000000
23.391289	15.922262	16.998205	1.196786	-1.148770	2.555420	0.000000	-0.206240	0.000000	0.000023	-0.000001	0.000000	0.000000
23.832249	15.070448	17.836713	0.742267	-0.745545	2.480247	0.000000	-0.135041	0.000000	0.000022	-0.000001	0.000000	0.000000
24.273209	14.603072	18.303235	0.321660	-0.308398	2.436100	0.000000	-0.065381	0.000000	0.000022	-0.000000	0.000000	0.000000
24.715418	14.498902	18.376300	-0.048790	0.097656	2.422474	0.000000	-0.002404	0.000000	0.000022	0.000000	0.000000	0.000000
25.012741	14.534026	18.323086	-0.069345	0.081322	2.421759	0.000000	-0.002404	0.000000	0.000022	0.000000	0.000000	0.000000
25.346075	14.587938	18.274975	-0.092390	0.063010	2.420957	0.000000	-0.002404	0.000000	0.000022	0.000000	0.000000	0.000000
25.679408	14.657213	18.239072	-0.115435	0.044698	2.420156	0.000000	-0.002404	0.000000	0.000022	0.000000	0.000000	0.000000
26.013991	14.741899	18.215681	-0.018971	-0.121458	2.419326	0.000000	-0.022032	0.000000	0.000022	0.000000	0.000000	0.000000
26.311314	14.759179	18.292830	-0.002960	-0.182871	2.412776	0.000000	-0.027947	0.000000	0.000022	0.000000	0.000000	0.000000
26.752274	14.943610	18.255748	-0.416877	0.266645	2.415558	0.000000	0.040579	0.000000	0.000023	0.000001	0.000000	0.000000
27.193234	15.500070	17.826085	-0.849839	0.704029	2.448630	0.000000	0.109567	0.000000	0.000023	0.000001	0.000000	0.000000
27.634194	16.453982	17.023389	-1.321627	1.109380	2.512369	0.000000	0.179803	0.000000	0.000024	0.000002	0.000000	0.000000
28.075154	17.848926	15.884184	-1.853798	1.464255	2.607501	0.000000	0.252087	0.000000	0.000025	0.000002	0.000000	0.000000
28.521114	19.772866	14.443138	-2.475636	1.753419	2.736712	0.000000	0.327685	0.000000	0.000026	0.000003	0.000000	0.000000
29.070174	22.218190	12.837622	-1.951652	1.187959	2.893973	0.000000	0.244315	0.000000	0.000027	0.000002	0.000000	0.000000
29.619234	24.008549	11.803218	-1.289814	0.707114	3.004201	0.000000	0.156612	0.000000	0.000028	0.000001	0.000000	0.000000
30.168294	25.017480	11.266249	-0.536869	0.276637	3.065440	0.000000	0.066130	0.000000	0.000029	0.000000	0.000000	0.000000
30.717354	25.173719	11.188468	0.253997	-0.134137	3.076604	0.000000	-0.025524	0.000000	0.000029	-0.000001	0.000000	0.000000
31.015927	25.064980	11.259170	0.175958	-0.131890	3.071383	0.000000	-0.017488	0.000000	0.000029	-0.000000	0.000000	0.000000
31.349260	24.952245	11.357137	0.162247	-0.162011	3.065554	0.000000	-0.017488	0.000000	0.000028	-0.000000	0.000000	0.000000
31.682593	24.848650	11.475185	0.148537	-0.192131	3.059725	0.000000	-0.017488	0.000000	0.000028	-0.000000	0.000000	0.000000
32.017177	24.753859	11.613868	0.134775	-0.222365	3.053874	0.000000	-0.017488	0.000000	0.000028	-0.000000	0.000000	0.000000
32.314499	24.677352	11.754084	0.058083	-0.218527	3.048674	0.000000	-0.009524	0.000000	0.000028	-0.000000	0.000000	0.000000
32.863559	24.190735	12.233229	0.822941	-0.659287	3.018572	0.000000	-0.099967	0.000000	0.000028	-0.000001	0.000000	0.000000
33.412619	22.891317	13.219173	1.529670	-1.147007	2.939226	0.000000	-0.188636	0.000000	0.000027	-0.000002	0.000000	0.000000
33.961679	20.870883	14.782144	2.128351	-1.716425	2.812044	0.000000	-0.273960	0.000000	0.000025	-0.000003	0.000000	0.000000
34.510739	18.272145	17.033468	2.576695	-2.408101	2.639281	0.000000	-0.354424	0.000000	0.000023	-0.000004	0.000000	0.000000
34.956699	16.251468	19.047227	1.970608	-2.088606	2.497560	0.000000	-0.281516	0.000000	0.000022	-0.000003	0.000000	0.000000
35.397659	14.744612	20.713090	1.459571	-1.674826	2.388801	0.000000	-0.212242	0.000000	0.000020	-0.000003	0.000000	0.000000
35.838619	13.657452	21.978906	1.015218	-1.184841	2.310027	0.000000	-0.145385	0.000000	0.000019	-0.000002	0.000000	0.000000
36.279579	12.940320	22.787082	0.617248	-0.640948	2.260342	0.000000	-0.080184	0.000000	0.000019	-0.000002	0.000000	0.000000
36.721789	12.559756	23.101157	0.278168	-0.124587	2.239152	0.000000	-0.021387	0.000000	0.000018	-0.000001	0.000000	0.000000
37.019112	12.401928	23.179128	0.252663	-0.137657	2.232794	0.000000	-0.021387	0.000000	0.000018	-0.000001	0.000000	0.000000
37.352445	12.243017	23.275784	0.224070	-0.152310	2.225665	0.000000	-0.021387	0.000000	0.000017	-0.000001	0.000000	0.000000
37.685779	12.103168	23.382208	0.195476	-0.166963	2.218537	0.000000	-0.021387	0.000000	0.000017	-0.000001	0.000000	0.000000
38.020362	11.981964	23.498856	0.166776	-0.181672	2.211381	0.000000	-0.021387	0.000000	0.000016	-0.000001	0.000000	0.000000
38.317684	11.890375	23.610772	0.170426	-0.252634	2.205023	0.000000	-0.026793	0.000000	0.000016	-0.000001	0.000000	0.000000
38.758644	11.891632	23.572042	-0.173288	0.340131	2.207133	0.000000	0.036368	0.000000	0.000016	-0.000001	0.000000	0.000000
39.199604	12.198350	23.015393	-0.524919	0.917421	2.237158	0.000000	0.099944	0.000000	0.000015	-0.000000	0.000000	0.000000
39.640564	12.824541	21.966153	-0.900531	1.452968	2.295442	0.000000	0.164658	0.000000	0.000015	-0.000000	0.000000	0.000000
40.081524	13.798814	20.472062	-1.317287	1.922407	2.382649	0.000000	0.231248	0.000000	0.000015	0.000000	0.000000	0.000000
40.527484	15.183258	18.578519	-1.798053	2.305665	2.501242	0.000000	0.300876	0.000000	0.000016	0.000001	0.000000	0.000000
41.076544	16.949852	16.450579	-1.400387	1.592817	2.645917	0.000000	0.225339	0.000000	0.000016	0.000000	0.000000	0.000000
41.625604	18.222526	15.038910	-0.903805	0.993423	2.747957	0.000000	0.145806	0.000000	0.000016	-0.000000	0.000000	0.000000
42.174664	18.911384	14.242963	-0.343382	0.464788	2.805554	0.000000	0.063686	0.000000	0.000016	-0.000001	0.000000	0.000000
42.723724	18.967769	14.006044	0.241296	-0.030742	2.817685	0.000000	-0.019564	0.000000	0.000015	-0.000001	0.000000	0.000000
43.022297	18.858143	14.008916	0.175423	-0.015469	2.814042	0.000000	-0.012203	0.000000	0.000015	-0.000001	0.000000	0.000000
43.502297	18.702331	14.040217	0.149186	-0.049741	2.808185	0.000000	-0.012203	0.000000	0.000014	-0.000001	0.000000	0.000000
43.982297	18.571705	14.104419	0.122950	-0.084013	2.802329	0.000000	-0.012203	0.000000	0.000013	-0.000001	0.000000	0.000000
44.462297	18.466267	14.201522	0.096713	-0.118285	2.796472	0.000000	-0.012203	0.000000	0.000013	-0.000001	0.000000	0.000000
44.942297	18.386016	14.331526	0.070477	-0.152557	2.790616	0.000000	-0.012203	0.000000	0.000012	-0.000001	0.000000	0.000000
45.423547	18.331068	14.494720	-0.046650	-0.115103	2.784761	0.000000	0.001595	0.000000	0.000012	-0.000001	0.000000	0.000000
45.720870	18.363641	14.569344	-0.110881	-0.097824	2.785235	0.000000	0.008871	0.000000	0.000011	-0.000001	0.000000	0.000000
46.269930	18.176205	14.958487	0.450237	-0.615102	2.767540	0.000000	-0.073237	0.000000	0.000011	-0.000001	0.000000	0.000000
46.818990	17.386489	15.936244	0.979552	-1.176193	2.705053	0.000000	-0.154045	0.000000	0.000010	-0.000002	0.000000	0.000000
47.368050	16.050277	17.572260	1.439677	-1.821062	2.598883	0.000000	-0.232122	0.000000	0.000009	-0.000002	0.000000	0.000000
47.917110	14.261950	19.983064	1.798110	-2.595640	2.450914	0.000000	-0.306081	0.000000	0.000007	-0.000002	0.000000	0.000000
48.363070	12.870375	22.126393	1.333351	-2.190256	2.329705	0.000000	-0.237793	0.000000	0.000006	-0.000002	0.000000	0.000000
48.804030	11.874659	23.842415	0.933279	-1.686494	2.239306	0.000000	-0.172609	0.000000	0.000005	-0.000002	0.000000	0.000000
49.244990	11.211710	25.078497	0.575846	-1.105998	2.177190	0.000000	-0.109392	0.000000	0.000005	-0.000002	0.000000	0.000000
49.685950	10.851239	25.778396	0.244722	-0.475180	2.142650	0.000000	-0.047420	0.000000	0.000004	-0.000002	0.000000	0.000000
50.128160	10.776901	25.909985	-0.048911	0.113673	2.135303	0.000000	0.008775	0.000000	0.000003	-0.000002	0.000000	0.000000
50.425482	10.814209	25.845845	-0.076566	0.102049	2.137913	0.000000	0.008775	0.000000	0.000002	-0.000002	0.000000	0.000000
50.758816	10.875587	25.782156	-0.107570	0.089018	2.140838	0.000000	0.008775	0.000000	0.000002	-0.000002	0.000000	0.000000
51.092149	10.957636	25.727155	-0.138575	0.075987	2.143764	0.000000	0.008775	0.000000	0.000001	-0.000002	0.000000	0.000000
51.426732	11.060554	25.681204	-0.079965	-0.145432	2.146679	0.000000	-0.008640	0.000000	0.000001	-0.000002	0.000000	0.000000
51.724055	11.116148	25.771199	-0.079758	-0.220453	2.144111	0.000000	-0.013898	0.000000	0.000000	-0.000002	0.000000	0.000000
52.165015	11.331659	25.678883	-0.410828	0.429009	2.151571	0.000000	0.047762	0.000000	-0.000001	-0.000002	0.000000	0.000000
52.605975	11.846289	25.020246	-0.760668	1.058951	2.186314	0.000000	0.109966	0.000000	-0.000001	-0.000002	0.000000	0.000000
53.046935	12.683550	23.825256	-1.145260	1.640712	2.248737	0.000000	0.173423	0.000000	-0.000002	-0.000002	0.000000	0.000000
53.487895	13.881695	22.148283	-1.582176	2.147821	2.339551	0.000000	0.238855	0.000000	-0.000003	-0.000002	0.000000	0.000000
53.933855	15.516004	20.040557	-2.095601	2.558546	2.461294	0.000000	0.307406	0.000000	-0.000004	-0.000002	0.000000	0.000000
54.482915	17.620190	17.668764	-1.714057	1.786688	2.609899	0.000000	0.233100	0.000000	-0.000005	-0.000002	0.000000	0.000000
55.031975	19.236028	16.070125	-1.211441	1.142092	2.716508	0.000000	0.154659	0.000000	-0.000006	-0.000002	0.000000	0.000000
55.581035	20.249384	15.130772	-0.623255	0.578844	2.779231	0.000000	0.073476	0.000000	-0.000007	-0.000001	0.000000	0.000000
56.130095	20.588679	14.783799	0.008955	0.056826	2.796955	0.000000	-0.009011	0.000000	-0.000008	-0.000001	0.000000	0.000000
56.428668	20.619795	14.732883	-0.059374	0.075077	2.796447	0.000000	-0.001703	0.000000	-0.000008	-0.000001	0.000000	0.000000
56.762001	20.664785	14.690416	-0.075596	0.052324	2.795880	0.000000	-0.001703	0.000000	-0.000008	-0.000001	0.000000	0.000000
57.095334	20.720590	14.663118	-0.091819	0.029571	2.795313	0.000000	-0.001703	0.000000	-0.000009	-0.000001	0.000000	0.000000
57.429918	20.787481	14.650971	-0.108102	0.006733	2.794743	0.000000	-0.001703	0.000000	-0.000009	-0.000001	0.000000	0.000000
57.727240	20.856066	14.653001	-0.177070	0.024727	2.794237	0.000000	0.005598	0.000000	-0.000010	-0.000001	0.000000	0.000000
58.276300	20.694741	14.907159	0.469150	-0.490356	2.774670	0.000000	-0.076771	0.000000	-0.000010	-0.000001	0.000000	0.000000
58.825360	19.837867	15.742686	1.082232	-1.040367	2.710185	0.000000	-0.157778	0.000000	-0.000011	-0.000001	0.000000	0.000000
59.374420	18.345968	17.219095	1.618870	-1.664480	2.601925	0.000000	-0.235987	0.000000	-0.000011	-0.000000	0.000000	0.000000
59.923480	16.324426	19.441546	2.041159	-2.407151	2.451811	0.000000	-0.310010	0.000000	-0.000011	0.000000	0.000000	0.000000
60.369440	14.742229	21.416831	1.519250	-2.003441	2.328851	0.000000	-0.241721	0.000000	-0.000011	-0.000000	0.000000	0.000000
60.810400	13.604371	22.972015	1.070950	-1.509953	2.236711	0.000000	-0.176582	0.000000	-0.000011	-0.000000	0.000000	0.000000
61.251360	12.838890	24.059910	0.671578	-0.947764	2.172825	0.000000	-0.113455	0.000000	-0.000011	-0.000001	0.000000	0.000000
61.692320	12.410813	24.631017	0.302889	-0.342452	2.136464	0.000000	-0.051619	0.000000	-0.000012	-0.000001	0.000000	0.000000
62.134530	12.300637	24.658806	-0.021896	0.217909	2.127221	0.000000	0.004411	0.000000	-0.000012	-0.000001	0.000000	0.000000
62.431853	12.320847	24.532983	-0.046079	0.205279	2.128533	0.000000	0.004411	0.000000	-0.000013	-0.000001	0.000000	0.000000
62.765186	12.360604	24.400850	-0.073191	0.191120	2.130004	0.000000	0.004411	0.000000	-0.000013	-0.000001	0.000000	0.000000
63.098520	12.418435	24.278156	-0.100302	0.176960	2.131475	0.000000	0.004411	0.000000	-0.000014	-0.000001	0.000000	0.000000
63.433103	12.494659	24.164496	-0.127516	0.162747	2.132952	0.000000	0.004411	0.000000	-0.000014	-0.000001	0.000000	0.000000
63.730426	12.577676	24.071475	-0.120850	0.091078	2.134264	0.000000	-0.000823	0.000000	-0.000014	-0.000001	0.000000	0.000000
64.171386	12.844470	23.726067	-0.486476	0.689250	2.147444	0.000000	0.060657	0.000000	-0.000015	-0.000002	0.000000	0.000000
64.612346	13.442262	22.864986	-0.874328	1.256061	2.187861	0.000000	0.122828	0.000000	-0.000016	-0.000002	0.000000	0.000000
65.053306	14.398363	21.527411	-1.302125	1.765722	2.255975	0.000000	0.186398	0.000000	-0.000017	-0.000003	0.000000	0.000000
65.494266	15.756454	19.774200	-1.789412	2.195045	2.352562	0.000000	0.252091	0.000000	-0.000018	-0.000003	0.000000	0.000000
65.940226	17.601746	17.660322	-2.363144	2.525245	2.480295	0.000000	0.321057	0.000000	-0.000020	-0.000003	0.000000	0.000000
66.489286	19.967395	15.295628	-1.919898	1.806983	2.636205	0.000000	0.246017	0.000000	-0.000021	-0.000003	0.000000	0.000000
67.038346	21.768506	13.644791	-1.341040	1.217428	2.749653	0.000000	0.166613	0.000000	-0.000023	-0.000002	0.000000	0.000000
67.587406	22.877858	12.590223	-0.667458	0.714588	2.818625	0.000000	0.084254	0.000000	-0.000024	-0.000001	0.000000	0.000000
68.136466	23.217093	12.056812	0.053269	0.262646	2.841900	0.000000	0.000401	0.000000	-0.000024	-0.000001	0.000000	0.000000
68.435038	23.225354	11.889192	-0.020266	0.267248	2.844238	0.000000	0.007827	0.000000	-0.000024	-0.000001	0.000000	0.000000
68.768372	23.243651	11.721039	-0.034624	0.237209	2.846847	0.000000	0.007827	0.000000	-0.000024	-0.000001	0.000000	0.000000
69.101705	23.271519	11.572913	-0.048982	0.207170	2.849456	0.000000	0.007827	0.000000	-0.000025	-0.000001	0.000000	0.000000
69.436288	23.309118	11.444370	-0.063394	0.177019	2.852076	0.000000	0.007827	0.000000	-0.000025	-0.000001	0.000000	0.000000
69.733611	23.350623	11.347073	-0.137224	0.179879	2.854403	0.000000	0.015287	0.000000	-0.000025	-0.000001	0.000000	0.000000
70.282671	23.100265	11.376853	0.590500	-0.234437	2.839606	0.000000	-0.069109	0.000000	-0.000025	0.000000	0.000000	0.000000
