#ParticleID	Turn	x[m]	xp	y[m]	yp	z[m]	dE[GeV]# s	beta_x	beta_y	alpha_x	alpha_y	D_x	D_y	D_px	D_py	orbit_x	orbit_px	orbit_y	orbit_py
0.300000	11.800163	25.069629	-0.009890	-0.026589	2.618498	0.000000	-0.000136	0.000000	-0.000002	0.000002	0.000000	0.000000
0.601250	11.813813	25.089272	-0.035422	-0.038614	2.618456	0.000000	-0.000136	0.000000	-0.000002	0.000002	0.000000	0.000000
0.898573	11.842368	25.115762	-0.031579	-0.112074	2.618415	0.000000	-0.006557	0.000000	-0.000001	0.000002	0.000000	0.000000
1.339533	12.022190	24.935973	-0.377763	0.518243	2.631818	0.000000	0.067408	0.000000	-0.000000	0.000002	0.000000	0.000000
1.780493	12.513745	24.208610	-0.741205	1.124980	2.677974	0.000000	0.142139	0.000000	0.000001	0.000002	0.000000	0.000000
2.221453	13.339493	22.966767	-1.138511	1.680531	2.757410	0.000000	0.218490	0.000000	0.000002	0.000002	0.000000	0.000000
2.662413	14.537158	21.266946	-1.587832	2.159619	2.871029	0.000000	0.297330	0.000000	0.000002	0.000002	0.000000	0.000000
3.108373	16.182167	19.161563	-2.113980	2.541581	3.021986	0.000000	0.380045	0.000000	0.000003	0.000002	0.000000	0.000000
3.657433	18.291681	16.796836	-1.705322	1.790706	3.205381	0.000000	0.287008	0.000000	0.000005	0.000002	0.000000	0.000000
4.206493	19.883236	15.182200	-1.176208	1.167380	3.336218	0.000000	0.188881	0.000000	0.000006	0.000002	0.000000	0.000000
4.755553	20.844412	14.202648	-0.564013	0.627204	3.412177	0.000000	0.087403	0.000000	0.000007	0.000002	0.000000	0.000000
5.304613	21.107316	13.788408	0.088022	0.131702	3.431911	0.000000	-0.015625	0.000000	0.000007	0.000001	0.000000	0.000000
5.603185	21.091913	13.694899	0.018715	0.145463	3.429922	0.000000	-0.006658	0.000000	0.000008	0.000001	0.000000	0.000000
5.936519	21.084706	13.606209	0.002906	0.120608	3.427703	0.000000	-0.006658	0.000000	0.000008	0.000001	0.000000	0.000000
6.269852	21.088039	13.534088	-0.012904	0.095753	3.425483	0.000000	-0.006658	0.000000	0.000009	0.000001	0.000000	0.000000
6.604435	21.101983	13.478361	-0.028772	0.070805	3.423254	0.000000	-0.006658	0.000000	0.000009	0.000001	0.000000	0.000000
6.901758	21.123285	13.442849	-0.098061	0.083756	3.421274	0.000000	0.002280	0.000000	0.000010	0.000001	0.000000	0.000000
7.450818	20.871009	13.611879	0.554811	-0.393427	3.394328	0.000000	-0.100286	0.000000	0.000010	0.000001	0.000000	0.000000
7.999878	19.919178	14.317134	1.168493	-0.898632	3.311473	0.000000	-0.201074	0.000000	0.000011	0.000001	0.000000	0.000000
8.548938	18.335024	15.608847	1.699638	-1.467844	3.174179	0.000000	-0.298295	0.000000	0.000011	0.000000	0.000000	0.000000
9.097998	16.230444	17.579024	2.110730	-2.141609	2.984881	0.000000	-0.390225	0.000000	0.000011	0.000000	0.000000	0.000000
9.543958	14.588547	19.334512	1.584075	-1.778177	2.829159	0.000000	-0.308534	0.000000	0.000012	0.000000	0.000000	0.000000
9.984918	13.394482	20.712577	1.134074	-1.335077	2.710350	0.000000	-0.230841	0.000000	0.000012	0.000001	0.000000	0.000000
10.425878	12.573021	21.671481	0.735885	-0.831231	2.625189	0.000000	-0.155777	0.000000	0.000012	0.000001	0.000000	0.000000
10.866838	12.086635	22.167596	0.371317	-0.289566	2.572706	0.000000	-0.082488	0.000000	0.000013	0.000001	0.000000	0.000000
11.309048	11.912968	22.177821	0.052819	0.210834	2.552282	0.000000	-0.016396	0.000000	0.000013	0.000002	0.000000	0.000000
11.606371	11.889001	22.056613	0.027791	0.196832	2.547407	0.000000	-0.016396	0.000000	0.000014	0.000002	0.000000	0.000000
12.086371	11.881716	21.878505	-0.012613	0.174227	2.539536	0.000000	-0.016396	0.000000	0.000014	0.000002	0.000000	0.000000
12.566371	11.913219	21.722097	-0.053018	0.151622	2.531665	0.000000	-0.016396	0.000000	0.000015	0.000002	0.000000	0.000000
13.046371	11.983510	21.587391	-0.093423	0.129016	2.523795	0.000000	-0.016396	0.000000	0.000016	0.000002	0.000000	0.000000
13.526371	12.092590	21.474386	-0.133827	0.106411	2.515924	0.000000	-0.016396	0.000000	0.000017	0.000002	0.000000	0.000000
14.007621	12.240894	21.382873	-0.174337	0.083747	2.508033	0.000000	-0.016396	0.000000	0.000018	0.000002	0.000000	0.000000
14.304943	12.352004	21.337236	-0.169079	0.017429	2.503157	0.000000	-0.022533	0.000000	0.000018	0.000002	0.000000	0.000000
14.745903	12.659588	21.088357	-0.531097	0.544828	2.508845	0.000000	0.048360	0.000000	0.000019	0.000002	0.000000	0.000000
15.186863	13.295895	20.383549	-0.917380	1.047438	2.545886	0.000000	0.119804	0.000000	0.000020	0.000003	0.000000	0.000000
15.627823	14.289996	19.254881	-1.345575	1.502391	2.614701	0.000000	0.192613	0.000000	0.000021	0.000003	0.000000	0.000000
16.068783	15.687311	17.753707	-1.835245	1.888986	2.716075	0.000000	0.267616	0.000000	0.000022	0.000004	0.000000	0.000000
16.514743	17.575344	15.926832	-2.413522	2.190374	2.852854	0.000000	0.346128	0.000000	0.000024	0.000004	0.000000	0.000000
17.063803	20.000403	13.887069	-1.977074	1.546562	3.019181	0.000000	0.258848	0.000000	0.000026	0.000003	0.000000	0.000000
17.612863	21.866201	12.490011	-1.400975	1.012909	3.136254	0.000000	0.166977	0.000000	0.000028	0.000003	0.000000	0.000000
18.161923	23.040949	11.636150	-0.725919	0.551403	3.201995	0.000000	0.072144	0.000000	0.000029	0.000002	0.000000	0.000000
18.710983	23.441667	11.264666	0.000414	0.129173	3.215240	0.000000	-0.023969	0.000000	0.000030	0.000001	0.000000	0.000000
19.009556	23.481803	11.178072	-0.073604	0.131426	3.210591	0.000000	-0.015570	0.000000	0.000030	0.000001	0.000000	0.000000
19.342889	23.535629	11.100567	-0.087876	0.101090	3.205400	0.000000	-0.015570	0.000000	0.000030	0.000001	0.000000	0.000000
19.676223	23.598971	11.043285	-0.102148	0.070755	3.200210	0.000000	-0.015570	0.000000	0.000030	0.000001	0.000000	0.000000
20.010806	23.672412	11.005990	-0.233761	0.094836	3.195020	0.000000	0.000260	0.000000	0.000031	0.000001	0.000000	0.000000
20.308129	23.815355	10.957700	-0.309216	0.096202	3.195097	0.000000	0.008606	0.000000	0.000031	0.000001	0.000000	0.000000
20.857189	23.744138	11.073862	0.438155	-0.309016	3.173620	0.000000	-0.086721	0.000000	0.000031	-0.000000	0.000000	0.000000
21.406249	22.864425	11.644406	1.154576	-0.736245	3.100149	0.000000	-0.180509	0.000000	0.000031	-0.000001	0.000000	0.000000
21.955309	21.238354	12.709969	1.789444	-1.215914	2.975988	0.000000	-0.271096	0.000000	0.000030	-0.000002	0.000000	0.000000
22.504369	18.980783	14.346449	2.297914	-1.782191	2.803338	0.000000	-0.356874	0.000000	0.000029	-0.000003	0.000000	0.000000
22.950329	17.201479	15.815857	1.705995	-1.498839	2.661471	0.000000	-0.279712	0.000000	0.000027	-0.000002	0.000000	0.000000
23.391289	15.926336	16.987529	1.196716	-1.148143	2.554441	0.000000	-0.206191	0.000000	0.000027	-0.000002	0.000000	0.000000
23.832249	15.074621	17.825610	0.742111	-0.745207	2.479284	0.000000	-0.135017	0.000000	0.000026	-0.000001	0.000000	0.000000
24.273209	14.607423	18.291968	0.321411	-0.308365	2.435142	0.000000	-0.065381	0.000000	0.000026	-0.000000	0.000000	0.000000
24.715418	14.503517	18.365140	-0.049132	0.097413	2.421511	0.000000	-0.002427	0.000000	0.000026	0.000000	0.000000	0.000000
25.012741	14.538843	18.312074	-0.069682	0.081069	2.420789	0.000000	-0.002427	0.000000	0.000026	0.000000	0.000000	0.000000
25.346075	14.592978	18.264135	-0.092720	0.062747	2.419980	0.000000	-0.002427	0.000000	0.000026	0.000000	0.000000	0.000000
25.679408	14.662471	18.228411	-0.115759	0.044424	2.419171	0.000000	-0.002427	0.000000	0.000026	0.000000	0.000000	0.000000
26.013991	14.747370	18.205207	-0.019243	-0.121656	2.418334	0.000000	-0.022046	0.000000	0.000026	0.000000	0.000000	0.000000
26.311314	14.764810	18.282477	-0.003213	-0.183053	2.411779	0.000000	-0.027959	0.000000	0.000026	0.000000	0.000000	0.000000
26.752274	14.949526	18.245678	-0.417270	0.266186	2.414551	0.000000	0.040541	0.000000	0.000026	0.000001	0.000000	0.000000
27.193234	15.506401	17.816535	-0.850391	0.703313	2.447601	0.000000	0.109503	0.000000	0.000027	0.000001	0.000000	0.000000
27.634194	16.460879	17.014573	-1.322364	1.108439	2.511306	0.000000	0.179712	0.000000	0.000028	0.000002	0.000000	0.000000
28.075154	17.856566	15.876280	-1.854752	1.463133	2.606391	0.000000	0.251968	0.000000	0.000029	0.000003	0.000000	0.000000
28.521114	19.781471	14.436297	-2.476853	1.752167	2.735542	0.000000	0.327537	0.000000	0.000030	0.000004	0.000000	0.000000
29.070174	22.228008	12.831998	-1.952632	1.186980	2.892732	0.000000	0.244206	0.000000	0.000032	0.000003	0.000000	0.000000
29.619234	24.019280	11.798552	-1.290486	0.706339	3.002911	0.000000	0.156543	0.000000	0.000033	0.000002	0.000000	0.000000
30.168294	25.028759	11.262348	-0.537187	0.276010	3.064124	0.000000	0.066104	0.000000	0.000034	0.000001	0.000000	0.000000
30.717354	25.185140	11.185194	0.254056	-0.134660	3.075285	0.000000	-0.025508	0.000000	0.000034	-0.000001	0.000000	0.000000
31.015927	25.076380	11.256218	0.175996	-0.132434	3.070068	0.000000	-0.017475	0.000000	0.000034	-0.000000	0.000000	0.000000
31.349260	24.963618	11.354552	0.162291	-0.162567	3.064243	0.000000	-0.017475	0.000000	0.000034	-0.000000	0.000000	0.000000
31.682593	24.859992	11.472974	0.148587	-0.192699	3.058418	0.000000	-0.017475	0.000000	0.000033	-0.000000	0.000000	0.000000
32.017177	24.765165	11.612042	0.134831	-0.222945	3.052572	0.000000	-0.017475	0.000000	0.000033	-0.000000	0.000000	0.000000
32.314499	24.688623	11.752606	0.058118	-0.219124	3.047376	0.000000	-0.009515	0.000000	0.000033	-0.000000	0.000000	0.000000
32.863559	24.201764	12.232397	0.823345	-0.659875	3.017290	0.000000	-0.099916	0.000000	0.000033	-0.000001	0.000000	0.000000
33.412619	22.901712	13.219002	1.530415	-1.147628	2.937984	0.000000	-0.188544	0.000000	0.000031	-0.000003	0.000000	0.000000
33.961679	20.880295	14.782694	2.129383	-1.717124	2.810863	0.000000	-0.273829	0.000000	0.000030	-0.000004	0.000000	0.000000
34.510739	18.280297	17.034851	2.577943	-2.408928	2.638182	0.000000	-0.354256	0.000000	0.000028	-0.000004	0.000000	0.000000
34.956699	16.258627	19.049367	1.971597	-2.089468	2.496531	0.000000	-0.281376	0.000000	0.000026	-0.000004	0.000000	0.000000
35.397659	14.750994	20.715989	1.460349	-1.675681	2.387828	0.000000	-0.212127	0.000000	0.000024	-0.000003	0.000000	0.000000
35.838619	13.663229	21.982543	1.015820	-1.185652	2.309100	0.000000	-0.145295	0.000000	0.000023	-0.000002	0.000000	0.000000
36.279579	12.945633	22.791400	0.617702	-0.641677	2.259449	0.000000	-0.080118	0.000000	0.000022	-0.000002	0.000000	0.000000
36.721789	12.564725	23.106071	0.278505	-0.125211	2.238283	0.000000	-0.021341	0.000000	0.000021	-0.000001	0.000000	0.000000
37.019112	12.406695	23.184413	0.253006	-0.138281	2.231939	0.000000	-0.021341	0.000000	0.000021	-0.000001	0.000000	0.000000
37.352445	12.247553	23.281485	0.224419	-0.152933	2.224825	0.000000	-0.021341	0.000000	0.000020	-0.000001	0.000000	0.000000
37.685779	12.107470	23.388324	0.195832	-0.167585	2.217712	0.000000	-0.021341	0.000000	0.000020	-0.000001	0.000000	0.000000
38.020362	11.986026	23.505387	0.167138	-0.182293	2.210573	0.000000	-0.021341	0.000000	0.000020	-0.000001	0.000000	0.000000
38.317684	11.894220	23.617673	0.170802	-0.253270	2.204228	0.000000	-0.026745	0.000000	0.000019	-0.000001	0.000000	0.000000
38.758644	11.895183	23.579421	-0.172996	0.339687	2.206354	0.000000	0.036396	0.000000	0.000019	-0.000001	0.000000	0.000000
39.199604	12.201675	23.023071	-0.524697	0.917189	2.236388	0.000000	0.099952	0.000000	0.000018	-0.000000	0.000000	0.000000
39.640564	12.827698	21.973939	-0.900370	1.452959	2.294671	0.000000	0.164646	0.000000	0.000018	-0.000000	0.000000	0.000000
40.081524	13.801852	20.479757	-1.317178	1.922620	2.381868	0.000000	0.231216	0.000000	0.000018	0.000000	0.000000	0.000000
40.527484	15.186222	18.585927	-1.797993	2.306092	2.500442	0.000000	0.300823	0.000000	0.000019	0.000001	0.000000	0.000000
41.076544	16.952677	16.457635	-1.400197	1.593035	2.645095	0.000000	0.225313	0.000000	0.000019	0.000000	0.000000	0.000000
41.625604	18.225076	15.045835	-0.903498	0.993446	2.747129	0.000000	0.145806	0.000000	0.000019	-0.000000	0.000000	0.000000
42.174664	18.913543	14.249968	-0.342980	0.464618	2.804733	0.000000	0.063713	0.000000	0.000019	-0.000001	0.000000	0.000000
42.723724	18.969447	14.013347	0.241764	-0.031117	2.816887	0.000000	-0.019510	0.000000	0.000018	-0.000001	0.000000	0.000000
43.022297	18.859544	14.016429	0.175887	-0.015815	2.813259	0.000000	-0.012151	0.000000	0.000018	-0.000001	0.000000	0.000000
43.502297	18.703287	14.048054	0.149648	-0.050069	2.807427	0.000000	-0.012151	0.000000	0.000017	-0.000001	0.000000	0.000000
43.982297	18.572220	14.112562	0.123409	-0.084323	2.801595	0.000000	-0.012151	0.000000	0.000016	-0.000001	0.000000	0.000000
44.462297	18.466342	14.209954	0.097171	-0.118577	2.795763	0.000000	-0.012151	0.000000	0.000015	-0.000001	0.000000	0.000000
44.942297	18.385652	14.340230	0.070932	-0.152831	2.789931	0.000000	-0.012151	0.000000	0.000015	-0.000001	0.000000	0.000000
45.423547	18.330268	14.503678	-0.046193	-0.115314	2.784102	0.000000	0.001643	0.000000	0.000014	-0.000001	0.000000	0.000000
45.720870	18.362569	14.578425	-0.110421	-0.098001	2.784590	0.000000	0.008918	0.000000	0.000014	-0.000001	0.000000	0.000000
46.269930	18.174651	14.967913	0.450648	-0.615559	2.766926	0.000000	-0.073170	0.000000	0.000013	-0.000002	0.000000	0.000000
46.818990	17.384525	15.946339	0.979885	-1.176962	2.704481	0.000000	-0.153960	0.000000	0.000012	-0.000002	0.000000	0.000000
47.368050	16.048001	17.583395	1.439908	-1.822198	2.598364	0.000000	-0.232019	0.000000	0.000010	-0.000003	0.000000	0.000000
47.917110	14.259484	19.995685	1.798223	-2.597225	2.450456	0.000000	-0.305962	0.000000	0.000009	-0.000003	0.000000	0.000000
48.363070	12.867794	22.140304	1.333495	-2.191552	2.329297	0.000000	-0.237684	0.000000	0.000008	-0.000003	0.000000	0.000000
48.804030	11.871934	23.857319	0.933461	-1.687443	2.238944	0.000000	-0.172511	0.000000	0.000007	-0.000002	0.000000	0.000000
49.244990	11.208805	25.094067	0.576074	-1.106557	2.176870	0.000000	-0.109302	0.000000	0.000006	-0.000002	0.000000	0.000000
49.685950	10.848109	25.794277	0.245006	-0.475323	2.142368	0.000000	-0.047339	0.000000	0.000005	-0.000002	0.000000	0.000000
50.128160	10.773489	25.925806	-0.048565	0.113913	2.135055	0.000000	0.008851	0.000000	0.000004	-0.000002	0.000000	0.000000
50.425482	10.810593	25.861521	-0.076228	0.102296	2.137687	0.000000	0.008851	0.000000	0.000003	-0.000002	0.000000	0.000000
50.758816	10.871750	25.797665	-0.107241	0.089272	2.140638	0.000000	0.008851	0.000000	0.000002	-0.000002	0.000000	0.000000
51.092149	10.953582	25.742492	-0.138254	0.076248	2.143589	0.000000	0.008851	0.000000	0.000002	-0.000002	0.000000	0.000000
51.426732	11.056288	25.696364	-0.079688	-0.145286	2.146529	0.000000	-0.008563	0.000000	0.000001	-0.000002	0.000000	0.000000
51.724055	11.111720	25.786270	-0.079501	-0.220337	2.143984	0.000000	-0.013821	0.000000	0.000000	-0.000002	0.000000	0.000000
52.165015	11.326959	25.693676	-0.410465	0.429521	2.151477	0.000000	0.047836	0.000000	-0.000000	-0.000002	0.000000	0.000000
52.605975	11.841215	25.034421	-0.760181	1.059836	2.186253	0.000000	0.110039	0.000000	-0.000001	-0.000002	0.000000	0.000000
53.046935	12.677985	23.838500	-1.144628	1.641929	2.248708	0.000000	0.173494	0.000000	-0.000002	-0.000002	0.000000	0.000000
53.487895	13.875497	22.160327	-1.581369	2.149316	2.339553	0.000000	0.238926	0.000000	-0.000003	-0.000002	0.000000	0.000000
53.933855	15.508995	20.051169	-2.094581	2.560249	2.461327	0.000000	0.307477	0.000000	-0.000004	-0.000002	0.000000	0.000000
54.482915	17.612162	17.677743	-1.713233	1.787975	2.609971	0.000000	0.233169	0.000000	-0.000005	-0.000002	0.000000	0.000000
55.031975	19.227231	16.077876	-1.210871	1.143054	2.716618	0.000000	0.154726	0.000000	-0.000007	-0.000002	0.000000	0.000000
55.581035	20.240120	15.137613	-0.622979	0.579551	2.779376	0.000000	0.073538	0.000000	-0.000008	-0.000002	0.000000	0.000000
56.130095	20.579285	14.789981	0.008917	0.057327	2.797133	0.000000	-0.008954	0.000000	-0.000008	-0.000001	0.000000	0.000000
56.428668	20.610411	14.738753	-0.059395	0.075600	2.796643	0.000000	-0.001646	0.000000	-0.000009	-0.000001	0.000000	0.000000
56.762001	20.655418	14.695935	-0.075625	0.052855	2.796095	0.000000	-0.001646	0.000000	-0.000009	-0.000001	0.000000	0.000000
57.095334	20.711244	14.668281	-0.091855	0.030109	2.795547	0.000000	-0.001646	0.000000	-0.000010	-0.000001	0.000000	0.000000
57.429918	20.778161	14.655771	-0.108146	0.007279	2.794996	0.000000	-0.001646	0.000000	-0.000010	-0.000001	0.000000	0.000000
57.727240	20.846774	14.657475	-0.177096	0.025291	2.794508	0.000000	0.005657	0.000000	-0.000011	-0.000002	0.000000	0.000000
58.276300	20.685648	14.911081	0.468816	-0.489908	2.774970	0.000000	-0.076722	0.000000	-0.000011	-0.000001	0.000000	0.000000
58.825360	19.829301	15.746164	1.081612	-1.040002	2.710509	0.000000	-0.157739	0.000000	-0.000012	-0.000001	0.000000	0.000000
59.374420	18.338220	17.222205	1.618010	-1.664173	2.602268	0.000000	-0.235959	0.000000	-0.000012	-0.000000	0.000000	0.000000
59.923480	16.317727	19.444339	2.040119	-2.406879	2.452167	0.000000	-0.309994	0.000000	-0.000012	0.000000	0.000000	0.000000
60.369440	14.736362	21.419329	1.518419	-2.003051	2.329216	0.000000	-0.241695	0.000000	-0.000012	-0.000000	0.000000	0.000000
60.810400	13.599159	22.974123	1.070289	-1.509464	2.237090	0.000000	-0.176547	0.000000	-0.000013	-0.000001	0.000000	0.000000
61.251360	12.834197	24.061551	0.671057	-0.947198	2.173221	0.000000	-0.113409	0.000000	-0.000013	-0.000001	0.000000	0.000000
61.692320	12.406527	24.632134	0.302484	-0.341835	2.136884	0.000000	-0.051563	0.000000	-0.000013	-0.000001	0.000000	0.000000
62.134530	12.296665	24.659365	-0.022213	0.218547	2.127668	0.000000	0.004478	0.000000	-0.000014	-0.000002	0.000000	0.000000
62.431853	12.317066	24.533163	-0.046404	0.205914	2.129000	0.000000	0.004478	0.000000	-0.000015	-0.000002	0.000000	0.000000
62.765186	12.357042	24.400607	-0.073525	0.191751	2.130493	0.000000	0.004478	0.000000	-0.000015	-0.000002	0.000000	0.000000
63.098520	12.415099	24.277494	-0.100646	0.177588	2.131986	0.000000	0.004478	0.000000	-0.000016	-0.000002	0.000000	0.000000
63.433103	12.491556	24.163415	-0.127868	0.163372	2.133485	0.000000	0.004478	0.000000	-0.000016	-0.000002	0.000000	0.000000
63.730426	12.574785	24.070023	-0.121217	0.091702	2.134816	0.000000	-0.000758	0.000000	-0.000017	-0.000002	0.000000	0.000000
64.171386	12.841877	23.724087	-0.486788	0.689819	2.148029	0.000000	0.060736	0.000000	-0.000017	-0.000002	0.000000	0.000000
64.612346	13.439925	22.862538	-0.874598	1.256549	2.188484	0.000000	0.122923	0.000000	-0.000018	-0.000002	0.000000	0.000000
65.053306	14.396250	21.524577	-1.302367	1.766108	2.256644	0.000000	0.186509	0.000000	-0.000020	-0.000003	0.000000	0.000000
65.494266	15.754546	19.771078	-1.789636	2.195310	2.353285	0.000000	0.252220	0.000000	-0.000021	-0.000003	0.000000	0.000000
65.940226	17.600032	17.657022	-2.363360	2.525376	2.481080	0.000000	0.321206	0.000000	-0.000023	-0.000004	0.000000	0.000000
66.489286	19.965974	15.292158	-1.920213	1.807162	2.637064	0.000000	0.246139	0.000000	-0.000025	-0.000003	0.000000	0.000000
67.038346	21.767475	13.641091	-1.341431	1.217669	2.750572	0.000000	0.166707	0.000000	-0.000026	-0.000002	0.000000	0.000000
67.587406	22.877286	12.586218	-0.667898	0.714907	2.819588	0.000000	0.084317	0.000000	-0.000027	-0.000002	0.000000	0.000000
68.136466	23.217016	12.052404	0.052812	0.263066	2.842889	0.000000	0.000432	0.000000	-0.000028	-0.000001	0.000000	0.000000
68.435038	23.225552	11.884545	-0.020725	0.267642	2.845236	0.000000	0.007862	0.000000	-0.000028	-0.000001	0.000000	0.000000
68.768372	23.244154	11.716136	-0.035083	0.237585	2.847857	0.000000	0.007862	0.000000	-0.000029	-0.000001	0.000000	0.000000
69.101705	23.272329	11.567765	-0.049441	0.207528	2.850478	0.000000	0.007862	0.000000	-0.000029	-0.000001	0.000000	0.000000
69.436288	23.310235	11.438988	-0.063853	0.177359	2.853109	0.000000	0.007862	0.000000	-0.000029	-0.000001	0.000000	0.000000
69.733611	23.352013	11.341494	-0.137690	0.180189	2.855447	0.000000	0.015324	0.000000	-0.000029	-0.000001	0.000000	0.000000
70.282671	23.102137	11.370846	0.590094	-0.233963	2.840661	0.000000	-0.069105	0.000000	-0.000029	0.000000	0.000000	0.000000
