#ParticleID	Turn	x[m]	xp	y[m]	yp	z[m]	dE[GeV]# s	beta_x	beta_y	alpha_x	alpha_y	D_x	D_y	D_px	D_py	orbit_x	orbit_px	orbit_y	orbit_py
0.300000	11.803461	25.058434	-0.010104	-0.026769	2.618337	0.000000	-0.000074	0.000000	-0.000002	0.000002	0.000000	0.000000
0.601250	11.817238	25.078186	-0.035629	-0.038799	2.618314	0.000000	-0.000074	0.000000	-0.000001	0.000002	0.000000	0.000000
0.898573	11.845915	25.104788	-0.031771	-0.112237	2.618292	0.000000	-0.006495	0.000000	-0.000000	0.000002	0.000000	0.000000
1.339533	12.025942	24.925271	-0.378040	0.517793	2.631721	0.000000	0.067466	0.000000	0.000000	0.000002	0.000000	0.000000
1.780493	12.517784	24.198424	-0.741581	1.124264	2.677903	0.000000	0.142196	0.000000	0.000001	0.000002	0.000000	0.000000
2.221453	13.343912	22.957317	-1.139002	1.679581	2.757363	0.000000	0.218545	0.000000	0.000002	0.000002	0.000000	0.000000
2.662413	14.542070	21.258421	-1.588461	2.158479	2.871006	0.000000	0.297384	0.000000	0.000003	0.000002	0.000000	0.000000
3.108373	16.187713	19.154122	-2.114778	2.540302	3.021987	0.000000	0.380099	0.000000	0.000003	0.000002	0.000000	0.000000
3.657433	18.298023	16.790626	-1.705964	1.789729	3.205412	0.000000	0.287061	0.000000	0.000005	0.000002	0.000000	0.000000
4.206493	19.890176	15.176930	-1.176650	1.166635	3.336278	0.000000	0.188932	0.000000	0.000005	0.000002	0.000000	0.000000
4.755553	20.851712	14.198093	-0.564222	0.626638	3.412265	0.000000	0.087452	0.000000	0.000006	0.000001	0.000000	0.000000
5.304613	21.114712	13.784396	0.088059	0.131274	3.432025	0.000000	-0.015579	0.000000	0.000007	0.000001	0.000000	0.000000
5.603185	21.099297	13.691149	0.018737	0.145022	3.430050	0.000000	-0.006612	0.000000	0.000007	0.000001	0.000000	0.000000
5.936519	21.092073	13.602754	0.002933	0.120163	3.427846	0.000000	-0.006612	0.000000	0.000008	0.000001	0.000000	0.000000
6.269852	21.095385	13.530931	-0.012870	0.095304	3.425642	0.000000	-0.006612	0.000000	0.000008	0.000001	0.000000	0.000000
6.604435	21.109305	13.475505	-0.028734	0.070353	3.423429	0.000000	-0.006612	0.000000	0.000009	0.000001	0.000000	0.000000
6.901758	21.130583	13.440263	-0.098036	0.083294	3.421463	0.000000	0.002327	0.000000	0.000009	0.000001	0.000000	0.000000
7.450818	20.878146	13.609763	0.555076	-0.393825	3.394541	0.000000	-0.100246	0.000000	0.000010	0.000001	0.000000	0.000000
7.999878	19.925898	14.315434	1.168981	-0.898996	3.311706	0.000000	-0.201041	0.000000	0.000010	0.000001	0.000000	0.000000
8.548938	18.341101	15.607539	1.700315	-1.468200	3.174428	0.000000	-0.298270	0.000000	0.000010	0.000000	0.000000	0.000000
9.097998	16.235696	17.578113	2.111547	-2.141980	2.985142	0.000000	-0.390208	0.000000	0.000011	-0.000000	0.000000	0.000000
9.543958	14.593145	19.333962	1.584727	-1.778611	2.829429	0.000000	-0.308510	0.000000	0.000011	0.000000	0.000000	0.000000
9.984918	13.398566	20.712430	1.134592	-1.335553	2.710633	0.000000	-0.230810	0.000000	0.000011	0.000001	0.000000	0.000000
10.425878	12.576698	21.671764	0.736293	-0.831728	2.625487	0.000000	-0.155739	0.000000	0.000011	0.000001	0.000000	0.000000
10.866838	12.089994	22.168317	0.371633	-0.290060	2.573023	0.000000	-0.082441	0.000000	0.000011	0.000001	0.000000	0.000000
11.309048	11.916083	22.178970	0.053066	0.210362	2.552622	0.000000	-0.016342	0.000000	0.000012	0.000001	0.000000	0.000000
11.606371	11.891966	22.058041	0.028045	0.196363	2.547762	0.000000	-0.016342	0.000000	0.000012	0.000001	0.000000	0.000000
12.086371	11.884433	21.880381	-0.012351	0.173763	2.539918	0.000000	-0.016342	0.000000	0.000013	0.000001	0.000000	0.000000
12.566371	11.915679	21.724416	-0.052746	0.151163	2.532073	0.000000	-0.016342	0.000000	0.000014	0.000001	0.000000	0.000000
13.046371	11.985705	21.590147	-0.093141	0.128564	2.524228	0.000000	-0.016342	0.000000	0.000014	0.000001	0.000000	0.000000
13.526371	12.094510	21.477574	-0.133536	0.105964	2.516384	0.000000	-0.016342	0.000000	0.000015	0.000001	0.000000	0.000000
14.007621	12.242529	21.386488	-0.174036	0.083305	2.508519	0.000000	-0.016342	0.000000	0.000016	0.000001	0.000000	0.000000
14.304943	12.353458	21.341113	-0.168768	0.016980	2.503659	0.000000	-0.022480	0.000000	0.000016	0.000001	0.000000	0.000000
14.745903	12.660778	21.092581	-0.530809	0.544493	2.509374	0.000000	0.048426	0.000000	0.000017	0.000002	0.000000	0.000000
15.186863	13.296836	20.388012	-0.917101	1.047232	2.546447	0.000000	0.119885	0.000000	0.000018	0.000002	0.000000	0.000000
15.627823	14.290691	19.259465	-1.345293	1.502323	2.615301	0.000000	0.192708	0.000000	0.000019	0.000003	0.000000	0.000000
16.068783	15.687750	17.758288	-1.834947	1.889060	2.716720	0.000000	0.267727	0.000000	0.000020	0.000003	0.000000	0.000000
16.514743	17.575505	15.931284	-2.413193	2.190587	2.853553	0.000000	0.346257	0.000000	0.000022	0.000004	0.000000	0.000000
17.063803	20.000175	13.891351	-1.976701	1.546662	3.019944	0.000000	0.258953	0.000000	0.000023	0.000003	0.000000	0.000000
17.612863	21.865551	12.494243	-1.400584	1.012902	3.137068	0.000000	0.167056	0.000000	0.000025	0.000002	0.000000	0.000000
18.161923	23.039871	11.640447	-0.725537	0.551289	3.202845	0.000000	0.072196	0.000000	0.000026	0.000001	0.000000	0.000000
18.710983	23.440188	11.269150	0.000759	0.128943	3.216111	0.000000	-0.023945	0.000000	0.000026	0.000001	0.000000	0.000000
19.009556	23.480116	11.182683	-0.073257	0.131221	3.211470	0.000000	-0.015543	0.000000	0.000027	0.000001	0.000000	0.000000
19.342889	23.533711	11.105309	-0.087529	0.100900	3.206289	0.000000	-0.015543	0.000000	0.000027	0.000001	0.000000	0.000000
19.676223	23.596822	11.048149	-0.101802	0.070579	3.201107	0.000000	-0.015543	0.000000	0.000027	0.000001	0.000000	0.000000
20.010806	23.670031	11.010967	-0.233403	0.094699	3.195926	0.000000	0.000291	0.000000	0.000027	0.000001	0.000000	0.000000
20.308129	23.812761	10.962755	-0.308852	0.096092	3.196013	0.000000	0.008640	0.000000	0.000027	0.000001	0.000000	0.000000
20.857189	23.741194	11.079116	0.438425	-0.309270	3.174546	0.000000	-0.086717	0.000000	0.000028	-0.000000	0.000000	0.000000
21.406249	22.861244	11.650026	1.154734	-0.736661	3.101070	0.000000	-0.180535	0.000000	0.000027	-0.000001	0.000000	0.000000
21.955309	21.235067	12.716148	1.789478	-1.216523	2.976886	0.000000	-0.271151	0.000000	0.000027	-0.000002	0.000000	0.000000
22.504369	18.977529	14.353421	2.297822	-1.783034	2.804198	0.000000	-0.356958	0.000000	0.000025	-0.000003	0.000000	0.000000
22.950329	17.198276	15.823508	1.705971	-1.499514	2.662298	0.000000	-0.279774	0.000000	0.000024	-0.000002	0.000000	0.000000
23.391289	15.923126	16.995689	1.196758	-1.148618	2.555246	0.000000	-0.206231	0.000000	0.000024	-0.000001	0.000000	0.000000
23.832249	15.071345	17.834093	0.742221	-0.745461	2.480075	0.000000	-0.135037	0.000000	0.000023	-0.000001	0.000000	0.000000
24.273209	14.604018	18.300572	0.321594	-0.308386	2.435930	0.000000	-0.065381	0.000000	0.000023	-0.000000	0.000000	0.000000
24.715418	14.499915	18.373659	-0.048876	0.097603	2.422303	0.000000	-0.002408	0.000000	0.000023	0.000000	0.000000	0.000000
25.012741	14.535091	18.320477	-0.069430	0.081267	2.421586	0.000000	-0.002408	0.000000	0.000023	0.000000	0.000000	0.000000
25.346075	14.589059	18.272404	-0.092474	0.062952	2.420784	0.000000	-0.002408	0.000000	0.000023	0.000000	0.000000	0.000000
25.679408	14.658389	18.236541	-0.115517	0.044637	2.419981	0.000000	-0.002408	0.000000	0.000023	0.000000	0.000000	0.000000
26.013991	14.743129	18.213191	-0.019041	-0.121500	2.419150	0.000000	-0.022034	0.000000	0.000023	0.000000	0.000000	0.000000
26.311314	14.760450	18.290366	-0.003027	-0.182909	2.412599	0.000000	-0.027949	0.000000	0.000023	0.000000	0.000000	0.000000
26.752274	14.944954	18.253348	-0.416975	0.266540	2.415379	0.000000	0.040572	0.000000	0.000023	0.000001	0.000000	0.000000
27.193234	15.501517	17.823804	-0.849973	0.703863	2.448448	0.000000	0.109556	0.000000	0.000024	0.000001	0.000000	0.000000
27.634194	16.455565	17.021280	-1.321805	1.109160	2.512181	0.000000	0.179787	0.000000	0.000025	0.000002	0.000000	0.000000
28.075154	17.850688	15.882288	-1.854026	1.463991	2.607304	0.000000	0.252066	0.000000	0.000025	0.000003	0.000000	0.000000
28.521114	19.774858	14.441493	-2.475925	1.753123	2.736504	0.000000	0.327659	0.000000	0.000027	0.000003	0.000000	0.000000
29.070174	22.220472	12.836264	-1.951888	1.187728	2.893753	0.000000	0.244296	0.000000	0.000028	0.000002	0.000000	0.000000
29.619234	24.011052	11.802085	-1.289978	0.706933	3.003972	0.000000	0.156600	0.000000	0.000029	0.000001	0.000000	0.000000
30.168294	25.020120	11.265295	-0.536951	0.276491	3.065206	0.000000	0.066126	0.000000	0.000030	0.000000	0.000000	0.000000
30.717354	25.176400	11.187658	0.254003	-0.134258	3.076370	0.000000	-0.025521	0.000000	0.000030	-0.000001	0.000000	0.000000
31.015927	25.067661	11.258435	0.175959	-0.132016	3.071149	0.000000	-0.017485	0.000000	0.000030	-0.000000	0.000000	0.000000
31.349260	24.954925	11.356486	0.162250	-0.162139	3.065321	0.000000	-0.017485	0.000000	0.000029	-0.000000	0.000000	0.000000
31.682593	24.851328	11.474620	0.148541	-0.192263	3.059493	0.000000	-0.017485	0.000000	0.000029	-0.000000	0.000000	0.000000
32.017177	24.756533	11.613393	0.134780	-0.222499	3.053643	0.000000	-0.017485	0.000000	0.000029	-0.000000	0.000000	0.000000
32.314499	24.680022	11.753689	0.058084	-0.218665	3.048444	0.000000	-0.009522	0.000000	0.000029	-0.000000	0.000000	0.000000
32.863559	24.193357	12.232983	0.823029	-0.659422	3.018345	0.000000	-0.099958	0.000000	0.000029	-0.000001	0.000000	0.000000
33.412619	22.893797	13.219078	1.529840	-1.147148	2.939006	0.000000	-0.188620	0.000000	0.000028	-0.000002	0.000000	0.000000
33.961679	20.873136	14.782211	2.128590	-1.716582	2.811834	0.000000	-0.273937	0.000000	0.000026	-0.000003	0.000000	0.000000
34.510739	18.274104	17.033721	2.576987	-2.408285	2.639086	0.000000	-0.354394	0.000000	0.000024	-0.000004	0.000000	0.000000
34.956699	16.253196	19.047650	1.970838	-2.088801	2.497378	0.000000	-0.281491	0.000000	0.000023	-0.000003	0.000000	0.000000
35.397659	14.746159	20.713685	1.459751	-1.675020	2.388629	0.000000	-0.212222	0.000000	0.000021	-0.000003	0.000000	0.000000
35.838619	13.658859	21.979670	1.015357	-1.185028	2.309863	0.000000	-0.145369	0.000000	0.000020	-0.000002	0.000000	0.000000
36.279579	12.941621	22.788003	0.617350	-0.641117	2.260184	0.000000	-0.080172	0.000000	0.000019	-0.000002	0.000000	0.000000
36.721789	12.560980	23.102218	0.278242	-0.124734	2.238998	0.000000	-0.021379	0.000000	0.000019	-0.000001	0.000000	0.000000
37.019112	12.403108	23.180277	0.252739	-0.137804	2.232642	0.000000	-0.021379	0.000000	0.000018	-0.000001	0.000000	0.000000
37.352445	12.244146	23.277031	0.224147	-0.152457	2.225516	0.000000	-0.021379	0.000000	0.000018	-0.000001	0.000000	0.000000
37.685779	12.104245	23.383553	0.195555	-0.167110	2.218391	0.000000	-0.021379	0.000000	0.000017	-0.000001	0.000000	0.000000
38.020362	11.982988	23.500299	0.166857	-0.181818	2.211238	0.000000	-0.021379	0.000000	0.000017	-0.000001	0.000000	0.000000
38.317684	11.891350	23.612302	0.170510	-0.252784	2.204882	0.000000	-0.026785	0.000000	0.000017	-0.000001	0.000000	0.000000
38.758644	11.892542	23.573686	-0.173225	0.340024	2.206995	0.000000	0.036373	0.000000	0.000016	-0.000001	0.000000	0.000000
39.199604	12.199212	23.017112	-0.524874	0.917361	2.237022	0.000000	0.099945	0.000000	0.000016	-0.000000	0.000000	0.000000
39.640564	12.825371	21.967903	-0.900503	1.452959	2.295306	0.000000	0.164656	0.000000	0.000016	-0.000000	0.000000	0.000000
40.081524	13.799626	20.473798	-1.317274	1.922448	2.382511	0.000000	0.231242	0.000000	0.000016	0.000000	0.000000	0.000000
40.527484	15.184066	18.580197	-1.798055	2.305755	2.501100	0.000000	0.300867	0.000000	0.000016	0.000001	0.000000	0.000000
41.076544	16.950643	16.452183	-1.400355	1.592861	2.645771	0.000000	0.225335	0.000000	0.000016	0.000000	0.000000	0.000000
41.625604	18.223263	15.040492	-0.903741	0.993422	2.747811	0.000000	0.145806	0.000000	0.000016	-0.000000	0.000000	0.000000
42.174664	18.912036	14.244569	-0.343291	0.464743	2.805409	0.000000	0.063691	0.000000	0.000016	-0.000001	0.000000	0.000000
42.723724	18.968310	14.007724	0.241407	-0.030833	2.817544	0.000000	-0.019554	0.000000	0.000015	-0.000001	0.000000	0.000000
43.022297	18.858618	14.010648	0.175533	-0.015554	2.813904	0.000000	-0.012193	0.000000	0.000015	-0.000001	0.000000	0.000000
43.502297	18.702701	14.042028	0.149296	-0.049821	2.808051	0.000000	-0.012193	0.000000	0.000014	-0.000001	0.000000	0.000000
43.982297	18.571970	14.106305	0.123059	-0.084089	2.802199	0.000000	-0.012193	0.000000	0.000014	-0.000001	0.000000	0.000000
44.462297	18.466427	14.203480	0.096822	-0.118357	2.796347	0.000000	-0.012193	0.000000	0.000013	-0.000001	0.000000	0.000000
44.942297	18.386071	14.333551	0.070586	-0.152625	2.790495	0.000000	-0.012193	0.000000	0.000013	-0.000001	0.000000	0.000000
45.423547	18.331019	14.496808	-0.046542	-0.115156	2.784644	0.000000	0.001603	0.000000	0.000012	-0.000001	0.000000	0.000000
45.720870	18.363528	14.571464	-0.110772	-0.097869	2.785122	0.000000	0.008880	0.000000	0.000012	-0.000001	0.000000	0.000000
46.269930	18.175975	14.960692	0.450339	-0.615213	2.767432	0.000000	-0.073225	0.000000	0.000011	-0.000002	0.000000	0.000000
46.818990	17.386155	15.938610	0.979640	-1.176377	2.704952	0.000000	-0.154030	0.000000	0.000010	-0.000002	0.000000	0.000000
47.368050	16.049856	17.574874	1.439745	-1.821332	2.598792	0.000000	-0.232104	0.000000	0.000009	-0.000002	0.000000	0.000000
47.917110	14.261469	19.986032	1.798153	-2.596017	2.450833	0.000000	-0.306060	0.000000	0.000008	-0.000002	0.000000	0.000000
48.363070	12.869854	22.129668	1.333398	-2.190566	2.329633	0.000000	-0.237773	0.000000	0.000006	-0.000002	0.000000	0.000000
48.804030	11.874094	23.845928	0.933332	-1.686722	2.239242	0.000000	-0.172592	0.000000	0.000006	-0.000002	0.000000	0.000000
49.244990	11.211094	25.082170	0.575908	-1.106134	2.177134	0.000000	-0.109376	0.000000	0.000005	-0.000002	0.000000	0.000000
49.685950	10.850564	25.782147	0.244795	-0.475218	2.142601	0.000000	-0.047406	0.000000	0.000004	-0.000002	0.000000	0.000000
50.128160	10.776155	25.913725	-0.048824	0.113725	2.135260	0.000000	0.008789	0.000000	0.000003	-0.000002	0.000000	0.000000
50.425482	10.813411	25.849554	-0.076481	0.102104	2.137873	0.000000	0.008789	0.000000	0.000002	-0.000002	0.000000	0.000000
50.758816	10.874733	25.785828	-0.107487	0.089074	2.140803	0.000000	0.008789	0.000000	0.000002	-0.000002	0.000000	0.000000
51.092149	10.956727	25.730789	-0.138493	0.076044	2.143733	0.000000	0.008789	0.000000	0.000001	-0.000002	0.000000	0.000000
51.426732	11.059591	25.684799	-0.079893	-0.145402	2.146653	0.000000	-0.008626	0.000000	0.000001	-0.000002	0.000000	0.000000
51.724055	11.115143	25.774776	-0.079691	-0.220430	2.144089	0.000000	-0.013884	0.000000	0.000000	-0.000002	0.000000	0.000000
52.165015	11.330585	25.682398	-0.410736	0.429126	2.151555	0.000000	0.047775	0.000000	-0.000001	-0.000002	0.000000	0.000000
52.605975	11.845121	25.023618	-0.760547	1.059157	2.186304	0.000000	0.109979	0.000000	-0.000002	-0.000002	0.000000	0.000000
53.046935	12.682262	23.828411	-1.145105	1.640997	2.248733	0.000000	0.173436	0.000000	-0.000002	-0.000002	0.000000	0.000000
53.487895	13.880252	22.151156	-1.581980	2.148173	2.339552	0.000000	0.238867	0.000000	-0.000003	-0.000002	0.000000	0.000000
53.933855	15.514365	20.043093	-2.095354	2.558948	2.461300	0.000000	0.307419	0.000000	-0.000004	-0.000002	0.000000	0.000000
54.482915	17.618304	17.670915	-1.713856	1.786991	2.609912	0.000000	0.233112	0.000000	-0.000005	-0.000002	0.000000	0.000000
55.031975	19.233952	16.071987	-1.211299	1.142317	2.716528	0.000000	0.154671	0.000000	-0.000006	-0.000002	0.000000	0.000000
55.581035	20.247189	15.132422	-0.623182	0.579009	2.779258	0.000000	0.073487	0.000000	-0.000007	-0.000002	0.000000	0.000000
56.130095	20.586445	14.785296	0.008954	0.056941	2.796988	0.000000	-0.009001	0.000000	-0.000008	-0.000001	0.000000	0.000000
56.428668	20.617559	14.734309	-0.059371	0.075197	2.796483	0.000000	-0.001693	0.000000	-0.000008	-0.000001	0.000000	0.000000
56.762001	20.662547	14.691761	-0.075595	0.052446	2.795919	0.000000	-0.001693	0.000000	-0.000009	-0.000001	0.000000	0.000000
57.095334	20.718352	14.664380	-0.091820	0.029695	2.795355	0.000000	-0.001693	0.000000	-0.000009	-0.000001	0.000000	0.000000
57.429918	20.785244	14.652150	-0.108105	0.006859	2.794789	0.000000	-0.001693	0.000000	-0.000010	-0.000001	0.000000	0.000000
57.727240	20.853831	14.654105	-0.177068	0.024857	2.794286	0.000000	0.005609	0.000000	-0.000010	-0.000001	0.000000	0.000000
58.276300	20.692545	14.908136	0.469077	-0.490255	2.774724	0.000000	-0.076762	0.000000	-0.000011	-0.000001	0.000000	0.000000
58.825360	19.835790	15.743564	1.082090	-1.040287	2.710243	0.000000	-0.157771	0.000000	-0.000011	-0.000001	0.000000	0.000000
59.374420	18.344081	17.219894	1.618669	-1.664416	2.601987	0.000000	-0.235982	0.000000	-0.000011	-0.000000	0.000000	0.000000
59.923480	16.322786	19.442281	2.040913	-2.407098	2.451875	0.000000	-0.310007	0.000000	-0.000011	0.000000	0.000000	0.000000
60.369440	14.740785	21.417506	1.519054	-2.003358	2.328916	0.000000	-0.241717	0.000000	-0.000011	-0.000000	0.000000	0.000000
60.810400	13.603081	22.972606	1.070795	-1.509845	2.236779	0.000000	-0.176576	0.000000	-0.000012	-0.000000	0.000000	0.000000
61.251360	12.837721	24.060396	0.671458	-0.947635	2.172896	0.000000	-0.113447	0.000000	-0.000012	-0.000001	0.000000	0.000000
61.692320	12.409737	24.631382	0.302797	-0.342309	2.136539	0.000000	-0.051609	0.000000	-0.000012	-0.000001	0.000000	0.000000
62.134530	12.299631	24.659041	-0.021965	0.218060	2.127301	0.000000	0.004423	0.000000	-0.000013	-0.000001	0.000000	0.000000
62.431853	12.319883	24.533128	-0.046150	0.205429	2.128617	0.000000	0.004423	0.000000	-0.000013	-0.000001	0.000000	0.000000
62.765186	12.359688	24.400895	-0.073264	0.191269	2.130091	0.000000	0.004423	0.000000	-0.000014	-0.000001	0.000000	0.000000
63.098520	12.417569	24.278103	-0.100378	0.177108	2.131566	0.000000	0.004423	0.000000	-0.000014	-0.000001	0.000000	0.000000
63.433103	12.493845	24.164344	-0.127594	0.162895	2.133047	0.000000	0.004423	0.000000	-0.000015	-0.000001	0.000000	0.000000
63.730426	12.576909	24.071235	-0.120933	0.091225	2.134362	0.000000	-0.000812	0.000000	-0.000015	-0.000001	0.000000	0.000000
64.171386	12.843769	23.725701	-0.486543	0.689387	2.147548	0.000000	0.060671	0.000000	-0.000016	-0.000002	0.000000	0.000000
64.612346	13.441614	22.864507	-0.874383	1.256181	2.187972	0.000000	0.122845	0.000000	-0.000017	-0.000002	0.000000	0.000000
65.053306	14.397759	21.526835	-1.302170	1.765821	2.256094	0.000000	0.186418	0.000000	-0.000018	-0.000003	0.000000	0.000000
65.494266	15.755887	19.773548	-1.789450	2.195117	2.352691	0.000000	0.252114	0.000000	-0.000019	-0.000003	0.000000	0.000000
65.940226	17.601209	17.659619	-2.363176	2.525287	2.480435	0.000000	0.321083	0.000000	-0.000020	-0.000004	0.000000	0.000000
66.489286	19.966908	15.294875	-1.919957	1.807033	2.636358	0.000000	0.246038	0.000000	-0.000022	-0.000003	0.000000	0.000000
67.038346	21.768096	13.643975	-1.341122	1.217491	2.749816	0.000000	0.166630	0.000000	-0.000024	-0.000002	0.000000	0.000000
67.587406	22.877548	12.589330	-0.667557	0.714667	2.818797	0.000000	0.084265	0.000000	-0.000025	-0.000001	0.000000	0.000000
68.136466	23.216897	12.055819	0.053161	0.262748	2.842076	0.000000	0.000406	0.000000	-0.000025	-0.000001	0.000000	0.000000
68.435038	23.225223	11.888141	-0.020374	0.267344	2.844415	0.000000	0.007834	0.000000	-0.000025	-0.000001	0.000000	0.000000
68.768372	23.243592	11.719926	-0.034732	0.237301	2.847027	0.000000	0.007834	0.000000	-0.000026	-0.000001	0.000000	0.000000
69.101705	23.271533	11.571740	-0.049091	0.207258	2.849638	0.000000	0.007834	0.000000	-0.000026	-0.000001	0.000000	0.000000
69.436288	23.309205	11.443140	-0.063503	0.177102	2.852259	0.000000	0.007834	0.000000	-0.000026	-0.000001	0.000000	0.000000
69.733611	23.350774	11.345794	-0.137334	0.179955	2.854589	0.000000	0.015294	0.000000	-0.000026	-0.000001	0.000000	0.000000
70.282671	23.100534	11.375470	0.590398	-0.234323	2.839793	0.000000	-0.069108	0.000000	-0.000026	0.000000	0.000000	0.000000
