#ParticleID	Turn	x[m]	xp	y[m]	yp	z[m]	dE[GeV]# s	beta_x	beta_y	alpha_x	alpha_y	D_x	D_y	D_px	D_py	orbit_x	orbit_px	orbit_y	orbit_py
0.300000	11.814312	25.016053	-0.011126	-0.027287	2.618112	0.000000	0.000012	0.000000	-0.000001	0.000001	0.000000	0.000000
0.601250	11.828698	25.036124	-0.036628	-0.039339	2.618115	0.000000	0.000012	0.000000	-0.000001	0.000001	0.000000	0.000000
0.898573	11.857962	25.063052	-0.032718	-0.112695	2.618118	0.000000	-0.006409	0.000000	-0.000001	0.000001	0.000000	0.000000
1.339533	12.038953	24.884425	-0.379286	0.516242	2.631585	0.000000	0.067549	0.000000	-0.000000	0.000001	0.000000	0.000000
1.780493	12.532046	24.159403	-0.743183	1.121690	2.677803	0.000000	0.142276	0.000000	0.000000	0.000001	0.000000	0.000000
2.221453	13.359770	22.920976	-1.141033	1.676102	2.757297	0.000000	0.218623	0.000000	0.000001	0.000001	0.000000	0.000000
2.662413	14.559941	21.225491	-1.591014	2.154253	2.870975	0.000000	0.297460	0.000000	0.000001	0.000001	0.000000	0.000000
3.108373	16.208140	19.125226	-2.117975	2.535519	3.021990	0.000000	0.380174	0.000000	0.000002	0.000001	0.000000	0.000000
3.657433	18.321680	16.766324	-1.708617	1.786097	3.205457	0.000000	0.287136	0.000000	0.000003	0.000001	0.000000	0.000000
4.206493	19.916359	15.156106	-1.178571	1.163895	3.336364	0.000000	0.189006	0.000000	0.000003	0.000001	0.000000	0.000000
4.755553	20.879538	14.179879	-0.565277	0.624595	3.412390	0.000000	0.087522	0.000000	0.000004	0.000001	0.000000	0.000000
5.304613	21.143182	13.768111	0.087946	0.129783	3.432187	0.000000	-0.015514	0.000000	0.000005	0.000001	0.000000	0.000000
5.603185	21.127874	13.675784	0.018568	0.143474	3.430233	0.000000	-0.006546	0.000000	0.000005	0.000001	0.000000	0.000000
5.936519	21.120755	13.588426	0.002786	0.118598	3.428050	0.000000	-0.006546	0.000000	0.000005	0.000001	0.000000	0.000000
6.269852	21.124159	13.517653	-0.012996	0.093722	3.425868	0.000000	-0.006546	0.000000	0.000005	0.000001	0.000000	0.000000
6.604435	21.138156	13.463291	-0.028838	0.068753	3.423677	0.000000	-0.006546	0.000000	0.000006	0.000001	0.000000	0.000000
6.901758	21.159490	13.429005	-0.098198	0.081651	3.421730	0.000000	0.002393	0.000000	0.000006	0.000001	0.000000	0.000000
7.450818	20.906700	13.600142	0.555879	-0.395183	3.394843	0.000000	-0.100189	0.000000	0.000006	0.000001	0.000000	0.000000
7.999878	19.953064	14.307193	1.170692	-0.900165	3.312037	0.000000	-0.200994	0.000000	0.000007	0.000001	0.000000	0.000000
8.548938	18.365942	15.600518	1.702812	-1.469264	3.174782	0.000000	-0.298234	0.000000	0.000007	0.000000	0.000000	0.000000
9.097998	16.257442	17.572238	2.114655	-2.143016	2.985512	0.000000	-0.390184	0.000000	0.000007	0.000000	0.000000	0.000000
9.543958	14.612421	19.329142	1.587177	-1.779933	2.829812	0.000000	-0.308476	0.000000	0.000007	0.000000	0.000000	0.000000
9.984918	13.415927	20.708879	1.136502	-1.337099	2.711033	0.000000	-0.230766	0.000000	0.000007	0.000000	0.000000	0.000000
10.425878	12.592581	21.669650	0.737750	-0.833427	2.625909	0.000000	-0.155684	0.000000	0.000008	0.000001	0.000000	0.000000
10.866838	12.104766	22.167741	0.372703	-0.291835	2.573472	0.000000	-0.082375	0.000000	0.000008	0.000001	0.000000	0.000000
11.309048	11.930061	22.179968	0.053834	0.208587	2.553102	0.000000	-0.016265	0.000000	0.000008	0.000001	0.000000	0.000000
11.606371	11.905481	22.060092	0.028839	0.194599	2.548266	0.000000	-0.016265	0.000000	0.000009	0.000001	0.000000	0.000000
12.086371	11.897164	21.884117	-0.011512	0.172016	2.540458	0.000000	-0.016265	0.000000	0.000009	0.000001	0.000000	0.000000
12.566371	11.927583	21.729821	-0.051863	0.149433	2.532650	0.000000	-0.016265	0.000000	0.000010	0.000001	0.000000	0.000000
13.046371	11.996740	21.597205	-0.092214	0.126850	2.524843	0.000000	-0.016265	0.000000	0.000010	0.000001	0.000000	0.000000
13.526371	12.104634	21.486268	-0.132565	0.104268	2.517035	0.000000	-0.016265	0.000000	0.000011	0.000001	0.000000	0.000000
14.007621	12.251698	21.396807	-0.173021	0.081626	2.509207	0.000000	-0.016265	0.000000	0.000011	0.000001	0.000000	0.000000
14.304943	12.362015	21.352427	-0.167704	0.015281	2.504370	0.000000	-0.022406	0.000000	0.000011	0.000001	0.000000	0.000000
14.745903	12.668470	21.105247	-0.529904	0.543136	2.510122	0.000000	0.048520	0.000000	0.000012	0.000001	0.000000	0.000000
15.186863	13.303784	20.401701	-0.916314	1.046278	2.547241	0.000000	0.119998	0.000000	0.000012	0.000002	0.000000	0.000000
15.627823	14.296984	19.273802	-1.344588	1.501816	2.616149	0.000000	0.192843	0.000000	0.000013	0.000002	0.000000	0.000000
16.068783	15.693446	17.772866	-1.834293	1.889022	2.717633	0.000000	0.267884	0.000000	0.000014	0.000002	0.000000	0.000000
16.514743	17.580628	15.945684	-2.412558	2.191024	2.854542	0.000000	0.346438	0.000000	0.000015	0.000003	0.000000	0.000000
17.063803	20.004432	13.905458	-1.975769	1.546760	3.021024	0.000000	0.259101	0.000000	0.000017	0.000002	0.000000	0.000000
17.612863	21.868650	12.508424	-1.399421	1.012669	3.138220	0.000000	0.167168	0.000000	0.000018	0.000002	0.000000	0.000000
18.161923	23.041603	11.655073	-0.724224	0.550708	3.204049	0.000000	0.072270	0.000000	0.000018	0.000001	0.000000	0.000000
18.710983	23.440439	11.284622	0.002128	0.127973	3.217344	0.000000	-0.023910	0.000000	0.000019	0.000000	0.000000	0.000000
19.009556	23.479551	11.198695	-0.071890	0.130339	3.212715	0.000000	-0.015505	0.000000	0.000019	0.000000	0.000000	0.000000
19.342889	23.532235	11.121893	-0.086160	0.100068	3.207546	0.000000	-0.015505	0.000000	0.000019	0.000000	0.000000	0.000000
19.676223	23.594432	11.065271	-0.100431	0.069797	3.202377	0.000000	-0.015505	0.000000	0.000019	0.000000	0.000000	0.000000
20.010806	23.666722	11.028595	-0.232012	0.094055	3.197209	0.000000	0.000336	0.000000	0.000019	0.000001	0.000000	0.000000
20.308129	23.808624	10.980752	-0.307449	0.095543	3.197309	0.000000	0.008688	0.000000	0.000019	0.000001	0.000000	0.000000
20.857189	23.735599	11.097995	0.439662	-0.310336	3.175858	0.000000	-0.086710	0.000000	0.000020	-0.000000	0.000000	0.000000
21.406249	22.854424	11.670392	1.155717	-0.738321	3.102373	0.000000	-0.180571	0.000000	0.000019	-0.000001	0.000000	0.000000
21.955309	21.227341	12.738714	1.790137	-1.218894	2.978158	0.000000	-0.271229	0.000000	0.000019	-0.000001	0.000000	0.000000
22.504369	18.969279	14.379056	2.298112	-1.786286	2.805416	0.000000	-0.357076	0.000000	0.000018	-0.000002	0.000000	0.000000
22.950329	17.189714	15.851782	1.706387	-1.502155	2.663469	0.000000	-0.279861	0.000000	0.000017	-0.000001	0.000000	0.000000
23.391289	15.914134	17.025978	1.197319	-1.150531	2.556386	0.000000	-0.206289	0.000000	0.000017	-0.000001	0.000000	0.000000
23.832249	15.061785	17.865715	0.742953	-0.746559	2.481196	0.000000	-0.135065	0.000000	0.000016	-0.000001	0.000000	0.000000
24.273209	14.593725	18.332783	0.322531	-0.308619	2.437044	0.000000	-0.065380	0.000000	0.000016	-0.000000	0.000000	0.000000
24.715418	14.488688	18.405688	-0.047718	0.098164	2.423423	0.000000	-0.002382	0.000000	0.000016	0.000000	0.000000	0.000000
25.012741	14.523179	18.352164	-0.068286	0.081855	2.422715	0.000000	-0.002382	0.000000	0.000016	0.000000	0.000000	0.000000
25.346075	14.576389	18.303689	-0.091345	0.063570	2.421921	0.000000	-0.002382	0.000000	0.000016	0.000000	0.000000	0.000000
25.679408	14.644972	18.267404	-0.114404	0.045285	2.421127	0.000000	-0.002382	0.000000	0.000016	0.000000	0.000000	0.000000
26.013991	14.728972	18.243611	-0.018058	-0.121069	2.420305	0.000000	-0.022017	0.000000	0.000017	0.000000	0.000000	0.000000
26.311314	14.745714	18.320521	-0.002095	-0.182526	2.413759	0.000000	-0.027936	0.000000	0.000017	0.000000	0.000000	0.000000
26.752274	14.929235	18.282804	-0.415669	0.267734	2.416552	0.000000	0.040616	0.000000	0.000017	0.000000	0.000000	0.000000
27.193234	15.484460	17.851870	-0.848233	0.705812	2.449646	0.000000	0.109630	0.000000	0.000017	0.000001	0.000000	0.000000
27.634194	16.436754	17.047324	-1.319551	1.111776	2.513419	0.000000	0.179893	0.000000	0.000018	0.000001	0.000000	0.000000
28.075154	17.829625	15.905774	-1.851155	1.467156	2.608596	0.000000	0.252204	0.000000	0.000018	0.000002	0.000000	0.000000
28.521114	19.750909	14.461962	-2.472301	1.756693	2.737866	0.000000	0.327832	0.000000	0.000019	0.000002	0.000000	0.000000
29.070174	22.192871	12.853273	-1.948902	1.190498	2.895197	0.000000	0.244423	0.000000	0.000020	0.000002	0.000000	0.000000
29.619234	23.980621	11.816400	-1.287842	0.709100	3.005474	0.000000	0.156679	0.000000	0.000021	0.000001	0.000000	0.000000
30.168294	24.987880	11.277489	-0.535815	0.278209	3.066738	0.000000	0.066156	0.000000	0.000021	0.000000	0.000000	0.000000
30.717354	25.143502	11.198155	0.254059	-0.132865	3.077905	0.000000	-0.025541	0.000000	0.000021	-0.000000	0.000000	0.000000
31.015927	25.034686	11.268072	0.176080	-0.130561	3.072680	0.000000	-0.017500	0.000000	0.000021	-0.000000	0.000000	0.000000
31.349260	24.921876	11.365142	0.162352	-0.160647	3.066847	0.000000	-0.017500	0.000000	0.000021	-0.000000	0.000000	0.000000
31.682593	24.818217	11.482269	0.148624	-0.190734	3.061013	0.000000	-0.017500	0.000000	0.000021	-0.000000	0.000000	0.000000
32.017177	24.723373	11.620005	0.134845	-0.220933	3.055158	0.000000	-0.017500	0.000000	0.000021	-0.000000	0.000000	0.000000
32.314499	24.646828	11.759361	0.058214	-0.217049	3.049955	0.000000	-0.009533	0.000000	0.000021	-0.000000	0.000000	0.000000
32.863559	24.160625	12.236928	0.822063	-0.657876	3.019837	0.000000	-0.100016	0.000000	0.000021	-0.000001	0.000000	0.000000
33.412619	22.862699	13.221314	1.527846	-1.145562	2.940452	0.000000	-0.188726	0.000000	0.000020	-0.000002	0.000000	0.000000
33.961679	20.844731	14.782632	2.125710	-1.714843	2.813209	0.000000	-0.274089	0.000000	0.000019	-0.000002	0.000000	0.000000
34.510739	18.249260	17.032093	2.573423	-2.406270	2.640365	0.000000	-0.354589	0.000000	0.000017	-0.000003	0.000000	0.000000
34.956699	16.231179	19.044152	1.968038	-2.086639	2.498576	0.000000	-0.281654	0.000000	0.000016	-0.000002	0.000000	0.000000
35.397659	14.726327	20.708253	1.457581	-1.672813	2.389761	0.000000	-0.212355	0.000000	0.000015	-0.000002	0.000000	0.000000
35.838619	13.640702	21.972307	1.013716	-1.182875	2.310943	0.000000	-0.145474	0.000000	0.000015	-0.000002	0.000000	0.000000
36.279579	12.924706	22.778803	0.616165	-0.639118	2.261224	0.000000	-0.080250	0.000000	0.000014	-0.000001	0.000000	0.000000
36.721789	12.544933	23.091351	0.277419	-0.122954	2.240010	0.000000	-0.021432	0.000000	0.000014	-0.000001	0.000000	0.000000
37.019112	12.387556	23.168351	0.251894	-0.136025	2.233638	0.000000	-0.021432	0.000000	0.000013	-0.000001	0.000000	0.000000
37.352445	12.229165	23.263919	0.223278	-0.150679	2.226494	0.000000	-0.021432	0.000000	0.000013	-0.000001	0.000000	0.000000
37.685779	12.089851	23.369256	0.194662	-0.165332	2.219350	0.000000	-0.021432	0.000000	0.000013	-0.000001	0.000000	0.000000
38.020362	11.969200	23.484812	0.165939	-0.180041	2.212180	0.000000	-0.021432	0.000000	0.000012	-0.000001	0.000000	0.000000
38.317684	11.878114	23.595758	0.169539	-0.250969	2.205808	0.000000	-0.026841	0.000000	0.000012	-0.000001	0.000000	0.000000
38.758644	11.880032	23.555740	-0.173904	0.341376	2.207901	0.000000	0.036341	0.000000	0.000012	-0.000001	0.000000	0.000000
39.199604	12.187184	22.998201	-0.525293	0.918188	2.237919	0.000000	0.099936	0.000000	0.000012	-0.000000	0.000000	0.000000
39.640564	12.813605	21.948509	-0.900680	1.453223	2.296204	0.000000	0.164670	0.000000	0.000012	0.000000	0.000000	0.000000
40.081524	13.787913	20.454424	-1.317218	1.922138	2.383420	0.000000	0.231279	0.000000	0.000012	0.000000	0.000000	0.000000
40.527484	15.172197	18.561353	-1.797762	2.304881	2.502032	0.000000	0.300928	0.000000	0.000012	0.000001	0.000000	0.000000
41.076544	16.938710	16.434015	-1.400533	1.592499	2.646728	0.000000	0.225365	0.000000	0.000012	0.000000	0.000000	0.000000
41.625604	18.211780	15.022452	-0.904377	0.993548	2.748775	0.000000	0.145805	0.000000	0.000012	-0.000000	0.000000	0.000000
42.174664	18.901483	14.226122	-0.344340	0.465364	2.806364	0.000000	0.063659	0.000000	0.000012	-0.000001	0.000000	0.000000
42.723724	18.959103	13.988305	0.240019	-0.029672	2.818474	0.000000	-0.019616	0.000000	0.000011	-0.000001	0.000000	0.000000
43.022297	18.850227	13.990573	0.174168	-0.014472	2.814815	0.000000	-0.012253	0.000000	0.000011	-0.000001	0.000000	0.000000
43.502297	18.695619	14.020938	0.147931	-0.048788	2.808934	0.000000	-0.012253	0.000000	0.000011	-0.000001	0.000000	0.000000
43.982297	18.566199	14.084247	0.121695	-0.083104	2.803053	0.000000	-0.012253	0.000000	0.000010	-0.000001	0.000000	0.000000
44.462297	18.461965	14.180498	0.095459	-0.117420	2.797172	0.000000	-0.012253	0.000000	0.000010	-0.000001	0.000000	0.000000
44.942297	18.382918	14.309693	0.069222	-0.151736	2.791292	0.000000	-0.012253	0.000000	0.000009	-0.000001	0.000000	0.000000
45.423547	18.329178	14.472118	-0.047895	-0.114438	2.785412	0.000000	0.001548	0.000000	0.000009	-0.000001	0.000000	0.000000
45.720870	18.362493	14.546356	-0.112128	-0.097247	2.785873	0.000000	0.008826	0.000000	0.000009	-0.000001	0.000000	0.000000
46.269930	18.176435	14.934479	0.448987	-0.613812	2.768147	0.000000	-0.073302	0.000000	0.000008	-0.000001	0.000000	0.000000
46.818990	17.388053	15.910387	0.978388	-1.174097	2.705618	0.000000	-0.154130	0.000000	0.000007	-0.000001	0.000000	0.000000
47.368050	16.053034	17.543593	1.438681	-1.818010	2.599397	0.000000	-0.232224	0.000000	0.000007	-0.000002	0.000000	0.000000
47.917110	14.265677	19.950426	1.797352	-2.591416	2.451367	0.000000	-0.306199	0.000000	0.000006	-0.000002	0.000000	0.000000
48.363070	12.874773	22.090301	1.332598	-2.186768	2.330107	0.000000	-0.237899	0.000000	0.000005	-0.000002	0.000000	0.000000
48.804030	11.879731	23.803630	0.932497	-1.683898	2.239664	0.000000	-0.172706	0.000000	0.000004	-0.000002	0.000000	0.000000
49.244990	11.217498	25.037859	0.574998	-1.104411	2.177508	0.000000	-0.109480	0.000000	0.000004	-0.000001	0.000000	0.000000
49.685950	10.857818	25.736833	0.243770	-0.474675	2.142930	0.000000	-0.047500	0.000000	0.000003	-0.000001	0.000000	0.000000
50.128160	10.784383	25.868465	-0.049992	0.113174	2.135549	0.000000	0.008701	0.000000	0.000002	-0.000001	0.000000	0.000000
50.425482	10.822328	25.804628	-0.077630	0.101533	2.138136	0.000000	0.008701	0.000000	0.000002	-0.000001	0.000000	0.000000
50.758816	10.884411	25.741289	-0.108616	0.088482	2.141037	0.000000	0.008701	0.000000	0.000002	-0.000001	0.000000	0.000000
51.092149	10.967150	25.686651	-0.139603	0.075432	2.143938	0.000000	0.008701	0.000000	0.000001	-0.000001	0.000000	0.000000
51.426732	11.070749	25.641078	-0.080892	-0.145681	2.146828	0.000000	-0.008715	0.000000	0.000001	-0.000001	0.000000	0.000000
51.724055	11.126889	25.731227	-0.080638	-0.220623	2.144237	0.000000	-0.013974	0.000000	0.000000	-0.000001	0.000000	0.000000
52.165015	11.343290	25.639528	-0.411974	0.427786	2.151664	0.000000	0.047689	0.000000	-0.000000	-0.000001	0.000000	0.000000
52.605975	11.859066	24.982414	-0.762132	1.056732	2.186376	0.000000	0.109896	0.000000	-0.000001	-0.000001	0.000000	0.000000
53.046935	12.697783	23.789785	-1.147109	1.637597	2.248768	0.000000	0.173353	0.000000	-0.000001	-0.000001	0.000000	0.000000
53.487895	13.897759	22.115903	-1.584495	2.143953	2.339550	0.000000	0.238786	0.000000	-0.000002	-0.000001	0.000000	0.000000
53.933855	15.534388	20.011902	-2.098501	2.554098	2.461262	0.000000	0.307336	0.000000	-0.000003	-0.000001	0.000000	0.000000
54.482915	17.641508	17.644359	-1.716469	1.783348	2.609829	0.000000	0.233032	0.000000	-0.000003	-0.000001	0.000000	0.000000
55.031975	19.259647	16.048891	-1.213194	1.139622	2.716401	0.000000	0.154594	0.000000	-0.000004	-0.000001	0.000000	0.000000
55.581035	20.274507	15.111856	-0.624225	0.577069	2.779089	0.000000	0.073414	0.000000	-0.000005	-0.000001	0.000000	0.000000
56.130095	20.614404	14.766511	0.008836	0.055619	2.796781	0.000000	-0.009068	0.000000	-0.000005	-0.000001	0.000000	0.000000
56.428668	20.645625	14.716348	-0.059541	0.073804	2.796256	0.000000	-0.001760	0.000000	-0.000005	-0.000001	0.000000	0.000000
56.762001	20.690720	14.674737	-0.075744	0.051030	2.795670	0.000000	-0.001760	0.000000	-0.000006	-0.000001	0.000000	0.000000
57.095334	20.746617	14.648308	-0.091946	0.028256	2.795083	0.000000	-0.001760	0.000000	-0.000006	-0.000001	0.000000	0.000000
57.429918	20.813586	14.637048	-0.108210	0.005397	2.794495	0.000000	-0.001760	0.000000	-0.000006	-0.000001	0.000000	0.000000
57.727240	20.882229	14.639879	-0.177227	0.023337	2.793972	0.000000	0.005541	0.000000	-0.000007	-0.000001	0.000000	0.000000
58.276300	20.720595	14.895365	0.469868	-0.491400	2.774375	0.000000	-0.076819	0.000000	-0.000007	-0.000001	0.000000	0.000000
58.825360	19.862473	15.731883	1.083773	-1.041138	2.709866	0.000000	-0.157817	0.000000	-0.000007	-0.000000	0.000000	0.000000
59.374420	18.368477	17.209013	1.621126	-1.665033	2.601588	0.000000	-0.236015	0.000000	-0.000008	-0.000000	0.000000	0.000000
59.923480	16.344136	19.431970	2.043971	-2.407525	2.451462	0.000000	-0.310027	0.000000	-0.000008	0.000000	0.000000	0.000000
60.369440	14.759705	21.407750	1.521467	-2.004171	2.328492	0.000000	-0.241747	0.000000	-0.000008	-0.000000	0.000000	0.000000
60.810400	13.620114	22.963723	1.072678	-1.511003	2.236339	0.000000	-0.176618	0.000000	-0.000008	-0.000000	0.000000	0.000000
61.251360	12.853295	24.052668	0.672896	-0.949086	2.172435	0.000000	-0.113500	0.000000	-0.000008	-0.000001	0.000000	0.000000
61.692320	12.424213	24.625039	0.303858	-0.343987	2.136052	0.000000	-0.051675	0.000000	-0.000008	-0.000001	0.000000	0.000000
62.134530	12.313318	24.654254	-0.021202	0.216246	2.126782	0.000000	0.004346	0.000000	-0.000009	-0.000001	0.000000	0.000000
62.431853	12.333109	24.529418	-0.045359	0.203622	2.128074	0.000000	0.004346	0.000000	-0.000009	-0.000001	0.000000	0.000000
62.765186	12.372376	24.398387	-0.072442	0.189470	2.129523	0.000000	0.004346	0.000000	-0.000009	-0.000001	0.000000	0.000000
63.098520	12.429698	24.276792	-0.099525	0.175317	2.130972	0.000000	0.004346	0.000000	-0.000010	-0.000001	0.000000	0.000000
63.433103	12.505393	24.164228	-0.126710	0.161111	2.132427	0.000000	0.004346	0.000000	-0.000010	-0.000001	0.000000	0.000000
63.730426	12.587923	24.072177	-0.119995	0.089449	2.133719	0.000000	-0.000887	0.000000	-0.000010	-0.000001	0.000000	0.000000
64.171386	12.854058	23.728185	-0.485831	0.687682	2.146868	0.000000	0.060579	0.000000	-0.000011	-0.000001	0.000000	0.000000
64.612346	13.451363	22.868433	-0.873864	1.254625	2.187247	0.000000	0.122734	0.000000	-0.000012	-0.000002	0.000000	0.000000
65.053306	14.407127	21.532042	-1.301821	1.764484	2.255317	0.000000	0.186288	0.000000	-0.000012	-0.000002	0.000000	0.000000
65.494266	15.765016	19.779814	-1.789254	2.194061	2.351851	0.000000	0.251963	0.000000	-0.000013	-0.000002	0.000000	0.000000
65.940226	17.610229	17.666681	-2.363125	2.524562	2.479523	0.000000	0.320910	0.000000	-0.000014	-0.000003	0.000000	0.000000
66.489286	19.975653	15.302754	-1.919508	1.806261	2.635358	0.000000	0.245896	0.000000	-0.000016	-0.000002	0.000000	0.000000
67.038346	21.776144	13.652754	-1.340307	1.216614	2.748747	0.000000	0.166521	0.000000	-0.000017	-0.000002	0.000000	0.000000
67.587406	22.884525	12.599156	-0.666433	0.713625	2.817677	0.000000	0.084192	0.000000	-0.000017	-0.000001	0.000000	0.000000
68.136466	23.222506	12.066915	0.054514	0.261466	2.840926	0.000000	0.000370	0.000000	-0.000018	-0.000000	0.000000	0.000000
68.435038	23.230029	11.899973	-0.019028	0.266132	2.843254	0.000000	0.007793	0.000000	-0.000018	-0.000000	0.000000	0.000000
68.768372	23.247500	11.732551	-0.033383	0.236137	2.845852	0.000000	0.007793	0.000000	-0.000018	-0.000000	0.000000	0.000000
69.101705	23.274540	11.585125	-0.047737	0.206141	2.848449	0.000000	0.007793	0.000000	-0.000018	-0.000000	0.000000	0.000000
69.436288	23.311305	11.457255	-0.062146	0.176034	2.851057	0.000000	0.007793	0.000000	-0.000018	-0.000000	0.000000	0.000000
69.733611	23.352066	11.360532	-0.135973	0.178966	2.853375	0.000000	0.015250	0.000000	-0.000018	-0.000001	0.000000	0.000000
70.282671	23.100321	11.391524	0.591762	-0.235745	2.838566	0.000000	-0.069112	0.000000	-0.000019	0.000000	0.000000	0.000000
