#ParticleID	Turn	x[m]	xp	y[m]	yp	z[m]	dE[GeV]# s	beta_x	beta_y	alpha_x	alpha_y	D_x	D_y	D_px	D_py	orbit_x	orbit_px	orbit_y	orbit_py
0.300000	11.799752	25.070832	-0.009871	-0.026566	2.618523	0.000000	-0.000145	0.000000	-0.000002	0.000002	0.000000	0.000000
0.601250	11.813391	25.090460	-0.035404	-0.038590	2.618479	0.000000	-0.000145	0.000000	-0.000001	0.000002	0.000000	0.000000
0.898573	11.841937	25.116936	-0.031564	-0.112051	2.618435	0.000000	-0.006567	0.000000	-0.000001	0.000002	0.000000	0.000000
1.339533	12.021740	24.937114	-0.377737	0.518296	2.631834	0.000000	0.067398	0.000000	0.000000	0.000002	0.000000	0.000000
1.780493	12.513268	24.209692	-0.741168	1.125061	2.677986	0.000000	0.142130	0.000000	0.000001	0.000002	0.000000	0.000000
2.221453	13.338977	22.967766	-1.138461	1.680636	2.757417	0.000000	0.218481	0.000000	0.000002	0.000002	0.000000	0.000000
2.662413	14.536591	21.267843	-1.587767	2.159744	2.871032	0.000000	0.297321	0.000000	0.000003	0.000002	0.000000	0.000000
3.108373	16.181534	19.162342	-2.113896	2.541720	3.021986	0.000000	0.380036	0.000000	0.000004	0.000002	0.000000	0.000000
3.657433	18.290966	16.797480	-1.705256	1.790813	3.205376	0.000000	0.287000	0.000000	0.000005	0.000002	0.000000	0.000000
4.206493	19.882461	15.182741	-1.176165	1.167462	3.336209	0.000000	0.188872	0.000000	0.000006	0.000002	0.000000	0.000000
4.755553	20.843604	14.203109	-0.563996	0.627267	3.412163	0.000000	0.087395	0.000000	0.000007	0.000002	0.000000	0.000000
5.304613	21.106506	13.788807	0.088011	0.131751	3.431893	0.000000	-0.015632	0.000000	0.000008	0.000001	0.000000	0.000000
5.603185	21.091107	13.695268	0.018706	0.145514	3.429902	0.000000	-0.006666	0.000000	0.000008	0.000001	0.000000	0.000000
5.936519	21.083907	13.606544	0.002896	0.120659	3.427680	0.000000	-0.006666	0.000000	0.000009	0.000001	0.000000	0.000000
6.269852	21.087246	13.534389	-0.012914	0.095804	3.425457	0.000000	-0.006666	0.000000	0.000009	0.000001	0.000000	0.000000
6.604435	21.101197	13.478627	-0.028783	0.070856	3.423226	0.000000	-0.006666	0.000000	0.000009	0.000001	0.000000	0.000000
6.901758	21.122506	13.443084	-0.098070	0.083808	3.421244	0.000000	0.002272	0.000000	0.000010	0.000001	0.000000	0.000000
7.450818	20.870254	13.612060	0.554776	-0.393379	3.394294	0.000000	-0.100293	0.000000	0.000011	0.000001	0.000000	0.000000
7.999878	19.918474	14.317264	1.168435	-0.898587	3.311436	0.000000	-0.201079	0.000000	0.000011	0.000001	0.000000	0.000000
8.548938	18.334395	15.608928	1.699561	-1.467798	3.174139	0.000000	-0.298299	0.000000	0.000011	0.000000	0.000000	0.000000
9.097998	16.229908	17.579052	2.110640	-2.141558	2.984839	0.000000	-0.390228	0.000000	0.000011	-0.000000	0.000000	0.000000
9.543958	14.588083	19.334492	1.584002	-1.778121	2.829116	0.000000	-0.308538	0.000000	0.000012	0.000000	0.000000	0.000000
9.984918	13.394076	20.712506	1.134015	-1.335018	2.710305	0.000000	-0.230846	0.000000	0.000012	0.000001	0.000000	0.000000
10.425878	12.572663	21.671359	0.735837	-0.831173	2.625142	0.000000	-0.155784	0.000000	0.000012	0.000001	0.000000	0.000000
10.866838	12.086314	22.167423	0.371278	-0.289510	2.572655	0.000000	-0.082495	0.000000	0.000013	0.000001	0.000000	0.000000
11.309048	11.912678	22.177601	0.052787	0.210885	2.552228	0.000000	-0.016405	0.000000	0.000013	0.000002	0.000000	0.000000
11.606371	11.888730	22.056362	0.027759	0.196883	2.547350	0.000000	-0.016405	0.000000	0.000014	0.000002	0.000000	0.000000
12.086371	11.881476	21.878206	-0.012647	0.174277	2.539475	0.000000	-0.016405	0.000000	0.000014	0.000002	0.000000	0.000000
12.566371	11.913012	21.721751	-0.053052	0.151671	2.531600	0.000000	-0.016405	0.000000	0.000015	0.000002	0.000000	0.000000
13.046371	11.983336	21.586998	-0.093458	0.129065	2.523725	0.000000	-0.016405	0.000000	0.000016	0.000002	0.000000	0.000000
13.526371	12.092450	21.473947	-0.133863	0.106459	2.515850	0.000000	-0.016405	0.000000	0.000017	0.000002	0.000000	0.000000
14.007621	12.240789	21.382388	-0.174374	0.083794	2.507955	0.000000	-0.016405	0.000000	0.000017	0.000002	0.000000	0.000000
14.304943	12.351921	21.336723	-0.169116	0.017476	2.503077	0.000000	-0.022542	0.000000	0.000018	0.000001	0.000000	0.000000
14.745903	12.659537	21.087808	-0.531134	0.544861	2.508761	0.000000	0.048349	0.000000	0.000018	0.000002	0.000000	0.000000
15.186863	13.295876	20.382978	-0.917417	1.047455	2.545796	0.000000	0.119792	0.000000	0.000019	0.000002	0.000000	0.000000
15.627823	14.290012	19.254303	-1.345615	1.502390	2.614605	0.000000	0.192598	0.000000	0.000021	0.000003	0.000000	0.000000
16.068783	15.687364	17.753137	-1.835291	1.888968	2.715972	0.000000	0.267598	0.000000	0.000022	0.000003	0.000000	0.000000
16.514743	17.575441	15.926285	-2.413574	2.190340	2.852743	0.000000	0.346108	0.000000	0.000024	0.000004	0.000000	0.000000
17.063803	20.000557	13.886551	-1.977128	1.546544	3.019059	0.000000	0.258831	0.000000	0.000026	0.000003	0.000000	0.000000
17.612863	21.866414	12.489506	-1.401027	1.012904	3.136124	0.000000	0.166964	0.000000	0.000027	0.000002	0.000000	0.000000
18.161923	23.041215	11.635643	-0.725964	0.551411	3.201859	0.000000	0.072135	0.000000	0.000028	0.000002	0.000000	0.000000
18.710983	23.441979	11.264143	0.000377	0.129194	3.215100	0.000000	-0.023973	0.000000	0.000029	0.000001	0.000000	0.000000
19.009556	23.482137	11.177539	-0.073642	0.131444	3.210450	0.000000	-0.015575	0.000000	0.000029	0.000001	0.000000	0.000000
19.342889	23.535988	11.100021	-0.087914	0.101108	3.205258	0.000000	-0.015575	0.000000	0.000029	0.000001	0.000000	0.000000
19.676223	23.599355	11.042728	-0.102186	0.070771	3.200066	0.000000	-0.015575	0.000000	0.000030	0.000001	0.000000	0.000000
20.010806	23.672821	11.005423	-0.233800	0.094848	3.194875	0.000000	0.000255	0.000000	0.000030	0.000001	0.000000	0.000000
20.308129	23.815787	10.957127	-0.309257	0.096210	3.194950	0.000000	0.008600	0.000000	0.000030	0.000001	0.000000	0.000000
20.857189	23.744607	11.073271	0.438129	-0.308991	3.173472	0.000000	-0.086722	0.000000	0.000030	-0.000000	0.000000	0.000000
21.406249	22.864913	11.643778	1.154567	-0.736202	3.100002	0.000000	-0.180505	0.000000	0.000030	-0.000001	0.000000	0.000000
21.955309	21.238842	12.709283	1.789453	-1.215850	2.975844	0.000000	-0.271087	0.000000	0.000029	-0.000002	0.000000	0.000000
22.504369	18.981253	14.345680	2.297940	-1.782101	2.803201	0.000000	-0.356861	0.000000	0.000028	-0.000003	0.000000	0.000000
22.950329	17.201930	15.815016	1.706010	-1.498769	2.661338	0.000000	-0.279702	0.000000	0.000027	-0.000002	0.000000	0.000000
23.391289	15.926779	16.986636	1.196721	-1.148095	2.554313	0.000000	-0.206184	0.000000	0.000026	-0.000002	0.000000	0.000000
23.832249	15.075064	17.824685	0.742106	-0.745183	2.479157	0.000000	-0.135014	0.000000	0.000025	-0.000001	0.000000	0.000000
24.273209	14.607874	18.291034	0.321396	-0.308367	2.435016	0.000000	-0.065381	0.000000	0.000025	-0.000000	0.000000	0.000000
24.715418	14.503987	18.364219	-0.049157	0.097387	2.421384	0.000000	-0.002430	0.000000	0.000025	0.000000	0.000000	0.000000
25.012741	14.539327	18.311167	-0.069706	0.081044	2.420662	0.000000	-0.002430	0.000000	0.000025	0.000000	0.000000	0.000000
25.346075	14.593477	18.263246	-0.092743	0.062720	2.419852	0.000000	-0.002430	0.000000	0.000025	0.000000	0.000000	0.000000
25.679408	14.662985	18.227540	-0.115781	0.044397	2.419042	0.000000	-0.002430	0.000000	0.000025	0.000000	0.000000	0.000000
26.013991	14.747899	18.204354	-0.019261	-0.121678	2.418204	0.000000	-0.022048	0.000000	0.000025	0.000000	0.000000	0.000000
26.311314	14.765349	18.281637	-0.003228	-0.183073	2.411648	0.000000	-0.027961	0.000000	0.000025	0.000000	0.000000	0.000000
26.752274	14.950084	18.244867	-0.417298	0.266142	2.414418	0.000000	0.040536	0.000000	0.000026	0.000001	0.000000	0.000000
27.193234	15.506990	17.815771	-0.850434	0.703249	2.447465	0.000000	0.109495	0.000000	0.000026	0.000001	0.000000	0.000000
27.634194	16.461513	17.013873	-1.322423	1.108358	2.511166	0.000000	0.179700	0.000000	0.000027	0.000002	0.000000	0.000000
28.075154	17.857261	15.875658	-1.854830	1.463038	2.606245	0.000000	0.251952	0.000000	0.000028	0.000003	0.000000	0.000000
28.521114	19.782245	14.435764	-2.476954	1.752062	2.735388	0.000000	0.327517	0.000000	0.000029	0.000004	0.000000	0.000000
29.070174	22.228883	12.831568	-1.952711	1.186898	2.892569	0.000000	0.244191	0.000000	0.000031	0.000003	0.000000	0.000000
29.619234	24.020227	11.798203	-1.290538	0.706273	3.002741	0.000000	0.156534	0.000000	0.000032	0.000002	0.000000	0.000000
30.168294	25.029745	11.262065	-0.537207	0.275955	3.063951	0.000000	0.066100	0.000000	0.000033	0.000000	0.000000	0.000000
30.717354	25.186130	11.184967	0.254069	-0.134708	3.075112	0.000000	-0.025506	0.000000	0.000033	-0.000001	0.000000	0.000000
31.015927	25.077364	11.256020	0.176006	-0.132483	3.069895	0.000000	-0.017473	0.000000	0.000033	-0.000001	0.000000	0.000000
31.349260	24.964595	11.354387	0.162302	-0.162617	3.064071	0.000000	-0.017473	0.000000	0.000032	-0.000001	0.000000	0.000000
31.682593	24.860962	11.472842	0.148598	-0.192750	3.058247	0.000000	-0.017473	0.000000	0.000032	-0.000001	0.000000	0.000000
32.017177	24.766128	11.611944	0.134842	-0.222997	3.052400	0.000000	-0.017473	0.000000	0.000032	-0.000001	0.000000	0.000000
32.314499	24.689579	11.752540	0.058127	-0.219176	3.047205	0.000000	-0.009514	0.000000	0.000032	-0.000000	0.000000	0.000000
32.863559	24.202693	12.232388	0.823385	-0.659928	3.017122	0.000000	-0.099909	0.000000	0.000031	-0.000001	0.000000	0.000000
33.412619	22.902581	13.219054	1.530483	-1.147686	2.937820	0.000000	-0.188532	0.000000	0.000030	-0.000002	0.000000	0.000000
33.961679	20.881077	14.782814	2.129475	-1.717192	2.810708	0.000000	-0.273811	0.000000	0.000029	-0.000003	0.000000	0.000000
34.510739	18.280968	17.035052	2.578051	-2.409008	2.638038	0.000000	-0.354234	0.000000	0.000027	-0.000004	0.000000	0.000000
34.956699	16.259211	19.049640	1.971683	-2.089549	2.496395	0.000000	-0.281357	0.000000	0.000025	-0.000004	0.000000	0.000000
35.397659	14.751510	20.716334	1.460418	-1.675760	2.387700	0.000000	-0.212112	0.000000	0.000023	-0.000003	0.000000	0.000000
35.838619	13.663691	21.982954	1.015875	-1.185725	2.308978	0.000000	-0.145283	0.000000	0.000022	-0.000002	0.000000	0.000000
36.279579	12.946052	22.791871	0.617744	-0.641740	2.259331	0.000000	-0.080109	0.000000	0.000021	-0.000002	0.000000	0.000000
36.721789	12.565112	23.106593	0.278538	-0.125263	2.238169	0.000000	-0.021335	0.000000	0.000020	-0.000001	0.000000	0.000000
37.019112	12.407062	23.184966	0.253040	-0.138333	2.231826	0.000000	-0.021335	0.000000	0.000020	-0.000001	0.000000	0.000000
37.352445	12.247898	23.282072	0.224453	-0.152985	2.224715	0.000000	-0.021335	0.000000	0.000020	-0.000001	0.000000	0.000000
37.685779	12.107791	23.388946	0.195866	-0.167637	2.217604	0.000000	-0.021335	0.000000	0.000019	-0.000001	0.000000	0.000000
38.020362	11.986325	23.506044	0.167172	-0.182344	2.210466	0.000000	-0.021335	0.000000	0.000019	-0.000001	0.000000	0.000000
38.317684	11.894498	23.618360	0.170838	-0.253323	2.204124	0.000000	-0.026739	0.000000	0.000018	-0.000001	0.000000	0.000000
38.758644	11.895432	23.580147	-0.172966	0.339653	2.206252	0.000000	0.036400	0.000000	0.000018	-0.000001	0.000000	0.000000
39.199604	12.201900	23.023819	-0.524671	0.917175	2.236287	0.000000	0.099953	0.000000	0.000017	-0.000000	0.000000	0.000000
39.640564	12.827901	21.974690	-0.900348	1.452966	2.294570	0.000000	0.164645	0.000000	0.000017	-0.000000	0.000000	0.000000
40.081524	13.802037	20.480493	-1.317158	1.922648	2.381765	0.000000	0.231211	0.000000	0.000017	0.000000	0.000000	0.000000
40.527484	15.186390	18.586629	-1.797975	2.306140	2.500337	0.000000	0.300817	0.000000	0.000018	0.000001	0.000000	0.000000
41.076544	16.952821	16.458296	-1.400170	1.593062	2.644988	0.000000	0.225310	0.000000	0.000018	0.000000	0.000000	0.000000
41.625604	18.225186	15.046477	-0.903464	0.993454	2.747020	0.000000	0.145806	0.000000	0.000018	-0.000000	0.000000	0.000000
42.174664	18.913613	14.250611	-0.342942	0.464608	2.804626	0.000000	0.063717	0.000000	0.000018	-0.000001	0.000000	0.000000
42.723724	18.969474	14.014011	0.241804	-0.031146	2.816782	0.000000	-0.019503	0.000000	0.000017	-0.000001	0.000000	0.000000
43.022297	18.859548	14.017109	0.175926	-0.015840	2.813157	0.000000	-0.012144	0.000000	0.000017	-0.000001	0.000000	0.000000
43.502297	18.703254	14.048757	0.149687	-0.050093	2.807328	0.000000	-0.012144	0.000000	0.000016	-0.000001	0.000000	0.000000
43.982297	18.572149	14.113287	0.123448	-0.084345	2.801499	0.000000	-0.012144	0.000000	0.000015	-0.000001	0.000000	0.000000
44.462297	18.466234	14.210700	0.097209	-0.118598	2.795671	0.000000	-0.012144	0.000000	0.000015	-0.000001	0.000000	0.000000
44.942297	18.385508	14.340995	0.070970	-0.152850	2.789842	0.000000	-0.012144	0.000000	0.000014	-0.000001	0.000000	0.000000
45.423547	18.330087	14.504461	-0.046155	-0.115328	2.784015	0.000000	0.001649	0.000000	0.000013	-0.000001	0.000000	0.000000
45.720870	18.362366	14.579216	-0.110382	-0.098011	2.784506	0.000000	0.008924	0.000000	0.000013	-0.000001	0.000000	0.000000
46.269930	18.174410	14.968728	0.450679	-0.615593	2.766846	0.000000	-0.073161	0.000000	0.000012	-0.000002	0.000000	0.000000
46.818990	17.384255	15.947206	0.979906	-1.177023	2.704406	0.000000	-0.153948	0.000000	0.000011	-0.000002	0.000000	0.000000
47.368050	16.047715	17.584346	1.439917	-1.822290	2.598296	0.000000	-0.232005	0.000000	0.000010	-0.000002	0.000000	0.000000
47.917110	14.259195	19.996756	1.798220	-2.597354	2.450396	0.000000	-0.305946	0.000000	0.000008	-0.000003	0.000000	0.000000
48.363070	12.867506	22.141479	1.333497	-2.191656	2.329244	0.000000	-0.237670	0.000000	0.000007	-0.000003	0.000000	0.000000
48.804030	11.871642	23.858574	0.933468	-1.687518	2.238897	0.000000	-0.172498	0.000000	0.000006	-0.000002	0.000000	0.000000
49.244990	11.208504	25.095374	0.576087	-1.106598	2.176828	0.000000	-0.109290	0.000000	0.000005	-0.000002	0.000000	0.000000
49.685950	10.847795	25.795605	0.245025	-0.475330	2.142331	0.000000	-0.047328	0.000000	0.000004	-0.000002	0.000000	0.000000
50.128160	10.773155	25.927124	-0.048540	0.113938	2.135023	0.000000	0.008861	0.000000	0.000003	-0.000002	0.000000	0.000000
50.425482	10.810245	25.862824	-0.076204	0.102322	2.137658	0.000000	0.008861	0.000000	0.000003	-0.000002	0.000000	0.000000
50.758816	10.871385	25.798951	-0.107218	0.089298	2.140612	0.000000	0.008861	0.000000	0.000002	-0.000002	0.000000	0.000000
51.092149	10.953202	25.743760	-0.138232	0.076275	2.143566	0.000000	0.008861	0.000000	0.000001	-0.000002	0.000000	0.000000
51.426732	11.055893	25.697614	-0.079669	-0.145269	2.146510	0.000000	-0.008553	0.000000	0.000001	-0.000002	0.000000	0.000000
51.724055	11.111315	25.787510	-0.079485	-0.220322	2.143967	0.000000	-0.013811	0.000000	0.000000	-0.000002	0.000000	0.000000
52.165015	11.326535	25.694889	-0.410438	0.429568	2.151465	0.000000	0.047846	0.000000	-0.000001	-0.000002	0.000000	0.000000
52.605975	11.840764	25.035578	-0.760144	1.059913	2.186246	0.000000	0.110048	0.000000	-0.000002	-0.000002	0.000000	0.000000
53.046935	12.677495	23.839577	-1.144578	1.642033	2.248704	0.000000	0.173503	0.000000	-0.000003	-0.000002	0.000000	0.000000
53.487895	13.874958	22.161302	-1.581305	2.149442	2.339553	0.000000	0.238935	0.000000	-0.000004	-0.000002	0.000000	0.000000
53.933855	15.508391	20.052024	-2.094499	2.560392	2.461332	0.000000	0.307486	0.000000	-0.000005	-0.000002	0.000000	0.000000
54.482915	17.611478	17.678461	-1.713169	1.788084	2.609981	0.000000	0.233179	0.000000	-0.000006	-0.000002	0.000000	0.000000
55.031975	19.226488	16.078489	-1.210829	1.143136	2.716633	0.000000	0.154735	0.000000	-0.000007	-0.000002	0.000000	0.000000
55.581035	20.239344	15.138148	-0.622962	0.579612	2.779396	0.000000	0.073546	0.000000	-0.000008	-0.000002	0.000000	0.000000
56.130095	20.578504	14.790458	0.008907	0.057372	2.797157	0.000000	-0.008947	0.000000	-0.000009	-0.000001	0.000000	0.000000
56.428668	20.609635	14.739202	-0.059402	0.075647	2.796669	0.000000	-0.001638	0.000000	-0.000009	-0.000001	0.000000	0.000000
56.762001	20.654647	14.696352	-0.075633	0.052902	2.796123	0.000000	-0.001638	0.000000	-0.000010	-0.000001	0.000000	0.000000
57.095334	20.710480	14.668666	-0.091864	0.030158	2.795578	0.000000	-0.001638	0.000000	-0.000010	-0.000001	0.000000	0.000000
57.429918	20.777403	14.656124	-0.108155	0.007327	2.795030	0.000000	-0.001638	0.000000	-0.000010	-0.000001	0.000000	0.000000
57.727240	20.846021	14.657799	-0.177105	0.025341	2.794544	0.000000	0.005664	0.000000	-0.000011	-0.000001	0.000000	0.000000
58.276300	20.684919	14.911354	0.468782	-0.489866	2.775010	0.000000	-0.076715	0.000000	-0.000012	-0.000001	0.000000	0.000000
58.825360	19.828620	15.746393	1.081557	-1.039965	2.710552	0.000000	-0.157734	0.000000	-0.000012	-0.000001	0.000000	0.000000
59.374420	18.337611	17.222395	1.617936	-1.664138	2.602314	0.000000	-0.235955	0.000000	-0.000012	-0.000000	0.000000	0.000000
59.923480	16.317208	19.444492	2.040031	-2.406844	2.452214	0.000000	-0.309991	0.000000	-0.000012	0.000000	0.000000	0.000000
60.369440	14.735913	21.419446	1.518349	-2.003008	2.329264	0.000000	-0.241692	0.000000	-0.000012	-0.000000	0.000000	0.000000
60.810400	13.598766	22.974200	1.070232	-1.509415	2.237140	0.000000	-0.176542	0.000000	-0.000013	-0.000001	0.000000	0.000000
61.251360	12.833850	24.061582	0.671011	-0.947145	2.173274	0.000000	-0.113403	0.000000	-0.000013	-0.000001	0.000000	0.000000
61.692320	12.406216	24.632118	0.302446	-0.341780	2.136939	0.000000	-0.051555	0.000000	-0.000013	-0.000001	0.000000	0.000000
62.134530	12.296384	24.659301	-0.022244	0.218601	2.127727	0.000000	0.004487	0.000000	-0.000014	-0.000002	0.000000	0.000000
62.431853	12.316804	24.533067	-0.046435	0.205968	2.129061	0.000000	0.004487	0.000000	-0.000014	-0.000002	0.000000	0.000000
62.765186	12.356802	24.400476	-0.073557	0.191804	2.130557	0.000000	0.004487	0.000000	-0.000015	-0.000002	0.000000	0.000000
63.098520	12.414880	24.277328	-0.100679	0.177641	2.132053	0.000000	0.004487	0.000000	-0.000015	-0.000002	0.000000	0.000000
63.433103	12.491360	24.163213	-0.127902	0.163424	2.133555	0.000000	0.004487	0.000000	-0.000016	-0.000002	0.000000	0.000000
63.730426	12.574609	24.069790	-0.121252	0.091755	2.134889	0.000000	-0.000750	0.000000	-0.000016	-0.000001	0.000000	0.000000
64.171386	12.841730	23.723811	-0.486820	0.689864	2.148106	0.000000	0.060747	0.000000	-0.000017	-0.000002	0.000000	0.000000
64.612346	13.439805	22.862226	-0.874629	1.256585	2.188566	0.000000	0.122935	0.000000	-0.000018	-0.000002	0.000000	0.000000
65.053306	14.396157	21.524238	-1.302397	1.766132	2.256732	0.000000	0.186524	0.000000	-0.000019	-0.000003	0.000000	0.000000
65.494266	15.754480	19.770723	-1.789667	2.195322	2.353380	0.000000	0.252237	0.000000	-0.000021	-0.000003	0.000000	0.000000
65.940226	17.599996	17.656662	-2.363394	2.525375	2.481183	0.000000	0.321225	0.000000	-0.000022	-0.000004	0.000000	0.000000
66.489286	19.965978	15.291796	-1.920252	1.807169	2.637178	0.000000	0.246155	0.000000	-0.000024	-0.000003	0.000000	0.000000
67.038346	21.767524	13.640717	-1.341473	1.217682	2.750693	0.000000	0.166719	0.000000	-0.000026	-0.000002	0.000000	0.000000
67.587406	22.877381	12.585825	-0.667940	0.714929	2.819715	0.000000	0.084326	0.000000	-0.000027	-0.000002	0.000000	0.000000
68.136466	23.217155	12.051981	0.052774	0.263098	2.843019	0.000000	0.000436	0.000000	-0.000027	-0.000001	0.000000	0.000000
68.435038	23.225714	11.884103	-0.020763	0.267671	2.845368	0.000000	0.007866	0.000000	-0.000028	-0.000001	0.000000	0.000000
68.768372	23.244342	11.715675	-0.035121	0.237613	2.847991	0.000000	0.007866	0.000000	-0.000028	-0.000001	0.000000	0.000000
69.101705	23.272542	11.567286	-0.049479	0.207555	2.850613	0.000000	0.007866	0.000000	-0.000028	-0.000001	0.000000	0.000000
69.436288	23.310474	11.438492	-0.063891	0.177384	2.853245	0.000000	0.007866	0.000000	-0.000028	-0.000001	0.000000	0.000000
69.733611	23.352275	11.340983	-0.137728	0.180212	2.855584	0.000000	0.015329	0.000000	-0.000029	-0.000001	0.000000	0.000000
70.282671	23.102435	11.370302	0.590065	-0.233926	2.840800	0.000000	-0.069105	0.000000	-0.000029	0.000000	0.000000	0.000000
