#ParticleID	Turn	x[m]	xp	y[m]	yp	z[m]	dE[GeV]# s	beta_x	beta_y	alpha_x	alpha_y	D_x	D_y	D_px	D_py	orbit_x	orbit_px	orbit_y	orbit_py
0.300000	11.824154	24.976358	-0.012318	-0.027624	2.618145	0.000000	-0.000002	0.000000	0.000001	0.000000	0.000000	0.000000
0.601250	11.839252	24.996637	-0.037799	-0.039695	2.618145	0.000000	-0.000002	0.000000	0.000001	0.000000	0.000000	0.000000
0.898573	11.869207	25.023784	-0.033842	-0.112973	2.618144	0.000000	-0.006422	0.000000	0.000001	0.000000	0.000000	0.000000
1.339533	12.051311	24.845859	-0.380696	0.514932	2.631606	0.000000	0.067536	0.000000	0.000001	0.000000	0.000000	0.000000
1.780493	12.545796	24.122427	-0.744942	1.119408	2.677818	0.000000	0.142263	0.000000	0.000002	0.000001	0.000000	0.000000
2.221453	13.375255	22.886404	-1.143223	1.672952	2.757307	0.000000	0.218611	0.000000	0.000002	0.000001	0.000000	0.000000
2.662413	14.577582	21.194029	-1.593734	2.150378	2.870980	0.000000	0.297448	0.000000	0.000002	0.000001	0.000000	0.000000
3.108373	16.228491	19.097481	-2.121354	2.531094	3.021990	0.000000	0.380163	0.000000	0.000003	0.000001	0.000000	0.000000
3.657433	18.345476	16.742816	-1.711475	1.782759	3.205451	0.000000	0.287125	0.000000	0.000003	0.000001	0.000000	0.000000
4.206493	19.942914	15.135779	-1.180706	1.161405	3.336352	0.000000	0.188994	0.000000	0.000003	0.000001	0.000000	0.000000
4.755553	20.907968	14.161905	-0.566538	0.622776	3.412373	0.000000	0.087511	0.000000	0.000003	0.000000	0.000000	0.000000
5.304613	21.172473	13.751827	0.087648	0.128506	3.432164	0.000000	-0.015524	0.000000	0.000004	0.000000	0.000000	0.000000
5.603185	21.157383	13.660293	0.018213	0.142137	3.430206	0.000000	-0.006557	0.000000	0.000004	0.000000	0.000000	0.000000
5.936519	21.150494	13.573833	0.002453	0.117242	3.428021	0.000000	-0.006557	0.000000	0.000004	0.000000	0.000000	0.000000
6.269852	21.154112	13.503969	-0.013307	0.092348	3.425835	0.000000	-0.006557	0.000000	0.000004	0.000000	0.000000	0.000000
6.604435	21.168309	13.450534	-0.029126	0.067360	3.423641	0.000000	-0.006557	0.000000	0.000004	0.000000	0.000000	0.000000
6.901758	21.189809	13.417081	-0.098547	0.080210	3.421692	0.000000	0.002383	0.000000	0.000004	0.000000	0.000000	0.000000
7.450818	20.936842	13.589622	0.556547	-0.396314	3.394799	0.000000	-0.100197	0.000000	0.000004	0.000000	0.000000	0.000000
7.999878	19.981933	14.297782	1.172329	-0.901066	3.311989	0.000000	-0.201001	0.000000	0.000004	0.000000	0.000000	0.000000
8.548938	18.392530	15.592000	1.705304	-1.469999	3.174731	0.000000	-0.298239	0.000000	0.000004	-0.000000	0.000000	0.000000
9.097998	16.280903	17.564460	2.117825	-2.143637	2.985458	0.000000	-0.390188	0.000000	0.000004	-0.000000	0.000000	0.000000
9.543958	14.633373	19.322063	1.589655	-1.780871	2.829757	0.000000	-0.308482	0.000000	0.000004	-0.000000	0.000000	0.000000
9.984918	13.434954	20.702750	1.138405	-1.338308	2.710975	0.000000	-0.230773	0.000000	0.000004	-0.000000	0.000000	0.000000
10.425878	12.610149	21.664687	0.739166	-0.834852	2.625848	0.000000	-0.155693	0.000000	0.000004	0.000000	0.000000	0.000000
10.866838	12.121275	22.164106	0.373698	-0.293411	2.573407	0.000000	-0.082385	0.000000	0.000004	0.000000	0.000000	0.000000
11.309048	11.945860	22.177767	0.054491	0.206935	2.553033	0.000000	-0.016277	0.000000	0.000004	0.000000	0.000000	0.000000
11.606371	11.920879	22.058871	0.029528	0.192955	2.548193	0.000000	-0.016277	0.000000	0.000004	0.000000	0.000000	0.000000
12.086371	11.911876	21.884468	-0.010772	0.170385	2.540380	0.000000	-0.016277	0.000000	0.000004	0.000000	0.000000	0.000000
12.566371	11.941562	21.731732	-0.051073	0.147815	2.532567	0.000000	-0.016277	0.000000	0.000005	0.000000	0.000000	0.000000
13.046371	12.009936	21.600664	-0.091373	0.125244	2.524754	0.000000	-0.016277	0.000000	0.000005	0.000000	0.000000	0.000000
13.526371	12.116999	21.491263	-0.131674	0.102674	2.516940	0.000000	-0.016277	0.000000	0.000005	0.000000	0.000000	0.000000
14.007621	12.263181	21.403329	-0.172080	0.080045	2.509107	0.000000	-0.016277	0.000000	0.000005	0.000000	0.000000	0.000000
14.304943	12.372929	21.359887	-0.166702	0.013687	2.504267	0.000000	-0.022418	0.000000	0.000005	0.000000	0.000000	0.000000
14.745903	12.678599	21.114014	-0.529119	0.541778	2.510013	0.000000	0.048505	0.000000	0.000005	0.000000	0.000000	0.000000
15.186863	13.313302	20.411539	-0.915709	1.045218	2.547125	0.000000	0.119980	0.000000	0.000005	0.000001	0.000000	0.000000
15.627823	14.306037	19.284425	-1.344136	1.501101	2.616026	0.000000	0.192822	0.000000	0.000006	0.000001	0.000000	0.000000
16.068783	15.702160	17.783955	-1.833972	1.888686	2.717500	0.000000	0.267860	0.000000	0.000006	0.000001	0.000000	0.000000
16.514743	17.589109	15.956895	-2.412355	2.191085	2.854398	0.000000	0.346411	0.000000	0.000006	0.000001	0.000000	0.000000
17.063803	20.012469	13.916730	-1.975170	1.546590	3.020867	0.000000	0.259078	0.000000	0.000007	0.000001	0.000000	0.000000
17.612863	21.875830	12.520014	-1.398469	1.012256	3.138052	0.000000	0.167150	0.000000	0.000007	0.000001	0.000000	0.000000
18.161923	23.047573	11.667262	-0.722987	0.550023	3.203874	0.000000	0.072258	0.000000	0.000008	0.000000	0.000000	0.000000
18.710983	23.444932	11.297735	0.003564	0.126967	3.217164	0.000000	-0.023916	0.000000	0.000008	0.000000	0.000000	0.000000
19.009556	23.483196	11.212375	-0.070467	0.129409	3.212533	0.000000	-0.015511	0.000000	0.000008	0.000000	0.000000	0.000000
19.342889	23.534929	11.136178	-0.084732	0.099182	3.207363	0.000000	-0.015511	0.000000	0.000008	0.000000	0.000000	0.000000
19.676223	23.596172	11.080132	-0.098997	0.068955	3.202192	0.000000	-0.015511	0.000000	0.000008	0.000000	0.000000	0.000000
20.010806	23.667502	11.044004	-0.230578	0.093334	3.197022	0.000000	0.000329	0.000000	0.000008	0.000000	0.000000	0.000000
20.308129	23.808547	10.996578	-0.306011	0.094908	3.197120	0.000000	0.008682	0.000000	0.000008	0.000000	0.000000	0.000000
20.857189	23.733953	11.114764	0.441066	-0.311431	3.175667	0.000000	-0.086711	0.000000	0.000008	-0.000000	0.000000	0.000000
21.406249	22.851300	11.688649	1.156988	-0.739952	3.102184	0.000000	-0.180565	0.000000	0.000008	-0.000000	0.000000	0.000000
21.955309	21.222936	12.759110	1.791187	-1.221179	2.977973	0.000000	-0.271217	0.000000	0.000007	-0.000001	0.000000	0.000000
22.504369	18.963879	14.402391	2.298865	-1.789387	2.805239	0.000000	-0.357058	0.000000	0.000007	-0.000001	0.000000	0.000000
22.950329	17.183630	15.877652	1.707175	-1.504713	2.663299	0.000000	-0.279848	0.000000	0.000007	-0.000001	0.000000	0.000000
23.391289	15.907328	17.053822	1.198177	-1.152432	2.556220	0.000000	-0.206280	0.000000	0.000006	-0.000000	0.000000	0.000000
23.832249	15.054177	17.894912	0.743922	-0.747716	2.481033	0.000000	-0.135061	0.000000	0.000006	-0.000000	0.000000	0.000000
24.273209	14.585198	18.362653	0.323654	-0.308979	2.436882	0.000000	-0.065380	0.000000	0.000006	-0.000000	0.000000	0.000000
24.715418	14.479081	18.435515	-0.046409	0.098539	2.423261	0.000000	-0.002386	0.000000	0.000006	-0.000000	0.000000	0.000000
25.012741	14.512797	18.381761	-0.066988	0.082255	2.422552	0.000000	-0.002386	0.000000	0.000006	-0.000000	0.000000	0.000000
25.346075	14.565146	18.333010	-0.090060	0.063998	2.421756	0.000000	-0.002386	0.000000	0.000006	-0.000000	0.000000	0.000000
25.679408	14.632876	18.296429	-0.113131	0.045742	2.420961	0.000000	-0.002386	0.000000	0.000006	-0.000000	0.000000	0.000000
26.013991	14.716029	18.272322	-0.016903	-0.120817	2.420138	0.000000	-0.022020	0.000000	0.000006	-0.000000	0.000000	0.000000
26.311314	14.732089	18.349074	-0.000987	-0.182321	2.413591	0.000000	-0.027938	0.000000	0.000006	-0.000000	0.000000	0.000000
26.752274	14.914482	18.310836	-0.414209	0.268708	2.416382	0.000000	0.040609	0.000000	0.000006	0.000000	0.000000	0.000000
27.193234	15.468240	17.878718	-0.846355	0.707511	2.449473	0.000000	0.109618	0.000000	0.000006	0.000000	0.000000	0.000000
27.634194	16.418661	17.072382	-1.317168	1.114123	2.513240	0.000000	0.179877	0.000000	0.000006	0.000000	0.000000	0.000000
28.075154	17.809168	15.928515	-1.848159	1.470043	2.608409	0.000000	0.252183	0.000000	0.000006	0.000001	0.000000	0.000000
28.521114	19.727452	14.481935	-2.468547	1.759991	2.737669	0.000000	0.327806	0.000000	0.000007	0.000001	0.000000	0.000000
29.070174	22.165600	12.870062	-1.945753	1.193033	2.894989	0.000000	0.244404	0.000000	0.000007	0.000000	0.000000	0.000000
29.619234	23.950328	11.830739	-1.285520	0.711053	3.005257	0.000000	0.156667	0.000000	0.000007	0.000000	0.000000	0.000000
30.168294	24.955571	11.289937	-0.534485	0.279720	3.066517	0.000000	0.066151	0.000000	0.000007	0.000000	0.000000	0.000000
30.717354	25.110323	11.209137	0.254304	-0.131690	3.077683	0.000000	-0.025539	0.000000	0.000007	-0.000000	0.000000	0.000000
31.015927	25.001319	11.278323	0.176385	-0.129320	3.072459	0.000000	-0.017498	0.000000	0.000007	-0.000000	0.000000	0.000000
31.349260	24.888311	11.374553	0.162638	-0.159370	3.066626	0.000000	-0.017498	0.000000	0.000007	-0.000000	0.000000	0.000000
31.682593	24.784469	11.490816	0.148890	-0.189419	3.060794	0.000000	-0.017498	0.000000	0.000007	-0.000000	0.000000	0.000000
32.017177	24.689453	11.627661	0.135091	-0.219581	3.054939	0.000000	-0.017498	0.000000	0.000007	-0.000000	0.000000	0.000000
32.314499	24.612768	11.766203	0.058524	-0.215643	3.049737	0.000000	-0.009530	0.000000	0.000007	-0.000000	0.000000	0.000000
32.863559	24.126847	12.242299	0.821242	-0.656586	3.019622	0.000000	-0.100007	0.000000	0.000007	-0.000000	0.000000	0.000000
33.412619	22.830422	13.225288	1.525951	-1.144295	2.940244	0.000000	-0.188710	0.000000	0.000007	-0.000001	0.000000	0.000000
33.961679	20.815067	14.785188	2.122875	-1.713510	2.813011	0.000000	-0.274065	0.000000	0.000006	-0.000001	0.000000	0.000000
34.510739	18.223136	17.033105	2.569849	-2.404775	2.640181	0.000000	-0.354560	0.000000	0.000006	-0.000001	0.000000	0.000000
34.956699	16.207884	19.043741	1.965249	-2.084956	2.498404	0.000000	-0.281629	0.000000	0.000005	-0.000001	0.000000	0.000000
35.397659	14.705196	20.706303	1.455443	-1.671020	2.389598	0.000000	-0.212334	0.000000	0.000005	-0.000001	0.000000	0.000000
35.838619	13.621207	21.968758	1.012131	-1.181054	2.310788	0.000000	-0.145457	0.000000	0.000005	-0.000001	0.000000	0.000000
36.279579	12.906391	22.773665	0.615061	-0.637351	2.261074	0.000000	-0.080237	0.000000	0.000004	-0.000001	0.000000	0.000000
36.721789	12.527400	23.084705	0.276706	-0.121312	2.239865	0.000000	-0.021424	0.000000	0.000004	-0.000000	0.000000	0.000000
37.019112	12.370455	23.160728	0.251155	-0.134381	2.233495	0.000000	-0.021424	0.000000	0.000004	-0.000000	0.000000	0.000000
37.352445	12.212567	23.255199	0.222509	-0.149033	2.226354	0.000000	-0.021424	0.000000	0.000004	-0.000000	0.000000	0.000000
37.685779	12.073776	23.359439	0.193864	-0.163685	2.219213	0.000000	-0.021424	0.000000	0.000004	-0.000000	0.000000	0.000000
38.020362	11.953669	23.473892	0.165111	-0.178392	2.212045	0.000000	-0.021424	0.000000	0.000004	-0.000000	0.000000	0.000000
38.317684	11.863084	23.583858	0.168650	-0.249294	2.205676	0.000000	-0.026832	0.000000	0.000003	-0.000000	0.000000	0.000000
38.758644	11.865636	23.542507	-0.174460	0.342712	2.207771	0.000000	0.036346	0.000000	0.000003	-0.000000	0.000000	0.000000
39.199604	12.173142	22.983962	-0.525541	0.919125	2.237791	0.000000	0.099938	0.000000	0.000003	-0.000000	0.000000	0.000000
39.640564	12.799650	21.933636	-0.900632	1.453719	2.296076	0.000000	0.164668	0.000000	0.000003	-0.000000	0.000000	0.000000
40.081524	13.773785	20.439318	-1.316871	1.922169	2.383290	0.000000	0.231274	0.000000	0.000003	-0.000000	0.000000	0.000000
40.527484	15.157620	18.546431	-1.797099	2.304443	2.501899	0.000000	0.300919	0.000000	0.000003	-0.000000	0.000000	0.000000
41.076544	16.923704	16.419363	-1.400420	1.592441	2.646592	0.000000	0.225361	0.000000	0.000003	-0.000000	0.000000	0.000000
41.625604	18.196957	15.007659	-0.904821	0.993865	2.748639	0.000000	0.145806	0.000000	0.000003	-0.000000	0.000000	0.000000
42.174664	18.887442	14.210766	-0.345311	0.466080	2.806229	0.000000	0.063664	0.000000	0.000003	-0.000000	0.000000	0.000000
42.723724	18.946388	13.971923	0.238590	-0.028508	2.818342	0.000000	-0.019607	0.000000	0.000003	-0.000000	0.000000	0.000000
43.022297	18.838348	13.973528	0.172765	-0.013373	2.814687	0.000000	-0.012244	0.000000	0.000002	-0.000000	0.000000	0.000000
43.502297	18.685089	14.002857	0.146525	-0.047730	2.808810	0.000000	-0.012244	0.000000	0.000002	-0.000000	0.000000	0.000000
43.982297	18.557020	14.065170	0.120284	-0.082087	2.802933	0.000000	-0.012244	0.000000	0.000002	-0.000000	0.000000	0.000000
44.462297	18.454143	14.160464	0.094044	-0.116444	2.797056	0.000000	-0.012244	0.000000	0.000002	-0.000000	0.000000	0.000000
44.942297	18.376456	14.288741	0.067804	-0.150801	2.791180	0.000000	-0.012244	0.000000	0.000002	-0.000000	0.000000	0.000000
45.423547	18.324083	14.450285	-0.049293	-0.113651	2.785305	0.000000	0.001556	0.000000	0.000002	-0.000000	0.000000	0.000000
45.720870	18.358231	14.524064	-0.113524	-0.096544	2.785768	0.000000	0.008835	0.000000	0.000001	-0.000000	0.000000	0.000000
46.269930	18.173773	14.911038	0.447488	-0.612410	2.768047	0.000000	-0.073290	0.000000	0.000001	-0.000000	0.000000	0.000000
46.818990	17.387046	15.884981	0.976891	-1.171897	2.705526	0.000000	-0.154114	0.000000	0.000001	-0.000000	0.000000	0.000000
47.368050	16.053621	17.515265	1.437292	-1.814856	2.599313	0.000000	-0.232206	0.000000	0.000001	-0.000000	0.000000	0.000000
47.917110	14.267684	19.918010	1.796170	-2.587082	2.451293	0.000000	-0.306178	0.000000	0.000000	-0.000000	0.000000	0.000000
48.363070	12.877798	22.054325	1.331489	-2.183153	2.330042	0.000000	-0.237880	0.000000	0.000000	-0.000000	0.000000	0.000000
48.804030	11.883722	23.764842	0.931408	-1.681162	2.239606	0.000000	-0.172688	0.000000	0.000000	-0.000000	0.000000	0.000000
49.244990	11.222458	24.997095	0.573880	-1.102681	2.177457	0.000000	-0.109464	0.000000	-0.000000	-0.000000	0.000000	0.000000
49.685950	10.863796	25.695016	0.242572	-0.474028	2.142886	0.000000	-0.047486	0.000000	-0.000000	-0.000000	0.000000	0.000000
50.128160	10.791477	25.826568	-0.051307	0.112809	2.135510	0.000000	0.008715	0.000000	-0.000001	-0.000000	0.000000	0.000000
50.425482	10.830200	25.762953	-0.078931	0.101150	2.138101	0.000000	0.008715	0.000000	-0.000001	-0.000000	0.000000	0.000000
50.758816	10.893144	25.699877	-0.109901	0.088079	2.141006	0.000000	0.008715	0.000000	-0.000001	-0.000000	0.000000	0.000000
51.092149	10.976735	25.645514	-0.140871	0.075009	2.143912	0.000000	0.008715	0.000000	-0.000001	-0.000000	0.000000	0.000000
51.426732	11.081177	25.600230	-0.082059	-0.145793	2.146806	0.000000	-0.008701	0.000000	-0.000001	-0.000000	0.000000	0.000000
51.724055	11.138004	25.690451	-0.081757	-0.220655	2.144219	0.000000	-0.013960	0.000000	-0.000001	-0.000000	0.000000	0.000000
52.165015	11.355512	25.599256	-0.413375	0.426679	2.151652	0.000000	0.047703	0.000000	-0.000002	-0.000001	0.000000	0.000000
52.605975	11.872672	24.943577	-0.763879	1.054599	2.186369	0.000000	0.109909	0.000000	-0.000002	-0.000001	0.000000	0.000000
53.046935	12.713111	23.753247	-1.149282	1.634536	2.248766	0.000000	0.173366	0.000000	-0.000002	-0.000001	0.000000	0.000000
53.487895	13.915226	22.082424	-1.587192	2.140103	2.339554	0.000000	0.238799	0.000000	-0.000002	-0.000001	0.000000	0.000000
53.933855	15.554542	19.982147	-2.101852	2.549632	2.461272	0.000000	0.307350	0.000000	-0.000003	-0.000001	0.000000	0.000000
54.482915	17.665078	17.618860	-1.719303	1.780017	2.609845	0.000000	0.233045	0.000000	-0.000003	-0.000001	0.000000	0.000000
55.031975	19.285952	16.026539	-1.215311	1.137188	2.716424	0.000000	0.154606	0.000000	-0.000003	-0.000001	0.000000	0.000000
55.581035	20.302673	15.091766	-0.625476	0.575358	2.779118	0.000000	0.073426	0.000000	-0.000004	-0.000000	0.000000	0.000000
56.130095	20.643426	14.747960	0.008539	0.054510	2.796816	0.000000	-0.009057	0.000000	-0.000004	-0.000000	0.000000	0.000000
56.428668	20.674864	14.698495	-0.059893	0.072625	2.796294	0.000000	-0.001749	0.000000	-0.000004	-0.000000	0.000000	0.000000
56.762001	20.720186	14.657678	-0.076074	0.049827	2.795711	0.000000	-0.001749	0.000000	-0.000004	-0.000000	0.000000	0.000000
57.095334	20.776295	14.632059	-0.092254	0.027030	2.795128	0.000000	-0.001749	0.000000	-0.000004	-0.000000	0.000000	0.000000
57.429918	20.843463	14.621628	-0.108495	0.004146	2.794542	0.000000	-0.001749	0.000000	-0.000004	-0.000000	0.000000	0.000000
57.727240	20.912270	14.625208	-0.177570	0.022026	2.794022	0.000000	0.005551	0.000000	-0.000004	-0.000000	0.000000	0.000000
58.276300	20.750458	14.881910	0.470533	-0.492314	2.774431	0.000000	-0.076811	0.000000	-0.000004	-0.000000	0.000000	0.000000
58.825360	19.891071	15.719244	1.085399	-1.041721	2.709925	0.000000	-0.157810	0.000000	-0.000004	-0.000000	0.000000	0.000000
59.374420	18.394812	17.196854	1.623598	-1.665327	2.601650	0.000000	-0.236010	0.000000	-0.000004	0.000000	0.000000	0.000000
59.923480	16.367369	19.419986	2.047114	-2.407551	2.451526	0.000000	-0.310025	0.000000	-0.000004	0.000000	0.000000	0.000000
60.369440	14.780449	21.395972	1.523924	-2.004604	2.328558	0.000000	-0.241743	0.000000	-0.000004	0.000000	0.000000	0.000000
60.810400	13.638948	22.952498	1.074567	-1.511822	2.236406	0.000000	-0.176612	0.000000	-0.000004	0.000000	0.000000	0.000000
61.251360	12.870681	24.042321	0.674304	-0.950252	2.172505	0.000000	-0.113492	0.000000	-0.000004	-0.000000	0.000000	0.000000
61.692320	12.440546	24.615855	0.304848	-0.345447	2.136126	0.000000	-0.051665	0.000000	-0.000004	-0.000000	0.000000	0.000000
62.134530	12.328944	24.646467	-0.020547	0.214579	2.126860	0.000000	0.004358	0.000000	-0.000004	-0.000000	0.000000	0.000000
62.431853	12.348335	24.522621	-0.044673	0.201960	2.128156	0.000000	0.004358	0.000000	-0.000005	-0.000000	0.000000	0.000000
62.765186	12.387133	24.392697	-0.071721	0.187813	2.129609	0.000000	0.004358	0.000000	-0.000005	-0.000000	0.000000	0.000000
63.098520	12.443963	24.272204	-0.098769	0.173665	2.131062	0.000000	0.004358	0.000000	-0.000005	-0.000000	0.000000	0.000000
63.433103	12.519140	24.160744	-0.125919	0.159465	2.132520	0.000000	0.004358	0.000000	-0.000005	-0.000000	0.000000	0.000000
63.730426	12.601190	24.069671	-0.119141	0.087817	2.133816	0.000000	-0.000875	0.000000	-0.000005	-0.000000	0.000000	0.000000
64.171386	12.866699	23.727134	-0.485258	0.686026	2.146970	0.000000	0.060593	0.000000	-0.000005	-0.000000	0.000000	0.000000
64.612346	13.463612	22.868826	-0.873545	1.253021	2.187356	0.000000	0.122751	0.000000	-0.000005	-0.000001	0.000000	0.000000
65.053306	14.419202	21.533800	-1.301742	1.763004	2.255432	0.000000	0.186308	0.000000	-0.000006	-0.000001	0.000000	0.000000
65.494266	15.777126	19.782797	-1.789412	2.192772	2.351976	0.000000	0.251986	0.000000	-0.000006	-0.000001	0.000000	0.000000
65.940226	17.622589	17.670705	-2.363528	2.523527	2.479658	0.000000	0.320936	0.000000	-0.000006	-0.000001	0.000000	0.000000
66.489286	19.988186	15.307880	-1.919418	1.805274	2.635506	0.000000	0.245918	0.000000	-0.000007	-0.000001	0.000000	0.000000
67.038346	21.788308	13.658969	-1.339729	1.215607	2.748905	0.000000	0.166538	0.000000	-0.000007	-0.000001	0.000000	0.000000
67.587406	22.895806	12.606521	-0.665409	0.712524	2.817843	0.000000	0.084203	0.000000	-0.000007	-0.000000	0.000000	0.000000
68.136466	23.232449	12.075575	0.055912	0.260194	2.841096	0.000000	0.000376	0.000000	-0.000007	-0.000000	0.000000	0.000000
68.435038	23.239149	11.909370	-0.017646	0.264917	2.843425	0.000000	0.007799	0.000000	-0.000007	-0.000000	0.000000	0.000000
68.768372	23.255696	11.742743	-0.031994	0.234963	2.846025	0.000000	0.007799	0.000000	-0.000008	-0.000000	0.000000	0.000000
69.101705	23.281808	11.596086	-0.046342	0.205010	2.848625	0.000000	0.007799	0.000000	-0.000008	-0.000000	0.000000	0.000000
69.436288	23.317637	11.468959	-0.060744	0.174944	2.851234	0.000000	0.007799	0.000000	-0.000008	-0.000000	0.000000	0.000000
69.733611	23.357564	11.372873	-0.134575	0.177944	2.853553	0.000000	0.015256	0.000000	-0.000008	-0.000000	0.000000	0.000000
70.282671	23.104195	11.405182	0.593302	-0.237134	2.838746	0.000000	-0.069112	0.000000	-0.000008	0.000000	0.000000	0.000000
