#ParticleID	Turn	x[m]	xp	y[m]	yp	z[m]	dE[GeV]# s	beta_x	beta_y	alpha_x	alpha_y	D_x	D_y	D_px	D_py	orbit_x	orbit_px	orbit_y	orbit_py
0.300000	11.799789	25.070725	-0.009873	-0.026568	2.618521	0.000000	-0.000144	0.000000	-0.000002	0.000002	0.000000	0.000000
0.601250	11.813429	25.090354	-0.035406	-0.038592	2.618477	0.000000	-0.000144	0.000000	-0.000001	0.000002	0.000000	0.000000
0.898573	11.841975	25.116831	-0.031565	-0.112053	2.618433	0.000000	-0.006566	0.000000	-0.000001	0.000002	0.000000	0.000000
1.339533	12.021781	24.937013	-0.377739	0.518291	2.631832	0.000000	0.067399	0.000000	0.000000	0.000002	0.000000	0.000000
1.780493	12.513311	24.209596	-0.741171	1.125053	2.677985	0.000000	0.142131	0.000000	0.000001	0.000002	0.000000	0.000000
2.221453	13.339023	22.967677	-1.138465	1.680627	2.757416	0.000000	0.218482	0.000000	0.000002	0.000002	0.000000	0.000000
2.662413	14.536642	21.267763	-1.587772	2.159733	2.871032	0.000000	0.297322	0.000000	0.000003	0.000002	0.000000	0.000000
3.108373	16.181591	19.162273	-2.113904	2.541707	3.021986	0.000000	0.380037	0.000000	0.000004	0.000002	0.000000	0.000000
3.657433	18.291030	16.797423	-1.705262	1.790804	3.205376	0.000000	0.287000	0.000000	0.000005	0.000002	0.000000	0.000000
4.206493	19.882530	15.182693	-1.176169	1.167455	3.336210	0.000000	0.188873	0.000000	0.000006	0.000002	0.000000	0.000000
4.755553	20.843676	14.203068	-0.563998	0.627262	3.412165	0.000000	0.087396	0.000000	0.000007	0.000002	0.000000	0.000000
5.304613	21.106578	13.788772	0.088012	0.131747	3.431894	0.000000	-0.015632	0.000000	0.000008	0.000001	0.000000	0.000000
5.603185	21.091179	13.695235	0.018707	0.145509	3.429904	0.000000	-0.006665	0.000000	0.000008	0.000001	0.000000	0.000000
5.936519	21.083978	13.606514	0.002897	0.120654	3.427682	0.000000	-0.006665	0.000000	0.000009	0.000001	0.000000	0.000000
6.269852	21.087317	13.534363	-0.012913	0.095800	3.425459	0.000000	-0.006665	0.000000	0.000009	0.000001	0.000000	0.000000
6.604435	21.101267	13.478604	-0.028782	0.070852	3.423229	0.000000	-0.006665	0.000000	0.000009	0.000001	0.000000	0.000000
6.901758	21.122575	13.443064	-0.098069	0.083804	3.421247	0.000000	0.002273	0.000000	0.000010	0.000001	0.000000	0.000000
7.450818	20.870321	13.612044	0.554779	-0.393384	3.394297	0.000000	-0.100292	0.000000	0.000011	0.000001	0.000000	0.000000
7.999878	19.918537	14.317253	1.168440	-0.898591	3.311439	0.000000	-0.201079	0.000000	0.000011	0.000001	0.000000	0.000000
8.548938	18.334451	15.608921	1.699568	-1.467802	3.174143	0.000000	-0.298299	0.000000	0.000011	0.000000	0.000000	0.000000
9.097998	16.229956	17.579050	2.110648	-2.141563	2.984843	0.000000	-0.390228	0.000000	0.000011	0.000000	0.000000	0.000000
9.543958	14.588124	19.334495	1.584008	-1.778126	2.829120	0.000000	-0.308538	0.000000	0.000012	0.000000	0.000000	0.000000
9.984918	13.394112	20.712513	1.134020	-1.335023	2.710309	0.000000	-0.230846	0.000000	0.000012	0.000001	0.000000	0.000000
10.425878	12.572694	21.671371	0.735842	-0.831178	2.625146	0.000000	-0.155783	0.000000	0.000012	0.000001	0.000000	0.000000
10.866838	12.086342	22.167439	0.371282	-0.289515	2.572660	0.000000	-0.082495	0.000000	0.000013	0.000001	0.000000	0.000000
11.309048	11.912704	22.177622	0.052790	0.210881	2.552233	0.000000	-0.016404	0.000000	0.000013	0.000002	0.000000	0.000000
11.606371	11.888754	22.056386	0.027762	0.196878	2.547355	0.000000	-0.016404	0.000000	0.000014	0.000002	0.000000	0.000000
12.086371	11.881497	21.878233	-0.012644	0.174272	2.539481	0.000000	-0.016404	0.000000	0.000014	0.000002	0.000000	0.000000
12.566371	11.913030	21.721783	-0.053049	0.151666	2.531606	0.000000	-0.016404	0.000000	0.000015	0.000002	0.000000	0.000000
13.046371	11.983351	21.587034	-0.093454	0.129060	2.523732	0.000000	-0.016404	0.000000	0.000016	0.000002	0.000000	0.000000
13.526371	12.092462	21.473987	-0.133860	0.106454	2.515857	0.000000	-0.016404	0.000000	0.000017	0.000002	0.000000	0.000000
14.007621	12.240798	21.382432	-0.174370	0.083790	2.507962	0.000000	-0.016404	0.000000	0.000017	0.000002	0.000000	0.000000
14.304943	12.351928	21.336770	-0.169113	0.017472	2.503084	0.000000	-0.022541	0.000000	0.000018	0.000001	0.000000	0.000000
14.745903	12.659541	21.087857	-0.531131	0.544858	2.508769	0.000000	0.048350	0.000000	0.000018	0.000002	0.000000	0.000000
15.186863	13.295877	20.383029	-0.917414	1.047453	2.545805	0.000000	0.119793	0.000000	0.000019	0.000002	0.000000	0.000000
15.627823	14.290010	19.254355	-1.345612	1.502390	2.614614	0.000000	0.192599	0.000000	0.000021	0.000003	0.000000	0.000000
16.068783	15.687359	17.753188	-1.835286	1.888970	2.715981	0.000000	0.267599	0.000000	0.000022	0.000004	0.000000	0.000000
16.514743	17.575432	15.926334	-2.413569	2.190343	2.852753	0.000000	0.346109	0.000000	0.000024	0.000004	0.000000	0.000000
17.063803	20.000543	13.886597	-1.977123	1.546545	3.019070	0.000000	0.258833	0.000000	0.000026	0.000003	0.000000	0.000000
17.612863	21.866394	12.489552	-1.401022	1.012904	3.136135	0.000000	0.166965	0.000000	0.000027	0.000002	0.000000	0.000000
18.161923	23.041190	11.635689	-0.725960	0.551410	3.201872	0.000000	0.072136	0.000000	0.000028	0.000002	0.000000	0.000000
18.710983	23.441950	11.264190	0.000380	0.129192	3.215113	0.000000	-0.023973	0.000000	0.000029	0.000001	0.000000	0.000000
19.009556	23.482106	11.177586	-0.073638	0.131443	3.210463	0.000000	-0.015574	0.000000	0.000029	0.000001	0.000000	0.000000
19.342889	23.535955	11.100070	-0.087910	0.101106	3.205271	0.000000	-0.015574	0.000000	0.000029	0.000001	0.000000	0.000000
19.676223	23.599320	11.042778	-0.102183	0.070769	3.200079	0.000000	-0.015574	0.000000	0.000030	0.000001	0.000000	0.000000
20.010806	23.672783	11.005474	-0.233796	0.094847	3.194888	0.000000	0.000255	0.000000	0.000030	0.000001	0.000000	0.000000
20.308129	23.815747	10.957178	-0.309253	0.096210	3.194963	0.000000	0.008601	0.000000	0.000030	0.000001	0.000000	0.000000
20.857189	23.744564	11.073324	0.438131	-0.308994	3.173485	0.000000	-0.086722	0.000000	0.000030	-0.000000	0.000000	0.000000
21.406249	22.864869	11.643834	1.154568	-0.736206	3.100015	0.000000	-0.180506	0.000000	0.000030	-0.000001	0.000000	0.000000
21.955309	21.238798	12.709344	1.789452	-1.215856	2.975857	0.000000	-0.271088	0.000000	0.000029	-0.000002	0.000000	0.000000
22.504369	18.981210	14.345748	2.297938	-1.782109	2.803213	0.000000	-0.356862	0.000000	0.000028	-0.000003	0.000000	0.000000
22.950329	17.201889	15.815091	1.706009	-1.498775	2.661350	0.000000	-0.279703	0.000000	0.000027	-0.000002	0.000000	0.000000
23.391289	15.926738	16.986715	1.196720	-1.148099	2.554324	0.000000	-0.206185	0.000000	0.000026	-0.000002	0.000000	0.000000
23.832249	15.075024	17.824768	0.742107	-0.745186	2.479169	0.000000	-0.135014	0.000000	0.000025	-0.000001	0.000000	0.000000
24.273209	14.607833	18.291117	0.321398	-0.308366	2.435028	0.000000	-0.065381	0.000000	0.000025	-0.000000	0.000000	0.000000
24.715418	14.503944	18.364300	-0.049155	0.097390	2.421396	0.000000	-0.002430	0.000000	0.000025	0.000000	0.000000	0.000000
25.012741	14.539283	18.311248	-0.069704	0.081046	2.420673	0.000000	-0.002430	0.000000	0.000025	0.000000	0.000000	0.000000
25.346075	14.593432	18.263325	-0.092741	0.062723	2.419863	0.000000	-0.002430	0.000000	0.000025	0.000000	0.000000	0.000000
25.679408	14.662938	18.227617	-0.115779	0.044399	2.419053	0.000000	-0.002430	0.000000	0.000025	0.000000	0.000000	0.000000
26.013991	14.747852	18.204430	-0.019259	-0.121676	2.418216	0.000000	-0.022048	0.000000	0.000026	0.000000	0.000000	0.000000
26.311314	14.765300	18.281712	-0.003227	-0.183072	2.411660	0.000000	-0.027960	0.000000	0.000026	0.000000	0.000000	0.000000
26.752274	14.950033	18.244939	-0.417296	0.266146	2.414430	0.000000	0.040537	0.000000	0.000026	0.000001	0.000000	0.000000
27.193234	15.506937	17.815839	-0.850430	0.703255	2.447477	0.000000	0.109495	0.000000	0.000026	0.000001	0.000000	0.000000
27.634194	16.461456	17.013935	-1.322418	1.108366	2.511178	0.000000	0.179701	0.000000	0.000027	0.000002	0.000000	0.000000
28.075154	17.857198	15.875713	-1.854823	1.463047	2.606258	0.000000	0.251954	0.000000	0.000028	0.000003	0.000000	0.000000
28.521114	19.782176	14.435811	-2.476945	1.752072	2.735402	0.000000	0.327519	0.000000	0.000029	0.000004	0.000000	0.000000
29.070174	22.228804	12.831605	-1.952704	1.186905	2.892584	0.000000	0.244193	0.000000	0.000031	0.000003	0.000000	0.000000
29.619234	24.020142	11.798233	-1.290533	0.706279	3.002757	0.000000	0.156535	0.000000	0.000032	0.000002	0.000000	0.000000
30.168294	25.029657	11.262090	-0.537205	0.275960	3.063966	0.000000	0.066101	0.000000	0.000033	0.000000	0.000000	0.000000
30.717354	25.186042	11.184987	0.254068	-0.134704	3.075127	0.000000	-0.025506	0.000000	0.000033	-0.000001	0.000000	0.000000
31.015927	25.077276	11.256037	0.176005	-0.132479	3.069911	0.000000	-0.017473	0.000000	0.000033	-0.000001	0.000000	0.000000
31.349260	24.964508	11.354401	0.162301	-0.162612	3.064086	0.000000	-0.017473	0.000000	0.000032	-0.000001	0.000000	0.000000
31.682593	24.860875	11.472853	0.148597	-0.192746	3.058262	0.000000	-0.017473	0.000000	0.000032	-0.000001	0.000000	0.000000
32.017177	24.766042	11.611952	0.134841	-0.222992	3.052416	0.000000	-0.017473	0.000000	0.000032	-0.000001	0.000000	0.000000
32.314499	24.689493	11.752545	0.058126	-0.219171	3.047221	0.000000	-0.009514	0.000000	0.000032	-0.000000	0.000000	0.000000
32.863559	24.202610	12.232389	0.823381	-0.659924	3.017137	0.000000	-0.099910	0.000000	0.000031	-0.000001	0.000000	0.000000
33.412619	22.902504	13.219049	1.530477	-1.147681	2.937835	0.000000	-0.188533	0.000000	0.000030	-0.000002	0.000000	0.000000
33.961679	20.881007	14.782802	2.129467	-1.717186	2.810722	0.000000	-0.273813	0.000000	0.000029	-0.000003	0.000000	0.000000
34.510739	18.280908	17.035033	2.578042	-2.409001	2.638051	0.000000	-0.354236	0.000000	0.000027	-0.000004	0.000000	0.000000
34.956699	16.259159	19.049615	1.971676	-2.089542	2.496408	0.000000	-0.281359	0.000000	0.000025	-0.000004	0.000000	0.000000
35.397659	14.751464	20.716302	1.460412	-1.675753	2.387712	0.000000	-0.212114	0.000000	0.000023	-0.000003	0.000000	0.000000
35.838619	13.663649	21.982917	1.015870	-1.185718	2.308989	0.000000	-0.145284	0.000000	0.000022	-0.000002	0.000000	0.000000
36.279579	12.946015	22.791829	0.617740	-0.641734	2.259342	0.000000	-0.080110	0.000000	0.000021	-0.000002	0.000000	0.000000
36.721789	12.565077	23.106546	0.278535	-0.125259	2.238179	0.000000	-0.021335	0.000000	0.000021	-0.000001	0.000000	0.000000
37.019112	12.407029	23.184916	0.253037	-0.138328	2.231836	0.000000	-0.021335	0.000000	0.000020	-0.000001	0.000000	0.000000
37.352445	12.247867	23.282019	0.224450	-0.152980	2.224725	0.000000	-0.021335	0.000000	0.000020	-0.000001	0.000000	0.000000
37.685779	12.107763	23.388890	0.195863	-0.167632	2.217614	0.000000	-0.021335	0.000000	0.000019	-0.000001	0.000000	0.000000
38.020362	11.986298	23.505985	0.167169	-0.182340	2.210476	0.000000	-0.021335	0.000000	0.000019	-0.000001	0.000000	0.000000
38.317684	11.894473	23.618298	0.170835	-0.253318	2.204133	0.000000	-0.026739	0.000000	0.000018	-0.000001	0.000000	0.000000
38.758644	11.895410	23.580081	-0.172968	0.339656	2.206261	0.000000	0.036400	0.000000	0.000018	-0.000001	0.000000	0.000000
39.199604	12.201880	23.023752	-0.524674	0.917176	2.236296	0.000000	0.099953	0.000000	0.000018	-0.000000	0.000000	0.000000
39.640564	12.827883	21.974622	-0.900350	1.452965	2.294579	0.000000	0.164645	0.000000	0.000017	-0.000000	0.000000	0.000000
40.081524	13.802021	20.480426	-1.317160	1.922645	2.381775	0.000000	0.231212	0.000000	0.000018	0.000000	0.000000	0.000000
40.527484	15.186375	18.586566	-1.797976	2.306136	2.500347	0.000000	0.300817	0.000000	0.000018	0.000001	0.000000	0.000000
41.076544	16.952808	16.458236	-1.400172	1.593059	2.644997	0.000000	0.225310	0.000000	0.000018	0.000000	0.000000	0.000000
41.625604	18.225176	15.046419	-0.903467	0.993453	2.747030	0.000000	0.145806	0.000000	0.000018	-0.000000	0.000000	0.000000
42.174664	18.913607	14.250553	-0.342945	0.464609	2.804635	0.000000	0.063716	0.000000	0.000018	-0.000001	0.000000	0.000000
42.723724	18.969472	14.013951	0.241800	-0.031143	2.816792	0.000000	-0.019504	0.000000	0.000017	-0.000001	0.000000	0.000000
43.022297	18.859548	14.017048	0.175922	-0.015838	2.813166	0.000000	-0.012145	0.000000	0.000017	-0.000001	0.000000	0.000000
43.502297	18.703257	14.048694	0.149683	-0.050091	2.807337	0.000000	-0.012145	0.000000	0.000016	-0.000001	0.000000	0.000000
43.982297	18.572156	14.113222	0.123444	-0.084343	2.801508	0.000000	-0.012145	0.000000	0.000015	-0.000001	0.000000	0.000000
44.462297	18.466244	14.210633	0.097205	-0.118596	2.795679	0.000000	-0.012145	0.000000	0.000015	-0.000001	0.000000	0.000000
44.942297	18.385521	14.340926	0.070966	-0.152849	2.789850	0.000000	-0.012145	0.000000	0.000014	-0.000001	0.000000	0.000000
45.423547	18.330103	14.504391	-0.046158	-0.115327	2.784023	0.000000	0.001649	0.000000	0.000013	-0.000001	0.000000	0.000000
45.720870	18.362384	14.579145	-0.110386	-0.098010	2.784514	0.000000	0.008923	0.000000	0.000013	-0.000001	0.000000	0.000000
46.269930	18.174432	14.968655	0.450676	-0.615590	2.766853	0.000000	-0.073162	0.000000	0.000012	-0.000002	0.000000	0.000000
46.818990	17.384279	15.947129	0.979904	-1.177018	2.704413	0.000000	-0.153949	0.000000	0.000011	-0.000002	0.000000	0.000000
47.368050	16.047741	17.584261	1.439916	-1.822282	2.598302	0.000000	-0.232006	0.000000	0.000010	-0.000002	0.000000	0.000000
47.917110	14.259221	19.996660	1.798220	-2.597342	2.450401	0.000000	-0.305948	0.000000	0.000008	-0.000003	0.000000	0.000000
48.363070	12.867532	22.141374	1.333497	-2.191647	2.329249	0.000000	-0.237671	0.000000	0.000007	-0.000003	0.000000	0.000000
48.804030	11.871669	23.858462	0.933467	-1.687511	2.238901	0.000000	-0.172499	0.000000	0.000006	-0.000002	0.000000	0.000000
49.244990	11.208531	25.095257	0.576086	-1.106595	2.176832	0.000000	-0.109292	0.000000	0.000005	-0.000002	0.000000	0.000000
49.685950	10.847823	25.795487	0.245024	-0.475329	2.142334	0.000000	-0.047329	0.000000	0.000004	-0.000002	0.000000	0.000000
50.128160	10.773185	25.927006	-0.048543	0.113936	2.135026	0.000000	0.008860	0.000000	0.000003	-0.000002	0.000000	0.000000
50.425482	10.810276	25.862708	-0.076206	0.102320	2.137661	0.000000	0.008860	0.000000	0.000003	-0.000002	0.000000	0.000000
50.758816	10.871418	25.798837	-0.107220	0.089296	2.140615	0.000000	0.008860	0.000000	0.000002	-0.000002	0.000000	0.000000
51.092149	10.953236	25.743647	-0.138234	0.076273	2.143568	0.000000	0.008860	0.000000	0.000001	-0.000002	0.000000	0.000000
51.426732	11.055929	25.697503	-0.079671	-0.145270	2.146512	0.000000	-0.008554	0.000000	0.000001	-0.000002	0.000000	0.000000
51.724055	11.111351	25.787400	-0.079486	-0.220324	2.143969	0.000000	-0.013812	0.000000	0.000000	-0.000002	0.000000	0.000000
52.165015	11.326573	25.694781	-0.410441	0.429564	2.151466	0.000000	0.047845	0.000000	-0.000001	-0.000002	0.000000	0.000000
52.605975	11.840804	25.035476	-0.760147	1.059906	2.186246	0.000000	0.110047	0.000000	-0.000002	-0.000002	0.000000	0.000000
53.046935	12.677539	23.839481	-1.144583	1.642024	2.248705	0.000000	0.173503	0.000000	-0.000003	-0.000002	0.000000	0.000000
53.487895	13.875006	22.161215	-1.581311	2.149431	2.339553	0.000000	0.238934	0.000000	-0.000003	-0.000002	0.000000	0.000000
53.933855	15.508444	20.051948	-2.094507	2.560379	2.461332	0.000000	0.307486	0.000000	-0.000004	-0.000002	0.000000	0.000000
54.482915	17.611539	17.678397	-1.713175	1.788074	2.609980	0.000000	0.233178	0.000000	-0.000006	-0.000002	0.000000	0.000000
55.031975	19.226554	16.078435	-1.210833	1.143129	2.716631	0.000000	0.154734	0.000000	-0.000007	-0.000002	0.000000	0.000000
55.581035	20.239413	15.138101	-0.622964	0.579607	2.779394	0.000000	0.073545	0.000000	-0.000008	-0.000002	0.000000	0.000000
56.130095	20.578574	14.790415	0.008908	0.057368	2.797155	0.000000	-0.008948	0.000000	-0.000009	-0.000001	0.000000	0.000000
56.428668	20.609705	14.739163	-0.059402	0.075643	2.796666	0.000000	-0.001639	0.000000	-0.000009	-0.000001	0.000000	0.000000
56.762001	20.654716	14.696316	-0.075632	0.052898	2.796121	0.000000	-0.001639	0.000000	-0.000010	-0.000001	0.000000	0.000000
57.095334	20.710548	14.668632	-0.091863	0.030153	2.795575	0.000000	-0.001639	0.000000	-0.000010	-0.000001	0.000000	0.000000
57.429918	20.777470	14.656093	-0.108155	0.007323	2.795027	0.000000	-0.001639	0.000000	-0.000010	-0.000001	0.000000	0.000000
57.727240	20.846088	14.657770	-0.177104	0.025337	2.794540	0.000000	0.005664	0.000000	-0.000011	-0.000001	0.000000	0.000000
58.276300	20.684984	14.911330	0.468785	-0.489870	2.775006	0.000000	-0.076716	0.000000	-0.000012	-0.000001	0.000000	0.000000
58.825360	19.828681	15.746373	1.081562	-1.039968	2.710548	0.000000	-0.157735	0.000000	-0.000012	-0.000001	0.000000	0.000000
59.374420	18.337665	17.222379	1.617942	-1.664141	2.602309	0.000000	-0.235956	0.000000	-0.000012	-0.000000	0.000000	0.000000
59.923480	16.317254	19.444479	2.040039	-2.406847	2.452210	0.000000	-0.309992	0.000000	-0.000012	0.000000	0.000000	0.000000
60.369440	14.735953	21.419436	1.518355	-2.003012	2.329260	0.000000	-0.241692	0.000000	-0.000012	-0.000000	0.000000	0.000000
60.810400	13.598801	22.974194	1.070237	-1.509419	2.237135	0.000000	-0.176542	0.000000	-0.000013	-0.000001	0.000000	0.000000
61.251360	12.833881	24.061580	0.671015	-0.947149	2.173269	0.000000	-0.113403	0.000000	-0.000013	-0.000001	0.000000	0.000000
61.692320	12.406244	24.632120	0.302450	-0.341785	2.136934	0.000000	-0.051556	0.000000	-0.000013	-0.000001	0.000000	0.000000
62.134530	12.296409	24.659307	-0.022241	0.218596	2.127722	0.000000	0.004486	0.000000	-0.000014	-0.000002	0.000000	0.000000
62.431853	12.316827	24.533076	-0.046433	0.205963	2.129056	0.000000	0.004486	0.000000	-0.000014	-0.000002	0.000000	0.000000
62.765186	12.356823	24.400489	-0.073554	0.191799	2.130552	0.000000	0.004486	0.000000	-0.000015	-0.000002	0.000000	0.000000
63.098520	12.414900	24.277343	-0.100676	0.177636	2.132047	0.000000	0.004486	0.000000	-0.000016	-0.000002	0.000000	0.000000
63.433103	12.491377	24.163232	-0.127899	0.163419	2.133549	0.000000	0.004486	0.000000	-0.000016	-0.000002	0.000000	0.000000
63.730426	12.574624	24.069812	-0.121249	0.091750	2.134883	0.000000	-0.000750	0.000000	-0.000016	-0.000002	0.000000	0.000000
64.171386	12.841743	23.723836	-0.486817	0.689860	2.148099	0.000000	0.060746	0.000000	-0.000017	-0.000002	0.000000	0.000000
64.612346	13.439816	22.862255	-0.874626	1.256582	2.188559	0.000000	0.122934	0.000000	-0.000018	-0.000002	0.000000	0.000000
65.053306	14.396166	21.524269	-1.302394	1.766130	2.256724	0.000000	0.186523	0.000000	-0.000019	-0.000003	0.000000	0.000000
65.494266	15.754486	19.770755	-1.789665	2.195321	2.353371	0.000000	0.252236	0.000000	-0.000021	-0.000003	0.000000	0.000000
65.940226	17.599999	17.656695	-2.363391	2.525376	2.481174	0.000000	0.321224	0.000000	-0.000022	-0.000004	0.000000	0.000000
66.489286	19.965978	15.291828	-1.920249	1.807168	2.637168	0.000000	0.246154	0.000000	-0.000024	-0.000003	0.000000	0.000000
67.038346	21.767519	13.640751	-1.341470	1.217681	2.750682	0.000000	0.166718	0.000000	-0.000026	-0.000002	0.000000	0.000000
67.587406	22.877372	12.585860	-0.667936	0.714927	2.819703	0.000000	0.084325	0.000000	-0.000027	-0.000002	0.000000	0.000000
68.136466	23.217142	12.052019	0.052777	0.263095	2.843008	0.000000	0.000436	0.000000	-0.000028	-0.000001	0.000000	0.000000
68.435038	23.225699	11.884143	-0.020760	0.267669	2.845356	0.000000	0.007866	0.000000	-0.000028	-0.000001	0.000000	0.000000
68.768372	23.244325	11.715717	-0.035118	0.237611	2.847979	0.000000	0.007866	0.000000	-0.000028	-0.000001	0.000000	0.000000
69.101705	23.272523	11.567329	-0.049476	0.207552	2.850601	0.000000	0.007866	0.000000	-0.000028	-0.000001	0.000000	0.000000
69.436288	23.310452	11.438536	-0.063888	0.177382	2.853233	0.000000	0.007866	0.000000	-0.000029	-0.000001	0.000000	0.000000
69.733611	23.352251	11.341029	-0.137725	0.180210	2.855572	0.000000	0.015329	0.000000	-0.000029	-0.000001	0.000000	0.000000
70.282671	23.102408	11.370351	0.590068	-0.233929	2.840787	0.000000	-0.069105	0.000000	-0.000029	0.000000	0.000000	0.000000
