#ParticleID	Turn	x[m]	xp	y[m]	yp	z[m]	dE[GeV]# s	beta_x	beta_y	alpha_x	alpha_y	D_x	D_y	D_px	D_py	orbit_x	orbit_px	orbit_y	orbit_py
0.300000	11.828135	24.961343	-0.012847	-0.027711	2.618214	0.000000	-0.000026	0.000000	-0.000000	0.000000	0.000000	0.000000
0.601250	11.843549	24.981678	-0.038320	-0.039789	2.618206	0.000000	-0.000026	0.000000	-0.000000	0.000000	0.000000	0.000000
0.898573	11.873811	25.008882	-0.034343	-0.113038	2.618198	0.000000	-0.006447	0.000000	0.000000	0.000000	0.000000	0.000000
1.339533	12.056407	24.831188	-0.381315	0.514474	2.631649	0.000000	0.067512	0.000000	0.000000	0.000000	0.000000	0.000000
1.780493	12.551501	24.108326	-0.745707	1.118579	2.677851	0.000000	0.142241	0.000000	0.000000	0.000000	0.000000	0.000000
2.221453	13.381711	22.873186	-1.144169	1.671789	2.757331	0.000000	0.218589	0.000000	0.000000	0.000000	0.000000	0.000000
2.662413	14.584969	21.181964	-1.594905	2.148934	2.870993	0.000000	0.297426	0.000000	0.000001	0.000000	0.000000	0.000000
3.108373	16.237042	19.086806	-2.122805	2.529435	3.021995	0.000000	0.380141	0.000000	0.000001	0.000000	0.000000	0.000000
3.657433	18.355511	16.733727	-1.712711	1.781512	3.205443	0.000000	0.287104	0.000000	0.000001	0.000000	0.000000	0.000000
4.206493	19.954146	15.127874	-1.181639	1.160483	3.336333	0.000000	0.188973	0.000000	0.000001	0.000000	0.000000	0.000000
4.755553	20.920027	14.154865	-0.567101	0.622113	3.412343	0.000000	0.087491	0.000000	0.000001	0.000000	0.000000	0.000000
5.304613	21.184929	13.745396	0.087493	0.128054	3.432124	0.000000	-0.015543	0.000000	0.000001	0.000000	0.000000	0.000000
5.603185	21.169949	13.654143	0.018033	0.141662	3.430160	0.000000	-0.006575	0.000000	0.000001	0.000000	0.000000	0.000000
5.936519	21.163177	13.568003	0.002282	0.116759	3.427969	0.000000	-0.006575	0.000000	0.000001	0.000000	0.000000	0.000000
6.269852	21.166906	13.498464	-0.013468	0.091857	3.425777	0.000000	-0.006575	0.000000	0.000002	0.000000	0.000000	0.000000
6.604435	21.181208	13.445360	-0.029278	0.066861	3.423577	0.000000	-0.006575	0.000000	0.000002	0.000000	0.000000	0.000000
6.901758	21.202795	13.412205	-0.098726	0.079692	3.421622	0.000000	0.002364	0.000000	0.000002	0.000000	0.000000	0.000000
7.450818	20.949784	13.585242	0.556805	-0.396703	3.394719	0.000000	-0.100214	0.000000	0.000002	0.000000	0.000000	0.000000
7.999878	19.994359	14.293771	1.173006	-0.901354	3.311901	0.000000	-0.201015	0.000000	0.000002	0.000000	0.000000	0.000000
8.548938	18.404005	15.588260	1.706351	-1.470207	3.174636	0.000000	-0.298250	0.000000	0.000002	0.000000	0.000000	0.000000
9.097998	16.291058	17.560911	2.119168	-2.143779	2.985358	0.000000	-0.390195	0.000000	0.000002	-0.000000	0.000000	0.000000
9.543958	14.642466	19.318699	1.590701	-1.781145	2.829653	0.000000	-0.308492	0.000000	0.000002	0.000000	0.000000	0.000000
9.984918	13.443237	20.699681	1.139204	-1.338700	2.710866	0.000000	-0.230786	0.000000	0.000002	0.000000	0.000000	0.000000
10.425878	12.617823	21.662010	0.739755	-0.835345	2.625733	0.000000	-0.155708	0.000000	0.000002	0.000000	0.000000	0.000000
10.866838	12.128512	22.161901	0.374103	-0.293983	2.573283	0.000000	-0.082404	0.000000	0.000002	0.000000	0.000000	0.000000
11.309048	11.952814	22.176093	0.054749	0.206314	2.552900	0.000000	-0.016299	0.000000	0.000002	0.000000	0.000000	0.000000
11.606371	11.927675	22.057565	0.029800	0.192336	2.548054	0.000000	-0.016299	0.000000	0.000002	0.000000	0.000000	0.000000
12.086371	11.918401	21.883755	-0.010479	0.169770	2.540231	0.000000	-0.016299	0.000000	0.000002	0.000000	0.000000	0.000000
12.566371	11.947794	21.731608	-0.050757	0.147203	2.532407	0.000000	-0.016299	0.000000	0.000002	0.000000	0.000000	0.000000
13.046371	12.015854	21.601124	-0.091035	0.124637	2.524583	0.000000	-0.016299	0.000000	0.000003	0.000000	0.000000	0.000000
13.526371	12.122581	21.492305	-0.131313	0.102071	2.516759	0.000000	-0.016299	0.000000	0.000003	0.000000	0.000000	0.000000
14.007621	12.268405	21.404950	-0.171697	0.079446	2.508915	0.000000	-0.016299	0.000000	0.000003	0.000000	0.000000	0.000000
14.304943	12.377921	21.361864	-0.166292	0.013084	2.504069	0.000000	-0.022440	0.000000	0.000003	0.000000	0.000000	0.000000
14.745903	12.683275	21.116495	-0.528809	0.541241	2.509804	0.000000	0.048478	0.000000	0.000003	0.000000	0.000000	0.000000
15.186863	13.317745	20.414455	-0.915486	1.044772	2.546903	0.000000	0.119948	0.000000	0.000003	0.000000	0.000000	0.000000
15.627823	14.310318	19.287686	-1.343989	1.500767	2.615789	0.000000	0.192783	0.000000	0.000003	0.000000	0.000000	0.000000
16.068783	15.706342	17.787455	-1.833896	1.888479	2.717245	0.000000	0.267815	0.000000	0.000003	0.000001	0.000000	0.000000
16.514743	17.593253	15.960520	-2.412345	2.191014	2.854121	0.000000	0.346359	0.000000	0.000004	0.000001	0.000000	0.000000
17.063803	20.016500	13.920467	-1.974977	1.546456	3.020565	0.000000	0.259036	0.000000	0.000004	0.000001	0.000000	0.000000
17.612863	21.879554	12.523937	-1.398106	1.012048	3.137730	0.000000	0.167118	0.000000	0.000004	0.000000	0.000000	0.000000
18.161923	23.050816	11.671461	-0.722480	0.549726	3.203536	0.000000	0.072236	0.000000	0.000004	0.000000	0.000000	0.000000
18.710983	23.447555	11.302318	0.004179	0.126561	3.216818	0.000000	-0.023927	0.000000	0.000005	0.000000	0.000000	0.000000
19.009556	23.485456	11.217189	-0.069858	0.129030	3.212184	0.000000	-0.015522	0.000000	0.000005	0.000000	0.000000	0.000000
19.342889	23.536783	11.141240	-0.084121	0.098819	3.207010	0.000000	-0.015522	0.000000	0.000005	0.000000	0.000000	0.000000
19.676223	23.597617	11.085431	-0.098383	0.068608	3.201836	0.000000	-0.015522	0.000000	0.000005	0.000000	0.000000	0.000000
20.010806	23.668535	11.049530	-0.229966	0.093029	3.196662	0.000000	0.000316	0.000000	0.000005	0.000000	0.000000	0.000000
20.308129	23.809216	11.002280	-0.305399	0.094634	3.196756	0.000000	0.008668	0.000000	0.000005	0.000000	0.000000	0.000000
20.857189	23.733940	11.120857	0.441687	-0.311871	3.175299	0.000000	-0.086712	0.000000	0.000005	-0.000000	0.000000	0.000000
21.406249	22.850621	11.695330	1.157574	-0.740591	3.101818	0.000000	-0.180555	0.000000	0.000005	-0.000000	0.000000	0.000000
21.955309	21.221652	12.766620	1.791696	-1.222061	2.977616	0.000000	-0.271195	0.000000	0.000005	-0.000000	0.000000	0.000000
22.504369	18.962094	14.411032	2.299262	-1.790576	2.804897	0.000000	-0.357025	0.000000	0.000004	-0.000000	0.000000	0.000000
22.950329	17.181493	15.887269	1.707571	-1.505704	2.662970	0.000000	-0.279823	0.000000	0.000004	-0.000000	0.000000	0.000000
23.391289	15.904835	17.064209	1.198591	-1.153181	2.555899	0.000000	-0.206263	0.000000	0.000004	-0.000000	0.000000	0.000000
23.832249	15.051304	17.905839	0.744371	-0.748189	2.480718	0.000000	-0.135053	0.000000	0.000004	-0.000000	0.000000	0.000000
24.273209	14.581906	18.373867	0.324159	-0.309155	2.436568	0.000000	-0.065380	0.000000	0.000004	-0.000000	0.000000	0.000000
24.715418	14.475309	18.446749	-0.045833	0.098641	2.422946	0.000000	-0.002394	0.000000	0.000004	0.000000	0.000000	0.000000
25.012741	14.508683	18.392931	-0.066416	0.082367	2.422234	0.000000	-0.002394	0.000000	0.000004	0.000000	0.000000	0.000000
25.346075	14.560652	18.344102	-0.089492	0.064121	2.421436	0.000000	-0.002394	0.000000	0.000004	0.000000	0.000000	0.000000
25.679408	14.628005	18.307437	-0.112568	0.045875	2.420638	0.000000	-0.002394	0.000000	0.000004	0.000000	0.000000	0.000000
26.013991	14.710783	18.283237	-0.016387	-0.120762	2.419813	0.000000	-0.022025	0.000000	0.000004	0.000000	0.000000	0.000000
26.311314	14.726539	18.359954	-0.000491	-0.182284	2.413264	0.000000	-0.027943	0.000000	0.000004	0.000000	0.000000	0.000000
26.752274	14.908433	18.321552	-0.413569	0.269039	2.416051	0.000000	0.040596	0.000000	0.000004	0.000000	0.000000	0.000000
27.193234	15.461551	17.889017	-0.845541	0.708121	2.449134	0.000000	0.109597	0.000000	0.000004	0.000000	0.000000	0.000000
27.634194	16.411165	17.082030	-1.316143	1.114984	2.512890	0.000000	0.179846	0.000000	0.000004	0.000000	0.000000	0.000000
28.075154	17.800659	15.937308	-1.846877	1.471115	2.608044	0.000000	0.252144	0.000000	0.000004	0.000000	0.000000	0.000000
28.521114	19.717661	14.489694	-2.466946	1.761226	2.737285	0.000000	0.327757	0.000000	0.000005	0.000001	0.000000	0.000000
29.070174	22.154179	12.876631	-1.944401	1.193977	2.894581	0.000000	0.244367	0.000000	0.000005	0.000000	0.000000	0.000000
29.619234	23.937603	11.836400	-1.284513	0.711773	3.004833	0.000000	0.156644	0.000000	0.000005	0.000000	0.000000	0.000000
30.168294	24.941963	11.294908	-0.533893	0.280266	3.066084	0.000000	0.066142	0.000000	0.000005	0.000000	0.000000	0.000000
30.717354	25.096315	11.213585	0.254438	-0.131278	3.077249	0.000000	-0.025534	0.000000	0.000005	-0.000000	0.000000	0.000000
31.015927	24.987212	11.282515	0.176547	-0.128883	3.072026	0.000000	-0.017494	0.000000	0.000005	-0.000000	0.000000	0.000000
31.349260	24.874099	11.378448	0.162791	-0.158918	3.066195	0.000000	-0.017494	0.000000	0.000005	-0.000000	0.000000	0.000000
31.682593	24.770157	11.494406	0.149035	-0.188953	3.060363	0.000000	-0.017494	0.000000	0.000005	-0.000000	0.000000	0.000000
32.017177	24.675047	11.630934	0.135228	-0.219101	3.054510	0.000000	-0.017494	0.000000	0.000005	-0.000000	0.000000	0.000000
32.314499	24.598283	11.769187	0.058690	-0.215142	3.049309	0.000000	-0.009527	0.000000	0.000005	-0.000000	0.000000	0.000000
32.863559	24.112446	12.244766	0.820925	-0.656141	3.019199	0.000000	-0.099990	0.000000	0.000005	-0.000000	0.000000	0.000000
33.412619	22.816626	13.227283	1.525174	-1.143875	2.939834	0.000000	-0.188679	0.000000	0.000005	-0.000000	0.000000	0.000000
33.961679	20.802353	14.786721	2.121693	-1.713086	2.812622	0.000000	-0.274022	0.000000	0.000004	-0.000001	0.000000	0.000000
34.510739	18.211906	17.034156	2.568346	-2.404315	2.639819	0.000000	-0.354504	0.000000	0.000004	-0.000001	0.000000	0.000000
34.956699	16.197842	19.044342	1.964079	-2.084411	2.498064	0.000000	-0.281583	0.000000	0.000004	-0.000001	0.000000	0.000000
35.397659	14.696060	20.706395	1.454551	-1.670416	2.389277	0.000000	-0.212296	0.000000	0.000004	-0.000000	0.000000	0.000000
35.838619	13.612750	21.968302	1.011477	-1.180419	2.310482	0.000000	-0.145427	0.000000	0.000003	-0.000000	0.000000	0.000000
36.279579	12.898419	22.772645	0.614614	-0.636713	2.260779	0.000000	-0.080215	0.000000	0.000003	-0.000000	0.000000	0.000000
36.721789	12.519740	23.083130	0.276426	-0.120697	2.239578	0.000000	-0.021408	0.000000	0.000003	-0.000000	0.000000	0.000000
37.019112	12.362965	23.158787	0.250863	-0.133765	2.233213	0.000000	-0.021408	0.000000	0.000003	-0.000000	0.000000	0.000000
37.352445	12.205276	23.252848	0.222204	-0.148416	2.226077	0.000000	-0.021408	0.000000	0.000003	-0.000000	0.000000	0.000000
37.685779	12.066692	23.356675	0.193545	-0.163067	2.218941	0.000000	-0.021408	0.000000	0.000003	-0.000000	0.000000	0.000000
38.020362	11.946803	23.470714	0.164779	-0.177773	2.211778	0.000000	-0.021408	0.000000	0.000003	-0.000000	0.000000	0.000000
38.317684	11.856419	23.580312	0.168290	-0.248665	2.205413	0.000000	-0.026817	0.000000	0.000003	-0.000000	0.000000	0.000000
38.758644	11.859222	23.538449	-0.174672	0.343238	2.207514	0.000000	0.036355	0.000000	0.000003	-0.000000	0.000000	0.000000
39.199604	12.166853	22.979494	-0.525615	0.919525	2.237536	0.000000	0.099940	0.000000	0.000003	-0.000000	0.000000	0.000000
39.640564	12.793367	21.928878	-0.900571	1.453974	2.295820	0.000000	0.164664	0.000000	0.000003	-0.000000	0.000000	0.000000
40.081524	13.767388	20.434404	-1.316672	1.922268	2.383031	0.000000	0.231263	0.000000	0.000003	0.000000	0.000000	0.000000
40.527484	15.150980	18.541500	-1.796753	2.304379	2.501634	0.000000	0.300902	0.000000	0.000003	0.000000	0.000000	0.000000
41.076544	16.916818	16.414438	-1.400319	1.592494	2.646320	0.000000	0.225352	0.000000	0.000003	0.000000	0.000000	0.000000
41.625604	18.190100	15.002610	-0.904974	0.994039	2.748364	0.000000	0.145806	0.000000	0.000003	-0.000000	0.000000	0.000000
42.174664	18.880888	14.205453	-0.345707	0.466388	2.805957	0.000000	0.063673	0.000000	0.000003	-0.000000	0.000000	0.000000
42.723724	18.940389	13.966189	0.237980	-0.028044	2.818077	0.000000	-0.019590	0.000000	0.000003	-0.000000	0.000000	0.000000
43.022297	18.832705	13.967529	0.172169	-0.012934	2.814426	0.000000	-0.012227	0.000000	0.000002	-0.000000	0.000000	0.000000
43.502297	18.680019	13.996443	0.145926	-0.047305	2.808558	0.000000	-0.012227	0.000000	0.000002	-0.000000	0.000000	0.000000
43.982297	18.552526	14.058354	0.119683	-0.081676	2.802689	0.000000	-0.012227	0.000000	0.000002	-0.000000	0.000000	0.000000
44.462297	18.450227	14.153262	0.093440	-0.116047	2.796820	0.000000	-0.012227	0.000000	0.000002	-0.000000	0.000000	0.000000
44.942297	18.373121	14.281165	0.067197	-0.150419	2.790951	0.000000	-0.012227	0.000000	0.000002	-0.000000	0.000000	0.000000
45.423547	18.321334	14.442349	-0.049889	-0.113323	2.785085	0.000000	0.001572	0.000000	0.000002	-0.000000	0.000000	0.000000
45.720870	18.355837	14.515935	-0.114117	-0.096247	2.785552	0.000000	0.008850	0.000000	0.000002	-0.000000	0.000000	0.000000
46.269930	18.172068	14.902446	0.446832	-0.611857	2.767842	0.000000	-0.073268	0.000000	0.000002	-0.000000	0.000000	0.000000
46.818990	17.386076	15.875623	0.976218	-1.171048	2.705335	0.000000	-0.154086	0.000000	0.000002	-0.000000	0.000000	0.000000
47.368050	16.053378	17.504785	1.436649	-1.813650	2.599139	0.000000	-0.232171	0.000000	0.000001	-0.000000	0.000000	0.000000
47.917110	14.268109	19.905973	1.795603	-2.585435	2.451139	0.000000	-0.306138	0.000000	0.000001	-0.000000	0.000000	0.000000
48.363070	12.878707	22.040931	1.330966	-2.181769	2.329905	0.000000	-0.237844	0.000000	0.000001	-0.000000	0.000000	0.000000
48.804030	11.885083	23.750367	0.930904	-1.680104	2.239484	0.000000	-0.172656	0.000000	0.000001	-0.000000	0.000000	0.000000
49.244990	11.224264	24.981848	0.573373	-1.101995	2.177349	0.000000	-0.109434	0.000000	0.000001	-0.000000	0.000000	0.000000
49.685950	10.866060	25.679341	0.242037	-0.473747	2.142790	0.000000	-0.047459	0.000000	0.000001	-0.000000	0.000000	0.000000
50.128160	10.794235	25.810830	-0.051887	0.112712	2.135426	0.000000	0.008740	0.000000	0.000000	-0.000000	0.000000	0.000000
50.425482	10.833300	25.747275	-0.079505	0.101046	2.138024	0.000000	0.008740	0.000000	0.000000	-0.000000	0.000000	0.000000
50.758816	10.896625	25.684271	-0.110469	0.087967	2.140938	0.000000	0.008740	0.000000	0.000000	-0.000000	0.000000	0.000000
51.092149	10.980593	25.629985	-0.141433	0.074889	2.143851	0.000000	0.008740	0.000000	0.000000	-0.000000	0.000000	0.000000
51.426732	11.085409	25.584783	-0.082581	-0.145795	2.146754	0.000000	-0.008676	0.000000	-0.000000	-0.000000	0.000000	0.000000
51.724055	11.142544	25.675008	-0.082260	-0.220626	2.144174	0.000000	-0.013934	0.000000	-0.000000	-0.000000	0.000000	0.000000
52.165015	11.360546	25.583968	-0.413994	0.426300	2.151618	0.000000	0.047727	0.000000	-0.000000	-0.000000	0.000000	0.000000
52.605975	11.878313	24.928797	-0.764643	1.053829	2.186346	0.000000	0.109933	0.000000	-0.000000	-0.000000	0.000000	0.000000
53.046935	12.719502	23.739305	-1.150226	1.633411	2.248753	0.000000	0.173390	0.000000	-0.000001	-0.000000	0.000000	0.000000
53.487895	13.922545	22.069613	-1.588359	2.138673	2.339552	0.000000	0.238822	0.000000	-0.000001	-0.000000	0.000000	0.000000
53.933855	15.563021	19.970725	-2.103297	2.547962	2.461279	0.000000	0.307373	0.000000	-0.000001	-0.000000	0.000000	0.000000
54.482915	17.675037	17.609026	-1.720535	1.778777	2.609865	0.000000	0.233068	0.000000	-0.000001	-0.000000	0.000000	0.000000
55.031975	19.297106	16.017871	-1.216243	1.136291	2.716456	0.000000	0.154628	0.000000	-0.000001	-0.000000	0.000000	0.000000
55.581035	20.314654	15.083926	-0.626042	0.574740	2.779162	0.000000	0.073447	0.000000	-0.000001	-0.000000	0.000000	0.000000
56.130095	20.655808	14.740666	0.008380	0.054126	2.796871	0.000000	-0.009038	0.000000	-0.000001	-0.000000	0.000000	0.000000
56.428668	20.687357	14.691446	-0.060076	0.072213	2.796354	0.000000	-0.001730	0.000000	-0.000002	-0.000000	0.000000	0.000000
56.762001	20.732798	14.650906	-0.076247	0.049405	2.795777	0.000000	-0.001730	0.000000	-0.000002	-0.000000	0.000000	0.000000
57.095334	20.789019	14.625572	-0.092418	0.026598	2.795201	0.000000	-0.001730	0.000000	-0.000002	-0.000000	0.000000	0.000000
57.429918	20.856293	14.615433	-0.108649	0.003705	2.794622	0.000000	-0.001730	0.000000	-0.000002	-0.000000	0.000000	0.000000
57.727240	20.925189	14.619278	-0.177748	0.021560	2.794107	0.000000	0.005570	0.000000	-0.000002	-0.000000	0.000000	0.000000
58.276300	20.763334	14.876400	0.470789	-0.492618	2.774525	0.000000	-0.076794	0.000000	-0.000002	-0.000000	0.000000	0.000000
58.825360	19.903434	15.713989	1.086071	-1.041884	2.710028	0.000000	-0.157797	0.000000	-0.000002	-0.000000	0.000000	0.000000
59.374420	18.406229	17.191707	1.624639	-1.665362	2.601759	0.000000	-0.236001	0.000000	-0.000002	-0.000000	0.000000	0.000000
59.923480	16.377474	19.414808	2.048450	-2.407459	2.451640	0.000000	-0.310019	0.000000	-0.000002	0.000000	0.000000	0.000000
60.369440	14.789497	21.390785	1.524965	-2.004679	2.328675	0.000000	-0.241734	0.000000	-0.000002	-0.000000	0.000000	0.000000
60.810400	13.647191	22.947450	1.075362	-1.512059	2.236528	0.000000	-0.176600	0.000000	-0.000002	-0.000000	0.000000	0.000000
61.251360	12.878317	24.037551	0.674889	-0.950641	2.172633	0.000000	-0.113477	0.000000	-0.000002	-0.000000	0.000000	0.000000
61.692320	12.447748	24.611489	0.305250	-0.345970	2.136261	0.000000	-0.051646	0.000000	-0.000002	-0.000000	0.000000	0.000000
62.134530	12.335864	24.642615	-0.020292	0.213956	2.127005	0.000000	0.004380	0.000000	-0.000002	-0.000000	0.000000	0.000000
62.431853	12.355099	24.519139	-0.044405	0.201338	2.128307	0.000000	0.004380	0.000000	-0.000002	-0.000000	0.000000	0.000000
62.765186	12.393713	24.389629	-0.071437	0.187192	2.129767	0.000000	0.004380	0.000000	-0.000002	-0.000000	0.000000	0.000000
63.098520	12.450349	24.269549	-0.098470	0.173046	2.131227	0.000000	0.004380	0.000000	-0.000002	-0.000000	0.000000	0.000000
63.433103	12.525320	24.158503	-0.125604	0.158847	2.132693	0.000000	0.004380	0.000000	-0.000003	-0.000000	0.000000	0.000000
63.730426	12.607179	24.067797	-0.118799	0.087207	2.133995	0.000000	-0.000853	0.000000	-0.000003	-0.000000	0.000000	0.000000
64.171386	12.872443	23.725815	-0.485044	0.685382	2.147160	0.000000	0.060620	0.000000	-0.000003	-0.000000	0.000000	0.000000
64.612346	13.469220	22.868079	-0.873449	1.252372	2.187558	0.000000	0.122783	0.000000	-0.000003	-0.000000	0.000000	0.000000
65.053306	14.424774	21.533616	-1.301760	1.762381	2.255650	0.000000	0.186345	0.000000	-0.000003	-0.000000	0.000000	0.000000
65.494266	15.782764	19.783142	-1.789544	2.192202	2.352211	0.000000	0.252029	0.000000	-0.000003	-0.000001	0.000000	0.000000
65.940226	17.628398	17.671523	-2.363781	2.523038	2.479913	0.000000	0.320985	0.000000	-0.000004	-0.000001	0.000000	0.000000
66.489286	19.994151	15.309209	-1.919446	1.804829	2.635786	0.000000	0.245958	0.000000	-0.000004	-0.000000	0.000000	0.000000
67.038346	21.794181	13.660777	-1.339531	1.215174	2.749204	0.000000	0.166569	0.000000	-0.000004	-0.000000	0.000000	0.000000
67.587406	22.901342	12.608812	-0.664999	0.712073	2.818156	0.000000	0.084225	0.000000	-0.000004	-0.000000	0.000000	0.000000
68.136466	23.237430	12.078386	0.056506	0.259692	2.841419	0.000000	0.000387	0.000000	-0.000004	-0.000000	0.000000	0.000000
68.435038	23.243781	11.912473	-0.017060	0.264435	2.843751	0.000000	0.007811	0.000000	-0.000004	-0.000000	0.000000	0.000000
68.768372	23.259936	11.746163	-0.031405	0.234497	2.846355	0.000000	0.007811	0.000000	-0.000004	-0.000000	0.000000	0.000000
69.101705	23.285654	11.599811	-0.045750	0.204558	2.848959	0.000000	0.007811	0.000000	-0.000004	-0.000000	0.000000	0.000000
69.436288	23.321086	11.472982	-0.060149	0.174507	2.851572	0.000000	0.007811	0.000000	-0.000004	-0.000000	0.000000	0.000000
69.733611	23.360657	11.377152	-0.133983	0.177531	2.853894	0.000000	0.015268	0.000000	-0.000005	-0.000000	0.000000	0.000000
70.282671	23.106588	11.409981	0.593978	-0.237675	2.839091	0.000000	-0.069111	0.000000	-0.000005	0.000000	0.000000	0.000000
