#ParticleID	Turn	x[m]	xp	y[m]	yp	z[m]	dE[GeV]# s	beta_x	beta_y	alpha_x	alpha_y	D_x	D_y	D_px	D_py	orbit_x	orbit_px	orbit_y	orbit_py
0.300000	11.803188	25.059449	-0.010083	-0.026754	2.618350	0.000000	-0.000079	0.000000	-0.000002	0.000002	0.000000	0.000000
0.601250	11.816953	25.079192	-0.035608	-0.038784	2.618326	0.000000	-0.000079	0.000000	-0.000002	0.000002	0.000000	0.000000
0.898573	11.845617	25.105785	-0.031752	-0.112224	2.618302	0.000000	-0.006500	0.000000	-0.000001	0.000002	0.000000	0.000000
1.339533	12.025625	24.926245	-0.378014	0.517832	2.631730	0.000000	0.067462	0.000000	-0.000000	0.000002	0.000000	0.000000
1.780493	12.517440	24.199353	-0.741546	1.124327	2.677909	0.000000	0.142192	0.000000	0.000001	0.000002	0.000000	0.000000
2.221453	13.343533	22.958181	-1.138957	1.679666	2.757367	0.000000	0.218541	0.000000	0.000001	0.000002	0.000000	0.000000
2.662413	14.541646	21.259202	-1.588404	2.158581	2.871009	0.000000	0.297380	0.000000	0.000002	0.000002	0.000000	0.000000
3.108373	16.187232	19.154805	-2.114706	2.540417	3.021989	0.000000	0.380095	0.000000	0.000003	0.000002	0.000000	0.000000
3.657433	18.297469	16.791199	-1.705905	1.789817	3.205411	0.000000	0.287058	0.000000	0.000004	0.000002	0.000000	0.000000
4.206493	19.889568	15.177418	-1.176608	1.166702	3.336275	0.000000	0.188929	0.000000	0.000005	0.000002	0.000000	0.000000
4.755553	20.851069	14.198518	-0.564201	0.626688	3.412260	0.000000	0.087449	0.000000	0.000006	0.000001	0.000000	0.000000
5.304613	21.114057	13.784773	0.088058	0.131312	3.432018	0.000000	-0.015582	0.000000	0.000007	0.000001	0.000000	0.000000
5.603185	21.098642	13.691503	0.018738	0.145060	3.430043	0.000000	-0.006615	0.000000	0.000007	0.000001	0.000000	0.000000
5.936519	21.091418	13.603082	0.002933	0.120202	3.427837	0.000000	-0.006615	0.000000	0.000007	0.000001	0.000000	0.000000
6.269852	21.094731	13.531233	-0.012871	0.095344	3.425632	0.000000	-0.006615	0.000000	0.000008	0.000001	0.000000	0.000000
6.604435	21.108651	13.475781	-0.028735	0.070392	3.423418	0.000000	-0.006615	0.000000	0.000008	0.000001	0.000000	0.000000
6.901758	21.129929	13.440515	-0.098036	0.083335	3.421451	0.000000	0.002324	0.000000	0.000009	0.000001	0.000000	0.000000
7.450818	20.877505	13.609974	0.555055	-0.393791	3.394527	0.000000	-0.100249	0.000000	0.000009	0.000001	0.000000	0.000000
7.999878	19.925292	14.315609	1.168940	-0.898965	3.311691	0.000000	-0.201043	0.000000	0.000010	0.000001	0.000000	0.000000
8.548938	18.340550	15.607682	1.700256	-1.468171	3.174412	0.000000	-0.298272	0.000000	0.000010	0.000000	0.000000	0.000000
9.097998	16.235218	17.578224	2.111475	-2.141951	2.985124	0.000000	-0.390209	0.000000	0.000010	0.000000	0.000000	0.000000
9.543958	14.592725	19.334043	1.584670	-1.778575	2.829411	0.000000	-0.308512	0.000000	0.000010	0.000000	0.000000	0.000000
9.984918	13.398191	20.712477	1.134547	-1.335512	2.710614	0.000000	-0.230812	0.000000	0.000011	0.000001	0.000000	0.000000
10.425878	12.576358	21.671775	0.736258	-0.831685	2.625467	0.000000	-0.155742	0.000000	0.000011	0.000001	0.000000	0.000000
10.866838	12.089681	22.168289	0.371607	-0.290016	2.573001	0.000000	-0.082445	0.000000	0.000011	0.000001	0.000000	0.000000
11.309048	11.915790	22.178904	0.053046	0.210405	2.552598	0.000000	-0.016346	0.000000	0.000012	0.000001	0.000000	0.000000
11.606371	11.891686	22.057950	0.028024	0.196406	2.547738	0.000000	-0.016346	0.000000	0.000012	0.000001	0.000000	0.000000
12.086371	11.884174	21.880249	-0.012372	0.173805	2.539891	0.000000	-0.016346	0.000000	0.000013	0.000001	0.000000	0.000000
12.566371	11.915441	21.724244	-0.052768	0.151205	2.532045	0.000000	-0.016346	0.000000	0.000014	0.000001	0.000000	0.000000
13.046371	11.985489	21.589935	-0.093164	0.128605	2.524198	0.000000	-0.016346	0.000000	0.000014	0.000001	0.000000	0.000000
13.526371	12.094317	21.477323	-0.133560	0.106004	2.516352	0.000000	-0.016346	0.000000	0.000015	0.000001	0.000000	0.000000
14.007621	12.242360	21.386198	-0.174062	0.083345	2.508484	0.000000	-0.016346	0.000000	0.000016	0.000001	0.000000	0.000000
14.304943	12.353304	21.340800	-0.168795	0.017021	2.503624	0.000000	-0.022484	0.000000	0.000016	0.000001	0.000000	0.000000
14.745903	12.660646	21.092235	-0.530833	0.544525	2.509337	0.000000	0.048422	0.000000	0.000017	0.000002	0.000000	0.000000
15.186863	13.296724	20.387643	-0.917123	1.047253	2.546407	0.000000	0.119879	0.000000	0.000018	0.000002	0.000000	0.000000
15.627823	14.290599	19.259083	-1.345314	1.502332	2.615259	0.000000	0.192701	0.000000	0.000019	0.000003	0.000000	0.000000
16.068783	15.687677	17.757903	-1.834969	1.889057	2.716674	0.000000	0.267719	0.000000	0.000020	0.000003	0.000000	0.000000
16.514743	17.575452	15.930908	-2.413217	2.190572	2.853504	0.000000	0.346248	0.000000	0.000022	0.000004	0.000000	0.000000
17.063803	20.000151	13.890986	-1.976730	1.546656	3.019890	0.000000	0.258945	0.000000	0.000024	0.000003	0.000000	0.000000
17.612863	21.865561	12.493880	-1.400616	1.012905	3.137010	0.000000	0.167050	0.000000	0.000025	0.000002	0.000000	0.000000
18.161923	23.039917	11.640076	-0.725569	0.551301	3.202785	0.000000	0.072192	0.000000	0.000026	0.000001	0.000000	0.000000
18.710983	23.440268	11.268761	0.000728	0.128965	3.216049	0.000000	-0.023946	0.000000	0.000027	0.000001	0.000000	0.000000
19.009556	23.480215	11.182281	-0.073288	0.131241	3.211407	0.000000	-0.015545	0.000000	0.000027	0.000001	0.000000	0.000000
19.342889	23.533831	11.104895	-0.087560	0.100919	3.206225	0.000000	-0.015545	0.000000	0.000027	0.000001	0.000000	0.000000
19.676223	23.596962	11.047723	-0.101833	0.070596	3.201043	0.000000	-0.015545	0.000000	0.000027	0.000001	0.000000	0.000000
20.010806	23.670191	11.010530	-0.233434	0.094713	3.195862	0.000000	0.000289	0.000000	0.000028	0.000001	0.000000	0.000000
20.308129	23.812940	10.962310	-0.308884	0.096103	3.195948	0.000000	0.008637	0.000000	0.000028	0.000001	0.000000	0.000000
20.857189	23.741405	11.078652	0.438400	-0.309246	3.174480	0.000000	-0.086717	0.000000	0.000028	-0.000000	0.000000	0.000000
21.406249	22.861479	11.649527	1.154717	-0.736623	3.101004	0.000000	-0.180533	0.000000	0.000028	-0.000001	0.000000	0.000000
21.955309	21.235316	12.715598	1.789471	-1.216467	2.976822	0.000000	-0.271147	0.000000	0.000027	-0.000002	0.000000	0.000000
22.504369	18.977780	14.352798	2.297825	-1.782957	2.804137	0.000000	-0.356952	0.000000	0.000026	-0.000003	0.000000	0.000000
22.950329	17.198527	15.822824	1.705969	-1.499452	2.662239	0.000000	-0.279770	0.000000	0.000025	-0.000002	0.000000	0.000000
23.391289	15.923380	16.994957	1.196751	-1.148574	2.555189	0.000000	-0.206228	0.000000	0.000024	-0.000001	0.000000	0.000000
23.832249	15.071608	17.833331	0.742209	-0.745436	2.480019	0.000000	-0.135036	0.000000	0.000023	-0.000001	0.000000	0.000000
24.273209	14.604294	18.299798	0.321576	-0.308382	2.435873	0.000000	-0.065381	0.000000	0.000023	-0.000000	0.000000	0.000000
24.715418	14.500210	18.372891	-0.048900	0.097588	2.422246	0.000000	-0.002410	0.000000	0.000023	0.000000	0.000000	0.000000
25.012741	14.535400	18.319718	-0.069454	0.081251	2.421529	0.000000	-0.002410	0.000000	0.000023	0.000000	0.000000	0.000000
25.346075	14.589384	18.271656	-0.092497	0.062935	2.420726	0.000000	-0.002410	0.000000	0.000024	0.000000	0.000000	0.000000
25.679408	14.658729	18.235804	-0.115540	0.044620	2.419922	0.000000	-0.002410	0.000000	0.000024	0.000000	0.000000	0.000000
26.013991	14.743485	18.212467	-0.019061	-0.121513	2.419092	0.000000	-0.022035	0.000000	0.000024	0.000000	0.000000	0.000000
26.311314	14.760817	18.289649	-0.003045	-0.182920	2.412540	0.000000	-0.027950	0.000000	0.000024	0.000000	0.000000	0.000000
26.752274	14.945342	18.252649	-0.417002	0.266510	2.415320	0.000000	0.040570	0.000000	0.000024	0.000001	0.000000	0.000000
27.193234	15.501933	17.823140	-0.850011	0.703814	2.448387	0.000000	0.109552	0.000000	0.000024	0.000001	0.000000	0.000000
27.634194	16.456020	17.020665	-1.321855	1.109096	2.512117	0.000000	0.179782	0.000000	0.000025	0.000002	0.000000	0.000000
28.075154	17.851194	15.881736	-1.854091	1.463914	2.607238	0.000000	0.252059	0.000000	0.000026	0.000003	0.000000	0.000000
28.521114	19.775429	14.441013	-2.476008	1.753037	2.736435	0.000000	0.327650	0.000000	0.000027	0.000003	0.000000	0.000000
29.070174	22.221126	12.835867	-1.951955	1.187661	2.893679	0.000000	0.244289	0.000000	0.000029	0.000002	0.000000	0.000000
29.619234	24.011769	11.801754	-1.290025	0.706880	3.003895	0.000000	0.156595	0.000000	0.000030	0.000001	0.000000	0.000000
30.168294	25.020875	11.265015	-0.536974	0.276448	3.065128	0.000000	0.066124	0.000000	0.000031	0.000000	0.000000	0.000000
30.717354	25.177167	11.187421	0.254006	-0.134292	3.076291	0.000000	-0.025520	0.000000	0.000031	-0.000001	0.000000	0.000000
31.015927	25.068427	11.258219	0.175960	-0.132052	3.071071	0.000000	-0.017485	0.000000	0.000031	-0.000000	0.000000	0.000000
31.349260	24.955690	11.356295	0.162252	-0.162176	3.065243	0.000000	-0.017485	0.000000	0.000030	-0.000000	0.000000	0.000000
31.682593	24.852091	11.474454	0.148543	-0.192301	3.059415	0.000000	-0.017485	0.000000	0.000030	-0.000000	0.000000	0.000000
32.017177	24.757295	11.613252	0.134783	-0.222538	3.053565	0.000000	-0.017485	0.000000	0.000030	-0.000000	0.000000	0.000000
32.314499	24.680783	11.753572	0.058085	-0.218706	3.048367	0.000000	-0.009522	0.000000	0.000030	-0.000000	0.000000	0.000000
32.863559	24.194102	12.232909	0.823056	-0.659461	3.018268	0.000000	-0.099955	0.000000	0.000029	-0.000001	0.000000	0.000000
33.412619	22.894500	13.219048	1.529889	-1.147189	2.938931	0.000000	-0.188614	0.000000	0.000028	-0.000002	0.000000	0.000000
33.961679	20.873774	14.782229	2.128659	-1.716628	2.811764	0.000000	-0.273929	0.000000	0.000027	-0.000003	0.000000	0.000000
34.510739	18.274658	17.033793	2.577071	-2.408339	2.639020	0.000000	-0.354384	0.000000	0.000025	-0.000004	0.000000	0.000000
34.956699	16.253682	19.047772	1.970905	-2.088857	2.497316	0.000000	-0.281483	0.000000	0.000023	-0.000003	0.000000	0.000000
35.397659	14.746594	20.713857	1.459803	-1.675077	2.388570	0.000000	-0.212215	0.000000	0.000022	-0.000003	0.000000	0.000000
35.838619	13.659254	21.979890	1.015397	-1.185082	2.309807	0.000000	-0.145364	0.000000	0.000021	-0.000002	0.000000	0.000000
36.279579	12.941985	22.788270	0.617380	-0.641167	2.260130	0.000000	-0.080169	0.000000	0.000020	-0.000002	0.000000	0.000000
36.721789	12.561321	23.102525	0.278264	-0.124777	2.238946	0.000000	-0.021376	0.000000	0.000019	-0.000001	0.000000	0.000000
37.019112	12.403436	23.180610	0.252761	-0.137847	2.232591	0.000000	-0.021376	0.000000	0.000019	-0.000001	0.000000	0.000000
37.352445	12.244459	23.277392	0.224170	-0.152500	2.225466	0.000000	-0.021376	0.000000	0.000019	-0.000001	0.000000	0.000000
37.685779	12.104543	23.383943	0.195579	-0.167153	2.218341	0.000000	-0.021376	0.000000	0.000018	-0.000001	0.000000	0.000000
38.020362	11.983270	23.500717	0.166880	-0.181861	2.211189	0.000000	-0.021376	0.000000	0.000018	-0.000001	0.000000	0.000000
38.317684	11.891618	23.612746	0.170535	-0.252828	2.204834	0.000000	-0.026782	0.000000	0.000017	-0.000001	0.000000	0.000000
38.758644	11.892791	23.574163	-0.173206	0.339993	2.206948	0.000000	0.036375	0.000000	0.000017	-0.000001	0.000000	0.000000
39.199604	12.199447	23.017610	-0.524860	0.917344	2.236975	0.000000	0.099946	0.000000	0.000017	-0.000000	0.000000	0.000000
39.640564	12.825596	21.968410	-0.900494	1.452956	2.295259	0.000000	0.164655	0.000000	0.000017	0.000000	0.000000	0.000000
40.081524	13.799845	20.474300	-1.317268	1.922460	2.382463	0.000000	0.231240	0.000000	0.000017	0.000000	0.000000	0.000000
40.527484	15.184281	18.580682	-1.798053	2.305781	2.501052	0.000000	0.300863	0.000000	0.000017	0.000001	0.000000	0.000000
41.076544	16.950851	16.452647	-1.400344	1.592873	2.645721	0.000000	0.225333	0.000000	0.000017	0.000000	0.000000	0.000000
41.625604	18.223455	15.040949	-0.903722	0.993422	2.747760	0.000000	0.145806	0.000000	0.000017	-0.000000	0.000000	0.000000
42.174664	18.912203	14.245033	-0.343265	0.464731	2.805359	0.000000	0.063692	0.000000	0.000017	-0.000001	0.000000	0.000000
42.723724	18.968445	14.008210	0.241438	-0.030859	2.817495	0.000000	-0.019551	0.000000	0.000016	-0.000001	0.000000	0.000000
43.022297	18.858735	14.011148	0.175564	-0.015578	2.813856	0.000000	-0.012190	0.000000	0.000016	-0.000001	0.000000	0.000000
43.502297	18.702787	14.042551	0.149327	-0.049845	2.808005	0.000000	-0.012190	0.000000	0.000015	-0.000001	0.000000	0.000000
43.982297	18.572026	14.106850	0.123090	-0.084112	2.802154	0.000000	-0.012190	0.000000	0.000015	-0.000001	0.000000	0.000000
44.462297	18.466453	14.204045	0.096853	-0.118378	2.796303	0.000000	-0.012190	0.000000	0.000014	-0.000001	0.000000	0.000000
44.942297	18.386068	14.334137	0.070616	-0.152645	2.790453	0.000000	-0.012190	0.000000	0.000014	-0.000001	0.000000	0.000000
45.423547	18.330986	14.497412	-0.046511	-0.115172	2.784604	0.000000	0.001606	0.000000	0.000013	-0.000001	0.000000	0.000000
45.720870	18.363476	14.572077	-0.110741	-0.097883	2.785082	0.000000	0.008882	0.000000	0.000013	-0.000001	0.000000	0.000000
46.269930	18.175890	14.961329	0.450368	-0.615246	2.767394	0.000000	-0.073221	0.000000	0.000012	-0.000002	0.000000	0.000000
46.818990	17.386040	15.939295	0.979664	-1.176431	2.704917	0.000000	-0.154025	0.000000	0.000011	-0.000002	0.000000	0.000000
47.368050	16.049719	17.575632	1.439762	-1.821411	2.598759	0.000000	-0.232097	0.000000	0.000010	-0.000002	0.000000	0.000000
47.917110	14.261316	19.986892	1.798163	-2.596126	2.450804	0.000000	-0.306053	0.000000	0.000008	-0.000003	0.000000	0.000000
48.363070	12.869691	22.130618	1.333409	-2.190655	2.329607	0.000000	-0.237767	0.000000	0.000007	-0.000002	0.000000	0.000000
48.804030	11.873919	23.846947	0.933346	-1.686788	2.239220	0.000000	-0.172586	0.000000	0.000006	-0.000002	0.000000	0.000000
49.244990	11.210906	25.083236	0.575925	-1.106174	2.177114	0.000000	-0.109371	0.000000	0.000005	-0.000002	0.000000	0.000000
49.685950	10.850360	25.783235	0.244816	-0.475229	2.142583	0.000000	-0.047401	0.000000	0.000004	-0.000002	0.000000	0.000000
50.128160	10.775930	25.914810	-0.048800	0.113741	2.135244	0.000000	0.008793	0.000000	0.000004	-0.000002	0.000000	0.000000
50.425482	10.813172	25.850630	-0.076457	0.102119	2.137858	0.000000	0.008793	0.000000	0.000003	-0.000002	0.000000	0.000000
50.758816	10.874479	25.786894	-0.107464	0.089090	2.140790	0.000000	0.008793	0.000000	0.000002	-0.000002	0.000000	0.000000
51.092149	10.956457	25.731843	-0.138471	0.076061	2.143722	0.000000	0.008793	0.000000	0.000002	-0.000002	0.000000	0.000000
51.426732	11.059306	25.685842	-0.079873	-0.145393	2.146643	0.000000	-0.008622	0.000000	0.000001	-0.000002	0.000000	0.000000
51.724055	11.114847	25.775814	-0.079673	-0.220423	2.144080	0.000000	-0.013880	0.000000	0.000001	-0.000002	0.000000	0.000000
52.165015	11.330269	25.683418	-0.410711	0.429160	2.151548	0.000000	0.047780	0.000000	-0.000000	-0.000002	0.000000	0.000000
52.605975	11.844780	25.024596	-0.760513	1.059217	2.186299	0.000000	0.109983	0.000000	-0.000001	-0.000002	0.000000	0.000000
53.046935	12.681886	23.829325	-1.145062	1.641080	2.248729	0.000000	0.173440	0.000000	-0.000002	-0.000002	0.000000	0.000000
53.487895	13.879833	22.151989	-1.581924	2.148275	2.339550	0.000000	0.238872	0.000000	-0.000003	-0.000002	0.000000	0.000000
53.933855	15.513890	20.043828	-2.095284	2.559065	2.461301	0.000000	0.307423	0.000000	-0.000004	-0.000002	0.000000	0.000000
54.482915	17.617759	17.671537	-1.713799	1.787079	2.609915	0.000000	0.233116	0.000000	-0.000005	-0.000002	0.000000	0.000000
55.031975	19.233354	16.072526	-1.211259	1.142383	2.716533	0.000000	0.154675	0.000000	-0.000006	-0.000002	0.000000	0.000000
55.581035	20.246558	15.132898	-0.623162	0.579056	2.779264	0.000000	0.073490	0.000000	-0.000007	-0.000002	0.000000	0.000000
56.130095	20.585804	14.785728	0.008952	0.056975	2.796996	0.000000	-0.008998	0.000000	-0.000007	-0.000001	0.000000	0.000000
56.428668	20.616918	14.734720	-0.059371	0.075232	2.796492	0.000000	-0.001689	0.000000	-0.000008	-0.000001	0.000000	0.000000
56.762001	20.661907	14.692148	-0.075596	0.052482	2.795930	0.000000	-0.001689	0.000000	-0.000008	-0.000001	0.000000	0.000000
57.095334	20.717713	14.664744	-0.091821	0.029731	2.795367	0.000000	-0.001689	0.000000	-0.000009	-0.000001	0.000000	0.000000
57.429918	20.784605	14.652489	-0.108107	0.006896	2.794802	0.000000	-0.001689	0.000000	-0.000009	-0.000001	0.000000	0.000000
57.727240	20.853193	14.654422	-0.177069	0.024895	2.794300	0.000000	0.005612	0.000000	-0.000010	-0.000001	0.000000	0.000000
58.276300	20.691920	14.908417	0.469056	-0.490225	2.774740	0.000000	-0.076759	0.000000	-0.000010	-0.000001	0.000000	0.000000
58.825360	19.835199	15.743816	1.082049	-1.040264	2.710260	0.000000	-0.157769	0.000000	-0.000011	-0.000001	0.000000	0.000000
59.374420	18.343545	17.220123	1.618611	-1.664397	2.602005	0.000000	-0.235981	0.000000	-0.000011	-0.000000	0.000000	0.000000
59.923480	16.322321	19.442491	2.040843	-2.407082	2.451895	0.000000	-0.310006	0.000000	-0.000011	0.000000	0.000000	0.000000
60.369440	14.740376	21.417698	1.518998	-2.003334	2.328936	0.000000	-0.241715	0.000000	-0.000011	-0.000000	0.000000	0.000000
60.810400	13.602716	22.972773	1.070751	-1.509814	2.236800	0.000000	-0.176574	0.000000	-0.000011	-0.000001	0.000000	0.000000
61.251360	12.837391	24.060533	0.671423	-0.947598	2.172918	0.000000	-0.113444	0.000000	-0.000012	-0.000001	0.000000	0.000000
61.692320	12.409434	24.631485	0.302771	-0.342268	2.136563	0.000000	-0.051606	0.000000	-0.000012	-0.000001	0.000000	0.000000
62.134530	12.299348	24.659106	-0.021986	0.218103	2.127326	0.000000	0.004427	0.000000	-0.000013	-0.000001	0.000000	0.000000
62.431853	12.319613	24.533167	-0.046171	0.205473	2.128643	0.000000	0.004427	0.000000	-0.000013	-0.000001	0.000000	0.000000
62.765186	12.359432	24.400905	-0.073286	0.191312	2.130119	0.000000	0.004427	0.000000	-0.000014	-0.000001	0.000000	0.000000
63.098520	12.417328	24.278084	-0.100401	0.177151	2.131595	0.000000	0.004427	0.000000	-0.000014	-0.000001	0.000000	0.000000
63.433103	12.493619	24.164296	-0.127617	0.162937	2.133077	0.000000	0.004427	0.000000	-0.000015	-0.000001	0.000000	0.000000
63.730426	12.576697	24.071162	-0.120957	0.091268	2.134394	0.000000	-0.000808	0.000000	-0.000015	-0.000001	0.000000	0.000000
64.171386	12.843576	23.725592	-0.486563	0.689426	2.147582	0.000000	0.060676	0.000000	-0.000016	-0.000002	0.000000	0.000000
64.612346	13.441438	22.864364	-0.874399	1.256216	2.188008	0.000000	0.122850	0.000000	-0.000017	-0.000002	0.000000	0.000000
65.053306	14.397596	21.526664	-1.302184	1.765849	2.256133	0.000000	0.186424	0.000000	-0.000018	-0.000003	0.000000	0.000000
65.494266	15.755735	19.773356	-1.789462	2.195137	2.352733	0.000000	0.252121	0.000000	-0.000019	-0.000003	0.000000	0.000000
65.940226	17.601068	17.659412	-2.363187	2.525299	2.480480	0.000000	0.321092	0.000000	-0.000021	-0.000004	0.000000	0.000000
66.489286	19.966783	15.294653	-1.919975	1.807048	2.636408	0.000000	0.246046	0.000000	-0.000022	-0.000003	0.000000	0.000000
67.038346	21.767996	13.643736	-1.341146	1.217509	2.749869	0.000000	0.166635	0.000000	-0.000024	-0.000002	0.000000	0.000000
67.587406	22.877477	12.589068	-0.667586	0.714690	2.818853	0.000000	0.084269	0.000000	-0.000025	-0.000001	0.000000	0.000000
68.136466	23.216859	12.055529	0.053130	0.262778	2.842134	0.000000	0.000408	0.000000	-0.000025	-0.000001	0.000000	0.000000
68.435038	23.225204	11.887834	-0.020406	0.267372	2.844473	0.000000	0.007836	0.000000	-0.000026	-0.000001	0.000000	0.000000
68.768372	23.243594	11.719601	-0.034764	0.237328	2.847086	0.000000	0.007836	0.000000	-0.000026	-0.000001	0.000000	0.000000
69.101705	23.271556	11.571398	-0.049122	0.207283	2.849698	0.000000	0.007836	0.000000	-0.000026	-0.000001	0.000000	0.000000
69.436288	23.309249	11.442781	-0.063534	0.177126	2.852320	0.000000	0.007836	0.000000	-0.000026	-0.000001	0.000000	0.000000
69.733611	23.350837	11.345421	-0.137366	0.179977	2.854649	0.000000	0.015296	0.000000	-0.000026	-0.000001	0.000000	0.000000
70.282671	23.100629	11.375067	0.590369	-0.234290	2.839855	0.000000	-0.069108	0.000000	-0.000027	0.000000	0.000000	0.000000
