#ParticleID	Turn	x[m]	xp	y[m]	yp	z[m]	dE[GeV]# s	beta_x	beta_y	alpha_x	alpha_y	D_x	D_y	D_px	D_py	orbit_x	orbit_px	orbit_y	orbit_py
0.300000	11.801381	25.065790	-0.009958	-0.026656	2.618433	0.000000	-0.000110	0.000000	-0.000003	0.000002	0.000000	0.000000
0.601250	11.815071	25.085474	-0.035487	-0.038683	2.618400	0.000000	-0.000110	0.000000	-0.000002	0.000002	0.000000	0.000000
0.898573	11.843664	25.112006	-0.031639	-0.112136	2.618366	0.000000	-0.006531	0.000000	-0.000002	0.000002	0.000000	0.000000
1.339533	12.023552	24.932316	-0.377853	0.518083	2.631780	0.000000	0.067432	0.000000	-0.000001	0.000002	0.000000	0.000000
1.780493	12.515202	24.205134	-0.741330	1.124729	2.677947	0.000000	0.142163	0.000000	-0.000000	0.000002	0.000000	0.000000
2.221453	13.341077	22.963548	-1.138677	1.680201	2.757393	0.000000	0.218513	0.000000	0.000001	0.000002	0.000000	0.000000
2.662413	14.538910	21.264048	-1.588047	2.159225	2.871022	0.000000	0.297352	0.000000	0.000002	0.000002	0.000000	0.000000
3.108373	16.184136	19.159039	-2.114254	2.541140	3.021989	0.000000	0.380068	0.000000	0.000002	0.000002	0.000000	0.000000
3.657433	18.293922	16.794737	-1.705540	1.790369	3.205397	0.000000	0.287031	0.000000	0.000003	0.000002	0.000000	0.000000
4.206493	19.885678	15.180426	-1.176354	1.167121	3.336246	0.000000	0.188902	0.000000	0.000004	0.000002	0.000000	0.000000
4.755553	20.846970	14.201123	-0.564077	0.627006	3.412217	0.000000	0.087424	0.000000	0.000005	0.000002	0.000000	0.000000
5.304613	21.109897	13.787075	0.088044	0.131550	3.431962	0.000000	-0.015606	0.000000	0.000006	0.000001	0.000000	0.000000
5.603185	21.094485	13.693658	0.018731	0.145307	3.429979	0.000000	-0.006639	0.000000	0.000007	0.000001	0.000000	0.000000
5.936519	21.087266	13.605072	0.002924	0.120451	3.427766	0.000000	-0.006639	0.000000	0.000007	0.000001	0.000000	0.000000
6.269852	21.090586	13.533056	-0.012883	0.095595	3.425552	0.000000	-0.006639	0.000000	0.000008	0.000001	0.000000	0.000000
6.604435	21.104516	13.477435	-0.028750	0.070646	3.423330	0.000000	-0.006639	0.000000	0.000008	0.000001	0.000000	0.000000
6.901758	21.125804	13.442018	-0.098044	0.083594	3.421356	0.000000	0.002300	0.000000	0.000009	0.000001	0.000000	0.000000
7.450818	20.873464	13.611214	0.554910	-0.393568	3.394420	0.000000	-0.100270	0.000000	0.000009	0.000001	0.000000	0.000000
7.999878	19.921480	14.316618	1.168669	-0.898764	3.311573	0.000000	-0.201060	0.000000	0.000010	0.000001	0.000000	0.000000
8.548938	18.337097	15.608475	1.699878	-1.467976	3.174286	0.000000	-0.298285	0.000000	0.000010	0.000001	0.000000	0.000000
9.097998	16.232227	17.578801	2.111016	-2.141749	2.984992	0.000000	-0.390218	0.000000	0.000010	0.000000	0.000000	0.000000
9.543958	14.590100	19.334424	1.584304	-1.778337	2.829274	0.000000	-0.308524	0.000000	0.000011	0.000000	0.000000	0.000000
9.984918	13.395854	20.712636	1.134257	-1.335249	2.710471	0.000000	-0.230828	0.000000	0.000011	0.000001	0.000000	0.000000
10.425878	12.574248	21.671695	0.736031	-0.831408	2.625316	0.000000	-0.155761	0.000000	0.000011	0.000001	0.000000	0.000000
10.866838	12.087747	22.167964	0.371432	-0.289738	2.572840	0.000000	-0.082468	0.000000	0.000012	0.000001	0.000000	0.000000
11.309048	11.913991	22.178337	0.052911	0.210672	2.552426	0.000000	-0.016373	0.000000	0.000012	0.000002	0.000000	0.000000
11.606371	11.889968	22.057224	0.027886	0.196671	2.547557	0.000000	-0.016373	0.000000	0.000013	0.000002	0.000000	0.000000
12.086371	11.882591	21.879270	-0.012516	0.174068	2.539697	0.000000	-0.016373	0.000000	0.000014	0.000002	0.000000	0.000000
12.566371	11.913999	21.723015	-0.052918	0.151464	2.531838	0.000000	-0.016373	0.000000	0.000014	0.000002	0.000000	0.000000
13.046371	11.984193	21.588458	-0.093319	0.128861	2.523978	0.000000	-0.016373	0.000000	0.000015	0.000002	0.000000	0.000000
13.526371	12.093172	21.475601	-0.133721	0.106258	2.516118	0.000000	-0.016373	0.000000	0.000016	0.000002	0.000000	0.000000
14.007621	12.241372	21.384234	-0.174227	0.083596	2.508237	0.000000	-0.016373	0.000000	0.000017	0.000002	0.000000	0.000000
14.304943	12.352416	21.338688	-0.168966	0.017275	2.503369	0.000000	-0.022511	0.000000	0.000017	0.000002	0.000000	0.000000
14.745903	12.659902	21.089925	-0.530990	0.544716	2.509068	0.000000	0.048388	0.000000	0.000018	0.000002	0.000000	0.000000
15.186863	13.296115	20.385195	-0.917273	1.047374	2.546122	0.000000	0.119838	0.000000	0.000019	0.000002	0.000000	0.000000
15.627823	14.290122	19.256562	-1.345464	1.502377	2.614953	0.000000	0.192653	0.000000	0.000020	0.000003	0.000000	0.000000
16.068783	15.687335	17.755377	-1.835125	1.889023	2.716346	0.000000	0.267662	0.000000	0.000022	0.000004	0.000000	0.000000
16.514743	17.575254	15.928447	-2.413387	2.190460	2.853148	0.000000	0.346182	0.000000	0.000023	0.000004	0.000000	0.000000
17.063803	20.000157	13.888613	-1.976928	1.546607	3.019502	0.000000	0.258892	0.000000	0.000025	0.000003	0.000000	0.000000
17.612863	21.865792	12.491529	-1.400828	1.012914	3.136595	0.000000	0.167010	0.000000	0.000027	0.000002	0.000000	0.000000
18.161923	23.040382	11.637683	-0.725780	0.551369	3.202352	0.000000	0.072165	0.000000	0.000028	0.000002	0.000000	0.000000
18.710983	23.440958	11.266258	0.000533	0.129098	3.215605	0.000000	-0.023959	0.000000	0.000029	0.000001	0.000000	0.000000
19.009556	23.481022	11.179706	-0.073483	0.131360	3.210959	0.000000	-0.015559	0.000000	0.000029	0.000001	0.000000	0.000000
19.342889	23.534768	11.102243	-0.087756	0.101029	3.205773	0.000000	-0.015559	0.000000	0.000029	0.000001	0.000000	0.000000
19.676223	23.598029	11.045000	-0.102029	0.070699	3.200586	0.000000	-0.015559	0.000000	0.000029	0.000001	0.000000	0.000000
20.010806	23.671390	11.007741	-0.233636	0.094794	3.195400	0.000000	0.000273	0.000000	0.000030	0.000001	0.000000	0.000000
20.308129	23.814259	10.959475	-0.309088	0.096169	3.195480	0.000000	0.008620	0.000000	0.000030	0.000001	0.000000	0.000000
20.857189	23.742923	11.075701	0.438243	-0.309100	3.174008	0.000000	-0.086719	0.000000	0.000030	-0.000000	0.000000	0.000000
21.406249	22.863137	11.646367	1.154619	-0.736385	3.100535	0.000000	-0.180520	0.000000	0.000030	-0.000001	0.000000	0.000000
21.955309	21.237045	12.712119	1.789439	-1.216121	2.976364	0.000000	-0.271119	0.000000	0.000029	-0.000002	0.000000	0.000000
22.504369	18.979507	14.348869	2.297862	-1.782478	2.803698	0.000000	-0.356910	0.000000	0.000028	-0.000003	0.000000	0.000000
22.950329	17.200237	15.818508	1.705970	-1.499068	2.661817	0.000000	-0.279738	0.000000	0.000027	-0.000002	0.000000	0.000000
23.391289	15.925104	16.990351	1.196718	-1.148302	2.554778	0.000000	-0.206208	0.000000	0.000026	-0.000001	0.000000	0.000000
23.832249	15.073376	17.828539	0.742140	-0.745289	2.479615	0.000000	-0.135026	0.000000	0.000025	-0.000001	0.000000	0.000000
24.273209	14.606140	18.294935	0.321468	-0.308367	2.435471	0.000000	-0.065381	0.000000	0.000025	-0.000000	0.000000	0.000000
24.715418	14.502172	18.368073	-0.049048	0.097484	2.421842	0.000000	-0.002419	0.000000	0.000025	0.000000	0.000000	0.000000
25.012741	14.537448	18.314963	-0.069600	0.081143	2.421122	0.000000	-0.002419	0.000000	0.000025	0.000000	0.000000	0.000000
25.346075	14.591528	18.266974	-0.092640	0.062823	2.420316	0.000000	-0.002419	0.000000	0.000025	0.000000	0.000000	0.000000
25.679408	14.660968	18.231199	-0.115680	0.044503	2.419509	0.000000	-0.002419	0.000000	0.000026	0.000000	0.000000	0.000000
26.013991	14.745817	18.207940	-0.019179	-0.121597	2.418675	0.000000	-0.022041	0.000000	0.000026	0.000000	0.000000	0.000000
26.311314	14.763219	18.285174	-0.003155	-0.182997	2.412122	0.000000	-0.027955	0.000000	0.000026	0.000000	0.000000	0.000000
26.752274	14.947866	18.248295	-0.417173	0.266313	2.414897	0.000000	0.040554	0.000000	0.000026	0.000001	0.000000	0.000000
27.193234	15.504637	17.819010	-0.850250	0.703507	2.447954	0.000000	0.109525	0.000000	0.000027	0.000002	0.000000	0.000000
27.634194	16.458968	17.016850	-1.322172	1.108691	2.511671	0.000000	0.179743	0.000000	0.000027	0.000002	0.000000	0.000000
28.075154	17.854461	15.878314	-1.854501	1.463431	2.606772	0.000000	0.252009	0.000000	0.000028	0.000003	0.000000	0.000000
28.521114	19.779111	14.438050	-2.476531	1.752497	2.735943	0.000000	0.327588	0.000000	0.000030	0.000004	0.000000	0.000000
29.070174	22.225330	12.833429	-1.952376	1.187239	2.893158	0.000000	0.244243	0.000000	0.000032	0.000003	0.000000	0.000000
29.619234	24.016365	11.799729	-1.290315	0.706546	3.003353	0.000000	0.156567	0.000000	0.000033	0.000002	0.000000	0.000000
30.168294	25.025709	11.263320	-0.537112	0.276179	3.064575	0.000000	0.066113	0.000000	0.000033	0.000001	0.000000	0.000000
30.717354	25.182064	11.185995	0.254029	-0.134517	3.075737	0.000000	-0.025513	0.000000	0.000033	-0.000001	0.000000	0.000000
31.015927	25.073316	11.256931	0.175975	-0.132286	3.070519	0.000000	-0.017479	0.000000	0.000033	-0.000000	0.000000	0.000000
31.349260	24.960568	11.355165	0.162269	-0.162415	3.064692	0.000000	-0.017479	0.000000	0.000033	-0.000000	0.000000	0.000000
31.682593	24.856957	11.473485	0.148563	-0.192545	3.058866	0.000000	-0.017479	0.000000	0.000033	-0.000000	0.000000	0.000000
32.017177	24.762147	11.612449	0.134805	-0.222788	3.053018	0.000000	-0.017479	0.000000	0.000033	-0.000000	0.000000	0.000000
32.314499	24.685621	11.752919	0.058099	-0.218962	3.047821	0.000000	-0.009518	0.000000	0.000033	-0.000000	0.000000	0.000000
32.863559	24.198837	12.232534	0.823228	-0.659714	3.017729	0.000000	-0.099933	0.000000	0.000032	-0.000001	0.000000	0.000000
33.412619	22.898964	13.218956	1.530208	-1.147455	2.938409	0.000000	-0.188576	0.000000	0.000031	-0.000002	0.000000	0.000000
33.961679	20.877817	14.782446	2.129102	-1.716927	2.811267	0.000000	-0.273874	0.000000	0.000030	-0.000003	0.000000	0.000000
34.510739	18.278162	17.034367	2.577606	-2.408693	2.638558	0.000000	-0.354314	0.000000	0.000027	-0.000004	0.000000	0.000000
34.956699	16.256760	19.048669	1.971329	-2.089226	2.496883	0.000000	-0.281424	0.000000	0.000026	-0.000004	0.000000	0.000000
35.397659	14.749339	20.715080	1.460137	-1.675444	2.388161	0.000000	-0.212167	0.000000	0.000024	-0.000003	0.000000	0.000000
35.838619	13.661739	21.981430	1.015654	-1.185431	2.309417	0.000000	-0.145326	0.000000	0.000023	-0.000002	0.000000	0.000000
36.279579	12.944272	22.790103	0.617574	-0.641481	2.259754	0.000000	-0.080141	0.000000	0.000022	-0.000002	0.000000	0.000000
36.721789	12.563462	23.104616	0.278407	-0.125046	2.238580	0.000000	-0.021357	0.000000	0.000021	-0.000001	0.000000	0.000000
37.019112	12.405490	23.182860	0.252907	-0.138116	2.232231	0.000000	-0.021357	0.000000	0.000021	-0.000001	0.000000	0.000000
37.352445	12.246415	23.279822	0.224319	-0.152769	2.225112	0.000000	-0.021357	0.000000	0.000021	-0.000001	0.000000	0.000000
37.685779	12.106398	23.386552	0.195730	-0.167422	2.217994	0.000000	-0.021357	0.000000	0.000020	-0.000001	0.000000	0.000000
38.020362	11.985023	23.503506	0.167035	-0.182129	2.210849	0.000000	-0.021357	0.000000	0.000020	-0.000001	0.000000	0.000000
38.317684	11.893279	23.615694	0.170695	-0.253102	2.204499	0.000000	-0.026762	0.000000	0.000019	-0.000001	0.000000	0.000000
38.758644	11.894327	23.577317	-0.173082	0.339801	2.206620	0.000000	0.036386	0.000000	0.000019	-0.000001	0.000000	0.000000
39.199604	12.200887	23.020894	-0.524767	0.917242	2.236651	0.000000	0.099949	0.000000	0.000019	-0.000000	0.000000	0.000000
39.640564	12.826966	21.971741	-0.900426	1.452950	2.294934	0.000000	0.164650	0.000000	0.000018	0.000000	0.000000	0.000000
40.081524	13.801165	20.477595	-1.317224	1.922549	2.382134	0.000000	0.231226	0.000000	0.000019	0.000001	0.000000	0.000000
40.527484	15.185572	18.583855	-1.798031	2.305962	2.500715	0.000000	0.300841	0.000000	0.000019	0.000001	0.000000	0.000000
41.076544	16.952086	16.455672	-1.400265	1.592965	2.645375	0.000000	0.225322	0.000000	0.000019	0.000000	0.000000	0.000000
41.625604	18.224575	15.043918	-0.903592	0.993430	2.747411	0.000000	0.145806	0.000000	0.000019	-0.000000	0.000000	0.000000
42.174664	18.913156	14.248039	-0.343094	0.464656	2.805012	0.000000	0.063704	0.000000	0.000019	-0.000001	0.000000	0.000000
42.723724	18.969192	14.011345	0.241639	-0.031022	2.817158	0.000000	-0.019529	0.000000	0.000018	-0.000001	0.000000	0.000000
43.022297	18.859363	14.014374	0.175763	-0.015728	2.813525	0.000000	-0.012169	0.000000	0.000018	-0.000001	0.000000	0.000000
43.502297	18.703224	14.045918	0.149525	-0.049987	2.807685	0.000000	-0.012169	0.000000	0.000017	-0.000001	0.000000	0.000000
43.982297	18.572274	14.110350	0.123288	-0.084246	2.801844	0.000000	-0.012169	0.000000	0.000017	-0.000001	0.000000	0.000000
44.462297	18.466512	14.207671	0.097050	-0.118505	2.796004	0.000000	-0.012169	0.000000	0.000016	-0.000001	0.000000	0.000000
44.942297	18.385938	14.337880	0.070812	-0.152764	2.790164	0.000000	-0.012169	0.000000	0.000015	-0.000001	0.000000	0.000000
45.423547	18.330669	14.501266	-0.046314	-0.115264	2.784325	0.000000	0.001626	0.000000	0.000015	-0.000001	0.000000	0.000000
45.720870	18.363042	14.575985	-0.110543	-0.097960	2.784809	0.000000	0.008901	0.000000	0.000014	-0.000001	0.000000	0.000000
46.269930	18.175248	14.965388	0.450546	-0.615444	2.767134	0.000000	-0.073193	0.000000	0.000014	-0.000002	0.000000	0.000000
46.818990	17.385220	15.943643	0.979809	-1.176764	2.704675	0.000000	-0.153989	0.000000	0.000012	-0.000002	0.000000	0.000000
47.368050	16.048762	17.580430	1.439864	-1.821902	2.598539	0.000000	-0.232054	0.000000	0.000011	-0.000003	0.000000	0.000000
47.917110	14.260274	19.992332	1.798214	-2.596811	2.450610	0.000000	-0.306003	0.000000	0.000010	-0.000003	0.000000	0.000000
48.363070	12.868598	22.136615	1.333474	-2.191216	2.329434	0.000000	-0.237722	0.000000	0.000008	-0.000003	0.000000	0.000000
48.804030	11.872763	23.853374	0.933426	-1.687199	2.239066	0.000000	-0.172545	0.000000	0.000007	-0.000002	0.000000	0.000000
49.244990	11.209670	25.089952	0.576024	-1.106416	2.176978	0.000000	-0.109333	0.000000	0.000006	-0.000002	0.000000	0.000000
49.685950	10.849026	25.790087	0.244939	-0.475292	2.142462	0.000000	-0.047367	0.000000	0.000005	-0.000002	0.000000	0.000000
50.128160	10.774474	25.921637	-0.048650	0.113843	2.135138	0.000000	0.008825	0.000000	0.000004	-0.000002	0.000000	0.000000
50.425482	10.811628	25.857396	-0.076311	0.102225	2.137762	0.000000	0.008825	0.000000	0.000004	-0.000002	0.000000	0.000000
50.758816	10.872838	25.793588	-0.107321	0.089199	2.140704	0.000000	0.008825	0.000000	0.000003	-0.000002	0.000000	0.000000
51.092149	10.954723	25.738464	-0.138332	0.076173	2.143647	0.000000	0.008825	0.000000	0.000003	-0.000002	0.000000	0.000000
51.426732	11.057480	25.692388	-0.079753	-0.145331	2.146578	0.000000	-0.008590	0.000000	0.000002	-0.000002	0.000000	0.000000
51.724055	11.112951	25.782321	-0.079561	-0.220374	2.144025	0.000000	-0.013847	0.000000	0.000001	-0.000002	0.000000	0.000000
52.165015	11.328255	25.689806	-0.410554	0.429380	2.151507	0.000000	0.047811	0.000000	0.000000	-0.000002	0.000000	0.000000
52.605975	11.842604	25.030718	-0.760303	1.059598	2.186272	0.000000	0.110014	0.000000	-0.000000	-0.000002	0.000000	0.000000
53.046935	12.679499	23.835046	-1.144789	1.641605	2.248715	0.000000	0.173469	0.000000	-0.000001	-0.000002	0.000000	0.000000
53.487895	13.877173	22.157192	-1.581577	2.148920	2.339549	0.000000	0.238901	0.000000	-0.000002	-0.000002	0.000000	0.000000
53.933855	15.510881	20.048413	-2.094845	2.559800	2.461313	0.000000	0.307452	0.000000	-0.000003	-0.000002	0.000000	0.000000
54.482915	17.614311	17.675418	-1.713444	1.787634	2.609943	0.000000	0.233145	0.000000	-0.000004	-0.000002	0.000000	0.000000
55.031975	19.229574	16.075877	-1.211013	1.142798	2.716577	0.000000	0.154703	0.000000	-0.000005	-0.000002	0.000000	0.000000
55.581035	20.242576	15.135857	-0.623042	0.579361	2.779323	0.000000	0.073516	0.000000	-0.000006	-0.000002	0.000000	0.000000
56.130095	20.581764	14.788404	0.008937	0.057190	2.797069	0.000000	-0.008974	0.000000	-0.000007	-0.000001	0.000000	0.000000
56.428668	20.612882	14.737261	-0.059379	0.075457	2.796572	0.000000	-0.001665	0.000000	-0.000008	-0.000001	0.000000	0.000000
56.762001	20.657877	14.694539	-0.075607	0.052710	2.796018	0.000000	-0.001665	0.000000	-0.000008	-0.000001	0.000000	0.000000
57.095334	20.713691	14.666982	-0.091835	0.029963	2.795463	0.000000	-0.001665	0.000000	-0.000009	-0.000001	0.000000	0.000000
57.429918	20.780593	14.654571	-0.108124	0.007130	2.794906	0.000000	-0.001665	0.000000	-0.000009	-0.000001	0.000000	0.000000
57.727240	20.849192	14.656364	-0.177078	0.025138	2.794412	0.000000	0.005637	0.000000	-0.000010	-0.000001	0.000000	0.000000
58.276300	20.688003	14.910121	0.468914	-0.490033	2.774864	0.000000	-0.076739	0.000000	-0.000010	-0.000001	0.000000	0.000000
58.825360	19.831507	15.745330	1.081783	-1.040108	2.710395	0.000000	-0.157753	0.000000	-0.000011	-0.000001	0.000000	0.000000
59.374420	18.340203	17.221481	1.618242	-1.664267	2.602147	0.000000	-0.235969	0.000000	-0.000011	-0.000000	0.000000	0.000000
59.923480	16.319430	19.443715	2.040396	-2.406968	2.452042	0.000000	-0.309999	0.000000	-0.000011	-0.000000	0.000000	0.000000
60.369440	14.737842	21.418797	1.518642	-2.003169	2.329088	0.000000	-0.241704	0.000000	-0.000011	-0.000000	0.000000	0.000000
60.810400	13.600464	22.973707	1.070467	-1.509605	2.236957	0.000000	-0.176559	0.000000	-0.000012	-0.000001	0.000000	0.000000
61.251360	12.835361	24.061266	0.671200	-0.947355	2.173083	0.000000	-0.113424	0.000000	-0.000012	-0.000001	0.000000	0.000000
61.692320	12.407578	24.631993	0.302598	-0.342002	2.136738	0.000000	-0.051582	0.000000	-0.000013	-0.000001	0.000000	0.000000
62.134530	12.297626	24.659373	-0.022121	0.218379	2.127512	0.000000	0.004455	0.000000	-0.000013	-0.000002	0.000000	0.000000
62.431853	12.317972	24.533271	-0.046310	0.205746	2.128837	0.000000	0.004455	0.000000	-0.000014	-0.000002	0.000000	0.000000
62.765186	12.357885	24.400828	-0.073428	0.191584	2.130323	0.000000	0.004455	0.000000	-0.000014	-0.000002	0.000000	0.000000
63.098520	12.415876	24.277826	-0.100547	0.177422	2.131809	0.000000	0.004455	0.000000	-0.000015	-0.000002	0.000000	0.000000
63.433103	12.492267	24.163857	-0.127768	0.163207	2.133300	0.000000	0.004455	0.000000	-0.000015	-0.000002	0.000000	0.000000
63.730426	12.575435	24.070562	-0.121113	0.091537	2.134625	0.000000	-0.000781	0.000000	-0.000016	-0.000002	0.000000	0.000000
64.171386	12.842441	23.724764	-0.486696	0.689673	2.147826	0.000000	0.060709	0.000000	-0.000017	-0.000002	0.000000	0.000000
64.612346	13.440411	22.863334	-0.874514	1.256428	2.188268	0.000000	0.122890	0.000000	-0.000018	-0.000002	0.000000	0.000000
65.053306	14.396664	21.525466	-1.302286	1.766018	2.256413	0.000000	0.186471	0.000000	-0.000019	-0.000003	0.000000	0.000000
65.494266	15.754889	19.772031	-1.789555	2.195255	2.353035	0.000000	0.252176	0.000000	-0.000020	-0.000003	0.000000	0.000000
65.940226	17.600302	17.658008	-2.363275	2.525359	2.480809	0.000000	0.321154	0.000000	-0.000022	-0.000004	0.000000	0.000000
66.489286	19.966139	15.293173	-1.920107	1.807128	2.636768	0.000000	0.246097	0.000000	-0.000024	-0.000003	0.000000	0.000000
67.038346	21.767515	13.642154	-1.341312	1.217614	2.750254	0.000000	0.166674	0.000000	-0.000025	-0.000002	0.000000	0.000000
67.587406	22.877192	12.587354	-0.667774	0.714829	2.819256	0.000000	0.084295	0.000000	-0.000026	-0.000002	0.000000	0.000000
68.136466	23.216786	12.053640	0.052933	0.262959	2.842548	0.000000	0.000421	0.000000	-0.000027	-0.000001	0.000000	0.000000
68.435038	23.225249	11.885841	-0.020603	0.267542	2.844892	0.000000	0.007850	0.000000	-0.000027	-0.000001	0.000000	0.000000
68.768372	23.243770	11.717497	-0.034961	0.237490	2.847509	0.000000	0.007850	0.000000	-0.000028	-0.000001	0.000000	0.000000
69.101705	23.271864	11.569187	-0.049320	0.207438	2.850126	0.000000	0.007850	0.000000	-0.000028	-0.000001	0.000000	0.000000
69.436288	23.309689	11.440469	-0.063732	0.177274	2.852752	0.000000	0.007850	0.000000	-0.000028	-0.000001	0.000000	0.000000
69.733611	23.351394	11.343024	-0.137566	0.180112	2.855087	0.000000	0.015312	0.000000	-0.000028	-0.000001	0.000000	0.000000
70.282671	23.101395	11.372484	0.590193	-0.234085	2.840297	0.000000	-0.069106	0.000000	-0.000028	0.000000	0.000000	0.000000
