#ParticleID	Turn	x[m]	xp	y[m]	yp	z[m]	dE[GeV]# s	beta_x	beta_y	alpha_x	alpha_y	D_x	D_y	D_px	D_py	orbit_x	orbit_px	orbit_y	orbit_py
0.300000	11.815251	25.012262	-0.011230	-0.027326	2.618109	0.000000	0.000014	0.000000	-0.000002	0.000001	0.000000	0.000000
0.601250	11.829698	25.032357	-0.036729	-0.039379	2.618113	0.000000	0.000014	0.000000	-0.000002	0.000001	0.000000	0.000000
0.898573	11.859022	25.059310	-0.032815	-0.112728	2.618117	0.000000	-0.006406	0.000000	-0.000001	0.000001	0.000000	0.000000
1.339533	12.040110	24.880756	-0.379410	0.516110	2.631585	0.000000	0.067551	0.000000	-0.000001	0.000001	0.000000	0.000000
1.780493	12.533326	24.155892	-0.743339	1.121466	2.677804	0.000000	0.142278	0.000000	-0.000000	0.000001	0.000000	0.000000
2.221453	13.361204	22.917699	-1.141229	1.675796	2.757299	0.000000	0.218625	0.000000	0.000000	0.000001	0.000000	0.000000
2.662413	14.561568	21.222515	-1.591258	2.153879	2.870977	0.000000	0.297462	0.000000	0.000001	0.000001	0.000000	0.000000
3.108373	16.210010	19.122608	-2.118278	2.535094	3.021994	0.000000	0.380177	0.000000	0.000001	0.000001	0.000000	0.000000
3.657433	18.323858	16.764114	-1.708872	1.785775	3.205462	0.000000	0.287139	0.000000	0.000002	0.000001	0.000000	0.000000
4.206493	19.918783	15.154203	-1.178759	1.163654	3.336370	0.000000	0.189007	0.000000	0.000002	0.000001	0.000000	0.000000
4.755553	20.882126	14.178206	-0.565385	0.624417	3.412398	0.000000	0.087524	0.000000	0.000003	0.000001	0.000000	0.000000
5.304613	21.145841	13.766604	0.087925	0.129656	3.432196	0.000000	-0.015512	0.000000	0.000003	0.000001	0.000000	0.000000
5.603185	21.130549	13.674356	0.018542	0.143341	3.430242	0.000000	-0.006545	0.000000	0.000004	0.000001	0.000000	0.000000
5.936519	21.123447	13.587087	0.002761	0.118464	3.428060	0.000000	-0.006545	0.000000	0.000004	0.000001	0.000000	0.000000
6.269852	21.126867	13.516404	-0.013019	0.093586	3.425878	0.000000	-0.006545	0.000000	0.000004	0.000001	0.000000	0.000000
6.604435	21.140878	13.462134	-0.028858	0.068616	3.423688	0.000000	-0.006545	0.000000	0.000004	0.000001	0.000000	0.000000
6.901758	21.162224	13.427929	-0.098225	0.081509	3.421741	0.000000	0.002395	0.000000	0.000005	0.000001	0.000000	0.000000
7.450818	20.909412	13.599207	0.555944	-0.395297	3.394855	0.000000	-0.100187	0.000000	0.000005	0.000001	0.000000	0.000000
7.999878	19.955656	14.306371	1.170844	-0.900260	3.312049	0.000000	-0.200993	0.000000	0.000005	0.000001	0.000000	0.000000
8.548938	18.368325	15.599792	1.703041	-1.469346	3.174795	0.000000	-0.298233	0.000000	0.000006	0.000000	0.000000	0.000000
9.097998	16.259539	17.571597	2.114943	-2.143090	2.985525	0.000000	-0.390184	0.000000	0.000006	0.000000	0.000000	0.000000
9.543958	14.614290	19.328581	1.587403	-1.780036	2.829826	0.000000	-0.308476	0.000000	0.000006	0.000000	0.000000	0.000000
9.984918	13.417620	20.708418	1.136676	-1.337224	2.711047	0.000000	-0.230765	0.000000	0.000006	0.000000	0.000000	0.000000
10.425878	12.594140	21.669308	0.737880	-0.833570	2.625923	0.000000	-0.155683	0.000000	0.000006	0.000001	0.000000	0.000000
10.866838	12.106227	22.167531	0.372797	-0.291989	2.573486	0.000000	-0.082374	0.000000	0.000007	0.000001	0.000000	0.000000
11.309048	11.931455	22.179896	0.053897	0.208429	2.553118	0.000000	-0.016263	0.000000	0.000007	0.000001	0.000000	0.000000
11.606371	11.906835	22.060114	0.028906	0.194441	2.548282	0.000000	-0.016263	0.000000	0.000007	0.000001	0.000000	0.000000
12.086371	11.898452	21.884290	-0.011441	0.171860	2.540475	0.000000	-0.016263	0.000000	0.000008	0.000001	0.000000	0.000000
12.566371	11.928802	21.730143	-0.051788	0.149278	2.532668	0.000000	-0.016263	0.000000	0.000008	0.000001	0.000000	0.000000
13.046371	11.997885	21.597675	-0.092134	0.126697	2.524861	0.000000	-0.016263	0.000000	0.000009	0.000001	0.000000	0.000000
13.526371	12.105700	21.486885	-0.132481	0.104116	2.517054	0.000000	-0.016263	0.000000	0.000009	0.000001	0.000000	0.000000
14.007621	12.252680	21.397569	-0.172933	0.081475	2.509227	0.000000	-0.016263	0.000000	0.000010	0.000001	0.000000	0.000000
14.304943	12.362944	21.353279	-0.167609	0.015129	2.504391	0.000000	-0.022404	0.000000	0.000010	0.000001	0.000000	0.000000
14.745903	12.669324	21.106222	-0.529828	0.543010	2.510144	0.000000	0.048522	0.000000	0.000010	0.000001	0.000000	0.000000
15.186863	13.304578	20.402775	-0.916253	1.046184	2.547263	0.000000	0.120000	0.000000	0.000011	0.000001	0.000000	0.000000
15.627823	14.297729	19.274942	-1.344539	1.501758	2.616174	0.000000	0.192846	0.000000	0.000012	0.000002	0.000000	0.000000
16.068783	15.694152	17.774041	-1.834253	1.889003	2.717659	0.000000	0.267888	0.000000	0.000012	0.000002	0.000000	0.000000
16.514743	17.581302	15.946858	-2.412526	2.191045	2.854570	0.000000	0.346443	0.000000	0.000013	0.000002	0.000000	0.000000
17.063803	20.005052	13.906624	-1.975703	1.546755	3.021055	0.000000	0.259105	0.000000	0.000015	0.000002	0.000000	0.000000
17.612863	21.869181	12.509609	-1.399326	1.012638	3.138252	0.000000	0.167171	0.000000	0.000016	0.000001	0.000000	0.000000
18.161923	23.042018	11.656307	-0.724108	0.550649	3.204082	0.000000	0.072272	0.000000	0.000016	0.000001	0.000000	0.000000
18.710983	23.440718	11.285939	0.002257	0.127881	3.217378	0.000000	-0.023910	0.000000	0.000017	0.000000	0.000000	0.000000
19.009556	23.479754	11.200064	-0.071762	0.130255	3.212749	0.000000	-0.015504	0.000000	0.000017	0.000000	0.000000	0.000000
19.342889	23.532352	11.123317	-0.086032	0.099988	3.207581	0.000000	-0.015504	0.000000	0.000017	0.000000	0.000000	0.000000
19.676223	23.594463	11.066747	-0.100301	0.069721	3.202412	0.000000	-0.015504	0.000000	0.000017	0.000000	0.000000	0.000000
20.010806	23.666666	11.030120	-0.231883	0.093991	3.197245	0.000000	0.000337	0.000000	0.000017	0.000001	0.000000	0.000000
20.308129	23.808490	10.982314	-0.307319	0.095488	3.197344	0.000000	0.008690	0.000000	0.000017	0.000001	0.000000	0.000000
20.857189	23.735326	11.099641	0.439784	-0.310437	3.175894	0.000000	-0.086710	0.000000	0.000017	0.000000	0.000000	0.000000
21.406249	22.854025	11.672176	1.155823	-0.738473	3.102409	0.000000	-0.180572	0.000000	0.000017	-0.000001	0.000000	0.000000
21.955309	21.226837	12.740699	1.790221	-1.219109	2.978192	0.000000	-0.271231	0.000000	0.000017	-0.000001	0.000000	0.000000
22.504369	18.968699	14.381318	2.298166	-1.786580	2.805449	0.000000	-0.357079	0.000000	0.000016	-0.000002	0.000000	0.000000
22.950329	17.189083	15.854284	1.706447	-1.502395	2.663501	0.000000	-0.279864	0.000000	0.000015	-0.000001	0.000000	0.000000
23.391289	15.913447	17.028665	1.197388	-1.150707	2.556416	0.000000	-0.206290	0.000000	0.000015	-0.000001	0.000000	0.000000
23.832249	15.061032	17.868526	0.743034	-0.746663	2.481226	0.000000	-0.135066	0.000000	0.000015	-0.000000	0.000000	0.000000
24.273209	14.592894	18.335653	0.322627	-0.308647	2.437073	0.000000	-0.065381	0.000000	0.000015	-0.000000	0.000000	0.000000
24.715418	14.487764	18.408547	-0.047603	0.098207	2.423453	0.000000	-0.002382	0.000000	0.000015	0.000000	0.000000	0.000000
25.012741	14.522187	18.354998	-0.068172	0.081900	2.422745	0.000000	-0.002382	0.000000	0.000015	0.000000	0.000000	0.000000
25.346075	14.575321	18.306492	-0.091232	0.063618	2.421951	0.000000	-0.002382	0.000000	0.000015	0.000000	0.000000	0.000000
25.679408	14.643830	18.270174	-0.114292	0.045335	2.421157	0.000000	-0.002382	0.000000	0.000015	0.000000	0.000000	0.000000
26.013991	14.727756	18.246347	-0.017958	-0.121039	2.420335	0.000000	-0.022017	0.000000	0.000015	0.000000	0.000000	0.000000
26.311314	14.744439	18.323238	-0.002000	-0.182500	2.413789	0.000000	-0.027936	0.000000	0.000015	0.000000	0.000000	0.000000
26.752274	14.927861	18.285466	-0.415540	0.267833	2.416582	0.000000	0.040617	0.000000	0.000015	0.000000	0.000000	0.000000
27.193234	15.482956	17.854413	-0.848066	0.705980	2.449677	0.000000	0.109632	0.000000	0.000015	0.000001	0.000000	0.000000
27.634194	16.435082	17.049692	-1.319338	1.112005	2.513451	0.000000	0.179895	0.000000	0.000016	0.000001	0.000000	0.000000
28.075154	17.827741	15.907916	-1.850886	1.467435	2.608630	0.000000	0.252208	0.000000	0.000017	0.000002	0.000000	0.000000
28.521114	19.748755	14.463838	-2.471962	1.757010	2.737901	0.000000	0.327836	0.000000	0.000017	0.000002	0.000000	0.000000
29.070174	22.190373	12.854842	-1.948619	1.190743	2.895235	0.000000	0.244426	0.000000	0.000019	0.000002	0.000000	0.000000
29.619234	23.977853	11.817732	-1.287635	0.709290	3.005512	0.000000	0.156681	0.000000	0.000019	0.000001	0.000000	0.000000
30.168294	24.984935	11.278636	-0.535699	0.278358	3.066778	0.000000	0.066156	0.000000	0.000020	0.000000	0.000000	0.000000
30.717354	25.140484	11.199156	0.254076	-0.132748	3.077944	0.000000	-0.025541	0.000000	0.000020	-0.000000	0.000000	0.000000
31.015927	25.031654	11.269001	0.176102	-0.130437	3.072719	0.000000	-0.017501	0.000000	0.000019	-0.000000	0.000000	0.000000
31.349260	24.918829	11.365986	0.162372	-0.160520	3.066886	0.000000	-0.017501	0.000000	0.000019	-0.000000	0.000000	0.000000
31.682593	24.815158	11.483027	0.148643	-0.190603	3.061052	0.000000	-0.017501	0.000000	0.000019	-0.000000	0.000000	0.000000
32.017177	24.720302	11.620675	0.134862	-0.220798	3.055197	0.000000	-0.017501	0.000000	0.000019	-0.000000	0.000000	0.000000
32.314499	24.643748	11.759950	0.058236	-0.216910	3.049994	0.000000	-0.009533	0.000000	0.000019	-0.000000	0.000000	0.000000
32.863559	24.157576	12.237370	0.821984	-0.657746	3.019875	0.000000	-0.100018	0.000000	0.000019	-0.000001	0.000000	0.000000
33.412619	22.859792	13.221613	1.527670	-1.145431	2.940489	0.000000	-0.188729	0.000000	0.000018	-0.000001	0.000000	0.000000
33.961679	20.842065	14.782783	2.125449	-1.714703	2.813244	0.000000	-0.274093	0.000000	0.000017	-0.000002	0.000000	0.000000
34.510739	18.246918	17.032080	2.573097	-2.406110	2.640397	0.000000	-0.354594	0.000000	0.000016	-0.000003	0.000000	0.000000
34.956699	16.229096	19.043989	1.967783	-2.086463	2.498606	0.000000	-0.281658	0.000000	0.000015	-0.000002	0.000000	0.000000
35.397659	14.724441	20.707930	1.457384	-1.672629	2.389790	0.000000	-0.212358	0.000000	0.000014	-0.000002	0.000000	0.000000
35.838619	13.638967	21.971823	1.013569	-1.182692	2.310970	0.000000	-0.145476	0.000000	0.000014	-0.000001	0.000000	0.000000
36.279579	12.923081	22.778160	0.616061	-0.638944	2.261250	0.000000	-0.080252	0.000000	0.000013	-0.000001	0.000000	0.000000
36.721789	12.543382	23.090562	0.277350	-0.122796	2.240035	0.000000	-0.021433	0.000000	0.000013	-0.000001	0.000000	0.000000
37.019112	12.386046	23.167468	0.251824	-0.135867	2.233662	0.000000	-0.021433	0.000000	0.000012	-0.000001	0.000000	0.000000
37.352445	12.227704	23.262930	0.223205	-0.150520	2.226518	0.000000	-0.021433	0.000000	0.000012	-0.000001	0.000000	0.000000
37.685779	12.088440	23.368162	0.194586	-0.165174	2.219374	0.000000	-0.021433	0.000000	0.000012	-0.000001	0.000000	0.000000
38.020362	11.967840	23.483612	0.165860	-0.179882	2.212203	0.000000	-0.021433	0.000000	0.000012	-0.000001	0.000000	0.000000
38.317684	11.876802	23.594464	0.169456	-0.250808	2.205830	0.000000	-0.026842	0.000000	0.000011	-0.000001	0.000000	0.000000
38.758644	11.878780	23.554319	-0.173959	0.341501	2.207923	0.000000	0.036340	0.000000	0.000011	-0.000000	0.000000	0.000000
39.199604	12.185969	22.996689	-0.525321	0.918271	2.237940	0.000000	0.099936	0.000000	0.000011	-0.000000	0.000000	0.000000
39.640564	12.812404	21.946944	-0.900684	1.453260	2.296225	0.000000	0.164670	0.000000	0.000011	0.000000	0.000000	0.000000
40.081524	13.786704	20.452847	-1.317196	1.922127	2.383441	0.000000	0.231280	0.000000	0.000011	0.000000	0.000000	0.000000
40.527484	15.170956	18.559808	-1.797714	2.304822	2.502054	0.000000	0.300929	0.000000	0.000011	0.000001	0.000000	0.000000
41.076544	16.937443	16.432511	-1.400532	1.592481	2.646750	0.000000	0.225366	0.000000	0.000011	0.000000	0.000000	0.000000
41.625604	18.210538	15.020946	-0.904424	0.993569	2.748798	0.000000	0.145805	0.000000	0.000012	-0.000000	0.000000	0.000000
42.174664	18.900317	14.224570	-0.344431	0.465427	2.806387	0.000000	0.063658	0.000000	0.000011	-0.000000	0.000000	0.000000
42.723724	18.958058	13.986659	0.239890	-0.029564	2.818495	0.000000	-0.019618	0.000000	0.000011	-0.000001	0.000000	0.000000
43.022297	18.849258	13.988867	0.174041	-0.014371	2.814837	0.000000	-0.012255	0.000000	0.000011	-0.000001	0.000000	0.000000
43.502297	18.694772	14.019137	0.147804	-0.048691	2.808955	0.000000	-0.012255	0.000000	0.000010	-0.000001	0.000000	0.000000
43.982297	18.565473	14.082354	0.121568	-0.083011	2.803073	0.000000	-0.012255	0.000000	0.000010	-0.000001	0.000000	0.000000
44.462297	18.461362	14.178518	0.095331	-0.117331	2.797191	0.000000	-0.012255	0.000000	0.000010	-0.000001	0.000000	0.000000
44.942297	18.382437	14.307629	0.069095	-0.151651	2.791309	0.000000	-0.012255	0.000000	0.000009	-0.000001	0.000000	0.000000
45.423547	18.328819	14.469974	-0.048021	-0.114367	2.785430	0.000000	0.001546	0.000000	0.000009	-0.000001	0.000000	0.000000
45.720870	18.362209	14.544171	-0.112254	-0.097185	2.785889	0.000000	0.008825	0.000000	0.000009	-0.000001	0.000000	0.000000
46.269930	18.176294	14.932189	0.448855	-0.613682	2.768162	0.000000	-0.073304	0.000000	0.000008	-0.000001	0.000000	0.000000
46.818990	17.388056	15.907914	0.978260	-1.173889	2.705633	0.000000	-0.154132	0.000000	0.000007	-0.000001	0.000000	0.000000
47.368050	16.053171	17.540843	1.438565	-1.817710	2.599410	0.000000	-0.232227	0.000000	0.000007	-0.000001	0.000000	0.000000
47.917110	14.265931	19.947287	1.797257	-2.591003	2.451378	0.000000	-0.306202	0.000000	0.000006	-0.000002	0.000000	0.000000
48.363070	12.875109	22.086823	1.332507	-2.186425	2.330117	0.000000	-0.237902	0.000000	0.000005	-0.000002	0.000000	0.000000
48.804030	11.880147	23.799886	0.932406	-1.683640	2.239672	0.000000	-0.172709	0.000000	0.000004	-0.000001	0.000000	0.000000
49.244990	11.217996	25.033931	0.574903	-1.104251	2.177515	0.000000	-0.109482	0.000000	0.000004	-0.000001	0.000000	0.000000
49.685950	10.858403	25.732809	0.243667	-0.474619	2.142936	0.000000	-0.047503	0.000000	0.000003	-0.000001	0.000000	0.000000
50.128160	10.785066	25.864439	-0.050107	0.113133	2.135554	0.000000	0.008699	0.000000	0.000003	-0.000001	0.000000	0.000000
50.425482	10.823078	25.800627	-0.077744	0.101490	2.138140	0.000000	0.008699	0.000000	0.000002	-0.000001	0.000000	0.000000
50.758816	10.885236	25.737318	-0.108728	0.088437	2.141040	0.000000	0.008699	0.000000	0.000002	-0.000001	0.000000	0.000000
51.092149	10.968050	25.682710	-0.139713	0.075385	2.143940	0.000000	0.008699	0.000000	0.000002	-0.000001	0.000000	0.000000
51.426732	11.071722	25.637169	-0.080993	-0.145698	2.146829	0.000000	-0.008718	0.000000	0.000001	-0.000001	0.000000	0.000000
51.724055	11.127921	25.727329	-0.080734	-0.220632	2.144238	0.000000	-0.013976	0.000000	0.000001	-0.000001	0.000000	0.000000
52.165015	11.344418	25.635683	-0.412096	0.427674	2.151664	0.000000	0.047687	0.000000	0.000000	-0.000001	0.000000	0.000000
52.605975	11.860316	24.978712	-0.762286	1.056522	2.186375	0.000000	0.109893	0.000000	-0.000000	-0.000001	0.000000	0.000000
53.046935	12.699186	23.786306	-1.147302	1.637299	2.248766	0.000000	0.173351	0.000000	-0.000001	-0.000001	0.000000	0.000000
53.487895	13.899352	22.112721	-1.584735	2.143581	2.339547	0.000000	0.238783	0.000000	-0.000001	-0.000001	0.000000	0.000000
53.933855	15.536220	20.009079	-2.098800	2.553668	2.461258	0.000000	0.307334	0.000000	-0.000002	-0.000001	0.000000	0.000000
54.482915	17.643644	17.641947	-1.716720	1.783026	2.609823	0.000000	0.233030	0.000000	-0.000002	-0.000001	0.000000	0.000000
55.031975	19.262024	16.046783	-1.213380	1.139386	2.716394	0.000000	0.154592	0.000000	-0.000003	-0.000001	0.000000	0.000000
55.581035	20.277047	15.109968	-0.624332	0.576901	2.779081	0.000000	0.073413	0.000000	-0.000003	-0.000001	0.000000	0.000000
56.130095	20.617015	14.764775	0.008815	0.055508	2.796772	0.000000	-0.009069	0.000000	-0.000004	-0.000001	0.000000	0.000000
56.428668	20.648252	14.714683	-0.059567	0.073686	2.796247	0.000000	-0.001761	0.000000	-0.000004	-0.000001	0.000000	0.000000
56.762001	20.693364	14.673151	-0.075767	0.050910	2.795660	0.000000	-0.001761	0.000000	-0.000005	-0.000001	0.000000	0.000000
57.095334	20.749275	14.646803	-0.091968	0.028134	2.795073	0.000000	-0.001761	0.000000	-0.000005	-0.000001	0.000000	0.000000
57.429918	20.816258	14.635626	-0.108230	0.005272	2.794484	0.000000	-0.001761	0.000000	-0.000005	-0.000001	0.000000	0.000000
57.727240	20.884913	14.638531	-0.177251	0.023206	2.793960	0.000000	0.005539	0.000000	-0.000005	-0.000001	0.000000	0.000000
58.276300	20.723256	14.894140	0.469933	-0.491494	2.774363	0.000000	-0.076821	0.000000	-0.000006	-0.000001	0.000000	0.000000
58.825360	19.865014	15.730744	1.083924	-1.041203	2.709853	0.000000	-0.157818	0.000000	-0.000006	-0.000000	0.000000	0.000000
59.374420	18.370811	17.207933	1.621351	-1.665074	2.601575	0.000000	-0.236016	0.000000	-0.000006	-0.000000	0.000000	0.000000
59.923480	16.346188	19.430922	2.044255	-2.407544	2.451449	0.000000	-0.310027	0.000000	-0.000006	-0.000000	0.000000	0.000000
60.369440	14.761532	21.406735	1.521690	-2.004227	2.328478	0.000000	-0.241748	0.000000	-0.000006	-0.000000	0.000000	0.000000
60.810400	13.621767	22.962772	1.072850	-1.511093	2.236325	0.000000	-0.176619	0.000000	-0.000007	-0.000000	0.000000	0.000000
61.251360	12.854815	24.051810	0.673026	-0.949206	2.172420	0.000000	-0.113501	0.000000	-0.000007	-0.000001	0.000000	0.000000
61.692320	12.425636	24.624298	0.303951	-0.344131	2.136037	0.000000	-0.051676	0.000000	-0.000007	-0.000001	0.000000	0.000000
62.134530	12.314673	24.653650	-0.021138	0.216085	2.126766	0.000000	0.004344	0.000000	-0.000008	-0.000001	0.000000	0.000000
62.431853	12.334425	24.528909	-0.045293	0.203462	2.128058	0.000000	0.004344	0.000000	-0.000008	-0.000001	0.000000	0.000000
62.765186	12.373647	24.397985	-0.072373	0.189310	2.129506	0.000000	0.004344	0.000000	-0.000008	-0.000001	0.000000	0.000000
63.098520	12.430922	24.276495	-0.099453	0.175158	2.130955	0.000000	0.004344	0.000000	-0.000008	-0.000001	0.000000	0.000000
63.433103	12.506567	24.164038	-0.126635	0.160953	2.132409	0.000000	0.004344	0.000000	-0.000009	-0.000001	0.000000	0.000000
63.730426	12.589051	24.072081	-0.119914	0.089293	2.133701	0.000000	-0.000889	0.000000	-0.000009	-0.000001	0.000000	0.000000
64.171386	12.855126	23.728226	-0.485774	0.687527	2.146849	0.000000	0.060577	0.000000	-0.000010	-0.000001	0.000000	0.000000
64.612346	13.452390	22.868609	-0.873828	1.254479	2.187226	0.000000	0.122732	0.000000	-0.000010	-0.000001	0.000000	0.000000
65.053306	14.408131	21.532340	-1.301804	1.764353	2.255294	0.000000	0.186285	0.000000	-0.000011	-0.000002	0.000000	0.000000
65.494266	15.766013	19.780219	-1.789256	2.193951	2.351827	0.000000	0.251959	0.000000	-0.000012	-0.000002	0.000000	0.000000
65.940226	17.611237	17.667173	-2.363146	2.524479	2.479497	0.000000	0.320905	0.000000	-0.000013	-0.000002	0.000000	0.000000
66.489286	19.976661	15.303336	-1.919487	1.806178	2.635330	0.000000	0.245892	0.000000	-0.000014	-0.000002	0.000000	0.000000
67.038346	21.777107	13.653430	-1.340246	1.216526	2.748717	0.000000	0.166518	0.000000	-0.000015	-0.000001	0.000000	0.000000
67.587406	22.885401	12.599934	-0.666336	0.713526	2.817646	0.000000	0.084190	0.000000	-0.000015	-0.000001	0.000000	0.000000
68.136466	23.223259	12.067811	0.054640	0.261348	2.840894	0.000000	0.000369	0.000000	-0.000016	-0.000000	0.000000	0.000000
68.435038	23.230708	11.900938	-0.018903	0.266019	2.843221	0.000000	0.007793	0.000000	-0.000016	-0.000000	0.000000	0.000000
68.768372	23.248095	11.733589	-0.033257	0.236028	2.845819	0.000000	0.007793	0.000000	-0.000016	-0.000000	0.000000	0.000000
69.101705	23.275051	11.586234	-0.047611	0.206037	2.848417	0.000000	0.007793	0.000000	-0.000016	-0.000000	0.000000	0.000000
69.436288	23.311731	11.458433	-0.062019	0.175933	2.851024	0.000000	0.007793	0.000000	-0.000016	-0.000000	0.000000	0.000000
69.733611	23.352417	11.361769	-0.135846	0.178873	2.853341	0.000000	0.015249	0.000000	-0.000016	-0.000001	0.000000	0.000000
70.282671	23.100526	11.392883	0.591898	-0.235875	2.838532	0.000000	-0.069112	0.000000	-0.000016	0.000000	0.000000	0.000000
