#ParticleID	Turn	x[m]	xp	y[m]	yp	z[m]	dE[GeV]# s	beta_x	beta_y	alpha_x	alpha_y	D_x	D_y	D_px	D_py	orbit_x	orbit_px	orbit_y	orbit_py
0.300000	11.809765	25.034316	-0.010655	-0.027084	2.618165	0.000000	-0.000009	0.000000	-0.000001	0.000001	0.000000	0.000000
0.601250	11.823870	25.054262	-0.036167	-0.039127	2.618162	0.000000	-0.000009	0.000000	-0.000001	0.000001	0.000000	0.000000
0.898573	11.852862	25.081062	-0.032279	-0.112518	2.618159	0.000000	-0.006430	0.000000	-0.000000	0.000001	0.000000	0.000000
1.339533	12.033411	24.902069	-0.378720	0.516891	2.631616	0.000000	0.067529	0.000000	0.000000	0.000001	0.000000	0.000000
1.780493	12.525940	24.176277	-0.742463	1.122782	2.677825	0.000000	0.142256	0.000000	0.000001	0.000002	0.000000	0.000000
2.221453	13.352949	22.936709	-1.140127	1.677587	2.757311	0.000000	0.218604	0.000000	0.000002	0.000002	0.000000	0.000000
2.662413	14.552224	21.239766	-1.589881	2.156063	2.870980	0.000000	0.297441	0.000000	0.000002	0.000002	0.000000	0.000000
3.108373	16.199290	19.137771	-2.116559	2.537573	3.021987	0.000000	0.380156	0.000000	0.000003	0.000002	0.000000	0.000000
3.657433	18.311395	16.776898	-1.707434	1.787654	3.205443	0.000000	0.287118	0.000000	0.000004	0.000002	0.000000	0.000000
4.206493	19.904942	15.165191	-1.177704	1.165066	3.336340	0.000000	0.188988	0.000000	0.000005	0.000001	0.000000	0.000000
4.755553	20.867371	14.187852	-0.564787	0.625463	3.412357	0.000000	0.087505	0.000000	0.000006	0.000001	0.000000	0.000000
5.304613	21.130701	13.775268	0.088024	0.130410	3.432145	0.000000	-0.015529	0.000000	0.000006	0.000001	0.000000	0.000000
5.603185	21.115329	13.682554	0.018672	0.144125	3.430186	0.000000	-0.006562	0.000000	0.000007	0.000001	0.000000	0.000000
5.936519	21.108145	13.594759	0.002880	0.119257	3.427998	0.000000	-0.006562	0.000000	0.000007	0.000001	0.000000	0.000000
6.269852	21.111489	13.523544	-0.012912	0.094389	3.425810	0.000000	-0.006562	0.000000	0.000007	0.000001	0.000000	0.000000
6.604435	21.125433	13.468733	-0.028763	0.069428	3.423614	0.000000	-0.006562	0.000000	0.000008	0.000001	0.000000	0.000000
6.901758	21.146725	13.434043	-0.098098	0.082345	3.421662	0.000000	0.002377	0.000000	0.000008	0.000001	0.000000	0.000000
7.450818	20.894059	13.604493	0.555553	-0.394618	3.394766	0.000000	-0.100203	0.000000	0.000008	0.000001	0.000000	0.000000
7.999878	19.941007	14.310974	1.169962	-0.899688	3.311954	0.000000	-0.201005	0.000000	0.000009	0.000001	0.000000	0.000000
8.548938	18.354886	15.603808	1.701730	-1.468841	3.174693	0.000000	-0.298242	0.000000	0.000009	0.000000	0.000000	0.000000
9.097998	16.247733	17.575080	2.113297	-2.142617	2.985419	0.000000	-0.390189	0.000000	0.000009	-0.000000	0.000000	0.000000
9.543958	14.603790	19.331569	1.586110	-1.779405	2.829717	0.000000	-0.308484	0.000000	0.000009	0.000000	0.000000	0.000000
9.984918	13.408128	20.710792	1.135674	-1.336465	2.710933	0.000000	-0.230777	0.000000	0.000009	0.000000	0.000000	0.000000
10.425878	12.585420	21.670968	0.737124	-0.832718	2.625804	0.000000	-0.155697	0.000000	0.000009	0.000001	0.000000	0.000000
10.866838	12.098078	22.168412	0.372252	-0.291082	2.573360	0.000000	-0.082391	0.000000	0.000010	0.000001	0.000000	0.000000
11.309048	11.923704	22.179966	0.053519	0.209350	2.552983	0.000000	-0.016284	0.000000	0.000010	0.000001	0.000000	0.000000
11.606371	11.899315	22.059638	0.028512	0.195358	2.548141	0.000000	-0.016284	0.000000	0.000011	0.000001	0.000000	0.000000
12.086371	11.891322	21.882937	-0.011860	0.172768	2.540324	0.000000	-0.016284	0.000000	0.000011	0.000001	0.000000	0.000000
12.566371	11.922085	21.727923	-0.052231	0.150178	2.532508	0.000000	-0.016284	0.000000	0.000012	0.000001	0.000000	0.000000
13.046371	11.991605	21.594595	-0.092602	0.127589	2.524691	0.000000	-0.016284	0.000000	0.000012	0.000001	0.000000	0.000000
13.526371	12.099881	21.482952	-0.132973	0.104999	2.516874	0.000000	-0.016284	0.000000	0.000013	0.000001	0.000000	0.000000
14.007621	12.247347	21.392790	-0.173450	0.082351	2.509037	0.000000	-0.016284	0.000000	0.000013	0.000001	0.000000	0.000000
14.304943	12.357923	21.347981	-0.168155	0.016014	2.504195	0.000000	-0.022424	0.000000	0.000014	0.000001	0.000000	0.000000
14.745903	12.664740	21.100212	-0.530277	0.543733	2.509938	0.000000	0.048497	0.000000	0.000014	0.000001	0.000000	0.000000
15.186863	13.300356	20.396210	-0.916626	1.046712	2.547045	0.000000	0.119970	0.000000	0.000015	0.000002	0.000000	0.000000
15.627823	14.293809	19.268007	-1.344853	1.502067	2.615940	0.000000	0.192810	0.000000	0.000016	0.000002	0.000000	0.000000
16.068783	15.690489	17.766935	-1.834523	1.889079	2.717408	0.000000	0.267845	0.000000	0.000017	0.000003	0.000000	0.000000
16.514743	17.577865	15.939790	-2.412764	2.190883	2.854299	0.000000	0.346394	0.000000	0.000018	0.000003	0.000000	0.000000
17.063803	20.001976	13.899644	-1.976120	1.546754	3.020759	0.000000	0.259065	0.000000	0.000020	0.000003	0.000000	0.000000
17.612863	21.866648	12.502544	-1.399891	1.012796	3.137936	0.000000	0.167141	0.000000	0.000021	0.000002	0.000000	0.000000
18.161923	23.040169	11.648976	-0.724782	0.550978	3.203753	0.000000	0.072252	0.000000	0.000022	0.000001	0.000000	0.000000
18.710983	23.439647	11.278143	0.001523	0.128405	3.217041	0.000000	-0.023918	0.000000	0.000022	0.000000	0.000000	0.000000
19.009556	23.479118	11.191975	-0.072492	0.130733	3.212409	0.000000	-0.015514	0.000000	0.000023	0.000001	0.000000	0.000000
19.342889	23.532204	11.114917	-0.086764	0.100441	3.207237	0.000000	-0.015514	0.000000	0.000023	0.000001	0.000000	0.000000
19.676223	23.594804	11.058054	-0.101036	0.070149	3.202065	0.000000	-0.015514	0.000000	0.000023	0.000001	0.000000	0.000000
20.010806	23.667500	11.021149	-0.232623	0.094349	3.196894	0.000000	0.000325	0.000000	0.000023	0.000001	0.000000	0.000000
20.308129	23.809765	10.973138	-0.308063	0.095796	3.196991	0.000000	0.008676	0.000000	0.000023	0.000001	0.000000	0.000000
20.857189	23.737391	11.089984	0.439098	-0.309864	3.175536	0.000000	-0.086712	0.000000	0.000023	-0.000000	0.000000	0.000000
21.406249	22.856788	11.661727	1.155244	-0.737595	3.102053	0.000000	-0.180562	0.000000	0.000023	-0.000001	0.000000	0.000000
21.955309	21.230159	12.729090	1.789788	-1.217863	2.977846	0.000000	-0.271210	0.000000	0.000022	-0.000002	0.000000	0.000000
22.504369	18.972400	14.368100	2.297912	-1.784877	2.805117	0.000000	-0.357047	0.000000	0.000021	-0.000002	0.000000	0.000000
22.950329	17.193031	15.839681	1.706147	-1.501005	2.663182	0.000000	-0.279840	0.000000	0.000021	-0.000002	0.000000	0.000000
23.391289	15.917685	17.012997	1.197027	-1.149691	2.556106	0.000000	-0.206274	0.000000	0.000020	-0.000001	0.000000	0.000000
23.832249	15.065620	17.852144	0.742597	-0.746068	2.480921	0.000000	-0.135058	0.000000	0.000019	-0.000001	0.000000	0.000000
24.273209	14.597908	18.318942	0.322094	-0.308499	2.436770	0.000000	-0.065381	0.000000	0.000019	-0.000000	0.000000	0.000000
24.715418	14.493301	18.391908	-0.048245	0.097943	2.423148	0.000000	-0.002389	0.000000	0.000019	0.000000	0.000000	0.000000
25.012741	14.528103	18.338519	-0.068807	0.081622	2.422438	0.000000	-0.002389	0.000000	0.000019	0.000000	0.000000	0.000000
25.346075	14.581658	18.290204	-0.091860	0.063324	2.421642	0.000000	-0.002389	0.000000	0.000019	0.000000	0.000000	0.000000
25.679408	14.650583	18.254087	-0.114912	0.045026	2.420846	0.000000	-0.002389	0.000000	0.000019	0.000000	0.000000	0.000000
26.013991	14.734921	18.230471	-0.018512	-0.121234	2.420022	0.000000	-0.022021	0.000000	0.000020	0.000000	0.000000	0.000000
26.311314	14.751931	18.307483	-0.002528	-0.182670	2.413474	0.000000	-0.027939	0.000000	0.000020	0.000000	0.000000	0.000000
26.752274	14.935902	18.270049	-0.416260	0.267239	2.416264	0.000000	0.040605	0.000000	0.000020	0.000001	0.000000	0.000000
27.193234	15.491728	17.839698	-0.849011	0.704989	2.449352	0.000000	0.109612	0.000000	0.000020	0.000001	0.000000	0.000000
27.634194	16.444802	17.036009	-1.320550	1.110663	2.513115	0.000000	0.179867	0.000000	0.000021	0.000002	0.000000	0.000000
28.075154	17.838668	15.895551	-1.852421	1.465802	2.608280	0.000000	0.252170	0.000000	0.000021	0.000002	0.000000	0.000000
28.521114	19.761222	14.453032	-2.473894	1.755161	2.737532	0.000000	0.327790	0.000000	0.000023	0.000003	0.000000	0.000000
29.070174	22.204795	12.845827	-1.950223	1.189312	2.894844	0.000000	0.244392	0.000000	0.000024	0.000002	0.000000	0.000000
29.619234	23.993804	11.810105	-1.288798	0.708176	3.005106	0.000000	0.156660	0.000000	0.000025	0.000001	0.000000	0.000000
30.168294	25.001882	11.272095	-0.536339	0.277482	3.066363	0.000000	0.066149	0.000000	0.000025	0.000000	0.000000	0.000000
30.717354	25.157823	11.193476	0.254005	-0.133448	3.077529	0.000000	-0.025536	0.000000	0.000025	-0.000000	0.000000	0.000000
31.015927	25.049058	11.263753	0.175997	-0.131171	3.072305	0.000000	-0.017496	0.000000	0.000025	-0.000000	0.000000	0.000000
31.349260	24.936300	11.361235	0.162278	-0.161274	3.066473	0.000000	-0.017496	0.000000	0.000025	-0.000000	0.000000	0.000000
31.682593	24.832688	11.478785	0.148558	-0.191376	3.060641	0.000000	-0.017496	0.000000	0.000025	-0.000000	0.000000	0.000000
32.017177	24.737886	11.616957	0.134787	-0.221592	3.054787	0.000000	-0.017496	0.000000	0.000024	-0.000000	0.000000	0.000000
32.314499	24.661373	11.756709	0.058128	-0.217731	3.049585	0.000000	-0.009530	0.000000	0.000024	-0.000000	0.000000	0.000000
32.863559	24.174999	12.235001	0.822458	-0.658520	3.019472	0.000000	-0.100002	0.000000	0.000024	-0.000001	0.000000	0.000000
33.412619	22.876387	13.220094	1.528695	-1.146215	2.940098	0.000000	-0.188700	0.000000	0.000023	-0.000002	0.000000	0.000000
33.961679	20.857264	14.782156	2.126952	-1.715552	2.812873	0.000000	-0.274052	0.000000	0.000022	-0.000003	0.000000	0.000000
34.510739	18.260251	17.032449	2.574971	-2.407084	2.640052	0.000000	-0.354542	0.000000	0.000020	-0.000003	0.000000	0.000000
34.956699	16.240944	19.045269	1.969251	-2.087524	2.498283	0.000000	-0.281614	0.000000	0.000019	-0.000003	0.000000	0.000000
35.397659	14.735147	20.710166	1.458517	-1.673726	2.389485	0.000000	-0.212322	0.000000	0.000018	-0.000002	0.000000	0.000000
35.838619	13.648802	21.975023	1.014418	-1.183776	2.310679	0.000000	-0.145448	0.000000	0.000017	-0.000002	0.000000	0.000000
36.279579	12.932278	22.782292	0.616665	-0.639965	2.260970	0.000000	-0.080231	0.000000	0.000016	-0.000001	0.000000	0.000000
36.721789	12.552142	23.095551	0.277758	-0.123718	2.239763	0.000000	-0.021419	0.000000	0.000016	-0.000001	0.000000	0.000000
37.019112	12.394561	23.173006	0.252244	-0.136789	2.233395	0.000000	-0.021419	0.000000	0.000015	-0.000001	0.000000	0.000000
37.352445	12.235933	23.269083	0.223639	-0.151442	2.226255	0.000000	-0.021419	0.000000	0.000015	-0.000001	0.000000	0.000000
37.685779	12.096376	23.374929	0.195034	-0.166096	2.219116	0.000000	-0.021419	0.000000	0.000015	-0.000001	0.000000	0.000000
38.020362	11.975472	23.490996	0.166322	-0.180805	2.211950	0.000000	-0.021419	0.000000	0.000014	-0.000001	0.000000	0.000000
38.317684	11.884155	23.602397	0.169947	-0.251748	2.205582	0.000000	-0.026827	0.000000	0.000014	-0.000001	0.000000	0.000000
38.758644	11.885772	23.562987	-0.173629	0.340783	2.207680	0.000000	0.036349	0.000000	0.000013	-0.000001	0.000000	0.000000
39.199604	12.192737	23.005878	-0.525139	0.917809	2.237700	0.000000	0.099939	0.000000	0.000013	-0.000000	0.000000	0.000000
39.640564	12.819072	21.956419	-0.900641	1.453075	2.295985	0.000000	0.164667	0.000000	0.000013	-0.000000	0.000000	0.000000
40.081524	13.793395	20.462360	-1.317290	1.922228	2.383198	0.000000	0.231270	0.000000	0.000013	0.000000	0.000000	0.000000
40.527484	15.177795	18.569104	-1.797950	2.305205	2.501805	0.000000	0.300913	0.000000	0.000013	0.000001	0.000000	0.000000
41.076544	16.944395	16.441524	-1.400503	1.592616	2.646495	0.000000	0.225358	0.000000	0.000014	0.000000	0.000000	0.000000
41.625604	18.217314	15.029942	-0.904132	0.993466	2.748540	0.000000	0.145805	0.000000	0.000014	-0.000000	0.000000	0.000000
42.174664	18.906638	14.233813	-0.343898	0.465078	2.806132	0.000000	0.063667	0.000000	0.000013	-0.000001	0.000000	0.000000
42.723724	18.963676	13.996431	0.240628	-0.030184	2.818247	0.000000	-0.019601	0.000000	0.000013	-0.000001	0.000000	0.000000
43.022297	18.854443	13.998989	0.174766	-0.014950	2.814594	0.000000	-0.012238	0.000000	0.000012	-0.000001	0.000000	0.000000
43.502297	18.699261	14.029803	0.148530	-0.049246	2.808720	0.000000	-0.012238	0.000000	0.000012	-0.000001	0.000000	0.000000
43.982297	18.569266	14.093541	0.122294	-0.083542	2.802846	0.000000	-0.012238	0.000000	0.000011	-0.000001	0.000000	0.000000
44.462297	18.464457	14.190203	0.096058	-0.117838	2.796972	0.000000	-0.012238	0.000000	0.000011	-0.000001	0.000000	0.000000
44.942297	18.384834	14.319789	0.069823	-0.152134	2.791098	0.000000	-0.012238	0.000000	0.000010	-0.000001	0.000000	0.000000
45.423547	18.330515	14.482586	-0.047301	-0.114763	2.785226	0.000000	0.001561	0.000000	0.000010	-0.000001	0.000000	0.000000
45.720870	18.363476	14.557014	-0.111534	-0.097532	2.785690	0.000000	0.008839	0.000000	0.000010	-0.000001	0.000000	0.000000
46.269930	18.176753	14.945629	0.449597	-0.614428	2.767973	0.000000	-0.073283	0.000000	0.000009	-0.000001	0.000000	0.000000
46.818990	17.387712	15.922415	0.978971	-1.175088	2.705457	0.000000	-0.154106	0.000000	0.000008	-0.000002	0.000000	0.000000
47.368050	16.052087	17.556946	1.439195	-1.819448	2.599250	0.000000	-0.232195	0.000000	0.000007	-0.000002	0.000000	0.000000
47.917110	14.264219	19.965648	1.797762	-2.593402	2.451238	0.000000	-0.306165	0.000000	0.000006	-0.000002	0.000000	0.000000
48.363070	12.872956	22.107149	1.332996	-2.188413	2.329993	0.000000	-0.237868	0.000000	0.000005	-0.000002	0.000000	0.000000
48.804030	11.877562	23.821750	0.932901	-1.685127	2.239562	0.000000	-0.172678	0.000000	0.000004	-0.000002	0.000000	0.000000
49.244990	11.214963	25.056860	0.575427	-1.105169	2.177417	0.000000	-0.109454	0.000000	0.000004	-0.000002	0.000000	0.000000
49.685950	10.854887	25.756281	0.244243	-0.474927	2.142851	0.000000	-0.047477	0.000000	0.000003	-0.000002	0.000000	0.000000
50.128160	10.781007	25.887907	-0.049461	0.113391	2.135479	0.000000	0.008722	0.000000	0.000002	-0.000002	0.000000	0.000000
50.425482	10.818638	25.823938	-0.077107	0.101758	2.138073	0.000000	0.008722	0.000000	0.000002	-0.000002	0.000000	0.000000
50.758816	10.880375	25.760447	-0.108101	0.088717	2.140981	0.000000	0.008722	0.000000	0.000001	-0.000002	0.000000	0.000000
51.092149	10.962773	25.705650	-0.139095	0.075675	2.143889	0.000000	0.008722	0.000000	0.000001	-0.000002	0.000000	0.000000
51.426732	11.066036	25.659911	-0.080431	-0.145581	2.146786	0.000000	-0.008694	0.000000	0.000000	-0.000002	0.000000	0.000000
51.724055	11.121904	25.749998	-0.080199	-0.220561	2.144202	0.000000	-0.013952	0.000000	-0.000000	-0.000002	0.000000	0.000000
52.165015	11.337865	25.658024	-0.411410	0.428343	2.151638	0.000000	0.047710	0.000000	-0.000001	-0.000002	0.000000	0.000000
52.605975	11.853080	25.000210	-0.761418	1.057758	2.186359	0.000000	0.109916	0.000000	-0.000002	-0.000002	0.000000	0.000000
53.046935	12.691090	23.806486	-1.146213	1.639045	2.248760	0.000000	0.173374	0.000000	-0.000002	-0.000002	0.000000	0.000000
53.487895	13.890179	22.131164	-1.583375	2.145758	2.339552	0.000000	0.238806	0.000000	-0.000003	-0.000002	0.000000	0.000000
53.933855	15.525689	20.025423	-2.097103	2.556177	2.461273	0.000000	0.307356	0.000000	-0.000004	-0.000002	0.000000	0.000000
54.482915	17.631391	17.655894	-1.715299	1.784907	2.609851	0.000000	0.233052	0.000000	-0.000005	-0.000002	0.000000	0.000000
55.031975	19.248410	16.058948	-1.212335	1.140771	2.716434	0.000000	0.154613	0.000000	-0.000006	-0.000001	0.000000	0.000000
55.581035	20.262527	15.120837	-0.623738	0.577890	2.779132	0.000000	0.073432	0.000000	-0.000006	-0.000001	0.000000	0.000000
56.130095	20.602110	14.774743	0.008917	0.056171	2.796833	0.000000	-0.009051	0.000000	-0.000007	-0.000001	0.000000	0.000000
56.428668	20.633267	14.724235	-0.059437	0.074387	2.796313	0.000000	-0.001743	0.000000	-0.000007	-0.000001	0.000000	0.000000
56.762001	20.678296	14.682232	-0.075649	0.051623	2.795732	0.000000	-0.001743	0.000000	-0.000008	-0.000001	0.000000	0.000000
57.095334	20.734133	14.655404	-0.091862	0.028860	2.795152	0.000000	-0.001743	0.000000	-0.000008	-0.000001	0.000000	0.000000
57.429918	20.801049	14.643737	-0.108135	0.006011	2.794569	0.000000	-0.001743	0.000000	-0.000008	-0.000001	0.000000	0.000000
57.727240	20.869650	14.646199	-0.177128	0.023977	2.794051	0.000000	0.005557	0.000000	-0.000009	-0.000001	0.000000	0.000000
58.276300	20.708139	14.901079	0.469545	-0.490928	2.774463	0.000000	-0.076805	0.000000	-0.000009	-0.000001	0.000000	0.000000
58.825360	19.850593	15.737154	1.083053	-1.040800	2.709960	0.000000	-0.157806	0.000000	-0.000010	-0.000001	0.000000	0.000000
59.374420	18.357585	17.213977	1.620058	-1.664806	2.601687	0.000000	-0.236007	0.000000	-0.000010	-0.000000	0.000000	0.000000
59.923480	16.334574	19.436738	2.042631	-2.407393	2.451565	0.000000	-0.310023	0.000000	-0.000010	0.000000	0.000000	0.000000
60.369440	14.751205	21.412322	1.520413	-2.003866	2.328597	0.000000	-0.241740	0.000000	-0.000010	-0.000000	0.000000	0.000000
60.810400	13.612437	22.967954	1.071860	-1.510541	2.236448	0.000000	-0.176608	0.000000	-0.000010	-0.000000	0.000000	0.000000
61.251360	12.846248	24.056429	0.672278	-0.948487	2.172549	0.000000	-0.113487	0.000000	-0.000010	-0.000001	0.000000	0.000000
61.692320	12.417635	24.628222	0.303409	-0.343279	2.136173	0.000000	-0.051659	0.000000	-0.000010	-0.000001	0.000000	0.000000
62.134530	12.307069	24.656774	-0.021515	0.217023	2.126910	0.000000	0.004365	0.000000	-0.000011	-0.000001	0.000000	0.000000
62.431853	12.327049	24.531477	-0.045685	0.204397	2.128208	0.000000	0.004365	0.000000	-0.000011	-0.000001	0.000000	0.000000
62.765186	12.366539	24.399931	-0.072782	0.190241	2.129664	0.000000	0.004365	0.000000	-0.000012	-0.000001	0.000000	0.000000
63.098520	12.424092	24.277822	-0.099880	0.176086	2.131119	0.000000	0.004365	0.000000	-0.000012	-0.000001	0.000000	0.000000
63.433103	12.500029	24.164745	-0.127078	0.161877	2.132580	0.000000	0.004365	0.000000	-0.000012	-0.000001	0.000000	0.000000
63.730426	12.582782	24.072240	-0.120388	0.090211	2.133878	0.000000	-0.000869	0.000000	-0.000013	-0.000001	0.000000	0.000000
64.171386	12.849215	23.727581	-0.486117	0.688425	2.147036	0.000000	0.060601	0.000000	-0.000013	-0.000001	0.000000	0.000000
64.612346	13.446730	22.867195	-0.874056	1.255316	2.187426	0.000000	0.122761	0.000000	-0.000014	-0.000002	0.000000	0.000000
65.053306	14.402625	21.530229	-1.301928	1.765092	2.255508	0.000000	0.186319	0.000000	-0.000015	-0.000002	0.000000	0.000000
65.494266	15.760573	19.777512	-1.789282	2.194557	2.352058	0.000000	0.252000	0.000000	-0.000016	-0.000003	0.000000	0.000000
65.940226	17.605775	17.663996	-2.363073	2.524924	2.479747	0.000000	0.320952	0.000000	-0.000017	-0.000003	0.000000	0.000000
66.489286	19.971245	15.299669	-1.919644	1.806630	2.635604	0.000000	0.245931	0.000000	-0.000019	-0.000002	0.000000	0.000000
67.038346	21.771985	13.649248	-1.340621	1.217018	2.749010	0.000000	0.166547	0.000000	-0.000020	-0.000002	0.000000	0.000000
67.587406	22.880800	12.595175	-0.666904	0.714092	2.817952	0.000000	0.084210	0.000000	-0.000021	-0.000001	0.000000	0.000000
68.136466	23.219368	12.062372	0.053920	0.262028	2.841209	0.000000	0.000378	0.000000	-0.000021	-0.000000	0.000000	0.000000
68.435038	23.227244	11.895106	-0.019618	0.266665	2.843539	0.000000	0.007803	0.000000	-0.000021	-0.000001	0.000000	0.000000
68.768372	23.245108	11.727335	-0.033974	0.236650	2.846140	0.000000	0.007803	0.000000	-0.000022	-0.000001	0.000000	0.000000
69.101705	23.272543	11.579573	-0.048331	0.206634	2.848742	0.000000	0.007803	0.000000	-0.000022	-0.000001	0.000000	0.000000
69.436288	23.309706	11.451381	-0.062741	0.176506	2.851353	0.000000	0.007803	0.000000	-0.000022	-0.000001	0.000000	0.000000
69.733611	23.350822	11.354382	-0.136569	0.179406	2.853673	0.000000	0.015261	0.000000	-0.000022	-0.000001	0.000000	0.000000
70.282671	23.099747	11.384795	0.591143	-0.235124	2.838867	0.000000	-0.069111	0.000000	-0.000022	0.000000	0.000000	0.000000
