#ParticleID	Turn	x[m]	xp	y[m]	yp	z[m]	dE[GeV]# s	beta_x	beta_y	alpha_x	alpha_y	D_x	D_y	D_px	D_py	orbit_x	orbit_px	orbit_y	orbit_py
0.300000	11.803577	25.058006	-0.010113	-0.026775	2.618333	0.000000	-0.000073	0.000000	-0.000001	0.000002	0.000000	0.000000
0.601250	11.817360	25.077762	-0.035637	-0.038805	2.618310	0.000000	-0.000073	0.000000	-0.000001	0.000002	0.000000	0.000000
0.898573	11.846041	25.104368	-0.031779	-0.112242	2.618288	0.000000	-0.006494	0.000000	-0.000000	0.000002	0.000000	0.000000
1.339533	12.026077	24.924861	-0.378051	0.517777	2.631718	0.000000	0.067468	0.000000	0.000000	0.000002	0.000000	0.000000
1.780493	12.517931	24.198032	-0.741596	1.124237	2.677901	0.000000	0.142198	0.000000	0.000001	0.000002	0.000000	0.000000
2.221453	13.344074	22.956954	-1.139021	1.679546	2.757361	0.000000	0.218547	0.000000	0.000002	0.000002	0.000000	0.000000
2.662413	14.542251	21.258092	-1.588486	2.158436	2.871005	0.000000	0.297385	0.000000	0.000003	0.000002	0.000000	0.000000
3.108373	16.187919	19.153834	-2.114809	2.540253	3.021987	0.000000	0.380100	0.000000	0.000004	0.000002	0.000000	0.000000
3.657433	18.298259	16.790385	-1.705989	1.789692	3.205412	0.000000	0.287063	0.000000	0.000005	0.000002	0.000000	0.000000
4.206493	19.890437	15.176724	-1.176667	1.166607	3.336280	0.000000	0.188934	0.000000	0.000006	0.000002	0.000000	0.000000
4.755553	20.851987	14.197915	-0.564232	0.626617	3.412267	0.000000	0.087454	0.000000	0.000006	0.000001	0.000000	0.000000
5.304613	21.114992	13.784237	0.088059	0.131259	3.432028	0.000000	-0.015577	0.000000	0.000007	0.000001	0.000000	0.000000
5.603185	21.099577	13.691000	0.018737	0.145006	3.430054	0.000000	-0.006611	0.000000	0.000007	0.000001	0.000000	0.000000
5.936519	21.092353	13.602616	0.002933	0.120147	3.427850	0.000000	-0.006611	0.000000	0.000008	0.000001	0.000000	0.000000
6.269852	21.095666	13.530804	-0.012870	0.095288	3.425646	0.000000	-0.006611	0.000000	0.000008	0.000001	0.000000	0.000000
6.604435	21.109586	13.475389	-0.028733	0.070336	3.423434	0.000000	-0.006611	0.000000	0.000009	0.000001	0.000000	0.000000
6.901758	21.130863	13.440157	-0.098036	0.083277	3.421468	0.000000	0.002328	0.000000	0.000009	0.000001	0.000000	0.000000
7.450818	20.878422	13.609674	0.555086	-0.393840	3.394547	0.000000	-0.100245	0.000000	0.000010	0.000001	0.000000	0.000000
7.999878	19.926159	14.315360	1.168999	-0.899009	3.311713	0.000000	-0.201040	0.000000	0.000010	0.000001	0.000000	0.000000
8.548938	18.341338	15.607479	1.700340	-1.468212	3.174435	0.000000	-0.298269	0.000000	0.000010	0.000000	0.000000	0.000000
9.097998	16.235902	17.578067	2.111578	-2.141993	2.985149	0.000000	-0.390207	0.000000	0.000011	-0.000000	0.000000	0.000000
9.543958	14.593326	19.333928	1.584752	-1.778626	2.829437	0.000000	-0.308509	0.000000	0.000011	0.000000	0.000000	0.000000
9.984918	13.398728	20.712410	1.134611	-1.335570	2.710641	0.000000	-0.230809	0.000000	0.000011	0.000001	0.000000	0.000000
10.425878	12.576845	21.671760	0.736308	-0.831746	2.625495	0.000000	-0.155738	0.000000	0.000011	0.000001	0.000000	0.000000
10.866838	12.090129	22.168329	0.371645	-0.290078	2.573032	0.000000	-0.082440	0.000000	0.000011	0.000001	0.000000	0.000000
11.309048	11.916209	22.178998	0.053075	0.210344	2.552631	0.000000	-0.016340	0.000000	0.000012	0.000001	0.000000	0.000000
11.606371	11.892088	22.058080	0.028053	0.196345	2.547772	0.000000	-0.016340	0.000000	0.000012	0.000001	0.000000	0.000000
12.086371	11.884546	21.880436	-0.012341	0.173746	2.539928	0.000000	-0.016340	0.000000	0.000013	0.000001	0.000000	0.000000
12.566371	11.915784	21.724489	-0.052736	0.151146	2.532084	0.000000	-0.016340	0.000000	0.000014	0.000001	0.000000	0.000000
13.046371	11.985800	21.590236	-0.093131	0.128546	2.524240	0.000000	-0.016340	0.000000	0.000014	0.000001	0.000000	0.000000
13.526371	12.094595	21.477680	-0.133526	0.105947	2.516396	0.000000	-0.016340	0.000000	0.000015	0.000001	0.000000	0.000000
14.007621	12.242604	21.386610	-0.174025	0.083288	2.508532	0.000000	-0.016340	0.000000	0.000016	0.000001	0.000000	0.000000
14.304943	12.353526	21.341246	-0.168757	0.016963	2.503673	0.000000	-0.022479	0.000000	0.000016	0.000001	0.000000	0.000000
14.745903	12.660837	21.092726	-0.530799	0.544480	2.509389	0.000000	0.048428	0.000000	0.000017	0.000002	0.000000	0.000000
15.186863	13.296886	20.388167	-0.917092	1.047224	2.546463	0.000000	0.119887	0.000000	0.000018	0.000002	0.000000	0.000000
15.627823	14.290734	19.259626	-1.345284	1.502320	2.615318	0.000000	0.192711	0.000000	0.000019	0.000003	0.000000	0.000000
16.068783	15.687785	17.758450	-1.834938	1.889061	2.716738	0.000000	0.267730	0.000000	0.000020	0.000003	0.000000	0.000000
16.514743	17.575531	15.931443	-2.413184	2.190594	2.853572	0.000000	0.346260	0.000000	0.000021	0.000004	0.000000	0.000000
17.063803	20.000189	13.891504	-1.976689	1.546664	3.019966	0.000000	0.258956	0.000000	0.000023	0.000003	0.000000	0.000000
17.612863	21.865551	12.494396	-1.400571	1.012901	3.137090	0.000000	0.167058	0.000000	0.000025	0.000002	0.000000	0.000000
18.161923	23.039857	11.640604	-0.725523	0.551284	3.202869	0.000000	0.072197	0.000000	0.000026	0.000001	0.000000	0.000000
18.710983	23.440159	11.269315	0.000772	0.128934	3.216135	0.000000	-0.023944	0.000000	0.000026	0.000001	0.000000	0.000000
19.009556	23.480079	11.182853	-0.073243	0.131213	3.211495	0.000000	-0.015543	0.000000	0.000026	0.000001	0.000000	0.000000
19.342889	23.533665	11.105484	-0.087516	0.100892	3.206313	0.000000	-0.015543	0.000000	0.000027	0.000001	0.000000	0.000000
19.676223	23.596767	11.048329	-0.101789	0.070572	3.201132	0.000000	-0.015543	0.000000	0.000027	0.000001	0.000000	0.000000
20.010806	23.669967	11.011152	-0.233389	0.094693	3.195952	0.000000	0.000292	0.000000	0.000027	0.000001	0.000000	0.000000
20.308129	23.812688	10.962943	-0.308838	0.096087	3.196038	0.000000	0.008641	0.000000	0.000027	0.000001	0.000000	0.000000
20.857189	23.741108	11.079312	0.438436	-0.309281	3.174572	0.000000	-0.086717	0.000000	0.000027	-0.000000	0.000000	0.000000
21.406249	22.861148	11.650236	1.154742	-0.736677	3.101096	0.000000	-0.180536	0.000000	0.000027	-0.000001	0.000000	0.000000
21.955309	21.234965	12.716380	1.789482	-1.216546	2.976911	0.000000	-0.271153	0.000000	0.000026	-0.000002	0.000000	0.000000
22.504369	18.977425	14.353684	2.297822	-1.783067	2.804223	0.000000	-0.356960	0.000000	0.000025	-0.000003	0.000000	0.000000
22.950329	17.198172	15.823798	1.705972	-1.499540	2.662321	0.000000	-0.279776	0.000000	0.000024	-0.000002	0.000000	0.000000
23.391289	15.923020	16.995998	1.196761	-1.148636	2.555269	0.000000	-0.206232	0.000000	0.000023	-0.000001	0.000000	0.000000
23.832249	15.071235	17.834415	0.742226	-0.745471	2.480098	0.000000	-0.135038	0.000000	0.000023	-0.000001	0.000000	0.000000
24.273209	14.603902	18.300899	0.321602	-0.308387	2.435952	0.000000	-0.065381	0.000000	0.000023	-0.000000	0.000000	0.000000
24.715418	14.499791	18.373984	-0.048866	0.097610	2.422325	0.000000	-0.002408	0.000000	0.000023	0.000000	0.000000	0.000000
25.012741	14.534960	18.320798	-0.069420	0.081274	2.421609	0.000000	-0.002408	0.000000	0.000023	0.000000	0.000000	0.000000
25.346075	14.588922	18.272720	-0.092464	0.062959	2.420806	0.000000	-0.002408	0.000000	0.000023	0.000000	0.000000	0.000000
25.679408	14.658245	18.236852	-0.115507	0.044645	2.420003	0.000000	-0.002408	0.000000	0.000023	0.000000	0.000000	0.000000
26.013991	14.742979	18.213497	-0.019033	-0.121495	2.419173	0.000000	-0.022034	0.000000	0.000023	0.000000	0.000000	0.000000
26.311314	14.760295	18.290669	-0.003019	-0.182905	2.412622	0.000000	-0.027949	0.000000	0.000023	0.000000	0.000000	0.000000
26.752274	14.944790	18.253643	-0.416963	0.266553	2.415402	0.000000	0.040573	0.000000	0.000023	0.000001	0.000000	0.000000
27.193234	15.501340	17.824084	-0.849957	0.703883	2.448471	0.000000	0.109557	0.000000	0.000024	0.000001	0.000000	0.000000
27.634194	16.455372	17.021539	-1.321783	1.109187	2.512205	0.000000	0.179789	0.000000	0.000024	0.000002	0.000000	0.000000
28.075154	17.850473	15.882522	-1.853998	1.464023	2.607330	0.000000	0.252069	0.000000	0.000025	0.000003	0.000000	0.000000
28.521114	19.774615	14.441695	-2.475890	1.753159	2.736531	0.000000	0.327662	0.000000	0.000027	0.000003	0.000000	0.000000
29.070174	22.220193	12.836431	-1.951859	1.187757	2.893781	0.000000	0.244298	0.000000	0.000028	0.000002	0.000000	0.000000
29.619234	24.010747	11.802225	-1.289958	0.706955	3.004002	0.000000	0.156601	0.000000	0.000029	0.000001	0.000000	0.000000
30.168294	25.019798	11.265413	-0.536941	0.276509	3.065237	0.000000	0.066126	0.000000	0.000030	0.000000	0.000000	0.000000
30.717354	25.176074	11.187758	0.254003	-0.134243	3.076400	0.000000	-0.025522	0.000000	0.000029	-0.000001	0.000000	0.000000
31.015927	25.067334	11.258526	0.175959	-0.132000	3.071180	0.000000	-0.017486	0.000000	0.000029	-0.000000	0.000000	0.000000
31.349260	24.954598	11.356567	0.162250	-0.162123	3.065351	0.000000	-0.017486	0.000000	0.000029	-0.000000	0.000000	0.000000
31.682593	24.851002	11.474690	0.148540	-0.192246	3.059523	0.000000	-0.017486	0.000000	0.000029	-0.000000	0.000000	0.000000
32.017177	24.756207	11.613452	0.134780	-0.222482	3.053673	0.000000	-0.017486	0.000000	0.000029	-0.000000	0.000000	0.000000
32.314499	24.679697	11.753738	0.058084	-0.218648	3.048474	0.000000	-0.009522	0.000000	0.000029	-0.000000	0.000000	0.000000
32.863559	24.193038	12.233014	0.823018	-0.659405	3.018374	0.000000	-0.099959	0.000000	0.000028	-0.000001	0.000000	0.000000
33.412619	22.893495	13.219090	1.529819	-1.147130	2.939034	0.000000	-0.188622	0.000000	0.000027	-0.000002	0.000000	0.000000
33.961679	20.872862	14.782203	2.128561	-1.716563	2.811861	0.000000	-0.273940	0.000000	0.000026	-0.000003	0.000000	0.000000
34.510739	18.273867	17.033691	2.576952	-2.408263	2.639111	0.000000	-0.354398	0.000000	0.000024	-0.000004	0.000000	0.000000
34.956699	16.252986	19.047599	1.970810	-2.088777	2.497401	0.000000	-0.281494	0.000000	0.000022	-0.000003	0.000000	0.000000
35.397659	14.745972	20.713613	1.459729	-1.674996	2.388651	0.000000	-0.212224	0.000000	0.000021	-0.000003	0.000000	0.000000
35.838619	13.658689	21.979577	1.015340	-1.185005	2.309884	0.000000	-0.145371	0.000000	0.000020	-0.000002	0.000000	0.000000
36.279579	12.941464	22.787891	0.617338	-0.641097	2.260204	0.000000	-0.080174	0.000000	0.000019	-0.000002	0.000000	0.000000
36.721789	12.560833	23.102089	0.278233	-0.124716	2.239018	0.000000	-0.021380	0.000000	0.000018	-0.000001	0.000000	0.000000
37.019112	12.402966	23.180136	0.252729	-0.137786	2.232662	0.000000	-0.021380	0.000000	0.000018	-0.000001	0.000000	0.000000
37.352445	12.244010	23.276878	0.224138	-0.152439	2.225536	0.000000	-0.021380	0.000000	0.000018	-0.000001	0.000000	0.000000
37.685779	12.104115	23.383389	0.195546	-0.167092	2.218410	0.000000	-0.021380	0.000000	0.000017	-0.000001	0.000000	0.000000
38.020362	11.982865	23.500122	0.166847	-0.181800	2.211257	0.000000	-0.021380	0.000000	0.000017	-0.000001	0.000000	0.000000
38.317684	11.891233	23.612115	0.170500	-0.252766	2.204901	0.000000	-0.026786	0.000000	0.000016	-0.000001	0.000000	0.000000
38.758644	11.892433	23.573485	-0.173233	0.340037	2.207013	0.000000	0.036373	0.000000	0.000016	-0.000001	0.000000	0.000000
39.199604	12.199109	23.016902	-0.524879	0.917368	2.237040	0.000000	0.099945	0.000000	0.000016	-0.000000	0.000000	0.000000
39.640564	12.825272	21.967689	-0.900507	1.452960	2.295324	0.000000	0.164656	0.000000	0.000016	-0.000000	0.000000	0.000000
40.081524	13.799530	20.473586	-1.317275	1.922443	2.382529	0.000000	0.231243	0.000000	0.000016	0.000000	0.000000	0.000000
40.527484	15.183970	18.579991	-1.798055	2.305744	2.501119	0.000000	0.300868	0.000000	0.000016	0.000001	0.000000	0.000000
41.076544	16.950549	16.451987	-1.400359	1.592855	2.645790	0.000000	0.225335	0.000000	0.000016	0.000000	0.000000	0.000000
41.625604	18.223177	15.040298	-0.903749	0.993422	2.747830	0.000000	0.145806	0.000000	0.000016	-0.000000	0.000000	0.000000
42.174664	18.911960	14.244373	-0.343302	0.464749	2.805428	0.000000	0.063690	0.000000	0.000016	-0.000001	0.000000	0.000000
42.723724	18.968247	14.007519	0.241393	-0.030822	2.817562	0.000000	-0.019555	0.000000	0.000015	-0.000001	0.000000	0.000000
43.022297	18.858564	14.010436	0.175519	-0.015543	2.813922	0.000000	-0.012195	0.000000	0.000015	-0.000001	0.000000	0.000000
43.502297	18.702659	14.041806	0.149283	-0.049812	2.808069	0.000000	-0.012195	0.000000	0.000014	-0.000001	0.000000	0.000000
43.982297	18.571941	14.106074	0.123046	-0.084080	2.802216	0.000000	-0.012195	0.000000	0.000014	-0.000001	0.000000	0.000000
44.462297	18.466411	14.203240	0.096809	-0.118348	2.796363	0.000000	-0.012195	0.000000	0.000013	-0.000001	0.000000	0.000000
44.942297	18.386068	14.333304	0.070572	-0.152617	2.790511	0.000000	-0.012195	0.000000	0.000012	-0.000001	0.000000	0.000000
45.423547	18.331028	14.496552	-0.046555	-0.115150	2.784660	0.000000	0.001602	0.000000	0.000012	-0.000001	0.000000	0.000000
45.720870	18.363545	14.571205	-0.110786	-0.097864	2.785137	0.000000	0.008879	0.000000	0.000011	-0.000001	0.000000	0.000000
46.269930	18.176006	14.960422	0.450326	-0.615200	2.767446	0.000000	-0.073226	0.000000	0.000011	-0.000002	0.000000	0.000000
46.818990	17.386198	15.938320	0.979630	-1.176355	2.704965	0.000000	-0.154032	0.000000	0.000010	-0.000002	0.000000	0.000000
47.368050	16.049910	17.574554	1.439737	-1.821299	2.598804	0.000000	-0.232106	0.000000	0.000009	-0.000002	0.000000	0.000000
47.917110	14.261530	19.985668	1.798148	-2.595971	2.450844	0.000000	-0.306063	0.000000	0.000007	-0.000002	0.000000	0.000000
48.363070	12.869919	22.129267	1.333392	-2.190528	2.329642	0.000000	-0.237776	0.000000	0.000006	-0.000002	0.000000	0.000000
48.804030	11.874165	23.845498	0.933326	-1.686694	2.239251	0.000000	-0.172594	0.000000	0.000005	-0.000002	0.000000	0.000000
49.244990	11.211171	25.081720	0.575900	-1.106117	2.177142	0.000000	-0.109378	0.000000	0.000004	-0.000002	0.000000	0.000000
49.685950	10.850648	25.781687	0.244786	-0.475213	2.142607	0.000000	-0.047407	0.000000	0.000004	-0.000002	0.000000	0.000000
50.128160	10.776247	25.913266	-0.048835	0.113719	2.135265	0.000000	0.008787	0.000000	0.000003	-0.000002	0.000000	0.000000
50.425482	10.813510	25.849099	-0.076491	0.102097	2.137878	0.000000	0.008787	0.000000	0.000002	-0.000002	0.000000	0.000000
50.758816	10.874839	25.785378	-0.107497	0.089067	2.140808	0.000000	0.008787	0.000000	0.000002	-0.000002	0.000000	0.000000
51.092149	10.956839	25.730343	-0.138503	0.076037	2.143738	0.000000	0.008787	0.000000	0.000001	-0.000002	0.000000	0.000000
51.426732	11.059710	25.684358	-0.079902	-0.145405	2.146656	0.000000	-0.008628	0.000000	0.000000	-0.000002	0.000000	0.000000
51.724055	11.115267	25.774337	-0.079699	-0.220433	2.144092	0.000000	-0.013886	0.000000	-0.000000	-0.000002	0.000000	0.000000
52.165015	11.330717	25.681967	-0.410747	0.429111	2.151557	0.000000	0.047774	0.000000	-0.000001	-0.000002	0.000000	0.000000
52.605975	11.845265	25.023205	-0.760562	1.059131	2.186306	0.000000	0.109978	0.000000	-0.000002	-0.000002	0.000000	0.000000
53.046935	12.682420	23.828024	-1.145124	1.640962	2.248733	0.000000	0.173434	0.000000	-0.000002	-0.000002	0.000000	0.000000
53.487895	13.880429	22.150804	-1.582004	2.148130	2.339552	0.000000	0.238866	0.000000	-0.000003	-0.000002	0.000000	0.000000
53.933855	15.514566	20.042782	-2.095384	2.558898	2.461300	0.000000	0.307417	0.000000	-0.000004	-0.000002	0.000000	0.000000
54.482915	17.618535	17.670651	-1.713880	1.786954	2.609911	0.000000	0.233111	0.000000	-0.000005	-0.000002	0.000000	0.000000
55.031975	19.234206	16.071759	-1.211316	1.142290	2.716526	0.000000	0.154670	0.000000	-0.000006	-0.000002	0.000000	0.000000
55.581035	20.247457	15.132220	-0.623190	0.578988	2.779254	0.000000	0.073485	0.000000	-0.000007	-0.000002	0.000000	0.000000
56.130095	20.586717	14.785113	0.008954	0.056927	2.796984	0.000000	-0.009003	0.000000	-0.000008	-0.000001	0.000000	0.000000
56.428668	20.617832	14.734134	-0.059371	0.075182	2.796478	0.000000	-0.001694	0.000000	-0.000008	-0.000001	0.000000	0.000000
56.762001	20.662820	14.691596	-0.075595	0.052431	2.795914	0.000000	-0.001694	0.000000	-0.000009	-0.000001	0.000000	0.000000
57.095334	20.718625	14.664226	-0.091819	0.029680	2.795350	0.000000	-0.001694	0.000000	-0.000009	-0.000001	0.000000	0.000000
57.429918	20.785517	14.652006	-0.108105	0.006844	2.794783	0.000000	-0.001694	0.000000	-0.000010	-0.000001	0.000000	0.000000
57.727240	20.854103	14.653970	-0.177068	0.024841	2.794280	0.000000	0.005607	0.000000	-0.000010	-0.000001	0.000000	0.000000
58.276300	20.692813	14.908017	0.469086	-0.490267	2.774717	0.000000	-0.076763	0.000000	-0.000011	-0.000001	0.000000	0.000000
58.825360	19.836043	15.743457	1.082107	-1.040297	2.710236	0.000000	-0.157772	0.000000	-0.000011	-0.000001	0.000000	0.000000
59.374420	18.344311	17.219796	1.618693	-1.664424	2.601979	0.000000	-0.235983	0.000000	-0.000011	-0.000000	0.000000	0.000000
59.923480	16.322986	19.442191	2.040943	-2.407105	2.451867	0.000000	-0.310008	0.000000	-0.000011	0.000000	0.000000	0.000000
60.369440	14.740961	21.417423	1.519078	-2.003368	2.328908	0.000000	-0.241717	0.000000	-0.000011	-0.000000	0.000000	0.000000
60.810400	13.603238	22.972533	1.070814	-1.509859	2.236770	0.000000	-0.176577	0.000000	-0.000012	-0.000000	0.000000	0.000000
61.251360	12.837863	24.060336	0.671473	-0.947651	2.172887	0.000000	-0.113448	0.000000	-0.000012	-0.000001	0.000000	0.000000
61.692320	12.409867	24.631337	0.302809	-0.342327	2.136530	0.000000	-0.051610	0.000000	-0.000012	-0.000001	0.000000	0.000000
62.134530	12.299753	24.659012	-0.021957	0.218041	2.127291	0.000000	0.004422	0.000000	-0.000013	-0.000001	0.000000	0.000000
62.431853	12.320000	24.533110	-0.046141	0.205411	2.128606	0.000000	0.004422	0.000000	-0.000013	-0.000001	0.000000	0.000000
62.765186	12.359799	24.400890	-0.073255	0.191250	2.130080	0.000000	0.004422	0.000000	-0.000014	-0.000001	0.000000	0.000000
63.098520	12.417673	24.278110	-0.100369	0.177090	2.131555	0.000000	0.004422	0.000000	-0.000014	-0.000001	0.000000	0.000000
63.433103	12.493943	24.164362	-0.127585	0.162877	2.133035	0.000000	0.004422	0.000000	-0.000015	-0.000001	0.000000	0.000000
63.730426	12.577001	24.071264	-0.120922	0.091207	2.134350	0.000000	-0.000813	0.000000	-0.000015	-0.000001	0.000000	0.000000
64.171386	12.843853	23.725746	-0.486535	0.689370	2.147535	0.000000	0.060669	0.000000	-0.000016	-0.000002	0.000000	0.000000
64.612346	13.441692	22.864565	-0.874376	1.256166	2.187958	0.000000	0.122843	0.000000	-0.000017	-0.000002	0.000000	0.000000
65.053306	14.397831	21.526905	-1.302164	1.765809	2.256079	0.000000	0.186415	0.000000	-0.000018	-0.000003	0.000000	0.000000
65.494266	15.755954	19.773628	-1.789445	2.195108	2.352674	0.000000	0.252111	0.000000	-0.000019	-0.000003	0.000000	0.000000
65.940226	17.601272	17.659705	-2.363171	2.525282	2.480417	0.000000	0.321080	0.000000	-0.000020	-0.000004	0.000000	0.000000
66.489286	19.966964	15.294967	-1.919949	1.807027	2.636338	0.000000	0.246036	0.000000	-0.000022	-0.000003	0.000000	0.000000
67.038346	21.768143	13.644075	-1.341112	1.217483	2.749795	0.000000	0.166627	0.000000	-0.000023	-0.000002	0.000000	0.000000
67.587406	22.877583	12.589439	-0.667545	0.714658	2.818775	0.000000	0.084264	0.000000	-0.000024	-0.000001	0.000000	0.000000
68.136466	23.216917	12.055941	0.053174	0.262736	2.842054	0.000000	0.000405	0.000000	-0.000025	-0.000001	0.000000	0.000000
68.435038	23.225236	11.888270	-0.020361	0.267332	2.844393	0.000000	0.007833	0.000000	-0.000025	-0.000001	0.000000	0.000000
68.768372	23.243596	11.720063	-0.034719	0.237290	2.847004	0.000000	0.007833	0.000000	-0.000025	-0.000001	0.000000	0.000000
69.101705	23.271528	11.571884	-0.049077	0.207247	2.849615	0.000000	0.007833	0.000000	-0.000026	-0.000001	0.000000	0.000000
69.436288	23.309191	11.443290	-0.063489	0.177092	2.852236	0.000000	0.007833	0.000000	-0.000026	-0.000001	0.000000	0.000000
69.733611	23.350753	11.345951	-0.137321	0.179946	2.854565	0.000000	0.015293	0.000000	-0.000026	-0.000001	0.000000	0.000000
70.282671	23.100498	11.375640	0.590411	-0.234337	2.839769	0.000000	-0.069108	0.000000	-0.000026	0.000000	0.000000	0.000000
