#ParticleID	Turn	x[m]	xp	y[m]	yp	z[m]	dE[GeV]# s	beta_x	beta_y	alpha_x	alpha_y	D_x	D_y	D_px	D_py	orbit_x	orbit_px	orbit_y	orbit_py
0.300000	11.832232	24.946722	-0.013415	-0.027767	2.618294	0.000000	-0.000058	0.000000	0.000001	0.000000	0.000000	0.000000
0.601250	11.847986	24.967092	-0.038879	-0.039852	2.618276	0.000000	-0.000058	0.000000	0.000001	0.000000	0.000000	0.000000
0.898573	11.878578	24.994337	-0.034883	-0.113073	2.618259	0.000000	-0.006479	0.000000	0.000001	0.000000	0.000000	0.000000
1.339533	12.061701	24.816843	-0.381977	0.514057	2.631696	0.000000	0.067482	0.000000	0.000001	0.000000	0.000000	0.000000
1.780493	12.557444	24.094513	-0.746522	1.117797	2.677885	0.000000	0.142211	0.000000	0.000001	0.000000	0.000000	0.000000
2.221453	13.388453	22.860210	-1.145174	1.670678	2.757352	0.000000	0.218560	0.000000	0.000001	0.000000	0.000000	0.000000
2.662413	14.592697	21.170095	-1.596146	2.147545	2.871002	0.000000	0.297398	0.000000	0.000001	0.000000	0.000000	0.000000
3.108373	16.246004	19.076278	-2.124341	2.527829	3.021991	0.000000	0.380113	0.000000	0.000001	0.000000	0.000000	0.000000
3.657433	18.366046	16.724731	-1.714022	1.780311	3.205424	0.000000	0.287076	0.000000	0.000002	0.000000	0.000000	0.000000
4.206493	19.965955	15.120015	-1.182633	1.159600	3.336299	0.000000	0.188946	0.000000	0.000002	0.000000	0.000000	0.000000
4.755553	20.932720	14.147831	-0.567709	0.621485	3.412294	0.000000	0.087465	0.000000	0.000002	0.000000	0.000000	0.000000
5.304613	21.198055	13.738932	0.087316	0.127637	3.432061	0.000000	-0.015567	0.000000	0.000002	0.000000	0.000000	0.000000
5.603185	21.183198	13.647941	0.017831	0.141221	3.430091	0.000000	-0.006600	0.000000	0.000002	0.000000	0.000000	0.000000
5.936519	21.176557	13.562097	0.002090	0.116310	3.427891	0.000000	-0.006600	0.000000	0.000002	0.000000	0.000000	0.000000
6.269852	21.180411	13.492861	-0.013651	0.091399	3.425691	0.000000	-0.006600	0.000000	0.000002	0.000000	0.000000	0.000000
6.604435	21.194832	13.440066	-0.029450	0.066395	3.423483	0.000000	-0.006600	0.000000	0.000002	0.000000	0.000000	0.000000
6.901758	21.216519	13.407191	-0.098925	0.079205	3.421521	0.000000	0.002340	0.000000	0.000002	0.000000	0.000000	0.000000
7.450818	20.963473	13.580686	0.557067	-0.397056	3.394606	0.000000	-0.100235	0.000000	0.000002	-0.000000	0.000000	0.000000
7.999878	20.007513	14.289541	1.173711	-0.901598	3.311777	0.000000	-0.201032	0.000000	0.000002	-0.000000	0.000000	0.000000
8.548938	18.416163	15.584246	1.707449	-1.470359	3.174504	0.000000	-0.298263	0.000000	0.000002	-0.000000	0.000000	0.000000
9.097998	16.301828	17.557020	2.120582	-2.143851	2.985220	0.000000	-0.390204	0.000000	0.000002	-0.000000	0.000000	0.000000
9.543958	14.652119	19.314934	1.591801	-1.781355	2.829510	0.000000	-0.308504	0.000000	0.000002	-0.000000	0.000000	0.000000
9.984918	13.452038	20.696159	1.140043	-1.339038	2.710717	0.000000	-0.230802	0.000000	0.000001	-0.000000	0.000000	0.000000
10.425878	12.625985	21.658836	0.740370	-0.835795	2.625576	0.000000	-0.155728	0.000000	0.000001	-0.000000	0.000000	0.000000
10.866838	12.136219	22.159166	0.374523	-0.294524	2.573117	0.000000	-0.082428	0.000000	0.000001	-0.000000	0.000000	0.000000
11.309048	11.960228	22.173868	0.055012	0.205711	2.552723	0.000000	-0.016327	0.000000	0.000001	-0.000000	0.000000	0.000000
11.606371	11.934929	22.055698	0.030078	0.191735	2.547868	0.000000	-0.016327	0.000000	0.000001	-0.000000	0.000000	0.000000
12.086371	11.925376	21.882463	-0.010177	0.169172	2.540031	0.000000	-0.016327	0.000000	0.000001	-0.000000	0.000000	0.000000
12.566371	11.954468	21.730889	-0.050431	0.146609	2.532194	0.000000	-0.016327	0.000000	0.000001	-0.000000	0.000000	0.000000
13.046371	12.022204	21.600975	-0.090686	0.124045	2.524357	0.000000	-0.016327	0.000000	0.000001	-0.000000	0.000000	0.000000
13.526371	12.128585	21.492721	-0.130940	0.101482	2.516520	0.000000	-0.016327	0.000000	0.000001	-0.000000	0.000000	0.000000
14.007621	12.274038	21.405931	-0.171300	0.078860	2.508662	0.000000	-0.016327	0.000000	0.000001	-0.000000	0.000000	0.000000
14.304943	12.383314	21.363193	-0.165867	0.012496	2.503808	0.000000	-0.022467	0.000000	0.000001	-0.000000	0.000000	0.000000
14.745903	12.688342	21.118323	-0.528493	0.540703	2.509529	0.000000	0.048443	0.000000	0.000001	0.000000	0.000000	0.000000
15.186863	13.322576	20.416727	-0.915265	1.044307	2.546612	0.000000	0.119906	0.000000	0.000001	0.000000	0.000000	0.000000
15.627823	14.314992	19.290327	-1.343853	1.500397	2.615477	0.000000	0.192734	0.000000	0.000001	0.000000	0.000000	0.000000
16.068783	15.710930	17.790375	-1.833838	1.888220	2.716909	0.000000	0.267757	0.000000	0.000002	0.000000	0.000000	0.000000
16.514743	17.597823	15.963615	-2.412363	2.190880	2.853758	0.000000	0.346292	0.000000	0.000002	0.000000	0.000000	0.000000
17.063803	20.020981	13.923733	-1.974796	1.546276	3.020169	0.000000	0.258981	0.000000	0.000002	0.000000	0.000000	0.000000
17.612863	21.883732	12.527433	-1.397740	1.011809	3.137307	0.000000	0.167077	0.000000	0.000002	0.000000	0.000000	0.000000
18.161923	23.054502	11.675260	-0.721954	0.549411	3.203095	0.000000	0.072209	0.000000	0.000002	0.000000	0.000000	0.000000
18.710983	23.450592	11.306515	0.004827	0.126147	3.216366	0.000000	-0.023940	0.000000	0.000002	-0.000000	0.000000	0.000000
19.009556	23.488110	11.221622	-0.069216	0.128641	3.211727	0.000000	-0.015536	0.000000	0.000002	-0.000000	0.000000	0.000000
19.342889	23.539008	11.145926	-0.083476	0.098445	3.206549	0.000000	-0.015536	0.000000	0.000002	-0.000000	0.000000	0.000000
19.676223	23.599411	11.090362	-0.097735	0.068249	3.201370	0.000000	-0.015536	0.000000	0.000002	-0.000000	0.000000	0.000000
20.010806	23.669895	11.054696	-0.229322	0.092711	3.196192	0.000000	0.000300	0.000000	0.000002	-0.000000	0.000000	0.000000
20.308129	23.810191	11.007631	-0.304755	0.094345	3.196281	0.000000	0.008651	0.000000	0.000002	-0.000000	0.000000	0.000000
20.857189	23.734194	11.126609	0.442350	-0.312318	3.174818	0.000000	-0.086714	0.000000	0.000002	-0.000000	0.000000	0.000000
21.406249	22.850158	11.701674	1.158208	-0.741227	3.101341	0.000000	-0.180541	0.000000	0.000002	-0.000000	0.000000	0.000000
21.955309	21.220528	12.773786	1.792257	-1.222931	2.977151	0.000000	-0.271166	0.000000	0.000002	-0.000000	0.000000	0.000000
22.504369	18.960414	14.419310	2.299710	-1.791742	2.804451	0.000000	-0.356981	0.000000	0.000001	-0.000000	0.000000	0.000000
22.950329	17.179418	15.896507	1.708011	-1.506683	2.662541	0.000000	-0.279791	0.000000	0.000001	-0.000000	0.000000	0.000000
23.391289	15.902367	17.074213	1.199044	-1.153930	2.555483	0.000000	-0.206242	0.000000	0.000001	-0.000000	0.000000	0.000000
23.832249	15.048423	17.916389	0.744858	-0.748673	2.480308	0.000000	-0.135042	0.000000	0.000001	-0.000000	0.000000	0.000000
24.273209	14.578573	18.384718	0.324702	-0.309352	2.436161	0.000000	-0.065380	0.000000	0.000001	-0.000000	0.000000	0.000000
24.715418	14.471461	18.457644	-0.045218	0.098712	2.422536	0.000000	-0.002403	0.000000	0.000001	-0.000000	0.000000	0.000000
25.012741	14.504471	18.403782	-0.065805	0.082446	2.421822	0.000000	-0.002403	0.000000	0.000001	-0.000000	0.000000	0.000000
25.346075	14.556034	18.354896	-0.088886	0.064211	2.421021	0.000000	-0.002403	0.000000	0.000001	-0.000000	0.000000	0.000000
25.679408	14.622985	18.318167	-0.111967	0.045976	2.420220	0.000000	-0.002403	0.000000	0.000001	-0.000000	0.000000	0.000000
26.013991	14.705363	18.293897	-0.015835	-0.120737	2.419391	0.000000	-0.022031	0.000000	0.000001	-0.000000	0.000000	0.000000
26.311314	14.720792	18.370595	0.000041	-0.182276	2.412841	0.000000	-0.027948	0.000000	0.000001	-0.000000	0.000000	0.000000
26.752274	14.902153	18.332059	-0.412887	0.269334	2.415623	0.000000	0.040580	0.000000	0.000001	-0.000000	0.000000	0.000000
27.193234	15.454593	17.899143	-0.844678	0.708690	2.448697	0.000000	0.109570	0.000000	0.000001	-0.000000	0.000000	0.000000
27.634194	16.403351	17.091542	-1.315060	1.115801	2.512438	0.000000	0.179808	0.000000	0.000001	-0.000000	0.000000	0.000000
28.075154	17.791775	15.946002	-1.845523	1.472144	2.607573	0.000000	0.252093	0.000000	0.000001	0.000000	0.000000	0.000000
28.521114	19.707425	14.497393	-2.465258	1.762420	2.736788	0.000000	0.327693	0.000000	0.000001	0.000000	0.000000	0.000000
29.070174	22.142221	12.883184	-1.942972	1.194884	2.894055	0.000000	0.244321	0.000000	0.000001	0.000000	0.000000	0.000000
29.619234	23.924266	11.842084	-1.283444	0.712458	3.004286	0.000000	0.156615	0.000000	0.000001	-0.000000	0.000000	0.000000
30.168294	24.927685	11.299938	-0.533260	0.280778	3.065526	0.000000	0.066130	0.000000	0.000001	-0.000000	0.000000	0.000000
30.717354	25.081602	11.218130	0.254591	-0.130902	3.076689	0.000000	-0.025527	0.000000	0.000001	-0.000000	0.000000	0.000000
31.015927	24.972388	11.286824	0.176728	-0.128481	3.071468	0.000000	-0.017488	0.000000	0.000001	-0.000000	0.000000	0.000000
31.349260	24.859158	11.382485	0.162963	-0.158502	3.065639	0.000000	-0.017488	0.000000	0.000001	-0.000000	0.000000	0.000000
31.682593	24.755104	11.498159	0.149198	-0.188522	3.059809	0.000000	-0.017488	0.000000	0.000001	-0.000000	0.000000	0.000000
32.017177	24.659888	11.634394	0.135382	-0.218655	3.053958	0.000000	-0.017488	0.000000	0.000001	-0.000000	0.000000	0.000000
32.314499	24.583034	11.772378	0.058873	-0.214674	3.048759	0.000000	-0.009522	0.000000	0.000001	-0.000000	0.000000	0.000000
32.863559	24.097275	12.247481	0.820600	-0.655737	3.018656	0.000000	-0.099967	0.000000	0.000001	-0.000000	0.000000	0.000000
33.412619	22.802082	13.229578	1.524364	-1.143508	2.939308	0.000000	-0.188640	0.000000	0.000001	-0.000000	0.000000	0.000000
33.961679	20.788940	14.788619	2.120455	-1.712727	2.812122	0.000000	-0.273966	0.000000	0.000001	-0.000000	0.000000	0.000000
34.510739	18.200049	17.035654	2.566767	-2.403941	2.639353	0.000000	-0.354433	0.000000	0.000000	-0.000000	0.000000	0.000000
34.956699	16.187232	19.045464	1.962852	-2.083945	2.497628	0.000000	-0.281523	0.000000	0.000000	-0.000000	0.000000	0.000000
35.397659	14.686400	20.707073	1.453617	-1.669880	2.388865	0.000000	-0.212247	0.000000	0.000000	-0.000000	0.000000	0.000000
35.838619	13.603801	21.968484	1.010792	-1.179837	2.310089	0.000000	-0.145389	0.000000	0.000000	-0.000000	0.000000	0.000000
36.279579	12.889975	22.772304	0.614148	-0.636112	2.260401	0.000000	-0.080186	0.000000	0.000000	-0.000000	0.000000	0.000000
36.721789	12.511619	23.082259	0.276140	-0.120103	2.239210	0.000000	-0.021388	0.000000	0.000000	-0.000000	0.000000	0.000000
37.019112	12.355018	23.157563	0.250564	-0.133170	2.232851	0.000000	-0.021388	0.000000	0.000000	-0.000000	0.000000	0.000000
37.352445	12.197533	23.251226	0.221890	-0.147819	2.225722	0.000000	-0.021388	0.000000	0.000000	-0.000000	0.000000	0.000000
37.685779	12.059164	23.354655	0.193217	-0.162469	2.218592	0.000000	-0.021388	0.000000	0.000000	-0.000000	0.000000	0.000000
38.020362	11.939499	23.468294	0.164436	-0.177173	2.211436	0.000000	-0.021388	0.000000	-0.000000	-0.000000	0.000000	0.000000
38.317684	11.849323	23.577534	0.167918	-0.248059	2.205077	0.000000	-0.026796	0.000000	-0.000000	-0.000000	0.000000	0.000000
38.758644	11.852384	23.535171	-0.174887	0.343763	2.207185	0.000000	0.036367	0.000000	-0.000000	-0.000000	0.000000	0.000000
39.199604	12.160139	22.975799	-0.525682	0.919943	2.237211	0.000000	0.099944	0.000000	-0.000000	-0.000000	0.000000	0.000000
39.640564	12.786648	21.924868	-0.900493	1.454267	2.295495	0.000000	0.164660	0.000000	-0.000000	-0.000000	0.000000	0.000000
40.081524	13.760535	20.430194	-1.316446	1.922423	2.382702	0.000000	0.231250	0.000000	-0.000000	-0.000000	0.000000	0.000000
40.527484	15.143855	18.537218	-1.796367	2.304388	2.501298	0.000000	0.300880	0.000000	-0.000000	-0.000000	0.000000	0.000000
41.076544	16.909411	16.410094	-1.400196	1.592599	2.645974	0.000000	0.225342	0.000000	-0.000000	-0.000000	0.000000	0.000000
41.625604	18.182707	14.998095	-0.905123	0.994246	2.748016	0.000000	0.145806	0.000000	-0.000000	-0.000000	0.000000	0.000000
42.174664	18.873804	14.200649	-0.346117	0.466712	2.805612	0.000000	0.063684	0.000000	-0.000001	-0.000000	0.000000	0.000000
42.723724	18.933886	13.960954	0.237338	-0.027580	2.817741	0.000000	-0.019567	0.000000	-0.000001	-0.000000	0.000000	0.000000
43.022297	18.826577	13.962027	0.171541	-0.012490	2.814097	0.000000	-0.012205	0.000000	-0.000001	-0.000000	0.000000	0.000000
43.502297	18.674496	13.990522	0.145295	-0.046875	2.808239	0.000000	-0.012205	0.000000	-0.000001	-0.000000	0.000000	0.000000
43.982297	18.547611	14.052027	0.119049	-0.081259	2.802381	0.000000	-0.012205	0.000000	-0.000001	-0.000000	0.000000	0.000000
44.462297	18.445923	14.146540	0.092802	-0.115643	2.796523	0.000000	-0.012205	0.000000	-0.000001	-0.000000	0.000000	0.000000
44.942297	18.369430	14.274062	0.066556	-0.150028	2.790665	0.000000	-0.012205	0.000000	-0.000001	-0.000000	0.000000	0.000000
45.423547	18.318261	14.434875	-0.050517	-0.112982	2.784809	0.000000	0.001593	0.000000	-0.000001	-0.000000	0.000000	0.000000
45.720870	18.353138	14.508262	-0.114743	-0.095935	2.785282	0.000000	0.008870	0.000000	-0.000001	-0.000000	0.000000	0.000000
46.269930	18.170102	14.894299	0.446133	-0.611302	2.767585	0.000000	-0.073239	0.000000	-0.000001	-0.000000	0.000000	0.000000
46.818990	17.384895	15.866716	0.975495	-1.170210	2.705096	0.000000	-0.154049	0.000000	-0.000001	-0.000000	0.000000	0.000000
47.368050	16.052980	17.494775	1.435954	-1.812469	2.598923	0.000000	-0.232127	0.000000	-0.000001	-0.000000	0.000000	0.000000
47.917110	14.268437	19.894441	1.794985	-2.583827	2.450949	0.000000	-0.306088	0.000000	-0.000001	0.000000	0.000000	0.000000
48.363070	12.879562	22.028070	1.330398	-2.180410	2.329736	0.000000	-0.237798	0.000000	-0.000001	0.000000	0.000000	0.000000
48.804030	11.886426	23.736441	0.930359	-1.679056	2.239334	0.000000	-0.172614	0.000000	-0.000001	-0.000000	0.000000	0.000000
49.244990	11.226087	24.967153	0.572826	-1.101306	2.177216	0.000000	-0.109396	0.000000	-0.000001	-0.000000	0.000000	0.000000
49.685950	10.868374	25.664208	0.241464	-0.473447	2.142673	0.000000	-0.047423	0.000000	-0.000001	-0.000000	0.000000	0.000000
50.128160	10.797078	25.795610	-0.052505	0.112645	2.135324	0.000000	0.008772	0.000000	-0.000001	-0.000000	0.000000	0.000000
50.425482	10.836509	25.732097	-0.080118	0.100973	2.137932	0.000000	0.008772	0.000000	-0.000001	-0.000000	0.000000	0.000000
50.758816	10.900241	25.669144	-0.111076	0.087886	2.140856	0.000000	0.008772	0.000000	-0.000001	-0.000000	0.000000	0.000000
51.092149	10.984611	25.614915	-0.142034	0.074800	2.143781	0.000000	0.008772	0.000000	-0.000001	-0.000000	0.000000	0.000000
51.426732	11.089827	25.569774	-0.083139	-0.145769	2.146694	0.000000	-0.008643	0.000000	-0.000001	-0.000000	0.000000	0.000000
51.724055	11.147291	25.659986	-0.082798	-0.220571	2.144124	0.000000	-0.013901	0.000000	-0.000001	-0.000000	0.000000	0.000000
52.165015	11.365819	25.569072	-0.414655	0.425958	2.151582	0.000000	0.047759	0.000000	-0.000001	-0.000000	0.000000	0.000000
52.605975	11.884234	24.914373	-0.765456	1.053106	2.186324	0.000000	0.109964	0.000000	-0.000001	-0.000000	0.000000	0.000000
53.046935	12.726221	23.725677	-1.151228	1.632338	2.248745	0.000000	0.173421	0.000000	-0.000001	-0.000000	0.000000	0.000000
53.487895	13.930247	22.057068	-1.589597	2.137300	2.339557	0.000000	0.238853	0.000000	-0.000001	-0.000000	0.000000	0.000000
53.933855	15.571954	19.959515	-2.104829	2.546351	2.461298	0.000000	0.307404	0.000000	-0.000001	-0.000000	0.000000	0.000000
54.482915	17.685538	17.599346	-1.721843	1.777586	2.609901	0.000000	0.233098	0.000000	-0.000002	-0.000000	0.000000	0.000000
55.031975	19.308878	16.009309	-1.217235	1.135434	2.716508	0.000000	0.154657	0.000000	-0.000002	-0.000000	0.000000	0.000000
55.581035	20.327309	15.076149	-0.626648	0.574157	2.779229	0.000000	0.073473	0.000000	-0.000002	-0.000000	0.000000	0.000000
56.130095	20.668895	14.733400	0.008202	0.053776	2.796951	0.000000	-0.009014	0.000000	-0.000002	-0.000000	0.000000	0.000000
56.428668	20.700568	14.684402	-0.060278	0.071835	2.796442	0.000000	-0.001706	0.000000	-0.000002	-0.000000	0.000000	0.000000
56.762001	20.746141	14.644118	-0.076439	0.049018	2.795874	0.000000	-0.001706	0.000000	-0.000002	-0.000000	0.000000	0.000000
57.095334	20.802488	14.619045	-0.092601	0.026201	2.795305	0.000000	-0.001706	0.000000	-0.000002	-0.000000	0.000000	0.000000
57.429918	20.869880	14.609175	-0.108822	0.003298	2.794734	0.000000	-0.001706	0.000000	-0.000002	-0.000000	0.000000	0.000000
57.727240	20.938877	14.613265	-0.177948	0.021128	2.794227	0.000000	0.005595	0.000000	-0.000002	-0.000000	0.000000	0.000000
58.276300	20.776988	14.870767	0.471049	-0.492884	2.774658	0.000000	-0.076774	0.000000	-0.000002	0.000000	0.000000	0.000000
58.825360	19.916557	15.708567	1.086773	-1.042003	2.710171	0.000000	-0.157781	0.000000	-0.000002	0.000000	0.000000	0.000000
59.374420	18.418359	17.186339	1.625733	-1.665342	2.601910	0.000000	-0.235989	0.000000	-0.000002	0.000000	0.000000	0.000000
59.923480	16.388221	19.409342	2.049860	-2.407300	2.451795	0.000000	-0.310012	0.000000	-0.000002	0.000000	0.000000	0.000000
60.369440	14.799130	21.385253	1.526061	-2.004691	2.328834	0.000000	-0.241723	0.000000	-0.000002	0.000000	0.000000	0.000000
60.810400	13.655975	22.942003	1.076197	-1.512240	2.236693	0.000000	-0.176585	0.000000	-0.000002	0.000000	0.000000	0.000000
61.251360	12.886465	24.032335	0.675502	-0.950984	2.172805	0.000000	-0.113457	0.000000	-0.000001	0.000000	0.000000	0.000000
61.692320	12.455444	24.606640	0.305668	-0.346458	2.136443	0.000000	-0.051622	0.000000	-0.000001	0.000000	0.000000	0.000000
62.134530	12.343268	24.638255	-0.020032	0.213356	2.127198	0.000000	0.004408	0.000000	-0.000001	0.000000	0.000000	0.000000
62.431853	12.362344	24.515135	-0.044129	0.200739	2.128508	0.000000	0.004408	0.000000	-0.000001	0.000000	0.000000	0.000000
62.765186	12.400769	24.386024	-0.071145	0.186594	2.129978	0.000000	0.004408	0.000000	-0.000001	0.000000	0.000000	0.000000
63.098520	12.457205	24.266343	-0.098161	0.172449	2.131447	0.000000	0.004408	0.000000	-0.000001	0.000000	0.000000	0.000000
63.433103	12.531964	24.155696	-0.125279	0.158251	2.132922	0.000000	0.004408	0.000000	-0.000001	0.000000	0.000000	0.000000
63.730426	12.613625	24.065344	-0.118444	0.086618	2.134233	0.000000	-0.000826	0.000000	-0.000001	0.000000	0.000000	0.000000
64.171386	12.878638	23.723906	-0.484827	0.684743	2.147411	0.000000	0.060654	0.000000	-0.000001	-0.000000	0.000000	0.000000
64.612346	13.475281	22.866744	-0.873360	1.251713	2.187826	0.000000	0.122824	0.000000	-0.000001	-0.000000	0.000000	0.000000
65.053306	14.430812	21.532860	-1.301795	1.761731	2.255937	0.000000	0.186393	0.000000	-0.000001	-0.000000	0.000000	0.000000
65.494266	15.788889	19.782943	-1.789706	2.191592	2.352521	0.000000	0.252085	0.000000	-0.000002	-0.000000	0.000000	0.000000
65.940226	17.634727	17.671842	-2.364077	2.522495	2.480250	0.000000	0.321049	0.000000	-0.000002	-0.000000	0.000000	0.000000
66.489286	20.000673	15.310087	-1.919500	1.804346	2.636154	0.000000	0.246011	0.000000	-0.000002	-0.000000	0.000000	0.000000
67.038346	21.800626	13.662167	-1.339338	1.214718	2.749598	0.000000	0.166609	0.000000	-0.000002	-0.000000	0.000000	0.000000
67.587406	22.907445	12.610704	-0.664573	0.711611	2.818569	0.000000	0.084252	0.000000	-0.000002	-0.000000	0.000000	0.000000
68.136466	23.242951	12.080804	0.057135	0.259190	2.841842	0.000000	0.000400	0.000000	-0.000002	0.000000	0.000000	0.000000
68.435038	23.248934	11.915183	-0.016442	0.263952	2.844179	0.000000	0.007826	0.000000	-0.000002	0.000000	0.000000	0.000000
68.768372	23.264676	11.749191	-0.030783	0.234027	2.846787	0.000000	0.007826	0.000000	-0.000002	0.000000	0.000000	0.000000
69.101705	23.289978	11.603147	-0.045125	0.204102	2.849396	0.000000	0.007826	0.000000	-0.000002	0.000000	0.000000	0.000000
69.436288	23.324991	11.476619	-0.059520	0.174066	2.852014	0.000000	0.007826	0.000000	-0.000002	0.000000	0.000000	0.000000
69.733611	23.364187	11.381048	-0.133359	0.177111	2.854341	0.000000	0.015284	0.000000	-0.000002	0.000000	0.000000	0.000000
70.282671	23.109375	11.414399	0.594701	-0.238212	2.839542	0.000000	-0.069110	0.000000	-0.000002	0.000000	0.000000	0.000000
