#ParticleID	Turn	x[m]	xp	y[m]	yp	z[m]	dE[GeV]# s	beta_x	beta_y	alpha_x	alpha_y	D_x	D_y	D_px	D_py	orbit_x	orbit_px	orbit_y	orbit_py
0.300000	11.825519	24.971166	-0.012496	-0.027657	2.618169	0.000000	-0.000009	0.000000	-0.000000	0.000000	0.000000	0.000000
0.601250	11.840723	24.991467	-0.037974	-0.039731	2.618166	0.000000	-0.000009	0.000000	-0.000000	0.000000	0.000000	0.000000
0.898573	11.870780	25.018635	-0.034010	-0.112999	2.618163	0.000000	-0.006430	0.000000	0.000000	0.000000	0.000000	0.000000
1.339533	12.053049	24.840793	-0.380904	0.514770	2.631621	0.000000	0.067529	0.000000	0.000000	0.000000	0.000000	0.000000
1.780493	12.547740	24.117562	-0.745200	1.119118	2.677831	0.000000	0.142256	0.000000	0.000000	0.000000	0.000000	0.000000
2.221453	13.377452	22.881847	-1.143542	1.672547	2.757317	0.000000	0.218604	0.000000	0.000001	0.000000	0.000000	0.000000
2.662413	14.580093	21.189872	-1.594130	2.149876	2.870987	0.000000	0.297442	0.000000	0.000001	0.000000	0.000000	0.000000
3.108373	16.231395	19.093807	-2.121845	2.530519	3.021995	0.000000	0.380156	0.000000	0.000001	0.000000	0.000000	0.000000
3.657433	18.348881	16.739692	-1.711892	1.782326	3.205452	0.000000	0.287119	0.000000	0.000001	0.000000	0.000000	0.000000
4.206493	19.946722	15.133066	-1.181020	1.161084	3.336350	0.000000	0.188988	0.000000	0.000002	0.000000	0.000000	0.000000
4.755553	20.912054	14.159494	-0.566726	0.622544	3.412367	0.000000	0.087505	0.000000	0.000002	0.000000	0.000000	0.000000
5.304613	21.176691	13.749629	0.087598	0.128346	3.432155	0.000000	-0.015530	0.000000	0.000002	0.000000	0.000000	0.000000
5.603185	21.161637	13.658194	0.018154	0.141970	3.430196	0.000000	-0.006562	0.000000	0.000002	0.000000	0.000000	0.000000
5.936519	21.154787	13.571847	0.002397	0.117073	3.428008	0.000000	-0.006562	0.000000	0.000002	0.000000	0.000000	0.000000
6.269852	21.158441	13.502097	-0.013360	0.092176	3.425821	0.000000	-0.006562	0.000000	0.000002	0.000000	0.000000	0.000000
6.604435	21.172673	13.448778	-0.029176	0.067185	3.423625	0.000000	-0.006562	0.000000	0.000002	0.000000	0.000000	0.000000
6.901758	21.194201	13.415429	-0.098606	0.080029	3.421674	0.000000	0.002378	0.000000	0.000002	0.000000	0.000000	0.000000
7.450818	20.941218	13.588145	0.556635	-0.396451	3.394778	0.000000	-0.100203	0.000000	0.000002	0.000000	0.000000	0.000000
7.999878	19.986132	14.296436	1.172559	-0.901170	3.311965	0.000000	-0.201005	0.000000	0.000003	0.000000	0.000000	0.000000
8.548938	18.396407	15.590753	1.705659	-1.470077	3.174705	0.000000	-0.298243	0.000000	0.000003	0.000000	0.000000	0.000000
9.097998	16.284333	17.563287	2.118280	-2.143694	2.985430	0.000000	-0.390190	0.000000	0.000003	-0.000000	0.000000	0.000000
9.543958	14.636443	19.320960	1.590009	-1.780973	2.829728	0.000000	-0.308485	0.000000	0.000003	0.000000	0.000000	0.000000
9.984918	13.437749	20.701755	1.138676	-1.338449	2.710944	0.000000	-0.230777	0.000000	0.000003	0.000000	0.000000	0.000000
10.425878	12.612738	21.663831	0.739366	-0.835026	2.625815	0.000000	-0.155698	0.000000	0.000003	0.000000	0.000000	0.000000
10.866838	12.123715	22.163416	0.373836	-0.293611	2.573371	0.000000	-0.082391	0.000000	0.000003	0.000000	0.000000	0.000000
11.309048	11.948204	22.177262	0.054580	0.206720	2.552994	0.000000	-0.016284	0.000000	0.000003	0.000000	0.000000	0.000000
11.606371	11.923169	22.058493	0.029621	0.192741	2.548153	0.000000	-0.016284	0.000000	0.000003	0.000000	0.000000	0.000000
12.086371	11.914073	21.884295	-0.010672	0.170172	2.540336	0.000000	-0.016284	0.000000	0.000003	0.000000	0.000000	0.000000
12.566371	11.943659	21.731763	-0.050965	0.147603	2.532520	0.000000	-0.016284	0.000000	0.000003	0.000000	0.000000	0.000000
13.046371	12.011926	21.600897	-0.091258	0.125034	2.524703	0.000000	-0.016284	0.000000	0.000003	0.000000	0.000000	0.000000
13.526371	12.118874	21.491697	-0.131551	0.102466	2.516887	0.000000	-0.016284	0.000000	0.000004	0.000000	0.000000	0.000000
14.007621	12.264933	21.403963	-0.171949	0.079838	2.509050	0.000000	-0.016284	0.000000	0.000004	0.000000	0.000000	0.000000
14.304943	12.374603	21.360644	-0.166562	0.013478	2.504208	0.000000	-0.022425	0.000000	0.000004	0.000000	0.000000	0.000000
14.745903	12.680164	21.114945	-0.529013	0.541594	2.509951	0.000000	0.048496	0.000000	0.000004	0.000000	0.000000	0.000000
15.186863	13.314787	20.412618	-0.915632	1.045067	2.547059	0.000000	0.119970	0.000000	0.000004	0.000001	0.000000	0.000000
15.627823	14.307465	19.285619	-1.344084	1.500991	2.615955	0.000000	0.192810	0.000000	0.000004	0.000001	0.000000	0.000000
16.068783	15.703552	17.785226	-1.833943	1.888621	2.717423	0.000000	0.267846	0.000000	0.000005	0.000001	0.000000	0.000000
16.514743	17.590485	15.958203	-2.412348	2.191068	2.854315	0.000000	0.346395	0.000000	0.000005	0.000001	0.000000	0.000000
17.063803	20.013803	13.918069	-1.975101	1.546550	3.020777	0.000000	0.259065	0.000000	0.000006	0.000001	0.000000	0.000000
17.612863	21.877057	12.521411	-1.398344	1.012189	3.137955	0.000000	0.167141	0.000000	0.000006	0.000001	0.000000	0.000000
18.161923	23.048635	11.668751	-0.722814	0.549924	3.203772	0.000000	0.072251	0.000000	0.000006	0.000000	0.000000	0.000000
18.710983	23.445783	11.299354	0.003772	0.126828	3.217060	0.000000	-0.023920	0.000000	0.000006	0.000000	0.000000	0.000000
19.009556	23.483924	11.214072	-0.070261	0.129280	3.212428	0.000000	-0.015515	0.000000	0.000006	0.000000	0.000000	0.000000
19.342889	23.535520	11.137959	-0.084525	0.099059	3.207256	0.000000	-0.015515	0.000000	0.000006	0.000000	0.000000	0.000000
19.676223	23.596625	11.081994	-0.098790	0.068838	3.202085	0.000000	-0.015515	0.000000	0.000006	0.000000	0.000000	0.000000
20.010806	23.667815	11.045943	-0.230371	0.093231	3.196913	0.000000	0.000325	0.000000	0.000006	0.000000	0.000000	0.000000
20.308129	23.808737	10.998576	-0.305804	0.094816	3.197010	0.000000	0.008678	0.000000	0.000006	0.000000	0.000000	0.000000
20.857189	23.733913	11.116894	0.441275	-0.311581	3.175556	0.000000	-0.086711	0.000000	0.000006	-0.000000	0.000000	0.000000
21.406249	22.851037	11.690981	1.157184	-0.740171	3.102073	0.000000	-0.180562	0.000000	0.000006	-0.000000	0.000000	0.000000
21.955309	21.222471	12.761726	1.791356	-1.221482	2.977865	0.000000	-0.271211	0.000000	0.000006	-0.000000	0.000000	0.000000
22.504369	18.963249	14.405398	2.298995	-1.789797	2.805135	0.000000	-0.357048	0.000000	0.000006	-0.000001	0.000000	0.000000
22.950329	17.182884	15.880994	1.707305	-1.505054	2.663199	0.000000	-0.279841	0.000000	0.000006	-0.000000	0.000000	0.000000
23.391289	15.906463	17.057429	1.198315	-1.152688	2.556123	0.000000	-0.206275	0.000000	0.000005	-0.000000	0.000000	0.000000
23.832249	15.053186	17.898703	0.744072	-0.747876	2.480937	0.000000	-0.135058	0.000000	0.000005	-0.000000	0.000000	0.000000
24.273209	14.584066	18.366540	0.323823	-0.309037	2.436787	0.000000	-0.065380	0.000000	0.000005	-0.000000	0.000000	0.000000
24.715418	14.477788	18.439406	-0.046215	0.098578	2.423165	0.000000	-0.002389	0.000000	0.000005	0.000000	0.000000	0.000000
25.012741	14.511389	18.385628	-0.066796	0.082297	2.422455	0.000000	-0.002389	0.000000	0.000005	0.000000	0.000000	0.000000
25.346075	14.563610	18.336848	-0.089869	0.064044	2.421659	0.000000	-0.002389	0.000000	0.000005	0.000000	0.000000	0.000000
25.679408	14.631213	18.300236	-0.112942	0.045791	2.420862	0.000000	-0.002389	0.000000	0.000005	0.000000	0.000000	0.000000
26.013991	14.714240	18.276094	-0.016730	-0.120795	2.420039	0.000000	-0.022022	0.000000	0.000005	0.000000	0.000000	0.000000
26.311314	14.730198	18.352832	-0.000821	-0.182305	2.413491	0.000000	-0.027940	0.000000	0.000005	-0.000000	0.000000	0.000000
26.752274	14.912423	18.314533	-0.413993	0.268826	2.416281	0.000000	0.040605	0.000000	0.000005	0.000000	0.000000	0.000000
27.193234	15.465965	17.882269	-0.846080	0.707725	2.449369	0.000000	0.109612	0.000000	0.000005	0.000000	0.000000	0.000000
27.634194	16.416114	17.075705	-1.316822	1.114423	2.513132	0.000000	0.179867	0.000000	0.000006	0.000000	0.000000	0.000000
28.075154	17.806279	15.931540	-1.847725	1.470416	2.608298	0.000000	0.252171	0.000000	0.000006	0.000001	0.000000	0.000000
28.521114	19.724129	14.484601	-2.468005	1.760419	2.737551	0.000000	0.327791	0.000000	0.000006	0.000001	0.000000	0.000000
29.070174	22.161726	12.872315	-1.945296	1.193361	2.894864	0.000000	0.244393	0.000000	0.000006	0.000001	0.000000	0.000000
29.619234	23.946014	11.832676	-1.285180	0.711304	3.005127	0.000000	0.156660	0.000000	0.000007	0.000000	0.000000	0.000000
30.168294	24.950959	11.291633	-0.534286	0.279911	3.066384	0.000000	0.066148	0.000000	0.000007	0.000000	0.000000	0.000000
30.717354	25.105578	11.210649	0.254347	-0.131544	3.077549	0.000000	-0.025537	0.000000	0.000007	-0.000000	0.000000	0.000000
31.015927	24.996541	11.279745	0.176439	-0.129166	3.072325	0.000000	-0.017497	0.000000	0.000007	-0.000000	0.000000	0.000000
31.349260	24.883498	11.375871	0.162688	-0.159211	3.066493	0.000000	-0.017497	0.000000	0.000007	-0.000000	0.000000	0.000000
31.682593	24.779623	11.492026	0.148938	-0.189255	3.060661	0.000000	-0.017497	0.000000	0.000007	-0.000000	0.000000	0.000000
32.017177	24.684577	11.628759	0.135136	-0.219412	3.054807	0.000000	-0.017497	0.000000	0.000007	-0.000000	0.000000	0.000000
32.314499	24.607865	11.767200	0.058579	-0.215467	3.049605	0.000000	-0.009529	0.000000	0.000007	-0.000000	0.000000	0.000000
32.863559	24.121974	12.243114	0.821133	-0.656428	3.019491	0.000000	-0.100002	0.000000	0.000007	-0.000000	0.000000	0.000000
33.412619	22.825755	13.225935	1.525687	-1.144145	2.940117	0.000000	-0.188700	0.000000	0.000006	-0.000001	0.000000	0.000000
33.961679	20.810767	14.785669	2.122474	-1.713357	2.812891	0.000000	-0.274052	0.000000	0.000006	-0.000001	0.000000	0.000000
34.510739	18.219339	17.033410	2.569340	-2.404607	2.640069	0.000000	-0.354543	0.000000	0.000005	-0.000001	0.000000	0.000000
34.956699	16.204490	19.043883	1.964853	-2.084760	2.498299	0.000000	-0.281615	0.000000	0.000005	-0.000001	0.000000	0.000000
35.397659	14.702109	20.706263	1.455140	-1.670805	2.389499	0.000000	-0.212323	0.000000	0.000005	-0.000001	0.000000	0.000000
35.838619	13.618350	21.968523	1.011909	-1.180830	2.310693	0.000000	-0.145448	0.000000	0.000005	-0.000001	0.000000	0.000000
36.279579	12.903699	22.773232	0.614909	-0.637128	2.260983	0.000000	-0.080231	0.000000	0.000004	-0.000000	0.000000	0.000000
36.721789	12.524814	23.084079	0.276610	-0.121098	2.239776	0.000000	-0.021419	0.000000	0.000004	-0.000000	0.000000	0.000000
37.019112	12.367928	23.159975	0.251055	-0.134167	2.233407	0.000000	-0.021419	0.000000	0.000004	-0.000000	0.000000	0.000000
37.352445	12.210107	23.254304	0.222405	-0.148819	2.226268	0.000000	-0.021419	0.000000	0.000004	-0.000000	0.000000	0.000000
37.685779	12.071387	23.358400	0.193755	-0.163471	2.219128	0.000000	-0.021419	0.000000	0.000004	-0.000000	0.000000	0.000000
38.020362	11.951355	23.472710	0.164997	-0.178177	2.211962	0.000000	-0.021419	0.000000	0.000004	-0.000000	0.000000	0.000000
38.317684	11.860838	23.582548	0.168528	-0.249076	2.205594	0.000000	-0.026828	0.000000	0.000004	-0.000000	0.000000	0.000000
38.758644	11.863476	23.541021	-0.174533	0.342893	2.207691	0.000000	0.036349	0.000000	0.000004	-0.000000	0.000000	0.000000
39.199604	12.171025	22.982336	-0.525567	0.919260	2.237711	0.000000	0.099939	0.000000	0.000004	-0.000000	0.000000	0.000000
39.640564	12.797537	21.931913	-0.900614	1.453801	2.295996	0.000000	0.164667	0.000000	0.000003	-0.000000	0.000000	0.000000
40.081524	13.771635	20.437547	-1.316806	1.922196	2.383209	0.000000	0.231271	0.000000	0.000004	0.000000	0.000000	0.000000
40.527484	15.155390	18.544661	-1.796985	2.304412	2.501816	0.000000	0.300914	0.000000	0.000004	0.000000	0.000000	0.000000
41.076544	16.921394	16.417603	-1.400388	1.592453	2.646506	0.000000	0.225358	0.000000	0.000004	0.000000	0.000000	0.000000
41.625604	18.194659	15.005862	-0.904875	0.993921	2.748552	0.000000	0.145805	0.000000	0.000004	-0.000000	0.000000	0.000000
42.174664	18.885248	14.208882	-0.345446	0.466183	2.806143	0.000000	0.063666	0.000000	0.000004	-0.000000	0.000000	0.000000
42.723724	18.944382	13.969895	0.238383	-0.028349	2.818258	0.000000	-0.019602	0.000000	0.000003	-0.000000	0.000000	0.000000
43.022297	18.836463	13.971409	0.172564	-0.013223	2.814604	0.000000	-0.012239	0.000000	0.000003	-0.000000	0.000000	0.000000
43.502297	18.683397	14.000597	0.146323	-0.047585	2.808730	0.000000	-0.012239	0.000000	0.000003	-0.000000	0.000000	0.000000
43.982297	18.555523	14.062773	0.120081	-0.081947	2.802856	0.000000	-0.012239	0.000000	0.000003	-0.000000	0.000000	0.000000
44.462297	18.452841	14.157935	0.093840	-0.116309	2.796981	0.000000	-0.012239	0.000000	0.000003	-0.000000	0.000000	0.000000
44.942297	18.375351	14.286086	0.067599	-0.150671	2.791107	0.000000	-0.012239	0.000000	0.000003	-0.000000	0.000000	0.000000
45.423547	18.323175	14.447507	-0.049494	-0.113540	2.785235	0.000000	0.001561	0.000000	0.000003	-0.000000	0.000000	0.000000
45.720870	18.357443	14.521221	-0.113724	-0.096445	2.785699	0.000000	0.008840	0.000000	0.000002	-0.000000	0.000000	0.000000
46.269930	18.173218	14.908037	0.447267	-0.612221	2.767981	0.000000	-0.073283	0.000000	0.000002	-0.000000	0.000000	0.000000
46.818990	17.386737	15.881718	0.976665	-1.171605	2.705464	0.000000	-0.154106	0.000000	0.000002	-0.000000	0.000000	0.000000
47.368050	16.053556	17.511614	1.437077	-1.814440	2.599257	0.000000	-0.232195	0.000000	0.000002	-0.000000	0.000000	0.000000
47.917110	14.267842	19.913822	1.795981	-2.586513	2.451243	0.000000	-0.306166	0.000000	0.000002	-0.000001	0.000000	0.000000
48.363070	12.878117	22.049668	1.331314	-2.182675	2.329998	0.000000	-0.237869	0.000000	0.000001	-0.000001	0.000000	0.000000
48.804030	11.884192	23.759813	0.931239	-1.680798	2.239566	0.000000	-0.172678	0.000000	0.000001	-0.000000	0.000000	0.000000
49.244990	11.223078	24.991801	0.573710	-1.102446	2.177421	0.000000	-0.109455	0.000000	0.000001	-0.000000	0.000000	0.000000
49.685950	10.864569	25.689577	0.242392	-0.473934	2.142854	0.000000	-0.047477	0.000000	0.000001	-0.000000	0.000000	0.000000
50.128160	10.792416	25.821110	-0.051502	0.112772	2.135482	0.000000	0.008722	0.000000	0.000000	-0.000000	0.000000	0.000000
50.425482	10.831254	25.757518	-0.079124	0.101111	2.138075	0.000000	0.008722	0.000000	0.000000	-0.000000	0.000000	0.000000
50.758816	10.894326	25.694469	-0.110092	0.088037	2.140983	0.000000	0.008722	0.000000	0.000000	-0.000000	0.000000	0.000000
51.092149	10.978044	25.640135	-0.141060	0.074964	2.143891	0.000000	0.008722	0.000000	0.000000	-0.000000	0.000000	0.000000
51.426732	11.082612	25.594882	-0.082234	-0.145797	2.146787	0.000000	-0.008694	0.000000	-0.000000	-0.000000	0.000000	0.000000
51.724055	11.139543	25.685106	-0.081926	-0.220648	2.144203	0.000000	-0.013952	0.000000	-0.000000	-0.000000	0.000000	0.000000
52.165015	11.357217	25.593967	-0.413583	0.426545	2.151639	0.000000	0.047710	0.000000	-0.000000	-0.000000	0.000000	0.000000
52.605975	11.874581	24.938467	-0.764136	1.054330	2.186359	0.000000	0.109916	0.000000	-0.000001	-0.000000	0.000000	0.000000
53.046935	12.715273	23.748428	-1.149600	1.634144	2.248760	0.000000	0.173373	0.000000	-0.000001	-0.000000	0.000000	0.000000
53.487895	13.917700	22.077999	-1.587586	2.139606	2.339551	0.000000	0.238806	0.000000	-0.000001	-0.000000	0.000000	0.000000
53.933855	15.557408	19.978204	-2.102339	2.549052	2.461271	0.000000	0.307356	0.000000	-0.000001	-0.000001	0.000000	0.000000
54.482915	17.668443	17.615469	-1.719718	1.779586	2.609848	0.000000	0.233052	0.000000	-0.000001	-0.000000	0.000000	0.000000
55.031975	19.289720	16.023553	-1.215625	1.136876	2.716431	0.000000	0.154613	0.000000	-0.000002	-0.000000	0.000000	0.000000
55.581035	20.306720	15.089069	-0.625667	0.575142	2.779129	0.000000	0.073432	0.000000	-0.000002	-0.000000	0.000000	0.000000
56.130095	20.647607	14.745454	0.008486	0.054375	2.796829	0.000000	-0.009051	0.000000	-0.000002	-0.000000	0.000000	0.000000
56.428668	20.679081	14.696076	-0.059953	0.072480	2.796309	0.000000	-0.001744	0.000000	-0.000002	-0.000000	0.000000	0.000000
56.762001	20.724443	14.655356	-0.076131	0.049679	2.795728	0.000000	-0.001744	0.000000	-0.000002	-0.000000	0.000000	0.000000
57.095334	20.780589	14.629837	-0.092308	0.026878	2.795147	0.000000	-0.001744	0.000000	-0.000002	-0.000000	0.000000	0.000000
57.429918	20.847791	14.619509	-0.108546	0.003991	2.794563	0.000000	-0.001744	0.000000	-0.000002	-0.000000	0.000000	0.000000
57.727240	20.916628	14.623183	-0.177628	0.021862	2.794045	0.000000	0.005557	0.000000	-0.000003	-0.000000	0.000000	0.000000
58.276300	20.754799	14.880033	0.470621	-0.492423	2.774456	0.000000	-0.076806	0.000000	-0.000003	-0.000000	0.000000	0.000000
58.825360	19.895238	15.717461	1.085627	-1.041782	2.709954	0.000000	-0.157806	0.000000	-0.000003	-0.000000	0.000000	0.000000
59.374420	18.398658	17.195114	1.623950	-1.665346	2.601681	0.000000	-0.236007	0.000000	-0.000003	-0.000000	0.000000	0.000000
59.923480	16.370771	19.418243	2.047566	-2.407528	2.451558	0.000000	-0.310022	0.000000	-0.000003	0.000000	0.000000	0.000000
60.369440	14.783494	21.394233	1.524276	-2.004638	2.328591	0.000000	-0.241740	0.000000	-0.000003	-0.000000	0.000000	0.000000
60.810400	13.641720	22.950813	1.074836	-1.511910	2.236441	0.000000	-0.176608	0.000000	-0.000003	-0.000000	0.000000	0.000000
61.251360	12.873247	24.040737	0.674502	-0.950391	2.172542	0.000000	-0.113487	0.000000	-0.000003	-0.000000	0.000000	0.000000
61.692320	12.442965	24.614414	0.304985	-0.345631	2.136165	0.000000	-0.051659	0.000000	-0.000003	-0.000000	0.000000	0.000000
62.134530	12.331266	24.645206	-0.020460	0.214363	2.126902	0.000000	0.004365	0.000000	-0.000003	-0.000000	0.000000	0.000000
62.431853	12.350604	24.521488	-0.044581	0.201744	2.128200	0.000000	0.004365	0.000000	-0.000003	-0.000000	0.000000	0.000000
62.765186	12.389339	24.391708	-0.071624	0.187597	2.129655	0.000000	0.004365	0.000000	-0.000003	-0.000000	0.000000	0.000000
63.098520	12.446103	24.271358	-0.098667	0.173450	2.131110	0.000000	0.004365	0.000000	-0.000003	-0.000000	0.000000	0.000000
63.433103	12.521210	24.160042	-0.125811	0.159251	2.132571	0.000000	0.004365	0.000000	-0.000004	-0.000000	0.000000	0.000000
63.730426	12.603194	24.069096	-0.119025	0.087606	2.133869	0.000000	-0.000868	0.000000	-0.000004	-0.000000	0.000000	0.000000
64.171386	12.868619	23.726751	-0.485184	0.685804	2.147026	0.000000	0.060601	0.000000	-0.000004	-0.000000	0.000000	0.000000
64.612346	13.465485	22.868638	-0.873511	1.252800	2.187416	0.000000	0.122761	0.000000	-0.000004	-0.000000	0.000000	0.000000
65.053306	14.421061	21.533803	-1.301746	1.762794	2.255497	0.000000	0.186319	0.000000	-0.000004	-0.000001	0.000000	0.000000
65.494266	15.779005	19.782978	-1.789453	2.192582	2.352046	0.000000	0.251999	0.000000	-0.000005	-0.000001	0.000000	0.000000
65.940226	17.624522	17.671043	-2.363609	2.523366	2.479734	0.000000	0.320951	0.000000	-0.000005	-0.000001	0.000000	0.000000
66.489286	19.990168	15.308388	-1.919424	1.805126	2.635590	0.000000	0.245930	0.000000	-0.000005	-0.000001	0.000000	0.000000
67.038346	21.790256	13.659637	-1.339660	1.215461	2.748995	0.000000	0.166547	0.000000	-0.000006	-0.000000	0.000000	0.000000
67.587406	22.897638	12.607352	-0.665270	0.712371	2.817937	0.000000	0.084210	0.000000	-0.000006	-0.000000	0.000000	0.000000
68.136466	23.234093	12.076583	0.056112	0.260022	2.841193	0.000000	0.000379	0.000000	-0.000006	-0.000000	0.000000	0.000000
68.435038	23.240675	11.910479	-0.017448	0.264752	2.843523	0.000000	0.007803	0.000000	-0.000006	-0.000000	0.000000	0.000000
68.768372	23.257089	11.743960	-0.031795	0.234804	2.846124	0.000000	0.007803	0.000000	-0.000006	-0.000000	0.000000	0.000000
69.101705	23.283068	11.597407	-0.046142	0.204855	2.848725	0.000000	0.007803	0.000000	-0.000006	-0.000000	0.000000	0.000000
69.436288	23.318763	11.470382	-0.060543	0.174795	2.851336	0.000000	0.007803	0.000000	-0.000006	-0.000000	0.000000	0.000000
69.733611	23.358570	11.374384	-0.134375	0.177803	2.853656	0.000000	0.015260	0.000000	-0.000006	-0.000000	0.000000	0.000000
70.282671	23.104965	11.406871	0.593529	-0.237320	2.838850	0.000000	-0.069112	0.000000	-0.000006	0.000000	0.000000	0.000000
