#ParticleID	Turn	x[m]	xp	y[m]	yp	z[m]	dE[GeV]# s	beta_x	beta_y	alpha_x	alpha_y	D_x	D_y	D_px	D_py	orbit_x	orbit_px	orbit_y	orbit_py
0.300000	11.817355	25.003625	-0.011472	-0.027408	2.618100	0.000000	0.000016	0.000000	-0.000001	0.000001	0.000000	0.000000
0.601250	11.831948	25.023771	-0.036967	-0.039466	2.618105	0.000000	0.000016	0.000000	-0.000000	0.000001	0.000000	0.000000
0.898573	11.861412	25.050777	-0.033043	-0.112797	2.618109	0.000000	-0.006404	0.000000	0.000000	0.000001	0.000000	0.000000
1.339533	12.042726	24.872382	-0.379698	0.515817	2.631578	0.000000	0.067553	0.000000	0.000000	0.000001	0.000000	0.000000
1.780493	12.536228	24.147871	-0.743701	1.120962	2.677797	0.000000	0.142279	0.000000	0.000001	0.000001	0.000000	0.000000
2.221453	13.364464	22.910208	-1.141681	1.675105	2.757294	0.000000	0.218626	0.000000	0.000001	0.000001	0.000000	0.000000
2.662413	14.565274	21.215705	-1.591821	2.153031	2.870973	0.000000	0.297463	0.000000	0.000002	0.000001	0.000000	0.000000
3.108373	16.214277	19.116610	-2.118979	2.534128	3.021990	0.000000	0.380178	0.000000	0.000002	0.000001	0.000000	0.000000
3.657433	18.328838	16.759041	-1.709462	1.785046	3.205459	0.000000	0.287140	0.000000	0.000003	0.000001	0.000000	0.000000
4.206493	19.924331	15.149826	-1.179198	1.163108	3.336368	0.000000	0.189009	0.000000	0.000004	0.000001	0.000000	0.000000
4.755553	20.888057	14.174346	-0.565641	0.624016	3.412396	0.000000	0.087525	0.000000	0.000004	0.000001	0.000000	0.000000
5.304613	21.151944	13.763119	0.087871	0.129371	3.432195	0.000000	-0.015511	0.000000	0.000004	0.000001	0.000000	0.000000
5.603185	21.136692	13.671047	0.018476	0.143044	3.430242	0.000000	-0.006543	0.000000	0.000005	0.000001	0.000000	0.000000
5.936519	21.129634	13.583978	0.002700	0.118162	3.428060	0.000000	-0.006543	0.000000	0.000005	0.000001	0.000000	0.000000
6.269852	21.133092	13.513497	-0.013076	0.093281	3.425879	0.000000	-0.006543	0.000000	0.000005	0.000001	0.000000	0.000000
6.604435	21.147140	13.459433	-0.028910	0.068306	3.423689	0.000000	-0.006543	0.000000	0.000005	0.000001	0.000000	0.000000
6.901758	21.168515	13.425413	-0.098289	0.081190	3.421744	0.000000	0.002397	0.000000	0.000006	0.000001	0.000000	0.000000
7.450818	20.915658	13.597004	0.556091	-0.395552	3.394858	0.000000	-0.100186	0.000000	0.000006	0.000001	0.000000	0.000000
7.999878	19.961629	14.304421	1.171191	-0.900467	3.312053	0.000000	-0.200991	0.000000	0.000006	0.000000	0.000000	0.000000
8.548938	18.373817	15.598051	1.703564	-1.469521	3.174799	0.000000	-0.298232	0.000000	0.000006	0.000000	0.000000	0.000000
9.097998	16.264377	17.570037	2.115606	-2.143246	2.985530	0.000000	-0.390183	0.000000	0.000006	-0.000000	0.000000	0.000000
9.543958	14.618603	19.327190	1.587922	-1.780258	2.829832	0.000000	-0.308475	0.000000	0.000006	0.000000	0.000000	0.000000
9.984918	13.421530	20.707249	1.137076	-1.337502	2.711053	0.000000	-0.230764	0.000000	0.000006	0.000000	0.000000	0.000000
10.425878	12.597742	21.668404	0.738180	-0.833890	2.625931	0.000000	-0.155681	0.000000	0.000007	0.000000	0.000000	0.000000
10.866838	12.109604	22.166922	0.373009	-0.292338	2.573494	0.000000	-0.082372	0.000000	0.000007	0.000001	0.000000	0.000000
11.309048	11.934679	22.179602	0.054041	0.208069	2.553127	0.000000	-0.016262	0.000000	0.000007	0.000001	0.000000	0.000000
11.606371	11.909973	22.060033	0.029055	0.194083	2.548291	0.000000	-0.016262	0.000000	0.000007	0.000001	0.000000	0.000000
12.086371	11.901441	21.884551	-0.011281	0.171505	2.540486	0.000000	-0.016262	0.000000	0.000008	0.000001	0.000000	0.000000
12.566371	11.931633	21.730745	-0.051617	0.148926	2.532680	0.000000	-0.016262	0.000000	0.000008	0.000001	0.000000	0.000000
13.046371	12.000547	21.598613	-0.091954	0.126348	2.524874	0.000000	-0.016262	0.000000	0.000008	0.000001	0.000000	0.000000
13.526371	12.108184	21.488157	-0.132290	0.103769	2.517068	0.000000	-0.016262	0.000000	0.000009	0.000001	0.000000	0.000000
14.007621	12.254976	21.399173	-0.172732	0.081132	2.509242	0.000000	-0.016262	0.000000	0.000009	0.000001	0.000000	0.000000
14.304943	12.365119	21.355087	-0.167397	0.014782	2.504406	0.000000	-0.022403	0.000000	0.000009	0.000001	0.000000	0.000000
14.745903	12.671330	21.108312	-0.529658	0.542719	2.510160	0.000000	0.048524	0.000000	0.000010	0.000001	0.000000	0.000000
15.186863	13.306450	20.405090	-0.916117	1.045963	2.547281	0.000000	0.120003	0.000000	0.000010	0.000001	0.000000	0.000000
15.627823	14.299495	19.277418	-1.344432	1.501617	2.616192	0.000000	0.192849	0.000000	0.000011	0.000002	0.000000	0.000000
16.068783	15.695834	17.776603	-1.834170	1.888948	2.717679	0.000000	0.267891	0.000000	0.000012	0.000002	0.000000	0.000000
16.514743	17.582919	15.949429	-2.412463	2.191079	2.854592	0.000000	0.346447	0.000000	0.000012	0.000002	0.000000	0.000000
17.063803	20.006556	13.909189	-1.975562	1.546734	3.021079	0.000000	0.259108	0.000000	0.000013	0.000002	0.000000	0.000000
17.612863	21.870491	12.512228	-1.399117	1.012560	3.138278	0.000000	0.167173	0.000000	0.000014	0.000001	0.000000	0.000000
18.161923	23.043067	11.659046	-0.723845	0.550508	3.204110	0.000000	0.072273	0.000000	0.000015	0.000001	0.000000	0.000000
18.710983	23.441457	11.288871	0.002555	0.127668	3.217407	0.000000	-0.023909	0.000000	0.000015	0.000000	0.000000	0.000000
19.009556	23.480317	11.203115	-0.071466	0.130059	3.212778	0.000000	-0.015503	0.000000	0.000015	0.000000	0.000000	0.000000
19.342889	23.532717	11.126495	-0.085735	0.099802	3.207610	0.000000	-0.015503	0.000000	0.000015	0.000000	0.000000	0.000000
19.676223	23.594630	11.070047	-0.100004	0.069545	3.202442	0.000000	-0.015503	0.000000	0.000015	0.000000	0.000000	0.000000
20.010806	23.666634	11.033534	-0.231584	0.093841	3.197274	0.000000	0.000338	0.000000	0.000016	0.000000	0.000000	0.000000
20.308129	23.808280	10.985815	-0.307019	0.095357	3.197375	0.000000	0.008691	0.000000	0.000016	0.000000	0.000000	0.000000
20.857189	23.734791	11.103340	0.440071	-0.310669	3.175924	0.000000	-0.086710	0.000000	0.000016	-0.000000	0.000000	0.000000
21.406249	22.853192	11.676193	1.156077	-0.738823	3.102439	0.000000	-0.180573	0.000000	0.000016	-0.000001	0.000000	0.000000
21.955309	21.225752	12.745177	1.790422	-1.219602	2.978223	0.000000	-0.271233	0.000000	0.000015	-0.000001	0.000000	0.000000
22.504369	18.967428	14.386432	2.298302	-1.787251	2.805478	0.000000	-0.357082	0.000000	0.000014	-0.000002	0.000000	0.000000
22.950329	17.187686	15.859945	1.706595	-1.502947	2.663529	0.000000	-0.279866	0.000000	0.000014	-0.000001	0.000000	0.000000
23.391289	15.911912	17.034751	1.197554	-1.151115	2.556443	0.000000	-0.206291	0.000000	0.000013	-0.000001	0.000000	0.000000
23.832249	15.059340	17.874900	0.743226	-0.746908	2.481253	0.000000	-0.135067	0.000000	0.000013	-0.000000	0.000000	0.000000
24.273209	14.591018	18.342166	0.322854	-0.308717	2.437100	0.000000	-0.065380	0.000000	0.000013	-0.000000	0.000000	0.000000
24.715418	14.485668	18.415044	-0.047336	0.098297	2.423481	0.000000	-0.002381	0.000000	0.000013	0.000000	0.000000	0.000000
25.012741	14.519933	18.361439	-0.067907	0.081996	2.422773	0.000000	-0.002381	0.000000	0.000013	0.000000	0.000000	0.000000
25.346075	14.572892	18.312867	-0.090970	0.063720	2.421979	0.000000	-0.002381	0.000000	0.000013	0.000000	0.000000	0.000000
25.679408	14.641226	18.276479	-0.114033	0.045444	2.421185	0.000000	-0.002381	0.000000	0.000013	0.000000	0.000000	0.000000
26.013991	14.724979	18.252578	-0.017723	-0.120975	2.420364	0.000000	-0.022017	0.000000	0.000013	0.000000	0.000000	0.000000
26.311314	14.741524	18.329429	-0.001775	-0.182446	2.413818	0.000000	-0.027935	0.000000	0.000013	0.000000	0.000000	0.000000
26.752274	14.924717	18.291536	-0.415241	0.268053	2.416612	0.000000	0.040618	0.000000	0.000013	0.000000	0.000000	0.000000
27.193234	15.479509	17.860218	-0.847678	0.706357	2.449707	0.000000	0.109634	0.000000	0.000013	0.000001	0.000000	0.000000
27.634194	16.431248	17.055102	-1.318843	1.112522	2.513482	0.000000	0.179898	0.000000	0.000014	0.000001	0.000000	0.000000
28.075154	17.823416	15.912818	-1.850263	1.468067	2.608662	0.000000	0.252211	0.000000	0.000014	0.000001	0.000000	0.000000
28.521114	19.743804	14.468135	-2.471180	1.757730	2.737936	0.000000	0.327840	0.000000	0.000015	0.000002	0.000000	0.000000
29.070174	22.184630	12.858443	-1.947966	1.191298	2.895271	0.000000	0.244429	0.000000	0.000016	0.000001	0.000000	0.000000
29.619234	23.971485	11.820795	-1.287157	0.709719	3.005551	0.000000	0.156683	0.000000	0.000016	0.000001	0.000000	0.000000
30.168294	24.978153	11.281283	-0.535429	0.278692	3.066817	0.000000	0.066157	0.000000	0.000017	0.000000	0.000000	0.000000
30.717354	25.133529	11.201477	0.254118	-0.132484	3.077983	0.000000	-0.025542	0.000000	0.000017	-0.000000	0.000000	0.000000
31.015927	25.024665	11.271158	0.176157	-0.130160	3.072758	0.000000	-0.017501	0.000000	0.000017	-0.000000	0.000000	0.000000
31.349260	24.911805	11.367956	0.162423	-0.160235	3.066925	0.000000	-0.017501	0.000000	0.000016	-0.000000	0.000000	0.000000
31.682593	24.808101	11.484805	0.148690	-0.190310	3.061091	0.000000	-0.017501	0.000000	0.000016	-0.000000	0.000000	0.000000
32.017177	24.713215	11.622254	0.134905	-0.220498	3.055236	0.000000	-0.017501	0.000000	0.000016	-0.000000	0.000000	0.000000
32.314499	24.636637	11.761348	0.058293	-0.216598	3.050033	0.000000	-0.009533	0.000000	0.000016	-0.000000	0.000000	0.000000
32.863559	24.150533	12.238440	0.821804	-0.657456	3.019913	0.000000	-0.100019	0.000000	0.000016	-0.000001	0.000000	0.000000
33.412619	22.853071	13.222366	1.527267	-1.145143	2.940526	0.000000	-0.188731	0.000000	0.000015	-0.000001	0.000000	0.000000
33.961679	20.835897	14.783212	2.124852	-1.714396	2.813280	0.000000	-0.274096	0.000000	0.000015	-0.000002	0.000000	0.000000
34.510739	18.241494	17.032150	2.572347	-2.405761	2.640430	0.000000	-0.354599	0.000000	0.000013	-0.000002	0.000000	0.000000
34.956699	16.224266	19.043730	1.967197	-2.086077	2.498638	0.000000	-0.281662	0.000000	0.000013	-0.000002	0.000000	0.000000
35.397659	14.720068	20.707321	1.456934	-1.672223	2.389820	0.000000	-0.212361	0.000000	0.000012	-0.000002	0.000000	0.000000
35.838619	13.634939	21.970853	1.013234	-1.182285	2.310999	0.000000	-0.145479	0.000000	0.000011	-0.000001	0.000000	0.000000
36.279579	12.919304	22.776837	0.615826	-0.638553	2.261277	0.000000	-0.080253	0.000000	0.000011	-0.000001	0.000000	0.000000
36.721789	12.539773	23.088907	0.277195	-0.122438	2.240062	0.000000	-0.021435	0.000000	0.000010	-0.000001	0.000000	0.000000
37.019112	12.382532	23.165600	0.251663	-0.135508	2.233689	0.000000	-0.021435	0.000000	0.000010	-0.000001	0.000000	0.000000
37.352445	12.224298	23.260823	0.223039	-0.150161	2.226545	0.000000	-0.021435	0.000000	0.000010	-0.000001	0.000000	0.000000
37.685779	12.085147	23.365815	0.194414	-0.164815	2.219400	0.000000	-0.021435	0.000000	0.000010	-0.000001	0.000000	0.000000
38.020362	11.964665	23.481025	0.165682	-0.179523	2.212229	0.000000	-0.021435	0.000000	0.000009	-0.000001	0.000000	0.000000
38.317684	11.873734	23.591664	0.169265	-0.250442	2.205856	0.000000	-0.026843	0.000000	0.000009	-0.000001	0.000000	0.000000
38.758644	11.875850	23.551231	-0.174081	0.341787	2.207948	0.000000	0.036339	0.000000	0.000009	-0.000001	0.000000	0.000000
39.199604	12.183119	22.993387	-0.525381	0.918464	2.237965	0.000000	0.099936	0.000000	0.000009	-0.000000	0.000000	0.000000
39.640564	12.809580	21.943516	-0.900684	1.453353	2.296250	0.000000	0.164671	0.000000	0.000009	-0.000000	0.000000	0.000000
40.081524	13.783855	20.449384	-1.317137	1.922115	2.383467	0.000000	0.231281	0.000000	0.000009	0.000000	0.000000	0.000000
40.527484	15.168027	18.556403	-1.797592	2.304704	2.502080	0.000000	0.300931	0.000000	0.000009	0.000000	0.000000	0.000000
41.076544	16.934440	16.429187	-1.400522	1.592452	2.646778	0.000000	0.225367	0.000000	0.000009	0.000000	0.000000	0.000000
41.625604	18.207587	15.017607	-0.904526	0.993626	2.748826	0.000000	0.145805	0.000000	0.000009	-0.000000	0.000000	0.000000
42.174664	18.897537	14.221120	-0.344639	0.465574	2.806414	0.000000	0.063657	0.000000	0.000009	-0.000000	0.000000	0.000000
42.723724	18.955558	13.982993	0.239592	-0.029316	2.818522	0.000000	-0.019620	0.000000	0.000008	-0.000001	0.000000	0.000000
43.022297	18.846932	13.985060	0.173748	-0.014137	2.814863	0.000000	-0.012256	0.000000	0.000008	-0.000001	0.000000	0.000000
43.502297	18.692728	14.015109	0.147511	-0.048466	2.808981	0.000000	-0.012256	0.000000	0.000008	-0.000001	0.000000	0.000000
43.982297	18.563711	14.078115	0.121274	-0.082795	2.803098	0.000000	-0.012256	0.000000	0.000007	-0.000001	0.000000	0.000000
44.462297	18.459882	14.174077	0.095037	-0.117125	2.797216	0.000000	-0.012256	0.000000	0.000007	-0.000001	0.000000	0.000000
44.942297	18.381241	14.302994	0.068799	-0.151454	2.791334	0.000000	-0.012256	0.000000	0.000007	-0.000001	0.000000	0.000000
45.423547	18.327908	14.465153	-0.048313	-0.114203	2.785453	0.000000	0.001545	0.000000	0.000006	-0.000001	0.000000	0.000000
45.720870	18.361472	14.539255	-0.112546	-0.097039	2.785913	0.000000	0.008824	0.000000	0.000006	-0.000001	0.000000	0.000000
46.269930	18.175888	14.927030	0.448547	-0.613382	2.768185	0.000000	-0.073306	0.000000	0.000006	-0.000001	0.000000	0.000000
46.818990	17.387987	15.902332	0.977957	-1.173415	2.705654	0.000000	-0.154135	0.000000	0.000005	-0.000001	0.000000	0.000000
47.368050	16.053423	17.534628	1.438288	-1.817027	2.599429	0.000000	-0.232230	0.000000	0.000005	-0.000001	0.000000	0.000000
47.917110	14.266463	19.940185	1.797027	-2.590062	2.451396	0.000000	-0.306206	0.000000	0.000004	-0.000001	0.000000	0.000000
48.363070	12.875840	22.078950	1.332289	-2.185642	2.330133	0.000000	-0.237905	0.000000	0.000003	-0.000001	0.000000	0.000000
48.804030	11.881069	23.791405	0.932189	-1.683051	2.239687	0.000000	-0.172711	0.000000	0.000003	-0.000001	0.000000	0.000000
49.244990	11.219112	25.025025	0.574678	-1.103881	2.177528	0.000000	-0.109485	0.000000	0.000002	-0.000001	0.000000	0.000000
49.685950	10.859725	25.723681	0.243423	-0.474486	2.142948	0.000000	-0.047505	0.000000	0.000002	-0.000001	0.000000	0.000000
50.128160	10.786615	25.855301	-0.050376	0.113044	2.135565	0.000000	0.008697	0.000000	0.000001	-0.000001	0.000000	0.000000
50.425482	10.824787	25.791543	-0.078010	0.101398	2.138151	0.000000	0.008697	0.000000	0.000001	-0.000001	0.000000	0.000000
50.758816	10.887121	25.728297	-0.108991	0.088341	2.141050	0.000000	0.008697	0.000000	0.000001	-0.000001	0.000000	0.000000
51.092149	10.970109	25.673755	-0.139972	0.075284	2.143949	0.000000	0.008697	0.000000	0.000000	-0.000001	0.000000	0.000000
51.426732	11.073953	25.628283	-0.081230	-0.145731	2.146838	0.000000	-0.008720	0.000000	-0.000000	-0.000001	0.000000	0.000000
51.724055	11.130291	25.718464	-0.080961	-0.220649	2.144246	0.000000	-0.013978	0.000000	-0.000000	-0.000001	0.000000	0.000000
52.165015	11.347014	25.626936	-0.412383	0.427424	2.151671	0.000000	0.047685	0.000000	-0.000001	-0.000001	0.000000	0.000000
52.605975	11.863196	24.970284	-0.762645	1.056050	2.186381	0.000000	0.109892	0.000000	-0.000001	-0.000001	0.000000	0.000000
53.046935	12.702420	23.778386	-1.147750	1.636626	2.248771	0.000000	0.173350	0.000000	-0.000002	-0.000001	0.000000	0.000000
53.487895	13.903027	22.105473	-1.585293	2.142737	2.339552	0.000000	0.238782	0.000000	-0.000002	-0.000001	0.000000	0.000000
53.933855	15.540452	20.002646	-2.099494	2.552692	2.461261	0.000000	0.307332	0.000000	-0.000003	-0.000001	0.000000	0.000000
54.482915	17.648583	17.636444	-1.717305	1.782297	2.609826	0.000000	0.233028	0.000000	-0.000003	-0.000001	0.000000	0.000000
55.031975	19.267525	16.041971	-1.213814	1.138851	2.716396	0.000000	0.154591	0.000000	-0.000004	-0.000001	0.000000	0.000000
55.581035	20.282927	15.105655	-0.624585	0.576522	2.779082	0.000000	0.073411	0.000000	-0.000004	-0.000001	0.000000	0.000000
56.130095	20.623064	14.760805	0.008761	0.055259	2.796772	0.000000	-0.009071	0.000000	-0.000005	-0.000001	0.000000	0.000000
56.428668	20.654342	14.710868	-0.059632	0.073422	2.796246	0.000000	-0.001763	0.000000	-0.000005	-0.000001	0.000000	0.000000
56.762001	20.699495	14.669514	-0.075828	0.050641	2.795659	0.000000	-0.001763	0.000000	-0.000005	-0.000001	0.000000	0.000000
57.095334	20.755446	14.643347	-0.092024	0.027860	2.795071	0.000000	-0.001763	0.000000	-0.000006	-0.000001	0.000000	0.000000
57.429918	20.822465	14.632355	-0.108281	0.004993	2.794482	0.000000	-0.001763	0.000000	-0.000006	-0.000001	0.000000	0.000000
57.727240	20.891149	14.635427	-0.177315	0.022915	2.793958	0.000000	0.005537	0.000000	-0.000006	-0.000001	0.000000	0.000000
58.276300	20.729447	14.891310	0.470078	-0.491702	2.774359	0.000000	-0.076822	0.000000	-0.000006	-0.000001	0.000000	0.000000
58.825360	19.870935	15.728104	1.084268	-1.041342	2.709849	0.000000	-0.157819	0.000000	-0.000007	-0.000000	0.000000	0.000000
59.374420	18.376255	17.205412	1.621870	-1.665155	2.601569	0.000000	-0.236017	0.000000	-0.000007	-0.000000	0.000000	0.000000
59.923480	16.350984	19.428461	2.044911	-2.407572	2.451443	0.000000	-0.310028	0.000000	-0.000007	0.000000	0.000000	0.000000
60.369440	14.765807	21.404338	1.522204	-2.004341	2.328472	0.000000	-0.241749	0.000000	-0.000007	-0.000000	0.000000	0.000000
60.810400	13.625643	22.960511	1.073247	-1.511287	2.236318	0.000000	-0.176620	0.000000	-0.000007	-0.000000	0.000000	0.000000
61.251360	12.858387	24.049752	0.673323	-0.949471	2.172413	0.000000	-0.113502	0.000000	-0.000007	-0.000000	0.000000	0.000000
61.692320	12.428984	24.622501	0.304162	-0.344455	2.136028	0.000000	-0.051678	0.000000	-0.000007	-0.000001	0.000000	0.000000
62.134530	12.317869	24.652160	-0.020996	0.215721	2.126756	0.000000	0.004342	0.000000	-0.000007	-0.000001	0.000000	0.000000
62.431853	12.337534	24.527635	-0.045144	0.203099	2.128048	0.000000	0.004342	0.000000	-0.000008	-0.000001	0.000000	0.000000
62.765186	12.376654	24.396953	-0.072217	0.188948	2.129496	0.000000	0.004342	0.000000	-0.000008	-0.000001	0.000000	0.000000
63.098520	12.433823	24.275704	-0.099290	0.174797	2.130943	0.000000	0.004342	0.000000	-0.000008	-0.000001	0.000000	0.000000
63.433103	12.509356	24.163488	-0.126464	0.160594	2.132396	0.000000	0.004342	0.000000	-0.000008	-0.000001	0.000000	0.000000
63.730426	12.591737	24.071745	-0.119731	0.088936	2.133688	0.000000	-0.000890	0.000000	-0.000009	-0.000001	0.000000	0.000000
64.171386	12.857676	23.728206	-0.485647	0.687170	2.146835	0.000000	0.060574	0.000000	-0.000009	-0.000001	0.000000	0.000000
64.612346	13.454851	22.868897	-0.873752	1.254139	2.187211	0.000000	0.122729	0.000000	-0.000010	-0.000001	0.000000	0.000000
65.053306	14.410545	21.532915	-1.301775	1.764045	2.255278	0.000000	0.186282	0.000000	-0.000010	-0.000001	0.000000	0.000000
65.494266	15.768422	19.781046	-1.789273	2.193689	2.351809	0.000000	0.251956	0.000000	-0.000011	-0.000002	0.000000	0.000000
65.940226	17.613681	17.668209	-2.363209	2.524276	2.479477	0.000000	0.320901	0.000000	-0.000012	-0.000002	0.000000	0.000000
66.489286	19.979120	15.304591	-1.919452	1.805979	2.635308	0.000000	0.245889	0.000000	-0.000013	-0.000002	0.000000	0.000000
67.038346	21.779474	13.654907	-1.340113	1.216319	2.748693	0.000000	0.166516	0.000000	-0.000014	-0.000001	0.000000	0.000000
67.587406	22.887573	12.601651	-0.666116	0.713294	2.817621	0.000000	0.084188	0.000000	-0.000014	-0.000001	0.000000	0.000000
68.136466	23.225148	12.069804	0.054932	0.261075	2.840869	0.000000	0.000368	0.000000	-0.000014	-0.000000	0.000000	0.000000
68.435038	23.232425	11.903088	-0.018615	0.265760	2.843195	0.000000	0.007791	0.000000	-0.000014	-0.000000	0.000000	0.000000
68.768372	23.249619	11.735909	-0.032967	0.235778	2.845793	0.000000	0.007791	0.000000	-0.000015	-0.000000	0.000000	0.000000
69.101705	23.276381	11.588717	-0.047320	0.205796	2.848390	0.000000	0.007791	0.000000	-0.000015	-0.000000	0.000000	0.000000
69.436288	23.312867	11.461074	-0.061727	0.175702	2.850997	0.000000	0.007791	0.000000	-0.000015	-0.000000	0.000000	0.000000
69.733611	23.353378	11.364545	-0.135554	0.178656	2.853314	0.000000	0.015248	0.000000	-0.000015	-0.000000	0.000000	0.000000
70.282671	23.101153	11.395940	0.592213	-0.236174	2.838504	0.000000	-0.069113	0.000000	-0.000015	0.000000	0.000000	0.000000
