#ParticleID	Turn	x[m]	xp	y[m]	yp	z[m]	dE[GeV]# s	beta_x	beta_y	alpha_x	alpha_y	D_x	D_y	D_px	D_py	orbit_x	orbit_px	orbit_y	orbit_py
0.300000	11.829399	24.956726	-0.013020	-0.027732	2.618237	0.000000	-0.000036	0.000000	0.000000	0.000000	0.000000	0.000000
0.601250	11.844917	24.977074	-0.038491	-0.039812	2.618226	0.000000	-0.000036	0.000000	0.000000	0.000000	0.000000	0.000000
0.898573	11.875279	25.004292	-0.034508	-0.113052	2.618216	0.000000	-0.006456	0.000000	0.000000	0.000000	0.000000	0.000000
1.339533	12.058036	24.826665	-0.381517	0.514340	2.631662	0.000000	0.067503	0.000000	0.000000	0.000000	0.000000	0.000000
1.780493	12.553328	24.103973	-0.745957	1.118329	2.677861	0.000000	0.142232	0.000000	0.000000	0.000000	0.000000	0.000000
2.221453	13.383783	22.869099	-1.144477	1.671436	2.757337	0.000000	0.218580	0.000000	0.000001	0.000000	0.000000	0.000000
2.662413	14.587343	21.178229	-1.595285	2.148493	2.870996	0.000000	0.297418	0.000000	0.000001	0.000000	0.000000	0.000000
3.108373	16.239794	19.083495	-2.123276	2.528927	3.021993	0.000000	0.380133	0.000000	0.000001	0.000000	0.000000	0.000000
3.657433	18.358744	16.730901	-1.713112	1.781132	3.205437	0.000000	0.287095	0.000000	0.000001	0.000000	0.000000	0.000000
4.206493	19.957769	15.125409	-1.181943	1.160203	3.336323	0.000000	0.188965	0.000000	0.000001	0.000000	0.000000	0.000000
4.755553	20.923920	14.152663	-0.567287	0.621912	3.412328	0.000000	0.087484	0.000000	0.000001	0.000000	0.000000	0.000000
5.304613	21.188953	13.743376	0.087440	0.127920	3.432105	0.000000	-0.015550	0.000000	0.000001	0.000000	0.000000	0.000000
5.603185	21.174010	13.652207	0.017972	0.141520	3.430140	0.000000	-0.006583	0.000000	0.000002	0.000000	0.000000	0.000000
5.936519	21.167278	13.566162	0.002224	0.116615	3.427945	0.000000	-0.006583	0.000000	0.000002	0.000000	0.000000	0.000000
6.269852	21.171044	13.496721	-0.013523	0.091710	3.425751	0.000000	-0.006583	0.000000	0.000002	0.000000	0.000000	0.000000
6.604435	21.185382	13.443715	-0.029330	0.066712	3.423549	0.000000	-0.006583	0.000000	0.000002	0.000000	0.000000	0.000000
6.901758	21.206999	13.410651	-0.098785	0.079536	3.421591	0.000000	0.002357	0.000000	0.000002	0.000000	0.000000	0.000000
7.450818	20.953976	13.583835	0.556886	-0.396817	3.394685	0.000000	-0.100220	0.000000	0.000002	0.000000	0.000000	0.000000
7.999878	19.998386	14.292471	1.173223	-0.901435	3.311864	0.000000	-0.201020	0.000000	0.000002	0.000000	0.000000	0.000000
8.548938	18.407726	15.587032	1.706688	-1.470260	3.174597	0.000000	-0.298254	0.000000	0.000002	0.000000	0.000000	0.000000
9.097998	16.294353	17.559729	2.119602	-2.143809	2.985317	0.000000	-0.390198	0.000000	0.000002	-0.000000	0.000000	0.000000
9.543958	14.645419	19.317563	1.591038	-1.781218	2.829611	0.000000	-0.308495	0.000000	0.000002	-0.000000	0.000000	0.000000
9.984918	13.445928	20.698627	1.139462	-1.338812	2.710822	0.000000	-0.230791	0.000000	0.000002	0.000000	0.000000	0.000000
10.425878	12.620317	21.661070	0.739944	-0.835491	2.625686	0.000000	-0.155714	0.000000	0.000002	0.000000	0.000000	0.000000
10.866838	12.130867	22.161102	0.374232	-0.294156	2.573234	0.000000	-0.082411	0.000000	0.000002	0.000000	0.000000	0.000000
11.309048	11.955078	22.175456	0.054831	0.206123	2.552848	0.000000	-0.016307	0.000000	0.000002	0.000000	0.000000	0.000000
11.606371	11.929890	22.057041	0.029886	0.192146	2.547999	0.000000	-0.016307	0.000000	0.000002	0.000000	0.000000	0.000000
12.086371	11.920530	21.883413	-0.010385	0.169581	2.540172	0.000000	-0.016307	0.000000	0.000002	0.000000	0.000000	0.000000
12.566371	11.949830	21.731446	-0.050656	0.147016	2.532344	0.000000	-0.016307	0.000000	0.000002	0.000000	0.000000	0.000000
13.046371	12.017790	21.601143	-0.090927	0.124450	2.524516	0.000000	-0.016307	0.000000	0.000002	0.000000	0.000000	0.000000
13.526371	12.124410	21.492502	-0.131198	0.101885	2.516689	0.000000	-0.016307	0.000000	0.000002	0.000000	0.000000	0.000000
14.007621	12.270119	21.405325	-0.171574	0.079261	2.508840	0.000000	-0.016307	0.000000	0.000003	0.000000	0.000000	0.000000
14.304943	12.379562	21.362349	-0.166161	0.012898	2.503992	0.000000	-0.022448	0.000000	0.000003	0.000000	0.000000	0.000000
14.745903	12.684815	21.117136	-0.528712	0.541073	2.509723	0.000000	0.048468	0.000000	0.000003	0.000000	0.000000	0.000000
15.186863	13.319212	20.415234	-0.915417	1.044629	2.546817	0.000000	0.119935	0.000000	0.000003	0.000000	0.000000	0.000000
15.627823	14.311735	19.288578	-1.343946	1.500655	2.615697	0.000000	0.192769	0.000000	0.000003	0.000000	0.000000	0.000000
16.068783	15.707732	17.788430	-1.833876	1.888403	2.717146	0.000000	0.267798	0.000000	0.000003	0.000000	0.000000	0.000000
16.514743	17.594634	15.961544	-2.412348	2.190979	2.854014	0.000000	0.346339	0.000000	0.000003	0.000001	0.000000	0.000000
17.063803	20.017852	13.921538	-1.974919	1.546405	3.020448	0.000000	0.259020	0.000000	0.000004	0.000000	0.000000	0.000000
17.612863	21.880811	12.525076	-1.397992	1.011977	3.137605	0.000000	0.167106	0.000000	0.000004	0.000000	0.000000	0.000000
18.161923	23.051921	11.672691	-0.722318	0.549630	3.203406	0.000000	0.072228	0.000000	0.000004	0.000000	0.000000	0.000000
18.710983	23.448461	11.303671	0.004377	0.126432	3.216685	0.000000	-0.023930	0.000000	0.000004	0.000000	0.000000	0.000000
19.009556	23.486245	11.218615	-0.069661	0.128909	3.212049	0.000000	-0.015526	0.000000	0.000004	0.000000	0.000000	0.000000
19.342889	23.537440	11.142745	-0.083923	0.098703	3.206874	0.000000	-0.015526	0.000000	0.000004	0.000000	0.000000	0.000000
19.676223	23.598142	11.087012	-0.098185	0.068497	3.201698	0.000000	-0.015526	0.000000	0.000004	0.000000	0.000000	0.000000
20.010806	23.668927	11.051184	-0.229769	0.092931	3.196523	0.000000	0.000311	0.000000	0.000004	0.000000	0.000000	0.000000
20.308129	23.809490	11.003991	-0.305201	0.094545	3.196616	0.000000	0.008663	0.000000	0.000004	0.000000	0.000000	0.000000
20.857189	23.733993	11.122691	0.441890	-0.312010	3.175157	0.000000	-0.086713	0.000000	0.000004	-0.000000	0.000000	0.000000
21.406249	22.850455	11.697350	1.157767	-0.740790	3.101677	0.000000	-0.180551	0.000000	0.000004	-0.000000	0.000000	0.000000
21.955309	21.221284	12.768898	1.791866	-1.222334	2.977479	0.000000	-0.271187	0.000000	0.000004	-0.000000	0.000000	0.000000
22.504369	18.961558	14.413660	2.299397	-1.790943	2.804765	0.000000	-0.357012	0.000000	0.000004	-0.000000	0.000000	0.000000
22.950329	17.180838	15.890199	1.707704	-1.506011	2.662843	0.000000	-0.279814	0.000000	0.000004	-0.000000	0.000000	0.000000
23.391289	15.904061	17.067379	1.198728	-1.153415	2.555776	0.000000	-0.206257	0.000000	0.000004	-0.000000	0.000000	0.000000
23.832249	15.050405	17.909180	0.744519	-0.748339	2.480597	0.000000	-0.135049	0.000000	0.000003	-0.000000	0.000000	0.000000
24.273209	14.580869	18.377300	0.324325	-0.309214	2.436448	0.000000	-0.065380	0.000000	0.000003	-0.000000	0.000000	0.000000
24.715418	14.474114	18.450193	-0.045645	0.098667	2.422825	0.000000	-0.002396	0.000000	0.000003	0.000000	0.000000	0.000000
25.012741	14.507377	18.396359	-0.066229	0.082395	2.422112	0.000000	-0.002396	0.000000	0.000003	0.000000	0.000000	0.000000
25.346075	14.559222	18.347510	-0.089307	0.064152	2.421313	0.000000	-0.002396	0.000000	0.000003	0.000000	0.000000	0.000000
25.679408	14.626452	18.310823	-0.112384	0.045910	2.420514	0.000000	-0.002396	0.000000	0.000003	0.000000	0.000000	0.000000
26.013991	14.709108	18.286599	-0.016218	-0.120751	2.419688	0.000000	-0.022027	0.000000	0.000003	-0.000000	0.000000	0.000000
26.311314	14.724764	18.363308	-0.000329	-0.182278	2.413139	0.000000	-0.027944	0.000000	0.000003	-0.000000	0.000000	0.000000
26.752274	14.906495	18.324861	-0.413360	0.269135	2.415925	0.000000	0.040591	0.000000	0.000003	0.000000	0.000000	0.000000
27.193234	15.459406	17.892203	-0.845277	0.708303	2.449005	0.000000	0.109589	0.000000	0.000004	0.000000	0.000000	0.000000
27.634194	16.408758	17.085020	-1.315811	1.115244	2.512757	0.000000	0.179835	0.000000	0.000004	0.000000	0.000000	0.000000
28.075154	17.797923	15.940038	-1.846461	1.471442	2.607905	0.000000	0.252129	0.000000	0.000004	0.000000	0.000000	0.000000
28.521114	19.714511	14.492108	-2.466428	1.761604	2.737138	0.000000	0.327738	0.000000	0.000004	0.000000	0.000000	0.000000
29.070174	22.150500	12.878682	-1.943963	1.194265	2.894426	0.000000	0.244354	0.000000	0.000004	0.000000	0.000000	0.000000
29.619234	23.933502	11.838175	-1.284186	0.711991	3.004671	0.000000	0.156635	0.000000	0.000004	0.000000	0.000000	0.000000
30.168294	24.937574	11.296474	-0.533700	0.280430	3.065920	0.000000	0.066138	0.000000	0.000004	0.000000	0.000000	0.000000
30.717354	25.091794	11.214995	0.254483	-0.131157	3.077084	0.000000	-0.025531	0.000000	0.000004	-0.000000	0.000000	0.000000
31.015927	24.982657	11.283849	0.176602	-0.128754	3.071861	0.000000	-0.017492	0.000000	0.000004	-0.000000	0.000000	0.000000
31.349260	24.869509	11.379695	0.162843	-0.158784	3.066031	0.000000	-0.017492	0.000000	0.000004	-0.000000	0.000000	0.000000
31.682593	24.765533	11.495561	0.149084	-0.188815	3.060200	0.000000	-0.017492	0.000000	0.000004	-0.000000	0.000000	0.000000
32.017177	24.670392	11.631995	0.135274	-0.218958	3.054348	0.000000	-0.017492	0.000000	0.000004	-0.000000	0.000000	0.000000
32.314499	24.593601	11.770161	0.058745	-0.214992	3.049147	0.000000	-0.009525	0.000000	0.000004	-0.000000	0.000000	0.000000
32.863559	24.107788	12.245588	0.820825	-0.656010	3.019039	0.000000	-0.099983	0.000000	0.000004	-0.000000	0.000000	0.000000
33.412619	22.812161	13.227968	1.524925	-1.143755	2.939679	0.000000	-0.188668	0.000000	0.000004	-0.000000	0.000000	0.000000
33.961679	20.798236	14.787275	2.121312	-1.712967	2.812475	0.000000	-0.274005	0.000000	0.000004	-0.000000	0.000000	0.000000
34.510739	18.208267	17.034575	2.567861	-2.404189	2.639681	0.000000	-0.354483	0.000000	0.000003	-0.000001	0.000000	0.000000
34.956699	16.194586	19.044636	1.963702	-2.084257	2.497935	0.000000	-0.281565	0.000000	0.000003	-0.000000	0.000000	0.000000
35.397659	14.693096	20.706544	1.454264	-1.670241	2.389156	0.000000	-0.212282	0.000000	0.000003	-0.000000	0.000000	0.000000
35.838619	13.610005	21.968290	1.011266	-1.180231	2.310366	0.000000	-0.145416	0.000000	0.000003	-0.000000	0.000000	0.000000
36.279579	12.895829	22.772465	0.614470	-0.636521	2.260668	0.000000	-0.080207	0.000000	0.000003	-0.000000	0.000000	0.000000
36.721789	12.517250	23.082782	0.276338	-0.120509	2.239469	0.000000	-0.021402	0.000000	0.000003	-0.000000	0.000000	0.000000
37.019112	12.360528	23.158327	0.250771	-0.133577	2.233106	0.000000	-0.021402	0.000000	0.000003	-0.000000	0.000000	0.000000
37.352445	12.202902	23.252262	0.222107	-0.148227	2.225972	0.000000	-0.021402	0.000000	0.000002	-0.000000	0.000000	0.000000
37.685779	12.064385	23.355963	0.193444	-0.162878	2.218838	0.000000	-0.021402	0.000000	0.000002	-0.000000	0.000000	0.000000
38.020362	11.944565	23.469875	0.164673	-0.177583	2.211677	0.000000	-0.021402	0.000000	0.000002	-0.000000	0.000000	0.000000
38.317684	11.854245	23.579360	0.168176	-0.248473	2.205314	0.000000	-0.026810	0.000000	0.000002	-0.000000	0.000000	0.000000
38.758644	11.857128	23.537340	-0.174739	0.343403	2.207417	0.000000	0.036359	0.000000	0.000002	-0.000000	0.000000	0.000000
39.199604	12.164798	22.978255	-0.525636	0.919654	2.237440	0.000000	0.099942	0.000000	0.000002	-0.000000	0.000000	0.000000
39.640564	12.791311	21.927543	-0.900548	1.454061	2.295724	0.000000	0.164663	0.000000	0.000002	-0.000000	0.000000	0.000000
40.081524	13.765292	20.433011	-1.316604	1.922310	2.382934	0.000000	0.231260	0.000000	0.000002	0.000000	0.000000	0.000000
40.527484	15.148802	18.540091	-1.796636	2.304374	2.501535	0.000000	0.300895	0.000000	0.000002	0.000000	0.000000	0.000000
41.076544	16.914554	16.413016	-1.400283	1.592522	2.646218	0.000000	0.225349	0.000000	0.000002	-0.000000	0.000000	0.000000
41.625604	18.187842	15.001140	-0.905021	0.994101	2.748261	0.000000	0.145806	0.000000	0.000002	-0.000000	0.000000	0.000000
42.174664	18.878726	14.203895	-0.345833	0.466487	2.805855	0.000000	0.063676	0.000000	0.000002	-0.000000	0.000000	0.000000
42.723724	18.938405	13.964497	0.237783	-0.027899	2.817978	0.000000	-0.019583	0.000000	0.000002	-0.000000	0.000000	0.000000
43.022297	18.830837	13.965754	0.171976	-0.012796	2.814329	0.000000	-0.012220	0.000000	0.000002	-0.000000	0.000000	0.000000
43.502297	18.678336	13.994538	0.145732	-0.047171	2.808464	0.000000	-0.012220	0.000000	0.000002	-0.000000	0.000000	0.000000
43.982297	18.551030	14.056322	0.119488	-0.081546	2.802598	0.000000	-0.012220	0.000000	0.000002	-0.000000	0.000000	0.000000
44.462297	18.448919	14.151107	0.093244	-0.115922	2.796733	0.000000	-0.012220	0.000000	0.000002	-0.000000	0.000000	0.000000
44.942297	18.372001	14.278892	0.067000	-0.150297	2.790867	0.000000	-0.012220	0.000000	0.000002	-0.000000	0.000000	0.000000
45.423547	18.320403	14.439961	-0.050081	-0.113218	2.785003	0.000000	0.001578	0.000000	0.000001	-0.000000	0.000000	0.000000
45.720870	18.355021	14.513485	-0.114309	-0.096151	2.785473	0.000000	0.008856	0.000000	0.000001	-0.000000	0.000000	0.000000
46.269930	18.171477	14.899849	0.446618	-0.611684	2.767766	0.000000	-0.073259	0.000000	0.000001	-0.000000	0.000000	0.000000
46.818990	17.385725	15.872788	0.975997	-1.170785	2.705264	0.000000	-0.154075	0.000000	0.000001	-0.000000	0.000000	0.000000
47.368050	16.053266	17.501603	1.436437	-1.813278	2.599075	0.000000	-0.232158	0.000000	0.000001	-0.000000	0.000000	0.000000
47.917110	14.268219	19.902311	1.795415	-2.584928	2.451083	0.000000	-0.306123	0.000000	0.000001	-0.000000	0.000000	0.000000
48.363070	12.878977	22.036850	1.330793	-2.181341	2.329855	0.000000	-0.237831	0.000000	0.000001	-0.000000	0.000000	0.000000
48.804030	11.885501	23.745951	0.930738	-1.679775	2.239440	0.000000	-0.172643	0.000000	0.000000	-0.000000	0.000000	0.000000
49.244990	11.224829	24.977191	0.573206	-1.101780	2.177310	0.000000	-0.109423	0.000000	0.000000	-0.000000	0.000000	0.000000
49.685950	10.866775	25.674548	0.241862	-0.473655	2.142756	0.000000	-0.047448	0.000000	0.000000	-0.000000	0.000000	0.000000
50.128160	10.795112	25.806012	-0.052076	0.112687	2.135396	0.000000	0.008749	0.000000	0.000000	-0.000000	0.000000	0.000000
50.425482	10.834290	25.742472	-0.079693	0.101020	2.137997	0.000000	0.008749	0.000000	0.000000	-0.000000	0.000000	0.000000
50.758816	10.897739	25.679486	-0.110655	0.087939	2.140914	0.000000	0.008749	0.000000	-0.000000	-0.000000	0.000000	0.000000
51.092149	10.981829	25.625221	-0.141617	0.074858	2.143830	0.000000	0.008749	0.000000	-0.000000	-0.000000	0.000000	0.000000
51.426732	11.086768	25.580041	-0.082752	-0.145790	2.146736	0.000000	-0.008666	0.000000	-0.000000	-0.000000	0.000000	0.000000
51.724055	11.144004	25.670263	-0.082425	-0.220612	2.144159	0.000000	-0.013925	0.000000	-0.000000	-0.000000	0.000000	0.000000
52.165015	11.362166	25.579266	-0.414196	0.426189	2.151607	0.000000	0.047737	0.000000	-0.000000	-0.000000	0.000000	0.000000
52.605975	11.880132	24.924246	-0.764892	1.053598	2.186339	0.000000	0.109942	0.000000	-0.000001	-0.000000	0.000000	0.000000
53.046935	12.721565	23.735008	-1.150533	1.633069	2.248751	0.000000	0.173399	0.000000	-0.000001	-0.000000	0.000000	0.000000
53.487895	13.924909	22.065660	-1.588738	2.138237	2.339553	0.000000	0.238831	0.000000	-0.000001	-0.000000	0.000000	0.000000
53.933855	15.565763	19.967195	-2.103766	2.547451	2.461285	0.000000	0.307382	0.000000	-0.000001	-0.000000	0.000000	0.000000
54.482915	17.678259	17.605982	-1.720936	1.778399	2.609876	0.000000	0.233077	0.000000	-0.000001	-0.000000	0.000000	0.000000
55.031975	19.300717	16.015182	-1.216547	1.136018	2.716472	0.000000	0.154637	0.000000	-0.000001	-0.000000	0.000000	0.000000
55.581035	20.318536	15.081487	-0.626227	0.574553	2.779182	0.000000	0.073454	0.000000	-0.000001	-0.000000	0.000000	0.000000
56.130095	20.659821	14.738391	0.008326	0.054013	2.796895	0.000000	-0.009031	0.000000	-0.000002	-0.000000	0.000000	0.000000
56.428668	20.691408	14.689242	-0.060137	0.072091	2.796380	0.000000	-0.001723	0.000000	-0.000002	-0.000000	0.000000	0.000000
56.762001	20.736889	14.648785	-0.076305	0.049280	2.795806	0.000000	-0.001723	0.000000	-0.000002	-0.000000	0.000000	0.000000
57.095334	20.793148	14.623535	-0.092473	0.026470	2.795232	0.000000	-0.001723	0.000000	-0.000002	-0.000000	0.000000	0.000000
57.429918	20.860458	14.613483	-0.108702	0.003574	2.794655	0.000000	-0.001723	0.000000	-0.000002	-0.000000	0.000000	0.000000
57.727240	20.929385	14.617407	-0.177809	0.021421	2.794143	0.000000	0.005578	0.000000	-0.000002	-0.000000	0.000000	0.000000
58.276300	20.767519	14.874652	0.470869	-0.492705	2.774565	0.000000	-0.076788	0.000000	-0.000002	-0.000000	0.000000	0.000000
58.825360	19.907456	15.712312	1.086287	-1.041926	2.710070	0.000000	-0.157792	0.000000	-0.000002	-0.000000	0.000000	0.000000
59.374420	18.409946	17.190053	1.624975	-1.665361	2.601804	0.000000	-0.235997	0.000000	-0.000002	0.000000	0.000000	0.000000
59.923480	16.380766	19.413130	2.048883	-2.407416	2.451686	0.000000	-0.310017	0.000000	-0.000002	0.000000	0.000000	0.000000
60.369440	14.792447	21.389093	1.525301	-2.004690	2.328722	0.000000	-0.241731	0.000000	-0.000002	0.000000	0.000000	0.000000
60.810400	13.649881	22.945790	1.075618	-1.512122	2.236577	0.000000	-0.176595	0.000000	-0.000002	-0.000000	0.000000	0.000000
61.251360	12.880812	24.035968	0.675077	-0.950754	2.172684	0.000000	-0.113471	0.000000	-0.000002	-0.000000	0.000000	0.000000
61.692320	12.450104	24.610025	0.305379	-0.346127	2.136315	0.000000	-0.051639	0.000000	-0.000002	-0.000000	0.000000	0.000000
62.134530	12.338129	24.641307	-0.020212	0.213766	2.127062	0.000000	0.004388	0.000000	-0.000002	-0.000000	0.000000	0.000000
62.431853	12.357316	24.517943	-0.044320	0.201148	2.128366	0.000000	0.004388	0.000000	-0.000002	-0.000000	0.000000	0.000000
62.765186	12.395871	24.388560	-0.071347	0.187003	2.129829	0.000000	0.004388	0.000000	-0.000002	-0.000000	0.000000	0.000000
63.098520	12.452445	24.268607	-0.098375	0.172857	2.131292	0.000000	0.004388	0.000000	-0.000002	-0.000000	0.000000	0.000000
63.433103	12.527351	24.157687	-0.125504	0.158658	2.132761	0.000000	0.004388	0.000000	-0.000002	-0.000000	0.000000	0.000000
63.730426	12.609149	24.067093	-0.118689	0.087020	2.134065	0.000000	-0.000845	0.000000	-0.000002	-0.000000	0.000000	0.000000
64.171386	12.874335	23.725282	-0.484976	0.685181	2.147234	0.000000	0.060630	0.000000	-0.000003	-0.000000	0.000000	0.000000
64.612346	13.471070	22.867726	-0.873421	1.252167	2.187637	0.000000	0.122795	0.000000	-0.000003	-0.000000	0.000000	0.000000
65.053306	14.426617	21.533442	-1.301769	1.762180	2.255735	0.000000	0.186359	0.000000	-0.000003	-0.000000	0.000000	0.000000
65.494266	15.784632	19.783140	-1.789592	2.192016	2.352303	0.000000	0.252045	0.000000	-0.000003	-0.000000	0.000000	0.000000
65.940226	17.630327	17.671679	-2.363870	2.522873	2.480013	0.000000	0.321004	0.000000	-0.000003	-0.000001	0.000000	0.000000
66.489286	19.996138	15.309535	-1.919461	1.804682	2.635895	0.000000	0.245974	0.000000	-0.000004	-0.000000	0.000000	0.000000
67.038346	21.796142	13.661259	-1.339471	1.215034	2.749321	0.000000	0.166581	0.000000	-0.000004	-0.000000	0.000000	0.000000
67.587406	22.903197	12.609449	-0.664867	0.711930	2.818278	0.000000	0.084233	0.000000	-0.000004	-0.000000	0.000000	0.000000
68.136466	23.239106	12.079187	0.056699	0.259535	2.841544	0.000000	0.000391	0.000000	-0.000004	-0.000000	0.000000	0.000000
68.435038	23.245344	11.913366	-0.016870	0.264284	2.843877	0.000000	0.007815	0.000000	-0.000004	-0.000000	0.000000	0.000000
68.768372	23.261373	11.747154	-0.031214	0.234350	2.846483	0.000000	0.007815	0.000000	-0.000004	-0.000000	0.000000	0.000000
69.101705	23.286963	11.600899	-0.045558	0.204416	2.849088	0.000000	0.007815	0.000000	-0.000004	-0.000000	0.000000	0.000000
69.436288	23.322267	11.474164	-0.059956	0.174370	2.851703	0.000000	0.007815	0.000000	-0.000004	-0.000000	0.000000	0.000000
69.733611	23.361723	11.378414	-0.133792	0.177400	2.854026	0.000000	0.015273	0.000000	-0.000004	-0.000000	0.000000	0.000000
70.282671	23.107427	11.411407	0.594199	-0.237844	2.839224	0.000000	-0.069111	0.000000	-0.000004	0.000000	0.000000	0.000000
