#ParticleID	Turn	x[m]	xp	y[m]	yp	z[m]	dE[GeV]# s	beta_x	beta_y	alpha_x	alpha_y	D_x	D_y	D_px	D_py	orbit_x	orbit_px	orbit_y	orbit_py
0.300000	11.823767	24.977910	-0.012267	-0.027614	2.618143	0.000000	0.000000	0.000000	0.000000	0.000001	0.000000	0.000000
0.601250	11.838834	24.998183	-0.037749	-0.039684	2.618143	0.000000	0.000000	0.000000	0.000000	0.000001	0.000000	0.000000
0.898573	11.868759	25.025323	-0.033793	-0.112966	2.618143	0.000000	-0.006420	0.000000	0.000001	0.000001	0.000000	0.000000
1.339533	12.050815	24.847373	-0.380635	0.514980	2.631605	0.000000	0.067538	0.000000	0.000001	0.000001	0.000000	0.000000
1.780493	12.545241	24.123883	-0.744867	1.119494	2.677818	0.000000	0.142265	0.000000	0.000001	0.000001	0.000000	0.000000
2.221453	13.374626	22.887769	-1.143130	1.673072	2.757308	0.000000	0.218612	0.000000	0.000001	0.000001	0.000000	0.000000
2.662413	14.576862	21.195274	-1.593620	2.150527	2.870981	0.000000	0.297450	0.000000	0.000002	0.000001	0.000000	0.000000
3.108373	16.227657	19.098582	-2.121213	2.531266	3.021993	0.000000	0.380164	0.000000	0.000002	0.000001	0.000000	0.000000
3.657433	18.344498	16.743753	-1.711355	1.782888	3.205454	0.000000	0.287127	0.000000	0.000002	0.000001	0.000000	0.000000
4.206493	19.941818	15.136594	-1.180615	1.161501	3.336356	0.000000	0.188996	0.000000	0.000002	0.000001	0.000000	0.000000
4.755553	20.906792	14.162630	-0.566483	0.622845	3.412378	0.000000	0.087513	0.000000	0.000003	0.000000	0.000000	0.000000
5.304613	21.171258	13.752489	0.087663	0.128553	3.432170	0.000000	-0.015523	0.000000	0.000003	0.000000	0.000000	0.000000
5.603185	21.156157	13.660925	0.018231	0.142187	3.430213	0.000000	-0.006555	0.000000	0.000003	0.000000	0.000000	0.000000
5.936519	21.149257	13.574432	0.002469	0.117293	3.428027	0.000000	-0.006555	0.000000	0.000003	0.000000	0.000000	0.000000
6.269852	21.152864	13.504535	-0.013292	0.092399	3.425842	0.000000	-0.006555	0.000000	0.000003	0.000000	0.000000	0.000000
6.604435	21.167052	13.451064	-0.029112	0.067412	3.423649	0.000000	-0.006555	0.000000	0.000003	0.000000	0.000000	0.000000
6.901758	21.188543	13.417580	-0.098530	0.080264	3.421700	0.000000	0.002385	0.000000	0.000003	0.000000	0.000000	0.000000
7.450818	20.935581	13.590070	0.556521	-0.396273	3.394808	0.000000	-0.100196	0.000000	0.000004	0.000000	0.000000	0.000000
7.999878	19.980723	14.298190	1.172263	-0.901035	3.311998	0.000000	-0.201000	0.000000	0.000004	0.000000	0.000000	0.000000
8.548938	18.391414	15.592378	1.705202	-1.469977	3.174740	0.000000	-0.298239	0.000000	0.000004	0.000000	0.000000	0.000000
9.097998	16.279915	17.564817	2.117694	-2.143621	2.985468	0.000000	-0.390187	0.000000	0.000004	-0.000000	0.000000	0.000000
9.543958	14.632489	19.322399	1.589552	-1.780841	2.829766	0.000000	-0.308481	0.000000	0.000004	-0.000000	0.000000	0.000000
9.984918	13.434150	20.703054	1.138327	-1.338266	2.710985	0.000000	-0.230772	0.000000	0.000004	0.000000	0.000000	0.000000
10.425878	12.609404	21.664949	0.739108	-0.834800	2.625858	0.000000	-0.155692	0.000000	0.000004	0.000000	0.000000	0.000000
10.866838	12.120574	22.164319	0.373658	-0.293351	2.573417	0.000000	-0.082384	0.000000	0.000004	0.000000	0.000000	0.000000
11.309048	11.945187	22.177925	0.054466	0.207000	2.553044	0.000000	-0.016276	0.000000	0.000004	0.000000	0.000000	0.000000
11.606371	11.920222	22.058990	0.029501	0.193019	2.548205	0.000000	-0.016276	0.000000	0.000004	0.000000	0.000000	0.000000
12.086371	11.911246	21.884526	-0.010801	0.170448	2.540392	0.000000	-0.016276	0.000000	0.000004	0.000000	0.000000	0.000000
12.566371	11.940961	21.731730	-0.051104	0.147878	2.532580	0.000000	-0.016276	0.000000	0.000004	0.000000	0.000000	0.000000
13.046371	12.009366	21.600601	-0.091407	0.125307	2.524767	0.000000	-0.016276	0.000000	0.000005	0.000000	0.000000	0.000000
13.526371	12.116462	21.491140	-0.131710	0.102737	2.516955	0.000000	-0.016276	0.000000	0.000005	0.000000	0.000000	0.000000
14.007621	12.262678	21.403146	-0.172117	0.080107	2.509122	0.000000	-0.016276	0.000000	0.000005	0.000000	0.000000	0.000000
14.304943	12.372450	21.359667	-0.166742	0.013749	2.504283	0.000000	-0.022417	0.000000	0.000005	0.000000	0.000000	0.000000
14.745903	12.678150	21.113742	-0.529149	0.541832	2.510030	0.000000	0.048507	0.000000	0.000005	0.000000	0.000000	0.000000
15.186863	13.312877	20.411223	-0.915731	1.045263	2.547142	0.000000	0.119982	0.000000	0.000005	0.000001	0.000000	0.000000
15.627823	14.305629	19.284075	-1.344151	1.501135	2.616044	0.000000	0.192825	0.000000	0.000006	0.000001	0.000000	0.000000
16.068783	15.701762	17.783581	-1.833981	1.888706	2.717520	0.000000	0.267863	0.000000	0.000006	0.000001	0.000000	0.000000
16.514743	17.588715	15.956510	-2.412358	2.191090	2.854419	0.000000	0.346414	0.000000	0.000007	0.000001	0.000000	0.000000
17.063803	20.012088	13.916334	-1.975190	1.546603	3.020891	0.000000	0.259081	0.000000	0.000007	0.000001	0.000000	0.000000
17.612863	21.875481	12.519600	-1.398505	1.012277	3.138077	0.000000	0.167153	0.000000	0.000008	0.000001	0.000000	0.000000
18.161923	23.047271	11.666821	-0.723036	0.550053	3.203899	0.000000	0.072259	0.000000	0.000008	0.000000	0.000000	0.000000
18.710983	23.444690	11.297255	0.003504	0.127008	3.217191	0.000000	-0.023916	0.000000	0.000008	0.000000	0.000000	0.000000
19.009556	23.482990	11.211872	-0.070526	0.129448	3.212560	0.000000	-0.015510	0.000000	0.000008	0.000000	0.000000	0.000000
19.342889	23.534762	11.135649	-0.084792	0.099219	3.207389	0.000000	-0.015510	0.000000	0.000008	0.000000	0.000000	0.000000
19.676223	23.596045	11.079579	-0.099057	0.068991	3.202219	0.000000	-0.015510	0.000000	0.000008	0.000000	0.000000	0.000000
20.010806	23.667415	11.043428	-0.230637	0.093365	3.197049	0.000000	0.000330	0.000000	0.000008	0.000000	0.000000	0.000000
20.308129	23.808496	10.995984	-0.306071	0.094935	3.197147	0.000000	0.008683	0.000000	0.000008	0.000000	0.000000	0.000000
20.857189	23.733968	11.114131	0.441006	-0.311386	3.175695	0.000000	-0.086711	0.000000	0.000008	-0.000000	0.000000	0.000000
21.406249	22.851379	11.687956	1.156932	-0.739887	3.102211	0.000000	-0.180566	0.000000	0.000008	-0.000000	0.000000	0.000000
21.955309	21.223073	12.758331	1.791138	-1.221088	2.978000	0.000000	-0.271219	0.000000	0.000008	-0.000001	0.000000	0.000000
22.504369	18.964063	14.401496	2.298827	-1.789265	2.805264	0.000000	-0.357061	0.000000	0.000007	-0.000001	0.000000	0.000000
22.950329	17.183848	15.876657	1.707137	-1.504611	2.663324	0.000000	-0.279850	0.000000	0.000007	-0.000001	0.000000	0.000000
23.391289	15.907579	17.052748	1.198138	-1.152355	2.556244	0.000000	-0.206281	0.000000	0.000007	-0.000000	0.000000	0.000000
23.832249	15.054464	17.893782	0.743879	-0.747668	2.481056	0.000000	-0.135061	0.000000	0.000007	-0.000000	0.000000	0.000000
24.273209	14.585525	18.361494	0.323605	-0.308962	2.436905	0.000000	-0.065380	0.000000	0.000007	-0.000000	0.000000	0.000000
24.715418	14.479455	18.434355	-0.046465	0.098528	2.423284	0.000000	-0.002386	0.000000	0.000007	0.000000	0.000000	0.000000
25.012741	14.513204	18.380608	-0.067044	0.082243	2.422575	0.000000	-0.002386	0.000000	0.000007	0.000000	0.000000	0.000000
25.346075	14.565590	18.331865	-0.090115	0.063985	2.421780	0.000000	-0.002386	0.000000	0.000007	0.000000	0.000000	0.000000
25.679408	14.633356	18.295294	-0.113185	0.045728	2.420984	0.000000	-0.002386	0.000000	0.000007	0.000000	0.000000	0.000000
26.013991	14.716546	18.271197	-0.016953	-0.120824	2.420162	0.000000	-0.022020	0.000000	0.000007	-0.000000	0.000000	0.000000
26.311314	14.732635	18.347953	-0.001035	-0.182326	2.413615	0.000000	-0.027938	0.000000	0.000007	-0.000000	0.000000	0.000000
26.752274	14.915077	18.309732	-0.414271	0.268673	2.416406	0.000000	0.040610	0.000000	0.000007	0.000000	0.000000	0.000000
27.193234	15.468896	17.877657	-0.846434	0.707448	2.449497	0.000000	0.109620	0.000000	0.000007	0.000000	0.000000	0.000000
27.634194	16.419396	17.071389	-1.317268	1.114034	2.513265	0.000000	0.179879	0.000000	0.000007	0.000000	0.000000	0.000000
28.075154	17.810002	15.927610	-1.848284	1.469932	2.608435	0.000000	0.252186	0.000000	0.000007	0.000001	0.000000	0.000000
28.521114	19.728411	14.481137	-2.468703	1.759863	2.737697	0.000000	0.327809	0.000000	0.000007	0.000001	0.000000	0.000000
29.070174	22.166719	12.869386	-1.945884	1.192936	2.895018	0.000000	0.244406	0.000000	0.000008	0.000001	0.000000	0.000000
29.619234	23.951573	11.830157	-1.285618	0.710979	3.005287	0.000000	0.156668	0.000000	0.000008	0.000000	0.000000	0.000000
30.168294	24.956902	11.289427	-0.534542	0.279663	3.066548	0.000000	0.066151	0.000000	0.000008	0.000000	0.000000	0.000000
30.717354	25.111693	11.208681	0.254291	-0.131733	3.077714	0.000000	-0.025539	0.000000	0.000008	-0.000000	0.000000	0.000000
31.015927	25.002698	11.277895	0.176370	-0.129366	3.072489	0.000000	-0.017498	0.000000	0.000008	-0.000000	0.000000	0.000000
31.349260	24.889700	11.374156	0.162624	-0.159417	3.066657	0.000000	-0.017498	0.000000	0.000008	-0.000000	0.000000	0.000000
31.682593	24.785867	11.490451	0.148877	-0.189468	3.060824	0.000000	-0.017498	0.000000	0.000008	-0.000000	0.000000	0.000000
32.017177	24.690860	11.627328	0.135079	-0.219631	3.054969	0.000000	-0.017498	0.000000	0.000008	-0.000000	0.000000	0.000000
32.314499	24.614181	11.765901	0.058509	-0.215696	3.049767	0.000000	-0.009530	0.000000	0.000008	-0.000000	0.000000	0.000000
32.863559	24.128251	12.242051	0.821274	-0.656633	3.019651	0.000000	-0.100008	0.000000	0.000008	-0.000000	0.000000	0.000000
33.412619	22.831766	13.225090	1.526028	-1.144340	2.940272	0.000000	-0.188712	0.000000	0.000008	-0.000001	0.000000	0.000000
33.961679	20.816304	14.785039	2.122991	-1.713556	2.813038	0.000000	-0.274069	0.000000	0.000007	-0.000001	0.000000	0.000000
34.510739	18.224227	17.033008	2.569997	-2.404825	2.640206	0.000000	-0.354564	0.000000	0.000007	-0.000001	0.000000	0.000000
34.956699	16.208858	19.043692	1.965364	-2.085014	2.498427	0.000000	-0.281633	0.000000	0.000006	-0.000001	0.000000	0.000000
35.397659	14.706081	20.706308	1.455531	-1.671084	2.389620	0.000000	-0.212337	0.000000	0.000006	-0.000001	0.000000	0.000000
35.838619	13.622025	21.968820	1.012196	-1.181121	2.310809	0.000000	-0.145460	0.000000	0.000005	-0.000001	0.000000	0.000000
36.279579	12.907162	22.773786	0.615106	-0.637418	2.261094	0.000000	-0.080239	0.000000	0.000005	-0.000001	0.000000	0.000000
36.721789	12.528139	23.084884	0.276734	-0.121375	2.239884	0.000000	-0.021425	0.000000	0.000005	-0.000000	0.000000	0.000000
37.019112	12.371177	23.160945	0.251184	-0.134445	2.233514	0.000000	-0.021425	0.000000	0.000005	-0.000000	0.000000	0.000000
37.352445	12.213269	23.255459	0.222540	-0.149097	2.226373	0.000000	-0.021425	0.000000	0.000005	-0.000000	0.000000	0.000000
37.685779	12.074458	23.359741	0.193895	-0.163749	2.219231	0.000000	-0.021425	0.000000	0.000005	-0.000000	0.000000	0.000000
38.020362	11.954329	23.474237	0.165144	-0.178456	2.212063	0.000000	-0.021425	0.000000	0.000004	-0.000000	0.000000	0.000000
38.317684	11.863724	23.584241	0.168686	-0.249359	2.205693	0.000000	-0.026834	0.000000	0.000004	-0.000000	0.000000	0.000000
38.758644	11.866251	23.542942	-0.174439	0.342659	2.207788	0.000000	0.036345	0.000000	0.000004	-0.000000	0.000000	0.000000
39.199604	12.173744	22.984439	-0.525533	0.919085	2.237808	0.000000	0.099938	0.000000	0.000004	-0.000000	0.000000	0.000000
39.640564	12.800251	21.934141	-0.900637	1.453694	2.296093	0.000000	0.164668	0.000000	0.000004	-0.000000	0.000000	0.000000
40.081524	13.774396	20.439838	-1.316889	1.922161	2.383307	0.000000	0.231275	0.000000	0.000004	0.000000	0.000000	0.000000
40.527484	15.158253	18.546950	-1.797131	2.304451	2.501917	0.000000	0.300920	0.000000	0.000004	0.000000	0.000000	0.000000
41.076544	16.924359	16.419880	-1.400428	1.592437	2.646610	0.000000	0.225361	0.000000	0.000004	-0.000000	0.000000	0.000000
41.625604	18.197608	15.008187	-0.904806	0.993848	2.748656	0.000000	0.145805	0.000000	0.000004	-0.000000	0.000000	0.000000
42.174664	18.888063	14.211320	-0.345272	0.466049	2.806247	0.000000	0.063663	0.000000	0.000004	-0.000000	0.000000	0.000000
42.723724	18.946954	13.972519	0.238649	-0.028555	2.818359	0.000000	-0.019609	0.000000	0.000004	-0.000000	0.000000	0.000000
43.022297	18.838880	13.974151	0.172824	-0.013418	2.814703	0.000000	-0.012245	0.000000	0.000004	-0.000000	0.000000	0.000000
43.502297	18.685564	14.003523	0.146584	-0.047773	2.808826	0.000000	-0.012245	0.000000	0.000003	-0.000000	0.000000	0.000000
43.982297	18.557439	14.065876	0.120343	-0.082129	2.802948	0.000000	-0.012245	0.000000	0.000003	-0.000000	0.000000	0.000000
44.462297	18.454505	14.161210	0.094103	-0.116484	2.797071	0.000000	-0.012245	0.000000	0.000003	-0.000000	0.000000	0.000000
44.942297	18.376761	14.289525	0.067863	-0.150839	2.791193	0.000000	-0.012245	0.000000	0.000003	-0.000000	0.000000	0.000000
45.423547	18.324331	14.451105	-0.049235	-0.113684	2.785318	0.000000	0.001555	0.000000	0.000003	-0.000000	0.000000	0.000000
45.720870	18.358444	14.524904	-0.113466	-0.096575	2.785781	0.000000	0.008834	0.000000	0.000003	-0.000000	0.000000	0.000000
46.269930	18.173919	14.911926	0.447552	-0.612467	2.768059	0.000000	-0.073291	0.000000	0.000002	-0.000000	0.000000	0.000000
46.818990	17.387121	15.885947	0.976956	-1.171985	2.705537	0.000000	-0.154117	0.000000	0.000002	-0.000001	0.000000	0.000000
47.368050	16.053626	17.516346	1.437353	-1.814980	2.599323	0.000000	-0.232208	0.000000	0.000002	-0.000001	0.000000	0.000000
47.917110	14.267626	19.919252	1.796223	-2.587252	2.451302	0.000000	-0.306181	0.000000	0.000001	-0.000001	0.000000	0.000000
48.363070	12.877693	22.055707	1.331539	-2.183295	2.330050	0.000000	-0.237883	0.000000	0.000001	-0.000001	0.000000	0.000000
48.804030	11.883574	23.766335	0.931456	-1.681271	2.239613	0.000000	-0.172691	0.000000	0.000001	-0.000001	0.000000	0.000000
49.244990	11.222268	24.998667	0.573929	-1.102751	2.177462	0.000000	-0.109466	0.000000	0.000001	-0.000001	0.000000	0.000000
49.685950	10.863562	25.696632	0.242624	-0.474056	2.142890	0.000000	-0.047488	0.000000	0.000000	-0.000001	0.000000	0.000000
50.128160	10.791195	25.828191	-0.051251	0.112820	2.135514	0.000000	0.008713	0.000000	0.000000	-0.000001	0.000000	0.000000
50.425482	10.829884	25.764569	-0.078875	0.101162	2.138105	0.000000	0.008713	0.000000	0.000000	-0.000001	0.000000	0.000000
50.758816	10.892792	25.701485	-0.109846	0.088092	2.141009	0.000000	0.008713	0.000000	-0.000000	-0.000001	0.000000	0.000000
51.092149	10.976346	25.647114	-0.140816	0.075022	2.143914	0.000000	0.008713	0.000000	-0.000000	-0.000001	0.000000	0.000000
51.426732	11.080752	25.601820	-0.082009	-0.145792	2.146807	0.000000	-0.008703	0.000000	-0.000001	-0.000001	0.000000	0.000000
51.724055	11.137549	25.692041	-0.081709	-0.220657	2.144220	0.000000	-0.013962	0.000000	-0.000001	-0.000001	0.000000	0.000000
52.165015	11.355010	25.600829	-0.413315	0.426719	2.151652	0.000000	0.047701	0.000000	-0.000001	-0.000001	0.000000	0.000000
52.605975	11.872111	24.945096	-0.763804	1.054679	2.186368	0.000000	0.109907	0.000000	-0.000001	-0.000001	0.000000	0.000000
53.046935	12.712477	23.754678	-1.149190	1.634653	2.248765	0.000000	0.173365	0.000000	-0.000001	-0.000001	0.000000	0.000000
53.487895	13.914501	22.083738	-1.587079	2.140251	2.339552	0.000000	0.238797	0.000000	-0.000002	-0.000001	0.000000	0.000000
53.933855	15.553704	19.983317	-2.101711	2.549805	2.461268	0.000000	0.307348	0.000000	-0.000002	-0.000001	0.000000	0.000000
54.482915	17.664097	17.619866	-1.719183	1.780145	2.609841	0.000000	0.233043	0.000000	-0.000002	-0.000001	0.000000	0.000000
55.031975	19.284855	16.027424	-1.215221	1.137281	2.716419	0.000000	0.154605	0.000000	-0.000003	-0.000001	0.000000	0.000000
55.581035	20.301497	15.092566	-0.625422	0.575423	2.779112	0.000000	0.073424	0.000000	-0.000003	-0.000000	0.000000	0.000000
56.130095	20.642211	14.748702	0.008553	0.054551	2.796809	0.000000	-0.009059	0.000000	-0.000003	-0.000000	0.000000	0.000000
56.428668	20.673639	14.699212	-0.059876	0.072668	2.796286	0.000000	-0.001751	0.000000	-0.000003	-0.000000	0.000000	0.000000
56.762001	20.718950	14.658365	-0.076058	0.049872	2.795703	0.000000	-0.001751	0.000000	-0.000003	-0.000000	0.000000	0.000000
57.095334	20.775049	14.632716	-0.092239	0.027075	2.795119	0.000000	-0.001751	0.000000	-0.000003	-0.000000	0.000000	0.000000
57.429918	20.842207	14.622255	-0.108481	0.004193	2.794534	0.000000	-0.001751	0.000000	-0.000004	-0.000000	0.000000	0.000000
57.727240	20.911006	14.625807	-0.177553	0.022074	2.794013	0.000000	0.005550	0.000000	-0.000004	-0.000000	0.000000	0.000000
58.276300	20.749199	14.882465	0.470507	-0.492282	2.774421	0.000000	-0.076812	0.000000	-0.000004	-0.000000	0.000000	0.000000
58.825360	19.889862	15.719772	1.085333	-1.041703	2.709915	0.000000	-0.157811	0.000000	-0.000004	-0.000000	0.000000	0.000000
59.374420	18.393697	17.197369	1.623496	-1.665322	2.601640	0.000000	-0.236011	0.000000	-0.000004	0.000000	0.000000	0.000000
59.923480	16.366383	19.420503	2.046983	-2.407558	2.451516	0.000000	-0.310025	0.000000	-0.000004	0.000000	0.000000	0.000000
60.369440	14.779566	21.396487	1.523822	-2.004595	2.328547	0.000000	-0.241743	0.000000	-0.000004	0.000000	0.000000	0.000000
60.810400	13.638145	22.952997	1.074489	-1.511796	2.236395	0.000000	-0.176612	0.000000	-0.000004	-0.000000	0.000000	0.000000
61.251360	12.869937	24.042791	0.674246	-0.950211	2.172494	0.000000	-0.113493	0.000000	-0.000004	-0.000000	0.000000	0.000000
61.692320	12.439845	24.616282	0.304808	-0.345392	2.136114	0.000000	-0.051666	0.000000	-0.000004	-0.000000	0.000000	0.000000
62.134530	12.328270	24.646842	-0.020573	0.214643	2.126848	0.000000	0.004356	0.000000	-0.000004	-0.000000	0.000000	0.000000
62.431853	12.347677	24.522957	-0.044700	0.202024	2.128143	0.000000	0.004356	0.000000	-0.000004	-0.000000	0.000000	0.000000
62.765186	12.386494	24.392990	-0.071750	0.187877	2.129596	0.000000	0.004356	0.000000	-0.000004	-0.000000	0.000000	0.000000
63.098520	12.443344	24.272455	-0.098799	0.173729	2.131048	0.000000	0.004356	0.000000	-0.000005	-0.000000	0.000000	0.000000
63.433103	12.518541	24.160953	-0.125950	0.159529	2.132506	0.000000	0.004356	0.000000	-0.000005	-0.000000	0.000000	0.000000
63.730426	12.600610	24.069842	-0.119176	0.087880	2.133801	0.000000	-0.000877	0.000000	-0.000005	-0.000000	0.000000	0.000000
64.171386	12.866144	23.727247	-0.485280	0.686092	2.146955	0.000000	0.060591	0.000000	-0.000005	-0.000000	0.000000	0.000000
64.612346	13.463071	22.868881	-0.873556	1.253087	2.187339	0.000000	0.122749	0.000000	-0.000005	-0.000001	0.000000	0.000000
65.053306	14.418665	21.533797	-1.301742	1.763067	2.255415	0.000000	0.186305	0.000000	-0.000005	-0.000001	0.000000	0.000000
65.494266	15.776584	19.782742	-1.789401	2.192829	2.351957	0.000000	0.251983	0.000000	-0.000006	-0.000001	0.000000	0.000000
65.940226	17.622032	17.670603	-2.363505	2.523575	2.479638	0.000000	0.320933	0.000000	-0.000006	-0.000001	0.000000	0.000000
66.489286	19.987616	15.307728	-1.919417	1.805318	2.635484	0.000000	0.245915	0.000000	-0.000007	-0.000001	0.000000	0.000000
67.038346	21.787749	13.658768	-1.339750	1.215650	2.748882	0.000000	0.166535	0.000000	-0.000007	-0.000001	0.000000	0.000000
67.587406	22.895281	12.606272	-0.665451	0.712570	2.817818	0.000000	0.084202	0.000000	-0.000007	-0.000000	0.000000	0.000000
68.136466	23.231979	12.075273	0.055853	0.260245	2.841071	0.000000	0.000375	0.000000	-0.000008	-0.000000	0.000000	0.000000
68.435038	23.238714	11.909039	-0.017704	0.264966	2.843400	0.000000	0.007799	0.000000	-0.000008	-0.000000	0.000000	0.000000
68.768372	23.255299	11.742380	-0.032052	0.235011	2.846000	0.000000	0.007799	0.000000	-0.000008	-0.000000	0.000000	0.000000
69.101705	23.281450	11.595691	-0.046400	0.205056	2.848599	0.000000	0.007799	0.000000	-0.000008	-0.000000	0.000000	0.000000
69.436288	23.317318	11.468534	-0.060803	0.174989	2.851209	0.000000	0.007799	0.000000	-0.000008	-0.000000	0.000000	0.000000
69.733611	23.357279	11.372422	-0.134633	0.177986	2.853527	0.000000	0.015255	0.000000	-0.000008	-0.000000	0.000000	0.000000
70.282671	23.103979	11.404677	0.593236	-0.237078	2.838720	0.000000	-0.069112	0.000000	-0.000008	0.000000	0.000000	0.000000
