#ParticleID	Turn	x[m]	xp	y[m]	yp	z[m]	dE[GeV]# s	beta_x	beta_y	alpha_x	alpha_y	D_x	D_y	D_px	D_py	orbit_x	orbit_px	orbit_y	orbit_py
0.300000	11.803519	25.058221	-0.010108	-0.026772	2.618335	0.000000	-0.000074	0.000000	-0.000002	0.000002	0.000000	0.000000
0.601250	11.817299	25.077975	-0.035633	-0.038802	2.618312	0.000000	-0.000074	0.000000	-0.000001	0.000002	0.000000	0.000000
0.898573	11.845978	25.104579	-0.031775	-0.112239	2.618290	0.000000	-0.006494	0.000000	-0.000000	0.000002	0.000000	0.000000
1.339533	12.026009	24.925067	-0.378046	0.517785	2.631720	0.000000	0.067467	0.000000	0.000000	0.000002	0.000000	0.000000
1.780493	12.517857	24.198229	-0.741588	1.124250	2.677902	0.000000	0.142197	0.000000	0.000001	0.000002	0.000000	0.000000
2.221453	13.343993	22.957137	-1.139012	1.679564	2.757362	0.000000	0.218546	0.000000	0.000002	0.000002	0.000000	0.000000
2.662413	14.542160	21.258258	-1.588474	2.158458	2.871005	0.000000	0.297384	0.000000	0.000003	0.000002	0.000000	0.000000
3.108373	16.187816	19.153979	-2.114793	2.540278	3.021987	0.000000	0.380099	0.000000	0.000004	0.000002	0.000000	0.000000
3.657433	18.298140	16.790506	-1.705977	1.789711	3.205412	0.000000	0.287062	0.000000	0.000005	0.000002	0.000000	0.000000
4.206493	19.890306	15.176828	-1.176659	1.166621	3.336279	0.000000	0.188933	0.000000	0.000006	0.000002	0.000000	0.000000
4.755553	20.851849	14.198004	-0.564227	0.626627	3.412266	0.000000	0.087453	0.000000	0.000006	0.000001	0.000000	0.000000
5.304613	21.114851	13.784317	0.088059	0.131267	3.432026	0.000000	-0.015578	0.000000	0.000007	0.000001	0.000000	0.000000
5.603185	21.099436	13.691075	0.018737	0.145014	3.430052	0.000000	-0.006611	0.000000	0.000007	0.000001	0.000000	0.000000
5.936519	21.092212	13.602685	0.002933	0.120155	3.427848	0.000000	-0.006611	0.000000	0.000008	0.000001	0.000000	0.000000
6.269852	21.095525	13.530868	-0.012870	0.095296	3.425644	0.000000	-0.006611	0.000000	0.000008	0.000001	0.000000	0.000000
6.604435	21.109445	13.475447	-0.028733	0.070344	3.423431	0.000000	-0.006611	0.000000	0.000009	0.000001	0.000000	0.000000
6.901758	21.130722	13.440210	-0.098036	0.083285	3.421465	0.000000	0.002328	0.000000	0.000009	0.000001	0.000000	0.000000
7.450818	20.878283	13.609719	0.555081	-0.393832	3.394544	0.000000	-0.100245	0.000000	0.000010	0.000001	0.000000	0.000000
7.999878	19.926028	14.315397	1.168990	-0.899002	3.311709	0.000000	-0.201040	0.000000	0.000010	0.000001	0.000000	0.000000
8.548938	18.341219	15.607509	1.700328	-1.468206	3.174431	0.000000	-0.298269	0.000000	0.000010	0.000000	0.000000	0.000000
9.097998	16.235798	17.578090	2.111563	-2.141987	2.985145	0.000000	-0.390208	0.000000	0.000011	-0.000000	0.000000	0.000000
9.543958	14.593235	19.333945	1.584739	-1.778619	2.829433	0.000000	-0.308510	0.000000	0.000011	0.000000	0.000000	0.000000
9.984918	13.398647	20.712420	1.134602	-1.335561	2.710637	0.000000	-0.230810	0.000000	0.000011	0.000001	0.000000	0.000000
10.425878	12.576771	21.671762	0.736301	-0.831737	2.625491	0.000000	-0.155738	0.000000	0.000011	0.000001	0.000000	0.000000
10.866838	12.090061	22.168323	0.371639	-0.290069	2.573027	0.000000	-0.082441	0.000000	0.000011	0.000001	0.000000	0.000000
11.309048	11.916146	22.178984	0.053071	0.210353	2.552626	0.000000	-0.016341	0.000000	0.000012	0.000001	0.000000	0.000000
11.606371	11.892027	22.058061	0.028049	0.196354	2.547767	0.000000	-0.016341	0.000000	0.000012	0.000001	0.000000	0.000000
12.086371	11.884489	21.880409	-0.012346	0.173754	2.539923	0.000000	-0.016341	0.000000	0.000013	0.000001	0.000000	0.000000
12.566371	11.915731	21.724452	-0.052741	0.151155	2.532079	0.000000	-0.016341	0.000000	0.000014	0.000001	0.000000	0.000000
13.046371	11.985752	21.590191	-0.093136	0.128555	2.524234	0.000000	-0.016341	0.000000	0.000014	0.000001	0.000000	0.000000
13.526371	12.094552	21.477627	-0.133531	0.105955	2.516390	0.000000	-0.016341	0.000000	0.000015	0.000001	0.000000	0.000000
14.007621	12.242566	21.386549	-0.174031	0.083297	2.508525	0.000000	-0.016341	0.000000	0.000016	0.000001	0.000000	0.000000
14.304943	12.353492	21.341179	-0.168763	0.016971	2.503666	0.000000	-0.022480	0.000000	0.000016	0.000001	0.000000	0.000000
14.745903	12.660807	21.092653	-0.530804	0.544487	2.509381	0.000000	0.048427	0.000000	0.000017	0.000002	0.000000	0.000000
15.186863	13.296861	20.388089	-0.917096	1.047228	2.546455	0.000000	0.119886	0.000000	0.000018	0.000002	0.000000	0.000000
15.627823	14.290712	19.259545	-1.345288	1.502322	2.615309	0.000000	0.192710	0.000000	0.000019	0.000003	0.000000	0.000000
16.068783	15.687767	17.758368	-1.834942	1.889060	2.716729	0.000000	0.267728	0.000000	0.000020	0.000003	0.000000	0.000000
16.514743	17.575518	15.931363	-2.413188	2.190590	2.853563	0.000000	0.346259	0.000000	0.000022	0.000004	0.000000	0.000000
17.063803	20.000182	13.891427	-1.976695	1.546663	3.019955	0.000000	0.258954	0.000000	0.000023	0.000003	0.000000	0.000000
17.612863	21.865551	12.494319	-1.400577	1.012902	3.137079	0.000000	0.167057	0.000000	0.000025	0.000002	0.000000	0.000000
18.161923	23.039864	11.640525	-0.725530	0.551287	3.202857	0.000000	0.072197	0.000000	0.000026	0.000001	0.000000	0.000000
18.710983	23.440173	11.269232	0.000765	0.128939	3.216123	0.000000	-0.023944	0.000000	0.000026	0.000001	0.000000	0.000000
19.009556	23.480097	11.182767	-0.073250	0.131217	3.211482	0.000000	-0.015543	0.000000	0.000027	0.000001	0.000000	0.000000
19.342889	23.533688	11.105396	-0.087523	0.100896	3.206301	0.000000	-0.015543	0.000000	0.000027	0.000001	0.000000	0.000000
19.676223	23.596794	11.048239	-0.101795	0.070575	3.201120	0.000000	-0.015543	0.000000	0.000027	0.000001	0.000000	0.000000
20.010806	23.669999	11.011059	-0.233396	0.094696	3.195939	0.000000	0.000292	0.000000	0.000027	0.000001	0.000000	0.000000
20.308129	23.812724	10.962849	-0.308845	0.096089	3.196026	0.000000	0.008640	0.000000	0.000027	0.000001	0.000000	0.000000
20.857189	23.741151	11.079214	0.438431	-0.309275	3.174559	0.000000	-0.086717	0.000000	0.000028	-0.000000	0.000000	0.000000
21.406249	22.861196	11.650130	1.154738	-0.736669	3.101083	0.000000	-0.180535	0.000000	0.000027	-0.000001	0.000000	0.000000
21.955309	21.235016	12.716264	1.789480	-1.216534	2.976899	0.000000	-0.271152	0.000000	0.000026	-0.000002	0.000000	0.000000
22.504369	18.977477	14.353552	2.297822	-1.783051	2.804210	0.000000	-0.356959	0.000000	0.000025	-0.000003	0.000000	0.000000
22.950329	17.198224	15.823652	1.705972	-1.499527	2.662310	0.000000	-0.279775	0.000000	0.000024	-0.000002	0.000000	0.000000
23.391289	15.923073	16.995843	1.196759	-1.148627	2.555258	0.000000	-0.206232	0.000000	0.000023	-0.000001	0.000000	0.000000
23.832249	15.071290	17.834253	0.742224	-0.745466	2.480087	0.000000	-0.135037	0.000000	0.000023	-0.000001	0.000000	0.000000
24.273209	14.603960	18.300735	0.321598	-0.308387	2.435941	0.000000	-0.065381	0.000000	0.000023	-0.000000	0.000000	0.000000
24.715418	14.499853	18.373821	-0.048871	0.097606	2.422314	0.000000	-0.002408	0.000000	0.000023	0.000000	0.000000	0.000000
25.012741	14.535026	18.320637	-0.069425	0.081270	2.421598	0.000000	-0.002408	0.000000	0.000023	0.000000	0.000000	0.000000
25.346075	14.588990	18.272561	-0.092469	0.062956	2.420795	0.000000	-0.002408	0.000000	0.000023	0.000000	0.000000	0.000000
25.679408	14.658317	18.236696	-0.115512	0.044641	2.419992	0.000000	-0.002408	0.000000	0.000023	0.000000	0.000000	0.000000
26.013991	14.743054	18.213344	-0.019037	-0.121498	2.419162	0.000000	-0.022034	0.000000	0.000023	0.000000	0.000000	0.000000
26.311314	14.760373	18.290517	-0.003023	-0.182907	2.412610	0.000000	-0.027949	0.000000	0.000023	0.000000	0.000000	0.000000
26.752274	14.944873	18.253494	-0.416969	0.266547	2.415391	0.000000	0.040573	0.000000	0.000023	0.000001	0.000000	0.000000
27.193234	15.501429	17.823944	-0.849965	0.703873	2.448459	0.000000	0.109556	0.000000	0.000024	0.000001	0.000000	0.000000
27.634194	16.455469	17.021409	-1.321794	1.109173	2.512193	0.000000	0.179788	0.000000	0.000024	0.000002	0.000000	0.000000
28.075154	17.850581	15.882404	-1.854012	1.464007	2.607317	0.000000	0.252067	0.000000	0.000025	0.000003	0.000000	0.000000
28.521114	19.774737	14.441594	-2.475908	1.753141	2.736517	0.000000	0.327661	0.000000	0.000027	0.000003	0.000000	0.000000
29.070174	22.220333	12.836347	-1.951874	1.187742	2.893767	0.000000	0.244297	0.000000	0.000028	0.000002	0.000000	0.000000
29.619234	24.010900	11.802154	-1.289969	0.706944	3.003987	0.000000	0.156600	0.000000	0.000029	0.000001	0.000000	0.000000
30.168294	25.019960	11.265353	-0.536946	0.276500	3.065222	0.000000	0.066126	0.000000	0.000030	0.000000	0.000000	0.000000
30.717354	25.176238	11.187708	0.254003	-0.134250	3.076385	0.000000	-0.025522	0.000000	0.000030	-0.000001	0.000000	0.000000
31.015927	25.067498	11.258480	0.175959	-0.132008	3.071165	0.000000	-0.017485	0.000000	0.000029	-0.000000	0.000000	0.000000
31.349260	24.954762	11.356526	0.162250	-0.162131	3.065336	0.000000	-0.017485	0.000000	0.000029	-0.000000	0.000000	0.000000
31.682593	24.851165	11.474655	0.148541	-0.192255	3.059508	0.000000	-0.017485	0.000000	0.000029	-0.000000	0.000000	0.000000
32.017177	24.756371	11.613422	0.134780	-0.222491	3.053658	0.000000	-0.017485	0.000000	0.000029	-0.000000	0.000000	0.000000
32.314499	24.679860	11.753714	0.058084	-0.218657	3.048459	0.000000	-0.009522	0.000000	0.000029	-0.000000	0.000000	0.000000
32.863559	24.193198	12.232998	0.823024	-0.659414	3.018359	0.000000	-0.099958	0.000000	0.000028	-0.000001	0.000000	0.000000
33.412619	22.893647	13.219084	1.529829	-1.147139	2.939020	0.000000	-0.188621	0.000000	0.000027	-0.000002	0.000000	0.000000
33.961679	20.873000	14.782207	2.128576	-1.716573	2.811848	0.000000	-0.273938	0.000000	0.000026	-0.000003	0.000000	0.000000
34.510739	18.273986	17.033706	2.576969	-2.408274	2.639099	0.000000	-0.354396	0.000000	0.000024	-0.000004	0.000000	0.000000
34.956699	16.253091	19.047625	1.970824	-2.088789	2.497389	0.000000	-0.281493	0.000000	0.000022	-0.000003	0.000000	0.000000
35.397659	14.746066	20.713649	1.459741	-1.675008	2.388640	0.000000	-0.212223	0.000000	0.000021	-0.000003	0.000000	0.000000
35.838619	13.658775	21.979624	1.015348	-1.185016	2.309874	0.000000	-0.145370	0.000000	0.000020	-0.000002	0.000000	0.000000
36.279579	12.941543	22.787947	0.617344	-0.641107	2.260194	0.000000	-0.080173	0.000000	0.000019	-0.000002	0.000000	0.000000
36.721789	12.560907	23.102154	0.278237	-0.124725	2.239008	0.000000	-0.021379	0.000000	0.000019	-0.000001	0.000000	0.000000
37.019112	12.403037	23.180207	0.252734	-0.137795	2.232652	0.000000	-0.021379	0.000000	0.000018	-0.000001	0.000000	0.000000
37.352445	12.244078	23.276955	0.224142	-0.152448	2.225526	0.000000	-0.021379	0.000000	0.000018	-0.000001	0.000000	0.000000
37.685779	12.104181	23.383471	0.195551	-0.167101	2.218400	0.000000	-0.021379	0.000000	0.000017	-0.000001	0.000000	0.000000
38.020362	11.982927	23.500211	0.166852	-0.181810	2.211248	0.000000	-0.021379	0.000000	0.000017	-0.000001	0.000000	0.000000
38.317684	11.891292	23.612209	0.170505	-0.252775	2.204891	0.000000	-0.026785	0.000000	0.000017	-0.000001	0.000000	0.000000
38.758644	11.892488	23.573586	-0.173229	0.340030	2.207004	0.000000	0.036373	0.000000	0.000016	-0.000001	0.000000	0.000000
39.199604	12.199161	23.017007	-0.524877	0.917364	2.237031	0.000000	0.099945	0.000000	0.000016	-0.000000	0.000000	0.000000
39.640564	12.825322	21.967797	-0.900505	1.452959	2.295315	0.000000	0.164656	0.000000	0.000016	-0.000000	0.000000	0.000000
40.081524	13.799578	20.473692	-1.317275	1.922446	2.382520	0.000000	0.231242	0.000000	0.000016	0.000000	0.000000	0.000000
40.527484	15.184018	18.580095	-1.798055	2.305749	2.501110	0.000000	0.300867	0.000000	0.000016	0.000001	0.000000	0.000000
41.076544	16.950596	16.452086	-1.400357	1.592858	2.645781	0.000000	0.225335	0.000000	0.000016	0.000000	0.000000	0.000000
41.625604	18.223220	15.040395	-0.903745	0.993422	2.747820	0.000000	0.145806	0.000000	0.000016	-0.000000	0.000000	0.000000
42.174664	18.911998	14.244471	-0.343297	0.464746	2.805418	0.000000	0.063690	0.000000	0.000016	-0.000001	0.000000	0.000000
42.723724	18.968279	14.007622	0.241400	-0.030828	2.817553	0.000000	-0.019555	0.000000	0.000015	-0.000001	0.000000	0.000000
43.022297	18.858591	14.010543	0.175526	-0.015548	2.813913	0.000000	-0.012194	0.000000	0.000015	-0.000001	0.000000	0.000000
43.502297	18.702680	14.041918	0.149289	-0.049817	2.808060	0.000000	-0.012194	0.000000	0.000014	-0.000001	0.000000	0.000000
43.982297	18.571956	14.106190	0.123052	-0.084085	2.802208	0.000000	-0.012194	0.000000	0.000014	-0.000001	0.000000	0.000000
44.462297	18.466419	14.203360	0.096816	-0.118353	2.796355	0.000000	-0.012194	0.000000	0.000013	-0.000001	0.000000	0.000000
44.942297	18.386070	14.333428	0.070579	-0.152621	2.790503	0.000000	-0.012194	0.000000	0.000013	-0.000001	0.000000	0.000000
45.423547	18.331024	14.496681	-0.046548	-0.115153	2.784652	0.000000	0.001603	0.000000	0.000012	-0.000001	0.000000	0.000000
45.720870	18.363537	14.571335	-0.110779	-0.097866	2.785129	0.000000	0.008879	0.000000	0.000012	-0.000001	0.000000	0.000000
46.269930	18.175991	14.960557	0.450333	-0.615206	2.767439	0.000000	-0.073225	0.000000	0.000011	-0.000002	0.000000	0.000000
46.818990	17.386177	15.938466	0.979635	-1.176366	2.704959	0.000000	-0.154031	0.000000	0.000010	-0.000002	0.000000	0.000000
47.368050	16.049883	17.574715	1.439741	-1.821316	2.598798	0.000000	-0.232105	0.000000	0.000009	-0.000002	0.000000	0.000000
47.917110	14.261500	19.985851	1.798150	-2.595994	2.450838	0.000000	-0.306062	0.000000	0.000007	-0.000002	0.000000	0.000000
48.363070	12.869887	22.129469	1.333395	-2.190547	2.329637	0.000000	-0.237775	0.000000	0.000006	-0.000002	0.000000	0.000000
48.804030	11.874129	23.845714	0.933329	-1.686708	2.239247	0.000000	-0.172593	0.000000	0.000005	-0.000002	0.000000	0.000000
49.244990	11.211133	25.081946	0.575904	-1.106126	2.177138	0.000000	-0.109377	0.000000	0.000005	-0.000002	0.000000	0.000000
49.685950	10.850606	25.781918	0.244791	-0.475215	2.142604	0.000000	-0.047407	0.000000	0.000004	-0.000002	0.000000	0.000000
50.128160	10.776201	25.913497	-0.048830	0.113722	2.135263	0.000000	0.008788	0.000000	0.000003	-0.000002	0.000000	0.000000
50.425482	10.813460	25.849328	-0.076486	0.102100	2.137876	0.000000	0.008788	0.000000	0.000002	-0.000002	0.000000	0.000000
50.758816	10.874786	25.785604	-0.107492	0.089071	2.140806	0.000000	0.008788	0.000000	0.000002	-0.000002	0.000000	0.000000
51.092149	10.956783	25.730567	-0.138498	0.076041	2.143736	0.000000	0.008788	0.000000	0.000001	-0.000002	0.000000	0.000000
51.426732	11.059650	25.684580	-0.079898	-0.145403	2.146655	0.000000	-0.008627	0.000000	0.000001	-0.000002	0.000000	0.000000
51.724055	11.115205	25.774558	-0.079695	-0.220432	2.144090	0.000000	-0.013885	0.000000	-0.000000	-0.000002	0.000000	0.000000
52.165015	11.330650	25.682184	-0.410742	0.429118	2.151556	0.000000	0.047775	0.000000	-0.000001	-0.000002	0.000000	0.000000
52.605975	11.845193	25.023413	-0.760555	1.059144	2.186305	0.000000	0.109978	0.000000	-0.000002	-0.000002	0.000000	0.000000
53.046935	12.682341	23.828218	-1.145115	1.640979	2.248733	0.000000	0.173435	0.000000	-0.000002	-0.000002	0.000000	0.000000
53.487895	13.880340	22.150981	-1.581992	2.148151	2.339552	0.000000	0.238867	0.000000	-0.000003	-0.000002	0.000000	0.000000
53.933855	15.514465	20.042939	-2.095369	2.558923	2.461300	0.000000	0.307418	0.000000	-0.000004	-0.000002	0.000000	0.000000
54.482915	17.618419	17.670784	-1.713868	1.786972	2.609911	0.000000	0.233112	0.000000	-0.000005	-0.000002	0.000000	0.000000
55.031975	19.234078	16.071873	-1.211307	1.142304	2.716527	0.000000	0.154671	0.000000	-0.000006	-0.000002	0.000000	0.000000
55.581035	20.247323	15.132321	-0.623186	0.578998	2.779256	0.000000	0.073486	0.000000	-0.000007	-0.000002	0.000000	0.000000
56.130095	20.586580	14.785205	0.008954	0.056934	2.796986	0.000000	-0.009002	0.000000	-0.000008	-0.000001	0.000000	0.000000
56.428668	20.617695	14.734222	-0.059371	0.075190	2.796480	0.000000	-0.001694	0.000000	-0.000008	-0.000001	0.000000	0.000000
56.762001	20.662683	14.691679	-0.075595	0.052439	2.795916	0.000000	-0.001694	0.000000	-0.000009	-0.000001	0.000000	0.000000
57.095334	20.718488	14.664304	-0.091820	0.029688	2.795352	0.000000	-0.001694	0.000000	-0.000009	-0.000001	0.000000	0.000000
57.429918	20.785380	14.652078	-0.108105	0.006851	2.794786	0.000000	-0.001694	0.000000	-0.000010	-0.000001	0.000000	0.000000
57.727240	20.853966	14.654038	-0.177068	0.024849	2.794283	0.000000	0.005608	0.000000	-0.000010	-0.000001	0.000000	0.000000
58.276300	20.692678	14.908077	0.469082	-0.490261	2.774721	0.000000	-0.076763	0.000000	-0.000011	-0.000001	0.000000	0.000000
58.825360	19.835916	15.743511	1.082098	-1.040292	2.710239	0.000000	-0.157772	0.000000	-0.000011	-0.000001	0.000000	0.000000
59.374420	18.344195	17.219845	1.618681	-1.664420	2.601983	0.000000	-0.235983	0.000000	-0.000011	-0.000000	0.000000	0.000000
59.923480	16.322885	19.442236	2.040928	-2.407101	2.451871	0.000000	-0.310008	0.000000	-0.000011	0.000000	0.000000	0.000000
60.369440	14.740873	21.417465	1.519066	-2.003363	2.328912	0.000000	-0.241717	0.000000	-0.000011	-0.000000	0.000000	0.000000
60.810400	13.603159	22.972570	1.070805	-1.509852	2.236775	0.000000	-0.176576	0.000000	-0.000012	-0.000000	0.000000	0.000000
61.251360	12.837791	24.060366	0.671465	-0.947643	2.172891	0.000000	-0.113447	0.000000	-0.000012	-0.000001	0.000000	0.000000
61.692320	12.409802	24.631360	0.302803	-0.342318	2.136535	0.000000	-0.051610	0.000000	-0.000012	-0.000001	0.000000	0.000000
62.134530	12.299691	24.659027	-0.021961	0.218051	2.127296	0.000000	0.004422	0.000000	-0.000013	-0.000001	0.000000	0.000000
62.431853	12.319941	24.533119	-0.046146	0.205420	2.128611	0.000000	0.004422	0.000000	-0.000013	-0.000001	0.000000	0.000000
62.765186	12.359743	24.400893	-0.073260	0.191260	2.130086	0.000000	0.004422	0.000000	-0.000014	-0.000001	0.000000	0.000000
63.098520	12.417621	24.278106	-0.100374	0.177099	2.131560	0.000000	0.004422	0.000000	-0.000014	-0.000001	0.000000	0.000000
63.433103	12.493894	24.164353	-0.127590	0.162886	2.133041	0.000000	0.004422	0.000000	-0.000015	-0.000001	0.000000	0.000000
63.730426	12.576955	24.071249	-0.120928	0.091216	2.134356	0.000000	-0.000812	0.000000	-0.000015	-0.000001	0.000000	0.000000
64.171386	12.843811	23.725724	-0.486539	0.689378	2.147541	0.000000	0.060670	0.000000	-0.000016	-0.000002	0.000000	0.000000
64.612346	13.441653	22.864536	-0.874379	1.256174	2.187965	0.000000	0.122844	0.000000	-0.000017	-0.000002	0.000000	0.000000
65.053306	14.397795	21.526870	-1.302167	1.765815	2.256087	0.000000	0.186416	0.000000	-0.000018	-0.000003	0.000000	0.000000
65.494266	15.755920	19.773588	-1.789448	2.195112	2.352683	0.000000	0.252112	0.000000	-0.000019	-0.000003	0.000000	0.000000
65.940226	17.601240	17.659662	-2.363174	2.525284	2.480426	0.000000	0.321081	0.000000	-0.000020	-0.000004	0.000000	0.000000
66.489286	19.966936	15.294921	-1.919953	1.807030	2.636348	0.000000	0.246037	0.000000	-0.000022	-0.000003	0.000000	0.000000
67.038346	21.768120	13.644025	-1.341117	1.217487	2.749806	0.000000	0.166629	0.000000	-0.000024	-0.000002	0.000000	0.000000
67.587406	22.877565	12.589384	-0.667551	0.714663	2.818786	0.000000	0.084264	0.000000	-0.000024	-0.000001	0.000000	0.000000
68.136466	23.216907	12.055880	0.053167	0.262742	2.842065	0.000000	0.000406	0.000000	-0.000025	-0.000001	0.000000	0.000000
68.435038	23.225229	11.888205	-0.020368	0.267338	2.844404	0.000000	0.007833	0.000000	-0.000025	-0.000001	0.000000	0.000000
68.768372	23.243594	11.719994	-0.034726	0.237295	2.847015	0.000000	0.007833	0.000000	-0.000025	-0.000001	0.000000	0.000000
69.101705	23.271531	11.571812	-0.049084	0.207252	2.849626	0.000000	0.007833	0.000000	-0.000026	-0.000001	0.000000	0.000000
69.436288	23.309198	11.443215	-0.063496	0.177097	2.852248	0.000000	0.007833	0.000000	-0.000026	-0.000001	0.000000	0.000000
69.733611	23.350763	11.345872	-0.137328	0.179951	2.854577	0.000000	0.015293	0.000000	-0.000026	-0.000001	0.000000	0.000000
70.282671	23.100516	11.375555	0.590404	-0.234330	2.839781	0.000000	-0.069108	0.000000	-0.000026	0.000000	0.000000	0.000000
