#ParticleID	Turn	x[m]	xp	y[m]	yp	z[m]	dE[GeV]# s	beta_x	beta_y	alpha_x	alpha_y	D_x	D_y	D_px	D_py	orbit_x	orbit_px	orbit_y	orbit_py
0.300000	11.835114	24.937309	-0.013813	-0.027790	2.618361	0.000000	-0.000083	0.000000	-0.000000	0.000000	0.000000	0.000000
0.601250	11.851106	24.957694	-0.039271	-0.039880	2.618336	0.000000	-0.000083	0.000000	-0.000000	0.000000	0.000000	0.000000
0.898573	11.881929	24.984957	-0.035260	-0.113083	2.618312	0.000000	-0.006504	0.000000	-0.000000	0.000000	0.000000	0.000000
1.339533	12.065422	24.807582	-0.382440	0.513799	2.631738	0.000000	0.067458	0.000000	-0.000000	0.000000	0.000000	0.000000
1.780493	12.561619	24.085583	-0.747093	1.117303	2.677917	0.000000	0.142188	0.000000	-0.000000	0.000000	0.000000	0.000000
2.221453	13.393189	22.851812	-1.145879	1.669971	2.757374	0.000000	0.218538	0.000000	-0.000000	0.000000	0.000000	0.000000
2.662413	14.598125	21.162403	-1.597016	2.146657	2.871015	0.000000	0.297377	0.000000	-0.000000	0.000000	0.000000	0.000000
3.108373	16.252297	19.069444	-2.125419	2.526800	3.021994	0.000000	0.380092	0.000000	-0.000000	0.000000	0.000000	0.000000
3.657433	18.373442	16.718879	-1.714942	1.779543	3.205416	0.000000	0.287054	0.000000	-0.000000	0.000000	0.000000	0.000000
4.206493	19.974243	15.114890	-1.183330	1.159038	3.336280	0.000000	0.188926	0.000000	-0.000000	0.000000	0.000000	0.000000
4.755553	20.941628	14.143229	-0.568134	0.621088	3.412264	0.000000	0.087446	0.000000	-0.000000	0.000000	0.000000	0.000000
5.304613	21.207266	13.734688	0.087193	0.127378	3.432020	0.000000	-0.015586	0.000000	-0.000000	0.000000	0.000000	0.000000
5.603185	21.192495	13.643859	0.017689	0.140946	3.430044	0.000000	-0.006618	0.000000	-0.000000	0.000000	0.000000	0.000000
5.936519	21.185947	13.558200	0.001955	0.116030	3.427838	0.000000	-0.006618	0.000000	-0.000000	0.000000	0.000000	0.000000
6.269852	21.189888	13.489152	-0.013779	0.091113	3.425632	0.000000	-0.006618	0.000000	-0.000000	0.000000	0.000000	0.000000
6.604435	21.204393	13.436550	-0.029571	0.066104	3.423418	0.000000	-0.006618	0.000000	-0.000000	0.000000	0.000000	0.000000
6.901758	21.226150	13.403850	-0.099066	0.078901	3.421450	0.000000	0.002321	0.000000	-0.000000	0.000000	0.000000	0.000000
7.450818	20.973081	13.577628	0.557250	-0.397270	3.394526	0.000000	-0.100251	0.000000	-0.000000	0.000000	0.000000	0.000000
7.999878	20.016747	14.286676	1.174205	-0.901738	3.311689	0.000000	-0.201045	0.000000	-0.000000	0.000000	0.000000	0.000000
8.548938	18.424699	15.581498	1.708219	-1.470435	3.174409	0.000000	-0.298274	0.000000	-0.000000	0.000000	0.000000	0.000000
9.097998	16.309391	17.554322	2.121574	-2.143867	2.985120	0.000000	-0.390211	0.000000	-0.000000	0.000000	0.000000	0.000000
9.543958	14.658899	19.312292	1.592572	-1.781464	2.829406	0.000000	-0.308514	0.000000	-0.000000	0.000000	0.000000	0.000000
9.984918	13.458221	20.693652	1.140631	-1.339234	2.710608	0.000000	-0.230815	0.000000	-0.000000	0.000000	0.000000	0.000000
10.425878	12.631720	21.656538	0.740801	-0.836069	2.625461	0.000000	-0.155744	0.000000	0.000000	0.000000	0.000000	0.000000
10.866838	12.141636	22.157139	0.374817	-0.294864	2.572994	0.000000	-0.082447	0.000000	0.000000	0.000000	0.000000	0.000000
11.309048	11.965440	22.172166	0.055196	0.205324	2.552591	0.000000	-0.016349	0.000000	0.000000	0.000000	0.000000	0.000000
11.606371	11.940029	22.054226	0.030272	0.191349	2.547730	0.000000	-0.016349	0.000000	0.000000	0.000000	0.000000	0.000000
12.086371	11.930282	21.881360	-0.009966	0.168788	2.539882	0.000000	-0.016349	0.000000	0.000000	0.000000	0.000000	0.000000
12.566371	11.959164	21.730154	-0.050204	0.146226	2.532034	0.000000	-0.016349	0.000000	0.000000	0.000000	0.000000	0.000000
13.046371	12.026673	21.600606	-0.090442	0.123665	2.524187	0.000000	-0.016349	0.000000	0.000000	0.000000	0.000000	0.000000
13.526371	12.132811	21.492717	-0.130679	0.101103	2.516339	0.000000	-0.016349	0.000000	0.000000	0.000000	0.000000	0.000000
14.007621	12.278005	21.406291	-0.171022	0.078483	2.508471	0.000000	-0.016349	0.000000	0.000000	0.000000	0.000000	0.000000
14.304943	12.387113	21.363777	-0.165569	0.012118	2.503610	0.000000	-0.022489	0.000000	0.000000	0.000000	0.000000	0.000000
14.745903	12.691913	21.119230	-0.528273	0.540349	2.509321	0.000000	0.048417	0.000000	0.000000	0.000000	0.000000	0.000000
15.186863	13.325983	20.417930	-0.915112	1.043994	2.546391	0.000000	0.119874	0.000000	0.000000	0.000000	0.000000	0.000000
15.627823	14.318290	19.291784	-1.343760	1.500139	2.615240	0.000000	0.192696	0.000000	0.000000	0.000000	0.000000	0.000000
16.068783	15.714171	17.792031	-1.833800	1.888028	2.716655	0.000000	0.267713	0.000000	0.000000	0.000000	0.000000	0.000000
16.514743	17.601055	15.965409	-2.412380	2.190764	2.853482	0.000000	0.346241	0.000000	0.000000	0.000000	0.000000	0.000000
17.063803	20.024153	13.925667	-1.974673	1.546137	3.019867	0.000000	0.258939	0.000000	0.000001	0.000000	0.000000	0.000000
17.612863	21.886696	12.529535	-1.397485	1.011638	3.136985	0.000000	0.167045	0.000000	0.000001	0.000000	0.000000	0.000000
18.161923	23.057121	11.677572	-0.721585	0.549196	3.202759	0.000000	0.072188	0.000000	0.000001	0.000000	0.000000	0.000000
18.710983	23.452756	11.309094	0.005283	0.125872	3.216021	0.000000	-0.023950	0.000000	0.000001	0.000000	0.000000	0.000000
19.009556	23.490006	11.224359	-0.068765	0.128382	3.211379	0.000000	-0.015547	0.000000	0.000001	0.000000	0.000000	0.000000
19.342889	23.540602	11.148833	-0.083023	0.098195	3.206197	0.000000	-0.015547	0.000000	0.000001	0.000000	0.000000	0.000000
19.676223	23.600703	11.093432	-0.097280	0.068008	3.201014	0.000000	-0.015547	0.000000	0.000001	0.000000	0.000000	0.000000
20.010806	23.670881	11.057924	-0.228870	0.092496	3.195833	0.000000	0.000287	0.000000	0.000001	0.000000	0.000000	0.000000
20.308129	23.810907	11.010985	-0.304302	0.094148	3.195918	0.000000	0.008637	0.000000	0.000001	0.000000	0.000000	0.000000
20.857189	23.734402	11.130232	0.442817	-0.312614	3.174451	0.000000	-0.086716	0.000000	0.000001	0.000000	0.000000	0.000000
21.406249	22.849861	11.705686	1.158656	-0.741643	3.100976	0.000000	-0.180531	0.000000	0.000001	-0.000000	0.000000	0.000000
21.955309	21.219764	12.778334	1.792655	-1.223497	2.976794	0.000000	-0.271144	0.000000	0.000001	-0.000000	0.000000	0.000000
22.504369	18.959254	14.424579	2.300029	-1.792498	2.804110	0.000000	-0.356948	0.000000	0.000001	-0.000000	0.000000	0.000000
22.950329	17.177978	15.902401	1.708324	-1.507322	2.662213	0.000000	-0.279767	0.000000	0.000001	-0.000000	0.000000	0.000000
23.391289	15.900650	17.080607	1.199365	-1.154422	2.555163	0.000000	-0.206226	0.000000	0.000001	-0.000000	0.000000	0.000000
23.832249	15.046414	17.923144	0.745202	-0.748996	2.479994	0.000000	-0.135034	0.000000	0.000001	0.000000	0.000000	0.000000
24.273209	14.576244	18.391678	0.325085	-0.309492	2.435848	0.000000	-0.065380	0.000000	0.000001	0.000000	0.000000	0.000000
24.715418	14.468770	18.464644	-0.044785	0.098745	2.422222	0.000000	-0.002411	0.000000	0.000001	0.000000	0.000000	0.000000
25.012741	14.501523	18.410760	-0.065375	0.082485	2.421505	0.000000	-0.002411	0.000000	0.000001	0.000000	0.000000	0.000000
25.346075	14.552802	18.361846	-0.088460	0.064257	2.420701	0.000000	-0.002411	0.000000	0.000001	0.000000	0.000000	0.000000
25.679408	14.619470	18.325084	-0.111544	0.046028	2.419898	0.000000	-0.002411	0.000000	0.000001	0.000000	0.000000	0.000000
26.013991	14.701566	18.300777	-0.015446	-0.120734	2.419067	0.000000	-0.022036	0.000000	0.000001	0.000000	0.000000	0.000000
26.311314	14.716765	18.377471	0.000415	-0.182284	2.412515	0.000000	-0.027952	0.000000	0.000001	0.000000	0.000000	0.000000
26.752274	14.897751	18.338860	-0.412408	0.269513	2.415294	0.000000	0.040567	0.000000	0.000001	0.000000	0.000000	0.000000
27.193234	15.449715	17.905706	-0.844072	0.709047	2.448360	0.000000	0.109549	0.000000	0.000001	0.000000	0.000000	0.000000
27.634194	16.397873	17.097718	-1.314300	1.116319	2.512090	0.000000	0.179778	0.000000	0.000001	0.000000	0.000000	0.000000
28.075154	17.785546	15.951659	-1.844574	1.472800	2.607210	0.000000	0.252054	0.000000	0.000001	0.000000	0.000000	0.000000
28.521114	19.700248	14.502413	-2.464074	1.763185	2.736405	0.000000	0.327645	0.000000	0.000001	0.000000	0.000000	0.000000
29.070174	22.133836	12.887470	-1.941969	1.195464	2.893648	0.000000	0.244285	0.000000	0.000001	0.000000	0.000000	0.000000
29.619234	23.914913	11.845816	-1.282694	0.712893	3.003863	0.000000	0.156592	0.000000	0.000001	0.000000	0.000000	0.000000
30.168294	24.917672	11.303256	-0.532815	0.281101	3.065095	0.000000	0.066122	0.000000	0.000001	0.000000	0.000000	0.000000
30.717354	25.071283	11.221146	0.254699	-0.130670	3.076257	0.000000	-0.025521	0.000000	0.000001	0.000000	0.000000	0.000000
31.015927	24.961991	11.289693	0.176858	-0.128233	3.071037	0.000000	-0.017484	0.000000	0.000001	0.000000	0.000000	0.000000
31.349260	24.848676	11.385185	0.163087	-0.158244	3.065209	0.000000	-0.017484	0.000000	0.000001	0.000000	0.000000	0.000000
31.682593	24.744542	11.500684	0.149315	-0.188255	3.059381	0.000000	-0.017484	0.000000	0.000001	0.000000	0.000000	0.000000
32.017177	24.649250	11.636737	0.135492	-0.218378	3.053531	0.000000	-0.017484	0.000000	0.000001	0.000000	0.000000	0.000000
32.314499	24.572332	11.774553	0.059006	-0.214382	3.048333	0.000000	-0.009519	0.000000	0.000001	0.000000	0.000000	0.000000
32.863559	24.086623	12.249364	0.820376	-0.655492	3.018236	0.000000	-0.099951	0.000000	0.000001	-0.000000	0.000000	0.000000
33.412619	22.791865	13.231207	1.523799	-1.143290	2.938900	0.000000	-0.188610	0.000000	0.000001	-0.000000	0.000000	0.000000
33.961679	20.779514	14.790018	2.119589	-1.712522	2.811734	0.000000	-0.273923	0.000000	0.000001	-0.000000	0.000000	0.000000
34.510739	18.191712	17.036828	2.565661	-2.403734	2.638993	0.000000	-0.354377	0.000000	0.000001	-0.000000	0.000000	0.000000
34.956699	16.179769	19.046424	1.961993	-2.083674	2.497290	0.000000	-0.281477	0.000000	0.000001	-0.000000	0.000000	0.000000
35.397659	14.679601	20.707771	1.452963	-1.669559	2.388545	0.000000	-0.212209	0.000000	0.000001	-0.000000	0.000000	0.000000
35.838619	13.597499	21.968882	1.010315	-1.179479	2.309784	0.000000	-0.145359	0.000000	0.000001	-0.000000	0.000000	0.000000
36.279579	12.884025	22.772376	0.613824	-0.635735	2.260108	0.000000	-0.080164	0.000000	0.000001	-0.000000	0.000000	0.000000
36.721789	12.505893	23.081996	0.275940	-0.119723	2.238925	0.000000	-0.021373	0.000000	0.000001	-0.000000	0.000000	0.000000
37.019112	12.349413	23.157073	0.250355	-0.132788	2.232570	0.000000	-0.021373	0.000000	0.000001	-0.000000	0.000000	0.000000
37.352445	12.192071	23.250481	0.221672	-0.147437	2.225445	0.000000	-0.021373	0.000000	0.000001	-0.000000	0.000000	0.000000
37.685779	12.053851	23.353655	0.192988	-0.162085	2.218321	0.000000	-0.021373	0.000000	0.000001	-0.000000	0.000000	0.000000
38.020362	11.934343	23.467036	0.164197	-0.176788	2.211170	0.000000	-0.021373	0.000000	0.000001	-0.000000	0.000000	0.000000
38.317684	11.844311	23.576047	0.167658	-0.247669	2.204815	0.000000	-0.026780	0.000000	0.000001	-0.000000	0.000000	0.000000
38.758644	11.847552	23.533359	-0.175036	0.344108	2.206929	0.000000	0.036376	0.000000	0.000001	-0.000000	0.000000	0.000000
39.199604	12.155392	22.973707	-0.525726	0.920228	2.236957	0.000000	0.099947	0.000000	0.000001	0.000000	0.000000	0.000000
39.640564	12.781895	21.922556	-0.900435	1.454479	2.295241	0.000000	0.164656	0.000000	0.000001	0.000000	0.000000	0.000000
40.081524	13.755685	20.427732	-1.316283	1.922552	2.382445	0.000000	0.231240	0.000000	0.000001	0.000000	0.000000	0.000000
40.527484	15.138810	18.534681	-1.796090	2.304427	2.501033	0.000000	0.300863	0.000000	0.000001	0.000000	0.000000	0.000000
41.076544	16.904164	16.407485	-1.400106	1.592691	2.645703	0.000000	0.225333	0.000000	0.000001	0.000000	0.000000	0.000000
41.625604	18.177467	14.995354	-0.905225	0.994397	2.747742	0.000000	0.145806	0.000000	0.000001	0.000000	0.000000	0.000000
42.174664	18.868779	14.197704	-0.346404	0.466933	2.805340	0.000000	0.063693	0.000000	0.000001	-0.000000	0.000000	0.000000
42.723724	18.929269	13.957721	0.236886	-0.027273	2.817477	0.000000	-0.019549	0.000000	0.000001	-0.000000	0.000000	0.000000
43.022297	18.822223	13.958617	0.171100	-0.012197	2.813838	0.000000	-0.012188	0.000000	0.000001	-0.000000	0.000000	0.000000
43.502297	18.670566	13.986835	0.144852	-0.046589	2.807988	0.000000	-0.012188	0.000000	0.000001	-0.000000	0.000000	0.000000
43.982297	18.544108	14.048069	0.118603	-0.080982	2.802138	0.000000	-0.012188	0.000000	0.000001	-0.000000	0.000000	0.000000
44.462297	18.442848	14.142320	0.092355	-0.115374	2.796288	0.000000	-0.012188	0.000000	0.000001	-0.000000	0.000000	0.000000
44.942297	18.366786	14.269588	0.066107	-0.149767	2.790438	0.000000	-0.012188	0.000000	0.000001	-0.000000	0.000000	0.000000
45.423547	18.316050	14.430154	-0.050958	-0.112753	2.784590	0.000000	0.001609	0.000000	0.000001	-0.000000	0.000000	0.000000
45.720870	18.351191	14.503406	-0.115181	-0.095725	2.785068	0.000000	0.008886	0.000000	0.000001	-0.000000	0.000000	0.000000
46.269930	18.168667	14.889129	0.445642	-0.610937	2.767381	0.000000	-0.073217	0.000000	0.000001	-0.000000	0.000000	0.000000
46.818990	17.384013	15.861049	0.974986	-1.169664	2.704905	0.000000	-0.154021	0.000000	0.000001	-0.000000	0.000000	0.000000
47.368050	16.052650	17.488393	1.435463	-1.811705	2.598749	0.000000	-0.232093	0.000000	0.000001	-0.000000	0.000000	0.000000
47.917110	14.268621	19.887075	1.794546	-2.582788	2.450796	0.000000	-0.306048	0.000000	0.000001	-0.000000	0.000000	0.000000
48.363070	12.880119	22.019845	1.329995	-2.179530	2.329600	0.000000	-0.237762	0.000000	0.000001	-0.000000	0.000000	0.000000
48.804030	11.887330	23.727524	0.929974	-1.678373	2.239213	0.000000	-0.172582	0.000000	0.000001	-0.000000	0.000000	0.000000
49.244990	11.227329	24.957733	0.572441	-1.100852	2.177108	0.000000	-0.109366	0.000000	0.000000	-0.000000	0.000000	0.000000
49.685950	10.869963	25.654497	0.241061	-0.473243	2.142578	0.000000	-0.047397	0.000000	0.000000	-0.000000	0.000000	0.000000
50.128160	10.799038	25.785833	-0.052940	0.112615	2.135240	0.000000	0.008797	0.000000	0.000000	-0.000000	0.000000	0.000000
50.425482	10.838727	25.722339	-0.080550	0.100938	2.137856	0.000000	0.008797	0.000000	0.000000	-0.000000	0.000000	0.000000
50.758816	10.902745	25.659410	-0.111503	0.087847	2.140788	0.000000	0.008797	0.000000	0.000000	-0.000000	0.000000	0.000000
51.092149	10.987398	25.605209	-0.142457	0.074756	2.143720	0.000000	0.008797	0.000000	0.000000	-0.000000	0.000000	0.000000
51.426732	11.092896	25.560100	-0.083533	-0.145740	2.146642	0.000000	-0.008618	0.000000	0.000000	-0.000000	0.000000	0.000000
51.724055	11.150593	25.650295	-0.083179	-0.220521	2.144080	0.000000	-0.013876	0.000000	0.000000	-0.000000	0.000000	0.000000
52.165015	11.369493	25.559451	-0.415120	0.425751	2.151549	0.000000	0.047784	0.000000	0.000000	-0.000000	0.000000	0.000000
52.605975	11.888363	24.905044	-0.766028	1.052652	2.186301	0.000000	0.109987	0.000000	0.000000	-0.000000	0.000000	0.000000
53.046935	12.730911	23.716850	-1.151933	1.631658	2.248732	0.000000	0.173444	0.000000	0.000000	-0.000000	0.000000	0.000000
53.487895	13.935629	22.048930	-1.590466	2.136424	2.339554	0.000000	0.238876	0.000000	0.000000	-0.000000	0.000000	0.000000
53.933855	15.578200	19.952231	-2.105904	2.545319	2.461306	0.000000	0.307427	0.000000	0.000000	-0.000000	0.000000	0.000000
54.482915	17.692887	17.593041	-1.722763	1.776825	2.609921	0.000000	0.233120	0.000000	0.000000	-0.000000	0.000000	0.000000
55.031975	19.317121	16.003716	-1.217935	1.134890	2.716540	0.000000	0.154679	0.000000	0.000000	-0.000000	0.000000	0.000000
55.581035	20.336176	15.071053	-0.627077	0.573791	2.779273	0.000000	0.073494	0.000000	0.000000	-0.000000	0.000000	0.000000
56.130095	20.678070	14.728620	0.008074	0.053562	2.797006	0.000000	-0.008995	0.000000	0.000000	-0.000000	0.000000	0.000000
56.428668	20.709831	14.679759	-0.060424	0.071602	2.796502	0.000000	-0.001687	0.000000	0.000000	-0.000000	0.000000	0.000000
56.762001	20.755498	14.639632	-0.076578	0.048779	2.795940	0.000000	-0.001687	0.000000	0.000000	-0.000000	0.000000	0.000000
57.095334	20.811935	14.614721	-0.092732	0.025955	2.795378	0.000000	-0.001687	0.000000	0.000000	-0.000000	0.000000	0.000000
57.429918	20.879413	14.605018	-0.108947	0.003046	2.794814	0.000000	-0.001687	0.000000	0.000000	-0.000000	0.000000	0.000000
57.727240	20.948482	14.609259	-0.178090	0.020860	2.794312	0.000000	0.005614	0.000000	0.000000	-0.000000	0.000000	0.000000
58.276300	20.786573	14.866994	0.471230	-0.493042	2.774752	0.000000	-0.076757	0.000000	0.000000	-0.000000	0.000000	0.000000
58.825360	19.925770	15.704912	1.087264	-1.042061	2.710273	0.000000	-0.157768	0.000000	0.000000	-0.000000	0.000000	0.000000
59.374420	18.426878	17.182695	1.626500	-1.665304	2.602018	0.000000	-0.235980	0.000000	0.000000	-0.000000	0.000000	0.000000
59.923480	16.395770	19.405602	2.050848	-2.407163	2.451908	0.000000	-0.310006	0.000000	0.000000	-0.000000	0.000000	0.000000
60.369440	14.805899	21.381443	1.526829	-2.004669	2.328950	0.000000	-0.241714	0.000000	-0.000000	-0.000000	0.000000	0.000000
60.810400	13.662150	22.938224	1.076782	-1.512334	2.236814	0.000000	-0.176573	0.000000	-0.000000	-0.000000	0.000000	0.000000
61.251360	12.892194	24.028688	0.675931	-0.951188	2.172932	0.000000	-0.113442	0.000000	-0.000000	-0.000000	0.000000	0.000000
61.692320	12.460856	24.603219	0.305960	-0.346763	2.136578	0.000000	-0.051604	0.000000	-0.000000	-0.000000	0.000000	0.000000
62.134530	12.348478	24.635143	-0.019851	0.212971	2.127341	0.000000	0.004430	0.000000	-0.000000	-0.000000	0.000000	0.000000
62.431853	12.367444	24.512252	-0.043938	0.200355	2.128659	0.000000	0.004430	0.000000	-0.000000	-0.000000	0.000000	0.000000
62.765186	12.405737	24.383397	-0.070943	0.186210	2.130135	0.000000	0.004430	0.000000	-0.000000	-0.000000	0.000000	0.000000
63.098520	12.462034	24.263972	-0.097947	0.172066	2.131612	0.000000	0.004430	0.000000	-0.000000	-0.000000	0.000000	0.000000
63.433103	12.536646	24.153581	-0.125053	0.157868	2.133094	0.000000	0.004430	0.000000	-0.000000	-0.000000	0.000000	0.000000
63.730426	12.618170	24.063457	-0.118197	0.086241	2.134412	0.000000	-0.000804	0.000000	-0.000000	-0.000000	0.000000	0.000000
64.171386	12.883008	23.722370	-0.484677	0.684326	2.147601	0.000000	0.060680	0.000000	-0.000000	-0.000000	0.000000	0.000000
64.612346	13.479560	22.865587	-0.873302	1.251275	2.188028	0.000000	0.122855	0.000000	-0.000000	-0.000000	0.000000	0.000000
65.053306	14.435079	21.532091	-1.301825	1.761292	2.256154	0.000000	0.186429	0.000000	-0.000000	-0.000000	0.000000	0.000000
65.494266	15.793220	19.782556	-1.789825	2.191171	2.352755	0.000000	0.252127	0.000000	-0.000000	-0.000000	0.000000	0.000000
65.940226	17.639207	17.671814	-2.364292	2.522112	2.480504	0.000000	0.321098	0.000000	-0.000000	-0.000000	0.000000	0.000000
66.489286	20.005295	15.310451	-1.919543	1.804012	2.636433	0.000000	0.246051	0.000000	-0.000000	-0.000000	0.000000	0.000000
67.038346	21.805200	13.662883	-1.339208	1.214407	2.749897	0.000000	0.166640	0.000000	-0.000000	-0.000000	0.000000	0.000000
67.587406	22.911783	12.611759	-0.664277	0.711301	2.818881	0.000000	0.084273	0.000000	-0.000001	-0.000000	0.000000	0.000000
68.136466	23.246883	12.082208	0.057574	0.258860	2.842164	0.000000	0.000411	0.000000	-0.000001	-0.000000	0.000000	0.000000
68.435038	23.252608	11.916780	-0.016009	0.263633	2.844504	0.000000	0.007837	0.000000	-0.000001	-0.000000	0.000000	0.000000
68.768372	23.268061	11.750997	-0.030348	0.233717	2.847116	0.000000	0.007837	0.000000	-0.000001	-0.000000	0.000000	0.000000
69.101705	23.293073	11.605158	-0.044687	0.203801	2.849728	0.000000	0.007837	0.000000	-0.000001	-0.000000	0.000000	0.000000
69.436288	23.327792	11.478828	-0.059080	0.173773	2.852350	0.000000	0.007837	0.000000	-0.000001	-0.000000	0.000000	0.000000
69.733611	23.366726	11.383429	-0.132923	0.176832	2.854680	0.000000	0.015296	0.000000	-0.000001	-0.000000	0.000000	0.000000
70.282671	23.111393	11.417124	0.595208	-0.238564	2.839885	0.000000	-0.069109	0.000000	-0.000001	-0.000000	0.000000	0.000000
