#ParticleID	Turn	x[m]	xp	y[m]	yp	z[m]	dE[GeV]# s	beta_x	beta_y	alpha_x	alpha_y	D_x	D_y	D_px	D_py	orbit_x	orbit_px	orbit_y	orbit_py
0.300000	11.803869	25.056934	-0.010135	-0.026790	2.618322	0.000000	-0.000068	0.000000	-0.000001	0.000002	0.000000	0.000000
0.601250	11.817664	25.076700	-0.035659	-0.038821	2.618300	0.000000	-0.000068	0.000000	-0.000001	0.000002	0.000000	0.000000
0.898573	11.846359	25.103315	-0.031800	-0.112256	2.618280	0.000000	-0.006489	0.000000	-0.000000	0.000002	0.000000	0.000000
1.339533	12.026416	24.923832	-0.378080	0.517735	2.631712	0.000000	0.067472	0.000000	0.000000	0.000002	0.000000	0.000000
1.780493	12.518299	24.197052	-0.741633	1.124170	2.677896	0.000000	0.142201	0.000000	0.000001	0.000002	0.000000	0.000000
2.221453	13.344480	22.956042	-1.139070	1.679456	2.757358	0.000000	0.218551	0.000000	0.000002	0.000002	0.000000	0.000000
2.662413	14.542705	21.257268	-1.588547	2.158328	2.871003	0.000000	0.297389	0.000000	0.000003	0.000002	0.000000	0.000000
3.108373	16.188435	19.153113	-2.114886	2.540132	3.021987	0.000000	0.380104	0.000000	0.000004	0.000002	0.000000	0.000000
3.657433	18.298852	16.789781	-1.706053	1.789599	3.205414	0.000000	0.287067	0.000000	0.000005	0.000002	0.000000	0.000000
4.206493	19.891089	15.176209	-1.176712	1.166537	3.336284	0.000000	0.188938	0.000000	0.000006	0.000002	0.000000	0.000000
4.755553	20.852677	14.197467	-0.564254	0.626564	3.412273	0.000000	0.087457	0.000000	0.000006	0.000001	0.000000	0.000000
5.304613	21.115694	13.783840	0.088059	0.131219	3.432036	0.000000	-0.015574	0.000000	0.000007	0.000001	0.000000	0.000000
5.603185	21.100280	13.690626	0.018736	0.144965	3.430063	0.000000	-0.006607	0.000000	0.000008	0.000001	0.000000	0.000000
5.936519	21.093057	13.602270	0.002933	0.120106	3.427860	0.000000	-0.006607	0.000000	0.000008	0.000001	0.000000	0.000000
6.269852	21.096369	13.530486	-0.012870	0.095246	3.425657	0.000000	-0.006607	0.000000	0.000008	0.000001	0.000000	0.000000
6.604435	21.110289	13.475099	-0.028733	0.070294	3.423446	0.000000	-0.006607	0.000000	0.000009	0.000001	0.000000	0.000000
6.901758	21.131566	13.439891	-0.098037	0.083234	3.421481	0.000000	0.002332	0.000000	0.000009	0.000001	0.000000	0.000000
7.450818	20.879112	13.609452	0.555108	-0.393876	3.394561	0.000000	-0.100242	0.000000	0.000010	0.000001	0.000000	0.000000
7.999878	19.926812	14.315175	1.169044	-0.899041	3.311729	0.000000	-0.201038	0.000000	0.000010	0.000001	0.000000	0.000000
8.548938	18.341932	15.607329	1.700403	-1.468243	3.174452	0.000000	-0.298267	0.000000	0.000010	0.000000	0.000000	0.000000
9.097998	16.236418	17.577950	2.111655	-2.142024	2.985167	0.000000	-0.390206	0.000000	0.000010	-0.000000	0.000000	0.000000
9.543958	14.593781	19.333842	1.584813	-1.778664	2.829455	0.000000	-0.308508	0.000000	0.000010	0.000000	0.000000	0.000000
9.984918	13.399135	20.712359	1.134659	-1.335612	2.710660	0.000000	-0.230807	0.000000	0.000011	0.000000	0.000000	0.000000
10.425878	12.577215	21.671749	0.736346	-0.831791	2.625516	0.000000	-0.155735	0.000000	0.000011	0.000001	0.000000	0.000000
10.866838	12.090469	22.168358	0.371673	-0.290124	2.573054	0.000000	-0.082437	0.000000	0.000011	0.000001	0.000000	0.000000
11.309048	11.916528	22.179067	0.053096	0.210299	2.552655	0.000000	-0.016336	0.000000	0.000012	0.000001	0.000000	0.000000
11.606371	11.892394	22.058176	0.028075	0.196300	2.547797	0.000000	-0.016336	0.000000	0.000012	0.000001	0.000000	0.000000
12.086371	11.884831	21.880575	-0.012318	0.173701	2.539955	0.000000	-0.016336	0.000000	0.000013	0.000001	0.000000	0.000000
12.566371	11.916045	21.724670	-0.052712	0.151102	2.532113	0.000000	-0.016336	0.000000	0.000014	0.000001	0.000000	0.000000
13.046371	11.986038	21.590460	-0.093106	0.128503	2.524271	0.000000	-0.016336	0.000000	0.000014	0.000001	0.000000	0.000000
13.526371	12.094809	21.477944	-0.133500	0.105904	2.516428	0.000000	-0.016336	0.000000	0.000015	0.000001	0.000000	0.000000
14.007621	12.242792	21.386916	-0.173999	0.083246	2.508566	0.000000	-0.016336	0.000000	0.000015	0.000001	0.000000	0.000000
14.304943	12.353699	21.341576	-0.168729	0.016920	2.503708	0.000000	-0.022475	0.000000	0.000016	0.000001	0.000000	0.000000
14.745903	12.660986	21.093091	-0.530774	0.544447	2.509425	0.000000	0.048433	0.000000	0.000016	0.000002	0.000000	0.000000
15.186863	13.297014	20.388556	-0.917068	1.047202	2.546501	0.000000	0.119892	0.000000	0.000017	0.000002	0.000000	0.000000
15.627823	14.290841	19.260029	-1.345261	1.502310	2.615359	0.000000	0.192718	0.000000	0.000018	0.000003	0.000000	0.000000
16.068783	15.687873	17.758855	-1.834915	1.889064	2.716783	0.000000	0.267738	0.000000	0.000020	0.000003	0.000000	0.000000
16.514743	17.575598	15.931840	-2.413160	2.190610	2.853621	0.000000	0.346269	0.000000	0.000021	0.000004	0.000000	0.000000
17.063803	20.000227	13.891889	-1.976659	1.546671	3.020019	0.000000	0.258963	0.000000	0.000023	0.000003	0.000000	0.000000
17.612863	21.865554	12.494779	-1.400537	1.012898	3.137147	0.000000	0.167064	0.000000	0.000024	0.000002	0.000000	0.000000
18.161923	23.039822	11.640996	-0.725489	0.551271	3.202928	0.000000	0.072201	0.000000	0.000025	0.000001	0.000000	0.000000
18.710983	23.440086	11.269727	0.000805	0.128911	3.216196	0.000000	-0.023942	0.000000	0.000026	0.000001	0.000000	0.000000
19.009556	23.479987	11.183277	-0.073210	0.131192	3.211556	0.000000	-0.015541	0.000000	0.000026	0.000001	0.000000	0.000000
19.342889	23.533551	11.105922	-0.087483	0.100873	3.206375	0.000000	-0.015541	0.000000	0.000026	0.000001	0.000000	0.000000
19.676223	23.596630	11.048780	-0.101755	0.070553	3.201195	0.000000	-0.015541	0.000000	0.000026	0.000001	0.000000	0.000000
20.010806	23.669808	11.011614	-0.233355	0.094679	3.196015	0.000000	0.000294	0.000000	0.000027	0.000001	0.000000	0.000000
20.308129	23.812510	10.963414	-0.308804	0.096075	3.196102	0.000000	0.008643	0.000000	0.000027	0.000001	0.000000	0.000000
20.857189	23.740895	11.079804	0.438464	-0.309306	3.174637	0.000000	-0.086716	0.000000	0.000027	-0.000000	0.000000	0.000000
21.406249	22.860909	11.650764	1.154761	-0.736718	3.101160	0.000000	-0.180538	0.000000	0.000027	-0.000001	0.000000	0.000000
21.955309	21.234711	12.716962	1.789491	-1.216605	2.976974	0.000000	-0.271157	0.000000	0.000026	-0.000002	0.000000	0.000000
22.504369	18.977166	14.354343	2.297820	-1.783148	2.804282	0.000000	-0.356966	0.000000	0.000025	-0.000003	0.000000	0.000000
22.950329	17.197913	15.824522	1.705976	-1.499605	2.662379	0.000000	-0.279780	0.000000	0.000024	-0.000002	0.000000	0.000000
23.391289	15.922755	16.996772	1.196769	-1.148683	2.555325	0.000000	-0.206235	0.000000	0.000023	-0.000001	0.000000	0.000000
23.832249	15.070960	17.835221	0.742240	-0.745497	2.480153	0.000000	-0.135039	0.000000	0.000022	-0.000001	0.000000	0.000000
24.273209	14.603612	18.301719	0.321622	-0.308391	2.436006	0.000000	-0.065381	0.000000	0.000022	-0.000000	0.000000	0.000000
24.715418	14.499481	18.374797	-0.048840	0.097626	2.422380	0.000000	-0.002407	0.000000	0.000022	0.000000	0.000000	0.000000
25.012741	14.534635	18.321601	-0.069394	0.081291	2.421664	0.000000	-0.002407	0.000000	0.000022	0.000000	0.000000	0.000000
25.346075	14.588579	18.273512	-0.092438	0.062977	2.420862	0.000000	-0.002407	0.000000	0.000022	0.000000	0.000000	0.000000
25.679408	14.657886	18.237631	-0.115482	0.044663	2.420060	0.000000	-0.002407	0.000000	0.000022	0.000000	0.000000	0.000000
26.013991	14.742603	18.214264	-0.019011	-0.121482	2.419230	0.000000	-0.022033	0.000000	0.000023	0.000000	0.000000	0.000000
26.311314	14.759907	18.291428	-0.002998	-0.182893	2.412679	0.000000	-0.027948	0.000000	0.000023	0.000000	0.000000	0.000000
26.752274	14.944380	18.254382	-0.416933	0.266585	2.415460	0.000000	0.040575	0.000000	0.000023	0.000001	0.000000	0.000000
27.193234	15.500898	17.824787	-0.849916	0.703934	2.448530	0.000000	0.109561	0.000000	0.000023	0.000001	0.000000	0.000000
27.634194	16.454888	17.022189	-1.321729	1.109254	2.512266	0.000000	0.179794	0.000000	0.000024	0.000002	0.000000	0.000000
28.075154	17.849935	15.883106	-1.853928	1.464104	2.607393	0.000000	0.252075	0.000000	0.000025	0.000002	0.000000	0.000000
28.521114	19.774007	14.442203	-2.475802	1.753250	2.736598	0.000000	0.327671	0.000000	0.000026	0.000003	0.000000	0.000000
29.070174	22.219497	12.836850	-1.951787	1.187827	2.893853	0.000000	0.244305	0.000000	0.000027	0.000002	0.000000	0.000000
29.619234	24.009982	11.802575	-1.289908	0.707011	3.004076	0.000000	0.156605	0.000000	0.000028	0.000001	0.000000	0.000000
30.168294	25.018992	11.265708	-0.536916	0.276553	3.065312	0.000000	0.066128	0.000000	0.000029	0.000000	0.000000	0.000000
30.717354	25.175255	11.188009	0.254001	-0.134206	3.076476	0.000000	-0.025523	0.000000	0.000029	-0.000001	0.000000	0.000000
31.015927	25.066516	11.258754	0.175958	-0.131962	3.071255	0.000000	-0.017486	0.000000	0.000029	-0.000000	0.000000	0.000000
31.349260	24.953780	11.356769	0.162248	-0.162084	3.065426	0.000000	-0.017486	0.000000	0.000029	-0.000000	0.000000	0.000000
31.682593	24.850184	11.474866	0.148539	-0.192206	3.059598	0.000000	-0.017486	0.000000	0.000028	-0.000000	0.000000	0.000000
32.017177	24.755392	11.613600	0.134778	-0.222441	3.053747	0.000000	-0.017486	0.000000	0.000028	-0.000000	0.000000	0.000000
32.314499	24.678882	11.753862	0.058083	-0.218606	3.048548	0.000000	-0.009523	0.000000	0.000028	-0.000000	0.000000	0.000000
32.863559	24.192239	12.233091	0.822991	-0.659364	3.018448	0.000000	-0.099962	0.000000	0.000028	-0.000001	0.000000	0.000000
33.412619	22.892740	13.219122	1.529767	-1.147087	2.939105	0.000000	-0.188627	0.000000	0.000027	-0.000002	0.000000	0.000000
33.961679	20.872176	14.782185	2.128488	-1.716515	2.811929	0.000000	-0.273947	0.000000	0.000025	-0.000003	0.000000	0.000000
34.510739	18.273270	17.033615	2.576862	-2.408206	2.639174	0.000000	-0.354408	0.000000	0.000023	-0.000004	0.000000	0.000000
34.956699	16.252461	19.047472	1.970740	-2.088717	2.497460	0.000000	-0.281502	0.000000	0.000022	-0.000003	0.000000	0.000000
35.397659	14.745502	20.713432	1.459674	-1.674937	2.388707	0.000000	-0.212231	0.000000	0.000021	-0.000003	0.000000	0.000000
35.838619	13.658262	21.979344	1.015297	-1.184948	2.309938	0.000000	-0.145376	0.000000	0.000019	-0.000002	0.000000	0.000000
36.279579	12.941070	22.787610	0.617306	-0.641044	2.260255	0.000000	-0.080178	0.000000	0.000019	-0.000002	0.000000	0.000000
36.721789	12.560462	23.101764	0.278210	-0.124671	2.239068	0.000000	-0.021382	0.000000	0.000018	-0.000001	0.000000	0.000000
37.019112	12.402609	23.179785	0.252706	-0.137741	2.232711	0.000000	-0.021382	0.000000	0.000018	-0.000001	0.000000	0.000000
37.352445	12.243669	23.276497	0.224114	-0.152394	2.225584	0.000000	-0.021382	0.000000	0.000017	-0.000001	0.000000	0.000000
37.685779	12.103790	23.382977	0.195521	-0.167047	2.218457	0.000000	-0.021382	0.000000	0.000017	-0.000001	0.000000	0.000000
38.020362	11.982556	23.499681	0.166822	-0.181755	2.211303	0.000000	-0.021382	0.000000	0.000016	-0.000001	0.000000	0.000000
38.317684	11.890939	23.611647	0.170474	-0.252720	2.204946	0.000000	-0.026789	0.000000	0.000016	-0.000001	0.000000	0.000000
38.758644	11.892159	23.572982	-0.173252	0.340070	2.207057	0.000000	0.036371	0.000000	0.000016	-0.000001	0.000000	0.000000
39.199604	12.198850	23.016376	-0.524893	0.917387	2.237084	0.000000	0.099945	0.000000	0.000015	-0.000000	0.000000	0.000000
39.640564	12.825023	21.967154	-0.900516	1.452963	2.295368	0.000000	0.164657	0.000000	0.000015	-0.000000	0.000000	0.000000
40.081524	13.799286	20.473054	-1.317280	1.922431	2.382573	0.000000	0.231244	0.000000	0.000015	0.000000	0.000000	0.000000
40.527484	15.183729	18.579478	-1.798055	2.305716	2.501165	0.000000	0.300871	0.000000	0.000015	0.000001	0.000000	0.000000
41.076544	16.950314	16.451496	-1.400370	1.592842	2.645837	0.000000	0.225337	0.000000	0.000016	0.000000	0.000000	0.000000
41.625604	18.222958	15.039814	-0.903769	0.993423	2.747877	0.000000	0.145806	0.000000	0.000016	-0.000000	0.000000	0.000000
42.174664	18.911767	14.243881	-0.343330	0.464762	2.805475	0.000000	0.063688	0.000000	0.000015	-0.000001	0.000000	0.000000
42.723724	18.968088	14.007004	0.241360	-0.030794	2.817608	0.000000	-0.019559	0.000000	0.000015	-0.000001	0.000000	0.000000
43.022297	18.858425	14.009906	0.175486	-0.015517	2.813967	0.000000	-0.012198	0.000000	0.000014	-0.000001	0.000000	0.000000
43.502297	18.702552	14.041252	0.149249	-0.049787	2.808113	0.000000	-0.012198	0.000000	0.000014	-0.000001	0.000000	0.000000
43.982297	18.571867	14.105496	0.123012	-0.084056	2.802258	0.000000	-0.012198	0.000000	0.000013	-0.000001	0.000000	0.000000
44.462297	18.466368	14.202640	0.096776	-0.118326	2.796404	0.000000	-0.012198	0.000000	0.000013	-0.000001	0.000000	0.000000
44.942297	18.386057	14.332683	0.070539	-0.152596	2.790550	0.000000	-0.012198	0.000000	0.000012	-0.000001	0.000000	0.000000
45.423547	18.331050	14.495912	-0.046588	-0.115133	2.784698	0.000000	0.001599	0.000000	0.000011	-0.000001	0.000000	0.000000
45.720870	18.363586	14.570555	-0.110819	-0.097849	2.785174	0.000000	0.008876	0.000000	0.000011	-0.000001	0.000000	0.000000
46.269930	18.176083	14.959745	0.450295	-0.615165	2.767481	0.000000	-0.073230	0.000000	0.000010	-0.000002	0.000000	0.000000
46.818990	17.386307	15.937594	0.979603	-1.176298	2.704998	0.000000	-0.154037	0.000000	0.000009	-0.000002	0.000000	0.000000
47.368050	16.050045	17.573752	1.439716	-1.821216	2.598834	0.000000	-0.232112	0.000000	0.000008	-0.000002	0.000000	0.000000
47.917110	14.261683	19.984757	1.798135	-2.595855	2.450870	0.000000	-0.306070	0.000000	0.000007	-0.000002	0.000000	0.000000
48.363070	12.870083	22.128261	1.333378	-2.190432	2.329666	0.000000	-0.237782	0.000000	0.000006	-0.000002	0.000000	0.000000
48.804030	11.874342	23.844419	0.933310	-1.686624	2.239272	0.000000	-0.172600	0.000000	0.000005	-0.000002	0.000000	0.000000
49.244990	11.211363	25.080591	0.575882	-1.106075	2.177160	0.000000	-0.109383	0.000000	0.000004	-0.000002	0.000000	0.000000
49.685950	10.850859	25.780534	0.244764	-0.475201	2.142624	0.000000	-0.047412	0.000000	0.000003	-0.000002	0.000000	0.000000
50.128160	10.776479	25.912117	-0.048861	0.113703	2.135280	0.000000	0.008783	0.000000	0.000003	-0.000002	0.000000	0.000000
50.425482	10.813757	25.847959	-0.076517	0.102080	2.137892	0.000000	0.008783	0.000000	0.000002	-0.000002	0.000000	0.000000
50.758816	10.875104	25.784249	-0.107522	0.089050	2.140820	0.000000	0.008783	0.000000	0.000002	-0.000002	0.000000	0.000000
51.092149	10.957120	25.729226	-0.138528	0.076020	2.143748	0.000000	0.008783	0.000000	0.000001	-0.000002	0.000000	0.000000
51.426732	11.060007	25.683253	-0.079924	-0.145414	2.146665	0.000000	-0.008632	0.000000	0.000000	-0.000002	0.000000	0.000000
51.724055	11.115577	25.773238	-0.079719	-0.220440	2.144099	0.000000	-0.013890	0.000000	-0.000000	-0.000002	0.000000	0.000000
52.165015	11.331048	25.680887	-0.410775	0.429075	2.151562	0.000000	0.047769	0.000000	-0.000001	-0.000002	0.000000	0.000000
52.605975	11.845625	25.022168	-0.760598	1.059068	2.186309	0.000000	0.109973	0.000000	-0.000002	-0.000002	0.000000	0.000000
53.046935	12.682816	23.827054	-1.145171	1.640874	2.248735	0.000000	0.173430	0.000000	-0.000003	-0.000002	0.000000	0.000000
53.487895	13.880872	22.149920	-1.582063	2.148022	2.339552	0.000000	0.238862	0.000000	-0.000003	-0.000002	0.000000	0.000000
53.933855	15.515069	20.042003	-2.095460	2.558775	2.461298	0.000000	0.307413	0.000000	-0.000004	-0.000002	0.000000	0.000000
54.482915	17.619113	17.669990	-1.713941	1.786860	2.609907	0.000000	0.233107	0.000000	-0.000005	-0.000002	0.000000	0.000000
55.031975	19.234842	16.071186	-1.211359	1.142220	2.716520	0.000000	0.154666	0.000000	-0.000006	-0.000002	0.000000	0.000000
55.581035	20.248129	15.131713	-0.623212	0.578938	2.779246	0.000000	0.073482	0.000000	-0.000007	-0.000001	0.000000	0.000000
56.130095	20.587401	14.784653	0.008955	0.056892	2.796974	0.000000	-0.009006	0.000000	-0.000008	-0.000001	0.000000	0.000000
56.428668	20.618516	14.733696	-0.059371	0.075145	2.796467	0.000000	-0.001697	0.000000	-0.000008	-0.000001	0.000000	0.000000
56.762001	20.663505	14.691183	-0.075595	0.052394	2.795902	0.000000	-0.001697	0.000000	-0.000009	-0.000001	0.000000	0.000000
57.095334	20.719309	14.663838	-0.091819	0.029642	2.795337	0.000000	-0.001697	0.000000	-0.000009	-0.000001	0.000000	0.000000
57.429918	20.786200	14.651643	-0.108103	0.006805	2.794769	0.000000	-0.001697	0.000000	-0.000010	-0.000001	0.000000	0.000000
57.727240	20.854786	14.653630	-0.177069	0.024801	2.794265	0.000000	0.005604	0.000000	-0.000010	-0.000001	0.000000	0.000000
58.276300	20.693483	14.907716	0.469109	-0.490298	2.774700	0.000000	-0.076766	0.000000	-0.000011	-0.000001	0.000000	0.000000
58.825360	19.836676	15.743187	1.082151	-1.040321	2.710217	0.000000	-0.157775	0.000000	-0.000011	-0.000001	0.000000	0.000000
59.374420	18.344886	17.219550	1.618755	-1.664444	2.601959	0.000000	-0.235985	0.000000	-0.000011	-0.000000	0.000000	0.000000
59.923480	16.323485	19.441964	2.041019	-2.407121	2.451847	0.000000	-0.310009	0.000000	-0.000011	0.000000	0.000000	0.000000
60.369440	14.741400	21.417215	1.519138	-2.003394	2.328887	0.000000	-0.241719	0.000000	-0.000011	-0.000000	0.000000	0.000000
60.810400	13.603630	22.972351	1.070862	-1.509892	2.236749	0.000000	-0.176579	0.000000	-0.000011	-0.000000	0.000000	0.000000
61.251360	12.838218	24.060186	0.671509	-0.947691	2.172864	0.000000	-0.113450	0.000000	-0.000012	-0.000001	0.000000	0.000000
61.692320	12.410194	24.631224	0.302837	-0.342370	2.136506	0.000000	-0.051614	0.000000	-0.000012	-0.000001	0.000000	0.000000
62.134530	12.300058	24.658939	-0.021935	0.217995	2.127265	0.000000	0.004418	0.000000	-0.000013	-0.000001	0.000000	0.000000
62.431853	12.320292	24.533065	-0.046119	0.205365	2.128579	0.000000	0.004418	0.000000	-0.000013	-0.000001	0.000000	0.000000
62.765186	12.360076	24.400875	-0.073232	0.191205	2.130053	0.000000	0.004418	0.000000	-0.000013	-0.000001	0.000000	0.000000
63.098520	12.417935	24.278125	-0.100346	0.177044	2.131526	0.000000	0.004418	0.000000	-0.000014	-0.000001	0.000000	0.000000
63.433103	12.494189	24.164408	-0.127560	0.162831	2.133004	0.000000	0.004418	0.000000	-0.000014	-0.000001	0.000000	0.000000
63.730426	12.577233	24.071337	-0.120897	0.091162	2.134318	0.000000	-0.000817	0.000000	-0.000015	-0.000001	0.000000	0.000000
64.171386	12.844064	23.725857	-0.486514	0.689328	2.147502	0.000000	0.060665	0.000000	-0.000015	-0.000002	0.000000	0.000000
64.612346	13.441886	22.864712	-0.874359	1.256129	2.187922	0.000000	0.122837	0.000000	-0.000016	-0.000002	0.000000	0.000000
65.053306	14.398012	21.527082	-1.302150	1.765778	2.256041	0.000000	0.186409	0.000000	-0.000017	-0.000003	0.000000	0.000000
65.494266	15.756123	19.773828	-1.789433	2.195086	2.352633	0.000000	0.252103	0.000000	-0.000019	-0.000003	0.000000	0.000000
65.940226	17.601431	17.659921	-2.363161	2.525269	2.480372	0.000000	0.321071	0.000000	-0.000020	-0.000003	0.000000	0.000000
66.489286	19.967108	15.295198	-1.919931	1.807012	2.636289	0.000000	0.246029	0.000000	-0.000022	-0.000003	0.000000	0.000000
67.038346	21.768262	13.644325	-1.341086	1.217464	2.749743	0.000000	0.166622	0.000000	-0.000023	-0.000002	0.000000	0.000000
67.587406	22.877671	12.589713	-0.667514	0.714633	2.818720	0.000000	0.084260	0.000000	-0.000024	-0.000001	0.000000	0.000000
68.136466	23.216971	12.056245	0.053207	0.262704	2.841997	0.000000	0.000404	0.000000	-0.000025	-0.000001	0.000000	0.000000
68.435038	23.225269	11.888592	-0.020328	0.267303	2.844336	0.000000	0.007831	0.000000	-0.000025	-0.000001	0.000000	0.000000
68.768372	23.243607	11.720404	-0.034686	0.237262	2.846946	0.000000	0.007831	0.000000	-0.000025	-0.000001	0.000000	0.000000
69.101705	23.271517	11.572244	-0.049044	0.207220	2.849556	0.000000	0.007831	0.000000	-0.000025	-0.000001	0.000000	0.000000
69.436288	23.309158	11.443668	-0.063456	0.177066	2.852177	0.000000	0.007831	0.000000	-0.000025	-0.000001	0.000000	0.000000
69.733611	23.350699	11.346343	-0.137287	0.179922	2.854505	0.000000	0.015291	0.000000	-0.000025	-0.000001	0.000000	0.000000
70.282671	23.100408	11.376064	0.590442	-0.234372	2.839709	0.000000	-0.069109	0.000000	-0.000026	0.000000	0.000000	0.000000
