#ParticleID	Turn	x[m]	xp	y[m]	yp	z[m]	dE[GeV]# s	beta_x	beta_y	alpha_x	alpha_y	D_x	D_y	D_px	D_py	orbit_x	orbit_px	orbit_y	orbit_py
0.300000	11.802208	25.062889	-0.010013	-0.026702	2.618390	0.000000	-0.000094	0.000000	-0.000002	0.000002	0.000000	0.000000
0.601250	11.815931	25.082601	-0.035541	-0.038730	2.618361	0.000000	-0.000094	0.000000	-0.000001	0.000002	0.000000	0.000000
0.898573	11.844556	25.109161	-0.031689	-0.112176	2.618332	0.000000	-0.006515	0.000000	-0.000001	0.000002	0.000000	0.000000
1.339533	12.024497	24.929540	-0.377925	0.517968	2.631753	0.000000	0.067447	0.000000	0.000000	0.000002	0.000000	0.000000
1.780493	12.516221	24.202490	-0.741427	1.124545	2.677926	0.000000	0.142177	0.000000	0.000001	0.000002	0.000000	0.000000
2.221453	13.342194	22.961094	-1.138803	1.679956	2.757378	0.000000	0.218527	0.000000	0.000002	0.000002	0.000000	0.000000
2.662413	14.540153	21.261832	-1.588208	2.158930	2.871013	0.000000	0.297366	0.000000	0.000003	0.000002	0.000000	0.000000
3.108373	16.185542	19.157103	-2.114458	2.540809	3.021987	0.000000	0.380081	0.000000	0.000003	0.000002	0.000000	0.000000
3.657433	18.295532	16.793120	-1.705704	1.790116	3.205402	0.000000	0.287044	0.000000	0.000005	0.000002	0.000000	0.000000
4.206493	19.887442	15.179051	-1.176468	1.166929	3.336259	0.000000	0.188916	0.000000	0.000006	0.000002	0.000000	0.000000
4.755553	20.848827	14.199933	-0.564132	0.626860	3.412237	0.000000	0.087436	0.000000	0.000006	0.000002	0.000000	0.000000
5.304613	21.111781	13.786023	0.088051	0.131441	3.431988	0.000000	-0.015594	0.000000	0.000007	0.000001	0.000000	0.000000
5.603185	21.096366	13.692673	0.018736	0.145194	3.430009	0.000000	-0.006627	0.000000	0.000008	0.000001	0.000000	0.000000
5.936519	21.089144	13.604163	0.002930	0.120337	3.427799	0.000000	-0.006627	0.000000	0.000008	0.000001	0.000000	0.000000
6.269852	21.092460	13.532224	-0.012876	0.095480	3.425590	0.000000	-0.006627	0.000000	0.000008	0.000001	0.000000	0.000000
6.604435	21.106385	13.476680	-0.028742	0.070529	3.423372	0.000000	-0.006627	0.000000	0.000009	0.000001	0.000000	0.000000
6.901758	21.127668	13.441333	-0.098039	0.083475	3.421401	0.000000	0.002312	0.000000	0.000009	0.000001	0.000000	0.000000
7.450818	20.875287	13.610649	0.554977	-0.393671	3.394471	0.000000	-0.100259	0.000000	0.000010	0.000001	0.000000	0.000000
7.999878	19.923198	14.316160	1.168793	-0.898857	3.311630	0.000000	-0.201052	0.000000	0.000010	0.000001	0.000000	0.000000
8.548938	18.338651	15.608117	1.700050	-1.468066	3.174347	0.000000	-0.298278	0.000000	0.000011	0.000000	0.000000	0.000000
9.097998	16.233571	17.578543	2.111225	-2.141843	2.985056	0.000000	-0.390214	0.000000	0.000011	0.000000	0.000000	0.000000
9.543958	14.591278	19.334257	1.584470	-1.778447	2.829341	0.000000	-0.308518	0.000000	0.000011	0.000000	0.000000	0.000000
9.984918	13.396901	20.712571	1.134389	-1.335370	2.710541	0.000000	-0.230820	0.000000	0.000011	0.000001	0.000000	0.000000
10.425878	12.575192	21.671740	0.736135	-0.831535	2.625390	0.000000	-0.155751	0.000000	0.000011	0.000001	0.000000	0.000000
10.866838	12.088610	22.168122	0.371512	-0.289866	2.572919	0.000000	-0.082456	0.000000	0.000012	0.000001	0.000000	0.000000
11.309048	11.914791	22.178605	0.052974	0.210550	2.552511	0.000000	-0.016359	0.000000	0.000012	0.000001	0.000000	0.000000
11.606371	11.890731	22.057566	0.027949	0.196549	2.547646	0.000000	-0.016359	0.000000	0.000013	0.000001	0.000000	0.000000
12.086371	11.883291	21.879727	-0.012450	0.173948	2.539793	0.000000	-0.016359	0.000000	0.000014	0.000001	0.000000	0.000000
12.566371	11.914635	21.723586	-0.052849	0.151346	2.531940	0.000000	-0.016359	0.000000	0.000014	0.000001	0.000000	0.000000
13.046371	11.984761	21.589144	-0.093248	0.128744	2.524087	0.000000	-0.016359	0.000000	0.000015	0.000001	0.000000	0.000000
13.526371	12.093671	21.476399	-0.133647	0.106142	2.516233	0.000000	-0.016359	0.000000	0.000016	0.000001	0.000000	0.000000
14.007621	12.241799	21.385143	-0.174151	0.083481	2.508360	0.000000	-0.016359	0.000000	0.000016	0.000001	0.000000	0.000000
14.304943	12.352797	21.339664	-0.168888	0.017158	2.503495	0.000000	-0.022498	0.000000	0.000017	0.000001	0.000000	0.000000
14.745903	12.660217	21.090992	-0.530917	0.544629	2.509201	0.000000	0.048405	0.000000	0.000018	0.000002	0.000000	0.000000
15.186863	13.296367	20.386324	-0.917203	1.047319	2.546264	0.000000	0.119858	0.000000	0.000018	0.000002	0.000000	0.000000
15.627823	14.290312	19.257724	-1.345393	1.502357	2.615105	0.000000	0.192677	0.000000	0.000020	0.000003	0.000000	0.000000
16.068783	15.687461	17.756541	-1.835051	1.889039	2.716509	0.000000	0.267690	0.000000	0.000021	0.000003	0.000000	0.000000
16.514743	17.575312	15.929580	-2.413306	2.190513	2.853325	0.000000	0.346215	0.000000	0.000023	0.000004	0.000000	0.000000
17.063803	20.000118	13.889705	-1.976834	1.546630	3.019695	0.000000	0.258919	0.000000	0.000024	0.000003	0.000000	0.000000
17.612863	21.865648	12.492610	-1.400729	1.012911	3.136802	0.000000	0.167030	0.000000	0.000026	0.000002	0.000000	0.000000
18.161923	23.040130	11.638783	-0.725684	0.551339	3.202568	0.000000	0.072179	0.000000	0.000027	0.000001	0.000000	0.000000
18.710983	23.440604	11.267408	0.000621	0.129037	3.215826	0.000000	-0.023953	0.000000	0.000028	0.000001	0.000000	0.000000
19.009556	23.480614	11.180889	-0.073395	0.131306	3.211183	0.000000	-0.015552	0.000000	0.000028	0.000001	0.000000	0.000000
19.342889	23.534302	11.103460	-0.087668	0.100979	3.205998	0.000000	-0.015552	0.000000	0.000028	0.000001	0.000000	0.000000
19.676223	23.597505	11.046250	-0.101940	0.070652	3.200814	0.000000	-0.015552	0.000000	0.000028	0.000001	0.000000	0.000000
20.010806	23.670806	11.009020	-0.233545	0.094757	3.195630	0.000000	0.000281	0.000000	0.000028	0.000001	0.000000	0.000000
20.308129	23.813621	10.960775	-0.308996	0.096139	3.195713	0.000000	0.008629	0.000000	0.000029	0.000001	0.000000	0.000000
20.857189	23.742196	11.077054	0.438312	-0.309166	3.174244	0.000000	-0.086718	0.000000	0.000029	-0.000000	0.000000	0.000000
21.406249	22.862349	11.647815	1.154661	-0.736493	3.100769	0.000000	-0.180527	0.000000	0.000029	-0.000001	0.000000	0.000000
21.955309	21.236229	12.713712	1.789450	-1.216279	2.976593	0.000000	-0.271133	0.000000	0.000028	-0.000002	0.000000	0.000000
22.504369	18.978696	14.350668	2.297840	-1.782697	2.803917	0.000000	-0.356931	0.000000	0.000026	-0.000003	0.000000	0.000000
22.950329	17.199438	15.820483	1.705966	-1.499243	2.662028	0.000000	-0.279754	0.000000	0.000025	-0.000002	0.000000	0.000000
23.391289	15.924302	16.992460	1.196730	-1.148426	2.554983	0.000000	-0.206218	0.000000	0.000025	-0.000001	0.000000	0.000000
23.832249	15.072556	17.830732	0.742169	-0.745356	2.479817	0.000000	-0.135031	0.000000	0.000024	-0.000001	0.000000	0.000000
24.273209	14.605287	18.297159	0.321515	-0.308373	2.435672	0.000000	-0.065381	0.000000	0.000024	-0.000000	0.000000	0.000000
24.715418	14.501268	18.370276	-0.048983	0.097532	2.422044	0.000000	-0.002414	0.000000	0.000024	0.000000	0.000000	0.000000
25.012741	14.536506	18.317138	-0.069535	0.081193	2.421326	0.000000	-0.002414	0.000000	0.000024	0.000000	0.000000	0.000000
25.346075	14.590543	18.269115	-0.092577	0.062875	2.420521	0.000000	-0.002414	0.000000	0.000024	0.000000	0.000000	0.000000
25.679408	14.659941	18.233304	-0.115618	0.044557	2.419716	0.000000	-0.002414	0.000000	0.000024	0.000000	0.000000	0.000000
26.013991	14.744748	18.210010	-0.019127	-0.121558	2.418884	0.000000	-0.022038	0.000000	0.000024	0.000000	0.000000	0.000000
26.311314	14.762120	18.287220	-0.003107	-0.182962	2.412331	0.000000	-0.027952	0.000000	0.000024	0.000000	0.000000	0.000000
26.752274	14.946713	18.250285	-0.417097	0.266403	2.415108	0.000000	0.040562	0.000000	0.000024	0.000001	0.000000	0.000000
27.193234	15.503403	17.820897	-0.850143	0.703647	2.448171	0.000000	0.109539	0.000000	0.000025	0.000001	0.000000	0.000000
27.634194	16.457625	17.018594	-1.322029	1.108876	2.511894	0.000000	0.179763	0.000000	0.000026	0.000002	0.000000	0.000000
28.075154	17.852973	15.879878	-1.854316	1.463652	2.607006	0.000000	0.252034	0.000000	0.000027	0.000003	0.000000	0.000000
28.521114	19.777436	14.439404	-2.476295	1.752744	2.736189	0.000000	0.327619	0.000000	0.000028	0.000003	0.000000	0.000000
29.070174	22.223419	12.834543	-1.952186	1.187432	2.893419	0.000000	0.244266	0.000000	0.000030	0.000002	0.000000	0.000000
29.619234	24.014278	11.800654	-1.290185	0.706699	3.003625	0.000000	0.156581	0.000000	0.000031	0.000001	0.000000	0.000000
30.168294	25.023515	11.264094	-0.537051	0.276302	3.064852	0.000000	0.066119	0.000000	0.000031	0.000000	0.000000	0.000000
30.717354	25.179844	11.186646	0.254017	-0.134414	3.076015	0.000000	-0.025517	0.000000	0.000031	-0.000001	0.000000	0.000000
31.015927	25.071101	11.257519	0.175966	-0.132179	3.070796	0.000000	-0.017482	0.000000	0.000031	-0.000000	0.000000	0.000000
31.349260	24.958359	11.355681	0.162259	-0.162306	3.064969	0.000000	-0.017482	0.000000	0.000031	-0.000000	0.000000	0.000000
31.682593	24.854756	11.473927	0.148552	-0.192433	3.059141	0.000000	-0.017482	0.000000	0.000031	-0.000000	0.000000	0.000000
32.017177	24.759953	11.612814	0.134793	-0.222673	3.053292	0.000000	-0.017482	0.000000	0.000031	-0.000000	0.000000	0.000000
32.314499	24.683434	11.753216	0.058090	-0.218844	3.048095	0.000000	-0.009520	0.000000	0.000030	-0.000000	0.000000	0.000000
32.863559	24.196701	12.232703	0.823147	-0.659598	3.018000	0.000000	-0.099944	0.000000	0.000030	-0.000001	0.000000	0.000000
33.412619	22.896953	13.218995	1.530061	-1.147333	2.938671	0.000000	-0.188595	0.000000	0.000029	-0.000002	0.000000	0.000000
33.961679	20.875998	14.782342	2.128900	-1.716789	2.811517	0.000000	-0.273901	0.000000	0.000027	-0.000003	0.000000	0.000000
34.510739	18.276588	17.034099	2.577363	-2.408529	2.638791	0.000000	-0.354349	0.000000	0.000025	-0.000004	0.000000	0.000000
34.956699	16.255381	19.048252	1.971136	-2.089056	2.497101	0.000000	-0.281453	0.000000	0.000024	-0.000003	0.000000	0.000000
35.397659	14.748111	20.714512	1.459985	-1.675275	2.388367	0.000000	-0.212191	0.000000	0.000022	-0.000003	0.000000	0.000000
35.838619	13.660630	21.980717	1.015536	-1.185270	2.309613	0.000000	-0.145345	0.000000	0.000021	-0.000002	0.000000	0.000000
36.279579	12.943254	22.789255	0.617485	-0.641337	2.259943	0.000000	-0.080155	0.000000	0.000020	-0.000002	0.000000	0.000000
36.721789	12.562512	23.103650	0.278340	-0.124923	2.238764	0.000000	-0.021366	0.000000	0.000020	-0.000001	0.000000	0.000000
37.019112	12.404580	23.181821	0.252839	-0.137993	2.232412	0.000000	-0.021366	0.000000	0.000019	-0.000001	0.000000	0.000000
37.352445	12.245550	23.278701	0.224250	-0.152646	2.225290	0.000000	-0.021366	0.000000	0.000019	-0.000001	0.000000	0.000000
37.685779	12.105580	23.385349	0.195660	-0.167299	2.218169	0.000000	-0.021366	0.000000	0.000018	-0.000001	0.000000	0.000000
38.020362	11.984253	23.502221	0.166963	-0.182007	2.211020	0.000000	-0.021366	0.000000	0.000018	-0.000001	0.000000	0.000000
38.317684	11.892551	23.614336	0.170621	-0.252977	2.204668	0.000000	-0.026772	0.000000	0.000018	-0.000001	0.000000	0.000000
38.758644	11.893657	23.575866	-0.173140	0.339888	2.206785	0.000000	0.036381	0.000000	0.000017	-0.000001	0.000000	0.000000
39.199604	12.200262	23.019384	-0.524811	0.917287	2.236815	0.000000	0.099948	0.000000	0.000017	-0.000000	0.000000	0.000000
39.640564	12.826375	21.970211	-0.900460	1.452951	2.295098	0.000000	0.164653	0.000000	0.000017	-0.000000	0.000000	0.000000
40.081524	13.800599	20.476082	-1.317248	1.922507	2.382300	0.000000	0.231233	0.000000	0.000017	0.000000	0.000000	0.000000
40.527484	15.185023	18.582399	-1.798046	2.305878	2.500885	0.000000	0.300852	0.000000	0.000017	0.000001	0.000000	0.000000
41.076544	16.951567	16.454285	-1.400305	1.592922	2.645550	0.000000	0.225328	0.000000	0.000017	0.000000	0.000000	0.000000
41.625604	18.224112	15.042558	-0.903653	0.993426	2.747588	0.000000	0.145806	0.000000	0.000017	-0.000000	0.000000	0.000000
42.174664	18.912771	14.246663	-0.343172	0.464689	2.805188	0.000000	0.063698	0.000000	0.000017	-0.000001	0.000000	0.000000
42.723724	18.968900	14.009911	0.241549	-0.030948	2.817329	0.000000	-0.019540	0.000000	0.000016	-0.000001	0.000000	0.000000
43.022297	18.859125	14.012899	0.175673	-0.015660	2.813693	0.000000	-0.012180	0.000000	0.000016	-0.000001	0.000000	0.000000
43.502297	18.703072	14.044379	0.149436	-0.049923	2.807847	0.000000	-0.012180	0.000000	0.000015	-0.000001	0.000000	0.000000
43.982297	18.572208	14.108750	0.123198	-0.084185	2.802002	0.000000	-0.012180	0.000000	0.000015	-0.000001	0.000000	0.000000
44.462297	18.466532	14.206014	0.096961	-0.118448	2.796156	0.000000	-0.012180	0.000000	0.000014	-0.000001	0.000000	0.000000
44.942297	18.386043	14.336170	0.070724	-0.152710	2.790310	0.000000	-0.012180	0.000000	0.000013	-0.000001	0.000000	0.000000
45.423547	18.330858	14.499506	-0.046403	-0.115223	2.784467	0.000000	0.001616	0.000000	0.000013	-0.000001	0.000000	0.000000
45.720870	18.363284	14.574200	-0.110633	-0.097925	2.784948	0.000000	0.008892	0.000000	0.000012	-0.000001	0.000000	0.000000
46.269930	18.175584	14.963535	0.450466	-0.615353	2.767266	0.000000	-0.073207	0.000000	0.000012	-0.000002	0.000000	0.000000
46.818990	17.385635	15.941658	0.979746	-1.176612	2.704798	0.000000	-0.154007	0.000000	0.000011	-0.000002	0.000000	0.000000
47.368050	16.049235	17.578239	1.439822	-1.821678	2.598652	0.000000	-0.232076	0.000000	0.000009	-0.000002	0.000000	0.000000
47.917110	14.260781	19.989848	1.798196	-2.596498	2.450709	0.000000	-0.306028	0.000000	0.000008	-0.000003	0.000000	0.000000
48.363070	12.869124	22.133876	1.333448	-2.190960	2.329523	0.000000	-0.237744	0.000000	0.000007	-0.000002	0.000000	0.000000
48.804030	11.873315	23.850439	0.933393	-1.687011	2.239145	0.000000	-0.172565	0.000000	0.000006	-0.000002	0.000000	0.000000
49.244990	11.210256	25.086885	0.575982	-1.106305	2.177048	0.000000	-0.109352	0.000000	0.000005	-0.000002	0.000000	0.000000
49.685950	10.849655	25.786958	0.244885	-0.475263	2.142524	0.000000	-0.047384	0.000000	0.000004	-0.000002	0.000000	0.000000
50.128160	10.775157	25.918520	-0.048717	0.113796	2.135193	0.000000	0.008809	0.000000	0.000003	-0.000002	0.000000	0.000000
50.425482	10.812350	25.854306	-0.076376	0.102176	2.137812	0.000000	0.008809	0.000000	0.000003	-0.000002	0.000000	0.000000
50.758816	10.873603	25.790531	-0.107384	0.089149	2.140749	0.000000	0.008809	0.000000	0.000002	-0.000002	0.000000	0.000000
51.092149	10.955529	25.735442	-0.138393	0.076121	2.143686	0.000000	0.008809	0.000000	0.000001	-0.000002	0.000000	0.000000
51.426732	11.058326	25.689400	-0.079806	-0.145360	2.146612	0.000000	-0.008606	0.000000	0.000001	-0.000002	0.000000	0.000000
51.724055	11.113828	25.779351	-0.079610	-0.220397	2.144054	0.000000	-0.013864	0.000000	0.000000	-0.000002	0.000000	0.000000
52.165015	11.329183	25.686891	-0.410623	0.429279	2.151529	0.000000	0.047795	0.000000	-0.000001	-0.000002	0.000000	0.000000
52.605975	11.843605	25.027926	-0.760397	1.059423	2.186287	0.000000	0.109999	0.000000	-0.000001	-0.000002	0.000000	0.000000
53.046935	12.680594	23.832438	-1.144911	1.641364	2.248724	0.000000	0.173455	0.000000	-0.000002	-0.000002	0.000000	0.000000
53.487895	13.878390	22.154820	-1.581733	2.148625	2.339552	0.000000	0.238886	0.000000	-0.000003	-0.000002	0.000000	0.000000
53.933855	15.512255	20.046324	-2.095043	2.559464	2.461309	0.000000	0.307438	0.000000	-0.000004	-0.000002	0.000000	0.000000
54.482915	17.615882	17.673651	-1.713603	1.787380	2.609931	0.000000	0.233131	0.000000	-0.000005	-0.000002	0.000000	0.000000
55.031975	19.231293	16.074352	-1.211122	1.142608	2.716557	0.000000	0.154689	0.000000	-0.000006	-0.000002	0.000000	0.000000
55.581035	20.244384	15.134513	-0.623094	0.579221	2.779296	0.000000	0.073503	0.000000	-0.000007	-0.000002	0.000000	0.000000
56.130095	20.583595	14.787189	0.008947	0.057091	2.797035	0.000000	-0.008986	0.000000	-0.000008	-0.000001	0.000000	0.000000
56.428668	20.614710	14.736108	-0.059373	0.075354	2.796535	0.000000	-0.001677	0.000000	-0.000008	-0.000001	0.000000	0.000000
56.762001	20.659700	14.693455	-0.075599	0.052605	2.795976	0.000000	-0.001677	0.000000	-0.000009	-0.000001	0.000000	0.000000
57.095334	20.715509	14.665968	-0.091826	0.029856	2.795417	0.000000	-0.001677	0.000000	-0.000009	-0.000001	0.000000	0.000000
57.429918	20.782405	14.653629	-0.108114	0.007023	2.794856	0.000000	-0.001677	0.000000	-0.000010	-0.000001	0.000000	0.000000
57.727240	20.850998	14.655486	-0.177072	0.025027	2.794358	0.000000	0.005624	0.000000	-0.000010	-0.000001	0.000000	0.000000
58.276300	20.689768	14.909353	0.468980	-0.490121	2.774804	0.000000	-0.076749	0.000000	-0.000011	-0.000001	0.000000	0.000000
58.825360	19.833169	15.744649	1.081905	-1.040180	2.710330	0.000000	-0.157761	0.000000	-0.000011	-0.000001	0.000000	0.000000
59.374420	18.341705	17.220872	1.618410	-1.664328	2.602078	0.000000	-0.235975	0.000000	-0.000012	-0.000000	0.000000	0.000000
59.923480	16.320727	19.443169	2.040598	-2.407022	2.451970	0.000000	-0.310003	0.000000	-0.000012	0.000000	0.000000	0.000000
60.369440	14.738977	21.418310	1.518804	-2.003246	2.329014	0.000000	-0.241710	0.000000	-0.000012	-0.000000	0.000000	0.000000
60.810400	13.601471	22.973296	1.070597	-1.509701	2.236880	0.000000	-0.176566	0.000000	-0.000012	-0.000001	0.000000	0.000000
61.251360	12.836266	24.060947	0.671302	-0.947467	2.173002	0.000000	-0.113434	0.000000	-0.000012	-0.000001	0.000000	0.000000
61.692320	12.408403	24.631777	0.302677	-0.342124	2.136652	0.000000	-0.051594	0.000000	-0.000013	-0.000001	0.000000	0.000000
62.134530	12.298390	24.659268	-0.022058	0.218253	2.127421	0.000000	0.004441	0.000000	-0.000013	-0.000001	0.000000	0.000000
62.431853	12.318698	24.533240	-0.046245	0.205621	2.128742	0.000000	0.004441	0.000000	-0.000014	-0.000001	0.000000	0.000000
62.765186	12.358567	24.400880	-0.073362	0.191460	2.130222	0.000000	0.004441	0.000000	-0.000014	-0.000001	0.000000	0.000000
63.098520	12.416514	24.277960	-0.100479	0.177298	2.131703	0.000000	0.004441	0.000000	-0.000015	-0.000001	0.000000	0.000000
63.433103	12.492858	24.164074	-0.127698	0.163084	2.133190	0.000000	0.004441	0.000000	-0.000015	-0.000001	0.000000	0.000000
63.730426	12.575985	24.070853	-0.121041	0.091414	2.134511	0.000000	-0.000794	0.000000	-0.000016	-0.000001	0.000000	0.000000
64.171386	12.842932	23.725159	-0.486634	0.689560	2.147705	0.000000	0.060692	0.000000	-0.000016	-0.000002	0.000000	0.000000
64.612346	13.440851	22.863820	-0.874459	1.256332	2.188139	0.000000	0.122870	0.000000	-0.000017	-0.000002	0.000000	0.000000
65.053306	14.397058	21.526028	-1.302236	1.765942	2.256274	0.000000	0.186448	0.000000	-0.000018	-0.000003	0.000000	0.000000
65.494266	15.755241	19.772650	-1.789509	2.195203	2.352885	0.000000	0.252148	0.000000	-0.000020	-0.000003	0.000000	0.000000
65.940226	17.600613	17.658662	-2.363230	2.525333	2.480646	0.000000	0.321123	0.000000	-0.000021	-0.000004	0.000000	0.000000
66.489286	19.966389	15.293860	-1.920043	1.807093	2.636589	0.000000	0.246071	0.000000	-0.000023	-0.000003	0.000000	0.000000
67.038346	21.767687	13.642886	-1.341234	1.217567	2.750063	0.000000	0.166655	0.000000	-0.000025	-0.000002	0.000000	0.000000
67.587406	22.877272	12.588145	-0.667687	0.714766	2.819055	0.000000	0.084282	0.000000	-0.000026	-0.000001	0.000000	0.000000
68.136466	23.216769	12.054511	0.053022	0.262877	2.842342	0.000000	0.000415	0.000000	-0.000026	-0.000001	0.000000	0.000000
68.435038	23.225178	11.886759	-0.020513	0.267465	2.844684	0.000000	0.007843	0.000000	-0.000026	-0.000001	0.000000	0.000000
68.768372	23.243640	11.718465	-0.034871	0.237416	2.847298	0.000000	0.007843	0.000000	-0.000027	-0.000001	0.000000	0.000000
69.101705	23.271674	11.570204	-0.049230	0.207368	2.849913	0.000000	0.007843	0.000000	-0.000027	-0.000001	0.000000	0.000000
69.436288	23.309439	11.441532	-0.063642	0.177207	2.852537	0.000000	0.007843	0.000000	-0.000027	-0.000001	0.000000	0.000000
69.733611	23.351091	11.344125	-0.137475	0.180051	2.854869	0.000000	0.015304	0.000000	-0.000027	-0.000001	0.000000	0.000000
70.282671	23.100998	11.373670	0.590272	-0.234178	2.840077	0.000000	-0.069107	0.000000	-0.000027	0.000000	0.000000	0.000000
