#ParticleID	Turn	x[m]	xp	y[m]	yp	z[m]	dE[GeV]# s	beta_x	beta_y	alpha_x	alpha_y	D_x	D_y	D_px	D_py	orbit_x	orbit_px	orbit_y	orbit_py
0.300000	11.833448	24.942746	-0.013580	-0.027779	2.618326	0.000000	-0.000069	0.000000	-0.000001	0.000000	0.000000	0.000000
0.601250	11.849300	24.963124	-0.039042	-0.039866	2.618305	0.000000	-0.000069	0.000000	-0.000001	0.000000	0.000000	0.000000
0.898573	11.879988	24.990377	-0.035039	-0.113080	2.618285	0.000000	-0.006489	0.000000	-0.000001	0.000000	0.000000	0.000000
1.339533	12.063265	24.812936	-0.382169	0.513945	2.631717	0.000000	0.067472	0.000000	-0.000001	0.000000	0.000000	0.000000
1.780493	12.559197	24.090748	-0.746760	1.117586	2.677902	0.000000	0.142201	0.000000	-0.000001	0.000000	0.000000	0.000000
2.221453	13.390440	22.856672	-1.145468	1.670377	2.757365	0.000000	0.218551	0.000000	-0.000001	0.000000	0.000000	0.000000
2.662413	14.594972	21.166857	-1.596509	2.147168	2.871011	0.000000	0.297389	0.000000	-0.000001	0.000000	0.000000	0.000000
3.108373	16.248640	19.073404	-2.124791	2.527394	3.021996	0.000000	0.380104	0.000000	-0.000001	0.000000	0.000000	0.000000
3.657433	18.369142	16.722273	-1.714405	1.779985	3.205425	0.000000	0.287067	0.000000	-0.000000	0.000000	0.000000	0.000000
4.206493	19.969422	15.117866	-1.182923	1.159361	3.336295	0.000000	0.188938	0.000000	-0.000000	0.000000	0.000000	0.000000
4.755553	20.936445	14.145905	-0.567885	0.621316	3.412285	0.000000	0.087457	0.000000	-0.000000	0.000000	0.000000	0.000000
5.304613	21.201905	13.737159	0.087266	0.127525	3.432048	0.000000	-0.015575	0.000000	-0.000000	0.000000	0.000000	0.000000
5.603185	21.187084	13.646237	0.017772	0.141103	3.430075	0.000000	-0.006608	0.000000	-0.000000	0.000000	0.000000	0.000000
5.936519	21.180481	13.560473	0.002035	0.116190	3.427873	0.000000	-0.006608	0.000000	-0.000000	0.000000	0.000000	0.000000
6.269852	21.184371	13.491317	-0.013703	0.091277	3.425670	0.000000	-0.006608	0.000000	-0.000000	0.000000	0.000000	0.000000
6.604435	21.198826	13.438605	-0.029500	0.066270	3.423459	0.000000	-0.006608	0.000000	-0.000000	0.000000	0.000000	0.000000
6.901758	21.220542	13.405804	-0.098983	0.079075	3.421495	0.000000	0.002332	0.000000	-0.000000	0.000000	0.000000	0.000000
7.450818	20.967486	13.579421	0.557144	-0.397148	3.394576	0.000000	-0.100242	0.000000	-0.000000	0.000000	0.000000	0.000000
7.999878	20.011370	14.288360	1.173917	-0.901660	3.311743	0.000000	-0.201038	0.000000	-0.000000	0.000000	0.000000	0.000000
8.548938	18.419728	15.583118	1.707771	-1.470395	3.174467	0.000000	-0.298268	0.000000	-0.000000	0.000000	0.000000	0.000000
9.097998	16.304986	17.555918	2.120996	-2.143863	2.985181	0.000000	-0.390207	0.000000	-0.000000	0.000000	0.000000	0.000000
9.543958	14.654950	19.313860	1.592123	-1.781406	2.829469	0.000000	-0.308509	0.000000	0.000000	0.000000	0.000000	0.000000
9.984918	13.454620	20.695145	1.140288	-1.339124	2.710674	0.000000	-0.230808	0.000000	0.000000	0.000000	0.000000	0.000000
10.425878	12.628380	21.657913	0.740551	-0.835913	2.625530	0.000000	-0.155735	0.000000	0.000000	0.000000	0.000000	0.000000
10.866838	12.138481	22.158359	0.374646	-0.294669	2.573068	0.000000	-0.082437	0.000000	0.000000	0.000000	0.000000	0.000000
11.309048	11.962404	22.173199	0.055089	0.205547	2.552669	0.000000	-0.016337	0.000000	0.000000	0.000000	0.000000	0.000000
11.606371	11.937058	22.055126	0.030159	0.191572	2.547812	0.000000	-0.016337	0.000000	0.000000	0.000000	0.000000	0.000000
12.086371	11.927424	21.882047	-0.010088	0.169009	2.539970	0.000000	-0.016337	0.000000	0.000000	0.000000	0.000000	0.000000
12.566371	11.956428	21.730628	-0.050336	0.146447	2.532129	0.000000	-0.016337	0.000000	0.000000	0.000000	0.000000	0.000000
13.046371	12.024069	21.600869	-0.090583	0.123885	2.524287	0.000000	-0.016337	0.000000	0.000000	0.000000	0.000000	0.000000
13.526371	12.130348	21.492769	-0.130831	0.101322	2.516445	0.000000	-0.016337	0.000000	0.000000	0.000000	0.000000	0.000000
14.007621	12.275692	21.406133	-0.171183	0.078701	2.508583	0.000000	-0.016337	0.000000	0.000001	0.000000	0.000000	0.000000
14.304943	12.384898	21.363489	-0.165742	0.012336	2.503726	0.000000	-0.022477	0.000000	0.000001	0.000000	0.000000	0.000000
14.745903	12.689830	21.118755	-0.528401	0.540554	2.509443	0.000000	0.048432	0.000000	0.000001	0.000000	0.000000	0.000000
15.186863	13.323995	20.417282	-0.915201	1.044178	2.546520	0.000000	0.119892	0.000000	0.000001	0.000000	0.000000	0.000000
15.627823	14.316365	19.290987	-1.343813	1.500292	2.615378	0.000000	0.192718	0.000000	0.000001	0.000000	0.000000	0.000000
16.068783	15.712279	17.791115	-1.833821	1.888143	2.716803	0.000000	0.267738	0.000000	0.000001	0.000000	0.000000	0.000000
16.514743	17.599167	15.964410	-2.412369	2.190836	2.853643	0.000000	0.346270	0.000000	0.000001	0.000000	0.000000	0.000000
17.063803	20.022299	13.924581	-1.974744	1.546221	3.020043	0.000000	0.258964	0.000000	0.000001	0.000000	0.000000	0.000000
17.612863	21.884962	12.528349	-1.397632	1.011740	3.137172	0.000000	0.167063	0.000000	0.000001	0.000000	0.000000	0.000000
18.161923	23.055586	11.676261	-0.721799	0.549323	3.202954	0.000000	0.072200	0.000000	0.000001	0.000000	0.000000	0.000000
18.710983	23.451486	11.307627	0.005018	0.126032	3.216221	0.000000	-0.023944	0.000000	0.000001	0.000000	0.000000	0.000000
19.009556	23.488892	11.222800	-0.069028	0.128533	3.211581	0.000000	-0.015541	0.000000	0.000001	0.000000	0.000000	0.000000
19.342889	23.539663	11.147175	-0.083286	0.098341	3.206401	0.000000	-0.015541	0.000000	0.000001	0.000000	0.000000	0.000000
19.676223	23.599940	11.091679	-0.097545	0.068149	3.201221	0.000000	-0.015541	0.000000	0.000001	0.000000	0.000000	0.000000
20.010806	23.670296	11.056078	-0.229133	0.092622	3.196041	0.000000	0.000294	0.000000	0.000001	0.000000	0.000000	0.000000
20.308129	23.810480	11.009065	-0.304565	0.094263	3.196128	0.000000	0.008645	0.000000	0.000001	0.000000	0.000000	0.000000
20.857189	23.734270	11.128155	0.442545	-0.312442	3.174664	0.000000	-0.086715	0.000000	0.000001	0.000000	0.000000	0.000000
21.406249	22.850023	11.703383	1.158395	-0.741401	3.101187	0.000000	-0.180537	0.000000	0.000001	-0.000000	0.000000	0.000000
21.955309	21.220199	12.775721	1.792423	-1.223169	2.977001	0.000000	-0.271157	0.000000	0.000001	-0.000000	0.000000	0.000000
22.504369	18.959920	14.421548	2.299842	-1.792061	2.804307	0.000000	-0.356967	0.000000	0.000001	-0.000000	0.000000	0.000000
22.950329	17.178808	15.899009	1.708141	-1.506952	2.662403	0.000000	-0.279781	0.000000	0.000001	-0.000000	0.000000	0.000000
23.391289	15.901642	17.076925	1.199178	-1.154136	2.555348	0.000000	-0.206235	0.000000	0.000001	-0.000000	0.000000	0.000000
23.832249	15.047577	17.919252	0.745001	-0.748808	2.480175	0.000000	-0.135039	0.000000	0.000001	0.000000	0.000000	0.000000
24.273209	14.577593	18.387666	0.324862	-0.309409	2.436029	0.000000	-0.065380	0.000000	0.000001	0.000000	0.000000	0.000000
24.715418	14.470330	18.460607	-0.045037	0.098728	2.422403	0.000000	-0.002406	0.000000	0.000001	0.000000	0.000000	0.000000
25.012741	14.503233	18.406734	-0.065626	0.082465	2.421687	0.000000	-0.002406	0.000000	0.000001	0.000000	0.000000	0.000000
25.346075	14.554677	18.357834	-0.088708	0.064233	2.420885	0.000000	-0.002406	0.000000	0.000001	0.000000	0.000000	0.000000
25.679408	14.621510	18.321090	-0.111790	0.046000	2.420083	0.000000	-0.002406	0.000000	0.000001	0.000000	0.000000	0.000000
26.013991	14.703770	18.296802	-0.015673	-0.120733	2.419253	0.000000	-0.022033	0.000000	0.000001	0.000000	0.000000	0.000000
26.311314	14.719103	18.373497	0.000197	-0.182277	2.412702	0.000000	-0.027950	0.000000	0.000001	0.000000	0.000000	0.000000
26.752274	14.900308	18.334927	-0.412687	0.269412	2.415483	0.000000	0.040575	0.000000	0.000001	0.000000	0.000000	0.000000
27.193234	15.452549	17.901908	-0.844425	0.708843	2.448554	0.000000	0.109561	0.000000	0.000001	0.000000	0.000000	0.000000
27.634194	16.401057	17.094142	-1.314742	1.116022	2.512290	0.000000	0.179795	0.000000	0.000002	0.000000	0.000000	0.000000
28.075154	17.789167	15.948381	-1.845127	1.472423	2.607418	0.000000	0.252077	0.000000	0.000002	0.000000	0.000000	0.000000
28.521114	19.704421	14.499502	-2.464763	1.762744	2.736625	0.000000	0.327673	0.000000	0.000002	0.000000	0.000000	0.000000
29.070174	22.138712	12.884981	-1.942553	1.195130	2.893881	0.000000	0.244305	0.000000	0.000002	0.000000	0.000000	0.000000
29.619234	23.920353	11.843646	-1.283131	0.712643	3.004105	0.000000	0.156605	0.000000	0.000002	0.000000	0.000000	0.000000
30.168294	24.923497	11.301323	-0.533074	0.280916	3.065342	0.000000	0.066127	0.000000	0.000002	0.000000	0.000000	0.000000
30.717354	25.077287	11.219385	0.254636	-0.130802	3.076505	0.000000	-0.025525	0.000000	0.000002	0.000000	0.000000	0.000000
31.015927	24.968040	11.288015	0.176782	-0.128374	3.071284	0.000000	-0.017486	0.000000	0.000002	0.000000	0.000000	0.000000
31.349260	24.854774	11.383604	0.163015	-0.158391	3.065455	0.000000	-0.017486	0.000000	0.000002	0.000000	0.000000	0.000000
31.682593	24.750687	11.499203	0.149247	-0.188407	3.059626	0.000000	-0.017486	0.000000	0.000002	0.000000	0.000000	0.000000
32.017177	24.655439	11.635359	0.135428	-0.218536	3.053776	0.000000	-0.017486	0.000000	0.000002	0.000000	0.000000	0.000000
32.314499	24.578559	11.773271	0.058929	-0.214549	3.048577	0.000000	-0.009521	0.000000	0.000002	0.000000	0.000000	0.000000
32.863559	24.092820	12.248249	0.820507	-0.655631	3.018476	0.000000	-0.099961	0.000000	0.000002	-0.000000	0.000000	0.000000
33.412619	22.797808	13.230235	1.524129	-1.143412	2.939134	0.000000	-0.188627	0.000000	0.000002	-0.000000	0.000000	0.000000
33.961679	20.784997	14.789175	2.120093	-1.712636	2.811956	0.000000	-0.273948	0.000000	0.000002	-0.000000	0.000000	0.000000
34.510739	18.196561	17.036109	2.566305	-2.403848	2.639199	0.000000	-0.354409	0.000000	0.000002	-0.000000	0.000000	0.000000
34.956699	16.184108	19.045824	1.962493	-2.083825	2.497483	0.000000	-0.281503	0.000000	0.000002	-0.000000	0.000000	0.000000
35.397659	14.683553	20.707318	1.453344	-1.669740	2.388728	0.000000	-0.212231	0.000000	0.000002	-0.000000	0.000000	0.000000
35.838619	13.601162	21.968599	1.010593	-1.179683	2.309958	0.000000	-0.145376	0.000000	0.000002	-0.000000	0.000000	0.000000
36.279579	12.887483	22.772280	0.614013	-0.635951	2.260275	0.000000	-0.080177	0.000000	0.000001	-0.000000	0.000000	0.000000
36.721789	12.509220	23.082092	0.276056	-0.119942	2.239087	0.000000	-0.021382	0.000000	0.000001	-0.000000	0.000000	0.000000
37.019112	12.352670	23.157300	0.250477	-0.133008	2.232730	0.000000	-0.021382	0.000000	0.000001	-0.000000	0.000000	0.000000
37.352445	12.195245	23.250855	0.221799	-0.147657	2.225603	0.000000	-0.021382	0.000000	0.000001	-0.000000	0.000000	0.000000
37.685779	12.056938	23.354176	0.193121	-0.162306	2.218475	0.000000	-0.021382	0.000000	0.000001	-0.000000	0.000000	0.000000
38.020362	11.937339	23.467705	0.164336	-0.177010	2.211321	0.000000	-0.021382	0.000000	0.000001	-0.000000	0.000000	0.000000
38.317684	11.847222	23.576848	0.167809	-0.247893	2.204964	0.000000	-0.026789	0.000000	0.000001	-0.000000	0.000000	0.000000
38.758644	11.850359	23.534348	-0.174949	0.343908	2.207074	0.000000	0.036371	0.000000	0.000001	-0.000000	0.000000	0.000000
39.199604	12.158150	22.974858	-0.525700	0.920062	2.237101	0.000000	0.099945	0.000000	0.000001	0.000000	0.000000	0.000000
39.640564	12.784656	21.923837	-0.900469	1.454354	2.295385	0.000000	0.164658	0.000000	0.000001	0.000000	0.000000	0.000000
40.081524	13.758503	20.429103	-1.316378	1.922473	2.382590	0.000000	0.231245	0.000000	0.000001	0.000000	0.000000	0.000000
40.527484	15.141741	18.536099	-1.796251	2.304399	2.501183	0.000000	0.300872	0.000000	0.000001	0.000000	0.000000	0.000000
41.076544	16.907213	16.408950	-1.400159	1.592634	2.645856	0.000000	0.225338	0.000000	0.000002	0.000000	0.000000	0.000000
41.625604	18.180512	14.996899	-0.905166	0.994307	2.747896	0.000000	0.145806	0.000000	0.000002	0.000000	0.000000	0.000000
42.174664	18.871699	14.199369	-0.346237	0.466804	2.805493	0.000000	0.063688	0.000000	0.000002	-0.000000	0.000000	0.000000
42.723724	18.931952	13.959554	0.237148	-0.027451	2.817626	0.000000	-0.019559	0.000000	0.000002	-0.000000	0.000000	0.000000
43.022297	18.824752	13.960552	0.171357	-0.012368	2.813984	0.000000	-0.012198	0.000000	0.000002	-0.000000	0.000000	0.000000
43.502297	18.672848	13.988931	0.145110	-0.046755	2.808129	0.000000	-0.012198	0.000000	0.000002	-0.000000	0.000000	0.000000
43.982297	18.546142	14.050323	0.118863	-0.081143	2.802274	0.000000	-0.012198	0.000000	0.000001	-0.000000	0.000000	0.000000
44.462297	18.444632	14.144726	0.092616	-0.115531	2.796420	0.000000	-0.012198	0.000000	0.000001	-0.000000	0.000000	0.000000
44.942297	18.368319	14.272142	0.066369	-0.149919	2.790565	0.000000	-0.012198	0.000000	0.000001	-0.000000	0.000000	0.000000
45.423547	18.317331	14.432853	-0.050701	-0.112887	2.784712	0.000000	0.001600	0.000000	0.000001	-0.000000	0.000000	0.000000
45.720870	18.352318	14.506184	-0.114925	-0.095849	2.785188	0.000000	0.008877	0.000000	0.000001	-0.000000	0.000000	0.000000
46.269930	18.169496	14.892090	0.445928	-0.611149	2.767495	0.000000	-0.073230	0.000000	0.000001	-0.000000	0.000000	0.000000
46.818990	17.384519	15.864298	0.975283	-1.169980	2.705011	0.000000	-0.154037	0.000000	0.000001	-0.000000	0.000000	0.000000
47.368050	16.052834	17.492056	1.435749	-1.812147	2.598845	0.000000	-0.232112	0.000000	0.000001	-0.000000	0.000000	0.000000
47.917110	14.268506	19.891306	1.794801	-2.583388	2.450880	0.000000	-0.306071	0.000000	0.000001	-0.000000	0.000000	0.000000
48.363070	12.879787	22.024573	1.330229	-2.180039	2.329675	0.000000	-0.237783	0.000000	0.000001	-0.000000	0.000000	0.000000
48.804030	11.886796	23.732653	0.930198	-1.678769	2.239280	0.000000	-0.172600	0.000000	0.000001	-0.000000	0.000000	0.000000
49.244990	11.226598	24.963153	0.572665	-1.101116	2.177167	0.000000	-0.109383	0.000000	0.000001	-0.000000	0.000000	0.000000
49.685950	10.869030	25.660088	0.241296	-0.473363	2.142630	0.000000	-0.047412	0.000000	0.000001	-0.000000	0.000000	0.000000
50.128160	10.797888	25.791464	-0.052687	0.112630	2.135285	0.000000	0.008783	0.000000	0.000001	-0.000000	0.000000	0.000000
50.425482	10.837428	25.727960	-0.080298	0.100956	2.137897	0.000000	0.008783	0.000000	0.000001	-0.000000	0.000000	0.000000
50.758816	10.901279	25.665019	-0.111254	0.087868	2.140824	0.000000	0.008783	0.000000	0.000001	-0.000000	0.000000	0.000000
51.092149	10.985767	25.610804	-0.142210	0.074779	2.143752	0.000000	0.008783	0.000000	0.000001	-0.000000	0.000000	0.000000
51.426732	11.091100	25.565678	-0.083304	-0.145759	2.146669	0.000000	-0.008632	0.000000	0.000001	-0.000000	0.000000	0.000000
51.724055	11.148662	25.655884	-0.082958	-0.220551	2.144102	0.000000	-0.013890	0.000000	0.000001	-0.000000	0.000000	0.000000
52.165015	11.367346	25.565001	-0.414849	0.425869	2.151565	0.000000	0.047770	0.000000	0.000001	-0.000000	0.000000	0.000000
52.605975	11.885951	24.910427	-0.765695	1.052912	2.186311	0.000000	0.109974	0.000000	0.000001	-0.000000	0.000000	0.000000
53.046935	12.728172	23.721944	-1.151522	1.632049	2.248736	0.000000	0.173430	0.000000	0.000000	-0.000000	0.000000	0.000000
53.487895	13.932487	22.053628	-1.589959	2.136928	2.339552	0.000000	0.238862	0.000000	0.000000	-0.000000	0.000000	0.000000
53.933855	15.574555	19.956438	-2.105278	2.545913	2.461297	0.000000	0.307413	0.000000	0.000000	-0.000000	0.000000	0.000000
54.482915	17.688599	17.596684	-1.722227	1.777263	2.609905	0.000000	0.233107	0.000000	0.000000	-0.000000	0.000000	0.000000
55.031975	19.312312	16.006949	-1.217528	1.135203	2.716518	0.000000	0.154666	0.000000	0.000000	-0.000000	0.000000	0.000000
55.581035	20.331005	15.074001	-0.626828	0.574001	2.779244	0.000000	0.073482	0.000000	0.000000	-0.000000	0.000000	0.000000
56.130095	20.672720	14.731386	0.008148	0.053684	2.796970	0.000000	-0.009006	0.000000	0.000000	-0.000000	0.000000	0.000000
56.428668	20.704430	14.682448	-0.060339	0.071734	2.796464	0.000000	-0.001698	0.000000	0.000000	-0.000000	0.000000	0.000000
56.762001	20.750042	14.642231	-0.076497	0.048915	2.795898	0.000000	-0.001698	0.000000	0.000000	-0.000000	0.000000	0.000000
57.095334	20.806426	14.617228	-0.092656	0.026095	2.795332	0.000000	-0.001698	0.000000	0.000000	-0.000000	0.000000	0.000000
57.429918	20.873855	14.607430	-0.108874	0.003190	2.794764	0.000000	-0.001698	0.000000	0.000000	-0.000000	0.000000	0.000000
57.727240	20.942882	14.611585	-0.178007	0.021013	2.794259	0.000000	0.005603	0.000000	0.000000	-0.000000	0.000000	0.000000
58.276300	20.780984	14.869188	0.471125	-0.492953	2.774694	0.000000	-0.076767	0.000000	0.000000	-0.000000	0.000000	0.000000
58.825360	19.920398	15.707041	1.086978	-1.042031	2.710210	0.000000	-0.157775	0.000000	0.000000	-0.000000	0.000000	0.000000
59.374420	18.421910	17.184821	1.626053	-1.665330	2.601952	0.000000	-0.235985	0.000000	0.000000	-0.000000	0.000000	0.000000
59.923480	16.391367	19.407789	2.050272	-2.407247	2.451840	0.000000	-0.310009	0.000000	-0.000000	-0.000000	0.000000	0.000000
60.369440	14.801951	21.383675	1.526381	-2.004687	2.328880	0.000000	-0.241719	0.000000	-0.000000	-0.000000	0.000000	0.000000
60.810400	13.658548	22.940442	1.076441	-1.512284	2.236741	0.000000	-0.176579	0.000000	-0.000000	-0.000000	0.000000	0.000000
61.251360	12.888852	24.030833	0.675681	-0.951073	2.172856	0.000000	-0.113451	0.000000	-0.000000	-0.000000	0.000000	0.000000
61.692320	12.457698	24.605236	0.305790	-0.346589	2.136497	0.000000	-0.051614	0.000000	-0.000000	-0.000000	0.000000	0.000000
62.134530	12.345438	24.636983	-0.019956	0.213193	2.127256	0.000000	0.004418	0.000000	-0.000000	-0.000000	0.000000	0.000000
62.431853	12.364468	24.513960	-0.044049	0.200576	2.128570	0.000000	0.004418	0.000000	-0.000000	-0.000000	0.000000	0.000000
62.765186	12.402838	24.384958	-0.071061	0.186431	2.130042	0.000000	0.004418	0.000000	-0.000000	-0.000000	0.000000	0.000000
63.098520	12.459216	24.265385	-0.098072	0.172286	2.131515	0.000000	0.004418	0.000000	-0.000000	-0.000000	0.000000	0.000000
63.433103	12.533913	24.154847	-0.125185	0.158089	2.132993	0.000000	0.004418	0.000000	-0.000000	-0.000000	0.000000	0.000000
63.730426	12.615517	24.064592	-0.118341	0.086458	2.134306	0.000000	-0.000816	0.000000	-0.000000	-0.000000	0.000000	0.000000
64.171386	12.880457	23.723302	-0.484765	0.684568	2.147489	0.000000	0.060665	0.000000	-0.000001	-0.000000	0.000000	0.000000
64.612346	13.477062	22.866299	-0.873336	1.251530	2.187909	0.000000	0.122837	0.000000	-0.000001	-0.000000	0.000000	0.000000
65.053306	14.432588	21.532577	-1.301808	1.761548	2.256027	0.000000	0.186408	0.000000	-0.000001	-0.000000	0.000000	0.000000
65.494266	15.790692	19.782818	-1.789755	2.191418	2.352618	0.000000	0.252102	0.000000	-0.000001	-0.000000	0.000000	0.000000
65.940226	17.636592	17.671865	-2.364166	2.522338	2.480355	0.000000	0.321070	0.000000	-0.000001	-0.000000	0.000000	0.000000
66.489286	20.002597	15.310271	-1.919518	1.804208	2.636270	0.000000	0.246028	0.000000	-0.000001	-0.000000	0.000000	0.000000
67.038346	21.802529	13.662497	-1.339284	1.214589	2.749722	0.000000	0.166622	0.000000	-0.000001	-0.000000	0.000000	0.000000
67.587406	22.909250	12.611175	-0.664450	0.711481	2.818699	0.000000	0.084261	0.000000	-0.000001	-0.000000	0.000000	0.000000
68.136466	23.244587	12.081421	0.057318	0.259052	2.841976	0.000000	0.000405	0.000000	-0.000001	-0.000000	0.000000	0.000000
68.435038	23.250462	11.915881	-0.016262	0.263818	2.844314	0.000000	0.007830	0.000000	-0.000001	-0.000000	0.000000	0.000000
68.768372	23.266084	11.749976	-0.030602	0.233897	2.846925	0.000000	0.007830	0.000000	-0.000001	-0.000000	0.000000	0.000000
69.101705	23.291265	11.604019	-0.044942	0.203976	2.849535	0.000000	0.007830	0.000000	-0.000001	-0.000000	0.000000	0.000000
69.436288	23.326155	11.477573	-0.059337	0.173943	2.852155	0.000000	0.007830	0.000000	-0.000001	-0.000000	0.000000	0.000000
69.733611	23.365242	11.382074	-0.133177	0.176994	2.854483	0.000000	0.015289	0.000000	-0.000001	-0.000000	0.000000	0.000000
70.282671	23.110213	11.415570	0.594912	-0.238360	2.839686	0.000000	-0.069110	0.000000	-0.000001	-0.000000	0.000000	0.000000
