#ParticleID	Turn	x[m]	xp	y[m]	yp	z[m]	dE[GeV]# s	beta_x	beta_y	alpha_x	alpha_y	D_x	D_y	D_px	D_py	orbit_x	orbit_px	orbit_y	orbit_py
0.300000	11.801866	25.064145	-0.009988	-0.026683	2.618408	0.000000	-0.000101	0.000000	-0.000003	0.000002	0.000000	0.000000
0.601250	11.815575	25.083844	-0.035517	-0.038711	2.618377	0.000000	-0.000101	0.000000	-0.000002	0.000002	0.000000	0.000000
0.898573	11.844186	25.110393	-0.031666	-0.112160	2.618347	0.000000	-0.006522	0.000000	-0.000002	0.000002	0.000000	0.000000
1.339533	12.024103	24.930743	-0.377893	0.518016	2.631764	0.000000	0.067440	0.000000	-0.000001	0.000002	0.000000	0.000000
1.780493	12.515794	24.203638	-0.741385	1.124623	2.677935	0.000000	0.142171	0.000000	0.000000	0.000002	0.000000	0.000000
2.221453	13.341725	22.962160	-1.138749	1.680061	2.757384	0.000000	0.218521	0.000000	0.000001	0.000002	0.000000	0.000000
2.662413	14.539629	21.262796	-1.588139	2.159057	2.871016	0.000000	0.297360	0.000000	0.000002	0.000002	0.000000	0.000000
3.108373	16.184949	19.157947	-2.114370	2.540952	3.021987	0.000000	0.380075	0.000000	0.000003	0.000002	0.000000	0.000000
3.657433	18.294850	16.793826	-1.705633	1.790225	3.205398	0.000000	0.287038	0.000000	0.000004	0.000002	0.000000	0.000000
4.206493	19.886693	15.179653	-1.176418	1.167012	3.336252	0.000000	0.188910	0.000000	0.000005	0.000002	0.000000	0.000000
4.755553	20.848037	14.200456	-0.564107	0.626922	3.412227	0.000000	0.087431	0.000000	0.000006	0.000002	0.000000	0.000000
5.304613	21.110978	13.786487	0.088050	0.131487	3.431975	0.000000	-0.015599	0.000000	0.000007	0.000001	0.000000	0.000000
5.603185	21.095563	13.693109	0.018735	0.145242	3.429994	0.000000	-0.006632	0.000000	0.000007	0.000001	0.000000	0.000000
5.936519	21.088342	13.604566	0.002929	0.120385	3.427783	0.000000	-0.006632	0.000000	0.000008	0.000001	0.000000	0.000000
6.269852	21.091658	13.532595	-0.012878	0.095529	3.425572	0.000000	-0.006632	0.000000	0.000008	0.000001	0.000000	0.000000
6.604435	21.105584	13.477019	-0.028744	0.070579	3.423352	0.000000	-0.006632	0.000000	0.000009	0.000001	0.000000	0.000000
6.901758	21.126868	13.441641	-0.098039	0.083525	3.421380	0.000000	0.002306	0.000000	0.000009	0.000002	0.000000	0.000000
7.450818	20.874503	13.610907	0.554950	-0.393628	3.394447	0.000000	-0.100264	0.000000	0.000010	0.000001	0.000000	0.000000
7.999878	19.922457	14.316373	1.168741	-0.898818	3.311604	0.000000	-0.201055	0.000000	0.000010	0.000001	0.000000	0.000000
8.548938	18.337979	15.608289	1.699978	-1.468030	3.174319	0.000000	-0.298281	0.000000	0.000011	0.000001	0.000000	0.000000
9.097998	16.232988	17.578675	2.111136	-2.141805	2.985027	0.000000	-0.390215	0.000000	0.000011	0.000000	0.000000	0.000000
9.543958	14.590766	19.334352	1.584400	-1.778402	2.829310	0.000000	-0.308521	0.000000	0.000011	0.000000	0.000000	0.000000
9.984918	13.396444	20.712624	1.134333	-1.335320	2.710509	0.000000	-0.230824	0.000000	0.000011	0.000001	0.000000	0.000000
10.425878	12.574779	21.671747	0.736091	-0.831482	2.625356	0.000000	-0.155756	0.000000	0.000012	0.000001	0.000000	0.000000
10.866838	12.088230	22.168081	0.371479	-0.289811	2.572883	0.000000	-0.082462	0.000000	0.000012	0.000001	0.000000	0.000000
11.309048	11.914437	22.178518	0.052948	0.210603	2.552472	0.000000	-0.016365	0.000000	0.000013	0.000002	0.000000	0.000000
11.606371	11.890393	22.057446	0.027923	0.196602	2.547606	0.000000	-0.016365	0.000000	0.000013	0.000002	0.000000	0.000000
12.086371	11.882978	21.879557	-0.012477	0.174000	2.539750	0.000000	-0.016365	0.000000	0.000014	0.000002	0.000000	0.000000
12.566371	11.914349	21.723367	-0.052877	0.151397	2.531894	0.000000	-0.016365	0.000000	0.000015	0.000002	0.000000	0.000000
13.046371	11.984503	21.588875	-0.093277	0.128795	2.524037	0.000000	-0.016365	0.000000	0.000016	0.000002	0.000000	0.000000
13.526371	12.093441	21.476081	-0.133678	0.106192	2.516181	0.000000	-0.016365	0.000000	0.000017	0.000002	0.000000	0.000000
14.007621	12.241599	21.384777	-0.174183	0.083531	2.508305	0.000000	-0.016365	0.000000	0.000017	0.000002	0.000000	0.000000
14.304943	12.352617	21.339268	-0.168921	0.017210	2.503438	0.000000	-0.022504	0.000000	0.000018	0.000002	0.000000	0.000000
14.745903	12.660065	21.090556	-0.530947	0.544668	2.509141	0.000000	0.048397	0.000000	0.000019	0.000002	0.000000	0.000000
15.186863	13.296241	20.385860	-0.917232	1.047345	2.546200	0.000000	0.119850	0.000000	0.000020	0.000003	0.000000	0.000000
15.627823	14.290210	19.257244	-1.345422	1.502368	2.615037	0.000000	0.192667	0.000000	0.000021	0.000003	0.000000	0.000000
16.068783	15.687385	17.756058	-1.835080	1.889035	2.716436	0.000000	0.267678	0.000000	0.000022	0.000004	0.000000	0.000000
16.514743	17.575263	15.929107	-2.413337	2.190493	2.853245	0.000000	0.346200	0.000000	0.000024	0.000004	0.000000	0.000000
17.063803	20.000107	13.889246	-1.976872	1.546623	3.019608	0.000000	0.258907	0.000000	0.000026	0.000003	0.000000	0.000000
17.612863	21.865680	12.492153	-1.400770	1.012914	3.136709	0.000000	0.167021	0.000000	0.000028	0.000003	0.000000	0.000000
18.161923	23.040207	11.638316	-0.725724	0.551354	3.202471	0.000000	0.072173	0.000000	0.000029	0.000002	0.000000	0.000000
18.710983	23.440725	11.266917	0.000583	0.129065	3.215727	0.000000	-0.023955	0.000000	0.000030	0.000001	0.000000	0.000000
19.009556	23.480757	11.180383	-0.073432	0.131330	3.211083	0.000000	-0.015555	0.000000	0.000030	0.000001	0.000000	0.000000
19.342889	23.534470	11.102939	-0.087705	0.101002	3.205897	0.000000	-0.015555	0.000000	0.000030	0.000001	0.000000	0.000000
19.676223	23.597697	11.045715	-0.101977	0.070673	3.200712	0.000000	-0.015555	0.000000	0.000031	0.000001	0.000000	0.000000
20.010806	23.671024	11.008471	-0.233583	0.094774	3.195527	0.000000	0.000277	0.000000	0.000031	0.000001	0.000000	0.000000
20.308129	23.813861	10.960217	-0.309034	0.096153	3.195609	0.000000	0.008625	0.000000	0.000031	0.000001	0.000000	0.000000
20.857189	23.742473	11.076472	0.438284	-0.309137	3.174138	0.000000	-0.086719	0.000000	0.000031	-0.000000	0.000000	0.000000
21.406249	22.862652	11.647191	1.154643	-0.736446	3.100664	0.000000	-0.180524	0.000000	0.000031	-0.000001	0.000000	0.000000
21.955309	21.236545	12.713025	1.789444	-1.216210	2.976490	0.000000	-0.271127	0.000000	0.000030	-0.000002	0.000000	0.000000
22.504369	18.979012	14.349892	2.297847	-1.782602	2.803819	0.000000	-0.356921	0.000000	0.000029	-0.000003	0.000000	0.000000
22.950329	17.199750	15.819630	1.705966	-1.499167	2.661933	0.000000	-0.279747	0.000000	0.000028	-0.000002	0.000000	0.000000
23.391289	15.924617	16.991549	1.196723	-1.148372	2.554892	0.000000	-0.206213	0.000000	0.000027	-0.000002	0.000000	0.000000
23.832249	15.072879	17.829784	0.742156	-0.745327	2.479727	0.000000	-0.135028	0.000000	0.000026	-0.000001	0.000000	0.000000
24.273209	14.605624	18.296197	0.321495	-0.308370	2.435583	0.000000	-0.065381	0.000000	0.000026	-0.000000	0.000000	0.000000
24.715418	14.501626	18.369322	-0.049011	0.097512	2.421954	0.000000	-0.002417	0.000000	0.000026	0.000000	0.000000	0.000000
25.012741	14.536881	18.316195	-0.069563	0.081173	2.421235	0.000000	-0.002417	0.000000	0.000026	0.000000	0.000000	0.000000
25.346075	14.590936	18.268186	-0.092604	0.062854	2.420429	0.000000	-0.002417	0.000000	0.000026	0.000000	0.000000	0.000000
25.679408	14.660353	18.232390	-0.115645	0.044535	2.419624	0.000000	-0.002417	0.000000	0.000027	0.000000	0.000000	0.000000
26.013991	14.745177	18.209110	-0.019150	-0.121573	2.418790	0.000000	-0.022039	0.000000	0.000027	0.000000	0.000000	0.000000
26.311314	14.762562	18.286330	-0.003128	-0.182975	2.412238	0.000000	-0.027953	0.000000	0.000027	0.000000	0.000000	0.000000
26.752274	14.947179	18.249417	-0.417130	0.266366	2.415014	0.000000	0.040559	0.000000	0.000027	0.000001	0.000000	0.000000
27.193234	15.503904	17.820072	-0.850188	0.703588	2.448074	0.000000	0.109533	0.000000	0.000028	0.000002	0.000000	0.000000
27.634194	16.458172	17.017829	-1.322089	1.108798	2.511795	0.000000	0.179754	0.000000	0.000028	0.000002	0.000000	0.000000
28.075154	17.853581	15.879190	-1.854393	1.463557	2.606901	0.000000	0.252023	0.000000	0.000030	0.000003	0.000000	0.000000
28.521114	19.778123	14.438806	-2.476394	1.752638	2.736080	0.000000	0.327605	0.000000	0.000031	0.000004	0.000000	0.000000
29.070174	22.224205	12.834048	-1.952266	1.187350	2.893303	0.000000	0.244256	0.000000	0.000033	0.000003	0.000000	0.000000
29.619234	24.015139	11.800239	-1.290241	0.706634	3.003504	0.000000	0.156575	0.000000	0.000034	0.000002	0.000000	0.000000
30.168294	25.024422	11.263743	-0.537078	0.276250	3.064729	0.000000	0.066116	0.000000	0.000035	0.000001	0.000000	0.000000
30.717354	25.180764	11.186347	0.254020	-0.134457	3.075892	0.000000	-0.025515	0.000000	0.000035	-0.000001	0.000000	0.000000
31.015927	25.072019	11.257247	0.175969	-0.132224	3.070672	0.000000	-0.017481	0.000000	0.000035	-0.000000	0.000000	0.000000
31.349260	24.959275	11.355439	0.162263	-0.162352	3.064846	0.000000	-0.017481	0.000000	0.000034	-0.000000	0.000000	0.000000
31.682593	24.855669	11.473716	0.148556	-0.192480	3.059019	0.000000	-0.017481	0.000000	0.000034	-0.000000	0.000000	0.000000
32.017177	24.760863	11.612636	0.134798	-0.222722	3.053170	0.000000	-0.017481	0.000000	0.000034	-0.000000	0.000000	0.000000
32.314499	24.684341	11.753066	0.058095	-0.218895	3.047973	0.000000	-0.009519	0.000000	0.000034	-0.000000	0.000000	0.000000
32.863559	24.197586	12.232608	0.823182	-0.659647	3.017879	0.000000	-0.099939	0.000000	0.000033	-0.000001	0.000000	0.000000
33.412619	22.897785	13.218955	1.530123	-1.147384	2.938555	0.000000	-0.188587	0.000000	0.000032	-0.000003	0.000000	0.000000
33.961679	20.876750	14.782361	2.128984	-1.716847	2.811405	0.000000	-0.273889	0.000000	0.000031	-0.000004	0.000000	0.000000
34.510739	18.277237	17.034186	2.577464	-2.408597	2.638687	0.000000	-0.354334	0.000000	0.000028	-0.000005	0.000000	0.000000
34.956699	16.255948	19.048401	1.971216	-2.089127	2.497004	0.000000	-0.281440	0.000000	0.000027	-0.000004	0.000000	0.000000
35.397659	14.748615	20.714725	1.460048	-1.675346	2.388275	0.000000	-0.212180	0.000000	0.000025	-0.000003	0.000000	0.000000
35.838619	13.661084	21.980991	1.015586	-1.185339	2.309526	0.000000	-0.145337	0.000000	0.000024	-0.000003	0.000000	0.000000
36.279579	12.943670	22.789587	0.617523	-0.641399	2.259859	0.000000	-0.080149	0.000000	0.000023	-0.000002	0.000000	0.000000
36.721789	12.562899	23.104033	0.278368	-0.124976	2.238682	0.000000	-0.021362	0.000000	0.000022	-0.000001	0.000000	0.000000
37.019112	12.404950	23.182236	0.252868	-0.138046	2.232331	0.000000	-0.021362	0.000000	0.000022	-0.000001	0.000000	0.000000
37.352445	12.245901	23.279151	0.224279	-0.152699	2.225211	0.000000	-0.021362	0.000000	0.000021	-0.000001	0.000000	0.000000
37.685779	12.105912	23.385835	0.195689	-0.167352	2.218091	0.000000	-0.021362	0.000000	0.000021	-0.000001	0.000000	0.000000
38.020362	11.984565	23.502742	0.166993	-0.182060	2.210944	0.000000	-0.021362	0.000000	0.000020	-0.000001	0.000000	0.000000
38.317684	11.892845	23.614889	0.170652	-0.253030	2.204593	0.000000	-0.026767	0.000000	0.000020	-0.000001	0.000000	0.000000
38.758644	11.893927	23.576458	-0.173116	0.339850	2.206712	0.000000	0.036383	0.000000	0.000019	-0.000001	0.000000	0.000000
39.199604	12.200514	23.020002	-0.524793	0.917267	2.236742	0.000000	0.099948	0.000000	0.000019	-0.000000	0.000000	0.000000
39.640564	12.826612	21.970839	-0.900446	1.452949	2.295026	0.000000	0.164652	0.000000	0.000019	0.000000	0.000000	0.000000
40.081524	13.800826	20.476704	-1.317238	1.922523	2.382227	0.000000	0.231230	0.000000	0.000019	0.000001	0.000000	0.000000
40.527484	15.185243	18.582999	-1.798039	2.305911	2.500810	0.000000	0.300848	0.000000	0.000019	0.000001	0.000000	0.000000
41.076544	16.951774	16.454858	-1.400288	1.592938	2.645472	0.000000	0.225325	0.000000	0.000020	0.000000	0.000000	0.000000
41.625604	18.224296	15.043122	-0.903628	0.993426	2.747509	0.000000	0.145806	0.000000	0.000020	-0.000000	0.000000	0.000000
42.174664	18.912922	14.247235	-0.343140	0.464674	2.805110	0.000000	0.063701	0.000000	0.000020	-0.000001	0.000000	0.000000
42.723724	18.969013	14.010508	0.241586	-0.030980	2.817253	0.000000	-0.019535	0.000000	0.000019	-0.000001	0.000000	0.000000
43.022297	18.859216	14.013514	0.175711	-0.015690	2.813619	0.000000	-0.012175	0.000000	0.000019	-0.000001	0.000000	0.000000
43.502297	18.703128	14.045022	0.149473	-0.049951	2.807775	0.000000	-0.012175	0.000000	0.000018	-0.000001	0.000000	0.000000
43.982297	18.572228	14.109420	0.123236	-0.084212	2.801932	0.000000	-0.012175	0.000000	0.000017	-0.000001	0.000000	0.000000
44.462297	18.466515	14.206710	0.096998	-0.118473	2.796089	0.000000	-0.012175	0.000000	0.000016	-0.000001	0.000000	0.000000
44.942297	18.385991	14.336889	0.070760	-0.152734	2.790245	0.000000	-0.012175	0.000000	0.000016	-0.000001	0.000000	0.000000
45.423547	18.330771	14.500248	-0.046366	-0.115242	2.784404	0.000000	0.001621	0.000000	0.000015	-0.000001	0.000000	0.000000
45.720870	18.363176	14.574953	-0.110595	-0.097942	2.784886	0.000000	0.008896	0.000000	0.000015	-0.000001	0.000000	0.000000
46.269930	18.175436	14.964319	0.450499	-0.615394	2.767208	0.000000	-0.073201	0.000000	0.000014	-0.000002	0.000000	0.000000
46.818990	17.385454	15.942500	0.979773	-1.176678	2.704743	0.000000	-0.153999	0.000000	0.000013	-0.000002	0.000000	0.000000
47.368050	16.049029	17.579170	1.439839	-1.821775	2.598602	0.000000	-0.232066	0.000000	0.000011	-0.000003	0.000000	0.000000
47.917110	14.260562	19.990906	1.798203	-2.596633	2.450666	0.000000	-0.306017	0.000000	0.000010	-0.000003	0.000000	0.000000
48.363070	12.868897	22.135045	1.333459	-2.191071	2.329484	0.000000	-0.237734	0.000000	0.000009	-0.000003	0.000000	0.000000
48.804030	11.873077	23.851693	0.933407	-1.687093	2.239110	0.000000	-0.172556	0.000000	0.000007	-0.000003	0.000000	0.000000
49.244990	11.210005	25.088197	0.575999	-1.106355	2.177017	0.000000	-0.109344	0.000000	0.000006	-0.000002	0.000000	0.000000
49.685950	10.849385	25.788298	0.244908	-0.475278	2.142497	0.000000	-0.047376	0.000000	0.000005	-0.000002	0.000000	0.000000
50.128160	10.774865	25.919857	-0.048689	0.113815	2.135169	0.000000	0.008816	0.000000	0.000004	-0.000002	0.000000	0.000000
50.425482	10.812041	25.855632	-0.076349	0.102195	2.137790	0.000000	0.008816	0.000000	0.000004	-0.000002	0.000000	0.000000
50.758816	10.873277	25.791844	-0.107358	0.089169	2.140730	0.000000	0.008816	0.000000	0.000003	-0.000002	0.000000	0.000000
51.092149	10.955185	25.736741	-0.138368	0.076142	2.143669	0.000000	0.008816	0.000000	0.000002	-0.000002	0.000000	0.000000
51.426732	11.057966	25.690685	-0.079784	-0.145349	2.146597	0.000000	-0.008599	0.000000	0.000002	-0.000002	0.000000	0.000000
51.724055	11.113455	25.780630	-0.079590	-0.220389	2.144041	0.000000	-0.013857	0.000000	0.000001	-0.000002	0.000000	0.000000
52.165015	11.328789	25.688147	-0.410594	0.429321	2.151519	0.000000	0.047802	0.000000	0.000000	-0.000002	0.000000	0.000000
52.605975	11.843180	25.029130	-0.760358	1.059497	2.186281	0.000000	0.110005	0.000000	-0.000001	-0.000002	0.000000	0.000000
53.046935	12.680130	23.833564	-1.144860	1.641467	2.248721	0.000000	0.173461	0.000000	-0.000002	-0.000002	0.000000	0.000000
53.487895	13.877875	22.155845	-1.581668	2.148751	2.339551	0.000000	0.238893	0.000000	-0.000003	-0.000002	0.000000	0.000000
53.933855	15.511674	20.047228	-2.094960	2.559608	2.461311	0.000000	0.307444	0.000000	-0.000004	-0.000002	0.000000	0.000000
54.482915	17.615219	17.674418	-1.713536	1.787489	2.609937	0.000000	0.233137	0.000000	-0.000005	-0.000002	0.000000	0.000000
55.031975	19.230568	16.075015	-1.211077	1.142689	2.716566	0.000000	0.154695	0.000000	-0.000006	-0.000002	0.000000	0.000000
55.581035	20.243622	15.135099	-0.623073	0.579280	2.779309	0.000000	0.073509	0.000000	-0.000007	-0.000002	0.000000	0.000000
56.130095	20.582824	14.787720	0.008942	0.057132	2.797051	0.000000	-0.008981	0.000000	-0.000008	-0.000001	0.000000	0.000000
56.428668	20.613940	14.736614	-0.059376	0.075397	2.796552	0.000000	-0.001672	0.000000	-0.000008	-0.000002	0.000000	0.000000
56.762001	20.658933	14.693932	-0.075603	0.052649	2.795995	0.000000	-0.001672	0.000000	-0.000009	-0.000002	0.000000	0.000000
57.095334	20.714745	14.666415	-0.091830	0.029901	2.795438	0.000000	-0.001672	0.000000	-0.000009	-0.000002	0.000000	0.000000
57.429918	20.781644	14.654046	-0.108119	0.007068	2.794879	0.000000	-0.001672	0.000000	-0.000010	-0.000002	0.000000	0.000000
57.727240	20.850240	14.655876	-0.177075	0.025073	2.794382	0.000000	0.005630	0.000000	-0.000010	-0.000002	0.000000	0.000000
58.276300	20.689028	14.909696	0.468951	-0.490085	2.774831	0.000000	-0.076744	0.000000	-0.000011	-0.000001	0.000000	0.000000
58.825360	19.832472	15.744957	1.081853	-1.040150	2.710359	0.000000	-0.157757	0.000000	-0.000011	-0.000001	0.000000	0.000000
59.374420	18.341077	17.221151	1.618339	-1.664304	2.602109	0.000000	-0.235972	0.000000	-0.000012	-0.000000	0.000000	0.000000
59.923480	16.320185	19.443424	2.040513	-2.407002	2.452003	0.000000	-0.310001	0.000000	-0.000012	-0.000000	0.000000	0.000000
60.369440	14.738504	21.418542	1.518735	-2.003215	2.329047	0.000000	-0.241707	0.000000	-0.000012	-0.000000	0.000000	0.000000
60.810400	13.601051	22.973497	1.070542	-1.509662	2.236915	0.000000	-0.176563	0.000000	-0.000012	-0.000001	0.000000	0.000000
61.251360	12.835890	24.061110	0.671259	-0.947421	2.173038	0.000000	-0.113430	0.000000	-0.000013	-0.000001	0.000000	0.000000
61.692320	12.408061	24.631897	0.302643	-0.342072	2.136690	0.000000	-0.051589	0.000000	-0.000013	-0.000001	0.000000	0.000000
62.134530	12.298074	24.659340	-0.022085	0.218306	2.127462	0.000000	0.004447	0.000000	-0.000014	-0.000002	0.000000	0.000000
62.431853	12.318398	24.533281	-0.046273	0.205675	2.128785	0.000000	0.004447	0.000000	-0.000014	-0.000002	0.000000	0.000000
62.765186	12.358286	24.400885	-0.073391	0.191513	2.130268	0.000000	0.004447	0.000000	-0.000015	-0.000002	0.000000	0.000000
63.098520	12.416252	24.277931	-0.100508	0.177351	2.131750	0.000000	0.004447	0.000000	-0.000016	-0.000002	0.000000	0.000000
63.433103	12.492616	24.164009	-0.127728	0.163136	2.133239	0.000000	0.004447	0.000000	-0.000016	-0.000002	0.000000	0.000000
63.730426	12.575760	24.070757	-0.121072	0.091466	2.134562	0.000000	-0.000788	0.000000	-0.000017	-0.000002	0.000000	0.000000
64.171386	12.842733	23.725019	-0.486660	0.689608	2.147759	0.000000	0.060700	0.000000	-0.000017	-0.000002	0.000000	0.000000
64.612346	13.440673	22.863641	-0.874483	1.256374	2.188197	0.000000	0.122879	0.000000	-0.000018	-0.000003	0.000000	0.000000
65.053306	14.396900	21.525815	-1.302258	1.765976	2.256336	0.000000	0.186458	0.000000	-0.000020	-0.000003	0.000000	0.000000
65.494266	15.755101	19.772411	-1.789529	2.195227	2.352952	0.000000	0.252160	0.000000	-0.000021	-0.000004	0.000000	0.000000
65.940226	17.600491	17.658406	-2.363250	2.525347	2.480719	0.000000	0.321137	0.000000	-0.000023	-0.000004	0.000000	0.000000
66.489286	19.966293	15.293587	-1.920070	1.807110	2.636669	0.000000	0.246083	0.000000	-0.000025	-0.000003	0.000000	0.000000
67.038346	21.767625	13.642592	-1.341267	1.217589	2.750148	0.000000	0.166663	0.000000	-0.000026	-0.000003	0.000000	0.000000
67.587406	22.877248	12.587825	-0.667723	0.714794	2.819145	0.000000	0.084288	0.000000	-0.000028	-0.000002	0.000000	0.000000
68.136466	23.216786	12.054156	0.052985	0.262912	2.842434	0.000000	0.000417	0.000000	-0.000028	-0.000001	0.000000	0.000000
68.435038	23.225218	11.886384	-0.020552	0.267499	2.844777	0.000000	0.007846	0.000000	-0.000028	-0.000001	0.000000	0.000000
68.768372	23.243706	11.718068	-0.034910	0.237449	2.847392	0.000000	0.007846	0.000000	-0.000029	-0.000001	0.000000	0.000000
69.101705	23.271765	11.569785	-0.049268	0.207399	2.850008	0.000000	0.007846	0.000000	-0.000029	-0.000001	0.000000	0.000000
69.436288	23.309556	11.441093	-0.063680	0.177236	2.852633	0.000000	0.007846	0.000000	-0.000029	-0.000001	0.000000	0.000000
69.733611	23.351231	11.343669	-0.137515	0.180079	2.854966	0.000000	0.015307	0.000000	-0.000029	-0.000001	0.000000	0.000000
70.282671	23.101178	11.373177	0.590238	-0.234137	2.840175	0.000000	-0.069107	0.000000	-0.000030	0.000000	0.000000	0.000000
