#ParticleID	Turn	x[m]	xp	y[m]	yp	z[m]	dE[GeV]# s	beta_x	beta_y	alpha_x	alpha_y	D_x	D_y	D_px	D_py	orbit_x	orbit_px	orbit_y	orbit_py
0.300000	11.824976	24.973313	-0.012422	-0.027645	2.618160	0.000000	-0.000007	0.000000	-0.000001	0.000001	0.000000	0.000000
0.601250	11.840136	24.993606	-0.037901	-0.039717	2.618158	0.000000	-0.000007	0.000000	-0.000001	0.000001	0.000000	0.000000
0.898573	11.870150	25.020766	-0.033940	-0.112990	2.618156	0.000000	-0.006427	0.000000	-0.000000	0.000001	0.000000	0.000000
1.339533	12.052350	24.842891	-0.380817	0.514835	2.631615	0.000000	0.067531	0.000000	-0.000000	0.000001	0.000000	0.000000
1.780493	12.546955	24.119578	-0.745093	1.119236	2.677825	0.000000	0.142259	0.000000	0.000000	0.000001	0.000000	0.000000
2.221453	13.376562	22.883737	-1.143410	1.672713	2.757312	0.000000	0.218606	0.000000	0.000001	0.000001	0.000000	0.000000
2.662413	14.579074	21.191598	-1.593967	2.150083	2.870983	0.000000	0.297444	0.000000	0.000001	0.000001	0.000000	0.000000
3.108373	16.230214	19.095334	-2.121643	2.530756	3.021991	0.000000	0.380158	0.000000	0.000001	0.000001	0.000000	0.000000
3.657433	18.347494	16.740992	-1.711720	1.782504	3.205449	0.000000	0.287120	0.000000	0.000002	0.000001	0.000000	0.000000
4.206493	19.945168	15.134198	-1.180890	1.161216	3.336348	0.000000	0.188990	0.000000	0.000002	0.000001	0.000000	0.000000
4.755553	20.910384	14.160502	-0.566647	0.622639	3.412366	0.000000	0.087507	0.000000	0.000002	0.000001	0.000000	0.000000
5.304613	21.174965	13.750551	0.087621	0.128411	3.432156	0.000000	-0.015528	0.000000	0.000002	0.000000	0.000000	0.000000
5.603185	21.159894	13.659075	0.018180	0.142038	3.430197	0.000000	-0.006560	0.000000	0.000003	0.000000	0.000000	0.000000
5.936519	21.153027	13.572682	0.002422	0.117142	3.428010	0.000000	-0.006560	0.000000	0.000003	0.000000	0.000000	0.000000
6.269852	21.156665	13.502887	-0.013336	0.092245	3.425823	0.000000	-0.006560	0.000000	0.000003	0.000000	0.000000	0.000000
6.604435	21.170881	13.449520	-0.029154	0.067256	3.423628	0.000000	-0.006560	0.000000	0.000003	0.000000	0.000000	0.000000
6.901758	21.192396	13.416129	-0.098580	0.080102	3.421677	0.000000	0.002380	0.000000	0.000003	0.000000	0.000000	0.000000
7.450818	20.939417	13.588775	0.556601	-0.396396	3.394782	0.000000	-0.100201	0.000000	0.000003	0.000000	0.000000	0.000000
7.999878	19.984402	14.297014	1.172467	-0.901130	3.311971	0.000000	-0.201004	0.000000	0.000004	0.000000	0.000000	0.000000
8.548938	18.394808	15.591293	1.705515	-1.470048	3.174711	0.000000	-0.298241	0.000000	0.000004	0.000000	0.000000	0.000000
9.097998	16.282915	17.563801	2.118094	-2.143675	2.985437	0.000000	-0.390189	0.000000	0.000004	0.000000	0.000000	0.000000
9.543958	14.635173	19.321448	1.589865	-1.780935	2.829735	0.000000	-0.308484	0.000000	0.000004	0.000000	0.000000	0.000000
9.984918	13.436591	20.702201	1.138566	-1.338393	2.710952	0.000000	-0.230775	0.000000	0.000004	0.000000	0.000000	0.000000
10.425878	12.611663	21.664223	0.739285	-0.834956	2.625824	0.000000	-0.155696	0.000000	0.000004	0.000000	0.000000	0.000000
10.866838	12.122700	22.163740	0.373781	-0.293529	2.573380	0.000000	-0.082389	0.000000	0.000004	0.000000	0.000000	0.000000
11.309048	11.947227	22.177510	0.054545	0.206809	2.553005	0.000000	-0.016282	0.000000	0.000004	0.000001	0.000000	0.000000
11.606371	11.922214	22.058688	0.029585	0.192829	2.548164	0.000000	-0.016282	0.000000	0.000005	0.000001	0.000000	0.000000
12.086371	11.913155	21.884406	-0.010712	0.170260	2.540348	0.000000	-0.016282	0.000000	0.000005	0.000001	0.000000	0.000000
12.566371	11.942780	21.731789	-0.051008	0.147691	2.532533	0.000000	-0.016282	0.000000	0.000005	0.000001	0.000000	0.000000
13.046371	12.011090	21.600839	-0.091304	0.125122	2.524717	0.000000	-0.016282	0.000000	0.000005	0.000001	0.000000	0.000000
13.526371	12.118084	21.491555	-0.131600	0.102552	2.516902	0.000000	-0.016282	0.000000	0.000006	0.000001	0.000000	0.000000
14.007621	12.264192	21.403738	-0.172001	0.079924	2.509066	0.000000	-0.016282	0.000000	0.000006	0.000001	0.000000	0.000000
14.304943	12.373893	21.360368	-0.166619	0.013566	2.504225	0.000000	-0.022422	0.000000	0.000006	0.000001	0.000000	0.000000
14.745903	12.679499	21.114595	-0.529055	0.541672	2.509969	0.000000	0.048499	0.000000	0.000006	0.000001	0.000000	0.000000
15.186863	13.314153	20.412205	-0.915662	1.045133	2.547078	0.000000	0.119973	0.000000	0.000007	0.000001	0.000000	0.000000
15.627823	14.306854	19.285156	-1.344103	1.501041	2.615976	0.000000	0.192814	0.000000	0.000007	0.000001	0.000000	0.000000
16.068783	15.702953	17.784727	-1.833952	1.888652	2.717446	0.000000	0.267851	0.000000	0.000007	0.000001	0.000000	0.000000
16.514743	17.589889	15.957685	-2.412347	2.191080	2.854339	0.000000	0.346400	0.000000	0.000008	0.000001	0.000000	0.000000
17.063803	20.013221	13.917533	-1.975127	1.546570	3.020803	0.000000	0.259070	0.000000	0.000009	0.000001	0.000000	0.000000
17.612863	21.876516	12.520847	-1.398393	1.012220	3.137984	0.000000	0.167144	0.000000	0.000009	0.000001	0.000000	0.000000
18.161923	23.048161	11.668146	-0.722884	0.549967	3.203802	0.000000	0.072254	0.000000	0.000010	0.000001	0.000000	0.000000
18.710983	23.445395	11.298693	0.003686	0.126888	3.217091	0.000000	-0.023918	0.000000	0.000010	0.000000	0.000000	0.000000
19.009556	23.483587	11.213378	-0.070345	0.129335	3.212459	0.000000	-0.015513	0.000000	0.000010	0.000000	0.000000	0.000000
19.342889	23.535238	11.137229	-0.084609	0.099111	3.207288	0.000000	-0.015513	0.000000	0.000010	0.000000	0.000000	0.000000
19.676223	23.596399	11.081230	-0.098874	0.068888	3.202117	0.000000	-0.015513	0.000000	0.000010	0.000000	0.000000	0.000000
20.010806	23.667645	11.045146	-0.230454	0.093275	3.196946	0.000000	0.000326	0.000000	0.000010	0.000000	0.000000	0.000000
20.308129	23.808617	10.997754	-0.305886	0.094855	3.197043	0.000000	0.008679	0.000000	0.000010	0.000000	0.000000	0.000000
20.857189	23.733885	11.116017	0.441191	-0.311518	3.175589	0.000000	-0.086711	0.000000	0.000010	-0.000000	0.000000	0.000000
21.406249	22.851099	11.690020	1.157104	-0.740080	3.102106	0.000000	-0.180563	0.000000	0.000010	-0.000000	0.000000	0.000000
21.955309	21.222617	12.760647	1.791285	-1.221356	2.977897	0.000000	-0.271213	0.000000	0.000010	-0.000001	0.000000	0.000000
22.504369	18.963465	14.404156	2.298939	-1.789627	2.805166	0.000000	-0.357051	0.000000	0.000009	-0.000001	0.000000	0.000000
22.950329	17.183149	15.879614	1.707250	-1.504912	2.663229	0.000000	-0.279843	0.000000	0.000009	-0.000001	0.000000	0.000000
23.391289	15.906779	17.055938	1.198257	-1.152581	2.556152	0.000000	-0.206276	0.000000	0.000009	-0.000001	0.000000	0.000000
23.832249	15.053553	17.897136	0.744010	-0.747809	2.480966	0.000000	-0.135059	0.000000	0.000009	-0.000000	0.000000	0.000000
24.273209	14.584491	18.364932	0.323754	-0.309012	2.436815	0.000000	-0.065380	0.000000	0.000009	-0.000000	0.000000	0.000000
24.715418	14.478278	18.437796	-0.046294	0.098564	2.423194	0.000000	-0.002388	0.000000	0.000009	0.000000	0.000000	0.000000
25.012741	14.511925	18.384026	-0.066874	0.082282	2.422484	0.000000	-0.002388	0.000000	0.000009	0.000000	0.000000	0.000000
25.346075	14.564199	18.335257	-0.089947	0.064027	2.421688	0.000000	-0.002388	0.000000	0.000009	0.000000	0.000000	0.000000
25.679408	14.631854	18.298657	-0.113019	0.045773	2.420892	0.000000	-0.002388	0.000000	0.000009	0.000000	0.000000	0.000000
26.013991	14.714933	18.274528	-0.016801	-0.120802	2.420069	0.000000	-0.022021	0.000000	0.000009	0.000000	0.000000	0.000000
26.311314	14.730932	18.351270	-0.000890	-0.182308	2.413521	0.000000	-0.027939	0.000000	0.000009	0.000000	0.000000	0.000000
26.752274	14.913227	18.312994	-0.414082	0.268780	2.416312	0.000000	0.040606	0.000000	0.000009	0.000000	0.000000	0.000000
27.193234	15.466857	17.880787	-0.846192	0.707639	2.449400	0.000000	0.109614	0.000000	0.000009	0.000000	0.000000	0.000000
27.634194	16.417117	17.074315	-1.316962	1.114301	2.513165	0.000000	0.179870	0.000000	0.000009	0.000001	0.000000	0.000000
28.075154	17.807421	15.930272	-1.847900	1.470263	2.608332	0.000000	0.252175	0.000000	0.000010	0.000001	0.000000	0.000000
28.521114	19.725446	14.483479	-2.468224	1.760243	2.737587	0.000000	0.327796	0.000000	0.000010	0.000001	0.000000	0.000000
29.070174	22.163266	12.871363	-1.945481	1.193227	2.894902	0.000000	0.244396	0.000000	0.000011	0.000001	0.000000	0.000000
29.619234	23.947734	11.831853	-1.285319	0.711202	3.005166	0.000000	0.156662	0.000000	0.000011	0.000001	0.000000	0.000000
30.168294	24.952801	11.290908	-0.534369	0.279834	3.066425	0.000000	0.066149	0.000000	0.000011	0.000000	0.000000	0.000000
30.717354	25.107477	11.209997	0.254327	-0.131602	3.077590	0.000000	-0.025537	0.000000	0.000011	-0.000000	0.000000	0.000000
31.015927	24.998454	11.279129	0.176416	-0.129228	3.072366	0.000000	-0.017497	0.000000	0.000011	-0.000000	0.000000	0.000000
31.349260	24.885426	11.375297	0.162667	-0.159275	3.066534	0.000000	-0.017497	0.000000	0.000011	-0.000000	0.000000	0.000000
31.682593	24.781564	11.491496	0.148918	-0.189321	3.060702	0.000000	-0.017497	0.000000	0.000011	-0.000000	0.000000	0.000000
32.017177	24.686531	11.628274	0.135117	-0.219481	3.054848	0.000000	-0.017497	0.000000	0.000011	-0.000000	0.000000	0.000000
32.314499	24.609830	11.766756	0.058559	-0.215540	3.049646	0.000000	-0.009529	0.000000	0.000011	-0.000000	0.000000	0.000000
32.863559	24.123925	12.242744	0.821179	-0.656492	3.019531	0.000000	-0.100003	0.000000	0.000011	-0.000000	0.000000	0.000000
33.412619	22.827622	13.225633	1.525795	-1.144205	2.940156	0.000000	-0.188703	0.000000	0.000010	-0.000001	0.000000	0.000000
33.961679	20.812485	14.785432	2.122636	-1.713417	2.812928	0.000000	-0.274056	0.000000	0.000010	-0.000001	0.000000	0.000000
34.510739	18.220854	17.033242	2.569545	-2.404672	2.640103	0.000000	-0.354548	0.000000	0.000009	-0.000001	0.000000	0.000000
34.956699	16.205842	19.043779	1.965013	-2.084837	2.498331	0.000000	-0.281620	0.000000	0.000009	-0.000001	0.000000	0.000000
35.397659	14.703338	20.706231	1.455262	-1.670891	2.389530	0.000000	-0.212326	0.000000	0.000008	-0.000001	0.000000	0.000000
35.838619	13.619485	21.968571	1.011999	-1.180921	2.310722	0.000000	-0.145451	0.000000	0.000008	-0.000001	0.000000	0.000000
36.279579	12.904768	22.773361	0.614971	-0.637221	2.261011	0.000000	-0.080233	0.000000	0.000007	-0.000001	0.000000	0.000000
36.721789	12.525839	23.084288	0.276649	-0.121186	2.239803	0.000000	-0.021420	0.000000	0.000007	-0.000000	0.000000	0.000000
37.019112	12.368929	23.160237	0.251096	-0.134255	2.233435	0.000000	-0.021420	0.000000	0.000007	-0.000000	0.000000	0.000000
37.352445	12.211081	23.254625	0.222447	-0.148907	2.226295	0.000000	-0.021420	0.000000	0.000007	-0.000000	0.000000	0.000000
37.685779	12.072333	23.358780	0.193799	-0.163559	2.219155	0.000000	-0.021420	0.000000	0.000007	-0.000000	0.000000	0.000000
38.020362	11.952270	23.473149	0.165043	-0.178266	2.211988	0.000000	-0.021420	0.000000	0.000006	-0.000000	0.000000	0.000000
38.317684	11.861726	23.583040	0.168576	-0.249164	2.205619	0.000000	-0.026829	0.000000	0.000006	-0.000000	0.000000	0.000000
38.758644	11.864330	23.541584	-0.174504	0.342818	2.207716	0.000000	0.036348	0.000000	0.000006	-0.000000	0.000000	0.000000
39.199604	12.171862	22.982957	-0.525557	0.919203	2.237736	0.000000	0.099938	0.000000	0.000006	-0.000000	0.000000	0.000000
39.640564	12.798373	21.932576	-0.900621	1.453765	2.296021	0.000000	0.164667	0.000000	0.000006	-0.000000	0.000000	0.000000
40.081524	13.772485	20.438232	-1.316832	1.922182	2.383234	0.000000	0.231272	0.000000	0.000006	0.000000	0.000000	0.000000
40.527484	15.156272	18.545349	-1.797030	2.304420	2.501842	0.000000	0.300916	0.000000	0.000006	0.000000	0.000000	0.000000
41.076544	16.922308	16.418291	-1.400401	1.592445	2.646533	0.000000	0.225359	0.000000	0.000006	0.000000	0.000000	0.000000
41.625604	18.195568	15.006568	-0.904854	0.993896	2.748579	0.000000	0.145806	0.000000	0.000006	-0.000000	0.000000	0.000000
42.174664	18.886116	14.209625	-0.345393	0.466140	2.806170	0.000000	0.063666	0.000000	0.000006	-0.000000	0.000000	0.000000
42.723724	18.945175	13.970698	0.238465	-0.028414	2.818285	0.000000	-0.019603	0.000000	0.000006	-0.000000	0.000000	0.000000
43.022297	18.837208	13.972250	0.172645	-0.013286	2.814630	0.000000	-0.012240	0.000000	0.000006	-0.000000	0.000000	0.000000
43.502297	18.684064	14.001497	0.146404	-0.047646	2.808755	0.000000	-0.012240	0.000000	0.000006	-0.000000	0.000000	0.000000
43.982297	18.556112	14.063730	0.120163	-0.082006	2.802880	0.000000	-0.012240	0.000000	0.000005	-0.000000	0.000000	0.000000
44.462297	18.453352	14.158948	0.093922	-0.116366	2.797005	0.000000	-0.012240	0.000000	0.000005	-0.000000	0.000000	0.000000
44.942297	18.375782	14.287152	0.067681	-0.150725	2.791130	0.000000	-0.012240	0.000000	0.000005	-0.000000	0.000000	0.000000
45.423547	18.323528	14.448625	-0.049413	-0.113587	2.785257	0.000000	0.001560	0.000000	0.000005	-0.000000	0.000000	0.000000
45.720870	18.357747	14.522367	-0.113643	-0.096488	2.785721	0.000000	0.008838	0.000000	0.000005	-0.000000	0.000000	0.000000
46.269930	18.173427	14.909251	0.447356	-0.612301	2.768002	0.000000	-0.073285	0.000000	0.000004	-0.000001	0.000000	0.000000
46.818990	17.386848	15.883041	0.976756	-1.171727	2.705484	0.000000	-0.154109	0.000000	0.000004	-0.000001	0.000000	0.000000
47.368050	16.053568	17.513098	1.437163	-1.814612	2.599275	0.000000	-0.232199	0.000000	0.000003	-0.000001	0.000000	0.000000
47.917110	14.267765	19.915528	1.796056	-2.586748	2.451259	0.000000	-0.306170	0.000000	0.000003	-0.000001	0.000000	0.000000
48.363070	12.877976	22.051568	1.331384	-2.182873	2.330012	0.000000	-0.237873	0.000000	0.000003	-0.000001	0.000000	0.000000
48.804030	11.883991	23.761868	0.931307	-1.680950	2.239579	0.000000	-0.172682	0.000000	0.000002	-0.000001	0.000000	0.000000
49.244990	11.222816	24.993966	0.573779	-1.102545	2.177433	0.000000	-0.109458	0.000000	0.000002	-0.000001	0.000000	0.000000
49.685950	10.864246	25.691804	0.242465	-0.473975	2.142864	0.000000	-0.047480	0.000000	0.000002	-0.000001	0.000000	0.000000
50.128160	10.792026	25.823349	-0.051423	0.112785	2.135491	0.000000	0.008720	0.000000	0.000001	-0.000001	0.000000	0.000000
50.425482	10.830818	25.759748	-0.079046	0.101125	2.138084	0.000000	0.008720	0.000000	0.000001	-0.000001	0.000000	0.000000
50.758816	10.893838	25.696689	-0.110015	0.088052	2.140991	0.000000	0.008720	0.000000	0.000001	-0.000001	0.000000	0.000000
51.092149	10.977504	25.642345	-0.140984	0.074980	2.143898	0.000000	0.008720	0.000000	0.000001	-0.000001	0.000000	0.000000
51.426732	11.082022	25.597080	-0.082164	-0.145797	2.146794	0.000000	-0.008696	0.000000	0.000000	-0.000001	0.000000	0.000000
51.724055	11.138911	25.687305	-0.081859	-0.220653	2.144208	0.000000	-0.013955	0.000000	0.000000	-0.000001	0.000000	0.000000
52.165015	11.356519	25.596145	-0.413500	0.426598	2.151643	0.000000	0.047708	0.000000	-0.000000	-0.000001	0.000000	0.000000
52.605975	11.873801	24.940572	-0.764032	1.054439	2.186363	0.000000	0.109914	0.000000	-0.000000	-0.000001	0.000000	0.000000
53.046935	12.714391	23.750415	-1.149472	1.634304	2.248762	0.000000	0.173371	0.000000	-0.000001	-0.000001	0.000000	0.000000
53.487895	13.916692	22.079825	-1.587427	2.139809	2.339553	0.000000	0.238803	0.000000	-0.000001	-0.000001	0.000000	0.000000
53.933855	15.556241	19.979833	-2.102142	2.549290	2.461272	0.000000	0.307354	0.000000	-0.000001	-0.000001	0.000000	0.000000
54.482915	17.667075	17.616871	-1.719551	1.779762	2.609848	0.000000	0.233049	0.000000	-0.000002	-0.000001	0.000000	0.000000
55.031975	19.288190	16.024790	-1.215499	1.137003	2.716430	0.000000	0.154611	0.000000	-0.000002	-0.000001	0.000000	0.000000
55.581035	20.305078	15.090188	-0.625591	0.575230	2.779126	0.000000	0.073430	0.000000	-0.000002	-0.000001	0.000000	0.000000
56.130095	20.645912	14.746497	0.008506	0.054429	2.796826	0.000000	-0.009053	0.000000	-0.000003	-0.000000	0.000000	0.000000
56.428668	20.677372	14.697084	-0.059930	0.072538	2.796305	0.000000	-0.001746	0.000000	-0.000003	-0.000000	0.000000	0.000000
56.762001	20.722718	14.656325	-0.076109	0.049738	2.795723	0.000000	-0.001746	0.000000	-0.000003	-0.000000	0.000000	0.000000
57.095334	20.778851	14.630766	-0.092287	0.026939	2.795142	0.000000	-0.001746	0.000000	-0.000003	-0.000000	0.000000	0.000000
57.429918	20.846040	14.620396	-0.108527	0.004054	2.794558	0.000000	-0.001746	0.000000	-0.000003	-0.000000	0.000000	0.000000
57.727240	20.914865	14.624032	-0.177606	0.021928	2.794039	0.000000	0.005555	0.000000	-0.000004	-0.000000	0.000000	0.000000
58.276300	20.753045	14.880823	0.470584	-0.492380	2.774449	0.000000	-0.076807	0.000000	-0.000004	-0.000000	0.000000	0.000000
58.825360	19.893555	15.718215	1.085534	-1.041760	2.709946	0.000000	-0.157808	0.000000	-0.000004	-0.000000	0.000000	0.000000
59.374420	18.397106	17.195854	1.623807	-1.665341	2.601672	0.000000	-0.236008	0.000000	-0.000004	-0.000000	0.000000	0.000000
59.923480	16.369400	19.418988	2.047382	-2.407542	2.451549	0.000000	-0.310023	0.000000	-0.000004	0.000000	0.000000	0.000000
60.369440	14.782267	21.394980	1.524133	-2.004628	2.328581	0.000000	-0.241741	0.000000	-0.000004	-0.000000	0.000000	0.000000
60.810400	13.640605	22.951541	1.074727	-1.511877	2.236431	0.000000	-0.176609	0.000000	-0.000004	-0.000000	0.000000	0.000000
61.251360	12.872216	24.041426	0.674421	-0.950336	2.172531	0.000000	-0.113489	0.000000	-0.000004	-0.000000	0.000000	0.000000
61.692320	12.441994	24.615045	0.304928	-0.345556	2.136154	0.000000	-0.051661	0.000000	-0.000004	-0.000000	0.000000	0.000000
62.134530	12.330335	24.645764	-0.020496	0.214451	2.126890	0.000000	0.004362	0.000000	-0.000005	-0.000001	0.000000	0.000000
62.431853	12.349696	24.521994	-0.044619	0.201832	2.128187	0.000000	0.004362	0.000000	-0.000005	-0.000001	0.000000	0.000000
62.765186	12.388457	24.392155	-0.071664	0.187685	2.129642	0.000000	0.004362	0.000000	-0.000005	-0.000001	0.000000	0.000000
63.098520	12.445248	24.271747	-0.098709	0.173538	2.131096	0.000000	0.004362	0.000000	-0.000005	-0.000001	0.000000	0.000000
63.433103	12.520383	24.160372	-0.125855	0.159338	2.132556	0.000000	0.004362	0.000000	-0.000005	-0.000001	0.000000	0.000000
63.730426	12.602395	24.069375	-0.119072	0.087691	2.133853	0.000000	-0.000871	0.000000	-0.000006	-0.000001	0.000000	0.000000
64.171386	12.867854	23.726951	-0.485215	0.685895	2.147009	0.000000	0.060599	0.000000	-0.000006	-0.000001	0.000000	0.000000
64.612346	13.464740	22.868758	-0.873526	1.252891	2.187398	0.000000	0.122758	0.000000	-0.000006	-0.000001	0.000000	0.000000
65.053306	14.420322	21.533843	-1.301745	1.762882	2.255478	0.000000	0.186315	0.000000	-0.000007	-0.000001	0.000000	0.000000
65.494266	15.778259	19.782944	-1.789438	2.192663	2.352025	0.000000	0.251995	0.000000	-0.000007	-0.000001	0.000000	0.000000
65.940226	17.623756	17.670941	-2.363578	2.523436	2.479711	0.000000	0.320946	0.000000	-0.000008	-0.000001	0.000000	0.000000
66.489286	19.989383	15.308213	-1.919423	1.805189	2.635565	0.000000	0.245926	0.000000	-0.000008	-0.000001	0.000000	0.000000
67.038346	21.789487	13.659393	-1.339689	1.215523	2.748968	0.000000	0.166544	0.000000	-0.000009	-0.000001	0.000000	0.000000
67.587406	22.896916	12.607041	-0.665327	0.712435	2.817908	0.000000	0.084208	0.000000	-0.000009	-0.000001	0.000000	0.000000
68.136466	23.233447	12.076199	0.056031	0.260092	2.841164	0.000000	0.000378	0.000000	-0.000009	-0.000000	0.000000	0.000000
68.435038	23.240078	11.910052	-0.017529	0.264821	2.843494	0.000000	0.007802	0.000000	-0.000009	-0.000000	0.000000	0.000000
68.768372	23.256547	11.743489	-0.031877	0.234870	2.846094	0.000000	0.007802	0.000000	-0.000009	-0.000000	0.000000	0.000000
69.101705	23.282580	11.596892	-0.046224	0.204920	2.848695	0.000000	0.007802	0.000000	-0.000010	-0.000000	0.000000	0.000000
69.436288	23.318330	11.469825	-0.060626	0.174857	2.851305	0.000000	0.007802	0.000000	-0.000010	-0.000000	0.000000	0.000000
69.733611	23.358186	11.373790	-0.134459	0.177863	2.853625	0.000000	0.015258	0.000000	-0.000010	-0.000000	0.000000	0.000000
70.282671	23.104680	11.406202	0.593435	-0.237242	2.838819	0.000000	-0.069112	0.000000	-0.000010	0.000000	0.000000	0.000000
