#ParticleID	Turn	x[m]	xp	y[m]	yp	z[m]	dE[GeV]# s	beta_x	beta_y	alpha_x	alpha_y	D_x	D_y	D_px	D_py	orbit_x	orbit_px	orbit_y	orbit_py
0.300000	11.800691	25.067965	-0.009918	-0.026619	2.618465	0.000000	-0.000123	0.000000	-0.000002	0.000002	0.000000	0.000000
0.601250	11.814357	25.087625	-0.035449	-0.038645	2.618427	0.000000	-0.000123	0.000000	-0.000001	0.000002	0.000000	0.000000
0.898573	11.842928	25.114134	-0.031604	-0.112101	2.618390	0.000000	-0.006545	0.000000	-0.000001	0.000002	0.000000	0.000000
1.339533	12.022777	24.934388	-0.377801	0.518173	2.631798	0.000000	0.067419	0.000000	0.000000	0.000002	0.000000	0.000000
1.780493	12.514373	24.207104	-0.741258	1.124871	2.677959	0.000000	0.142151	0.000000	0.000001	0.000002	0.000000	0.000000
2.221453	13.340174	22.965372	-1.138581	1.680388	2.757399	0.000000	0.218501	0.000000	0.000002	0.000002	0.000000	0.000000
2.662413	14.537911	21.265690	-1.587923	2.159448	2.871023	0.000000	0.297340	0.000000	0.000003	0.000002	0.000000	0.000000
3.108373	16.183013	19.160469	-2.114097	2.541389	3.021985	0.000000	0.380055	0.000000	0.000004	0.000002	0.000000	0.000000
3.657433	18.292642	16.795926	-1.705414	1.790560	3.205386	0.000000	0.287019	0.000000	0.000005	0.000002	0.000000	0.000000
4.206493	19.884282	15.181431	-1.176270	1.167268	3.336229	0.000000	0.188891	0.000000	0.000006	0.000002	0.000000	0.000000
4.755553	20.845507	14.201987	-0.564039	0.627118	3.412193	0.000000	0.087413	0.000000	0.000007	0.000002	0.000000	0.000000
5.304613	21.108420	13.787830	0.088032	0.131636	3.431932	0.000000	-0.015616	0.000000	0.000008	0.000001	0.000000	0.000000
5.603185	21.093012	13.694361	0.018723	0.145395	3.429946	0.000000	-0.006649	0.000000	0.000008	0.000001	0.000000	0.000000
5.936519	21.085799	13.605716	0.002915	0.120539	3.427729	0.000000	-0.006649	0.000000	0.000009	0.000001	0.000000	0.000000
6.269852	21.089125	13.533642	-0.012894	0.095684	3.425512	0.000000	-0.006649	0.000000	0.000009	0.000001	0.000000	0.000000
6.604435	21.103063	13.477961	-0.028762	0.070735	3.423287	0.000000	-0.006649	0.000000	0.000010	0.000001	0.000000	0.000000
6.901758	21.124358	13.442490	-0.098052	0.083685	3.421310	0.000000	0.002289	0.000000	0.000010	0.000001	0.000000	0.000000
7.450818	20.872053	13.611593	0.554855	-0.393489	3.394368	0.000000	-0.100278	0.000000	0.000011	0.000001	0.000000	0.000000
7.999878	19.920155	14.316913	1.168569	-0.898690	3.311517	0.000000	-0.201067	0.000000	0.000011	0.000001	0.000000	0.000000
8.548938	18.335902	15.608689	1.699742	-1.467902	3.174227	0.000000	-0.298290	0.000000	0.000012	0.000000	0.000000	0.000000
9.097998	16.231197	17.578932	2.110853	-2.141671	2.984931	0.000000	-0.390222	0.000000	0.000012	0.000000	0.000000	0.000000
9.543958	14.589201	19.334479	1.584173	-1.778247	2.829211	0.000000	-0.308529	0.000000	0.000012	0.000000	0.000000	0.000000
9.984918	13.395058	20.712608	1.134153	-1.335152	2.710405	0.000000	-0.230835	0.000000	0.000012	0.000001	0.000000	0.000000
10.425878	12.573535	21.671580	0.735948	-0.831309	2.625247	0.000000	-0.155770	0.000000	0.000012	0.000001	0.000000	0.000000
10.866838	12.087098	22.167763	0.371367	-0.289641	2.572767	0.000000	-0.082479	0.000000	0.000013	0.000001	0.000000	0.000000
11.309048	11.913392	22.178052	0.052859	0.210764	2.552348	0.000000	-0.016385	0.000000	0.000013	0.000002	0.000000	0.000000
11.606371	11.889401	22.056885	0.027833	0.196762	2.547476	0.000000	-0.016385	0.000000	0.000014	0.000002	0.000000	0.000000
12.086371	11.882075	21.878844	-0.012571	0.174158	2.539610	0.000000	-0.016385	0.000000	0.000015	0.000002	0.000000	0.000000
12.566371	11.913536	21.722502	-0.052974	0.151553	2.531745	0.000000	-0.016385	0.000000	0.000015	0.000002	0.000000	0.000000
13.046371	11.983785	21.587861	-0.093377	0.128949	2.523879	0.000000	-0.016385	0.000000	0.000016	0.000002	0.000000	0.000000
13.526371	12.092821	21.474920	-0.133781	0.106344	2.516013	0.000000	-0.016385	0.000000	0.000017	0.000002	0.000000	0.000000
14.007621	12.241080	21.383471	-0.174289	0.083681	2.508127	0.000000	-0.016385	0.000000	0.000018	0.000002	0.000000	0.000000
14.304943	12.352161	21.337873	-0.169030	0.017362	2.503255	0.000000	-0.022523	0.000000	0.000018	0.000002	0.000000	0.000000
14.745903	12.659702	21.089044	-0.531050	0.544780	2.508948	0.000000	0.048373	0.000000	0.000019	0.000002	0.000000	0.000000
15.186863	13.295967	20.384269	-0.917332	1.047411	2.545995	0.000000	0.119820	0.000000	0.000020	0.000002	0.000000	0.000000
15.627823	14.290027	19.255616	-1.345525	1.502385	2.614818	0.000000	0.192632	0.000000	0.000021	0.000003	0.000000	0.000000
16.068783	15.687295	17.754437	-1.835191	1.889002	2.716201	0.000000	0.267637	0.000000	0.000022	0.000004	0.000000	0.000000
16.514743	17.575277	15.927537	-2.413461	2.190412	2.852991	0.000000	0.346153	0.000000	0.000024	0.000004	0.000000	0.000000
17.063803	20.000265	13.887742	-1.977009	1.546582	3.019330	0.000000	0.258869	0.000000	0.000026	0.000003	0.000000	0.000000
17.612863	21.865991	12.490672	-1.400910	1.012912	3.136413	0.000000	0.166992	0.000000	0.000028	0.000002	0.000000	0.000000
18.161923	23.040670	11.636817	-0.725859	0.551389	3.202161	0.000000	0.072154	0.000000	0.000029	0.000002	0.000000	0.000000
18.710983	23.441327	11.265358	0.000464	0.129140	3.215410	0.000000	-0.023964	0.000000	0.000029	0.000001	0.000000	0.000000
19.009556	23.481432	11.178783	-0.073553	0.131397	3.210762	0.000000	-0.015565	0.000000	0.000030	0.000001	0.000000	0.000000
19.342889	23.535224	11.101295	-0.087825	0.101064	3.205574	0.000000	-0.015565	0.000000	0.000030	0.000001	0.000000	0.000000
19.676223	23.598532	11.044031	-0.102097	0.070731	3.200385	0.000000	-0.015565	0.000000	0.000030	0.000001	0.000000	0.000000
20.010806	23.671938	11.006750	-0.233707	0.094818	3.195197	0.000000	0.000266	0.000000	0.000030	0.000001	0.000000	0.000000
20.308129	23.814850	10.958471	-0.309161	0.096188	3.195276	0.000000	0.008612	0.000000	0.000031	0.000001	0.000000	0.000000
20.857189	23.743582	11.074661	0.438192	-0.309052	3.173801	0.000000	-0.086720	0.000000	0.000031	-0.000000	0.000000	0.000000
21.406249	22.863840	11.645256	1.154593	-0.736305	3.100329	0.000000	-0.180514	0.000000	0.000031	-0.000001	0.000000	0.000000
21.955309	21.237763	12.710901	1.789439	-1.216003	2.976164	0.000000	-0.271107	0.000000	0.000030	-0.000002	0.000000	0.000000
22.504369	18.980210	14.347498	2.297888	-1.782315	2.803507	0.000000	-0.356891	0.000000	0.000028	-0.000003	0.000000	0.000000
22.950329	17.200924	15.817006	1.705982	-1.498938	2.661632	0.000000	-0.279724	0.000000	0.000027	-0.000002	0.000000	0.000000
23.391289	15.925788	16.988752	1.196714	-1.148212	2.554599	0.000000	-0.206198	0.000000	0.000026	-0.000002	0.000000	0.000000
23.832249	15.074069	17.826880	0.742122	-0.745243	2.479439	0.000000	-0.135021	0.000000	0.000026	-0.000001	0.000000	0.000000
24.273209	14.606856	18.293253	0.321434	-0.308365	2.435296	0.000000	-0.065381	0.000000	0.000025	-0.000000	0.000000	0.000000
24.715418	14.502924	18.366410	-0.049097	0.097444	2.421666	0.000000	-0.002423	0.000000	0.000026	0.000000	0.000000	0.000000
25.012741	14.538230	18.313325	-0.069648	0.081102	2.420945	0.000000	-0.002423	0.000000	0.000026	0.000000	0.000000	0.000000
25.346075	14.592342	18.265364	-0.092687	0.062780	2.420137	0.000000	-0.002423	0.000000	0.000026	0.000000	0.000000	0.000000
25.679408	14.661813	18.229618	-0.115726	0.044459	2.419330	0.000000	-0.002423	0.000000	0.000026	0.000000	0.000000	0.000000
26.013991	14.746691	18.206390	-0.019217	-0.121630	2.418494	0.000000	-0.022044	0.000000	0.000026	0.000000	0.000000	0.000000
26.311314	14.764115	18.283644	-0.003189	-0.183029	2.411940	0.000000	-0.027957	0.000000	0.000026	0.000000	0.000000	0.000000
26.752274	14.948803	18.246811	-0.417229	0.266241	2.414713	0.000000	0.040547	0.000000	0.000026	0.000001	0.000000	0.000000
27.193234	15.505634	17.817606	-0.850331	0.703397	2.447767	0.000000	0.109514	0.000000	0.000027	0.000001	0.000000	0.000000
27.634194	16.460049	17.015558	-1.322282	1.108549	2.511477	0.000000	0.179727	0.000000	0.000027	0.000002	0.000000	0.000000
28.075154	17.855654	15.877160	-1.854645	1.463262	2.606570	0.000000	0.251987	0.000000	0.000029	0.000003	0.000000	0.000000
28.521114	19.780450	14.437055	-2.476715	1.752310	2.735730	0.000000	0.327561	0.000000	0.000030	0.000004	0.000000	0.000000
29.070174	22.226851	12.832616	-1.952523	1.187093	2.892932	0.000000	0.244224	0.000000	0.000032	0.000003	0.000000	0.000000
29.619234	24.018022	11.799060	-1.290414	0.706429	3.003119	0.000000	0.156554	0.000000	0.000033	0.000002	0.000000	0.000000
30.168294	25.027444	11.262767	-0.537156	0.276083	3.064336	0.000000	0.066108	0.000000	0.000033	0.000000	0.000000	0.000000
30.717354	25.183816	11.185539	0.254043	-0.134598	3.075498	0.000000	-0.025510	0.000000	0.000033	-0.000001	0.000000	0.000000
31.015927	25.075062	11.256525	0.175985	-0.132370	3.070280	0.000000	-0.017477	0.000000	0.000033	-0.000001	0.000000	0.000000
31.349260	24.962307	11.354815	0.162280	-0.162501	3.064455	0.000000	-0.017477	0.000000	0.000033	-0.000001	0.000000	0.000000
31.682593	24.858689	11.473193	0.148575	-0.192632	3.058629	0.000000	-0.017477	0.000000	0.000033	-0.000001	0.000000	0.000000
32.017177	24.763871	11.612215	0.134818	-0.222877	3.052782	0.000000	-0.017477	0.000000	0.000033	-0.000001	0.000000	0.000000
32.314499	24.687336	11.752738	0.058108	-0.219053	3.047586	0.000000	-0.009516	0.000000	0.000033	-0.000000	0.000000	0.000000
32.863559	24.200512	12.232453	0.823293	-0.659805	3.017497	0.000000	-0.099924	0.000000	0.000032	-0.000001	0.000000	0.000000
33.412619	22.900538	13.218978	1.530324	-1.147553	2.938184	0.000000	-0.188559	0.000000	0.000031	-0.000002	0.000000	0.000000
33.961679	20.879239	14.782581	2.129261	-1.717038	2.811054	0.000000	-0.273850	0.000000	0.000029	-0.000003	0.000000	0.000000
34.510739	18.279389	17.034635	2.577798	-2.408825	2.638360	0.000000	-0.354283	0.000000	0.000027	-0.000004	0.000000	0.000000
34.956699	16.257835	19.049058	1.971481	-2.089362	2.496697	0.000000	-0.281398	0.000000	0.000025	-0.000004	0.000000	0.000000
35.397659	14.750294	20.715588	1.460257	-1.675578	2.387985	0.000000	-0.212146	0.000000	0.000024	-0.000003	0.000000	0.000000
35.838619	13.662600	21.982053	1.015748	-1.185556	2.309250	0.000000	-0.145310	0.000000	0.000023	-0.000002	0.000000	0.000000
36.279579	12.945060	22.790830	0.617646	-0.641592	2.259593	0.000000	-0.080128	0.000000	0.000022	-0.000002	0.000000	0.000000
36.721789	12.564196	23.105432	0.278462	-0.125140	2.238424	0.000000	-0.021348	0.000000	0.000021	-0.000001	0.000000	0.000000
37.019112	12.406191	23.183732	0.252962	-0.138209	2.232077	0.000000	-0.021348	0.000000	0.000021	-0.000001	0.000000	0.000000
37.352445	12.247079	23.280756	0.224375	-0.152862	2.224961	0.000000	-0.021348	0.000000	0.000020	-0.000001	0.000000	0.000000
37.685779	12.107025	23.387548	0.195787	-0.167514	2.217846	0.000000	-0.021348	0.000000	0.000020	-0.000001	0.000000	0.000000
38.020362	11.985611	23.504564	0.167092	-0.182222	2.210704	0.000000	-0.021348	0.000000	0.000019	-0.000001	0.000000	0.000000
38.317684	11.893832	23.616807	0.170755	-0.253197	2.204357	0.000000	-0.026753	0.000000	0.000019	-0.000001	0.000000	0.000000
38.758644	11.894833	23.578501	-0.173034	0.339736	2.206481	0.000000	0.036392	0.000000	0.000018	-0.000001	0.000000	0.000000
39.199604	12.201356	23.022121	-0.524728	0.917211	2.236513	0.000000	0.099951	0.000000	0.000018	-0.000001	0.000000	0.000000
39.640564	12.827404	21.972980	-0.900396	1.452954	2.294796	0.000000	0.164648	0.000000	0.000018	-0.000000	0.000000	0.000000
40.081524	13.801580	20.478815	-1.317201	1.922588	2.381995	0.000000	0.231221	0.000000	0.000018	0.000000	0.000000	0.000000
40.527484	15.185968	18.585025	-1.798013	2.306035	2.500572	0.000000	0.300832	0.000000	0.000018	0.000001	0.000000	0.000000
41.076544	16.952452	16.456781	-1.400229	1.593004	2.645229	0.000000	0.225317	0.000000	0.000018	0.000000	0.000000	0.000000
41.625604	18.224892	15.045002	-0.903540	0.993438	2.747263	0.000000	0.145806	0.000000	0.000018	-0.000000	0.000000	0.000000
42.174664	18.913409	14.249131	-0.343030	0.464634	2.804867	0.000000	0.063709	0.000000	0.000018	-0.000001	0.000000	0.000000
42.723724	18.969370	14.012479	0.241711	-0.031076	2.817017	0.000000	-0.019519	0.000000	0.000017	-0.000001	0.000000	0.000000
43.022297	18.859499	14.015538	0.175834	-0.015778	2.813387	0.000000	-0.012160	0.000000	0.000017	-0.000001	0.000000	0.000000
43.502297	18.703293	14.047128	0.149595	-0.050034	2.807551	0.000000	-0.012160	0.000000	0.000016	-0.000001	0.000000	0.000000
43.982297	18.572276	14.111603	0.123357	-0.084290	2.801715	0.000000	-0.012160	0.000000	0.000016	-0.000001	0.000000	0.000000
44.462297	18.466448	14.208965	0.097119	-0.118546	2.795879	0.000000	-0.012160	0.000000	0.000015	-0.000001	0.000000	0.000000
44.942297	18.385808	14.339212	0.070881	-0.152803	2.790043	0.000000	-0.012160	0.000000	0.000014	-0.000001	0.000000	0.000000
45.423547	18.330473	14.502634	-0.046245	-0.115293	2.784209	0.000000	0.001635	0.000000	0.000014	-0.000001	0.000000	0.000000
45.720870	18.362805	14.577369	-0.110474	-0.097983	2.784696	0.000000	0.008910	0.000000	0.000013	-0.000001	0.000000	0.000000
46.269930	18.174940	14.966820	0.450605	-0.615509	2.767026	0.000000	-0.073181	0.000000	0.000012	-0.000002	0.000000	0.000000
46.818990	17.384855	15.945173	0.979854	-1.176876	2.704575	0.000000	-0.153974	0.000000	0.000011	-0.000002	0.000000	0.000000
47.368050	16.048356	17.582112	1.439892	-1.822070	2.598449	0.000000	-0.232035	0.000000	0.000010	-0.000002	0.000000	0.000000
47.917110	14.259849	19.994234	1.798223	-2.597046	2.450531	0.000000	-0.305981	0.000000	0.000009	-0.000003	0.000000	0.000000
48.363070	12.868162	22.138707	1.333489	-2.191406	2.329364	0.000000	-0.237702	0.000000	0.000007	-0.000003	0.000000	0.000000
48.804030	11.872311	23.855612	0.933448	-1.687337	2.239004	0.000000	-0.172527	0.000000	0.000006	-0.000002	0.000000	0.000000
49.244990	11.209196	25.092287	0.576054	-1.106496	2.176923	0.000000	-0.109317	0.000000	0.000005	-0.000002	0.000000	0.000000
49.685950	10.848521	25.792464	0.244979	-0.475310	2.142414	0.000000	-0.047352	0.000000	0.000004	-0.000002	0.000000	0.000000
50.128160	10.773929	25.924002	-0.048601	0.113883	2.135096	0.000000	0.008838	0.000000	0.000003	-0.000002	0.000000	0.000000
50.425482	10.811054	25.859737	-0.076263	0.102265	2.137725	0.000000	0.008838	0.000000	0.000003	-0.000002	0.000000	0.000000
50.758816	10.872233	25.795902	-0.107274	0.089240	2.140671	0.000000	0.008838	0.000000	0.000002	-0.000002	0.000000	0.000000
51.092149	10.954087	25.740750	-0.138286	0.076215	2.143618	0.000000	0.008838	0.000000	0.000001	-0.000002	0.000000	0.000000
51.426732	11.056814	25.694645	-0.079715	-0.145306	2.146554	0.000000	-0.008576	0.000000	0.000001	-0.000002	0.000000	0.000000
51.724055	11.112262	25.784563	-0.079525	-0.220354	2.144005	0.000000	-0.013833	0.000000	0.000000	-0.000002	0.000000	0.000000
52.165015	11.327527	25.692004	-0.410502	0.429459	2.151493	0.000000	0.047824	0.000000	-0.000001	-0.000002	0.000000	0.000000
52.605975	11.841823	25.032822	-0.760232	1.059732	2.186264	0.000000	0.110027	0.000000	-0.000002	-0.000002	0.000000	0.000000
53.046935	12.678645	23.837009	-1.144696	1.641788	2.248714	0.000000	0.173483	0.000000	-0.000003	-0.000002	0.000000	0.000000
53.487895	13.876226	22.158974	-1.581458	2.149144	2.339554	0.000000	0.238914	0.000000	-0.000004	-0.000002	0.000000	0.000000
53.933855	15.509813	20.049981	-2.094694	2.560055	2.461323	0.000000	0.307466	0.000000	-0.000005	-0.000002	0.000000	0.000000
54.482915	17.613092	17.676742	-1.713322	1.787827	2.609961	0.000000	0.233158	0.000000	-0.000006	-0.000002	0.000000	0.000000
55.031975	19.228243	16.077016	-1.210930	1.142943	2.716602	0.000000	0.154715	0.000000	-0.000007	-0.000002	0.000000	0.000000
55.581035	20.241178	15.136859	-0.623004	0.579468	2.779354	0.000000	0.073528	0.000000	-0.000008	-0.000002	0.000000	0.000000
56.130095	20.580351	14.789305	0.008927	0.057267	2.797106	0.000000	-0.008964	0.000000	-0.000009	-0.000001	0.000000	0.000000
56.428668	20.611473	14.738115	-0.059386	0.075538	2.796612	0.000000	-0.001655	0.000000	-0.000009	-0.000001	0.000000	0.000000
56.762001	20.656473	14.695339	-0.075615	0.052792	2.796061	0.000000	-0.001655	0.000000	-0.000010	-0.000001	0.000000	0.000000
57.095334	20.712293	14.667726	-0.091845	0.030045	2.795510	0.000000	-0.001655	0.000000	-0.000010	-0.000001	0.000000	0.000000
57.429918	20.779203	14.655260	-0.108135	0.007214	2.794957	0.000000	-0.001655	0.000000	-0.000011	-0.000001	0.000000	0.000000
57.727240	20.847808	14.657003	-0.177087	0.025224	2.794465	0.000000	0.005647	0.000000	-0.000011	-0.000001	0.000000	0.000000
58.276300	20.686654	14.910674	0.468859	-0.489963	2.774923	0.000000	-0.076730	0.000000	-0.000012	-0.000001	0.000000	0.000000
58.825360	19.830242	15.745812	1.081687	-1.040048	2.710458	0.000000	-0.157746	0.000000	-0.000012	-0.000001	0.000000	0.000000
59.374420	18.339064	17.221902	1.618110	-1.664214	2.602214	0.000000	-0.235964	0.000000	-0.000013	-0.000000	0.000000	0.000000
59.923480	16.318451	19.444081	2.040238	-2.406919	2.452111	0.000000	-0.309996	0.000000	-0.000013	0.000000	0.000000	0.000000
60.369440	14.736990	21.419111	1.518515	-2.003103	2.329158	0.000000	-0.241699	0.000000	-0.000013	-0.000000	0.000000	0.000000
60.810400	13.599711	22.973956	1.070366	-1.509526	2.237030	0.000000	-0.176552	0.000000	-0.000013	-0.000001	0.000000	0.000000
61.251360	12.834688	24.061441	0.671119	-0.947266	2.173159	0.000000	-0.113416	0.000000	-0.000013	-0.000001	0.000000	0.000000
61.692320	12.406969	24.632087	0.302533	-0.341907	2.136817	0.000000	-0.051572	0.000000	-0.000014	-0.000001	0.000000	0.000000
62.134530	12.297068	24.659383	-0.022172	0.218474	2.127597	0.000000	0.004467	0.000000	-0.000014	-0.000002	0.000000	0.000000
62.431853	12.317445	24.533224	-0.046362	0.205842	2.128925	0.000000	0.004467	0.000000	-0.000015	-0.000002	0.000000	0.000000
62.765186	12.357393	24.400717	-0.073482	0.191679	2.130415	0.000000	0.004467	0.000000	-0.000015	-0.000002	0.000000	0.000000
63.098520	12.415421	24.277652	-0.100602	0.177516	2.131904	0.000000	0.004467	0.000000	-0.000016	-0.000002	0.000000	0.000000
63.433103	12.491849	24.163620	-0.127824	0.163300	2.133400	0.000000	0.004467	0.000000	-0.000016	-0.000002	0.000000	0.000000
63.730426	12.575051	24.070271	-0.121172	0.091630	2.134728	0.000000	-0.000769	0.000000	-0.000017	-0.000002	0.000000	0.000000
64.171386	12.842105	23.724395	-0.486747	0.689756	2.147935	0.000000	0.060724	0.000000	-0.000018	-0.000002	0.000000	0.000000
64.612346	13.440118	22.862897	-0.874560	1.256497	2.188384	0.000000	0.122908	0.000000	-0.000018	-0.000002	0.000000	0.000000
65.053306	14.396410	21.524975	-1.302329	1.766070	2.256537	0.000000	0.186491	0.000000	-0.000020	-0.000003	0.000000	0.000000
65.494266	15.754673	19.771503	-1.789598	2.195287	2.353169	0.000000	0.252199	0.000000	-0.000021	-0.000003	0.000000	0.000000
65.940226	17.600125	17.657460	-2.363320	2.525370	2.480954	0.000000	0.321182	0.000000	-0.000023	-0.000004	0.000000	0.000000
66.489286	19.966018	15.292608	-1.920164	1.807148	2.636927	0.000000	0.246119	0.000000	-0.000025	-0.000003	0.000000	0.000000
67.038346	21.767462	13.641560	-1.341378	1.217646	2.750424	0.000000	0.166691	0.000000	-0.000026	-0.000002	0.000000	0.000000
67.587406	22.877213	12.586718	-0.667843	0.714873	2.819433	0.000000	0.084307	0.000000	-0.000027	-0.000002	0.000000	0.000000
68.136466	23.216884	12.052947	0.052864	0.263020	2.842730	0.000000	0.000427	0.000000	-0.000028	-0.000001	0.000000	0.000000
68.435038	23.225389	11.885114	-0.020672	0.267599	2.845076	0.000000	0.007856	0.000000	-0.000028	-0.000001	0.000000	0.000000
68.768372	23.243956	11.716733	-0.035031	0.237544	2.847695	0.000000	0.007856	0.000000	-0.000028	-0.000001	0.000000	0.000000
69.101705	23.272096	11.568388	-0.049389	0.207490	2.850314	0.000000	0.007856	0.000000	-0.000029	-0.000001	0.000000	0.000000
69.436288	23.309967	11.439637	-0.063801	0.177322	2.852943	0.000000	0.007856	0.000000	-0.000029	-0.000001	0.000000	0.000000
69.733611	23.351714	11.342163	-0.137637	0.180157	2.855279	0.000000	0.015318	0.000000	-0.000029	-0.000001	0.000000	0.000000
70.282671	23.101786	11.371562	0.590135	-0.234015	2.840491	0.000000	-0.069106	0.000000	-0.000029	0.000000	0.000000	0.000000
