#ParticleID	Turn	x[m]	xp	y[m]	yp	z[m]	dE[GeV]# s	beta_x	beta_y	alpha_x	alpha_y	D_x	D_y	D_px	D_py	orbit_x	orbit_px	orbit_y	orbit_py
0.300000	11.803694	25.057577	-0.010122	-0.026781	2.618328	0.000000	-0.000071	0.000000	-0.000001	0.000002	0.000000	0.000000
0.601250	11.817482	25.077337	-0.035646	-0.038812	2.618306	0.000000	-0.000071	0.000000	-0.000001	0.000002	0.000000	0.000000
0.898573	11.846169	25.103946	-0.031787	-0.112248	2.618285	0.000000	-0.006492	0.000000	-0.000000	0.000002	0.000000	0.000000
1.339533	12.026213	24.924449	-0.378063	0.517760	2.631716	0.000000	0.067469	0.000000	0.000000	0.000002	0.000000	0.000000
1.780493	12.518079	24.197640	-0.741611	1.124210	2.677899	0.000000	0.142199	0.000000	0.000001	0.000002	0.000000	0.000000
2.221453	13.344237	22.956589	-1.139041	1.679510	2.757360	0.000000	0.218548	0.000000	0.000002	0.000002	0.000000	0.000000
2.662413	14.542433	21.257762	-1.588510	2.158393	2.871004	0.000000	0.297387	0.000000	0.000003	0.000002	0.000000	0.000000
3.108373	16.188125	19.153545	-2.114840	2.540204	3.021987	0.000000	0.380102	0.000000	0.000004	0.000002	0.000000	0.000000
3.657433	18.298497	16.790143	-1.706015	1.789655	3.205413	0.000000	0.287064	0.000000	0.000005	0.000002	0.000000	0.000000
4.206493	19.890698	15.176518	-1.176685	1.166579	3.336281	0.000000	0.188935	0.000000	0.000006	0.000002	0.000000	0.000000
4.755553	20.852263	14.197735	-0.564241	0.626595	3.412270	0.000000	0.087455	0.000000	0.000006	0.000001	0.000000	0.000000
5.304613	21.115273	13.784078	0.088059	0.131243	3.432031	0.000000	-0.015576	0.000000	0.000007	0.000001	0.000000	0.000000
5.603185	21.099858	13.690850	0.018737	0.144989	3.430057	0.000000	-0.006609	0.000000	0.000008	0.000001	0.000000	0.000000
5.936519	21.092635	13.602477	0.002933	0.120130	3.427854	0.000000	-0.006609	0.000000	0.000008	0.000001	0.000000	0.000000
6.269852	21.095947	13.530677	-0.012870	0.095271	3.425650	0.000000	-0.006609	0.000000	0.000008	0.000001	0.000000	0.000000
6.604435	21.109867	13.475273	-0.028733	0.070319	3.423438	0.000000	-0.006609	0.000000	0.000009	0.000001	0.000000	0.000000
6.901758	21.131144	13.440051	-0.098037	0.083260	3.421473	0.000000	0.002330	0.000000	0.000009	0.000001	0.000000	0.000000
7.450818	20.878698	13.609585	0.555095	-0.393854	3.394552	0.000000	-0.100244	0.000000	0.000010	0.000001	0.000000	0.000000
7.999878	19.926420	14.315286	1.169017	-0.899022	3.311719	0.000000	-0.201039	0.000000	0.000010	0.000001	0.000000	0.000000
8.548938	18.341575	15.607419	1.700366	-1.468224	3.174442	0.000000	-0.298268	0.000000	0.000010	0.000000	0.000000	0.000000
9.097998	16.236109	17.578020	2.111609	-2.142005	2.985156	0.000000	-0.390207	0.000000	0.000010	-0.000000	0.000000	0.000000
9.543958	14.593509	19.333894	1.584776	-1.778641	2.829444	0.000000	-0.308509	0.000000	0.000011	0.000000	0.000000	0.000000
9.984918	13.398891	20.712390	1.134631	-1.335587	2.710648	0.000000	-0.230808	0.000000	0.000011	0.000001	0.000000	0.000000
10.425878	12.576993	21.671755	0.736323	-0.831764	2.625504	0.000000	-0.155737	0.000000	0.000011	0.000001	0.000000	0.000000
10.866838	12.090265	22.168341	0.371656	-0.290097	2.573040	0.000000	-0.082439	0.000000	0.000011	0.000001	0.000000	0.000000
11.309048	11.916337	22.179026	0.053083	0.210326	2.552640	0.000000	-0.016339	0.000000	0.000012	0.000001	0.000000	0.000000
11.606371	11.892211	22.058119	0.028062	0.196327	2.547782	0.000000	-0.016339	0.000000	0.000012	0.000001	0.000000	0.000000
12.086371	11.884660	21.880492	-0.012332	0.173728	2.539939	0.000000	-0.016339	0.000000	0.000013	0.000001	0.000000	0.000000
12.566371	11.915888	21.724561	-0.052726	0.151128	2.532096	0.000000	-0.016339	0.000000	0.000014	0.000001	0.000000	0.000000
13.046371	11.985895	21.590326	-0.093121	0.128529	2.524252	0.000000	-0.016339	0.000000	0.000014	0.000001	0.000000	0.000000
13.526371	12.094680	21.477786	-0.133515	0.105929	2.516409	0.000000	-0.016339	0.000000	0.000015	0.000001	0.000000	0.000000
14.007621	12.242679	21.386733	-0.174015	0.083271	2.508546	0.000000	-0.016339	0.000000	0.000016	0.000001	0.000000	0.000000
14.304943	12.353595	21.341378	-0.168746	0.016946	2.503687	0.000000	-0.022478	0.000000	0.000016	0.000001	0.000000	0.000000
14.745903	12.660897	21.092872	-0.530789	0.544467	2.509403	0.000000	0.048430	0.000000	0.000017	0.000002	0.000000	0.000000
15.186863	13.296937	20.388323	-0.917082	1.047215	2.546478	0.000000	0.119889	0.000000	0.000018	0.000002	0.000000	0.000000
15.627823	14.290777	19.259787	-1.345275	1.502316	2.615334	0.000000	0.192714	0.000000	0.000019	0.000003	0.000000	0.000000
16.068783	15.687820	17.758612	-1.834929	1.889062	2.716756	0.000000	0.267733	0.000000	0.000020	0.000003	0.000000	0.000000
16.514743	17.575558	15.931602	-2.413174	2.190600	2.853592	0.000000	0.346264	0.000000	0.000021	0.000004	0.000000	0.000000
17.063803	20.000204	13.891659	-1.976677	1.546667	3.019987	0.000000	0.258959	0.000000	0.000023	0.000003	0.000000	0.000000
17.612863	21.865552	12.494549	-1.400557	1.012900	3.137113	0.000000	0.167060	0.000000	0.000025	0.000002	0.000000	0.000000
18.161923	23.039843	11.640761	-0.725509	0.551279	3.202893	0.000000	0.072199	0.000000	0.000026	0.000001	0.000000	0.000000
18.710983	23.440130	11.269480	0.000785	0.128925	3.216160	0.000000	-0.023943	0.000000	0.000026	0.000001	0.000000	0.000000
19.009556	23.480042	11.183023	-0.073230	0.131205	3.211519	0.000000	-0.015542	0.000000	0.000026	0.000001	0.000000	0.000000
19.342889	23.533619	11.105660	-0.087503	0.100885	3.206338	0.000000	-0.015542	0.000000	0.000026	0.000001	0.000000	0.000000
19.676223	23.596712	11.048510	-0.101775	0.070564	3.201157	0.000000	-0.015542	0.000000	0.000027	0.000001	0.000000	0.000000
20.010806	23.669903	11.011337	-0.233375	0.094687	3.195977	0.000000	0.000293	0.000000	0.000027	0.000001	0.000000	0.000000
20.308129	23.812617	10.963132	-0.308825	0.096082	3.196064	0.000000	0.008642	0.000000	0.000027	0.000001	0.000000	0.000000
20.857189	23.741022	11.079509	0.438447	-0.309291	3.174598	0.000000	-0.086716	0.000000	0.000027	-0.000000	0.000000	0.000000
21.406249	22.861052	11.650447	1.154749	-0.736694	3.101121	0.000000	-0.180537	0.000000	0.000027	-0.000001	0.000000	0.000000
21.955309	21.234863	12.716613	1.789485	-1.216570	2.976937	0.000000	-0.271154	0.000000	0.000026	-0.000002	0.000000	0.000000
22.504369	18.977321	14.353948	2.297821	-1.783100	2.804246	0.000000	-0.356963	0.000000	0.000025	-0.000003	0.000000	0.000000
22.950329	17.198068	15.824088	1.705974	-1.499566	2.662344	0.000000	-0.279778	0.000000	0.000024	-0.000002	0.000000	0.000000
23.391289	15.922914	16.996308	1.196764	-1.148655	2.555291	0.000000	-0.206233	0.000000	0.000023	-0.000001	0.000000	0.000000
23.832249	15.071125	17.834738	0.742232	-0.745481	2.480120	0.000000	-0.135038	0.000000	0.000023	-0.000001	0.000000	0.000000
24.273209	14.603786	18.301228	0.321610	-0.308389	2.435973	0.000000	-0.065381	0.000000	0.000022	-0.000000	0.000000	0.000000
24.715418	14.499667	18.374309	-0.048855	0.097616	2.422347	0.000000	-0.002407	0.000000	0.000022	0.000000	0.000000	0.000000
25.012741	14.534830	18.321119	-0.069410	0.081280	2.421631	0.000000	-0.002407	0.000000	0.000023	0.000000	0.000000	0.000000
25.346075	14.588784	18.273037	-0.092454	0.062966	2.420828	0.000000	-0.002407	0.000000	0.000023	0.000000	0.000000	0.000000
25.679408	14.658101	18.237164	-0.115497	0.044652	2.420026	0.000000	-0.002407	0.000000	0.000023	0.000000	0.000000	0.000000
26.013991	14.742828	18.213804	-0.019024	-0.121490	2.419196	0.000000	-0.022034	0.000000	0.000023	0.000000	0.000000	0.000000
26.311314	14.760139	18.290973	-0.003010	-0.182900	2.412645	0.000000	-0.027949	0.000000	0.000023	0.000000	0.000000	0.000000
26.752274	14.944626	18.253939	-0.416951	0.266566	2.415426	0.000000	0.040574	0.000000	0.000023	0.000001	0.000000	0.000000
27.193234	15.501163	17.824366	-0.849940	0.703903	2.448495	0.000000	0.109559	0.000000	0.000023	0.000001	0.000000	0.000000
27.634194	16.455178	17.021799	-1.321762	1.109214	2.512229	0.000000	0.179791	0.000000	0.000024	0.000002	0.000000	0.000000
28.075154	17.850257	15.882756	-1.853970	1.464056	2.607355	0.000000	0.252071	0.000000	0.000025	0.000002	0.000000	0.000000
28.521114	19.774371	14.441899	-2.475855	1.753196	2.736558	0.000000	0.327666	0.000000	0.000026	0.000003	0.000000	0.000000
29.070174	22.219914	12.836599	-1.951830	1.187785	2.893810	0.000000	0.244301	0.000000	0.000028	0.000002	0.000000	0.000000
29.619234	24.010440	11.802365	-1.289938	0.706978	3.004031	0.000000	0.156603	0.000000	0.000029	0.000001	0.000000	0.000000
30.168294	25.019475	11.265531	-0.536931	0.276526	3.065267	0.000000	0.066127	0.000000	0.000029	0.000000	0.000000	0.000000
30.717354	25.175746	11.187859	0.254002	-0.134228	3.076431	0.000000	-0.025522	0.000000	0.000029	-0.000001	0.000000	0.000000
31.015927	25.067007	11.258617	0.175959	-0.131985	3.071210	0.000000	-0.017486	0.000000	0.000029	-0.000000	0.000000	0.000000
31.349260	24.954271	11.356648	0.162249	-0.162108	3.065381	0.000000	-0.017486	0.000000	0.000029	-0.000000	0.000000	0.000000
31.682593	24.850674	11.474761	0.148540	-0.192230	3.059553	0.000000	-0.017486	0.000000	0.000029	-0.000000	0.000000	0.000000
32.017177	24.755881	11.613511	0.134779	-0.222466	3.053703	0.000000	-0.017486	0.000000	0.000029	-0.000000	0.000000	0.000000
32.314499	24.679371	11.753788	0.058083	-0.218631	3.048504	0.000000	-0.009523	0.000000	0.000028	-0.000000	0.000000	0.000000
32.863559	24.192718	12.233045	0.823007	-0.659389	3.018404	0.000000	-0.099960	0.000000	0.000028	-0.000001	0.000000	0.000000
33.412619	22.893193	13.219103	1.529798	-1.147113	2.939063	0.000000	-0.188624	0.000000	0.000027	-0.000002	0.000000	0.000000
33.961679	20.872588	14.782196	2.128531	-1.716544	2.811889	0.000000	-0.273943	0.000000	0.000026	-0.000003	0.000000	0.000000
34.510739	18.273628	17.033661	2.576916	-2.408240	2.639137	0.000000	-0.354402	0.000000	0.000024	-0.000004	0.000000	0.000000
34.956699	16.252776	19.047548	1.970782	-2.088753	2.497425	0.000000	-0.281497	0.000000	0.000022	-0.000003	0.000000	0.000000
35.397659	14.745783	20.713541	1.459707	-1.674972	2.388673	0.000000	-0.212227	0.000000	0.000021	-0.000003	0.000000	0.000000
35.838619	13.658518	21.979484	1.015323	-1.184982	2.309906	0.000000	-0.145373	0.000000	0.000020	-0.000002	0.000000	0.000000
36.279579	12.941306	22.787778	0.617325	-0.641076	2.260225	0.000000	-0.080175	0.000000	0.000019	-0.000002	0.000000	0.000000
36.721789	12.560684	23.101959	0.278223	-0.124698	2.239038	0.000000	-0.021381	0.000000	0.000018	-0.000001	0.000000	0.000000
37.019112	12.402823	23.179996	0.252720	-0.137768	2.232682	0.000000	-0.021381	0.000000	0.000018	-0.000001	0.000000	0.000000
37.352445	12.243873	23.276725	0.224128	-0.152421	2.225555	0.000000	-0.021381	0.000000	0.000017	-0.000001	0.000000	0.000000
37.685779	12.103985	23.383224	0.195536	-0.167074	2.218429	0.000000	-0.021381	0.000000	0.000017	-0.000001	0.000000	0.000000
38.020362	11.982741	23.499945	0.166837	-0.181782	2.211275	0.000000	-0.021381	0.000000	0.000017	-0.000001	0.000000	0.000000
38.317684	11.891115	23.611928	0.170490	-0.252747	2.204919	0.000000	-0.026787	0.000000	0.000016	-0.000001	0.000000	0.000000
38.758644	11.892324	23.573284	-0.173240	0.340050	2.207031	0.000000	0.036372	0.000000	0.000016	-0.000001	0.000000	0.000000
39.199604	12.199006	23.016691	-0.524885	0.917375	2.237058	0.000000	0.099945	0.000000	0.000016	-0.000000	0.000000	0.000000
39.640564	12.825172	21.967475	-0.900510	1.452961	2.295342	0.000000	0.164657	0.000000	0.000015	-0.000000	0.000000	0.000000
40.081524	13.799432	20.473373	-1.317277	1.922438	2.382547	0.000000	0.231243	0.000000	0.000015	0.000000	0.000000	0.000000
40.527484	15.183873	18.579786	-1.798055	2.305733	2.501137	0.000000	0.300869	0.000000	0.000016	0.000001	0.000000	0.000000
41.076544	16.950455	16.451790	-1.400363	1.592850	2.645809	0.000000	0.225336	0.000000	0.000016	0.000000	0.000000	0.000000
41.625604	18.223089	15.040104	-0.903757	0.993422	2.747849	0.000000	0.145806	0.000000	0.000016	-0.000000	0.000000	0.000000
42.174664	18.911883	14.244176	-0.343313	0.464754	2.805447	0.000000	0.063689	0.000000	0.000016	-0.000001	0.000000	0.000000
42.723724	18.968183	14.007313	0.241380	-0.030811	2.817581	0.000000	-0.019557	0.000000	0.000015	-0.000001	0.000000	0.000000
43.022297	18.858508	14.010224	0.175506	-0.015533	2.813940	0.000000	-0.012196	0.000000	0.000015	-0.000001	0.000000	0.000000
43.502297	18.702616	14.041584	0.149269	-0.049802	2.808086	0.000000	-0.012196	0.000000	0.000014	-0.000001	0.000000	0.000000
43.982297	18.571911	14.105843	0.123032	-0.084071	2.802233	0.000000	-0.012196	0.000000	0.000013	-0.000001	0.000000	0.000000
44.462297	18.466394	14.203000	0.096796	-0.118340	2.796380	0.000000	-0.012196	0.000000	0.000013	-0.000001	0.000000	0.000000
44.942297	18.386064	14.333055	0.070559	-0.152609	2.790526	0.000000	-0.012196	0.000000	0.000012	-0.000001	0.000000	0.000000
45.423547	18.331037	14.496296	-0.046568	-0.115143	2.784675	0.000000	0.001601	0.000000	0.000012	-0.000001	0.000000	0.000000
45.720870	18.363561	14.570944	-0.110799	-0.097858	2.785151	0.000000	0.008878	0.000000	0.000011	-0.000001	0.000000	0.000000
46.269930	18.176037	14.960151	0.450314	-0.615186	2.767460	0.000000	-0.073228	0.000000	0.000011	-0.000002	0.000000	0.000000
46.818990	17.386242	15.938030	0.979619	-1.176332	2.704979	0.000000	-0.154034	0.000000	0.000010	-0.000002	0.000000	0.000000
47.368050	16.049964	17.574233	1.439728	-1.821266	2.598816	0.000000	-0.232108	0.000000	0.000009	-0.000002	0.000000	0.000000
47.917110	14.261591	19.985303	1.798143	-2.595924	2.450854	0.000000	-0.306066	0.000000	0.000007	-0.000002	0.000000	0.000000
48.363070	12.869985	22.128864	1.333387	-2.190489	2.329652	0.000000	-0.237778	0.000000	0.000006	-0.000002	0.000000	0.000000
48.804030	11.874236	23.845065	0.933319	-1.686666	2.239259	0.000000	-0.172596	0.000000	0.000005	-0.000002	0.000000	0.000000
49.244990	11.211248	25.081268	0.575893	-1.106100	2.177149	0.000000	-0.109380	0.000000	0.000004	-0.000002	0.000000	0.000000
49.685950	10.850733	25.781225	0.244777	-0.475208	2.142614	0.000000	-0.047409	0.000000	0.000004	-0.000002	0.000000	0.000000
50.128160	10.776340	25.912806	-0.048845	0.113713	2.135271	0.000000	0.008785	0.000000	0.000003	-0.000002	0.000000	0.000000
50.425482	10.813609	25.848643	-0.076502	0.102090	2.137884	0.000000	0.008785	0.000000	0.000002	-0.000002	0.000000	0.000000
50.758816	10.874945	25.784926	-0.107507	0.089060	2.140813	0.000000	0.008785	0.000000	0.000002	-0.000002	0.000000	0.000000
51.092149	10.956952	25.729896	-0.138513	0.076030	2.143742	0.000000	0.008785	0.000000	0.000001	-0.000002	0.000000	0.000000
51.426732	11.059829	25.683915	-0.079911	-0.145409	2.146660	0.000000	-0.008630	0.000000	0.000000	-0.000002	0.000000	0.000000
51.724055	11.115391	25.773897	-0.079707	-0.220436	2.144095	0.000000	-0.013888	0.000000	-0.000000	-0.000002	0.000000	0.000000
52.165015	11.330849	25.681534	-0.410759	0.429097	2.151559	0.000000	0.047772	0.000000	-0.000001	-0.000002	0.000000	0.000000
52.605975	11.845409	25.022790	-0.760576	1.059106	2.186307	0.000000	0.109976	0.000000	-0.000002	-0.000002	0.000000	0.000000
53.046935	12.682579	23.827635	-1.145143	1.640927	2.248734	0.000000	0.173432	0.000000	-0.000003	-0.000002	0.000000	0.000000
53.487895	13.880607	22.150450	-1.582028	2.148086	2.339552	0.000000	0.238864	0.000000	-0.000003	-0.000002	0.000000	0.000000
53.933855	15.514767	20.042470	-2.095414	2.558849	2.461299	0.000000	0.307415	0.000000	-0.000004	-0.000002	0.000000	0.000000
54.482915	17.618766	17.670386	-1.713905	1.786916	2.609909	0.000000	0.233109	0.000000	-0.000005	-0.000002	0.000000	0.000000
55.031975	19.234461	16.071529	-1.211333	1.142262	2.716523	0.000000	0.154668	0.000000	-0.000006	-0.000002	0.000000	0.000000
55.581035	20.247726	15.132017	-0.623199	0.578968	2.779251	0.000000	0.073484	0.000000	-0.000007	-0.000001	0.000000	0.000000
56.130095	20.586991	14.784929	0.008955	0.056913	2.796980	0.000000	-0.009004	0.000000	-0.000008	-0.000001	0.000000	0.000000
56.428668	20.618106	14.733958	-0.059371	0.075167	2.796474	0.000000	-0.001696	0.000000	-0.000008	-0.000001	0.000000	0.000000
56.762001	20.663094	14.691431	-0.075595	0.052416	2.795909	0.000000	-0.001696	0.000000	-0.000009	-0.000001	0.000000	0.000000
57.095334	20.718899	14.664070	-0.091819	0.029665	2.795344	0.000000	-0.001696	0.000000	-0.000009	-0.000001	0.000000	0.000000
57.429918	20.785790	14.651860	-0.108104	0.006828	2.794777	0.000000	-0.001696	0.000000	-0.000010	-0.000001	0.000000	0.000000
57.727240	20.854376	14.653834	-0.177069	0.024825	2.794274	0.000000	0.005606	0.000000	-0.000010	-0.000001	0.000000	0.000000
58.276300	20.693081	14.907896	0.469095	-0.490280	2.774710	0.000000	-0.076764	0.000000	-0.000011	-0.000001	0.000000	0.000000
58.825360	19.836296	15.743349	1.082125	-1.040306	2.710228	0.000000	-0.157773	0.000000	-0.000011	-0.000001	0.000000	0.000000
59.374420	18.344541	17.219697	1.618718	-1.664432	2.601971	0.000000	-0.235984	0.000000	-0.000011	-0.000000	0.000000	0.000000
59.923480	16.323186	19.442100	2.040973	-2.407111	2.451859	0.000000	-0.310008	0.000000	-0.000011	0.000000	0.000000	0.000000
60.369440	14.741137	21.417340	1.519102	-2.003379	2.328900	0.000000	-0.241718	0.000000	-0.000011	-0.000000	0.000000	0.000000
60.810400	13.603395	22.972460	1.070833	-1.509872	2.236762	0.000000	-0.176578	0.000000	-0.000011	-0.000000	0.000000	0.000000
61.251360	12.838005	24.060276	0.671487	-0.947667	2.172878	0.000000	-0.113449	0.000000	-0.000012	-0.000001	0.000000	0.000000
61.692320	12.409998	24.631292	0.302820	-0.342344	2.136520	0.000000	-0.051612	0.000000	-0.000012	-0.000001	0.000000	0.000000
62.134530	12.299875	24.658983	-0.021948	0.218023	2.127281	0.000000	0.004420	0.000000	-0.000013	-0.000001	0.000000	0.000000
62.431853	12.320117	24.533092	-0.046132	0.205392	2.128595	0.000000	0.004420	0.000000	-0.000013	-0.000001	0.000000	0.000000
62.765186	12.359910	24.400884	-0.073246	0.191232	2.130069	0.000000	0.004420	0.000000	-0.000014	-0.000001	0.000000	0.000000
63.098520	12.417778	24.278116	-0.100360	0.177072	2.131543	0.000000	0.004420	0.000000	-0.000014	-0.000001	0.000000	0.000000
63.433103	12.494041	24.164381	-0.127575	0.162858	2.133022	0.000000	0.004420	0.000000	-0.000014	-0.000001	0.000000	0.000000
63.730426	12.577094	24.071293	-0.120912	0.091189	2.134337	0.000000	-0.000815	0.000000	-0.000015	-0.000001	0.000000	0.000000
64.171386	12.843937	23.725791	-0.486527	0.689353	2.147521	0.000000	0.060667	0.000000	-0.000016	-0.000002	0.000000	0.000000
64.612346	13.441770	22.864624	-0.874369	1.256152	2.187944	0.000000	0.122840	0.000000	-0.000016	-0.000002	0.000000	0.000000
65.053306	14.397903	21.526976	-1.302159	1.765797	2.256064	0.000000	0.186412	0.000000	-0.000017	-0.000003	0.000000	0.000000
65.494266	15.756022	19.773708	-1.789440	2.195099	2.352658	0.000000	0.252108	0.000000	-0.000019	-0.000003	0.000000	0.000000
65.940226	17.601336	17.659792	-2.363167	2.525276	2.480399	0.000000	0.321076	0.000000	-0.000020	-0.000004	0.000000	0.000000
66.489286	19.967022	15.295060	-1.919942	1.807021	2.636319	0.000000	0.246033	0.000000	-0.000022	-0.000003	0.000000	0.000000
67.038346	21.768191	13.644175	-1.341101	1.217475	2.749774	0.000000	0.166625	0.000000	-0.000023	-0.000002	0.000000	0.000000
67.587406	22.877618	12.589549	-0.667533	0.714648	2.818753	0.000000	0.084262	0.000000	-0.000024	-0.000001	0.000000	0.000000
68.136466	23.216939	12.056063	0.053187	0.262723	2.842031	0.000000	0.000405	0.000000	-0.000025	-0.000001	0.000000	0.000000
68.435038	23.225249	11.888399	-0.020348	0.267321	2.844370	0.000000	0.007832	0.000000	-0.000025	-0.000001	0.000000	0.000000
68.768372	23.243600	11.720200	-0.034706	0.237278	2.846981	0.000000	0.007832	0.000000	-0.000025	-0.000001	0.000000	0.000000
69.101705	23.271524	11.572028	-0.049064	0.207236	2.849591	0.000000	0.007832	0.000000	-0.000025	-0.000001	0.000000	0.000000
69.436288	23.309178	11.443442	-0.063476	0.177081	2.852212	0.000000	0.007832	0.000000	-0.000026	-0.000001	0.000000	0.000000
69.733611	23.350731	11.346108	-0.137307	0.179936	2.854541	0.000000	0.015292	0.000000	-0.000026	-0.000001	0.000000	0.000000
70.282671	23.100462	11.375810	0.590423	-0.234351	2.839745	0.000000	-0.069108	0.000000	-0.000026	0.000000	0.000000	0.000000
