#ParticleID	Turn	x[m]	xp	y[m]	yp	z[m]	dE[GeV]# s	beta_x	beta_y	alpha_x	alpha_y	D_x	D_y	D_px	D_py	orbit_x	orbit_px	orbit_y	orbit_py
0.300000	11.803985	25.056507	-0.010144	-0.026796	2.618317	0.000000	-0.000067	0.000000	-0.000001	0.000002	0.000000	0.000000
0.601250	11.817786	25.076276	-0.035668	-0.038828	2.618296	0.000000	-0.000067	0.000000	-0.000001	0.000002	0.000000	0.000000
0.898573	11.846486	25.102895	-0.031808	-0.112261	2.618276	0.000000	-0.006488	0.000000	-0.000000	0.000002	0.000000	0.000000
1.339533	12.026552	24.923422	-0.378091	0.517719	2.631709	0.000000	0.067473	0.000000	0.000001	0.000002	0.000000	0.000000
1.780493	12.518446	24.196660	-0.741648	1.124143	2.677894	0.000000	0.142203	0.000000	0.000001	0.000002	0.000000	0.000000
2.221453	13.344642	22.955678	-1.139089	1.679420	2.757357	0.000000	0.218552	0.000000	0.000002	0.000002	0.000000	0.000000
2.662413	14.542886	21.256940	-1.588572	2.158285	2.871003	0.000000	0.297390	0.000000	0.000003	0.000002	0.000000	0.000000
3.108373	16.188640	19.152825	-2.114917	2.540083	3.021987	0.000000	0.380105	0.000000	0.000004	0.000002	0.000000	0.000000
3.657433	18.299089	16.789540	-1.706078	1.789563	3.205415	0.000000	0.287068	0.000000	0.000005	0.000002	0.000000	0.000000
4.206493	19.891350	15.176003	-1.176730	1.166509	3.336285	0.000000	0.188939	0.000000	0.000006	0.000002	0.000000	0.000000
4.755553	20.852952	14.197288	-0.564264	0.626543	3.412276	0.000000	0.087459	0.000000	0.000006	0.000001	0.000000	0.000000
5.304613	21.115974	13.783681	0.088059	0.131204	3.432039	0.000000	-0.015573	0.000000	0.000007	0.000001	0.000000	0.000000
5.603185	21.100560	13.690477	0.018736	0.144949	3.430066	0.000000	-0.006606	0.000000	0.000008	0.000001	0.000000	0.000000
5.936519	21.093337	13.602131	0.002933	0.120089	3.427864	0.000000	-0.006606	0.000000	0.000008	0.000001	0.000000	0.000000
6.269852	21.096650	13.530358	-0.012870	0.095230	3.425661	0.000000	-0.006606	0.000000	0.000008	0.000001	0.000000	0.000000
6.604435	21.110569	13.474983	-0.028732	0.070277	3.423450	0.000000	-0.006606	0.000000	0.000009	0.000001	0.000000	0.000000
6.901758	21.131846	13.439785	-0.098037	0.083217	3.421486	0.000000	0.002333	0.000000	0.000009	0.000001	0.000000	0.000000
7.450818	20.879387	13.609363	0.555117	-0.393891	3.394567	0.000000	-0.100241	0.000000	0.000010	0.000001	0.000000	0.000000
7.999878	19.927073	14.315102	1.169061	-0.899054	3.311735	0.000000	-0.201037	0.000000	0.000010	0.000001	0.000000	0.000000
8.548938	18.342169	15.607269	1.700429	-1.468255	3.174459	0.000000	-0.298266	0.000000	0.000010	0.000000	0.000000	0.000000
9.097998	16.236625	17.577903	2.111686	-2.142036	2.985174	0.000000	-0.390206	0.000000	0.000010	-0.000000	0.000000	0.000000
9.543958	14.593963	19.333808	1.584837	-1.778679	2.829463	0.000000	-0.308507	0.000000	0.000010	0.000000	0.000000	0.000000
9.984918	13.399297	20.712339	1.134679	-1.335629	2.710668	0.000000	-0.230806	0.000000	0.000011	0.000000	0.000000	0.000000
10.425878	12.577362	21.671744	0.736360	-0.831809	2.625524	0.000000	-0.155734	0.000000	0.000011	0.000001	0.000000	0.000000
10.866838	12.090605	22.168370	0.371684	-0.290143	2.573062	0.000000	-0.082435	0.000000	0.000011	0.000001	0.000000	0.000000
11.309048	11.916656	22.179095	0.053105	0.210281	2.552664	0.000000	-0.016335	0.000000	0.000012	0.000001	0.000000	0.000000
11.606371	11.892516	22.058215	0.028084	0.196283	2.547807	0.000000	-0.016335	0.000000	0.000012	0.000001	0.000000	0.000000
12.086371	11.884944	21.880631	-0.012309	0.173684	2.539965	0.000000	-0.016335	0.000000	0.000013	0.000001	0.000000	0.000000
12.566371	11.916150	21.724742	-0.052703	0.151085	2.532124	0.000000	-0.016335	0.000000	0.000013	0.000001	0.000000	0.000000
13.046371	11.986133	21.590548	-0.093096	0.128486	2.524282	0.000000	-0.016335	0.000000	0.000014	0.000001	0.000000	0.000000
13.526371	12.094894	21.478050	-0.133489	0.105887	2.516441	0.000000	-0.016335	0.000000	0.000015	0.000001	0.000000	0.000000
14.007621	12.242868	21.387038	-0.173988	0.083229	2.508579	0.000000	-0.016335	0.000000	0.000015	0.000001	0.000000	0.000000
14.304943	12.353768	21.341708	-0.168718	0.016903	2.503722	0.000000	-0.022474	0.000000	0.000016	0.000001	0.000000	0.000000
14.745903	12.661046	21.093236	-0.530764	0.544433	2.509440	0.000000	0.048435	0.000000	0.000016	0.000002	0.000000	0.000000
15.186863	13.297065	20.388711	-0.917059	1.047193	2.546517	0.000000	0.119895	0.000000	0.000017	0.000002	0.000000	0.000000
15.627823	14.290885	19.260189	-1.345252	1.502306	2.615376	0.000000	0.192720	0.000000	0.000018	0.000003	0.000000	0.000000
16.068783	15.687908	17.759017	-1.834906	1.889066	2.716800	0.000000	0.267741	0.000000	0.000019	0.000003	0.000000	0.000000
16.514743	17.575625	15.931998	-2.413150	2.190616	2.853640	0.000000	0.346273	0.000000	0.000021	0.000004	0.000000	0.000000
17.063803	20.000242	13.892043	-1.976647	1.546673	3.020040	0.000000	0.258966	0.000000	0.000023	0.000003	0.000000	0.000000
17.612863	21.865555	12.494932	-1.400524	1.012896	3.137169	0.000000	0.167066	0.000000	0.000024	0.000002	0.000000	0.000000
18.161923	23.039808	11.641152	-0.725475	0.551266	3.202952	0.000000	0.072203	0.000000	0.000025	0.000001	0.000000	0.000000
18.710983	23.440058	11.269891	0.000819	0.128901	3.216220	0.000000	-0.023942	0.000000	0.000026	0.000001	0.000000	0.000000
19.009556	23.479950	11.183446	-0.073197	0.131184	3.211580	0.000000	-0.015540	0.000000	0.000026	0.000001	0.000000	0.000000
19.342889	23.533506	11.106097	-0.087470	0.100865	3.206400	0.000000	-0.015540	0.000000	0.000026	0.000001	0.000000	0.000000
19.676223	23.596576	11.048960	-0.101742	0.070546	3.201220	0.000000	-0.015540	0.000000	0.000026	0.000001	0.000000	0.000000
20.010806	23.669745	11.011798	-0.233341	0.094673	3.196040	0.000000	0.000295	0.000000	0.000026	0.000001	0.000000	0.000000
20.308129	23.812439	10.963602	-0.308790	0.096070	3.196127	0.000000	0.008644	0.000000	0.000027	0.000001	0.000000	0.000000
20.857189	23.740810	11.079999	0.438475	-0.309316	3.174662	0.000000	-0.086716	0.000000	0.000027	-0.000000	0.000000	0.000000
21.406249	22.860814	11.650974	1.154768	-0.736735	3.101185	0.000000	-0.180538	0.000000	0.000026	-0.000001	0.000000	0.000000
21.955309	21.234609	12.717194	1.789495	-1.216629	2.976999	0.000000	-0.271158	0.000000	0.000026	-0.000002	0.000000	0.000000
22.504369	18.977063	14.354605	2.297820	-1.783181	2.804306	0.000000	-0.356968	0.000000	0.000024	-0.000003	0.000000	0.000000
22.950329	17.197809	15.824811	1.705977	-1.499631	2.662402	0.000000	-0.279782	0.000000	0.000023	-0.000002	0.000000	0.000000
23.391289	15.922649	16.997081	1.196773	-1.148702	2.555347	0.000000	-0.206236	0.000000	0.000023	-0.000001	0.000000	0.000000
23.832249	15.070851	17.835543	0.742246	-0.745507	2.480175	0.000000	-0.135040	0.000000	0.000022	-0.000001	0.000000	0.000000
24.273209	14.603497	18.302046	0.321630	-0.308393	2.436028	0.000000	-0.065381	0.000000	0.000022	-0.000000	0.000000	0.000000
24.715418	14.499358	18.375121	-0.048829	0.097632	2.422402	0.000000	-0.002406	0.000000	0.000022	0.000000	0.000000	0.000000
25.012741	14.534505	18.321921	-0.069384	0.081297	2.421686	0.000000	-0.002406	0.000000	0.000022	0.000000	0.000000	0.000000
25.346075	14.588442	18.273827	-0.092428	0.062984	2.420884	0.000000	-0.002406	0.000000	0.000022	0.000000	0.000000	0.000000
25.679408	14.657743	18.237942	-0.115473	0.044671	2.420082	0.000000	-0.002406	0.000000	0.000022	0.000000	0.000000	0.000000
26.013991	14.742453	18.214570	-0.019003	-0.121477	2.419252	0.000000	-0.022033	0.000000	0.000022	0.000000	0.000000	0.000000
26.311314	14.759752	18.291731	-0.002990	-0.182888	2.412702	0.000000	-0.027948	0.000000	0.000022	0.000000	0.000000	0.000000
26.752274	14.944216	18.254677	-0.416921	0.266598	2.415483	0.000000	0.040576	0.000000	0.000022	0.000001	0.000000	0.000000
27.193234	15.500722	17.825067	-0.849899	0.703954	2.448554	0.000000	0.109562	0.000000	0.000023	0.000001	0.000000	0.000000
27.634194	16.454696	17.022449	-1.321707	1.109281	2.512290	0.000000	0.179796	0.000000	0.000024	0.000002	0.000000	0.000000
28.075154	17.849720	15.883339	-1.853901	1.464137	2.607418	0.000000	0.252078	0.000000	0.000024	0.000002	0.000000	0.000000
28.521114	19.773764	14.442405	-2.475766	1.753287	2.736625	0.000000	0.327674	0.000000	0.000026	0.000003	0.000000	0.000000
29.070174	22.219219	12.837018	-1.951759	1.187856	2.893881	0.000000	0.244307	0.000000	0.000027	0.000002	0.000000	0.000000
29.619234	24.009677	11.802715	-1.289888	0.707033	3.004105	0.000000	0.156607	0.000000	0.000028	0.000001	0.000000	0.000000
30.168294	25.018671	11.265826	-0.536906	0.276571	3.065342	0.000000	0.066128	0.000000	0.000029	0.000000	0.000000	0.000000
30.717354	25.174928	11.188109	0.254000	-0.134191	3.076506	0.000000	-0.025523	0.000000	0.000029	-0.000001	0.000000	0.000000
31.015927	25.066189	11.258845	0.175958	-0.131946	3.071285	0.000000	-0.017487	0.000000	0.000028	-0.000000	0.000000	0.000000
31.349260	24.953454	11.356850	0.162248	-0.162068	3.065456	0.000000	-0.017487	0.000000	0.000028	-0.000000	0.000000	0.000000
31.682593	24.849859	11.474936	0.148538	-0.192190	3.059627	0.000000	-0.017487	0.000000	0.000028	-0.000000	0.000000	0.000000
32.017177	24.755066	11.613659	0.134777	-0.222425	3.053777	0.000000	-0.017487	0.000000	0.000028	-0.000000	0.000000	0.000000
32.314499	24.678557	11.753911	0.058083	-0.218589	3.048578	0.000000	-0.009523	0.000000	0.000028	-0.000000	0.000000	0.000000
32.863559	24.191920	12.233123	0.822980	-0.659347	3.018477	0.000000	-0.099963	0.000000	0.000027	-0.000001	0.000000	0.000000
33.412619	22.892439	13.219134	1.529746	-1.147070	2.939134	0.000000	-0.188629	0.000000	0.000026	-0.000002	0.000000	0.000000
33.961679	20.871903	14.782178	2.128458	-1.716496	2.811956	0.000000	-0.273950	0.000000	0.000025	-0.000003	0.000000	0.000000
34.510739	18.273033	17.033585	2.576827	-2.408183	2.639199	0.000000	-0.354412	0.000000	0.000023	-0.000004	0.000000	0.000000
34.956699	16.252252	19.047421	1.970712	-2.088693	2.497484	0.000000	-0.281505	0.000000	0.000022	-0.000003	0.000000	0.000000
35.397659	14.745314	20.713361	1.459652	-1.674913	2.388729	0.000000	-0.212233	0.000000	0.000020	-0.000003	0.000000	0.000000
35.838619	13.658092	21.979252	1.015280	-1.184925	2.309959	0.000000	-0.145378	0.000000	0.000019	-0.000002	0.000000	0.000000
36.279579	12.940912	22.787498	0.617294	-0.641024	2.260276	0.000000	-0.080179	0.000000	0.000018	-0.000002	0.000000	0.000000
36.721789	12.560314	23.101635	0.278201	-0.124653	2.239088	0.000000	-0.021383	0.000000	0.000018	-0.000001	0.000000	0.000000
37.019112	12.402466	23.179646	0.252697	-0.137723	2.232730	0.000000	-0.021383	0.000000	0.000017	-0.000001	0.000000	0.000000
37.352445	12.243532	23.276345	0.224104	-0.152376	2.225603	0.000000	-0.021383	0.000000	0.000017	-0.000001	0.000000	0.000000
37.685779	12.103660	23.382814	0.195512	-0.167029	2.218476	0.000000	-0.021383	0.000000	0.000017	-0.000001	0.000000	0.000000
38.020362	11.982433	23.499505	0.166812	-0.181737	2.211322	0.000000	-0.021383	0.000000	0.000016	-0.000001	0.000000	0.000000
38.317684	11.890822	23.611460	0.170464	-0.252701	2.204964	0.000000	-0.026790	0.000000	0.000016	-0.000001	0.000000	0.000000
38.758644	11.892050	23.572781	-0.173260	0.340083	2.207075	0.000000	0.036370	0.000000	0.000015	-0.000001	0.000000	0.000000
39.199604	12.198747	23.016166	-0.524899	0.917394	2.237102	0.000000	0.099945	0.000000	0.000015	-0.000000	0.000000	0.000000
39.640564	12.824924	21.966940	-0.900519	1.452964	2.295386	0.000000	0.164657	0.000000	0.000015	-0.000000	0.000000	0.000000
40.081524	13.799189	20.472842	-1.317282	1.922426	2.382591	0.000000	0.231245	0.000000	0.000015	0.000000	0.000000	0.000000
40.527484	15.183632	18.579273	-1.798055	2.305705	2.501183	0.000000	0.300872	0.000000	0.000015	0.000001	0.000000	0.000000
41.076544	16.950220	16.451300	-1.400374	1.592837	2.645856	0.000000	0.225337	0.000000	0.000015	0.000000	0.000000	0.000000
41.625604	18.222870	15.039621	-0.903777	0.993423	2.747896	0.000000	0.145806	0.000000	0.000015	-0.000000	0.000000	0.000000
42.174664	18.911690	14.243685	-0.343341	0.464768	2.805494	0.000000	0.063688	0.000000	0.000015	-0.000001	0.000000	0.000000
42.723724	18.968025	14.006799	0.241346	-0.030783	2.817627	0.000000	-0.019560	0.000000	0.000015	-0.000001	0.000000	0.000000
43.022297	18.858370	14.009694	0.175472	-0.015507	2.813985	0.000000	-0.012199	0.000000	0.000014	-0.000001	0.000000	0.000000
43.502297	18.702510	14.041030	0.149236	-0.049777	2.808130	0.000000	-0.012199	0.000000	0.000014	-0.000001	0.000000	0.000000
43.982297	18.571837	14.105266	0.122999	-0.084047	2.802275	0.000000	-0.012199	0.000000	0.000013	-0.000001	0.000000	0.000000
44.462297	18.466351	14.202401	0.096763	-0.118317	2.796420	0.000000	-0.012199	0.000000	0.000012	-0.000001	0.000000	0.000000
44.942297	18.386053	14.332435	0.070526	-0.152588	2.790566	0.000000	-0.012199	0.000000	0.000012	-0.000001	0.000000	0.000000
45.423547	18.331058	14.495657	-0.046601	-0.115127	2.784713	0.000000	0.001598	0.000000	0.000011	-0.000001	0.000000	0.000000
45.720870	18.363602	14.570295	-0.110832	-0.097844	2.785188	0.000000	0.008875	0.000000	0.000011	-0.000001	0.000000	0.000000
46.269930	18.176113	14.959476	0.450283	-0.615152	2.767495	0.000000	-0.073231	0.000000	0.000010	-0.000001	0.000000	0.000000
46.818990	17.386350	15.937305	0.979592	-1.176275	2.705012	0.000000	-0.154039	0.000000	0.000009	-0.000002	0.000000	0.000000
47.368050	16.050098	17.573432	1.439708	-1.821183	2.598846	0.000000	-0.232114	0.000000	0.000008	-0.000002	0.000000	0.000000
47.917110	14.261743	19.984394	1.798130	-2.595809	2.450881	0.000000	-0.306072	0.000000	0.000007	-0.000002	0.000000	0.000000
48.363070	12.870149	22.127860	1.333373	-2.190394	2.329675	0.000000	-0.237785	0.000000	0.000006	-0.000002	0.000000	0.000000
48.804030	11.874412	23.843988	0.933304	-1.686596	2.239280	0.000000	-0.172602	0.000000	0.000005	-0.000002	0.000000	0.000000
49.244990	11.211440	25.080141	0.575874	-1.106058	2.177168	0.000000	-0.109385	0.000000	0.000004	-0.000002	0.000000	0.000000
49.685950	10.850942	25.780075	0.244755	-0.475196	2.142630	0.000000	-0.047414	0.000000	0.000003	-0.000002	0.000000	0.000000
50.128160	10.776572	25.911658	-0.048872	0.113697	2.135286	0.000000	0.008781	0.000000	0.000003	-0.000002	0.000000	0.000000
50.425482	10.813856	25.847505	-0.076527	0.102074	2.137897	0.000000	0.008781	0.000000	0.000002	-0.000002	0.000000	0.000000
50.758816	10.875209	25.783799	-0.107533	0.089043	2.140824	0.000000	0.008781	0.000000	0.000001	-0.000002	0.000000	0.000000
51.092149	10.957233	25.728780	-0.138538	0.076013	2.143752	0.000000	0.008781	0.000000	0.000001	-0.000002	0.000000	0.000000
51.426732	11.060126	25.682812	-0.079932	-0.145418	2.146669	0.000000	-0.008634	0.000000	0.000000	-0.000002	0.000000	0.000000
51.724055	11.115701	25.772799	-0.079727	-0.220443	2.144102	0.000000	-0.013892	0.000000	-0.000000	-0.000002	0.000000	0.000000
52.165015	11.331180	25.680456	-0.410786	0.429061	2.151565	0.000000	0.047768	0.000000	-0.000001	-0.000002	0.000000	0.000000
52.605975	11.845768	25.021755	-0.760613	1.059043	2.186311	0.000000	0.109972	0.000000	-0.000002	-0.000002	0.000000	0.000000
53.046935	12.682974	23.826667	-1.145190	1.640839	2.248736	0.000000	0.173428	0.000000	-0.000003	-0.000002	0.000000	0.000000
53.487895	13.881049	22.149568	-1.582087	2.147979	2.339552	0.000000	0.238860	0.000000	-0.000003	-0.000002	0.000000	0.000000
53.933855	15.515269	20.041692	-2.095490	2.558726	2.461297	0.000000	0.307411	0.000000	-0.000004	-0.000002	0.000000	0.000000
54.482915	17.619344	17.669726	-1.713966	1.786823	2.609905	0.000000	0.233105	0.000000	-0.000005	-0.000002	0.000000	0.000000
55.031975	19.235096	16.070958	-1.211376	1.142193	2.716517	0.000000	0.154664	0.000000	-0.000006	-0.000002	0.000000	0.000000
55.581035	20.248397	15.131511	-0.623221	0.578918	2.779243	0.000000	0.073480	0.000000	-0.000007	-0.000001	0.000000	0.000000
56.130095	20.587674	14.784469	0.008955	0.056878	2.796970	0.000000	-0.009007	0.000000	-0.000008	-0.000001	0.000000	0.000000
56.428668	20.618789	14.733521	-0.059372	0.075130	2.796463	0.000000	-0.001699	0.000000	-0.000008	-0.000001	0.000000	0.000000
56.762001	20.663778	14.691018	-0.075595	0.052379	2.795897	0.000000	-0.001699	0.000000	-0.000009	-0.000001	0.000000	0.000000
57.095334	20.719582	14.663683	-0.091819	0.029627	2.795331	0.000000	-0.001699	0.000000	-0.000009	-0.000001	0.000000	0.000000
57.429918	20.786473	14.651498	-0.108103	0.006790	2.794763	0.000000	-0.001699	0.000000	-0.000010	-0.000001	0.000000	0.000000
57.727240	20.855058	14.653495	-0.177069	0.024785	2.794259	0.000000	0.005603	0.000000	-0.000010	-0.000001	0.000000	0.000000
58.276300	20.693750	14.907596	0.469118	-0.490311	2.774694	0.000000	-0.076767	0.000000	-0.000011	-0.000001	0.000000	0.000000
58.825360	19.836929	15.743079	1.082168	-1.040331	2.710210	0.000000	-0.157775	0.000000	-0.000011	-0.000001	0.000000	0.000000
59.374420	18.345116	17.219452	1.618780	-1.664451	2.601952	0.000000	-0.235985	0.000000	-0.000011	-0.000000	0.000000	0.000000
59.923480	16.323685	19.441874	2.041049	-2.407127	2.451839	0.000000	-0.310009	0.000000	-0.000011	0.000000	0.000000	0.000000
60.369440	14.741576	21.417132	1.519162	-2.003404	2.328879	0.000000	-0.241719	0.000000	-0.000011	-0.000000	0.000000	0.000000
60.810400	13.603787	22.972279	1.070880	-1.509905	2.236740	0.000000	-0.176580	0.000000	-0.000011	-0.000000	0.000000	0.000000
61.251360	12.838360	24.060126	0.671524	-0.947706	2.172855	0.000000	-0.113451	0.000000	-0.000012	-0.000001	0.000000	0.000000
61.692320	12.410325	24.631179	0.302848	-0.342388	2.136497	0.000000	-0.051615	0.000000	-0.000012	-0.000001	0.000000	0.000000
62.134530	12.300180	24.658910	-0.021927	0.217977	2.127255	0.000000	0.004416	0.000000	-0.000013	-0.000001	0.000000	0.000000
62.431853	12.320409	24.533046	-0.046110	0.205346	2.128569	0.000000	0.004416	0.000000	-0.000013	-0.000001	0.000000	0.000000
62.765186	12.360187	24.400869	-0.073223	0.191186	2.130041	0.000000	0.004416	0.000000	-0.000013	-0.000001	0.000000	0.000000
63.098520	12.418040	24.278131	-0.100336	0.177026	2.131514	0.000000	0.004416	0.000000	-0.000014	-0.000001	0.000000	0.000000
63.433103	12.494287	24.164426	-0.127551	0.162813	2.132992	0.000000	0.004416	0.000000	-0.000014	-0.000001	0.000000	0.000000
63.730426	12.577325	24.071366	-0.120887	0.091144	2.134306	0.000000	-0.000818	0.000000	-0.000015	-0.000001	0.000000	0.000000
64.171386	12.844149	23.725902	-0.486506	0.689311	2.147488	0.000000	0.060663	0.000000	-0.000015	-0.000002	0.000000	0.000000
64.612346	13.441964	22.864770	-0.874352	1.256115	2.187908	0.000000	0.122835	0.000000	-0.000016	-0.000002	0.000000	0.000000
65.053306	14.398084	21.527152	-1.302144	1.765766	2.256026	0.000000	0.186406	0.000000	-0.000017	-0.000003	0.000000	0.000000
65.494266	15.756191	19.773907	-1.789428	2.195077	2.352617	0.000000	0.252100	0.000000	-0.000018	-0.000003	0.000000	0.000000
65.940226	17.601495	17.660006	-2.363157	2.525263	2.480355	0.000000	0.321068	0.000000	-0.000020	-0.000003	0.000000	0.000000
66.489286	19.967165	15.295290	-1.919923	1.807005	2.636270	0.000000	0.246026	0.000000	-0.000022	-0.000003	0.000000	0.000000
67.038346	21.768310	13.644424	-1.341076	1.217456	2.749722	0.000000	0.166620	0.000000	-0.000023	-0.000002	0.000000	0.000000
67.587406	22.877706	12.589822	-0.667502	0.714623	2.818698	0.000000	0.084259	0.000000	-0.000024	-0.000001	0.000000	0.000000
68.136466	23.216992	12.056367	0.053220	0.262692	2.841975	0.000000	0.000403	0.000000	-0.000024	-0.000001	0.000000	0.000000
68.435038	23.225283	11.888721	-0.020314	0.267291	2.844313	0.000000	0.007830	0.000000	-0.000025	-0.000001	0.000000	0.000000
68.768372	23.243612	11.720540	-0.034673	0.237250	2.846923	0.000000	0.007830	0.000000	-0.000025	-0.000001	0.000000	0.000000
69.101705	23.271513	11.572387	-0.049031	0.207209	2.849533	0.000000	0.007830	0.000000	-0.000025	-0.000001	0.000000	0.000000
69.436288	23.309144	11.443818	-0.063443	0.177056	2.852153	0.000000	0.007830	0.000000	-0.000025	-0.000001	0.000000	0.000000
69.733611	23.350678	11.346500	-0.137273	0.179913	2.854481	0.000000	0.015290	0.000000	-0.000025	-0.000001	0.000000	0.000000
70.282671	23.100373	11.376233	0.590454	-0.234386	2.839685	0.000000	-0.069109	0.000000	-0.000025	0.000000	0.000000	0.000000
