#ParticleID	Turn	x[m]	xp	y[m]	yp	z[m]	dE[GeV]# s	beta_x	beta_y	alpha_x	alpha_y	D_x	D_y	D_px	D_py	orbit_x	orbit_px	orbit_y	orbit_py
0.300000	11.809111	25.036909	-0.010592	-0.027053	2.618178	0.000000	-0.000014	0.000000	-0.000001	0.000001	0.000000	0.000000
0.601250	11.823179	25.056836	-0.036105	-0.039094	2.618173	0.000000	-0.000014	0.000000	-0.000001	0.000001	0.000000	0.000000
0.898573	11.852135	25.083617	-0.032220	-0.112490	2.618169	0.000000	-0.006434	0.000000	-0.000000	0.000001	0.000000	0.000000
1.339533	12.032625	24.904570	-0.378643	0.516985	2.631625	0.000000	0.067524	0.000000	0.000000	0.000001	0.000000	0.000000
1.780493	12.525076	24.178667	-0.742364	1.122938	2.677831	0.000000	0.142252	0.000000	0.000001	0.000002	0.000000	0.000000
2.221453	13.351988	22.938936	-1.140003	1.677799	2.757316	0.000000	0.218600	0.000000	0.000002	0.000002	0.000000	0.000000
2.662413	14.551139	21.241784	-1.589724	2.156321	2.870983	0.000000	0.297437	0.000000	0.000002	0.000002	0.000000	0.000000
3.108373	16.198049	19.139542	-2.116364	2.537865	3.021988	0.000000	0.380152	0.000000	0.000003	0.000002	0.000000	0.000000
3.657433	18.309956	16.778388	-1.707271	1.787876	3.205442	0.000000	0.287114	0.000000	0.000004	0.000002	0.000000	0.000000
4.206493	19.903348	15.166469	-1.177586	1.165233	3.336337	0.000000	0.188984	0.000000	0.000005	0.000001	0.000000	0.000000
4.755553	20.865676	14.188971	-0.564721	0.625587	3.412352	0.000000	0.087501	0.000000	0.000005	0.000001	0.000000	0.000000
5.304613	21.128966	13.776270	0.088032	0.130501	3.432138	0.000000	-0.015533	0.000000	0.000006	0.000001	0.000000	0.000000
5.603185	21.113586	13.683500	0.018683	0.144220	3.430177	0.000000	-0.006566	0.000000	0.000006	0.000001	0.000000	0.000000
5.936519	21.106395	13.595642	0.002890	0.119353	3.427988	0.000000	-0.006566	0.000000	0.000007	0.000001	0.000000	0.000000
6.269852	21.109733	13.524363	-0.012903	0.094486	3.425799	0.000000	-0.006566	0.000000	0.000007	0.000001	0.000000	0.000000
6.604435	21.123671	13.469487	-0.028756	0.069526	3.423602	0.000000	-0.006566	0.000000	0.000008	0.000001	0.000000	0.000000
6.901758	21.144959	13.434739	-0.098087	0.082445	3.421649	0.000000	0.002374	0.000000	0.000008	0.000001	0.000000	0.000000
7.450818	20.892314	13.605089	0.555504	-0.394535	3.394751	0.000000	-0.100206	0.000000	0.000008	0.000001	0.000000	0.000000
7.999878	19.939346	14.311487	1.169858	-0.899617	3.311937	0.000000	-0.201008	0.000000	0.000009	0.000001	0.000000	0.000000
8.548938	18.353366	15.604247	1.701578	-1.468777	3.174675	0.000000	-0.298244	0.000000	0.000009	0.000000	0.000000	0.000000
9.097998	16.246402	17.575450	2.113108	-2.142555	2.985400	0.000000	-0.390191	0.000000	0.000009	-0.000000	0.000000	0.000000
9.543958	14.602609	19.331877	1.585961	-1.779325	2.829697	0.000000	-0.308486	0.000000	0.000009	0.000000	0.000000	0.000000
9.984918	13.407064	20.711023	1.135558	-1.336372	2.710913	0.000000	-0.230779	0.000000	0.000009	0.000000	0.000000	0.000000
10.425878	12.584445	21.671112	0.737036	-0.832614	2.625782	0.000000	-0.155700	0.000000	0.000009	0.000001	0.000000	0.000000
10.866838	12.097171	22.168462	0.372187	-0.290974	2.573337	0.000000	-0.082395	0.000000	0.000010	0.000001	0.000000	0.000000
11.309048	11.922845	22.179920	0.053472	0.209459	2.552958	0.000000	-0.016288	0.000000	0.000010	0.000001	0.000000	0.000000
11.606371	11.898483	22.059527	0.028464	0.195466	2.548115	0.000000	-0.016288	0.000000	0.000011	0.000001	0.000000	0.000000
12.086371	11.890537	21.882724	-0.011910	0.172875	2.540296	0.000000	-0.016288	0.000000	0.000011	0.000001	0.000000	0.000000
12.566371	11.921351	21.727607	-0.052284	0.150284	2.532477	0.000000	-0.016288	0.000000	0.000012	0.000001	0.000000	0.000000
13.046371	11.990923	21.594178	-0.092658	0.127694	2.524658	0.000000	-0.016288	0.000000	0.000012	0.000001	0.000000	0.000000
13.526371	12.099254	21.482435	-0.133032	0.105103	2.516840	0.000000	-0.016288	0.000000	0.000013	0.000001	0.000000	0.000000
14.007621	12.246778	21.392174	-0.173511	0.082453	2.509001	0.000000	-0.016288	0.000000	0.000013	0.000001	0.000000	0.000000
14.304943	12.357391	21.347304	-0.168220	0.016118	2.504157	0.000000	-0.022428	0.000000	0.000014	0.000001	0.000000	0.000000
14.745903	12.664260	21.099452	-0.530332	0.543816	2.509898	0.000000	0.048492	0.000000	0.000014	0.000002	0.000000	0.000000
15.186863	13.299920	20.395387	-0.916673	1.046771	2.547003	0.000000	0.119964	0.000000	0.000015	0.000002	0.000000	0.000000
15.627823	14.293412	19.267144	-1.344895	1.502099	2.615895	0.000000	0.192803	0.000000	0.000016	0.000002	0.000000	0.000000
16.068783	15.690127	17.766056	-1.834561	1.889083	2.717360	0.000000	0.267837	0.000000	0.000017	0.000003	0.000000	0.000000
16.514743	17.577535	15.938920	-2.412801	2.190858	2.854246	0.000000	0.346384	0.000000	0.000018	0.000003	0.000000	0.000000
17.063803	20.001698	13.898791	-1.976174	1.546749	3.020701	0.000000	0.259057	0.000000	0.000020	0.000003	0.000000	0.000000
17.612863	21.866438	12.501685	-1.399961	1.012811	3.137875	0.000000	0.167135	0.000000	0.000021	0.000002	0.000000	0.000000
18.161923	23.040041	11.648090	-0.724861	0.551014	3.203689	0.000000	0.072248	0.000000	0.000022	0.000001	0.000000	0.000000
18.710983	23.439609	11.277204	0.001439	0.128464	3.216975	0.000000	-0.023920	0.000000	0.000023	0.000000	0.000000	0.000000
19.009556	23.479130	11.191003	-0.072576	0.130788	3.212342	0.000000	-0.015517	0.000000	0.000023	0.000001	0.000000	0.000000
19.342889	23.532272	11.113909	-0.086848	0.100493	3.207170	0.000000	-0.015517	0.000000	0.000023	0.000001	0.000000	0.000000
19.676223	23.594927	11.057013	-0.101120	0.070197	3.201998	0.000000	-0.015517	0.000000	0.000023	0.000001	0.000000	0.000000
20.010806	23.667679	11.020077	-0.232708	0.094389	3.196826	0.000000	0.000322	0.000000	0.000023	0.000001	0.000000	0.000000
20.308129	23.809995	10.972043	-0.308149	0.095831	3.196922	0.000000	0.008674	0.000000	0.000023	0.000001	0.000000	0.000000
20.857189	23.737711	11.088834	0.439022	-0.309798	3.175466	0.000000	-0.086712	0.000000	0.000024	-0.000000	0.000000	0.000000
21.406249	22.857184	11.660486	1.155182	-0.737493	3.101983	0.000000	-0.180560	0.000000	0.000023	-0.000001	0.000000	0.000000
21.955309	21.230612	12.727714	1.789746	-1.217718	2.977778	0.000000	-0.271206	0.000000	0.000023	-0.000002	0.000000	0.000000
22.504369	18.972888	14.366536	2.297891	-1.784678	2.805052	0.000000	-0.357041	0.000000	0.000022	-0.000002	0.000000	0.000000
22.950329	17.193540	15.837955	1.706119	-1.500843	2.663119	0.000000	-0.279835	0.000000	0.000021	-0.000002	0.000000	0.000000
23.391289	15.918221	17.011147	1.196992	-1.149574	2.556045	0.000000	-0.206271	0.000000	0.000020	-0.000001	0.000000	0.000000
23.832249	15.066192	17.850213	0.742551	-0.746000	2.480861	0.000000	-0.135057	0.000000	0.000020	-0.000001	0.000000	0.000000
24.273209	14.598526	18.316974	0.322036	-0.308484	2.436711	0.000000	-0.065381	0.000000	0.000019	-0.000000	0.000000	0.000000
24.715418	14.493977	18.389950	-0.048316	0.097909	2.423088	0.000000	-0.002390	0.000000	0.000019	0.000000	0.000000	0.000000
25.012741	14.528821	18.336582	-0.068878	0.081587	2.422378	0.000000	-0.002390	0.000000	0.000020	0.000000	0.000000	0.000000
25.346075	14.582423	18.288290	-0.091929	0.063287	2.421581	0.000000	-0.002390	0.000000	0.000020	0.000000	0.000000	0.000000
25.679408	14.651394	18.252199	-0.114981	0.044987	2.420784	0.000000	-0.002390	0.000000	0.000020	0.000000	0.000000	0.000000
26.013991	14.735778	18.228610	-0.018573	-0.121260	2.419960	0.000000	-0.022022	0.000000	0.000020	0.000000	0.000000	0.000000
26.311314	14.752824	18.305638	-0.002586	-0.182693	2.413412	0.000000	-0.027940	0.000000	0.000020	0.000000	0.000000	0.000000
26.752274	14.936855	18.268246	-0.416341	0.267167	2.416201	0.000000	0.040603	0.000000	0.000020	0.000001	0.000000	0.000000
27.193234	15.492763	17.837979	-0.849117	0.704870	2.449288	0.000000	0.109608	0.000000	0.000020	0.000001	0.000000	0.000000
27.634194	16.445945	17.034414	-1.320688	1.110503	2.513049	0.000000	0.179861	0.000000	0.000021	0.000002	0.000000	0.000000
28.075154	17.839949	15.894112	-1.852597	1.465609	2.608210	0.000000	0.252163	0.000000	0.000022	0.000002	0.000000	0.000000
28.521114	19.762680	14.451777	-2.474116	1.754943	2.737459	0.000000	0.327780	0.000000	0.000023	0.000003	0.000000	0.000000
29.070174	22.206476	12.844783	-1.950406	1.189143	2.894766	0.000000	0.244385	0.000000	0.000024	0.000002	0.000000	0.000000
29.619234	23.995658	11.809225	-1.288930	0.708044	3.005025	0.000000	0.156655	0.000000	0.000025	0.000001	0.000000	0.000000
30.168294	25.003847	11.271345	-0.536409	0.277377	3.066281	0.000000	0.066147	0.000000	0.000025	0.000000	0.000000	0.000000
30.717354	25.159830	11.192829	0.254000	-0.133533	3.077447	0.000000	-0.025535	0.000000	0.000025	-0.000000	0.000000	0.000000
31.015927	25.051070	11.263159	0.175989	-0.131260	3.072223	0.000000	-0.017496	0.000000	0.000025	-0.000000	0.000000	0.000000
31.349260	24.938317	11.360700	0.162270	-0.161364	3.066391	0.000000	-0.017496	0.000000	0.000025	-0.000000	0.000000	0.000000
31.682593	24.834710	11.478312	0.148552	-0.191469	3.060560	0.000000	-0.017496	0.000000	0.000025	-0.000000	0.000000	0.000000
32.017177	24.739911	11.616547	0.134782	-0.221687	3.054706	0.000000	-0.017496	0.000000	0.000025	-0.000000	0.000000	0.000000
32.314499	24.663401	11.756356	0.058119	-0.217829	3.049504	0.000000	-0.009530	0.000000	0.000025	-0.000000	0.000000	0.000000
32.863559	24.177000	12.234752	0.822516	-0.658614	3.019391	0.000000	-0.099999	0.000000	0.000024	-0.000001	0.000000	0.000000
33.412619	22.878289	13.219949	1.528816	-1.146311	2.940020	0.000000	-0.188695	0.000000	0.000023	-0.000002	0.000000	0.000000
33.961679	20.859002	14.782121	2.127127	-1.715657	2.812799	0.000000	-0.274043	0.000000	0.000022	-0.000003	0.000000	0.000000
34.510739	18.261773	17.032537	2.575188	-2.407206	2.639983	0.000000	-0.354531	0.000000	0.000021	-0.000003	0.000000	0.000000
34.956699	16.242293	19.045470	1.969422	-2.087654	2.498218	0.000000	-0.281605	0.000000	0.000019	-0.000003	0.000000	0.000000
35.397659	14.736364	20.710484	1.458649	-1.673860	2.389423	0.000000	-0.212315	0.000000	0.000018	-0.000002	0.000000	0.000000
35.838619	13.649917	21.975459	1.014518	-1.183907	2.310621	0.000000	-0.145443	0.000000	0.000017	-0.000002	0.000000	0.000000
36.279579	12.933317	22.782839	0.616737	-0.640086	2.260913	0.000000	-0.080227	0.000000	0.000016	-0.000001	0.000000	0.000000
36.721789	12.553129	23.096200	0.277807	-0.123827	2.239708	0.000000	-0.021416	0.000000	0.000016	-0.000001	0.000000	0.000000
37.019112	12.395518	23.173719	0.252294	-0.136897	2.233341	0.000000	-0.021416	0.000000	0.000016	-0.000001	0.000000	0.000000
37.352445	12.236856	23.269869	0.223691	-0.151551	2.226202	0.000000	-0.021416	0.000000	0.000015	-0.000001	0.000000	0.000000
37.685779	12.097263	23.375787	0.195088	-0.166205	2.219064	0.000000	-0.021416	0.000000	0.000015	-0.000001	0.000000	0.000000
38.020362	11.976323	23.491927	0.166378	-0.180913	2.211899	0.000000	-0.021416	0.000000	0.000014	-0.000001	0.000000	0.000000
38.317684	11.884973	23.603393	0.170006	-0.251859	2.205532	0.000000	-0.026824	0.000000	0.000014	-0.000001	0.000000	0.000000
38.758644	11.886546	23.564068	-0.173589	0.340700	2.207631	0.000000	0.036351	0.000000	0.000014	-0.000001	0.000000	0.000000
39.199604	12.193482	23.007019	-0.525114	0.917757	2.237651	0.000000	0.099939	0.000000	0.000013	-0.000000	0.000000	0.000000
39.640564	12.819803	21.957590	-0.900631	1.453058	2.295936	0.000000	0.164666	0.000000	0.000013	-0.000000	0.000000	0.000000
40.081524	13.794123	20.463531	-1.317295	1.922245	2.383149	0.000000	0.231268	0.000000	0.000013	0.000000	0.000000	0.000000
40.527484	15.178534	18.570244	-1.797970	2.305257	2.501754	0.000000	0.300910	0.000000	0.000014	0.000001	0.000000	0.000000
41.076544	16.945141	16.442625	-1.400494	1.592637	2.646443	0.000000	0.225356	0.000000	0.000014	0.000000	0.000000	0.000000
41.625604	18.218034	15.031036	-0.904095	0.993457	2.748488	0.000000	0.145805	0.000000	0.000014	-0.000000	0.000000	0.000000
42.174664	18.907302	14.234932	-0.343834	0.465039	2.806080	0.000000	0.063668	0.000000	0.000014	-0.000001	0.000000	0.000000
42.723724	18.964259	13.997610	0.240713	-0.030255	2.818197	0.000000	-0.019598	0.000000	0.000013	-0.000001	0.000000	0.000000
43.022297	18.854976	14.000209	0.174849	-0.015017	2.814544	0.000000	-0.012235	0.000000	0.000013	-0.000001	0.000000	0.000000
43.502297	18.699714	14.031085	0.148613	-0.049310	2.808671	0.000000	-0.012235	0.000000	0.000012	-0.000001	0.000000	0.000000
43.982297	18.569638	14.094883	0.122378	-0.083603	2.802799	0.000000	-0.012235	0.000000	0.000012	-0.000001	0.000000	0.000000
44.462297	18.464749	14.191602	0.096142	-0.117895	2.796927	0.000000	-0.012235	0.000000	0.000011	-0.000001	0.000000	0.000000
44.942297	18.385046	14.321242	0.069906	-0.152188	2.791054	0.000000	-0.012235	0.000000	0.000011	-0.000001	0.000000	0.000000
45.423547	18.330647	14.484091	-0.047218	-0.114807	2.785184	0.000000	0.001564	0.000000	0.000010	-0.000001	0.000000	0.000000
45.720870	18.363559	14.558544	-0.111451	-0.097570	2.785649	0.000000	0.008842	0.000000	0.000010	-0.000001	0.000000	0.000000
46.269930	18.176744	14.947227	0.449681	-0.614514	2.767934	0.000000	-0.073279	0.000000	0.000009	-0.000001	0.000000	0.000000
46.818990	17.387614	15.924136	0.979049	-1.175228	2.705420	0.000000	-0.154100	0.000000	0.000008	-0.000002	0.000000	0.000000
47.368050	16.051909	17.558855	1.439262	-1.819651	2.599217	0.000000	-0.232188	0.000000	0.000007	-0.000002	0.000000	0.000000
47.917110	14.263976	19.967822	1.797813	-2.593684	2.451208	0.000000	-0.306158	0.000000	0.000006	-0.000002	0.000000	0.000000
48.363070	12.872667	22.109553	1.333047	-2.188645	2.329966	0.000000	-0.237862	0.000000	0.000005	-0.000002	0.000000	0.000000
48.804030	11.877228	23.824334	0.932953	-1.685300	2.239539	0.000000	-0.172672	0.000000	0.000005	-0.000002	0.000000	0.000000
49.244990	11.214581	25.059567	0.575484	-1.105275	2.177397	0.000000	-0.109449	0.000000	0.000004	-0.000002	0.000000	0.000000
49.685950	10.854452	25.759050	0.244306	-0.474961	2.142832	0.000000	-0.047472	0.000000	0.000003	-0.000002	0.000000	0.000000
50.128160	10.780512	25.890673	-0.049389	0.113424	2.135463	0.000000	0.008727	0.000000	0.000002	-0.000002	0.000000	0.000000
50.425482	10.818101	25.826685	-0.077036	0.101792	2.138058	0.000000	0.008727	0.000000	0.000002	-0.000002	0.000000	0.000000
50.758816	10.879790	25.763170	-0.108032	0.088752	2.140968	0.000000	0.008727	0.000000	0.000001	-0.000002	0.000000	0.000000
51.092149	10.962143	25.708348	-0.139027	0.075712	2.143877	0.000000	0.008727	0.000000	0.000001	-0.000002	0.000000	0.000000
51.426732	11.065360	25.662584	-0.080369	-0.145565	2.146776	0.000000	-0.008689	0.000000	0.000000	-0.000002	0.000000	0.000000
51.724055	11.121192	25.752661	-0.080140	-0.220550	2.144193	0.000000	-0.013947	0.000000	-0.000000	-0.000002	0.000000	0.000000
52.165015	11.337093	25.660647	-0.411334	0.428424	2.151632	0.000000	0.047715	0.000000	-0.000001	-0.000002	0.000000	0.000000
52.605975	11.852232	25.002731	-0.761321	1.057905	2.186355	0.000000	0.109920	0.000000	-0.000001	-0.000002	0.000000	0.000000
53.046935	12.690145	23.808849	-1.146090	1.639253	2.248758	0.000000	0.173378	0.000000	-0.000002	-0.000002	0.000000	0.000000
53.487895	13.889113	22.133322	-1.583221	2.146015	2.339551	0.000000	0.238810	0.000000	-0.000003	-0.000002	0.000000	0.000000
53.933855	15.524468	20.027333	-2.096910	2.556474	2.461274	0.000000	0.307361	0.000000	-0.000004	-0.000002	0.000000	0.000000
54.482915	17.629975	17.657521	-1.715139	1.785129	2.609854	0.000000	0.233056	0.000000	-0.000005	-0.000002	0.000000	0.000000
55.031975	19.246841	16.060363	-1.212219	1.140936	2.716440	0.000000	0.154617	0.000000	-0.000005	-0.000001	0.000000	0.000000
55.581035	20.260857	15.122098	-0.623673	0.578008	2.779140	0.000000	0.073436	0.000000	-0.000006	-0.000001	0.000000	0.000000
56.130095	20.600400	14.775895	0.008925	0.056251	2.796843	0.000000	-0.009048	0.000000	-0.000007	-0.000001	0.000000	0.000000
56.428668	20.631550	14.725337	-0.059426	0.074472	2.796324	0.000000	-0.001740	0.000000	-0.000007	-0.000001	0.000000	0.000000
56.762001	20.676572	14.683277	-0.075639	0.051710	2.795745	0.000000	-0.001740	0.000000	-0.000008	-0.000001	0.000000	0.000000
57.095334	20.732402	14.656391	-0.091853	0.028947	2.795165	0.000000	-0.001740	0.000000	-0.000008	-0.000001	0.000000	0.000000
57.429918	20.799312	14.644665	-0.108127	0.006100	2.794583	0.000000	-0.001740	0.000000	-0.000008	-0.000001	0.000000	0.000000
57.727240	20.867909	14.647074	-0.177117	0.024069	2.794066	0.000000	0.005561	0.000000	-0.000009	-0.000001	0.000000	0.000000
58.276300	20.706418	14.901866	0.469498	-0.490859	2.774480	0.000000	-0.076802	0.000000	-0.000009	-0.000001	0.000000	0.000000
58.825360	19.848955	15.737876	1.082950	-1.040749	2.709979	0.000000	-0.157803	0.000000	-0.000010	-0.000001	0.000000	0.000000
59.374420	18.356086	17.214651	1.619908	-1.664770	2.601708	0.000000	-0.236005	0.000000	-0.000010	-0.000000	0.000000	0.000000
59.923480	16.333260	19.437378	2.042444	-2.407368	2.451586	0.000000	-0.310021	0.000000	-0.000010	0.000000	0.000000	0.000000
60.369440	14.750041	21.412930	1.520266	-2.003818	2.328619	0.000000	-0.241738	0.000000	-0.000010	-0.000000	0.000000	0.000000
60.810400	13.611387	22.968510	1.071746	-1.510471	2.236471	0.000000	-0.176605	0.000000	-0.000010	-0.000000	0.000000	0.000000
61.251360	12.845287	24.056915	0.672190	-0.948400	2.172573	0.000000	-0.113484	0.000000	-0.000010	-0.000001	0.000000	0.000000
61.692320	12.416741	24.628624	0.303345	-0.343176	2.136198	0.000000	-0.051655	0.000000	-0.000010	-0.000001	0.000000	0.000000
62.134530	12.306222	24.657081	-0.021561	0.217134	2.126937	0.000000	0.004369	0.000000	-0.000011	-0.000001	0.000000	0.000000
62.431853	12.326230	24.531718	-0.045733	0.204507	2.128237	0.000000	0.004369	0.000000	-0.000011	-0.000001	0.000000	0.000000
62.765186	12.365751	24.400098	-0.072832	0.190351	2.129693	0.000000	0.004369	0.000000	-0.000012	-0.000001	0.000000	0.000000
63.098520	12.423339	24.277916	-0.099931	0.176195	2.131150	0.000000	0.004369	0.000000	-0.000012	-0.000001	0.000000	0.000000
63.433103	12.499310	24.164766	-0.127132	0.161986	2.132612	0.000000	0.004369	0.000000	-0.000013	-0.000001	0.000000	0.000000
63.730426	12.582095	24.072197	-0.120444	0.090319	2.133912	0.000000	-0.000865	0.000000	-0.000013	-0.000001	0.000000	0.000000
64.171386	12.848572	23.727444	-0.486160	0.688530	2.147072	0.000000	0.060606	0.000000	-0.000013	-0.000001	0.000000	0.000000
64.612346	13.446119	22.866969	-0.874087	1.255412	2.187464	0.000000	0.122767	0.000000	-0.000014	-0.000002	0.000000	0.000000
65.053306	14.402036	21.529923	-1.301948	1.765175	2.255549	0.000000	0.186326	0.000000	-0.000015	-0.000002	0.000000	0.000000
65.494266	15.759997	19.777141	-1.789291	2.194623	2.352102	0.000000	0.252008	0.000000	-0.000016	-0.000003	0.000000	0.000000
65.940226	17.605203	17.663574	-2.363073	2.524970	2.479795	0.000000	0.320961	0.000000	-0.000017	-0.000003	0.000000	0.000000
66.489286	19.970687	15.299196	-1.919669	1.806678	2.635657	0.000000	0.245938	0.000000	-0.000019	-0.000002	0.000000	0.000000
67.038346	21.771467	13.648718	-1.340670	1.217073	2.749067	0.000000	0.166553	0.000000	-0.000020	-0.000002	0.000000	0.000000
67.587406	22.880346	12.594581	-0.666972	0.714156	2.818012	0.000000	0.084214	0.000000	-0.000021	-0.000001	0.000000	0.000000
68.136466	23.218998	12.061699	0.053837	0.262107	2.841270	0.000000	0.000380	0.000000	-0.000021	-0.000000	0.000000	0.000000
68.435038	23.226922	11.894389	-0.019700	0.266740	2.843601	0.000000	0.007805	0.000000	-0.000022	-0.000001	0.000000	0.000000
68.768372	23.244841	11.726568	-0.034057	0.236722	2.846203	0.000000	0.007805	0.000000	-0.000022	-0.000001	0.000000	0.000000
69.101705	23.272331	11.578760	-0.048413	0.206703	2.848805	0.000000	0.007805	0.000000	-0.000022	-0.000001	0.000000	0.000000
69.436288	23.309549	11.450522	-0.062824	0.176572	2.851417	0.000000	0.007805	0.000000	-0.000022	-0.000001	0.000000	0.000000
69.733611	23.350715	11.353486	-0.136652	0.179467	2.853737	0.000000	0.015263	0.000000	-0.000022	-0.000001	0.000000	0.000000
70.282671	23.099733	11.383818	0.591059	-0.235037	2.838933	0.000000	-0.069111	0.000000	-0.000022	0.000000	0.000000	0.000000
