#ParticleID	Turn	x[m]	xp	y[m]	yp	z[m]	dE[GeV]# s	beta_x	beta_y	alpha_x	alpha_y	D_x	D_y	D_px	D_py	orbit_x	orbit_px	orbit_y	orbit_py
0.300000	11.832474	24.945918	-0.013448	-0.027770	2.618300	0.000000	-0.000060	0.000000	0.000001	0.000000	0.000000	0.000000
0.601250	11.848247	24.966290	-0.038912	-0.039855	2.618282	0.000000	-0.000060	0.000000	0.000001	0.000000	0.000000	0.000000
0.898573	11.878858	24.993536	-0.034914	-0.113074	2.618264	0.000000	-0.006481	0.000000	0.000001	0.000000	0.000000	0.000000
1.339533	12.062013	24.816054	-0.382015	0.514034	2.631700	0.000000	0.067480	0.000000	0.000001	0.000000	0.000000	0.000000
1.780493	12.557792	24.093752	-0.746570	1.117754	2.677888	0.000000	0.142209	0.000000	0.000001	0.000000	0.000000	0.000000
2.221453	13.388849	22.859495	-1.145233	1.670617	2.757354	0.000000	0.218558	0.000000	0.000001	0.000000	0.000000	0.000000
2.662413	14.593150	21.169441	-1.596218	2.147468	2.871004	0.000000	0.297396	0.000000	0.000001	0.000000	0.000000	0.000000
3.108373	16.246529	19.075697	-2.124431	2.527741	3.021992	0.000000	0.380111	0.000000	0.000001	0.000000	0.000000	0.000000
3.657433	18.366663	16.724234	-1.714099	1.780245	3.205424	0.000000	0.287074	0.000000	0.000001	0.000000	0.000000	0.000000
4.206493	19.966645	15.119581	-1.182691	1.159552	3.336298	0.000000	0.188944	0.000000	0.000001	0.000000	0.000000	0.000000
4.755553	20.933462	14.147442	-0.567744	0.621451	3.412292	0.000000	0.087464	0.000000	0.000001	0.000000	0.000000	0.000000
5.304613	21.198822	13.738574	0.087306	0.127614	3.432058	0.000000	-0.015568	0.000000	0.000001	0.000000	0.000000	0.000000
5.603185	21.183972	13.647597	0.017819	0.141197	3.430087	0.000000	-0.006601	0.000000	0.000001	0.000000	0.000000	0.000000
5.936519	21.177339	13.561770	0.002079	0.116285	3.427887	0.000000	-0.006601	0.000000	0.000001	0.000000	0.000000	0.000000
6.269852	21.181200	13.492550	-0.013661	0.091374	3.425686	0.000000	-0.006601	0.000000	0.000002	0.000000	0.000000	0.000000
6.604435	21.195628	13.439771	-0.029460	0.066369	3.423478	0.000000	-0.006601	0.000000	0.000002	0.000000	0.000000	0.000000
6.901758	21.217320	13.406911	-0.098936	0.079179	3.421515	0.000000	0.002338	0.000000	0.000002	0.000000	0.000000	0.000000
7.450818	20.964273	13.580431	0.557083	-0.397075	3.394599	0.000000	-0.100236	0.000000	0.000002	-0.000000	0.000000	0.000000
7.999878	20.008281	14.289303	1.173752	-0.901611	3.311770	0.000000	-0.201033	0.000000	0.000002	-0.000000	0.000000	0.000000
8.548938	18.416873	15.584019	1.707514	-1.470367	3.174496	0.000000	-0.298264	0.000000	0.000001	-0.000000	0.000000	0.000000
9.097998	16.302457	17.556798	2.120665	-2.143854	2.985212	0.000000	-0.390205	0.000000	0.000001	-0.000000	0.000000	0.000000
9.543958	14.652683	19.314719	1.591865	-1.781366	2.829502	0.000000	-0.308505	0.000000	0.000001	-0.000000	0.000000	0.000000
9.984918	13.452552	20.695956	1.140092	-1.339055	2.710708	0.000000	-0.230803	0.000000	0.000001	-0.000000	0.000000	0.000000
10.425878	12.626462	21.658652	0.740406	-0.835819	2.625567	0.000000	-0.155730	0.000000	0.000001	-0.000000	0.000000	0.000000
10.866838	12.136670	22.159005	0.374548	-0.294554	2.573107	0.000000	-0.082430	0.000000	0.000001	-0.000000	0.000000	0.000000
11.309048	11.960661	22.173735	0.055028	0.205678	2.552712	0.000000	-0.016329	0.000000	0.000001	0.000000	0.000000	0.000000
11.606371	11.935353	22.055585	0.030094	0.191702	2.547857	0.000000	-0.016329	0.000000	0.000001	0.000000	0.000000	0.000000
12.086371	11.925784	21.882381	-0.010159	0.169139	2.540019	0.000000	-0.016329	0.000000	0.000001	0.000000	0.000000	0.000000
12.566371	11.954858	21.730838	-0.050412	0.146576	2.532181	0.000000	-0.016329	0.000000	0.000001	0.000000	0.000000	0.000000
13.046371	12.022576	21.600956	-0.090665	0.124013	2.524343	0.000000	-0.016329	0.000000	0.000001	0.000000	0.000000	0.000000
13.526371	12.128936	21.492733	-0.130918	0.101450	2.516505	0.000000	-0.016329	0.000000	0.000001	0.000000	0.000000	0.000000
14.007621	12.274367	21.405975	-0.171276	0.078828	2.508646	0.000000	-0.016329	0.000000	0.000001	0.000000	0.000000	0.000000
14.304943	12.383629	21.363255	-0.165842	0.012464	2.503791	0.000000	-0.022469	0.000000	0.000001	0.000000	0.000000	0.000000
14.745903	12.688638	21.118412	-0.528475	0.540673	2.509512	0.000000	0.048441	0.000000	0.000001	0.000000	0.000000	0.000000
15.186863	13.322858	20.416841	-0.915252	1.044281	2.546593	0.000000	0.119903	0.000000	0.000001	0.000000	0.000000	0.000000
15.627823	14.315265	19.290463	-1.343845	1.500376	2.615457	0.000000	0.192731	0.000000	0.000001	0.000000	0.000000	0.000000
16.068783	15.711199	17.790526	-1.833834	1.888205	2.716888	0.000000	0.267753	0.000000	0.000001	0.000000	0.000000	0.000000
16.514743	17.598090	15.963777	-2.412364	2.190872	2.853735	0.000000	0.346288	0.000000	0.000002	0.000000	0.000000	0.000000
17.063803	20.021243	13.923906	-1.974786	1.546265	3.020144	0.000000	0.258978	0.000000	0.000002	0.000000	0.000000	0.000000
17.612863	21.883977	12.527619	-1.397718	1.011795	3.137280	0.000000	0.167074	0.000000	0.000002	0.000000	0.000000	0.000000
18.161923	23.054718	11.675463	-0.721923	0.549393	3.203067	0.000000	0.072207	0.000000	0.000002	0.000000	0.000000	0.000000
18.710983	23.450770	11.306740	0.004865	0.126124	3.216337	0.000000	-0.023941	0.000000	0.000002	-0.000000	0.000000	0.000000
19.009556	23.488266	11.221860	-0.069179	0.128619	3.211698	0.000000	-0.015537	0.000000	0.000002	-0.000000	0.000000	0.000000
19.342889	23.539138	11.146179	-0.083438	0.098424	3.206519	0.000000	-0.015537	0.000000	0.000002	-0.000000	0.000000	0.000000
19.676223	23.599516	11.090629	-0.097697	0.068229	3.201340	0.000000	-0.015537	0.000000	0.000002	-0.000000	0.000000	0.000000
20.010806	23.669974	11.054976	-0.229284	0.092693	3.196161	0.000000	0.000299	0.000000	0.000002	-0.000000	0.000000	0.000000
20.308129	23.810248	11.007922	-0.304717	0.094328	3.196250	0.000000	0.008650	0.000000	0.000002	-0.000000	0.000000	0.000000
20.857189	23.734208	11.126922	0.442388	-0.312343	3.174787	0.000000	-0.086714	0.000000	0.000002	-0.000000	0.000000	0.000000
21.406249	22.850131	11.702020	1.158246	-0.741262	3.101310	0.000000	-0.180541	0.000000	0.000002	-0.000000	0.000000	0.000000
21.955309	21.220462	12.774178	1.792290	-1.222979	2.977121	0.000000	-0.271164	0.000000	0.000002	-0.000000	0.000000	0.000000
22.504369	18.960315	14.419762	2.299737	-1.791807	2.804422	0.000000	-0.356978	0.000000	0.000001	-0.000000	0.000000	0.000000
22.950329	17.179295	15.897013	1.708037	-1.506738	2.662513	0.000000	-0.279789	0.000000	0.000001	-0.000000	0.000000	0.000000
23.391289	15.902222	17.074761	1.199071	-1.153971	2.555456	0.000000	-0.206241	0.000000	0.000001	-0.000000	0.000000	0.000000
23.832249	15.048254	17.916968	0.744887	-0.748700	2.480281	0.000000	-0.135041	0.000000	0.000001	-0.000000	0.000000	0.000000
24.273209	14.578377	18.385314	0.324734	-0.309364	2.436135	0.000000	-0.065380	0.000000	0.000001	-0.000000	0.000000	0.000000
24.715418	14.471235	18.458243	-0.045182	0.098715	2.422509	0.000000	-0.002404	0.000000	0.000001	-0.000000	0.000000	0.000000
25.012741	14.504223	18.404378	-0.065769	0.082450	2.421795	0.000000	-0.002404	0.000000	0.000001	-0.000000	0.000000	0.000000
25.346075	14.555763	18.355490	-0.088850	0.064216	2.420994	0.000000	-0.002404	0.000000	0.000001	-0.000000	0.000000	0.000000
25.679408	14.622690	18.318758	-0.111932	0.045981	2.420192	0.000000	-0.002404	0.000000	0.000001	-0.000000	0.000000	0.000000
26.013991	14.705045	18.294484	-0.015803	-0.120736	2.419364	0.000000	-0.022031	0.000000	0.000001	-0.000000	0.000000	0.000000
26.311314	14.720455	18.371181	0.000072	-0.182276	2.412813	0.000000	-0.027948	0.000000	0.000001	-0.000000	0.000000	0.000000
26.752274	14.901784	18.332639	-0.412847	0.269350	2.415595	0.000000	0.040579	0.000000	0.000001	-0.000000	0.000000	0.000000
27.193234	15.454184	17.899701	-0.844627	0.708721	2.448668	0.000000	0.109568	0.000000	0.000001	-0.000000	0.000000	0.000000
27.634194	16.402893	17.092067	-1.314997	1.115846	2.512409	0.000000	0.179805	0.000000	0.000001	0.000000	0.000000	0.000000
28.075154	17.791254	15.946483	-1.845444	1.472200	2.607542	0.000000	0.252090	0.000000	0.000001	0.000000	0.000000	0.000000
28.521114	19.706825	14.497819	-2.465159	1.762485	2.736756	0.000000	0.327689	0.000000	0.000001	0.000000	0.000000	0.000000
29.070174	22.141520	12.883547	-1.942888	1.194934	2.894020	0.000000	0.244318	0.000000	0.000001	0.000000	0.000000	0.000000
29.619234	23.923485	11.842399	-1.283381	0.712495	3.004250	0.000000	0.156613	0.000000	0.000001	-0.000000	0.000000	0.000000
30.168294	24.926849	11.300217	-0.533223	0.280806	3.065489	0.000000	0.066130	0.000000	0.000001	-0.000000	0.000000	0.000000
30.717354	25.080741	11.218383	0.254600	-0.130882	3.076653	0.000000	-0.025526	0.000000	0.000001	-0.000000	0.000000	0.000000
31.015927	24.971520	11.287063	0.176739	-0.128460	3.071431	0.000000	-0.017488	0.000000	0.000001	-0.000000	0.000000	0.000000
31.349260	24.858283	11.382710	0.162974	-0.158479	3.065602	0.000000	-0.017488	0.000000	0.000001	-0.000000	0.000000	0.000000
31.682593	24.754222	11.498369	0.149208	-0.188499	3.059773	0.000000	-0.017488	0.000000	0.000001	-0.000000	0.000000	0.000000
32.017177	24.659000	11.634588	0.135391	-0.218631	3.053922	0.000000	-0.017488	0.000000	0.000001	-0.000000	0.000000	0.000000
32.314499	24.582141	11.772557	0.058884	-0.214648	3.048723	0.000000	-0.009522	0.000000	0.000001	-0.000000	0.000000	0.000000
32.863559	24.096386	12.247635	0.820582	-0.655716	3.018620	0.000000	-0.099966	0.000000	0.000001	-0.000000	0.000000	0.000000
33.412619	22.801229	13.229709	1.524317	-1.143488	2.939274	0.000000	-0.188637	0.000000	0.000001	-0.000000	0.000000	0.000000
33.961679	20.788153	14.788730	2.120383	-1.712709	2.812089	0.000000	-0.273962	0.000000	0.000001	-0.000000	0.000000	0.000000
34.510739	18.199353	17.035744	2.566675	-2.403922	2.639323	0.000000	-0.354428	0.000000	0.000001	-0.000000	0.000000	0.000000
34.956699	16.186609	19.045534	1.962781	-2.083920	2.497599	0.000000	-0.281519	0.000000	0.000001	-0.000000	0.000000	0.000000
35.397659	14.685832	20.707120	1.453562	-1.669851	2.388838	0.000000	-0.212244	0.000000	0.000001	-0.000000	0.000000	0.000000
35.838619	13.603274	21.968505	1.010753	-1.179805	2.310063	0.000000	-0.145386	0.000000	0.000000	-0.000000	0.000000	0.000000
36.279579	12.889478	22.772296	0.614121	-0.636079	2.260376	0.000000	-0.080184	0.000000	0.000000	-0.000000	0.000000	0.000000
36.721789	12.511140	23.082222	0.276123	-0.120070	2.239186	0.000000	-0.021387	0.000000	0.000000	-0.000000	0.000000	0.000000
37.019112	12.354549	23.157507	0.250546	-0.133137	2.232827	0.000000	-0.021387	0.000000	0.000000	-0.000000	0.000000	0.000000
37.352445	12.197076	23.251148	0.221872	-0.147787	2.225698	0.000000	-0.021387	0.000000	0.000000	-0.000000	0.000000	0.000000
37.685779	12.058720	23.354556	0.193198	-0.162436	2.218569	0.000000	-0.021387	0.000000	0.000000	-0.000000	0.000000	0.000000
38.020362	11.939068	23.468172	0.164416	-0.177140	2.211414	0.000000	-0.021387	0.000000	0.000000	-0.000000	0.000000	0.000000
38.317684	11.848904	23.577393	0.167896	-0.248026	2.205055	0.000000	-0.026794	0.000000	0.000000	-0.000000	0.000000	0.000000
38.758644	11.851980	23.535002	-0.174899	0.343792	2.207163	0.000000	0.036368	0.000000	0.000000	-0.000000	0.000000	0.000000
39.199604	12.159742	22.975606	-0.525685	0.919967	2.237189	0.000000	0.099944	0.000000	0.000000	-0.000000	0.000000	0.000000
39.640564	12.786251	21.924657	-0.900488	1.454285	2.295473	0.000000	0.164659	0.000000	0.000000	-0.000000	0.000000	0.000000
40.081524	13.760129	20.429972	-1.316432	1.922433	2.382680	0.000000	0.231249	0.000000	0.000000	-0.000000	0.000000	0.000000
40.527484	15.143433	18.536990	-1.796343	2.304390	2.501275	0.000000	0.300879	0.000000	-0.000000	-0.000000	0.000000	0.000000
41.076544	16.908972	16.409861	-1.400189	1.592605	2.645951	0.000000	0.225341	0.000000	-0.000000	-0.000000	0.000000	0.000000
41.625604	18.182269	14.997852	-0.905132	0.994258	2.747992	0.000000	0.145806	0.000000	-0.000000	-0.000000	0.000000	0.000000
42.174664	18.873384	14.200389	-0.346141	0.466730	2.805589	0.000000	0.063685	0.000000	-0.000000	-0.000000	0.000000	0.000000
42.723724	18.933500	13.960670	0.237300	-0.027554	2.817719	0.000000	-0.019565	0.000000	-0.000000	-0.000000	0.000000	0.000000
43.022297	18.826213	13.961728	0.171504	-0.012466	2.814075	0.000000	-0.012203	0.000000	-0.000000	-0.000000	0.000000	0.000000
43.502297	18.674167	13.990200	0.145258	-0.046851	2.808218	0.000000	-0.012203	0.000000	-0.000000	-0.000000	0.000000	0.000000
43.982297	18.547318	14.051681	0.119011	-0.081236	2.802360	0.000000	-0.012203	0.000000	-0.000000	-0.000000	0.000000	0.000000
44.462297	18.445665	14.146172	0.092765	-0.115621	2.796503	0.000000	-0.012203	0.000000	-0.000000	-0.000000	0.000000	0.000000
44.942297	18.369209	14.273673	0.066519	-0.150006	2.790645	0.000000	-0.012203	0.000000	-0.000000	-0.000000	0.000000	0.000000
45.423547	18.318075	14.434466	-0.050554	-0.112963	2.784790	0.000000	0.001594	0.000000	-0.000000	-0.000000	0.000000	0.000000
45.720870	18.352975	14.507841	-0.114779	-0.095918	2.785264	0.000000	0.008872	0.000000	-0.000000	-0.000000	0.000000	0.000000
46.269930	18.169981	14.893852	0.446092	-0.611271	2.767568	0.000000	-0.073237	0.000000	-0.000001	-0.000000	0.000000	0.000000
46.818990	17.384820	15.866226	0.975453	-1.170163	2.705079	0.000000	-0.154047	0.000000	-0.000001	-0.000000	0.000000	0.000000
47.368050	16.052951	17.494225	1.435913	-1.812404	2.598908	0.000000	-0.232124	0.000000	-0.000001	-0.000000	0.000000	0.000000
47.917110	14.268451	19.893807	1.794948	-2.583738	2.450936	0.000000	-0.306084	0.000000	-0.000001	-0.000000	0.000000	0.000000
48.363070	12.879607	22.027363	1.330364	-2.180335	2.329724	0.000000	-0.237795	0.000000	-0.000001	-0.000000	0.000000	0.000000
48.804030	11.886500	23.735675	0.930327	-1.678998	2.239324	0.000000	-0.172611	0.000000	-0.000001	-0.000000	0.000000	0.000000
49.244990	11.226189	24.966344	0.572794	-1.101267	2.177207	0.000000	-0.109393	0.000000	-0.000001	-0.000000	0.000000	0.000000
49.685950	10.868506	25.663375	0.241430	-0.473430	2.142665	0.000000	-0.047421	0.000000	-0.000001	-0.000000	0.000000	0.000000
50.128160	10.797240	25.794772	-0.052541	0.112642	2.135317	0.000000	0.008774	0.000000	-0.000001	-0.000000	0.000000	0.000000
50.425482	10.836693	25.731261	-0.080154	0.100969	2.137926	0.000000	0.008774	0.000000	-0.000001	-0.000000	0.000000	0.000000
50.758816	10.900448	25.668310	-0.111111	0.087882	2.140850	0.000000	0.008774	0.000000	-0.000001	-0.000000	0.000000	0.000000
51.092149	10.984842	25.614084	-0.142069	0.074796	2.143775	0.000000	0.008774	0.000000	-0.000001	-0.000000	0.000000	0.000000
51.426732	11.090081	25.568946	-0.083172	-0.145767	2.146689	0.000000	-0.008641	0.000000	-0.000001	-0.000000	0.000000	0.000000
51.724055	11.147566	25.659157	-0.082830	-0.220567	2.144120	0.000000	-0.013899	0.000000	-0.000001	-0.000000	0.000000	0.000000
52.165015	11.366124	25.568250	-0.414694	0.425940	2.151579	0.000000	0.047761	0.000000	-0.000001	-0.000000	0.000000	0.000000
52.605975	11.884577	24.913576	-0.765503	1.053066	2.186322	0.000000	0.109966	0.000000	-0.000001	-0.000000	0.000000	0.000000
53.046935	12.726610	23.724923	-1.151287	1.632279	2.248744	0.000000	0.173423	0.000000	-0.000001	-0.000000	0.000000	0.000000
53.487895	13.930694	22.056373	-1.589669	2.137225	2.339556	0.000000	0.238855	0.000000	-0.000001	-0.000000	0.000000	0.000000
53.933855	15.572474	19.958894	-2.104918	2.546262	2.461298	0.000000	0.307406	0.000000	-0.000001	-0.000000	0.000000	0.000000
54.482915	17.686150	17.598809	-1.721920	1.777520	2.609902	0.000000	0.233100	0.000000	-0.000001	-0.000000	0.000000	0.000000
55.031975	19.309564	16.008833	-1.217294	1.135387	2.716510	0.000000	0.154659	0.000000	-0.000001	-0.000000	0.000000	0.000000
55.581035	20.328047	15.075716	-0.626684	0.574125	2.779233	0.000000	0.073475	0.000000	-0.000001	-0.000000	0.000000	0.000000
56.130095	20.669659	14.732994	0.008191	0.053757	2.796956	0.000000	-0.009012	0.000000	-0.000001	-0.000000	0.000000	0.000000
56.428668	20.701339	14.684008	-0.060291	0.071814	2.796447	0.000000	-0.001704	0.000000	-0.000001	-0.000000	0.000000	0.000000
56.762001	20.746920	14.643738	-0.076451	0.048997	2.795879	0.000000	-0.001704	0.000000	-0.000002	-0.000000	0.000000	0.000000
57.095334	20.803274	14.618680	-0.092612	0.026179	2.795311	0.000000	-0.001704	0.000000	-0.000002	-0.000000	0.000000	0.000000
57.429918	20.870674	14.608824	-0.108833	0.003276	2.794741	0.000000	-0.001704	0.000000	-0.000002	-0.000000	0.000000	0.000000
57.727240	20.939677	14.612928	-0.177960	0.021105	2.794234	0.000000	0.005597	0.000000	-0.000002	-0.000000	0.000000	0.000000
58.276300	20.777787	14.870450	0.471064	-0.492898	2.774666	0.000000	-0.076772	0.000000	-0.000002	0.000000	0.000000	0.000000
58.825360	19.917324	15.708261	1.086814	-1.042009	2.710179	0.000000	-0.157780	0.000000	-0.000002	0.000000	0.000000	0.000000
59.374420	18.419069	17.186035	1.625797	-1.665340	2.601919	0.000000	-0.235988	0.000000	-0.000002	0.000000	0.000000	0.000000
59.923480	16.388849	19.409031	2.049942	-2.407289	2.451804	0.000000	-0.310011	0.000000	-0.000001	0.000000	0.000000	0.000000
60.369440	14.799694	21.384937	1.526125	-2.004690	2.328843	0.000000	-0.241722	0.000000	-0.000001	0.000000	0.000000	0.000000
60.810400	13.656490	22.941691	1.076246	-1.512249	2.236703	0.000000	-0.176584	0.000000	-0.000001	0.000000	0.000000	0.000000
61.251360	12.886943	24.032035	0.675538	-0.951002	2.172816	0.000000	-0.113456	0.000000	-0.000001	0.000000	0.000000	0.000000
61.692320	12.455894	24.606360	0.305693	-0.346485	2.136454	0.000000	-0.051621	0.000000	-0.000001	0.000000	0.000000	0.000000
62.134530	12.343702	24.638001	-0.020017	0.213323	2.127210	0.000000	0.004410	0.000000	-0.000001	-0.000000	0.000000	0.000000
62.431853	12.362769	24.514901	-0.044113	0.200706	2.128521	0.000000	0.004410	0.000000	-0.000001	-0.000000	0.000000	0.000000
62.765186	12.401183	24.385812	-0.071128	0.186561	2.129991	0.000000	0.004410	0.000000	-0.000001	-0.000000	0.000000	0.000000
63.098520	12.457607	24.266153	-0.098144	0.172416	2.131461	0.000000	0.004410	0.000000	-0.000001	-0.000000	0.000000	0.000000
63.433103	12.532354	24.155528	-0.125260	0.158218	2.132937	0.000000	0.004410	0.000000	-0.000001	-0.000000	0.000000	0.000000
63.730426	12.614004	24.065196	-0.118423	0.086586	2.134248	0.000000	-0.000824	0.000000	-0.000001	-0.000000	0.000000	0.000000
64.171386	12.879002	23.723787	-0.484814	0.684708	2.147427	0.000000	0.060656	0.000000	-0.000001	-0.000000	0.000000	0.000000
64.612346	13.475637	22.866657	-0.873356	1.251676	2.187843	0.000000	0.122826	0.000000	-0.000001	-0.000000	0.000000	0.000000
65.053306	14.431168	21.532806	-1.301798	1.761694	2.255955	0.000000	0.186396	0.000000	-0.000001	-0.000000	0.000000	0.000000
65.494266	15.789250	19.782921	-1.789716	2.191557	2.352541	0.000000	0.252088	0.000000	-0.000001	-0.000000	0.000000	0.000000
65.940226	17.635100	17.671849	-2.364095	2.522463	2.480271	0.000000	0.321054	0.000000	-0.000002	-0.000000	0.000000	0.000000
66.489286	20.001058	15.310127	-1.919503	1.804319	2.636178	0.000000	0.246014	0.000000	-0.000002	-0.000000	0.000000	0.000000
67.038346	21.801007	13.662236	-1.339328	1.214692	2.749623	0.000000	0.166612	0.000000	-0.000002	-0.000000	0.000000	0.000000
67.587406	22.907807	12.610801	-0.664548	0.711585	2.818595	0.000000	0.084254	0.000000	-0.000002	-0.000000	0.000000	0.000000
68.136466	23.243279	12.080931	0.057171	0.259162	2.841869	0.000000	0.000401	0.000000	-0.000002	0.000000	0.000000	0.000000
68.435038	23.249240	11.915327	-0.016406	0.263925	2.844206	0.000000	0.007827	0.000000	-0.000002	0.000000	0.000000	0.000000
68.768372	23.264958	11.749351	-0.030747	0.234001	2.846815	0.000000	0.007827	0.000000	-0.000002	0.000000	0.000000	0.000000
69.101705	23.290236	11.603326	-0.045088	0.204077	2.849424	0.000000	0.007827	0.000000	-0.000002	0.000000	0.000000	0.000000
69.436288	23.325224	11.476814	-0.059483	0.174041	2.852042	0.000000	0.007827	0.000000	-0.000002	0.000000	0.000000	0.000000
69.733611	23.364399	11.381257	-0.133323	0.177087	2.854369	0.000000	0.015285	0.000000	-0.000002	0.000000	0.000000	0.000000
70.282671	23.109543	11.414638	0.594743	-0.238242	2.839571	0.000000	-0.069110	0.000000	-0.000002	0.000000	0.000000	0.000000
