#ParticleID	Turn	x[m]	xp	y[m]	yp	z[m]	dE[GeV]# s	beta_x	beta_y	alpha_x	alpha_y	D_x	D_y	D_px	D_py	orbit_x	orbit_px	orbit_y	orbit_py
0.300000	11.814910	25.014546	-0.011123	-0.027332	2.618046	0.000000	0.000038	0.000000	-0.000001	0.000001	0.000000	0.000000
0.601250	11.829294	25.034645	-0.036624	-0.039384	2.618057	0.000000	0.000038	0.000000	-0.000001	0.000001	0.000000	0.000000
0.898573	11.858555	25.061601	-0.032711	-0.112738	2.618068	0.000000	-0.006382	0.000000	-0.000001	0.000001	0.000000	0.000000
1.339533	12.039546	24.883027	-0.379293	0.516162	2.631546	0.000000	0.067574	0.000000	-0.000000	0.000001	0.000000	0.000000
1.780493	12.532651	24.158092	-0.743203	1.121576	2.677774	0.000000	0.142300	0.000000	0.000001	0.000001	0.000000	0.000000
2.221453	13.360399	22.919779	-1.141068	1.675959	2.757280	0.000000	0.218646	0.000000	0.000001	0.000001	0.000000	0.000000
2.662413	14.560608	21.224431	-1.591065	2.154087	2.870967	0.000000	0.297483	0.000000	0.000002	0.000001	0.000000	0.000000
3.108373	16.208860	19.124320	-2.118044	2.535339	3.021993	0.000000	0.380198	0.000000	0.000002	0.000001	0.000000	0.000000
3.657433	18.322464	16.765592	-1.708663	1.785957	3.205472	0.000000	0.287159	0.000000	0.000003	0.000001	0.000000	0.000000
4.206493	19.917179	15.155511	-1.178590	1.163784	3.336392	0.000000	0.189028	0.000000	0.000004	0.000001	0.000000	0.000000
4.755553	20.880363	14.179394	-0.565267	0.624506	3.412430	0.000000	0.087543	0.000000	0.000004	0.000001	0.000000	0.000000
5.304613	21.143982	13.767715	0.087983	0.129709	3.432238	0.000000	-0.015494	0.000000	0.000005	0.000001	0.000000	0.000000
5.603185	21.128652	13.675433	0.018604	0.143398	3.430289	0.000000	-0.006527	0.000000	0.000005	0.000001	0.000000	0.000000
5.936519	21.121509	13.588126	0.002822	0.118522	3.428113	0.000000	-0.006527	0.000000	0.000005	0.000001	0.000000	0.000000
6.269852	21.124888	13.517403	-0.012959	0.093647	3.425937	0.000000	-0.006527	0.000000	0.000006	0.000001	0.000000	0.000000
6.604435	21.138861	13.463092	-0.028801	0.068678	3.423753	0.000000	-0.006527	0.000000	0.000006	0.000001	0.000000	0.000000
6.901758	21.160172	13.428850	-0.098162	0.081575	3.421812	0.000000	0.002413	0.000000	0.000006	0.000001	0.000000	0.000000
7.450818	20.907330	13.600070	0.555937	-0.395257	3.394935	0.000000	-0.100172	0.000000	0.000007	0.000001	0.000000	0.000000
7.999878	19.953621	14.307203	1.170767	-0.900242	3.312138	0.000000	-0.200980	0.000000	0.000007	0.000001	0.000000	0.000000
8.548938	18.366409	15.600617	1.702900	-1.469350	3.174889	0.000000	-0.298223	0.000000	0.000007	0.000000	0.000000	0.000000
9.097998	16.257809	17.572438	2.114749	-2.143115	2.985624	0.000000	-0.390177	0.000000	0.000007	0.000000	0.000000	0.000000
9.543958	14.612712	19.329432	1.587256	-1.780035	2.829928	0.000000	-0.308466	0.000000	0.000007	0.000000	0.000000	0.000000
9.984918	13.416154	20.709258	1.136569	-1.337197	2.711154	0.000000	-0.230753	0.000000	0.000008	0.000000	0.000000	0.000000
10.425878	12.592752	21.670113	0.737809	-0.833518	2.626037	0.000000	-0.155668	0.000000	0.000008	0.000001	0.000000	0.000000
10.866838	12.104888	22.168279	0.372757	-0.291915	2.573607	0.000000	-0.082356	0.000000	0.000008	0.000001	0.000000	0.000000
11.309048	11.930137	22.180570	0.053885	0.208521	2.553247	0.000000	-0.016242	0.000000	0.000009	0.000001	0.000000	0.000000
11.606371	11.905526	22.060732	0.028890	0.194534	2.548418	0.000000	-0.016242	0.000000	0.000009	0.000001	0.000000	0.000000
12.086371	11.897160	21.884819	-0.011461	0.171952	2.540621	0.000000	-0.016242	0.000000	0.000009	0.000001	0.000000	0.000000
12.566371	11.927531	21.730584	-0.051812	0.149371	2.532824	0.000000	-0.016242	0.000000	0.000010	0.000001	0.000000	0.000000
13.046371	11.996639	21.598027	-0.092163	0.126789	2.525027	0.000000	-0.016242	0.000000	0.000010	0.000001	0.000000	0.000000
13.526371	12.104484	21.487148	-0.132514	0.104208	2.517230	0.000000	-0.016242	0.000000	0.000011	0.000001	0.000000	0.000000
14.007621	12.251499	21.397744	-0.172970	0.081567	2.509413	0.000000	-0.016242	0.000000	0.000011	0.000001	0.000000	0.000000
14.304943	12.361786	21.353399	-0.167653	0.015221	2.504584	0.000000	-0.022384	0.000000	0.000012	0.000001	0.000000	0.000000
14.745903	12.668193	21.106260	-0.529847	0.543103	2.510346	0.000000	0.048548	0.000000	0.000012	0.000001	0.000000	0.000000
15.186863	13.303453	20.402731	-0.916247	1.046274	2.547479	0.000000	0.120032	0.000000	0.000013	0.000002	0.000000	0.000000
15.627823	14.296588	19.274822	-1.344508	1.501841	2.616404	0.000000	0.192883	0.000000	0.000014	0.000002	0.000000	0.000000
16.068783	15.692973	17.773852	-1.834196	1.889075	2.717906	0.000000	0.267931	0.000000	0.000015	0.000002	0.000000	0.000000
16.514743	17.580060	15.946611	-2.412441	2.191102	2.854838	0.000000	0.346493	0.000000	0.000016	0.000003	0.000000	0.000000
17.063803	20.003742	13.906315	-1.975663	1.546811	3.021348	0.000000	0.259146	0.000000	0.000017	0.000002	0.000000	0.000000
17.612863	21.867854	12.509238	-1.399334	1.012696	3.138565	0.000000	0.167202	0.000000	0.000018	0.000002	0.000000	0.000000
18.161923	23.040725	11.655870	-0.724163	0.550713	3.204409	0.000000	0.072292	0.000000	0.000019	0.000001	0.000000	0.000000
18.710983	23.439510	11.285426	0.002159	0.127956	3.217713	0.000000	-0.023900	0.000000	0.000019	0.000000	0.000000	0.000000
19.009556	23.478602	11.199508	-0.071857	0.130326	3.213087	0.000000	-0.015494	0.000000	0.000019	0.000000	0.000000	0.000000
19.342889	23.531263	11.122714	-0.086127	0.100057	3.207922	0.000000	-0.015494	0.000000	0.000019	0.000000	0.000000	0.000000
19.676223	23.593438	11.066099	-0.100398	0.069788	3.202758	0.000000	-0.015494	0.000000	0.000020	0.000000	0.000000	0.000000
20.010806	23.665707	11.029427	-0.231975	0.094053	3.197593	0.000000	0.000349	0.000000	0.000020	0.000001	0.000000	0.000000
20.308129	23.807586	10.981585	-0.307409	0.095545	3.197697	0.000000	0.008702	0.000000	0.000020	0.000001	0.000000	0.000000
20.857189	23.734536	11.098838	0.439666	-0.310358	3.176250	0.000000	-0.086709	0.000000	0.000020	-0.000000	0.000000	0.000000
21.406249	22.853375	11.671272	1.155686	-0.738367	3.102763	0.000000	-0.180582	0.000000	0.000020	-0.000001	0.000000	0.000000
21.955309	21.226345	12.739660	1.790074	-1.218968	2.978538	0.000000	-0.271253	0.000000	0.000019	-0.000001	0.000000	0.000000
22.504369	18.968369	14.380101	2.298019	-1.786393	2.805780	0.000000	-0.357112	0.000000	0.000018	-0.000002	0.000000	0.000000
22.950329	17.188875	15.852912	1.706319	-1.502235	2.663819	0.000000	-0.279888	0.000000	0.000018	-0.000001	0.000000	0.000000
23.391289	15.913346	17.027166	1.197272	-1.150581	2.556726	0.000000	-0.206306	0.000000	0.000017	-0.000001	0.000000	0.000000
23.832249	15.061029	17.866932	0.742925	-0.746576	2.481530	0.000000	-0.135074	0.000000	0.000017	-0.000001	0.000000	0.000000
24.273209	14.592986	18.334001	0.322521	-0.308602	2.437376	0.000000	-0.065381	0.000000	0.000017	-0.000000	0.000000	0.000000
24.715418	14.487950	18.406876	-0.047712	0.098211	2.423758	0.000000	-0.002375	0.000000	0.000017	0.000000	0.000000	0.000000
25.012741	14.522438	18.353324	-0.068281	0.081902	2.423052	0.000000	-0.002375	0.000000	0.000017	0.000000	0.000000	0.000000
25.346075	14.575645	18.304817	-0.091341	0.063619	2.422260	0.000000	-0.002375	0.000000	0.000017	0.000000	0.000000	0.000000
25.679408	14.644226	18.268499	-0.114401	0.045335	2.421468	0.000000	-0.002375	0.000000	0.000017	0.000000	0.000000	0.000000
26.013991	14.728225	18.244673	-0.018063	-0.121027	2.420649	0.000000	-0.022013	0.000000	0.000017	0.000000	0.000000	0.000000
26.311314	14.744970	18.321558	-0.002103	-0.182485	2.414105	0.000000	-0.027932	0.000000	0.000017	0.000000	0.000000	0.000000
26.752274	14.928490	18.283792	-0.415659	0.267802	2.416901	0.000000	0.040629	0.000000	0.000017	0.000000	0.000000	0.000000
27.193234	15.483698	17.852786	-0.848205	0.705905	2.450003	0.000000	0.109652	0.000000	0.000017	0.000001	0.000000	0.000000
27.634194	16.435958	17.048150	-1.319504	1.111889	2.513788	0.000000	0.179924	0.000000	0.000018	0.000001	0.000000	0.000000
28.075154	17.828779	15.906493	-1.851086	1.467284	2.608981	0.000000	0.252245	0.000000	0.000019	0.000002	0.000000	0.000000
28.521114	19.749990	14.462563	-2.472207	1.756830	2.738272	0.000000	0.327883	0.000000	0.000020	0.000002	0.000000	0.000000
29.070174	22.191864	12.853739	-1.948837	1.190608	2.895628	0.000000	0.244461	0.000000	0.000021	0.000002	0.000000	0.000000
29.619234	23.979561	11.816756	-1.287810	0.709191	3.005921	0.000000	0.156703	0.000000	0.000021	0.000001	0.000000	0.000000
30.168294	24.986806	11.277752	-0.535819	0.278288	3.067195	0.000000	0.066165	0.000000	0.000022	0.000000	0.000000	0.000000
30.717354	25.142453	11.198335	0.254019	-0.132793	3.078362	0.000000	-0.025546	0.000000	0.000022	-0.000000	0.000000	0.000000
31.015927	25.033659	11.268209	0.176042	-0.130487	3.073136	0.000000	-0.017505	0.000000	0.000022	-0.000000	0.000000	0.000000
31.349260	24.920873	11.365229	0.162314	-0.160573	3.067301	0.000000	-0.017505	0.000000	0.000022	-0.000000	0.000000	0.000000
31.682593	24.817240	11.482305	0.148586	-0.190658	3.061466	0.000000	-0.017505	0.000000	0.000021	-0.000000	0.000000	0.000000
32.017177	24.722421	11.619991	0.134807	-0.220856	3.055609	0.000000	-0.017505	0.000000	0.000021	-0.000000	0.000000	0.000000
32.314499	24.645900	11.759301	0.058178	-0.216972	3.050405	0.000000	-0.009536	0.000000	0.000021	-0.000000	0.000000	0.000000
32.863559	24.159752	12.236781	0.821998	-0.657793	3.020281	0.000000	-0.100034	0.000000	0.000021	-0.000001	0.000000	0.000000
33.412619	22.861913	13.221069	1.527756	-1.145467	2.940882	0.000000	-0.188758	0.000000	0.000020	-0.000002	0.000000	0.000000
33.961679	20.844054	14.782274	2.125602	-1.714730	2.813618	0.000000	-0.274134	0.000000	0.000019	-0.000002	0.000000	0.000000
34.510739	18.248708	17.031596	2.573305	-2.406129	2.640745	0.000000	-0.354648	0.000000	0.000018	-0.000003	0.000000	0.000000
34.956699	16.230723	19.043531	1.967940	-2.086502	2.498932	0.000000	-0.281703	0.000000	0.000017	-0.000002	0.000000	0.000000
35.397659	14.725949	20.707515	1.457499	-1.672686	2.390098	0.000000	-0.212395	0.000000	0.000016	-0.000002	0.000000	0.000000
35.838619	13.640390	21.971465	1.013647	-1.182764	2.311264	0.000000	-0.145505	0.000000	0.000015	-0.000002	0.000000	0.000000
36.279579	12.924450	22.777871	0.616106	-0.639027	2.261533	0.000000	-0.080273	0.000000	0.000014	-0.000001	0.000000	0.000000
36.721789	12.544726	23.090350	0.277366	-0.122886	2.240310	0.000000	-0.021448	0.000000	0.000014	-0.000001	0.000000	0.000000
37.019112	12.387380	23.167310	0.251842	-0.135957	2.233933	0.000000	-0.021448	0.000000	0.000013	-0.000001	0.000000	0.000000
37.352445	12.229024	23.262833	0.223226	-0.150611	2.226784	0.000000	-0.021448	0.000000	0.000013	-0.000001	0.000000	0.000000
37.685779	12.089745	23.368125	0.194610	-0.165265	2.219635	0.000000	-0.021448	0.000000	0.000013	-0.000001	0.000000	0.000000
38.020362	11.969128	23.483637	0.165887	-0.179974	2.212459	0.000000	-0.021448	0.000000	0.000013	-0.000001	0.000000	0.000000
38.317684	11.878073	23.594544	0.169488	-0.250900	2.206082	0.000000	-0.026858	0.000000	0.000012	-0.000001	0.000000	0.000000
38.758644	11.880035	23.554479	-0.173955	0.341412	2.208170	0.000000	0.036331	0.000000	0.000012	-0.000001	0.000000	0.000000
39.199604	12.187233	22.996924	-0.525346	0.918189	2.238185	0.000000	0.099933	0.000000	0.000012	-0.000000	0.000000	0.000000
39.640564	12.813703	21.947246	-0.900738	1.453190	2.296470	0.000000	0.164674	0.000000	0.000012	-0.000000	0.000000	0.000000
40.081524	13.788064	20.453205	-1.317282	1.922071	2.383689	0.000000	0.231290	0.000000	0.000012	0.000000	0.000000	0.000000
40.527484	15.172410	18.560208	-1.797836	2.304783	2.502307	0.000000	0.300946	0.000000	0.000012	0.000001	0.000000	0.000000
41.076544	16.939004	16.432956	-1.400605	1.592437	2.647011	0.000000	0.225374	0.000000	0.000012	0.000000	0.000000	0.000000
41.625604	18.212149	15.021444	-0.904442	0.993517	2.749061	0.000000	0.145805	0.000000	0.000012	-0.000000	0.000000	0.000000
42.174664	18.901918	14.225131	-0.344393	0.465363	2.806647	0.000000	0.063649	0.000000	0.000012	-0.000001	0.000000	0.000000
42.723724	18.959587	13.987300	0.239981	-0.029645	2.818748	0.000000	-0.019635	0.000000	0.000012	-0.000001	0.000000	0.000000
43.022297	18.850735	13.989554	0.174129	-0.014449	2.815085	0.000000	-0.012271	0.000000	0.000011	-0.000001	0.000000	0.000000
43.502297	18.696164	14.019897	0.147894	-0.048767	2.809195	0.000000	-0.012271	0.000000	0.000011	-0.000001	0.000000	0.000000
43.982297	18.566778	14.083187	0.121659	-0.083086	2.803306	0.000000	-0.012271	0.000000	0.000010	-0.000001	0.000000	0.000000
44.462297	18.462579	14.179422	0.095423	-0.117404	2.797416	0.000000	-0.012271	0.000000	0.000010	-0.000001	0.000000	0.000000
44.942297	18.383566	14.308603	0.069188	-0.151723	2.791527	0.000000	-0.012271	0.000000	0.000009	-0.000001	0.000000	0.000000
45.423547	18.329858	14.471015	-0.047932	-0.114432	2.785639	0.000000	0.001531	0.000000	0.000009	-0.000001	0.000000	0.000000
45.720870	18.363194	14.545250	-0.112166	-0.097246	2.786094	0.000000	0.008810	0.000000	0.000009	-0.000001	0.000000	0.000000
46.269930	18.177165	14.933354	0.448974	-0.613777	2.768357	0.000000	-0.073325	0.000000	0.000008	-0.000001	0.000000	0.000000
46.818990	17.388783	15.909206	0.978400	-1.174027	2.705814	0.000000	-0.154160	0.000000	0.000008	-0.000001	0.000000	0.000000
47.368050	16.053737	17.542313	1.438718	-1.817899	2.599575	0.000000	-0.232260	0.000000	0.000007	-0.000002	0.000000	0.000000
47.917110	14.266327	19.948999	1.797411	-2.591257	2.451524	0.000000	-0.306240	0.000000	0.000006	-0.000002	0.000000	0.000000
48.363070	12.875377	22.088747	1.332641	-2.186644	2.330247	0.000000	-0.237937	0.000000	0.000005	-0.000002	0.000000	0.000000
48.804030	11.880303	23.801983	0.932526	-1.683813	2.239787	0.000000	-0.172740	0.000000	0.000004	-0.000002	0.000000	0.000000
49.244990	11.218051	25.036157	0.575014	-1.104371	2.177617	0.000000	-0.109511	0.000000	0.000004	-0.000001	0.000000	0.000000
49.685950	10.858362	25.735115	0.243774	-0.474680	2.143026	0.000000	-0.047529	0.000000	0.000003	-0.000001	0.000000	0.000000
50.128160	10.784930	25.866772	-0.049998	0.113127	2.135633	0.000000	0.008675	0.000000	0.000002	-0.000001	0.000000	0.000000
50.425482	10.822878	25.802962	-0.077636	0.101486	2.138212	0.000000	0.008675	0.000000	0.000002	-0.000001	0.000000	0.000000
50.758816	10.884963	25.739656	-0.108620	0.088434	2.141104	0.000000	0.008675	0.000000	0.000002	-0.000001	0.000000	0.000000
51.092149	10.967705	25.685050	-0.139605	0.075383	2.143996	0.000000	0.008675	0.000000	0.000001	-0.000001	0.000000	0.000000
51.426732	11.071305	25.639509	-0.080888	-0.145718	2.146877	0.000000	-0.008742	0.000000	0.000001	-0.000001	0.000000	0.000000
51.724055	11.127442	25.729681	-0.080631	-0.220657	2.144278	0.000000	-0.014000	0.000000	0.000000	-0.000001	0.000000	0.000000
52.165015	11.343843	25.638029	-0.411980	0.427712	2.151694	0.000000	0.047663	0.000000	-0.000000	-0.000001	0.000000	0.000000
52.605975	11.859630	24.980997	-0.762150	1.056621	2.186395	0.000000	0.109870	0.000000	-0.000001	-0.000001	0.000000	0.000000
53.046935	12.698369	23.788480	-1.147141	1.637454	2.248775	0.000000	0.173328	0.000000	-0.000002	-0.000001	0.000000	0.000000
53.487895	13.898379	22.114736	-1.584541	2.143784	2.339547	0.000000	0.238761	0.000000	-0.000002	-0.000001	0.000000	0.000000
53.933855	15.535056	20.010894	-2.098564	2.553912	2.461248	0.000000	0.307311	0.000000	-0.000003	-0.000001	0.000000	0.000000
54.482915	17.642234	17.643531	-1.716509	1.783204	2.609801	0.000000	0.233008	0.000000	-0.000004	-0.000001	0.000000	0.000000
55.031975	19.260403	16.048203	-1.213209	1.139510	2.716360	0.000000	0.154571	0.000000	-0.000004	-0.000001	0.000000	0.000000
55.581035	20.275266	15.111277	-0.624214	0.576981	2.779036	0.000000	0.073393	0.000000	-0.000005	-0.000001	0.000000	0.000000
56.130095	20.615137	14.766018	0.008873	0.055549	2.796716	0.000000	-0.009087	0.000000	-0.000005	-0.000001	0.000000	0.000000
56.428668	20.646337	14.715899	-0.059506	0.073732	2.796185	0.000000	-0.001780	0.000000	-0.000006	-0.000001	0.000000	0.000000
56.762001	20.691408	14.674336	-0.075708	0.050958	2.795592	0.000000	-0.001780	0.000000	-0.000006	-0.000001	0.000000	0.000000
57.095334	20.747281	14.647955	-0.091910	0.028183	2.794999	0.000000	-0.001780	0.000000	-0.000006	-0.000001	0.000000	0.000000
57.429918	20.814225	14.636745	-0.108173	0.005324	2.794404	0.000000	-0.001780	0.000000	-0.000007	-0.000001	0.000000	0.000000
57.727240	20.882846	14.639619	-0.177191	0.023262	2.793875	0.000000	0.005521	0.000000	-0.000007	-0.000001	0.000000	0.000000
58.276300	20.721161	14.895184	0.469923	-0.491469	2.774268	0.000000	-0.076836	0.000000	-0.000007	-0.000001	0.000000	0.000000
58.825360	19.862970	15.731776	1.083844	-1.041206	2.709751	0.000000	-0.157830	0.000000	-0.000008	-0.000000	0.000000	0.000000
59.374420	18.368890	17.208985	1.621208	-1.665106	2.601467	0.000000	-0.236025	0.000000	-0.000008	-0.000000	0.000000	0.000000
59.923480	16.344456	19.432027	2.044057	-2.407608	2.451336	0.000000	-0.310033	0.000000	-0.000008	0.000000	0.000000	0.000000
60.369440	14.759953	21.407884	1.521540	-2.004259	2.328363	0.000000	-0.241756	0.000000	-0.000008	-0.000000	0.000000	0.000000
60.810400	13.620302	22.963935	1.072741	-1.511093	2.236205	0.000000	-0.176630	0.000000	-0.000008	-0.000000	0.000000	0.000000
61.251360	12.853430	24.052958	0.672953	-0.949173	2.172295	0.000000	-0.113516	0.000000	-0.000008	-0.000001	0.000000	0.000000
61.692320	12.424301	24.625403	0.303910	-0.344066	2.135905	0.000000	-0.051694	0.000000	-0.000009	-0.000001	0.000000	0.000000
62.134530	12.313361	24.654684	-0.021151	0.216175	2.126625	0.000000	0.004323	0.000000	-0.000009	-0.000001	0.000000	0.000000
62.431853	12.333121	24.529889	-0.045309	0.203552	2.127911	0.000000	0.004323	0.000000	-0.000009	-0.000001	0.000000	0.000000
62.765186	12.372354	24.398905	-0.072392	0.189400	2.129352	0.000000	0.004323	0.000000	-0.000010	-0.000001	0.000000	0.000000
63.098520	12.429643	24.277356	-0.099475	0.175248	2.130793	0.000000	0.004323	0.000000	-0.000010	-0.000001	0.000000	0.000000
63.433103	12.505304	24.164838	-0.126659	0.161043	2.132240	0.000000	0.004323	0.000000	-0.000011	-0.000001	0.000000	0.000000
63.730426	12.587803	24.072827	-0.119944	0.089380	2.133526	0.000000	-0.000909	0.000000	-0.000011	-0.000001	0.000000	0.000000
64.171386	12.853892	23.728887	-0.485776	0.687632	2.146664	0.000000	0.060551	0.000000	-0.000011	-0.000001	0.000000	0.000000
64.612346	13.451145	22.869171	-0.873802	1.254596	2.187029	0.000000	0.122701	0.000000	-0.000012	-0.000002	0.000000	0.000000
65.053306	14.406850	21.532795	-1.301749	1.764478	2.255083	0.000000	0.186249	0.000000	-0.000013	-0.000002	0.000000	0.000000
65.494266	15.764669	19.780563	-1.789169	2.194077	2.351599	0.000000	0.251918	0.000000	-0.000014	-0.000002	0.000000	0.000000
65.940226	17.609799	17.667405	-2.363023	2.524601	2.479249	0.000000	0.320858	0.000000	-0.000015	-0.000003	0.000000	0.000000
66.489286	19.975114	15.303446	-1.919413	1.806280	2.635058	0.000000	0.245853	0.000000	-0.000016	-0.000002	0.000000	0.000000
67.038346	21.775509	13.653434	-1.340226	1.216617	2.748426	0.000000	0.166488	0.000000	-0.000017	-0.000002	0.000000	0.000000
67.587406	22.883811	12.599843	-0.666372	0.713610	2.817341	0.000000	0.084170	0.000000	-0.000018	-0.000001	0.000000	0.000000
68.136466	23.221738	12.067627	0.054551	0.261433	2.840582	0.000000	0.000359	0.000000	-0.000018	-0.000000	0.000000	0.000000
68.435038	23.229239	11.900704	-0.018990	0.266103	2.842905	0.000000	0.007782	0.000000	-0.000018	-0.000000	0.000000	0.000000
68.768372	23.246684	11.733300	-0.033345	0.236110	2.845499	0.000000	0.007782	0.000000	-0.000018	-0.000000	0.000000	0.000000
69.101705	23.273699	11.585891	-0.047700	0.206117	2.848093	0.000000	0.007782	0.000000	-0.000019	-0.000000	0.000000	0.000000
69.436288	23.310440	11.458037	-0.062109	0.176011	2.850697	0.000000	0.007782	0.000000	-0.000019	-0.000000	0.000000	0.000000
69.733611	23.351179	11.361327	-0.135935	0.178948	2.853011	0.000000	0.015237	0.000000	-0.000019	-0.000001	0.000000	0.000000
70.282671	23.099408	11.392351	0.591770	-0.235785	2.838198	0.000000	-0.069113	0.000000	-0.000019	0.000000	0.000000	0.000000
