#ParticleID	Turn	x[m]	xp	y[m]	yp	z[m]	dE[GeV]# s	beta_x	beta_y	alpha_x	alpha_y	D_x	D_y	D_px	D_py	orbit_x	orbit_px	orbit_y	orbit_py
0.300000	11.830340	24.953405	-0.013143	-0.027749	2.618250	0.000000	-0.000041	0.000000	-0.000000	0.000000	0.000000	0.000000
0.601250	11.845931	24.973763	-0.038611	-0.039831	2.618238	0.000000	-0.000041	0.000000	-0.000000	0.000000	0.000000	0.000000
0.898573	11.876364	25.000994	-0.034624	-0.113065	2.618225	0.000000	-0.006461	0.000000	0.000000	0.000000	0.000000	0.000000
1.339533	12.059235	24.823416	-0.381660	0.514240	2.631670	0.000000	0.067498	0.000000	0.000000	0.000000	0.000000	0.000000
1.780493	12.554668	24.100848	-0.746134	1.118148	2.677866	0.000000	0.142227	0.000000	0.000000	0.000000	0.000000	0.000000
2.221453	13.385298	22.866168	-1.144697	1.671180	2.757340	0.000000	0.218576	0.000000	0.000000	0.000000	0.000000	0.000000
2.662413	14.589074	21.175551	-1.595558	2.148175	2.870997	0.000000	0.297413	0.000000	0.000001	0.000000	0.000000	0.000000
3.108373	16.241797	19.081124	-2.123614	2.528560	3.021993	0.000000	0.380128	0.000000	0.000001	0.000000	0.000000	0.000000
3.657433	18.361093	16.728881	-1.713399	1.780857	3.205434	0.000000	0.287091	0.000000	0.000001	0.000000	0.000000	0.000000
4.206493	19.960395	15.123649	-1.182159	1.160000	3.336317	0.000000	0.188961	0.000000	0.000001	0.000000	0.000000	0.000000
4.755553	20.926738	14.151093	-0.567417	0.621767	3.412320	0.000000	0.087479	0.000000	0.000001	0.000000	0.000000	0.000000
5.304613	21.191863	13.741939	0.087405	0.127821	3.432095	0.000000	-0.015554	0.000000	0.000001	0.000000	0.000000	0.000000
5.603185	21.176944	13.650832	0.017932	0.141416	3.430128	0.000000	-0.006586	0.000000	0.000001	0.000000	0.000000	0.000000
5.936519	21.170238	13.564857	0.002186	0.116510	3.427933	0.000000	-0.006586	0.000000	0.000001	0.000000	0.000000	0.000000
6.269852	21.174029	13.495486	-0.013559	0.091603	3.425737	0.000000	-0.006586	0.000000	0.000002	0.000000	0.000000	0.000000
6.604435	21.188390	13.442553	-0.029364	0.066602	3.423533	0.000000	-0.006586	0.000000	0.000002	0.000000	0.000000	0.000000
6.901758	21.210027	13.409554	-0.098825	0.079423	3.421575	0.000000	0.002353	0.000000	0.000002	0.000000	0.000000	0.000000
7.450818	20.956992	13.582846	0.556948	-0.396902	3.394667	0.000000	-0.100223	0.000000	0.000002	0.000000	0.000000	0.000000
7.999878	20.001279	14.291561	1.173382	-0.901497	3.311844	0.000000	-0.201022	0.000000	0.000002	0.000000	0.000000	0.000000
8.548938	18.410396	15.586180	1.706933	-1.470303	3.174575	0.000000	-0.298256	0.000000	0.000002	0.000000	0.000000	0.000000
9.097998	16.296714	17.558914	2.119916	-2.143836	2.985295	0.000000	-0.390199	0.000000	0.000002	-0.000000	0.000000	0.000000
9.543958	14.647531	19.316786	1.591283	-1.781275	2.829587	0.000000	-0.308497	0.000000	0.000002	0.000000	0.000000	0.000000
9.984918	13.447851	20.697912	1.139649	-1.338896	2.710798	0.000000	-0.230793	0.000000	0.000002	0.000000	0.000000	0.000000
10.425878	12.622097	21.660440	0.740082	-0.835598	2.625661	0.000000	-0.155717	0.000000	0.000002	0.000000	0.000000	0.000000
10.866838	12.132544	22.160574	0.374328	-0.294281	2.573207	0.000000	-0.082415	0.000000	0.000002	0.000000	0.000000	0.000000
11.309048	11.956687	22.175046	0.054892	0.205986	2.552819	0.000000	-0.016312	0.000000	0.000002	0.000000	0.000000	0.000000
11.606371	11.931462	22.056713	0.029950	0.192009	2.547969	0.000000	-0.016312	0.000000	0.000002	0.000000	0.000000	0.000000
12.086371	11.922037	21.883215	-0.010316	0.169445	2.540139	0.000000	-0.016312	0.000000	0.000002	0.000000	0.000000	0.000000
12.566371	11.951267	21.731379	-0.050581	0.146880	2.532309	0.000000	-0.016312	0.000000	0.000002	0.000000	0.000000	0.000000
13.046371	12.019153	21.601204	-0.090847	0.124316	2.524480	0.000000	-0.016312	0.000000	0.000002	0.000000	0.000000	0.000000
13.526371	12.125694	21.492692	-0.131113	0.101752	2.516650	0.000000	-0.016312	0.000000	0.000003	0.000000	0.000000	0.000000
14.007621	12.271319	21.405643	-0.171484	0.079128	2.508800	0.000000	-0.016312	0.000000	0.000003	0.000000	0.000000	0.000000
14.304943	12.380707	21.362746	-0.166065	0.012765	2.503950	0.000000	-0.022452	0.000000	0.000003	0.000000	0.000000	0.000000
14.745903	12.685885	21.117645	-0.528638	0.540954	2.509679	0.000000	0.048462	0.000000	0.000003	0.000000	0.000000	0.000000
15.186863	13.320226	20.415840	-0.915364	1.044529	2.546770	0.000000	0.119929	0.000000	0.000003	0.000000	0.000000	0.000000
15.627823	14.312710	19.289262	-1.343910	1.500579	2.615646	0.000000	0.192761	0.000000	0.000003	0.000000	0.000000	0.000000
16.068783	15.708682	17.789170	-1.833855	1.888354	2.717091	0.000000	0.267789	0.000000	0.000003	0.000001	0.000000	0.000000
16.514743	17.595572	15.962315	-2.412342	2.190960	2.853955	0.000000	0.346329	0.000000	0.000004	0.000001	0.000000	0.000000
17.063803	20.018760	13.922338	-1.974871	1.546372	3.020384	0.000000	0.259011	0.000000	0.000004	0.000000	0.000000	0.000000
17.612863	21.881644	12.525920	-1.397905	1.011929	3.137536	0.000000	0.167100	0.000000	0.000004	0.000000	0.000000	0.000000
18.161923	23.052641	11.673598	-0.722199	0.549563	3.203335	0.000000	0.072224	0.000000	0.000004	0.000000	0.000000	0.000000
18.710983	23.449036	11.304664	0.004520	0.126341	3.216612	0.000000	-0.023933	0.000000	0.000004	0.000000	0.000000	0.000000
19.009556	23.486735	11.219660	-0.069519	0.128824	3.211975	0.000000	-0.015528	0.000000	0.000004	0.000000	0.000000	0.000000
19.342889	23.537835	11.143845	-0.083780	0.098621	3.206799	0.000000	-0.015528	0.000000	0.000005	0.000000	0.000000	0.000000
19.676223	23.598442	11.088166	-0.098041	0.068418	3.201623	0.000000	-0.015528	0.000000	0.000005	0.000000	0.000000	0.000000
20.010806	23.669131	11.052389	-0.229626	0.092863	3.196447	0.000000	0.000309	0.000000	0.000005	0.000000	0.000000	0.000000
20.308129	23.809608	11.005236	-0.305057	0.094483	3.196539	0.000000	0.008660	0.000000	0.000005	0.000000	0.000000	0.000000
20.857189	23.733952	11.124025	0.442034	-0.312109	3.175079	0.000000	-0.086713	0.000000	0.000005	-0.000000	0.000000	0.000000
21.406249	22.850259	11.698815	1.157903	-0.740932	3.101600	0.000000	-0.180549	0.000000	0.000005	-0.000000	0.000000	0.000000
21.955309	21.220950	12.770548	1.791983	-1.222530	2.977403	0.000000	-0.271182	0.000000	0.000004	-0.000000	0.000000	0.000000
22.504369	18.961111	14.415560	2.299486	-1.791207	2.804693	0.000000	-0.357005	0.000000	0.000004	-0.000000	0.000000	0.000000
22.950329	17.180311	15.892316	1.707794	-1.506232	2.662774	0.000000	-0.279809	0.000000	0.000004	-0.000000	0.000000	0.000000
23.391289	15.903453	17.069668	1.198823	-1.153582	2.555709	0.000000	-0.206254	0.000000	0.000004	-0.000000	0.000000	0.000000
23.832249	15.049710	17.911590	0.744623	-0.748446	2.480530	0.000000	-0.135048	0.000000	0.000004	-0.000000	0.000000	0.000000
24.273209	14.580077	18.379775	0.324442	-0.309255	2.436382	0.000000	-0.065380	0.000000	0.000004	-0.000000	0.000000	0.000000
24.715418	14.473210	18.452675	-0.045511	0.098687	2.422758	0.000000	-0.002398	0.000000	0.000004	0.000000	0.000000	0.000000
25.012741	14.506393	18.398828	-0.066096	0.082418	2.422045	0.000000	-0.002398	0.000000	0.000004	0.000000	0.000000	0.000000
25.346075	14.558150	18.349963	-0.089175	0.064177	2.421246	0.000000	-0.002398	0.000000	0.000004	0.000000	0.000000	0.000000
25.679408	14.625293	18.313258	-0.112254	0.045937	2.420447	0.000000	-0.002398	0.000000	0.000004	0.000000	0.000000	0.000000
26.013991	14.707862	18.289015	-0.016099	-0.120741	2.419620	0.000000	-0.022027	0.000000	0.000004	0.000000	0.000000	0.000000
26.311314	14.723447	18.365717	-0.000215	-0.182271	2.413071	0.000000	-0.027945	0.000000	0.000004	-0.000000	0.000000	0.000000
26.752274	14.905063	18.327235	-0.413212	0.269207	2.415856	0.000000	0.040589	0.000000	0.000004	0.000000	0.000000	0.000000
27.193234	15.457825	17.894486	-0.845087	0.708437	2.448934	0.000000	0.109585	0.000000	0.000004	0.000000	0.000000	0.000000
27.634194	16.406989	17.087160	-1.315572	1.115433	2.512684	0.000000	0.179829	0.000000	0.000004	0.000000	0.000000	0.000000
28.075154	17.795918	15.941990	-1.846162	1.471678	2.607829	0.000000	0.252121	0.000000	0.000004	0.000000	0.000000	0.000000
28.521114	19.712206	14.493832	-2.466054	1.761877	2.737058	0.000000	0.327728	0.000000	0.000004	0.000001	0.000000	0.000000
29.070174	22.147814	12.880144	-1.943647	1.194473	2.894340	0.000000	0.244346	0.000000	0.000005	0.000000	0.000000	0.000000
29.619234	23.930512	11.839437	-1.283951	0.712149	3.004583	0.000000	0.156631	0.000000	0.000005	0.000000	0.000000	0.000000
30.168294	24.934379	11.297584	-0.533563	0.280550	3.065829	0.000000	0.066137	0.000000	0.000005	0.000000	0.000000	0.000000
30.717354	25.088507	11.215991	0.254513	-0.131067	3.076993	0.000000	-0.025530	0.000000	0.000005	-0.000000	0.000000	0.000000
31.015927	24.979349	11.284788	0.176638	-0.128659	3.071771	0.000000	-0.017491	0.000000	0.000005	-0.000000	0.000000	0.000000
31.349260	24.866177	11.380570	0.162877	-0.158686	3.065941	0.000000	-0.017491	0.000000	0.000005	-0.000000	0.000000	0.000000
31.682593	24.762179	11.496370	0.149117	-0.188713	3.060110	0.000000	-0.017491	0.000000	0.000005	-0.000000	0.000000	0.000000
32.017177	24.667016	11.632734	0.135304	-0.218853	3.054258	0.000000	-0.017491	0.000000	0.000005	-0.000000	0.000000	0.000000
32.314499	24.590207	11.770838	0.058783	-0.214883	3.049058	0.000000	-0.009525	0.000000	0.000005	-0.000000	0.000000	0.000000
32.863559	24.104416	12.246152	0.820749	-0.655914	3.018951	0.000000	-0.099980	0.000000	0.000005	-0.000000	0.000000	0.000000
33.412619	22.808931	13.228430	1.524742	-1.143665	2.939594	0.000000	-0.188661	0.000000	0.000005	-0.000000	0.000000	0.000000
33.961679	20.795260	14.787640	2.121035	-1.712877	2.812393	0.000000	-0.273996	0.000000	0.000004	-0.000001	0.000000	0.000000
34.510739	18.205639	17.034838	2.567508	-2.404093	2.639606	0.000000	-0.354472	0.000000	0.000004	-0.000001	0.000000	0.000000
34.956699	16.192237	19.044804	1.963428	-2.084141	2.497865	0.000000	-0.281555	0.000000	0.000004	-0.000001	0.000000	0.000000
35.397659	14.690959	20.706603	1.454054	-1.670112	2.389089	0.000000	-0.212274	0.000000	0.000003	-0.000000	0.000000	0.000000
35.838619	13.608028	21.968230	1.011112	-1.180093	2.310302	0.000000	-0.145410	0.000000	0.000003	-0.000000	0.000000	0.000000
36.279579	12.893966	22.772283	0.614365	-0.636382	2.260607	0.000000	-0.080202	0.000000	0.000003	-0.000000	0.000000	0.000000
36.721789	12.515460	23.082478	0.276271	-0.120373	2.239410	0.000000	-0.021399	0.000000	0.000003	-0.000000	0.000000	0.000000
37.019112	12.358779	23.157942	0.250702	-0.133441	2.233047	0.000000	-0.021399	0.000000	0.000003	-0.000000	0.000000	0.000000
37.352445	12.201200	23.251786	0.222035	-0.148091	2.225914	0.000000	-0.021399	0.000000	0.000003	-0.000000	0.000000	0.000000
37.685779	12.062732	23.355397	0.193369	-0.162741	2.218781	0.000000	-0.021399	0.000000	0.000003	-0.000000	0.000000	0.000000
38.020362	11.942964	23.469218	0.164594	-0.177446	2.211622	0.000000	-0.021399	0.000000	0.000003	-0.000000	0.000000	0.000000
38.317684	11.852691	23.578621	0.168090	-0.248334	2.205259	0.000000	-0.026807	0.000000	0.000003	-0.000000	0.000000	0.000000
38.758644	11.855634	23.536487	-0.174789	0.343520	2.207364	0.000000	0.036361	0.000000	0.000003	-0.000000	0.000000	0.000000
39.199604	12.163334	22.977310	-0.525655	0.919745	2.237387	0.000000	0.099942	0.000000	0.000003	-0.000000	0.000000	0.000000
39.640564	12.789850	21.926532	-0.900536	1.454121	2.295672	0.000000	0.164662	0.000000	0.000003	-0.000000	0.000000	0.000000
40.081524	13.763806	20.431961	-1.316560	1.922337	2.382881	0.000000	0.231257	0.000000	0.000003	0.000000	0.000000	0.000000
40.527484	15.147261	18.539034	-1.796557	2.304365	2.501480	0.000000	0.300892	0.000000	0.000003	0.000000	0.000000	0.000000
41.076544	16.912958	16.411956	-1.400262	1.592537	2.646162	0.000000	0.225347	0.000000	0.000003	0.000000	0.000000	0.000000
41.625604	18.186255	15.000048	-0.905059	0.994142	2.748205	0.000000	0.145806	0.000000	0.000003	-0.000000	0.000000	0.000000
42.174664	18.877211	14.202743	-0.345927	0.466557	2.805799	0.000000	0.063678	0.000000	0.000003	-0.000000	0.000000	0.000000
42.723724	18.937022	13.963250	0.237639	-0.027796	2.817923	0.000000	-0.019579	0.000000	0.000002	-0.000000	0.000000	0.000000
43.022297	18.829536	13.964447	0.171837	-0.012697	2.814276	0.000000	-0.012217	0.000000	0.000002	-0.000000	0.000000	0.000000
43.502297	18.677170	13.993138	0.145592	-0.047076	2.808412	0.000000	-0.012217	0.000000	0.000002	-0.000000	0.000000	0.000000
43.982297	18.549999	14.054833	0.119347	-0.081454	2.802548	0.000000	-0.012217	0.000000	0.000002	-0.000000	0.000000	0.000000
44.462297	18.448023	14.149531	0.093103	-0.115833	2.796684	0.000000	-0.012217	0.000000	0.000002	-0.000000	0.000000	0.000000
44.942297	18.371242	14.277232	0.066858	-0.150211	2.790820	0.000000	-0.012217	0.000000	0.000002	-0.000000	0.000000	0.000000
45.423547	18.319781	14.438219	-0.050221	-0.113144	2.784959	0.000000	0.001582	0.000000	0.000002	-0.000000	0.000000	0.000000
45.720870	18.354482	14.511701	-0.114448	-0.096084	2.785429	0.000000	0.008859	0.000000	0.000002	-0.000000	0.000000	0.000000
46.269930	18.171099	14.897960	0.446465	-0.611560	2.767724	0.000000	-0.073255	0.000000	0.000002	-0.000000	0.000000	0.000000
46.818990	17.385518	15.870729	0.975841	-1.170596	2.705225	0.000000	-0.154069	0.000000	0.000001	-0.000000	0.000000	0.000000
47.368050	16.053227	17.499295	1.436289	-1.813011	2.599040	0.000000	-0.232151	0.000000	0.000001	-0.000000	0.000000	0.000000
47.917110	14.268334	19.899659	1.795284	-2.584563	2.451052	0.000000	-0.306115	0.000000	0.000001	-0.000000	0.000000	0.000000
48.363070	12.879204	22.033897	1.330672	-2.181034	2.329828	0.000000	-0.237823	0.000000	0.000001	-0.000000	0.000000	0.000000
48.804030	11.885833	23.742758	0.930621	-1.679539	2.239416	0.000000	-0.172637	0.000000	0.000001	-0.000000	0.000000	0.000000
49.244990	11.225263	24.973826	0.573088	-1.101627	2.177288	0.000000	-0.109417	0.000000	0.000001	-0.000000	0.000000	0.000000
49.685950	10.867316	25.671087	0.241737	-0.473591	2.142737	0.000000	-0.047443	0.000000	0.000000	-0.000000	0.000000	0.000000
50.128160	10.795767	25.802536	-0.052211	0.112667	2.135379	0.000000	0.008754	0.000000	0.000000	-0.000000	0.000000	0.000000
50.425482	10.835025	25.739008	-0.079827	0.100998	2.137982	0.000000	0.008754	0.000000	0.000000	-0.000000	0.000000	0.000000
50.758816	10.898563	25.676037	-0.110787	0.087916	2.140900	0.000000	0.008754	0.000000	0.000000	-0.000000	0.000000	0.000000
51.092149	10.982741	25.621787	-0.141748	0.074833	2.143819	0.000000	0.008754	0.000000	0.000000	-0.000000	0.000000	0.000000
51.426732	11.087767	25.576624	-0.082873	-0.145789	2.146726	0.000000	-0.008661	0.000000	-0.000000	-0.000000	0.000000	0.000000
51.724055	11.145074	25.666846	-0.082542	-0.220604	2.144151	0.000000	-0.013919	0.000000	-0.000000	-0.000000	0.000000	0.000000
52.165015	11.363352	25.575882	-0.414341	0.426107	2.151601	0.000000	0.047742	0.000000	-0.000000	-0.000000	0.000000	0.000000
52.605975	11.881459	24.920973	-0.765070	1.053429	2.186336	0.000000	0.109947	0.000000	-0.000000	-0.000000	0.000000	0.000000
53.046935	12.723067	23.731919	-1.150753	1.632822	2.248749	0.000000	0.173404	0.000000	-0.000001	-0.000000	0.000000	0.000000
53.487895	13.926628	22.062821	-1.589011	2.137922	2.339554	0.000000	0.238836	0.000000	-0.000001	-0.000000	0.000000	0.000000
53.933855	15.567753	19.964662	-2.104104	2.547083	2.461288	0.000000	0.307387	0.000000	-0.000001	-0.000000	0.000000	0.000000
54.482915	17.680595	17.603799	-1.721223	1.778126	2.609881	0.000000	0.233081	0.000000	-0.000001	-0.000000	0.000000	0.000000
55.031975	19.303332	16.013256	-1.216764	1.135821	2.716480	0.000000	0.154641	0.000000	-0.000001	-0.000000	0.000000	0.000000
55.581035	20.321343	15.079743	-0.626359	0.574418	2.779193	0.000000	0.073459	0.000000	-0.000001	-0.000000	0.000000	0.000000
56.130095	20.662721	14.736767	0.008290	0.053929	2.796907	0.000000	-0.009027	0.000000	-0.000002	-0.000000	0.000000	0.000000
56.428668	20.694333	14.687671	-0.060179	0.072001	2.796394	0.000000	-0.001719	0.000000	-0.000002	-0.000000	0.000000	0.000000
56.762001	20.739841	14.647275	-0.076345	0.049188	2.795821	0.000000	-0.001719	0.000000	-0.000002	-0.000000	0.000000	0.000000
57.095334	20.796126	14.622087	-0.092511	0.026376	2.795248	0.000000	-0.001719	0.000000	-0.000002	-0.000000	0.000000	0.000000
57.429918	20.863460	14.612098	-0.108737	0.003478	2.794673	0.000000	-0.001719	0.000000	-0.000002	-0.000000	0.000000	0.000000
57.727240	20.932407	14.616080	-0.177850	0.021320	2.794162	0.000000	0.005582	0.000000	-0.000002	-0.000000	0.000000	0.000000
58.276300	20.770531	14.873415	0.470929	-0.492771	2.774586	0.000000	-0.076785	0.000000	-0.000002	-0.000000	0.000000	0.000000
58.825360	19.910347	15.711130	1.086445	-1.041960	2.710093	0.000000	-0.157790	0.000000	-0.000002	-0.000000	0.000000	0.000000
59.374420	18.412615	17.188891	1.625219	-1.665365	2.601828	0.000000	-0.235996	0.000000	-0.000002	-0.000000	0.000000	0.000000
59.923480	16.383128	19.411956	2.049195	-2.407391	2.451711	0.000000	-0.310015	0.000000	-0.000002	0.000000	0.000000	0.000000
60.369440	14.794562	21.387914	1.525545	-2.004702	2.328747	0.000000	-0.241729	0.000000	-0.000002	-0.000000	0.000000	0.000000
60.810400	13.651807	22.944638	1.075804	-1.512171	2.236603	0.000000	-0.176593	0.000000	-0.000002	-0.000000	0.000000	0.000000
61.251360	12.882595	24.034875	0.675215	-0.950837	2.172711	0.000000	-0.113468	0.000000	-0.000002	-0.000000	0.000000	0.000000
61.692320	12.451785	24.609019	0.305474	-0.346241	2.136344	0.000000	-0.051635	0.000000	-0.000002	-0.000000	0.000000	0.000000
62.134530	12.339745	24.640414	-0.020152	0.213628	2.127093	0.000000	0.004393	0.000000	-0.000002	-0.000000	0.000000	0.000000
62.431853	12.358895	24.517133	-0.044256	0.201011	2.128399	0.000000	0.004393	0.000000	-0.000002	-0.000000	0.000000	0.000000
62.765186	12.397407	24.387840	-0.071280	0.186866	2.129863	0.000000	0.004393	0.000000	-0.000002	-0.000000	0.000000	0.000000
63.098520	12.453935	24.267979	-0.098304	0.172720	2.131328	0.000000	0.004393	0.000000	-0.000002	-0.000000	0.000000	0.000000
63.433103	12.528792	24.157150	-0.125429	0.158522	2.132797	0.000000	0.004393	0.000000	-0.000003	-0.000000	0.000000	0.000000
63.730426	12.610545	24.066638	-0.118608	0.086885	2.134104	0.000000	-0.000841	0.000000	-0.000003	-0.000000	0.000000	0.000000
64.171386	12.875673	23.724951	-0.484925	0.685037	2.147275	0.000000	0.060635	0.000000	-0.000003	-0.000000	0.000000	0.000000
64.612346	13.472375	22.867523	-0.873397	1.252021	2.187680	0.000000	0.122802	0.000000	-0.000003	-0.000000	0.000000	0.000000
65.053306	14.427913	21.533366	-1.301772	1.762039	2.255781	0.000000	0.186367	0.000000	-0.000003	-0.000000	0.000000	0.000000
65.494266	15.785941	19.783183	-1.789621	2.191886	2.352352	0.000000	0.252054	0.000000	-0.000003	-0.000001	0.000000	0.000000
65.940226	17.631675	17.671831	-2.363927	2.522760	2.480067	0.000000	0.321015	0.000000	-0.000003	-0.000001	0.000000	0.000000
66.489286	19.997520	15.309804	-1.919466	1.804580	2.635954	0.000000	0.245982	0.000000	-0.000004	-0.000000	0.000000	0.000000
67.038346	21.797500	13.661638	-1.339423	1.214935	2.749384	0.000000	0.166587	0.000000	-0.000004	-0.000000	0.000000	0.000000
67.587406	22.904476	12.609938	-0.664770	0.711828	2.818345	0.000000	0.084237	0.000000	-0.000004	-0.000000	0.000000	0.000000
68.136466	23.240254	12.079792	0.056838	0.259422	2.841612	0.000000	0.000393	0.000000	-0.000004	-0.000000	0.000000	0.000000
68.435038	23.246411	11.914036	-0.016734	0.264176	2.843946	0.000000	0.007818	0.000000	-0.000004	-0.000000	0.000000	0.000000
68.768372	23.262348	11.747895	-0.031077	0.234245	2.846552	0.000000	0.007818	0.000000	-0.000004	-0.000000	0.000000	0.000000
69.101705	23.287846	11.601709	-0.045420	0.204315	2.849158	0.000000	0.007818	0.000000	-0.000004	-0.000000	0.000000	0.000000
69.436288	23.323057	11.475040	-0.059817	0.174272	2.851774	0.000000	0.007818	0.000000	-0.000004	-0.000000	0.000000	0.000000
69.733611	23.362430	11.379348	-0.133654	0.177308	2.854098	0.000000	0.015275	0.000000	-0.000004	-0.000000	0.000000	0.000000
70.282671	23.107971	11.412456	0.594356	-0.237964	2.839297	0.000000	-0.069111	0.000000	-0.000004	0.000000	0.000000	0.000000
