#ParticleID	Turn	x[m]	xp	y[m]	yp	z[m]	dE[GeV]# s	beta_x	beta_y	alpha_x	alpha_y	D_x	D_y	D_px	D_py	orbit_x	orbit_px	orbit_y	orbit_py
0.300000	11.832733	24.945063	-0.013481	-0.027773	2.618305	0.000000	-0.000062	0.000000	0.000001	0.000000	0.000000	0.000000
0.601250	11.848527	24.965437	-0.038945	-0.039859	2.618286	0.000000	-0.000062	0.000000	0.000001	0.000000	0.000000	0.000000
0.898573	11.879157	24.992686	-0.034946	-0.113077	2.618267	0.000000	-0.006483	0.000000	0.000001	0.000000	0.000000	0.000000
1.339533	12.062343	24.815216	-0.382055	0.514009	2.631703	0.000000	0.067478	0.000000	0.000001	0.000000	0.000000	0.000000
1.780493	12.558162	24.092945	-0.746618	1.117708	2.677890	0.000000	0.142208	0.000000	0.000001	0.000000	0.000000	0.000000
2.221453	13.389266	22.858738	-1.145293	1.670552	2.757356	0.000000	0.218557	0.000000	0.000001	0.000000	0.000000	0.000000
2.662413	14.593627	21.168748	-1.596293	2.147387	2.871005	0.000000	0.297395	0.000000	0.000001	0.000000	0.000000	0.000000
3.108373	16.247081	19.075083	-2.124524	2.527647	3.021992	0.000000	0.380110	0.000000	0.000001	0.000000	0.000000	0.000000
3.657433	18.367310	16.723710	-1.714178	1.780175	3.205424	0.000000	0.287072	0.000000	0.000001	0.000000	0.000000	0.000000
4.206493	19.967369	15.119124	-1.182750	1.159500	3.336297	0.000000	0.188943	0.000000	0.000001	0.000000	0.000000	0.000000
4.755553	20.934238	14.147033	-0.567780	0.621414	3.412290	0.000000	0.087462	0.000000	0.000001	0.000000	0.000000	0.000000
5.304613	21.199623	13.738199	0.087296	0.127590	3.432056	0.000000	-0.015570	0.000000	0.000001	0.000000	0.000000	0.000000
5.603185	21.184780	13.647237	0.017808	0.141171	3.430085	0.000000	-0.006602	0.000000	0.000001	0.000000	0.000000	0.000000
5.936519	21.178155	13.561427	0.002068	0.116259	3.427884	0.000000	-0.006602	0.000000	0.000001	0.000000	0.000000	0.000000
6.269852	21.182022	13.492225	-0.013671	0.091347	3.425683	0.000000	-0.006602	0.000000	0.000001	0.000000	0.000000	0.000000
6.604435	21.196456	13.439465	-0.029470	0.066342	3.423474	0.000000	-0.006602	0.000000	0.000001	0.000000	0.000000	0.000000
6.901758	21.218155	13.406622	-0.098947	0.079150	3.421511	0.000000	0.002337	0.000000	0.000001	0.000000	0.000000	0.000000
7.450818	20.965104	13.580169	0.557100	-0.397096	3.394595	0.000000	-0.100237	0.000000	0.000001	0.000000	0.000000	0.000000
7.999878	20.009079	14.289060	1.173796	-0.901626	3.311765	0.000000	-0.201034	0.000000	0.000001	-0.000000	0.000000	0.000000
8.548938	18.417609	15.583789	1.707581	-1.470376	3.174490	0.000000	-0.298265	0.000000	0.000001	-0.000000	0.000000	0.000000
9.097998	16.303108	17.556576	2.120751	-2.143859	2.985206	0.000000	-0.390205	0.000000	0.000001	-0.000000	0.000000	0.000000
9.543958	14.653266	19.314504	1.591932	-1.781379	2.829495	0.000000	-0.308506	0.000000	0.000001	-0.000000	0.000000	0.000000
9.984918	13.453083	20.695756	1.140143	-1.339076	2.710702	0.000000	-0.230804	0.000000	0.000001	-0.000000	0.000000	0.000000
10.425878	12.626953	21.658473	0.740444	-0.835846	2.625559	0.000000	-0.155731	0.000000	0.000001	-0.000000	0.000000	0.000000
10.866838	12.137133	22.158852	0.374574	-0.294585	2.573099	0.000000	-0.082431	0.000000	0.000001	0.000000	0.000000	0.000000
11.309048	11.961106	22.173612	0.055044	0.205643	2.552704	0.000000	-0.016331	0.000000	0.000001	0.000000	0.000000	0.000000
11.606371	11.935787	22.055483	0.030112	0.191667	2.547848	0.000000	-0.016331	0.000000	0.000001	0.000000	0.000000	0.000000
12.086371	11.926201	21.882313	-0.010140	0.169104	2.540009	0.000000	-0.016331	0.000000	0.000001	0.000000	0.000000	0.000000
12.566371	11.955256	21.730803	-0.050392	0.146541	2.532171	0.000000	-0.016331	0.000000	0.000001	0.000000	0.000000	0.000000
13.046371	12.022953	21.600954	-0.090643	0.123978	2.524332	0.000000	-0.016331	0.000000	0.000001	0.000000	0.000000	0.000000
13.526371	12.129292	21.492764	-0.130895	0.101416	2.516493	0.000000	-0.016331	0.000000	0.000001	0.000000	0.000000	0.000000
14.007621	12.274700	21.406039	-0.171252	0.078794	2.508634	0.000000	-0.016331	0.000000	0.000001	0.000000	0.000000	0.000000
14.304943	12.383947	21.363339	-0.165816	0.012430	2.503779	0.000000	-0.022471	0.000000	0.000001	0.000000	0.000000	0.000000
14.745903	12.688935	21.118526	-0.528455	0.540641	2.509499	0.000000	0.048439	0.000000	0.000001	0.000000	0.000000	0.000000
15.186863	13.323140	20.416980	-0.915238	1.044255	2.546579	0.000000	0.119901	0.000000	0.000001	0.000000	0.000000	0.000000
15.627823	14.315536	19.290623	-1.343835	1.500355	2.615442	0.000000	0.192728	0.000000	0.000001	0.000000	0.000000	0.000000
16.068783	15.711464	17.790702	-1.833829	1.888190	2.716872	0.000000	0.267750	0.000000	0.000001	0.000000	0.000000	0.000000
16.514743	17.598353	15.963963	-2.412363	2.190865	2.853717	0.000000	0.346284	0.000000	0.000002	0.000000	0.000000	0.000000
17.063803	20.021498	13.924101	-1.974773	1.546255	3.020124	0.000000	0.258975	0.000000	0.000002	0.000000	0.000000	0.000000
17.612863	21.884211	12.527827	-1.397695	1.011782	3.137259	0.000000	0.167072	0.000000	0.000002	0.000000	0.000000	0.000000
18.161923	23.054921	11.675688	-0.721890	0.549375	3.203045	0.000000	0.072206	0.000000	0.000002	0.000000	0.000000	0.000000
18.710983	23.450933	11.306988	0.004905	0.126100	3.216315	0.000000	-0.023941	0.000000	0.000002	-0.000000	0.000000	0.000000
19.009556	23.488406	11.222122	-0.069139	0.128597	3.211676	0.000000	-0.015538	0.000000	0.000002	-0.000000	0.000000	0.000000
19.342889	23.539252	11.146456	-0.083399	0.098402	3.206496	0.000000	-0.015538	0.000000	0.000002	-0.000000	0.000000	0.000000
19.676223	23.599604	11.090919	-0.097658	0.068208	3.201317	0.000000	-0.015538	0.000000	0.000002	-0.000000	0.000000	0.000000
20.010806	23.670035	11.055280	-0.229245	0.092675	3.196138	0.000000	0.000298	0.000000	0.000002	0.000000	0.000000	0.000000
20.308129	23.810286	11.008237	-0.304677	0.094312	3.196227	0.000000	0.008649	0.000000	0.000002	0.000000	0.000000	0.000000
20.857189	23.734202	11.127261	0.442428	-0.312369	3.174764	0.000000	-0.086715	0.000000	0.000002	-0.000000	0.000000	0.000000
21.406249	22.850081	11.702393	1.158283	-0.741299	3.101286	0.000000	-0.180540	0.000000	0.000002	-0.000000	0.000000	0.000000
21.955309	21.220374	12.774598	1.792323	-1.223030	2.977098	0.000000	-0.271163	0.000000	0.000002	-0.000000	0.000000	0.000000
22.504369	18.960195	14.420248	2.299762	-1.791875	2.804400	0.000000	-0.356976	0.000000	0.000002	-0.000000	0.000000	0.000000
22.950329	17.179154	15.897555	1.708062	-1.506795	2.662492	0.000000	-0.279787	0.000000	0.000001	-0.000000	0.000000	0.000000
23.391289	15.902058	17.075348	1.199097	-1.154015	2.555435	0.000000	-0.206240	0.000000	0.000001	-0.000000	0.000000	0.000000
23.832249	15.048066	17.917587	0.744915	-0.748728	2.480261	0.000000	-0.135041	0.000000	0.000001	-0.000000	0.000000	0.000000
24.273209	14.578161	18.385950	0.324767	-0.309375	2.436114	0.000000	-0.065380	0.000000	0.000001	-0.000000	0.000000	0.000000
24.715418	14.470989	18.458881	-0.045145	0.098720	2.422489	0.000000	-0.002404	0.000000	0.000001	-0.000000	0.000000	0.000000
25.012741	14.503955	18.405014	-0.065733	0.082455	2.421774	0.000000	-0.002404	0.000000	0.000001	-0.000000	0.000000	0.000000
25.346075	14.555471	18.356122	-0.088814	0.064221	2.420973	0.000000	-0.002404	0.000000	0.000001	-0.000000	0.000000	0.000000
25.679408	14.622374	18.319385	-0.111896	0.045987	2.420171	0.000000	-0.002404	0.000000	0.000001	-0.000000	0.000000	0.000000
26.013991	14.704704	18.295107	-0.015770	-0.120734	2.419342	0.000000	-0.022032	0.000000	0.000001	-0.000000	0.000000	0.000000
26.311314	14.720095	18.371804	0.000103	-0.182275	2.412792	0.000000	-0.027948	0.000000	0.000001	-0.000000	0.000000	0.000000
26.752274	14.901392	18.333253	-0.412806	0.269368	2.415574	0.000000	0.040578	0.000000	0.000001	-0.000000	0.000000	0.000000
27.193234	15.453751	17.900292	-0.844575	0.708755	2.448646	0.000000	0.109567	0.000000	0.000001	0.000000	0.000000	0.000000
27.634194	16.402408	17.092622	-1.314931	1.115894	2.512386	0.000000	0.179803	0.000000	0.000001	0.000000	0.000000	0.000000
28.075154	17.790704	15.946989	-1.845362	1.472261	2.607519	0.000000	0.252087	0.000000	0.000001	0.000000	0.000000	0.000000
28.521114	19.706193	14.498267	-2.465056	1.762555	2.736731	0.000000	0.327686	0.000000	0.000001	0.000000	0.000000	0.000000
29.070174	22.140784	12.883928	-1.942801	1.194987	2.893994	0.000000	0.244315	0.000000	0.000001	0.000000	0.000000	0.000000
29.619234	23.922664	11.842729	-1.283317	0.712536	3.004222	0.000000	0.156611	0.000000	0.000001	0.000000	0.000000	0.000000
30.168294	24.925972	11.300509	-0.533185	0.280837	3.065461	0.000000	0.066129	0.000000	0.000001	-0.000000	0.000000	0.000000
30.717354	25.079838	11.218645	0.254608	-0.130859	3.076624	0.000000	-0.025526	0.000000	0.000001	-0.000000	0.000000	0.000000
31.015927	24.970612	11.287312	0.176749	-0.128436	3.071403	0.000000	-0.017487	0.000000	0.000001	-0.000000	0.000000	0.000000
31.349260	24.857367	11.382942	0.162983	-0.158455	3.065574	0.000000	-0.017487	0.000000	0.000001	-0.000000	0.000000	0.000000
31.682593	24.753301	11.498585	0.149217	-0.188473	3.059745	0.000000	-0.017487	0.000000	0.000001	-0.000000	0.000000	0.000000
32.017177	24.658073	11.634786	0.135400	-0.218605	3.053894	0.000000	-0.017487	0.000000	0.000001	-0.000000	0.000000	0.000000
32.314499	24.581209	11.772740	0.058895	-0.214621	3.048695	0.000000	-0.009522	0.000000	0.000001	-0.000000	0.000000	0.000000
32.863559	24.095459	12.247789	0.820561	-0.655692	3.018593	0.000000	-0.099965	0.000000	0.000001	-0.000000	0.000000	0.000000
33.412619	22.800340	13.229839	1.524267	-1.143466	2.939247	0.000000	-0.188635	0.000000	0.000001	-0.000000	0.000000	0.000000
33.961679	20.787335	14.788836	2.120306	-1.712687	2.812064	0.000000	-0.273959	0.000000	0.000001	-0.000000	0.000000	0.000000
34.510739	18.198630	17.035826	2.566578	-2.403899	2.639299	0.000000	-0.354424	0.000000	0.000001	-0.000000	0.000000	0.000000
34.956699	16.185962	19.045593	1.962706	-2.083892	2.497577	0.000000	-0.281516	0.000000	0.000001	-0.000000	0.000000	0.000000
35.397659	14.685243	20.707153	1.453505	-1.669820	2.388817	0.000000	-0.212241	0.000000	0.000001	-0.000000	0.000000	0.000000
35.838619	13.602729	21.968508	1.010710	-1.179771	2.310043	0.000000	-0.145384	0.000000	0.000001	-0.000000	0.000000	0.000000
36.279579	12.888964	22.772269	0.614093	-0.636044	2.260357	0.000000	-0.080183	0.000000	0.000001	-0.000000	0.000000	0.000000
36.721789	12.510646	23.082164	0.276105	-0.120036	2.239167	0.000000	-0.021386	0.000000	0.000001	-0.000000	0.000000	0.000000
37.019112	12.354067	23.157428	0.250528	-0.133102	2.232809	0.000000	-0.021386	0.000000	0.000001	-0.000000	0.000000	0.000000
37.352445	12.196607	23.251046	0.221852	-0.147752	2.225680	0.000000	-0.021386	0.000000	0.000001	-0.000000	0.000000	0.000000
37.685779	12.058263	23.354430	0.193177	-0.162401	2.218551	0.000000	-0.021386	0.000000	0.000001	-0.000000	0.000000	0.000000
38.020362	11.938626	23.468023	0.164395	-0.177105	2.211396	0.000000	-0.021386	0.000000	0.000001	-0.000000	0.000000	0.000000
38.317684	11.848474	23.577222	0.167873	-0.247990	2.205037	0.000000	-0.026793	0.000000	0.000000	-0.000000	0.000000	0.000000
38.758644	11.851567	23.534802	-0.174913	0.343823	2.207147	0.000000	0.036368	0.000000	0.000000	-0.000000	0.000000	0.000000
39.199604	12.159337	22.975382	-0.525690	0.919992	2.237172	0.000000	0.099945	0.000000	0.000000	-0.000000	0.000000	0.000000
39.640564	12.785846	21.924415	-0.900485	1.454301	2.295457	0.000000	0.164659	0.000000	0.000000	-0.000000	0.000000	0.000000
40.081524	13.759718	20.429718	-1.316420	1.922442	2.382663	0.000000	0.231249	0.000000	0.000000	-0.000000	0.000000	0.000000
40.527484	15.143006	18.536732	-1.796321	2.304390	2.501257	0.000000	0.300877	0.000000	0.000000	-0.000000	0.000000	0.000000
41.076544	16.908530	16.409600	-1.400183	1.592611	2.645933	0.000000	0.225340	0.000000	0.000000	-0.000000	0.000000	0.000000
41.625604	18.181829	14.997582	-0.905142	0.994270	2.747974	0.000000	0.145806	0.000000	0.000000	-0.000000	0.000000	0.000000
42.174664	18.872963	14.200102	-0.346166	0.466749	2.805571	0.000000	0.063686	0.000000	0.000000	-0.000000	0.000000	0.000000
42.723724	18.933115	13.960358	0.237260	-0.027527	2.817701	0.000000	-0.019564	0.000000	0.000000	-0.000000	0.000000	0.000000
43.022297	18.825851	13.961400	0.171466	-0.012440	2.814058	0.000000	-0.012202	0.000000	0.000000	-0.000000	0.000000	0.000000
43.502297	18.673842	13.989848	0.145219	-0.046826	2.808201	0.000000	-0.012202	0.000000	0.000000	-0.000000	0.000000	0.000000
43.982297	18.547030	14.051306	0.118973	-0.081211	2.802344	0.000000	-0.012202	0.000000	0.000000	-0.000000	0.000000	0.000000
44.462297	18.445414	14.145774	0.092726	-0.115597	2.796487	0.000000	-0.012202	0.000000	0.000000	-0.000000	0.000000	0.000000
44.942297	18.368995	14.273252	0.066480	-0.149983	2.790630	0.000000	-0.012202	0.000000	-0.000000	-0.000000	0.000000	0.000000
45.423547	18.317900	14.434024	-0.050592	-0.112943	2.784775	0.000000	0.001595	0.000000	-0.000000	-0.000000	0.000000	0.000000
45.720870	18.352822	14.507388	-0.114817	-0.095900	2.785250	0.000000	0.008873	0.000000	-0.000000	-0.000000	0.000000	0.000000
46.269930	18.169873	14.893371	0.446050	-0.611239	2.767554	0.000000	-0.073236	0.000000	-0.000000	-0.000000	0.000000	0.000000
46.818990	17.384759	15.865701	0.975410	-1.170114	2.705067	0.000000	-0.154045	0.000000	-0.000000	-0.000000	0.000000	0.000000
47.368050	16.052936	17.493635	1.435872	-1.812335	2.598896	0.000000	-0.232122	0.000000	-0.000000	-0.000000	0.000000	0.000000
47.917110	14.268479	19.893128	1.794912	-2.583644	2.450925	0.000000	-0.306082	0.000000	-0.000000	-0.000000	0.000000	0.000000
48.363070	12.879666	22.026606	1.330330	-2.180256	2.329715	0.000000	-0.237793	0.000000	-0.000000	-0.000000	0.000000	0.000000
48.804030	11.886588	23.734856	0.930295	-1.678937	2.239316	0.000000	-0.172609	0.000000	-0.000000	-0.000000	0.000000	0.000000
49.244990	11.226305	24.965480	0.572761	-1.101227	2.177199	0.000000	-0.109391	0.000000	-0.000000	-0.000000	0.000000	0.000000
49.685950	10.868651	25.662486	0.241396	-0.473413	2.142659	0.000000	-0.047419	0.000000	-0.000000	-0.000000	0.000000	0.000000
50.128160	10.797417	25.793878	-0.052578	0.112637	2.135311	0.000000	0.008776	0.000000	-0.000000	-0.000000	0.000000	0.000000
50.425482	10.836892	25.730370	-0.080191	0.100964	2.137920	0.000000	0.008776	0.000000	-0.000000	-0.000000	0.000000	0.000000
50.758816	10.900672	25.667422	-0.111148	0.087877	2.140846	0.000000	0.008776	0.000000	-0.000001	-0.000000	0.000000	0.000000
51.092149	10.985090	25.613200	-0.142105	0.074791	2.143771	0.000000	0.008776	0.000000	-0.000001	-0.000000	0.000000	0.000000
51.426732	11.090353	25.568066	-0.083206	-0.145766	2.146685	0.000000	-0.008639	0.000000	-0.000001	-0.000000	0.000000	0.000000
51.724055	11.147857	25.658276	-0.082862	-0.220564	2.144117	0.000000	-0.013897	0.000000	-0.000001	-0.000000	0.000000	0.000000
52.165015	11.366448	25.567377	-0.414733	0.425919	2.151576	0.000000	0.047763	0.000000	-0.000001	-0.000000	0.000000	0.000000
52.605975	11.884940	24.912731	-0.765552	1.053024	2.186320	0.000000	0.109967	0.000000	-0.000001	-0.000000	0.000000	0.000000
53.046935	12.727021	23.724124	-1.151347	1.632216	2.248742	0.000000	0.173424	0.000000	-0.000001	-0.000000	0.000000	0.000000
53.487895	13.931165	22.055638	-1.589744	2.137144	2.339556	0.000000	0.238856	0.000000	-0.000001	-0.000000	0.000000	0.000000
53.933855	15.573019	19.958237	-2.105011	2.546168	2.461298	0.000000	0.307407	0.000000	-0.000001	-0.000000	0.000000	0.000000
54.482915	17.686790	17.598242	-1.721999	1.777450	2.609903	0.000000	0.233101	0.000000	-0.000001	-0.000000	0.000000	0.000000
55.031975	19.310281	16.008332	-1.217354	1.135337	2.716512	0.000000	0.154660	0.000000	-0.000001	-0.000000	0.000000	0.000000
55.581035	20.328818	15.075261	-0.626720	0.574091	2.779235	0.000000	0.073476	0.000000	-0.000001	-0.000000	0.000000	0.000000
56.130095	20.670455	14.732569	0.008181	0.053736	2.796959	0.000000	-0.009011	0.000000	-0.000001	-0.000000	0.000000	0.000000
56.428668	20.702143	14.683596	-0.060302	0.071792	2.796450	0.000000	-0.001703	0.000000	-0.000001	-0.000000	0.000000	0.000000
56.762001	20.747731	14.643341	-0.076462	0.048974	2.795883	0.000000	-0.001703	0.000000	-0.000001	-0.000000	0.000000	0.000000
57.095334	20.804093	14.618298	-0.092622	0.026156	2.795315	0.000000	-0.001703	0.000000	-0.000001	-0.000000	0.000000	0.000000
57.429918	20.871499	14.608459	-0.108843	0.003252	2.794745	0.000000	-0.001703	0.000000	-0.000001	-0.000000	0.000000	0.000000
57.727240	20.940508	14.612576	-0.177971	0.021079	2.794239	0.000000	0.005598	0.000000	-0.000001	-0.000000	0.000000	0.000000
58.276300	20.778615	14.870122	0.471081	-0.492914	2.774671	0.000000	-0.076771	0.000000	-0.000001	-0.000000	0.000000	0.000000
58.825360	19.918119	15.707945	1.086858	-1.042016	2.710185	0.000000	-0.157779	0.000000	-0.000001	0.000000	0.000000	0.000000
59.374420	18.419803	17.185723	1.625864	-1.665339	2.601925	0.000000	-0.235988	0.000000	-0.000001	0.000000	0.000000	0.000000
59.923480	16.389499	19.408713	2.050028	-2.407281	2.451811	0.000000	-0.310011	0.000000	-0.000001	0.000000	0.000000	0.000000
60.369440	14.800276	21.384616	1.526192	-2.004692	2.328850	0.000000	-0.241722	0.000000	-0.000001	0.000000	0.000000	0.000000
60.810400	13.657019	22.941375	1.076297	-1.512260	2.236710	0.000000	-0.176583	0.000000	-0.000001	0.000000	0.000000	0.000000
61.251360	12.887433	24.031734	0.675575	-0.951022	2.172824	0.000000	-0.113455	0.000000	-0.000001	0.000000	0.000000	0.000000
61.692320	12.456357	24.606081	0.305719	-0.346513	2.136463	0.000000	-0.051619	0.000000	-0.000001	-0.000000	0.000000	0.000000
62.134530	12.344147	24.637751	-0.020000	0.213287	2.127219	0.000000	0.004412	0.000000	-0.000001	-0.000000	0.000000	0.000000
62.431853	12.363204	24.514671	-0.044096	0.200671	2.128530	0.000000	0.004412	0.000000	-0.000001	-0.000000	0.000000	0.000000
62.765186	12.401606	24.385606	-0.071110	0.186526	2.130001	0.000000	0.004412	0.000000	-0.000001	-0.000000	0.000000	0.000000
63.098520	12.458017	24.265970	-0.098124	0.172381	2.131471	0.000000	0.004412	0.000000	-0.000001	-0.000000	0.000000	0.000000
63.433103	12.532751	24.155369	-0.125240	0.158183	2.132948	0.000000	0.004412	0.000000	-0.000001	-0.000000	0.000000	0.000000
63.730426	12.614389	24.065057	-0.118401	0.086551	2.134259	0.000000	-0.000822	0.000000	-0.000001	-0.000000	0.000000	0.000000
64.171386	12.879371	23.723681	-0.484801	0.684670	2.147439	0.000000	0.060658	0.000000	-0.000001	-0.000000	0.000000	0.000000
64.612346	13.475997	22.866585	-0.873349	1.251638	2.187856	0.000000	0.122828	0.000000	-0.000001	-0.000000	0.000000	0.000000
65.053306	14.431526	21.532767	-1.301799	1.761657	2.255969	0.000000	0.186398	0.000000	-0.000001	-0.000000	0.000000	0.000000
65.494266	15.789612	19.782914	-1.789724	2.191522	2.352555	0.000000	0.252091	0.000000	-0.000001	-0.000000	0.000000	0.000000
65.940226	17.635473	17.671872	-2.364111	2.522432	2.480287	0.000000	0.321057	0.000000	-0.000002	-0.000000	0.000000	0.000000
66.489286	20.001441	15.310182	-1.919505	1.804291	2.636196	0.000000	0.246017	0.000000	-0.000002	-0.000000	0.000000	0.000000
67.038346	21.801384	13.662321	-1.339315	1.214665	2.749642	0.000000	0.166614	0.000000	-0.000002	-0.000000	0.000000	0.000000
67.587406	22.908162	12.610915	-0.664522	0.711558	2.818615	0.000000	0.084255	0.000000	-0.000002	-0.000000	0.000000	0.000000
68.136466	23.243598	12.081075	0.057209	0.259133	2.841890	0.000000	0.000402	0.000000	-0.000002	0.000000	0.000000	0.000000
68.435038	23.249537	11.915489	-0.016368	0.263896	2.844227	0.000000	0.007827	0.000000	-0.000002	-0.000000	0.000000	0.000000
68.768372	23.265230	11.749532	-0.030709	0.233973	2.846836	0.000000	0.007827	0.000000	-0.000002	-0.000000	0.000000	0.000000
69.101705	23.290483	11.603524	-0.045050	0.204050	2.849445	0.000000	0.007827	0.000000	-0.000002	-0.000000	0.000000	0.000000
69.436288	23.325446	11.477030	-0.059445	0.174015	2.852064	0.000000	0.007827	0.000000	-0.000002	-0.000000	0.000000	0.000000
69.733611	23.364598	11.381488	-0.133285	0.177063	2.854391	0.000000	0.015285	0.000000	-0.000002	-0.000000	0.000000	0.000000
70.282671	23.109697	11.414899	0.594786	-0.238274	2.839593	0.000000	-0.069110	0.000000	-0.000002	0.000000	0.000000	0.000000
