#ParticleID	Turn	x[m]	xp	y[m]	yp	z[m]	dE[GeV]# s	beta_x	beta_y	alpha_x	alpha_y	D_x	D_y	D_px	D_py	orbit_x	orbit_px	orbit_y	orbit_py
0.300000	11.811441	25.028668	-0.010748	-0.027182	2.618068	0.000000	0.000028	0.000000	-0.000000	0.000001	0.000000	0.000000
0.601250	11.825601	25.048673	-0.036256	-0.039227	2.618076	0.000000	0.000028	0.000000	0.000000	0.000001	0.000000	0.000000
0.898573	11.854646	25.075534	-0.032361	-0.112607	2.618084	0.000000	-0.006392	0.000000	0.000001	0.000001	0.000000	0.000000
1.339533	12.035286	24.896683	-0.378844	0.516658	2.631558	0.000000	0.067564	0.000000	0.000001	0.000002	0.000000	0.000000
1.780493	12.527945	24.171157	-0.742636	1.122415	2.677782	0.000000	0.142290	0.000000	0.000002	0.000002	0.000000	0.000000
2.221453	13.355132	22.931967	-1.140357	1.677103	2.757283	0.000000	0.218637	0.000000	0.000003	0.000002	0.000000	0.000000
2.662413	14.554638	21.235494	-1.590177	2.155484	2.870966	0.000000	0.297474	0.000000	0.000003	0.000002	0.000000	0.000000
3.108373	16.202003	19.134048	-2.116937	2.536925	3.021988	0.000000	0.380188	0.000000	0.000004	0.000002	0.000000	0.000000
3.657433	18.314482	16.773799	-1.707734	1.787158	3.205462	0.000000	0.287150	0.000000	0.000005	0.000002	0.000000	0.000000
4.206493	19.908307	15.162569	-1.177905	1.164686	3.336376	0.000000	0.189019	0.000000	0.000006	0.000001	0.000000	0.000000
4.755553	20.870897	14.185596	-0.564876	0.625173	3.412410	0.000000	0.087535	0.000000	0.000007	0.000001	0.000000	0.000000
5.304613	21.134260	13.773291	0.088054	0.130189	3.432214	0.000000	-0.015501	0.000000	0.000007	0.000001	0.000000	0.000000
5.603185	21.118873	13.680712	0.018695	0.143897	3.430263	0.000000	-0.006534	0.000000	0.000008	0.000001	0.000000	0.000000
5.936519	21.111673	13.593071	0.002906	0.119027	3.428084	0.000000	-0.006534	0.000000	0.000008	0.000001	0.000000	0.000000
6.269852	21.114999	13.522009	-0.012883	0.094158	3.425906	0.000000	-0.006534	0.000000	0.000008	0.000001	0.000000	0.000000
6.604435	21.128922	13.467354	-0.028732	0.069195	3.423719	0.000000	-0.006534	0.000000	0.000009	0.000001	0.000000	0.000000
6.901758	21.150195	13.432803	-0.098073	0.082107	3.421776	0.000000	0.002406	0.000000	0.000009	0.000001	0.000000	0.000000
7.450818	20.897438	13.603497	0.555692	-0.394826	3.394895	0.000000	-0.100178	0.000000	0.000009	0.000001	0.000000	0.000000
7.999878	19.944174	14.310199	1.170206	-0.899882	3.312094	0.000000	-0.200985	0.000000	0.000010	0.000000	0.000000	0.000000
8.548938	18.357735	15.603244	1.702062	-1.469034	3.174843	0.000000	-0.298227	0.000000	0.000010	0.000000	0.000000	0.000000
9.097998	16.250180	17.574733	2.113693	-2.142823	2.985577	0.000000	-0.390179	0.000000	0.000010	-0.000000	0.000000	0.000000
9.543958	14.605921	19.331419	1.586427	-1.779639	2.829880	0.000000	-0.308470	0.000000	0.000010	0.000000	0.000000	0.000000
9.984918	13.410007	20.710858	1.135928	-1.336718	2.711104	0.000000	-0.230758	0.000000	0.000010	0.000000	0.000000	0.000000
10.425878	12.587098	21.671262	0.737327	-0.832977	2.625984	0.000000	-0.155674	0.000000	0.000010	0.000001	0.000000	0.000000
10.866838	12.099597	22.168933	0.372412	-0.291337	2.573551	0.000000	-0.082363	0.000000	0.000011	0.000001	0.000000	0.000000
11.309048	11.925098	22.180706	0.053647	0.209111	2.553188	0.000000	-0.016251	0.000000	0.000011	0.000001	0.000000	0.000000
11.606371	11.900631	22.060518	0.028643	0.195120	2.548356	0.000000	-0.016251	0.000000	0.000011	0.000001	0.000000	0.000000
12.086371	11.892511	21.884044	-0.011724	0.172534	2.540555	0.000000	-0.016251	0.000000	0.000012	0.000001	0.000000	0.000000
12.566371	11.923142	21.729254	-0.052091	0.149947	2.532754	0.000000	-0.016251	0.000000	0.000012	0.000001	0.000000	0.000000
13.046371	11.992526	21.596146	-0.092459	0.127360	2.524952	0.000000	-0.016251	0.000000	0.000013	0.000001	0.000000	0.000000
13.526371	12.100663	21.484722	-0.132826	0.104774	2.517151	0.000000	-0.016251	0.000000	0.000013	0.000001	0.000000	0.000000
14.007621	12.247985	21.394775	-0.173298	0.082128	2.509330	0.000000	-0.016251	0.000000	0.000014	0.000001	0.000000	0.000000
14.304943	12.358470	21.350098	-0.168000	0.015788	2.504498	0.000000	-0.022392	0.000000	0.000014	0.000001	0.000000	0.000000
14.745903	12.665153	21.102502	-0.530129	0.543569	2.510256	0.000000	0.048537	0.000000	0.000015	0.000001	0.000000	0.000000
15.186863	13.300638	20.398615	-0.916478	1.046617	2.547384	0.000000	0.120019	0.000000	0.000016	0.000002	0.000000	0.000000
15.627823	14.293959	19.270463	-1.344699	1.502046	2.616302	0.000000	0.192867	0.000000	0.000016	0.000002	0.000000	0.000000
16.068783	15.690497	17.769377	-1.834355	1.889132	2.717797	0.000000	0.267913	0.000000	0.000018	0.000003	0.000000	0.000000
16.514743	17.577714	15.942151	-2.412575	2.191009	2.854720	0.000000	0.346472	0.000000	0.000019	0.000003	0.000000	0.000000
17.063803	20.001608	13.901903	-1.975915	1.546818	3.021219	0.000000	0.259128	0.000000	0.000020	0.000003	0.000000	0.000000
17.612863	21.866054	12.504764	-1.399687	1.012803	3.138427	0.000000	0.167189	0.000000	0.000022	0.000002	0.000000	0.000000
18.161923	23.039356	11.651220	-0.724591	0.550928	3.204266	0.000000	0.072284	0.000000	0.000022	0.000001	0.000000	0.000000
18.710983	23.438638	11.280475	0.001686	0.128294	3.217567	0.000000	-0.023903	0.000000	0.000023	0.000000	0.000000	0.000000
19.009556	23.478011	11.194367	-0.072327	0.130635	3.212940	0.000000	-0.015498	0.000000	0.000023	0.000000	0.000000	0.000000
19.342889	23.530986	11.117372	-0.086599	0.100350	3.207773	0.000000	-0.015498	0.000000	0.000023	0.000000	0.000000	0.000000
19.676223	23.593476	11.060567	-0.100871	0.070065	3.202607	0.000000	-0.015498	0.000000	0.000023	0.000000	0.000000	0.000000
20.010806	23.666061	11.023716	-0.232451	0.094285	3.197441	0.000000	0.000344	0.000000	0.000023	0.000001	0.000000	0.000000
20.308129	23.808224	10.975740	-0.307887	0.095746	3.197543	0.000000	0.008697	0.000000	0.000024	0.000001	0.000000	0.000000
20.857189	23.735685	11.092682	0.439220	-0.309988	3.176095	0.000000	-0.086710	0.000000	0.000024	-0.000000	0.000000	0.000000
21.406249	22.854983	11.664606	1.155302	-0.737802	3.102608	0.000000	-0.180578	0.000000	0.000023	-0.000001	0.000000	0.000000
21.955309	21.228327	12.732249	1.789780	-1.218168	2.978388	0.000000	-0.271243	0.000000	0.000023	-0.000002	0.000000	0.000000
22.504369	18.970614	14.371658	2.297836	-1.785301	2.805636	0.000000	-0.357098	0.000000	0.000022	-0.000002	0.000000	0.000000
22.950329	17.191294	15.843579	1.706110	-1.501342	2.663681	0.000000	-0.279877	0.000000	0.000021	-0.000002	0.000000	0.000000
23.391289	15.915964	17.017149	1.197028	-1.149927	2.556592	0.000000	-0.206299	0.000000	0.000020	-0.000001	0.000000	0.000000
23.832249	15.063882	17.856455	0.742635	-0.746191	2.481399	0.000000	-0.135071	0.000000	0.000020	-0.000001	0.000000	0.000000
24.273209	14.596119	18.323310	0.322171	-0.308504	2.437245	0.000000	-0.065381	0.000000	0.000019	-0.000000	0.000000	0.000000
24.715418	14.491425	18.396227	-0.048129	0.098046	2.423626	0.000000	-0.002377	0.000000	0.000019	0.000000	0.000000	0.000000
25.012741	14.526159	18.342775	-0.068694	0.081729	2.422919	0.000000	-0.002377	0.000000	0.000019	0.000000	0.000000	0.000000
25.346075	14.579640	18.294387	-0.091750	0.063435	2.422127	0.000000	-0.002377	0.000000	0.000019	0.000000	0.000000	0.000000
25.679408	14.648492	18.258195	-0.114805	0.045141	2.421334	0.000000	-0.002377	0.000000	0.000019	0.000000	0.000000	0.000000
26.013991	14.732760	18.234502	-0.018425	-0.121148	2.420514	0.000000	-0.022014	0.000000	0.000020	0.000000	0.000000	0.000000
26.311314	14.749718	18.311462	-0.002449	-0.182590	2.413969	0.000000	-0.027933	0.000000	0.000020	-0.000000	0.000000	0.000000
26.752274	14.933596	18.273910	-0.416127	0.267426	2.416764	0.000000	0.040624	0.000000	0.000020	0.000000	0.000000	0.000000
27.193234	15.489277	17.843349	-0.848816	0.705274	2.449863	0.000000	0.109644	0.000000	0.000020	0.000001	0.000000	0.000000
27.634194	16.442150	17.039371	-1.320285	1.111032	2.513643	0.000000	0.179912	0.000000	0.000020	0.000001	0.000000	0.000000
28.075154	17.835748	15.898556	-1.852075	1.466240	2.608831	0.000000	0.252230	0.000000	0.000021	0.000002	0.000000	0.000000
28.521114	19.757950	14.455623	-2.473449	1.755647	2.738113	0.000000	0.327863	0.000000	0.000022	0.000003	0.000000	0.000000
29.070174	22.201082	12.847943	-1.949871	1.189694	2.895459	0.000000	0.244446	0.000000	0.000024	0.000002	0.000000	0.000000
29.619234	23.989766	11.811847	-1.288563	0.708480	3.005746	0.000000	0.156694	0.000000	0.000024	0.000001	0.000000	0.000000
30.168294	24.997658	11.273536	-0.536237	0.277730	3.067016	0.000000	0.066162	0.000000	0.000025	0.000000	0.000000	0.000000
30.717354	25.153565	11.194667	0.253965	-0.133238	3.078184	0.000000	-0.025544	0.000000	0.000025	-0.000001	0.000000	0.000000
31.015927	25.044817	11.264816	0.175967	-0.130954	3.072958	0.000000	-0.017503	0.000000	0.000024	-0.000000	0.000000	0.000000
31.349260	24.932080	11.362151	0.162245	-0.161052	3.067124	0.000000	-0.017503	0.000000	0.000024	-0.000000	0.000000	0.000000
31.682593	24.828490	11.479552	0.148524	-0.191150	3.061290	0.000000	-0.017503	0.000000	0.000024	-0.000000	0.000000	0.000000
32.017177	24.733712	11.617571	0.134751	-0.221361	3.055433	0.000000	-0.017503	0.000000	0.000024	-0.000000	0.000000	0.000000
32.314499	24.657222	11.757185	0.058099	-0.217494	3.050230	0.000000	-0.009535	0.000000	0.000024	-0.000000	0.000000	0.000000
32.863559	24.170954	12.235218	0.822295	-0.658284	3.020108	0.000000	-0.100028	0.000000	0.000023	-0.000001	0.000000	0.000000
33.412619	22.872590	13.220045	1.528407	-1.145963	2.940714	0.000000	-0.188746	0.000000	0.000023	-0.000002	0.000000	0.000000
33.961679	20.853842	14.781813	2.126561	-1.715265	2.813459	0.000000	-0.274117	0.000000	0.000021	-0.000003	0.000000	0.000000
34.510739	18.257303	17.031762	2.574504	-2.406742	2.640597	0.000000	-0.354625	0.000000	0.000020	-0.000003	0.000000	0.000000
34.956699	16.238369	19.044271	1.968879	-2.087171	2.498794	0.000000	-0.281684	0.000000	0.000018	-0.000003	0.000000	0.000000
35.397659	14.732865	20.708859	1.458222	-1.673381	2.389967	0.000000	-0.212379	0.000000	0.000017	-0.000002	0.000000	0.000000
35.838619	13.646750	21.973420	1.014188	-1.183452	2.311140	0.000000	-0.145493	0.000000	0.000016	-0.000002	0.000000	0.000000
36.279579	12.930404	22.780418	0.616488	-0.639678	2.261413	0.000000	-0.080264	0.000000	0.000016	-0.000001	0.000000	0.000000
36.721789	12.550405	23.093445	0.277622	-0.123476	2.240194	0.000000	-0.021442	0.000000	0.000015	-0.000001	0.000000	0.000000
37.019112	12.392905	23.170756	0.252106	-0.136547	2.233819	0.000000	-0.021442	0.000000	0.000015	-0.000001	0.000000	0.000000
37.352445	12.234370	23.266672	0.223499	-0.151201	2.226672	0.000000	-0.021442	0.000000	0.000014	-0.000001	0.000000	0.000000
37.685779	12.094906	23.372357	0.194893	-0.165855	2.219525	0.000000	-0.021442	0.000000	0.000014	-0.000001	0.000000	0.000000
38.020362	11.974097	23.488264	0.166179	-0.180565	2.212351	0.000000	-0.021442	0.000000	0.000014	-0.000001	0.000000	0.000000
38.317684	11.882866	23.599522	0.169799	-0.251502	2.205976	0.000000	-0.026851	0.000000	0.000013	-0.000001	0.000000	0.000000
38.758644	11.884602	23.559928	-0.173750	0.340950	2.208066	0.000000	0.036335	0.000000	0.000013	-0.000001	0.000000	0.000000
39.199604	12.191662	23.002711	-0.525237	0.917888	2.238082	0.000000	0.099935	0.000000	0.000013	-0.000000	0.000000	0.000000
39.640564	12.818076	21.953222	-0.900721	1.453064	2.296367	0.000000	0.164672	0.000000	0.000012	-0.000000	0.000000	0.000000
40.081524	13.792463	20.459212	-1.317356	1.922126	2.383585	0.000000	0.231286	0.000000	0.000012	0.000000	0.000000	0.000000
40.527484	15.176916	18.566086	-1.798005	2.305018	2.502201	0.000000	0.300939	0.000000	0.000013	0.000000	0.000000	0.000000
41.076544	16.943601	16.438663	-1.400600	1.592516	2.646902	0.000000	0.225371	0.000000	0.000013	0.000000	0.000000	0.000000
41.625604	18.216646	15.027148	-0.904264	0.993445	2.748951	0.000000	0.145805	0.000000	0.000013	-0.000000	0.000000	0.000000
42.174664	18.906129	14.230999	-0.344055	0.465135	2.806539	0.000000	0.063653	0.000000	0.000012	-0.000001	0.000000	0.000000
42.723724	18.963350	13.993509	0.240456	-0.030044	2.818643	0.000000	-0.019628	0.000000	0.000012	-0.000001	0.000000	0.000000
43.022297	18.854220	13.995989	0.174594	-0.014822	2.814982	0.000000	-0.012264	0.000000	0.000012	-0.000001	0.000000	0.000000
43.502297	18.699201	14.026684	0.148360	-0.049125	2.809096	0.000000	-0.012264	0.000000	0.000011	-0.000001	0.000000	0.000000
43.982297	18.569369	14.090310	0.122125	-0.083428	2.803209	0.000000	-0.012264	0.000000	0.000010	-0.000001	0.000000	0.000000
44.462297	18.464721	14.186867	0.095891	-0.117731	2.797323	0.000000	-0.012264	0.000000	0.000010	-0.000001	0.000000	0.000000
44.942297	18.385258	14.316354	0.069656	-0.152034	2.791437	0.000000	-0.012264	0.000000	0.000009	-0.000001	0.000000	0.000000
45.423547	18.331099	14.479059	-0.047469	-0.114689	2.785553	0.000000	0.001537	0.000000	0.000009	-0.000001	0.000000	0.000000
45.720870	18.364160	14.553444	-0.111704	-0.097471	2.786010	0.000000	0.008816	0.000000	0.000009	-0.000001	0.000000	0.000000
46.269930	18.177610	14.941933	0.449455	-0.614258	2.768277	0.000000	-0.073316	0.000000	0.000008	-0.000001	0.000000	0.000000
46.818990	17.388705	15.918466	0.978867	-1.174796	2.705740	0.000000	-0.154148	0.000000	0.000007	-0.000002	0.000000	0.000000
47.368050	16.053169	17.552602	1.439136	-1.819013	2.599508	0.000000	-0.232246	0.000000	0.000006	-0.000002	0.000000	0.000000
47.917110	14.265340	19.960734	1.797752	-2.592794	2.451465	0.000000	-0.306224	0.000000	0.000005	-0.000002	0.000000	0.000000
48.363070	12.874093	22.101742	1.332968	-2.187918	2.330194	0.000000	-0.237922	0.000000	0.000004	-0.000002	0.000000	0.000000
48.804030	11.878731	23.815965	0.932854	-1.684768	2.239741	0.000000	-0.172727	0.000000	0.000004	-0.000002	0.000000	0.000000
49.244990	11.216183	25.050823	0.575359	-1.104962	2.177576	0.000000	-0.109499	0.000000	0.000003	-0.000002	0.000000	0.000000
49.685950	10.856178	25.750132	0.244150	-0.474881	2.142991	0.000000	-0.047518	0.000000	0.000002	-0.000002	0.000000	0.000000
50.128160	10.782391	25.881790	-0.049579	0.113288	2.135602	0.000000	0.008685	0.000000	0.000001	-0.000002	0.000000	0.000000
50.425482	10.820092	25.817883	-0.077221	0.101653	2.138185	0.000000	0.008685	0.000000	0.000001	-0.000002	0.000000	0.000000
50.758816	10.881903	25.754462	-0.108212	0.088609	2.141080	0.000000	0.008685	0.000000	0.000000	-0.000002	0.000000	0.000000
51.092149	10.964375	25.699738	-0.139203	0.075564	2.143976	0.000000	0.008685	0.000000	-0.000000	-0.000002	0.000000	0.000000
51.426732	11.067708	25.654073	-0.080521	-0.145647	2.146860	0.000000	-0.008732	0.000000	-0.000001	-0.000002	0.000000	0.000000
51.724055	11.123628	25.744201	-0.080280	-0.220616	2.144264	0.000000	-0.013990	0.000000	-0.000001	-0.000002	0.000000	0.000000
52.165015	11.339678	25.652344	-0.411533	0.428136	2.151684	0.000000	0.047673	0.000000	-0.000002	-0.000002	0.000000	0.000000
52.605975	11.855022	24.994776	-0.761587	1.057408	2.186390	0.000000	0.109880	0.000000	-0.000002	-0.000002	0.000000	0.000000
53.046935	12.693204	23.801417	-1.146436	1.638568	2.248775	0.000000	0.173338	0.000000	-0.000003	-0.000002	0.000000	0.000000
53.487895	13.892519	22.126564	-1.583663	2.145176	2.339551	0.000000	0.238770	0.000000	-0.000004	-0.000002	0.000000	0.000000
53.933855	15.528319	20.021380	-2.097470	2.555517	2.461256	0.000000	0.307321	0.000000	-0.000005	-0.000002	0.000000	0.000000
54.482915	17.634384	17.652486	-1.715590	1.784406	2.609815	0.000000	0.233017	0.000000	-0.000006	-0.000002	0.000000	0.000000
55.031975	19.251672	16.056018	-1.212531	1.140395	2.716379	0.000000	0.154580	0.000000	-0.000007	-0.000002	0.000000	0.000000
55.581035	20.265944	15.118266	-0.623824	0.577611	2.779060	0.000000	0.073401	0.000000	-0.000007	-0.000001	0.000000	0.000000
56.130095	20.605558	14.772434	0.008947	0.055969	2.796745	0.000000	-0.009080	0.000000	-0.000008	-0.000001	0.000000	0.000000
56.428668	20.636702	14.722050	-0.059414	0.074177	2.796216	0.000000	-0.001772	0.000000	-0.000008	-0.000001	0.000000	0.000000
56.762001	20.681715	14.680188	-0.075624	0.051411	2.795626	0.000000	-0.001772	0.000000	-0.000009	-0.000001	0.000000	0.000000
57.095334	20.737533	14.653502	-0.091833	0.028645	2.795035	0.000000	-0.001772	0.000000	-0.000009	-0.000001	0.000000	0.000000
57.429918	20.804429	14.641980	-0.108103	0.005793	2.794443	0.000000	-0.001772	0.000000	-0.000009	-0.000001	0.000000	0.000000
57.727240	20.873011	14.644573	-0.177104	0.023752	2.793916	0.000000	0.005528	0.000000	-0.000010	-0.000001	0.000000	0.000000
58.276300	20.711411	14.899675	0.469681	-0.491111	2.774313	0.000000	-0.076830	0.000000	-0.000010	-0.000001	0.000000	0.000000
58.825360	19.853660	15.735935	1.083290	-1.040955	2.709799	0.000000	-0.157825	0.000000	-0.000011	-0.000000	0.000000	0.000000
59.374420	18.360343	17.212917	1.620380	-1.664944	2.601517	0.000000	-0.236021	0.000000	-0.000011	-0.000000	0.000000	0.000000
59.923480	16.336942	19.435824	2.043015	-2.407523	2.451388	0.000000	-0.310031	0.000000	-0.000011	0.000000	0.000000	0.000000
60.369440	14.753266	21.411543	1.520722	-2.004038	2.328416	0.000000	-0.241753	0.000000	-0.000011	-0.000000	0.000000	0.000000
60.810400	13.614253	22.967343	1.072108	-1.510747	2.236260	0.000000	-0.176625	0.000000	-0.000011	-0.000000	0.000000	0.000000
61.251360	12.847869	24.056012	0.672476	-0.948718	2.172352	0.000000	-0.113510	0.000000	-0.000011	-0.000001	0.000000	0.000000
61.692320	12.419100	24.628015	0.303567	-0.343523	2.135964	0.000000	-0.051687	0.000000	-0.000011	-0.000001	0.000000	0.000000
62.134530	12.308410	24.656786	-0.021387	0.216775	2.126688	0.000000	0.004332	0.000000	-0.000012	-0.000001	0.000000	0.000000
62.431853	12.328314	24.531635	-0.045555	0.204150	2.127977	0.000000	0.004332	0.000000	-0.000012	-0.000001	0.000000	0.000000
62.765186	12.367715	24.400253	-0.072649	0.189996	2.129421	0.000000	0.004332	0.000000	-0.000012	-0.000001	0.000000	0.000000
63.098520	12.425178	24.278307	-0.099743	0.175842	2.130865	0.000000	0.004332	0.000000	-0.000013	-0.000001	0.000000	0.000000
63.433103	12.501022	24.165393	-0.126939	0.161634	2.132315	0.000000	0.004332	0.000000	-0.000013	-0.000001	0.000000	0.000000
63.730426	12.583691	24.073032	-0.120243	0.089967	2.133603	0.000000	-0.000901	0.000000	-0.000013	-0.000001	0.000000	0.000000
64.171386	12.850005	23.728577	-0.485989	0.688209	2.146746	0.000000	0.060562	0.000000	-0.000014	-0.000001	0.000000	0.000000
64.612346	13.447411	22.868366	-0.873938	1.255137	2.187116	0.000000	0.122714	0.000000	-0.000015	-0.000002	0.000000	0.000000
65.053306	14.403205	21.531537	-1.301816	1.764958	2.255176	0.000000	0.186264	0.000000	-0.000016	-0.000002	0.000000	0.000000
65.494266	15.761054	19.778917	-1.789169	2.194475	2.351699	0.000000	0.251935	0.000000	-0.000017	-0.000003	0.000000	0.000000
65.940226	17.606154	17.665449	-2.362956	2.524897	2.479358	0.000000	0.320878	0.000000	-0.000018	-0.000003	0.000000	0.000000
66.489286	19.971478	15.301166	-1.919497	1.806578	2.635178	0.000000	0.245870	0.000000	-0.000019	-0.000002	0.000000	0.000000
67.038346	21.772045	13.650816	-1.340455	1.216937	2.748554	0.000000	0.166501	0.000000	-0.000021	-0.000002	0.000000	0.000000
67.587406	22.880672	12.596850	-0.666730	0.713977	2.817475	0.000000	0.084178	0.000000	-0.000021	-0.000001	0.000000	0.000000
68.136466	23.219052	12.064196	0.054089	0.261871	2.840718	0.000000	0.000362	0.000000	-0.000022	-0.000000	0.000000	0.000000
68.435038	23.226826	11.897020	-0.019449	0.266519	2.843043	0.000000	0.007786	0.000000	-0.000022	-0.000000	0.000000	0.000000
68.768372	23.244578	11.729343	-0.033806	0.236510	2.845639	0.000000	0.007786	0.000000	-0.000022	-0.000000	0.000000	0.000000
69.101705	23.271900	11.581673	-0.048162	0.206502	2.848234	0.000000	0.007786	0.000000	-0.000022	-0.000000	0.000000	0.000000
69.436288	23.308950	11.453566	-0.062573	0.176381	2.850840	0.000000	0.007786	0.000000	-0.000022	-0.000000	0.000000	0.000000
69.733611	23.349966	11.356640	-0.136399	0.179293	2.853155	0.000000	0.015242	0.000000	-0.000023	-0.000001	0.000000	0.000000
70.282671	23.098722	11.387213	0.591280	-0.235303	2.838344	0.000000	-0.069113	0.000000	-0.000023	0.000000	0.000000	0.000000
