#ParticleID	Turn	x[m]	xp	y[m]	yp	z[m]	dE[GeV]# s	beta_x	beta_y	alpha_x	alpha_y	D_x	D_y	D_px	D_py	orbit_x	orbit_px	orbit_y	orbit_py
0.300000	11.801988	25.063919	-0.009964	-0.026702	2.618371	0.000000	-0.000086	0.000000	-0.000002	0.000002	0.000000	0.000000
0.601250	11.815682	25.083631	-0.035492	-0.038730	2.618344	0.000000	-0.000086	0.000000	-0.000001	0.000002	0.000000	0.000000
0.898573	11.844278	25.110191	-0.031642	-0.112178	2.618318	0.000000	-0.006506	0.000000	-0.000001	0.000002	0.000000	0.000000
1.339533	12.024174	24.930559	-0.377870	0.517993	2.631743	0.000000	0.067456	0.000000	0.000000	0.000002	0.000000	0.000000
1.780493	12.515846	24.203476	-0.741363	1.124596	2.677920	0.000000	0.142186	0.000000	0.000001	0.000002	0.000000	0.000000
2.221453	13.341757	22.962023	-1.138726	1.680031	2.757375	0.000000	0.218535	0.000000	0.000002	0.000002	0.000000	0.000000
2.662413	14.539640	21.262686	-1.588114	2.159026	2.871014	0.000000	0.297374	0.000000	0.000003	0.000002	0.000000	0.000000
3.108373	16.184936	19.157865	-2.114343	2.540921	3.021991	0.000000	0.380089	0.000000	0.000004	0.000002	0.000000	0.000000
3.657433	18.294806	16.793775	-1.705603	1.790199	3.205410	0.000000	0.287052	0.000000	0.000005	0.000002	0.000000	0.000000
4.206493	19.886616	15.179629	-1.176388	1.166989	3.336271	0.000000	0.188923	0.000000	0.000006	0.000002	0.000000	0.000000
4.755553	20.847927	14.200455	-0.564079	0.626902	3.412253	0.000000	0.087444	0.000000	0.000007	0.000002	0.000000	0.000000
5.304613	21.110839	13.786509	0.088074	0.131467	3.432008	0.000000	-0.015587	0.000000	0.000008	0.000001	0.000000	0.000000
5.603185	21.095409	13.693143	0.018761	0.145221	3.430031	0.000000	-0.006621	0.000000	0.000008	0.000001	0.000000	0.000000
5.936519	21.088171	13.604614	0.002954	0.120365	3.427824	0.000000	-0.006621	0.000000	0.000009	0.000001	0.000000	0.000000
6.269852	21.091471	13.532656	-0.012853	0.095509	3.425617	0.000000	-0.006621	0.000000	0.000009	0.000001	0.000000	0.000000
6.604435	21.105380	13.477093	-0.028719	0.070559	3.423401	0.000000	-0.006621	0.000000	0.000009	0.000001	0.000000	0.000000
6.901758	21.126649	13.441727	-0.098014	0.083506	3.421432	0.000000	0.002318	0.000000	0.000010	0.000001	0.000000	0.000000
7.450818	20.874260	13.611016	0.554968	-0.393651	3.394506	0.000000	-0.100254	0.000000	0.000011	0.000001	0.000000	0.000000
7.999878	19.922201	14.316510	1.168749	-0.898846	3.311667	0.000000	-0.201047	0.000000	0.000011	0.000001	0.000000	0.000000
8.548938	18.337719	15.608460	1.699976	-1.468064	3.174386	0.000000	-0.298275	0.000000	0.000011	0.000000	0.000000	0.000000
9.097998	16.232735	17.578888	2.111125	-2.141849	2.985097	0.000000	-0.390212	0.000000	0.000012	0.000000	0.000000	0.000000
9.543958	14.590520	19.334602	1.584394	-1.778442	2.829382	0.000000	-0.308515	0.000000	0.000012	0.000000	0.000000	0.000000
9.984918	13.396201	20.712907	1.134332	-1.335354	2.710584	0.000000	-0.230816	0.000000	0.000012	0.000001	0.000000	0.000000
10.425878	12.574534	21.672057	0.736095	-0.831509	2.625435	0.000000	-0.155746	0.000000	0.000012	0.000001	0.000000	0.000000
10.866838	12.087980	22.168412	0.371488	-0.289831	2.572967	0.000000	-0.082450	0.000000	0.000013	0.000001	0.000000	0.000000
11.309048	11.914177	22.178862	0.052962	0.210592	2.552561	0.000000	-0.016352	0.000000	0.000013	0.000002	0.000000	0.000000
11.606371	11.890124	22.057797	0.027937	0.196591	2.547699	0.000000	-0.016352	0.000000	0.000014	0.000002	0.000000	0.000000
12.086371	11.882697	21.879918	-0.012464	0.173989	2.539850	0.000000	-0.016352	0.000000	0.000014	0.000002	0.000000	0.000000
12.566371	11.914055	21.723737	-0.052866	0.151387	2.532000	0.000000	-0.016352	0.000000	0.000015	0.000002	0.000000	0.000000
13.046371	11.984199	21.589254	-0.093267	0.128785	2.524150	0.000000	-0.016352	0.000000	0.000016	0.000002	0.000000	0.000000
13.526371	12.093127	21.476469	-0.133668	0.106183	2.516301	0.000000	-0.016352	0.000000	0.000017	0.000002	0.000000	0.000000
14.007621	12.241277	21.385173	-0.174174	0.083522	2.508431	0.000000	-0.016352	0.000000	0.000017	0.000002	0.000000	0.000000
14.304943	12.352289	21.339670	-0.168913	0.017200	2.503568	0.000000	-0.022490	0.000000	0.000018	0.000002	0.000000	0.000000
14.745903	12.659727	21.090961	-0.530932	0.544670	2.509278	0.000000	0.048414	0.000000	0.000019	0.000002	0.000000	0.000000
15.186863	13.295886	20.386259	-0.917208	1.047358	2.546345	0.000000	0.119870	0.000000	0.000020	0.000002	0.000000	0.000000
15.627823	14.289830	19.257627	-1.345388	1.502391	2.615191	0.000000	0.192691	0.000000	0.000021	0.000003	0.000000	0.000000
16.068783	15.686971	17.756416	-1.835036	1.889067	2.716602	0.000000	0.267706	0.000000	0.000022	0.000004	0.000000	0.000000
16.514743	17.574804	15.929433	-2.413280	2.190533	2.853425	0.000000	0.346233	0.000000	0.000024	0.000004	0.000000	0.000000
17.063803	19.999592	13.889535	-1.976828	1.546651	3.019805	0.000000	0.258934	0.000000	0.000026	0.000003	0.000000	0.000000
17.612863	21.865125	12.492416	-1.400743	1.012934	3.136918	0.000000	0.167041	0.000000	0.000028	0.000002	0.000000	0.000000
18.161923	23.039632	11.638561	-0.725716	0.551365	3.202689	0.000000	0.072186	0.000000	0.000029	0.000002	0.000000	0.000000
18.710983	23.440151	11.267154	0.000572	0.129070	3.215951	0.000000	-0.023949	0.000000	0.000029	0.000001	0.000000	0.000000
19.009556	23.480190	11.180616	-0.073442	0.131336	3.211308	0.000000	-0.015549	0.000000	0.000030	0.000001	0.000000	0.000000
19.342889	23.533909	11.103168	-0.087715	0.101008	3.206125	0.000000	-0.015549	0.000000	0.000030	0.000001	0.000000	0.000000
19.676223	23.597143	11.045938	-0.101988	0.070681	3.200942	0.000000	-0.015549	0.000000	0.000030	0.000001	0.000000	0.000000
20.010806	23.670477	11.008690	-0.233591	0.094783	3.195760	0.000000	0.000285	0.000000	0.000030	0.000001	0.000000	0.000000
20.308129	23.813319	10.960430	-0.309041	0.096163	3.195844	0.000000	0.008633	0.000000	0.000030	0.000001	0.000000	0.000000
20.857189	23.741949	11.076677	0.438258	-0.309133	3.174376	0.000000	-0.086718	0.000000	0.000031	-0.000000	0.000000	0.000000
21.406249	22.862165	11.647394	1.154602	-0.736447	3.100900	0.000000	-0.180531	0.000000	0.000030	-0.000001	0.000000	0.000000
21.955309	21.236110	12.713232	1.789389	-1.216216	2.976720	0.000000	-0.271141	0.000000	0.000030	-0.000002	0.000000	0.000000
22.504369	18.978642	14.350109	2.297783	-1.782614	2.804039	0.000000	-0.356943	0.000000	0.000028	-0.000003	0.000000	0.000000
22.950329	17.199432	15.819855	1.705915	-1.499172	2.662145	0.000000	-0.279763	0.000000	0.000027	-0.000002	0.000000	0.000000
23.391289	15.924339	16.991776	1.196682	-1.148371	2.555097	0.000000	-0.206224	0.000000	0.000026	-0.000002	0.000000	0.000000
23.832249	15.072635	17.830007	0.742122	-0.745319	2.479929	0.000000	-0.135034	0.000000	0.000026	-0.000001	0.000000	0.000000
24.273209	14.605406	18.296410	0.321468	-0.308356	2.435783	0.000000	-0.065381	0.000000	0.000025	-0.000000	0.000000	0.000000
24.715418	14.501430	18.369521	-0.049033	0.097531	2.422156	0.000000	-0.002412	0.000000	0.000025	0.000000	0.000000	0.000000
25.012741	14.536698	18.316382	-0.069585	0.081192	2.421438	0.000000	-0.002412	0.000000	0.000025	0.000000	0.000000	0.000000
25.346075	14.590769	18.268361	-0.092627	0.062873	2.420634	0.000000	-0.002412	0.000000	0.000026	0.000000	0.000000	0.000000
25.679408	14.660201	18.232552	-0.115668	0.044554	2.419830	0.000000	-0.002412	0.000000	0.000026	0.000000	0.000000	0.000000
26.013991	14.745041	18.209259	-0.019175	-0.121555	2.418998	0.000000	-0.022037	0.000000	0.000026	0.000000	0.000000	0.000000
26.311314	14.762441	18.286467	-0.003154	-0.182957	2.412446	0.000000	-0.027951	0.000000	0.000026	0.000000	0.000000	0.000000
26.752274	14.947079	18.249537	-0.417152	0.266387	2.415225	0.000000	0.040566	0.000000	0.000026	0.000001	0.000000	0.000000
27.193234	15.503823	17.820172	-0.850210	0.703612	2.448289	0.000000	0.109546	0.000000	0.000027	0.000001	0.000000	0.000000
27.634194	16.458110	17.017908	-1.322111	1.108823	2.512017	0.000000	0.179773	0.000000	0.000027	0.000002	0.000000	0.000000
28.075154	17.853538	15.879247	-1.854415	1.463583	2.607133	0.000000	0.252048	0.000000	0.000028	0.000003	0.000000	0.000000
28.521114	19.778099	14.438840	-2.476417	1.752662	2.736324	0.000000	0.327636	0.000000	0.000030	0.000004	0.000000	0.000000
29.070174	22.224209	12.834057	-1.952293	1.187371	2.893562	0.000000	0.244279	0.000000	0.000032	0.000003	0.000000	0.000000
29.619234	24.015174	11.800226	-1.290269	0.706654	3.003773	0.000000	0.156589	0.000000	0.000033	0.000002	0.000000	0.000000
30.168294	25.024488	11.263709	-0.537106	0.276270	3.065003	0.000000	0.066121	0.000000	0.000033	0.000000	0.000000	0.000000
30.717354	25.180859	11.186291	0.253995	-0.134436	3.076167	0.000000	-0.025519	0.000000	0.000033	-0.000001	0.000000	0.000000
31.015927	25.072129	11.257178	0.175943	-0.132203	3.070947	0.000000	-0.017484	0.000000	0.000033	-0.000001	0.000000	0.000000
31.349260	24.959403	11.355356	0.162237	-0.162331	3.065119	0.000000	-0.017484	0.000000	0.000033	-0.000001	0.000000	0.000000
31.682593	24.855814	11.473620	0.148530	-0.192460	3.059291	0.000000	-0.017484	0.000000	0.000033	-0.000001	0.000000	0.000000
32.017177	24.761026	11.612526	0.134772	-0.222701	3.053442	0.000000	-0.017484	0.000000	0.000033	-0.000001	0.000000	0.000000
32.314499	24.684519	11.752944	0.058068	-0.218874	3.048243	0.000000	-0.009521	0.000000	0.000032	-0.000000	0.000000	0.000000
32.863559	24.197790	12.232461	0.823162	-0.659622	3.018146	0.000000	-0.099950	0.000000	0.000032	-0.000001	0.000000	0.000000
33.412619	22.898006	13.218776	1.530111	-1.147352	2.938813	0.000000	-0.188606	0.000000	0.000031	-0.000002	0.000000	0.000000
33.961679	20.876979	14.782143	2.128982	-1.716806	2.811651	0.000000	-0.273917	0.000000	0.000029	-0.000003	0.000000	0.000000
34.510739	18.277464	17.033918	2.577471	-2.408545	2.638916	0.000000	-0.354369	0.000000	0.000027	-0.000004	0.000000	0.000000
34.956699	16.256171	19.048088	1.971219	-2.089079	2.497218	0.000000	-0.281470	0.000000	0.000025	-0.000004	0.000000	0.000000
35.397659	14.748837	20.714372	1.460046	-1.675305	2.388477	0.000000	-0.212204	0.000000	0.000024	-0.000003	0.000000	0.000000
35.838619	13.661310	21.980606	1.015580	-1.185306	2.309719	0.000000	-0.145356	0.000000	0.000023	-0.000002	0.000000	0.000000
36.279579	12.943903	22.789177	0.617512	-0.641376	2.260045	0.000000	-0.080163	0.000000	0.000022	-0.000002	0.000000	0.000000
36.721789	12.563144	23.103608	0.278354	-0.124964	2.238863	0.000000	-0.021372	0.000000	0.000021	-0.000001	0.000000	0.000000
37.019112	12.405203	23.181804	0.252854	-0.138034	2.232509	0.000000	-0.021372	0.000000	0.000020	-0.000001	0.000000	0.000000
37.352445	12.246164	23.278711	0.224266	-0.152687	2.225385	0.000000	-0.021372	0.000000	0.000020	-0.000001	0.000000	0.000000
37.685779	12.106183	23.385387	0.195677	-0.167340	2.218262	0.000000	-0.021372	0.000000	0.000020	-0.000001	0.000000	0.000000
38.020362	11.984843	23.502286	0.166981	-0.182048	2.211112	0.000000	-0.021372	0.000000	0.000019	-0.000001	0.000000	0.000000
38.317684	11.893130	23.614427	0.170642	-0.253018	2.204758	0.000000	-0.026778	0.000000	0.000019	-0.000001	0.000000	0.000000
38.758644	11.894224	23.575991	-0.173132	0.339849	2.206873	0.000000	0.036377	0.000000	0.000018	-0.000001	0.000000	0.000000
39.199604	12.200828	23.019542	-0.524816	0.917254	2.236901	0.000000	0.099946	0.000000	0.000018	-0.000000	0.000000	0.000000
39.640564	12.826951	21.970395	-0.900478	1.452924	2.295185	0.000000	0.164654	0.000000	0.000018	-0.000000	0.000000	0.000000
40.081524	13.801198	20.476288	-1.317280	1.922487	2.382387	0.000000	0.231236	0.000000	0.000018	0.000000	0.000000	0.000000
40.527484	15.185657	18.582619	-1.798093	2.305867	2.500974	0.000000	0.300858	0.000000	0.000018	0.000001	0.000000	0.000000
41.076544	16.952241	16.454520	-1.400330	1.592906	2.645641	0.000000	0.225330	0.000000	0.000018	0.000000	0.000000	0.000000
41.625604	18.224800	15.042812	-0.903654	0.993406	2.747679	0.000000	0.145805	0.000000	0.000018	-0.000000	0.000000	0.000000
42.174664	18.913446	14.246942	-0.343149	0.464663	2.805278	0.000000	0.063695	0.000000	0.000018	-0.000001	0.000000	0.000000
42.723724	18.969538	14.010223	0.241594	-0.030983	2.817417	0.000000	-0.019546	0.000000	0.000017	-0.000001	0.000000	0.000000
43.022297	18.859736	14.013232	0.175718	-0.015694	2.813779	0.000000	-0.012186	0.000000	0.000017	-0.000001	0.000000	0.000000
43.502297	18.703641	14.044743	0.149481	-0.049955	2.807931	0.000000	-0.012186	0.000000	0.000016	-0.000001	0.000000	0.000000
43.982297	18.572733	14.109146	0.123244	-0.084217	2.802082	0.000000	-0.012186	0.000000	0.000016	-0.000001	0.000000	0.000000
44.462297	18.467013	14.206440	0.097007	-0.118479	2.796234	0.000000	-0.012186	0.000000	0.000015	-0.000001	0.000000	0.000000
44.942297	18.386480	14.336626	0.070770	-0.152741	2.790385	0.000000	-0.012186	0.000000	0.000014	-0.000001	0.000000	0.000000
45.423547	18.331250	14.499990	-0.046358	-0.115250	2.784539	0.000000	0.001610	0.000000	0.000014	-0.000001	0.000000	0.000000
45.720870	18.363650	14.574701	-0.110588	-0.097951	2.785018	0.000000	0.008886	0.000000	0.000013	-0.000001	0.000000	0.000000
46.269930	18.175894	14.964072	0.450522	-0.615395	2.767332	0.000000	-0.073215	0.000000	0.000012	-0.000002	0.000000	0.000000
46.818990	17.385879	15.942251	0.979809	-1.176673	2.704860	0.000000	-0.154017	0.000000	0.000011	-0.000002	0.000000	0.000000
47.368050	16.049409	17.578912	1.439887	-1.821763	2.598707	0.000000	-0.232088	0.000000	0.000010	-0.000002	0.000000	0.000000
47.917110	14.260884	19.990629	1.798259	-2.596612	2.450758	0.000000	-0.306042	0.000000	0.000009	-0.000003	0.000000	0.000000
48.363070	12.869174	22.134752	1.333504	-2.191057	2.329566	0.000000	-0.237757	0.000000	0.000007	-0.000003	0.000000	0.000000
48.804030	11.873317	23.851392	0.933444	-1.687088	2.239183	0.000000	-0.172577	0.000000	0.000006	-0.000002	0.000000	0.000000
49.244990	11.210215	25.087895	0.576030	-1.106358	2.177081	0.000000	-0.109362	0.000000	0.000005	-0.000002	0.000000	0.000000
49.685950	10.849571	25.788002	0.244934	-0.475289	2.142553	0.000000	-0.047393	0.000000	0.000004	-0.000002	0.000000	0.000000
50.128160	10.775029	25.919575	-0.048667	0.113796	2.135217	0.000000	0.008800	0.000000	0.000003	-0.000002	0.000000	0.000000
50.425482	10.812192	25.855361	-0.076326	0.102176	2.137834	0.000000	0.008800	0.000000	0.000003	-0.000002	0.000000	0.000000
50.758816	10.873413	25.791586	-0.107335	0.089149	2.140768	0.000000	0.008800	0.000000	0.000002	-0.000002	0.000000	0.000000
51.092149	10.955305	25.736495	-0.138344	0.076123	2.143702	0.000000	0.008800	0.000000	0.000001	-0.000002	0.000000	0.000000
51.426732	11.058070	25.690453	-0.079759	-0.145367	2.146626	0.000000	-0.008615	0.000000	0.000001	-0.000002	0.000000	0.000000
51.724055	11.113543	25.780408	-0.079564	-0.220406	2.144065	0.000000	-0.013873	0.000000	0.000000	-0.000002	0.000000	0.000000
52.165015	11.328855	25.687943	-0.410570	0.429298	2.151536	0.000000	0.047786	0.000000	-0.000001	-0.000002	0.000000	0.000000
52.605975	11.843225	25.028949	-0.760333	1.059469	2.186290	0.000000	0.109990	0.000000	-0.000002	-0.000002	0.000000	0.000000
53.046935	12.680152	23.833408	-1.144834	1.641436	2.248724	0.000000	0.173446	0.000000	-0.000002	-0.000002	0.000000	0.000000
53.487895	13.877874	22.155718	-1.581640	2.148718	2.339547	0.000000	0.238878	0.000000	-0.000003	-0.000002	0.000000	0.000000
53.933855	15.511646	20.047130	-2.094929	2.559574	2.461300	0.000000	0.307429	0.000000	-0.000004	-0.000002	0.000000	0.000000
54.482915	17.615154	17.674353	-1.713502	1.787461	2.609918	0.000000	0.233122	0.000000	-0.000006	-0.000002	0.000000	0.000000
55.031975	19.230466	16.074979	-1.211043	1.142665	2.716540	0.000000	0.154681	0.000000	-0.000007	-0.000002	0.000000	0.000000
55.581035	20.243485	15.135087	-0.623041	0.579259	2.779274	0.000000	0.073496	0.000000	-0.000008	-0.000002	0.000000	0.000000
56.130095	20.582655	14.787732	0.008968	0.057111	2.797009	0.000000	-0.008993	0.000000	-0.000009	-0.000001	0.000000	0.000000
56.428668	20.613755	14.736638	-0.059349	0.075376	2.796507	0.000000	-0.001684	0.000000	-0.000009	-0.000001	0.000000	0.000000
56.762001	20.658730	14.693970	-0.075577	0.052628	2.795946	0.000000	-0.001684	0.000000	-0.000010	-0.000001	0.000000	0.000000
57.095334	20.714524	14.666467	-0.091804	0.029880	2.795385	0.000000	-0.001684	0.000000	-0.000010	-0.000001	0.000000	0.000000
57.429918	20.781406	14.654111	-0.108092	0.007047	2.794822	0.000000	-0.001684	0.000000	-0.000010	-0.000001	0.000000	0.000000
57.727240	20.849986	14.655954	-0.177049	0.025053	2.794322	0.000000	0.005618	0.000000	-0.000011	-0.000001	0.000000	0.000000
58.276300	20.688750	14.909798	0.468969	-0.490108	2.774764	0.000000	-0.076754	0.000000	-0.000012	-0.000001	0.000000	0.000000
58.825360	19.832181	15.745086	1.081860	-1.040178	2.710287	0.000000	-0.157765	0.000000	-0.000012	-0.000001	0.000000	0.000000
59.374420	18.340783	17.221314	1.618335	-1.664338	2.602034	0.000000	-0.235978	0.000000	-0.000012	-0.000000	0.000000	0.000000
59.923480	16.319902	19.443629	2.040498	-2.407045	2.451925	0.000000	-0.310004	0.000000	-0.000012	0.000000	0.000000	0.000000
60.369440	14.738231	21.418784	1.518727	-2.003255	2.328968	0.000000	-0.241712	0.000000	-0.000013	-0.000000	0.000000	0.000000
60.810400	13.600783	22.973773	1.070540	-1.509697	2.236833	0.000000	-0.176570	0.000000	-0.000013	-0.000001	0.000000	0.000000
61.251360	12.835621	24.061415	0.671262	-0.947449	2.172953	0.000000	-0.113439	0.000000	-0.000013	-0.000001	0.000000	0.000000
61.692320	12.407787	24.632223	0.302652	-0.342093	2.136600	0.000000	-0.051600	0.000000	-0.000013	-0.000001	0.000000	0.000000
62.134530	12.297789	24.659681	-0.022070	0.218294	2.127366	0.000000	0.004433	0.000000	-0.000014	-0.000002	0.000000	0.000000
62.431853	12.318105	24.533629	-0.046259	0.205662	2.128684	0.000000	0.004433	0.000000	-0.000015	-0.000002	0.000000	0.000000
62.765186	12.357983	24.401242	-0.073377	0.191501	2.130163	0.000000	0.004433	0.000000	-0.000015	-0.000002	0.000000	0.000000
63.098520	12.415940	24.278295	-0.100495	0.177339	2.131641	0.000000	0.004433	0.000000	-0.000016	-0.000002	0.000000	0.000000
63.433103	12.492296	24.164381	-0.127715	0.163125	2.133125	0.000000	0.004433	0.000000	-0.000016	-0.000002	0.000000	0.000000
63.730426	12.575433	24.071136	-0.121060	0.091454	2.134444	0.000000	-0.000802	0.000000	-0.000017	-0.000002	0.000000	0.000000
64.171386	12.842392	23.725404	-0.486641	0.689606	2.147635	0.000000	0.060683	0.000000	-0.000017	-0.000002	0.000000	0.000000
64.612346	13.440312	22.864023	-0.874455	1.256382	2.188064	0.000000	0.122859	0.000000	-0.000018	-0.000002	0.000000	0.000000
65.053306	14.396510	21.526185	-1.302220	1.765994	2.256194	0.000000	0.186434	0.000000	-0.000020	-0.000003	0.000000	0.000000
65.494266	15.754672	19.772761	-1.789479	2.195255	2.352798	0.000000	0.252133	0.000000	-0.000021	-0.000003	0.000000	0.000000
65.940226	17.600012	17.658728	-2.363186	2.525382	2.480552	0.000000	0.321105	0.000000	-0.000023	-0.000004	0.000000	0.000000
66.489286	19.965751	15.293876	-1.920020	1.807135	2.636487	0.000000	0.246057	0.000000	-0.000025	-0.000003	0.000000	0.000000
67.038346	21.767037	13.642858	-1.341234	1.217605	2.749954	0.000000	0.166644	0.000000	-0.000026	-0.000002	0.000000	0.000000
67.587406	22.876635	12.588078	-0.667710	0.714802	2.818941	0.000000	0.084275	0.000000	-0.000027	-0.000002	0.000000	0.000000
68.136466	23.216170	12.054403	0.052977	0.262913	2.842225	0.000000	0.000411	0.000000	-0.000028	-0.000001	0.000000	0.000000
68.435038	23.224606	11.886630	-0.020558	0.267501	2.844565	0.000000	0.007839	0.000000	-0.000028	-0.000001	0.000000	0.000000
68.768372	23.243097	11.718312	-0.034916	0.237452	2.847179	0.000000	0.007839	0.000000	-0.000028	-0.000001	0.000000	0.000000
69.101705	23.271161	11.570028	-0.049275	0.207402	2.849792	0.000000	0.007839	0.000000	-0.000029	-0.000001	0.000000	0.000000
69.436288	23.308956	11.441333	-0.063687	0.177240	2.852415	0.000000	0.007839	0.000000	-0.000029	-0.000001	0.000000	0.000000
69.733611	23.350636	11.343907	-0.137521	0.180084	2.854746	0.000000	0.015300	0.000000	-0.000029	-0.000001	0.000000	0.000000
70.282671	23.100600	11.373412	0.590213	-0.234139	2.839952	0.000000	-0.069107	0.000000	-0.000029	0.000000	0.000000	0.000000
