#ParticleID	Turn	x[m]	xp	y[m]	yp	z[m]	dE[GeV]# s	beta_x	beta_y	alpha_x	alpha_y	D_x	D_y	D_px	D_py	orbit_x	orbit_px	orbit_y	orbit_py
0.300000	11.816934	25.006144	-0.011361	-0.027412	2.618048	0.000000	0.000038	0.000000	-0.000001	0.000001	0.000000	0.000000
0.601250	11.831460	25.026291	-0.036857	-0.039468	2.618059	0.000000	0.000038	0.000000	-0.000001	0.000001	0.000000	0.000000
0.898573	11.860859	25.053298	-0.032934	-0.112805	2.618071	0.000000	-0.006382	0.000000	-0.000001	0.000001	0.000000	0.000000
1.339533	12.042071	24.874881	-0.379574	0.515876	2.631549	0.000000	0.067574	0.000000	-0.000000	0.000001	0.000000	0.000000
1.780493	12.535455	24.150289	-0.743556	1.121085	2.677778	0.000000	0.142300	0.000000	0.000000	0.000001	0.000000	0.000000
2.221453	13.363551	22.912491	-1.141508	1.675286	2.757284	0.000000	0.218647	0.000000	0.000001	0.000001	0.000000	0.000000
2.662413	14.564193	21.217806	-1.591613	2.153262	2.870971	0.000000	0.297484	0.000000	0.000001	0.000001	0.000000	0.000000
3.108373	16.212991	19.118486	-2.118725	2.534399	3.021998	0.000000	0.380199	0.000000	0.000001	0.000001	0.000000	0.000000
3.657433	18.327288	16.760658	-1.709237	1.785247	3.205478	0.000000	0.287160	0.000000	0.000002	0.000001	0.000000	0.000000
4.206493	19.922557	15.151255	-1.179017	1.163253	3.336398	0.000000	0.189028	0.000000	0.000003	0.000001	0.000000	0.000000
4.755553	20.886116	14.175642	-0.565517	0.624115	3.412437	0.000000	0.087544	0.000000	0.000003	0.000001	0.000000	0.000000
5.304613	21.149903	13.764327	0.087928	0.129432	3.432245	0.000000	-0.015494	0.000000	0.000003	0.000001	0.000000	0.000000
5.603185	21.134614	13.672216	0.018536	0.143109	3.430296	0.000000	-0.006526	0.000000	0.000004	0.000001	0.000000	0.000000
5.936519	21.127516	13.585103	0.002759	0.118230	3.428121	0.000000	-0.006526	0.000000	0.000004	0.000001	0.000000	0.000000
6.269852	21.130935	13.514576	-0.013018	0.093350	3.425945	0.000000	-0.006526	0.000000	0.000004	0.000001	0.000000	0.000000
6.604435	21.144945	13.460465	-0.028855	0.068377	3.423761	0.000000	-0.006526	0.000000	0.000004	0.000001	0.000000	0.000000
6.901758	21.166288	13.426403	-0.098229	0.081265	3.421821	0.000000	0.002414	0.000000	0.000004	0.000001	0.000000	0.000000
7.450818	20.913407	13.597927	0.556075	-0.395504	3.394943	0.000000	-0.100171	0.000000	0.000005	0.000001	0.000000	0.000000
7.999878	19.959437	14.305304	1.171100	-0.900443	3.312146	0.000000	-0.200980	0.000000	0.000005	0.000000	0.000000	0.000000
8.548938	18.371763	15.598919	1.703405	-1.469519	3.174898	0.000000	-0.298223	0.000000	0.000005	0.000000	0.000000	0.000000
9.097998	16.262530	17.570915	2.115390	-2.143265	2.985632	0.000000	-0.390177	0.000000	0.000005	0.000000	0.000000	0.000000
9.543958	14.616925	19.328072	1.587757	-1.780249	2.829937	0.000000	-0.308467	0.000000	0.000005	0.000000	0.000000	0.000000
9.984918	13.419977	20.708111	1.136955	-1.337465	2.711162	0.000000	-0.230753	0.000000	0.000005	0.000000	0.000000	0.000000
10.425878	12.596279	21.669222	0.738097	-0.833828	2.626045	0.000000	-0.155668	0.000000	0.000006	0.000000	0.000000	0.000000
10.866838	12.108199	22.167675	0.372960	-0.292252	2.573615	0.000000	-0.082355	0.000000	0.000006	0.000001	0.000000	0.000000
11.309048	11.933303	22.180271	0.054020	0.208171	2.553256	0.000000	-0.016242	0.000000	0.000006	0.000001	0.000000	0.000000
11.606371	11.908610	22.060641	0.029032	0.194185	2.548427	0.000000	-0.016242	0.000000	0.000006	0.000001	0.000000	0.000000
12.086371	11.900102	21.885061	-0.011309	0.171606	2.540630	0.000000	-0.016242	0.000000	0.000007	0.000001	0.000000	0.000000
12.566371	11.930322	21.731157	-0.051650	0.149028	2.532833	0.000000	-0.016242	0.000000	0.000007	0.000001	0.000000	0.000000
13.046371	11.999269	21.598928	-0.091991	0.126449	2.525037	0.000000	-0.016242	0.000000	0.000008	0.000001	0.000000	0.000000
13.526371	12.106944	21.488375	-0.132331	0.103870	2.517240	0.000000	-0.016242	0.000000	0.000008	0.000001	0.000000	0.000000
14.007621	12.253778	21.399294	-0.172777	0.081233	2.509423	0.000000	-0.016242	0.000000	0.000008	0.000001	0.000000	0.000000
14.304943	12.363948	21.355147	-0.167448	0.014883	2.504594	0.000000	-0.022384	0.000000	0.000009	0.000001	0.000000	0.000000
14.745903	12.670194	21.108284	-0.529684	0.542819	2.510357	0.000000	0.048548	0.000000	0.000009	0.000001	0.000000	0.000000
15.186863	13.305326	20.404976	-0.916120	1.046058	2.547490	0.000000	0.120032	0.000000	0.000009	0.000001	0.000000	0.000000
15.627823	14.298363	19.277225	-1.344410	1.501701	2.616415	0.000000	0.192884	0.000000	0.000010	0.000001	0.000000	0.000000
16.068783	15.694672	17.776341	-1.834123	1.889019	2.717919	0.000000	0.267932	0.000000	0.000011	0.000002	0.000000	0.000000
16.514743	17.581703	15.949111	-2.412389	2.191133	2.854851	0.000000	0.346494	0.000000	0.000011	0.000002	0.000000	0.000000
17.063803	20.005283	13.908811	-1.975533	1.546789	3.021362	0.000000	0.259147	0.000000	0.000012	0.000002	0.000000	0.000000
17.612863	21.869213	12.511789	-1.399135	1.012618	3.138580	0.000000	0.167202	0.000000	0.000013	0.000001	0.000000	0.000000
18.161923	23.041835	11.658538	-0.723910	0.550575	3.204424	0.000000	0.072292	0.000000	0.000014	0.000001	0.000000	0.000000
18.710983	23.440319	11.288284	0.002450	0.127747	3.217729	0.000000	-0.023900	0.000000	0.000014	0.000000	0.000000	0.000000
19.009556	23.479240	11.202483	-0.071570	0.130134	3.213103	0.000000	-0.015494	0.000000	0.000014	0.000000	0.000000	0.000000
19.342889	23.531710	11.125813	-0.085840	0.099875	3.207938	0.000000	-0.015494	0.000000	0.000014	0.000000	0.000000	0.000000
19.676223	23.593693	11.069316	-0.100109	0.069616	3.202773	0.000000	-0.015494	0.000000	0.000014	0.000000	0.000000	0.000000
20.010806	23.665768	11.032757	-0.231686	0.093906	3.197609	0.000000	0.000349	0.000000	0.000015	0.000000	0.000000	0.000000
20.308129	23.807475	10.985000	-0.307120	0.095418	3.197713	0.000000	0.008703	0.000000	0.000015	0.000000	0.000000	0.000000
20.857189	23.734112	11.102445	0.439945	-0.310584	3.176266	0.000000	-0.086709	0.000000	0.000015	-0.000000	0.000000	0.000000
21.406249	22.852660	11.675189	1.155935	-0.738708	3.102779	0.000000	-0.180583	0.000000	0.000015	-0.000000	0.000000	0.000000
21.955309	21.225380	12.744025	1.790275	-1.219448	2.978553	0.000000	-0.271254	0.000000	0.000014	-0.000001	0.000000	0.000000
22.504369	18.967216	14.385084	2.298160	-1.787047	2.805794	0.000000	-0.357113	0.000000	0.000014	-0.000001	0.000000	0.000000
22.950329	17.187594	15.858428	1.706469	-1.502772	2.663833	0.000000	-0.279889	0.000000	0.000013	-0.000001	0.000000	0.000000
23.391289	15.911926	17.033095	1.197438	-1.150977	2.556739	0.000000	-0.206307	0.000000	0.000013	-0.000001	0.000000	0.000000
23.832249	15.059454	17.873141	0.743115	-0.746813	2.481543	0.000000	-0.135074	0.000000	0.000012	-0.000000	0.000000	0.000000
24.273209	14.591229	18.340345	0.322742	-0.308670	2.437389	0.000000	-0.065381	0.000000	0.000012	-0.000000	0.000000	0.000000
24.715418	14.485980	18.413204	-0.047452	0.098299	2.423771	0.000000	-0.002375	0.000000	0.000012	0.000000	0.000000	0.000000
25.012741	14.520313	18.359598	-0.068023	0.081995	2.423065	0.000000	-0.002375	0.000000	0.000012	0.000000	0.000000	0.000000
25.346075	14.573349	18.311027	-0.091085	0.063717	2.422273	0.000000	-0.002375	0.000000	0.000012	0.000000	0.000000	0.000000
25.679408	14.641760	18.274642	-0.114148	0.045439	2.421482	0.000000	-0.002375	0.000000	0.000012	0.000000	0.000000	0.000000
26.013991	14.725591	18.250744	-0.017833	-0.120966	2.420662	0.000000	-0.022013	0.000000	0.000013	0.000000	0.000000	0.000000
26.311314	14.742200	18.327590	-0.001883	-0.182435	2.414118	0.000000	-0.027932	0.000000	0.000013	0.000000	0.000000	0.000000
26.752274	14.925496	18.289708	-0.415367	0.268015	2.416914	0.000000	0.040629	0.000000	0.000013	0.000000	0.000000	0.000000
27.193234	15.480410	17.858446	-0.847829	0.706270	2.450017	0.000000	0.109652	0.000000	0.000013	0.000001	0.000000	0.000000
27.634194	16.432295	17.053426	-1.319025	1.112391	2.513801	0.000000	0.179925	0.000000	0.000013	0.000001	0.000000	0.000000
28.075154	17.824640	15.911275	-1.850484	1.467899	2.608995	0.000000	0.252246	0.000000	0.000014	0.000001	0.000000	0.000000
28.521114	19.745247	14.466756	-2.471451	1.757530	2.738286	0.000000	0.327884	0.000000	0.000015	0.000002	0.000000	0.000000
29.070174	22.186354	12.857255	-1.948204	1.191148	2.895643	0.000000	0.244462	0.000000	0.000015	0.000001	0.000000	0.000000
29.619234	23.973444	11.819749	-1.287345	0.709608	3.005937	0.000000	0.156703	0.000000	0.000016	0.000001	0.000000	0.000000
30.168294	24.980286	11.280341	-0.535554	0.278613	3.067211	0.000000	0.066165	0.000000	0.000016	0.000000	0.000000	0.000000
30.717354	25.135761	11.200608	0.254065	-0.132538	3.078378	0.000000	-0.025547	0.000000	0.000016	-0.000000	0.000000	0.000000
31.015927	25.026932	11.270323	0.176099	-0.130218	3.073152	0.000000	-0.017505	0.000000	0.000016	-0.000000	0.000000	0.000000
31.349260	24.914110	11.367161	0.162367	-0.160296	3.067317	0.000000	-0.017505	0.000000	0.000016	-0.000000	0.000000	0.000000
31.682593	24.810443	11.484050	0.148635	-0.190373	3.061482	0.000000	-0.017505	0.000000	0.000016	-0.000000	0.000000	0.000000
32.017177	24.715593	11.621543	0.134851	-0.220564	3.055625	0.000000	-0.017505	0.000000	0.000016	-0.000000	0.000000	0.000000
32.314499	24.639046	11.760677	0.058234	-0.216668	3.050420	0.000000	-0.009536	0.000000	0.000016	-0.000000	0.000000	0.000000
32.863559	24.152962	12.237837	0.821827	-0.657511	3.020296	0.000000	-0.100035	0.000000	0.000016	-0.000001	0.000000	0.000000
33.412619	22.855430	13.221818	1.527370	-1.145187	2.940897	0.000000	-0.188759	0.000000	0.000015	-0.000001	0.000000	0.000000
33.961679	20.838103	14.782707	2.125027	-1.714432	2.813632	0.000000	-0.274136	0.000000	0.000014	-0.000002	0.000000	0.000000
34.510739	18.243473	17.031682	2.572582	-2.405792	2.640758	0.000000	-0.354650	0.000000	0.000013	-0.000002	0.000000	0.000000
34.956699	16.226061	19.043298	1.967376	-2.086127	2.498944	0.000000	-0.281704	0.000000	0.000012	-0.000002	0.000000	0.000000
35.397659	14.721725	20.706941	1.457066	-1.672291	2.390109	0.000000	-0.212396	0.000000	0.000012	-0.000001	0.000000	0.000000
35.838619	13.636498	21.970540	1.013325	-1.182367	2.311275	0.000000	-0.145506	0.000000	0.000011	-0.000001	0.000000	0.000000
36.279579	12.920799	22.776602	0.615880	-0.638647	2.261543	0.000000	-0.080274	0.000000	0.000011	-0.000001	0.000000	0.000000
36.721789	12.541236	23.088758	0.277219	-0.122537	2.240320	0.000000	-0.021449	0.000000	0.000010	-0.000001	0.000000	0.000000
37.019112	12.383979	23.165510	0.251689	-0.135608	2.233943	0.000000	-0.021449	0.000000	0.000010	-0.000001	0.000000	0.000000
37.352445	12.225727	23.260800	0.223068	-0.150262	2.226794	0.000000	-0.021449	0.000000	0.000010	-0.000001	0.000000	0.000000
37.685779	12.086555	23.365859	0.194446	-0.164915	2.219644	0.000000	-0.021449	0.000000	0.000010	-0.000001	0.000000	0.000000
38.020362	11.966051	23.481136	0.165717	-0.179624	2.212468	0.000000	-0.021449	0.000000	0.000009	-0.000001	0.000000	0.000000
38.317684	11.875098	23.591835	0.169306	-0.250544	2.206091	0.000000	-0.026858	0.000000	0.000009	-0.000001	0.000000	0.000000
38.758644	11.877191	23.551490	-0.174071	0.341690	2.208178	0.000000	0.036330	0.000000	0.000009	-0.000000	0.000000	0.000000
39.199604	12.184464	22.993727	-0.525401	0.918379	2.238193	0.000000	0.099933	0.000000	0.000009	-0.000000	0.000000	0.000000
39.640564	12.810957	21.943925	-0.900735	1.453281	2.296478	0.000000	0.164674	0.000000	0.000009	0.000000	0.000000	0.000000
40.081524	13.785290	20.449849	-1.317221	1.922061	2.383697	0.000000	0.231290	0.000000	0.000009	0.000000	0.000000	0.000000
40.527484	15.169554	18.556907	-1.797714	2.304670	2.502315	0.000000	0.300946	0.000000	0.000009	0.000000	0.000000	0.000000
41.076544	16.936072	16.429732	-1.400591	1.592410	2.647019	0.000000	0.225374	0.000000	0.000009	0.000000	0.000000	0.000000
41.625604	18.209263	15.018204	-0.904537	0.993573	2.749069	0.000000	0.145805	0.000000	0.000009	-0.000000	0.000000	0.000000
42.174664	18.899193	14.221782	-0.344591	0.465507	2.806655	0.000000	0.063649	0.000000	0.000009	-0.000000	0.000000	0.000000
42.723724	18.957131	13.983740	0.239694	-0.029403	2.818756	0.000000	-0.019636	0.000000	0.000009	-0.000001	0.000000	0.000000
43.022297	18.848446	13.985857	0.173847	-0.014221	2.815092	0.000000	-0.012271	0.000000	0.000009	-0.000001	0.000000	0.000000
43.502297	18.694146	14.015986	0.147611	-0.048548	2.809202	0.000000	-0.012271	0.000000	0.000008	-0.000001	0.000000	0.000000
43.982297	18.565033	14.079069	0.121375	-0.082875	2.803312	0.000000	-0.012271	0.000000	0.000008	-0.000001	0.000000	0.000000
44.462297	18.461106	14.175106	0.095139	-0.117203	2.797422	0.000000	-0.012271	0.000000	0.000008	-0.000001	0.000000	0.000000
44.942297	18.382365	14.304098	0.068903	-0.151530	2.791532	0.000000	-0.012271	0.000000	0.000007	-0.000001	0.000000	0.000000
45.423547	18.328932	14.466329	-0.048213	-0.114272	2.785644	0.000000	0.001530	0.000000	0.000007	-0.000001	0.000000	0.000000
45.720870	18.362435	14.540471	-0.112447	-0.097103	2.786099	0.000000	0.008809	0.000000	0.000007	-0.000001	0.000000	0.000000
46.269930	18.176726	14.928337	0.448676	-0.613485	2.768362	0.000000	-0.073326	0.000000	0.000006	-0.000001	0.000000	0.000000
46.818990	17.388672	15.903777	0.978106	-1.173564	2.705819	0.000000	-0.154160	0.000000	0.000006	-0.000001	0.000000	0.000000
47.368050	16.053938	17.536269	1.438447	-1.817234	2.599579	0.000000	-0.232261	0.000000	0.000005	-0.000001	0.000000	0.000000
47.917110	14.266802	19.942091	1.797184	-2.590341	2.451527	0.000000	-0.306241	0.000000	0.000004	-0.000001	0.000000	0.000000
48.363070	12.876048	22.081087	1.332427	-2.185881	2.330249	0.000000	-0.237937	0.000000	0.000004	-0.000001	0.000000	0.000000
48.804030	11.881163	23.793732	0.932314	-1.683239	2.239789	0.000000	-0.172741	0.000000	0.000003	-0.000001	0.000000	0.000000
49.244990	11.219099	25.027492	0.574795	-1.104010	2.177618	0.000000	-0.109512	0.000000	0.000003	-0.000001	0.000000	0.000000
49.685950	10.859611	25.726233	0.243537	-0.474550	2.143027	0.000000	-0.047530	0.000000	0.000002	-0.000001	0.000000	0.000000
50.128160	10.786400	25.857880	-0.050260	0.113043	2.135633	0.000000	0.008674	0.000000	0.000002	-0.000001	0.000000	0.000000
50.425482	10.824503	25.794122	-0.077894	0.101397	2.138212	0.000000	0.008674	0.000000	0.000002	-0.000001	0.000000	0.000000
50.758816	10.886759	25.730876	-0.108875	0.088342	2.141104	0.000000	0.008674	0.000000	0.000001	-0.000001	0.000000	0.000000
51.092149	10.969669	25.676333	-0.139856	0.075286	2.143996	0.000000	0.008674	0.000000	0.000001	-0.000001	0.000000	0.000000
51.426732	11.073436	25.630859	-0.081119	-0.145749	2.146877	0.000000	-0.008743	0.000000	0.000001	-0.000001	0.000000	0.000000
51.724055	11.129709	25.721050	-0.080852	-0.220671	2.144277	0.000000	-0.014001	0.000000	0.000000	-0.000001	0.000000	0.000000
52.165015	11.346328	25.629511	-0.412258	0.427471	2.151692	0.000000	0.047663	0.000000	-0.000000	-0.000001	0.000000	0.000000
52.605975	11.862391	24.972789	-0.762498	1.056163	2.186393	0.000000	0.109870	0.000000	-0.000000	-0.000001	0.000000	0.000000
53.046935	12.701473	23.780764	-1.147575	1.636800	2.248773	0.000000	0.173328	0.000000	-0.000001	-0.000001	0.000000	0.000000
53.487895	13.901910	22.107673	-1.585081	2.142965	2.339544	0.000000	0.238760	0.000000	-0.000001	-0.000001	0.000000	0.000000
53.933855	15.539126	20.004622	-2.099235	2.552963	2.461244	0.000000	0.307310	0.000000	-0.000002	-0.000001	0.000000	0.000000
54.482915	17.646986	17.638164	-1.717075	1.782495	2.609797	0.000000	0.233007	0.000000	-0.000002	-0.000001	0.000000	0.000000
55.031975	19.265701	16.043507	-1.213630	1.138990	2.716355	0.000000	0.154570	0.000000	-0.000003	-0.000001	0.000000	0.000000
55.581035	20.280933	15.107065	-0.624460	0.576614	2.779031	0.000000	0.073392	0.000000	-0.000003	-0.000001	0.000000	0.000000
56.130095	20.620969	14.762138	0.008819	0.055308	2.796711	0.000000	-0.009088	0.000000	-0.000004	-0.000001	0.000000	0.000000
56.428668	20.652210	14.712170	-0.059570	0.073476	2.796179	0.000000	-0.001780	0.000000	-0.000004	-0.000001	0.000000	0.000000
56.762001	20.697323	14.670779	-0.075768	0.050697	2.795586	0.000000	-0.001780	0.000000	-0.000004	-0.000001	0.000000	0.000000
57.095334	20.753234	14.644574	-0.091966	0.027917	2.794993	0.000000	-0.001780	0.000000	-0.000005	-0.000001	0.000000	0.000000
57.429918	20.820214	14.633543	-0.108224	0.005053	2.794398	0.000000	-0.001780	0.000000	-0.000005	-0.000001	0.000000	0.000000
57.727240	20.888864	14.636580	-0.177253	0.022978	2.793868	0.000000	0.005520	0.000000	-0.000005	-0.000001	0.000000	0.000000
58.276300	20.727137	14.892410	0.470063	-0.491671	2.774261	0.000000	-0.076837	0.000000	-0.000005	-0.000001	0.000000	0.000000
58.825360	19.868685	15.729186	1.084176	-1.041341	2.709743	0.000000	-0.157830	0.000000	-0.000006	-0.000000	0.000000	0.000000
59.374420	18.374145	17.206510	1.621708	-1.665184	2.601459	0.000000	-0.236025	0.000000	-0.000006	-0.000000	0.000000	0.000000
59.923480	16.349085	19.429609	2.044691	-2.407633	2.451329	0.000000	-0.310032	0.000000	-0.000006	-0.000000	0.000000	0.000000
60.369440	14.764081	21.405525	1.522036	-2.004368	2.328356	0.000000	-0.241756	0.000000	-0.000006	-0.000000	0.000000	0.000000
60.810400	13.624044	22.961708	1.073124	-1.511280	2.236198	0.000000	-0.176630	0.000000	-0.000006	-0.000000	0.000000	0.000000
61.251360	12.856878	24.050927	0.673239	-0.949430	2.172288	0.000000	-0.113516	0.000000	-0.000006	-0.000000	0.000000	0.000000
61.692320	12.427534	24.623626	0.304113	-0.344382	2.135897	0.000000	-0.051694	0.000000	-0.000006	-0.000001	0.000000	0.000000
62.134530	12.316447	24.653206	-0.021015	0.215821	2.126617	0.000000	0.004323	0.000000	-0.000007	-0.000001	0.000000	0.000000
62.431853	12.336124	24.528622	-0.045166	0.203199	2.127902	0.000000	0.004323	0.000000	-0.000007	-0.000001	0.000000	0.000000
62.765186	12.375260	24.397872	-0.072242	0.189049	2.129344	0.000000	0.004323	0.000000	-0.000007	-0.000001	0.000000	0.000000
63.098520	12.432447	24.276557	-0.099318	0.174898	2.130785	0.000000	0.004323	0.000000	-0.000007	-0.000001	0.000000	0.000000
63.433103	12.508000	24.164273	-0.126495	0.160694	2.132231	0.000000	0.004323	0.000000	-0.000008	-0.000001	0.000000	0.000000
63.730426	12.590401	24.072470	-0.119769	0.089035	2.133517	0.000000	-0.000910	0.000000	-0.000008	-0.000001	0.000000	0.000000
64.171386	12.856359	23.728836	-0.485655	0.687286	2.146654	0.000000	0.060551	0.000000	-0.000008	-0.000001	0.000000	0.000000
64.612346	13.453528	22.869420	-0.873730	1.254266	2.187020	0.000000	0.122700	0.000000	-0.000009	-0.000001	0.000000	0.000000
65.053306	14.409190	21.533323	-1.301723	1.764178	2.255072	0.000000	0.186248	0.000000	-0.000009	-0.000001	0.000000	0.000000
65.494266	15.767007	19.781337	-1.789188	2.193821	2.351588	0.000000	0.251917	0.000000	-0.000010	-0.000002	0.000000	0.000000
65.940226	17.612175	17.668384	-2.363088	2.524401	2.479237	0.000000	0.320856	0.000000	-0.000011	-0.000002	0.000000	0.000000
66.489286	19.977509	15.304639	-1.919382	1.806086	2.635045	0.000000	0.245852	0.000000	-0.000012	-0.000002	0.000000	0.000000
67.038346	21.777818	13.654844	-1.340101	1.216414	2.748412	0.000000	0.166487	0.000000	-0.000013	-0.000001	0.000000	0.000000
67.587406	22.885935	12.601487	-0.666162	0.713385	2.817327	0.000000	0.084169	0.000000	-0.000013	-0.000001	0.000000	0.000000
68.136466	23.223591	12.069539	0.054832	0.261168	2.840567	0.000000	0.000359	0.000000	-0.000013	-0.000000	0.000000	0.000000
68.435038	23.230926	11.902769	-0.018711	0.265850	2.842891	0.000000	0.007781	0.000000	-0.000013	-0.000000	0.000000	0.000000
68.768372	23.248184	11.735530	-0.033065	0.235866	2.845485	0.000000	0.007781	0.000000	-0.000014	-0.000000	0.000000	0.000000
69.101705	23.275012	11.588281	-0.047418	0.205882	2.848078	0.000000	0.007781	0.000000	-0.000014	-0.000000	0.000000	0.000000
69.436288	23.311563	11.460581	-0.061826	0.175786	2.850682	0.000000	0.007781	0.000000	-0.000014	-0.000000	0.000000	0.000000
69.733611	23.352134	11.364003	-0.135651	0.178736	2.852996	0.000000	0.015237	0.000000	-0.000014	-0.000000	0.000000	0.000000
70.282671	23.100036	11.395302	0.592078	-0.236077	2.838183	0.000000	-0.069113	0.000000	-0.000014	0.000000	0.000000	0.000000
