#ParticleID	Turn	x[m]	xp	y[m]	yp	z[m]	dE[GeV]# s	beta_x	beta_y	alpha_x	alpha_y	D_x	D_y	D_px	D_py	orbit_x	orbit_px	orbit_y	orbit_py
0.300000	11.813610	25.019822	-0.010980	-0.027278	2.618051	0.000000	0.000036	0.000000	-0.000001	0.000001	0.000000	0.000000
0.601250	11.827908	25.039887	-0.036483	-0.039327	2.618062	0.000000	0.000036	0.000000	-0.000000	0.000001	0.000000	0.000000
0.898573	11.857087	25.066809	-0.032577	-0.112690	2.618072	0.000000	-0.006384	0.000000	0.000000	0.000001	0.000000	0.000000
1.339533	12.037943	24.888133	-0.379122	0.516345	2.631549	0.000000	0.067572	0.000000	0.000001	0.000001	0.000000	0.000000
1.780493	12.530879	24.162978	-0.742987	1.121888	2.677777	0.000000	0.142298	0.000000	0.000001	0.000001	0.000000	0.000000
2.221453	13.358413	22.924338	-1.140798	1.676385	2.757282	0.000000	0.218645	0.000000	0.000002	0.000001	0.000000	0.000000
2.662413	14.558355	21.228571	-1.590728	2.154608	2.870968	0.000000	0.297482	0.000000	0.000002	0.000001	0.000000	0.000000
3.108373	16.206271	19.127962	-2.117624	2.535931	3.021994	0.000000	0.380196	0.000000	0.000003	0.000001	0.000000	0.000000
3.657433	18.319448	16.768667	-1.708310	1.786405	3.205472	0.000000	0.287158	0.000000	0.000004	0.000001	0.000000	0.000000
4.206493	19.913825	15.158157	-1.178329	1.164121	3.336391	0.000000	0.189026	0.000000	0.000004	0.000001	0.000000	0.000000
4.755553	20.876783	14.181722	-0.565117	0.624754	3.412428	0.000000	0.087542	0.000000	0.000005	0.000001	0.000000	0.000000
5.304613	21.140302	13.769810	0.088012	0.129887	3.432236	0.000000	-0.015495	0.000000	0.000005	0.000001	0.000000	0.000000
5.603185	21.124950	13.677417	0.018640	0.143584	3.430287	0.000000	-0.006528	0.000000	0.000006	0.000001	0.000000	0.000000
5.936519	21.117785	13.589986	0.002855	0.118710	3.428110	0.000000	-0.006528	0.000000	0.000006	0.000001	0.000000	0.000000
6.269852	21.121143	13.519137	-0.012929	0.093837	3.425934	0.000000	-0.006528	0.000000	0.000006	0.000001	0.000000	0.000000
6.604435	21.135096	13.464698	-0.028773	0.068870	3.423749	0.000000	-0.006528	0.000000	0.000006	0.000001	0.000000	0.000000
6.901758	21.156392	13.430342	-0.098127	0.081773	3.421808	0.000000	0.002412	0.000000	0.000007	0.000001	0.000000	0.000000
7.450818	20.903581	13.601367	0.555845	-0.395097	3.394930	0.000000	-0.100173	0.000000	0.000007	0.000001	0.000000	0.000000
7.999878	19.950039	14.308340	1.170555	-0.900109	3.312132	0.000000	-0.200981	0.000000	0.000007	0.000000	0.000000	0.000000
8.548938	18.363119	15.601618	1.702583	-1.469234	3.174883	0.000000	-0.298224	0.000000	0.000008	0.000000	0.000000	0.000000
9.097998	16.254915	17.573318	2.114349	-2.143009	2.985618	0.000000	-0.390177	0.000000	0.000008	-0.000000	0.000000	0.000000
9.543958	14.610134	19.330200	1.586942	-1.779890	2.829922	0.000000	-0.308467	0.000000	0.000008	0.000000	0.000000	0.000000
9.984918	13.413820	20.709883	1.136327	-1.337020	2.711147	0.000000	-0.230754	0.000000	0.000008	0.000000	0.000000	0.000000
10.425878	12.590604	21.670571	0.737627	-0.833317	2.626029	0.000000	-0.155669	0.000000	0.000008	0.000001	0.000000	0.000000
10.866838	12.102877	22.168554	0.372627	-0.291699	2.573599	0.000000	-0.082357	0.000000	0.000008	0.000001	0.000000	0.000000
11.309048	11.928221	22.180651	0.053796	0.208741	2.553239	0.000000	-0.016244	0.000000	0.000009	0.000001	0.000000	0.000000
11.606371	11.903664	22.060683	0.028798	0.194753	2.548409	0.000000	-0.016244	0.000000	0.000009	0.000001	0.000000	0.000000
12.086371	11.895389	21.884560	-0.011560	0.172169	2.540611	0.000000	-0.016244	0.000000	0.000009	0.000001	0.000000	0.000000
12.566371	11.925858	21.730118	-0.051917	0.149586	2.532814	0.000000	-0.016244	0.000000	0.000010	0.000001	0.000000	0.000000
13.046371	11.995070	21.597356	-0.092274	0.127002	2.525016	0.000000	-0.016244	0.000000	0.000010	0.000001	0.000000	0.000000
13.526371	12.103024	21.486274	-0.132631	0.104419	2.517218	0.000000	-0.016244	0.000000	0.000011	0.000001	0.000000	0.000000
14.007621	12.250154	21.396667	-0.173093	0.081777	2.509401	0.000000	-0.016244	0.000000	0.000011	0.000001	0.000000	0.000000
14.304943	12.360515	21.352198	-0.167783	0.015432	2.504571	0.000000	-0.022385	0.000000	0.000011	0.000001	0.000000	0.000000
14.745903	12.667026	21.104888	-0.529952	0.543277	2.510333	0.000000	0.048546	0.000000	0.000012	0.000001	0.000000	0.000000
15.186863	13.302369	20.401225	-0.916332	1.046403	2.547464	0.000000	0.120029	0.000000	0.000012	0.000001	0.000000	0.000000
15.627823	14.295573	19.273225	-1.344578	1.501919	2.616388	0.000000	0.192880	0.000000	0.000013	0.000002	0.000000	0.000000
16.068783	15.692013	17.772209	-1.834253	1.889099	2.717890	0.000000	0.267928	0.000000	0.000014	0.000002	0.000000	0.000000
16.514743	17.579145	15.944972	-2.412487	2.191070	2.854820	0.000000	0.346489	0.000000	0.000015	0.000003	0.000000	0.000000
17.063803	20.002902	13.904691	-1.975755	1.546816	3.021328	0.000000	0.259143	0.000000	0.000016	0.000002	0.000000	0.000000
17.612863	21.867137	12.507589	-1.399465	1.012737	3.138543	0.000000	0.167199	0.000000	0.000017	0.000001	0.000000	0.000000
18.161923	23.040169	11.654154	-0.724324	0.550794	3.204387	0.000000	0.072290	0.000000	0.000018	0.000001	0.000000	0.000000
18.710983	23.439141	11.283597	0.001980	0.128083	3.217690	0.000000	-0.023901	0.000000	0.000018	0.000000	0.000000	0.000000
19.009556	23.478340	11.197608	-0.072035	0.130442	3.213064	0.000000	-0.015495	0.000000	0.000018	0.000000	0.000000	0.000000
19.342889	23.531120	11.120738	-0.086307	0.100167	3.207899	0.000000	-0.015495	0.000000	0.000018	0.000000	0.000000	0.000000
19.676223	23.593415	11.064051	-0.100578	0.069893	3.202734	0.000000	-0.015495	0.000000	0.000019	0.000000	0.000000	0.000000
20.010806	23.665804	11.027312	-0.232156	0.094141	3.197569	0.000000	0.000348	0.000000	0.000019	0.000000	0.000000	0.000000
20.308129	23.807791	10.979419	-0.307592	0.095622	3.197672	0.000000	0.008702	0.000000	0.000019	0.000001	0.000000	0.000000
20.857189	23.734938	11.096554	0.439494	-0.310218	3.176225	0.000000	-0.086709	0.000000	0.000019	-0.000000	0.000000	0.000000
21.406249	22.853955	11.668796	1.155536	-0.738155	3.102738	0.000000	-0.180582	0.000000	0.000019	-0.000001	0.000000	0.000000
21.955309	21.227071	12.736905	1.789957	-1.218668	2.978514	0.000000	-0.271251	0.000000	0.000018	-0.000001	0.000000	0.000000
22.504369	18.969200	14.376959	2.297945	-1.785985	2.805757	0.000000	-0.357109	0.000000	0.000017	-0.000002	0.000000	0.000000
22.950329	17.189777	15.849437	1.706236	-1.501900	2.663797	0.000000	-0.279886	0.000000	0.000017	-0.000001	0.000000	0.000000
23.391289	15.914326	17.023435	1.197176	-1.150335	2.556704	0.000000	-0.206305	0.000000	0.000016	-0.000001	0.000000	0.000000
23.832249	15.062102	17.863027	0.742812	-0.746430	2.481509	0.000000	-0.135074	0.000000	0.000016	-0.000001	0.000000	0.000000
24.273209	14.594167	18.330014	0.322386	-0.308563	2.437355	0.000000	-0.065381	0.000000	0.000016	-0.000000	0.000000	0.000000
24.715418	14.489263	18.402903	-0.047872	0.098151	2.423737	0.000000	-0.002375	0.000000	0.000016	0.000000	0.000000	0.000000
25.012741	14.523846	18.349388	-0.068440	0.081839	2.423030	0.000000	-0.002375	0.000000	0.000016	0.000000	0.000000	0.000000
25.346075	14.577158	18.300924	-0.091498	0.063551	2.422239	0.000000	-0.002375	0.000000	0.000016	0.000000	0.000000	0.000000
25.679408	14.645843	18.264653	-0.114556	0.045264	2.421447	0.000000	-0.002375	0.000000	0.000016	0.000000	0.000000	0.000000
26.013991	14.729945	18.240875	-0.018202	-0.121071	2.420628	0.000000	-0.022013	0.000000	0.000016	0.000000	0.000000	0.000000
26.311314	14.746772	18.317787	-0.002235	-0.182524	2.414083	0.000000	-0.027932	0.000000	0.000016	0.000000	0.000000	0.000000
26.752274	14.930429	18.280101	-0.415838	0.267662	2.416879	0.000000	0.040628	0.000000	0.000016	0.000000	0.000000	0.000000
27.193234	15.485817	17.849261	-0.848438	0.705670	2.449981	0.000000	0.109650	0.000000	0.000016	0.000001	0.000000	0.000000
27.634194	16.438311	17.044870	-1.319802	1.111570	2.513764	0.000000	0.179922	0.000000	0.000017	0.000001	0.000000	0.000000
28.075154	17.831428	15.903527	-1.851463	1.466894	2.608957	0.000000	0.252243	0.000000	0.000017	0.000002	0.000000	0.000000
28.521114	19.753016	14.459970	-2.472680	1.756388	2.738246	0.000000	0.327880	0.000000	0.000018	0.000002	0.000000	0.000000
29.070174	22.195369	12.851573	-1.949231	1.190267	2.895600	0.000000	0.244458	0.000000	0.000019	0.000002	0.000000	0.000000
29.619234	23.983442	11.814921	-1.288097	0.708926	3.005892	0.000000	0.156701	0.000000	0.000020	0.000001	0.000000	0.000000
30.168294	24.990934	11.276175	-0.535979	0.278080	3.067165	0.000000	0.066164	0.000000	0.000020	0.000000	0.000000	0.000000
30.717354	25.146681	11.196963	0.253998	-0.132959	3.078333	0.000000	-0.025546	0.000000	0.000020	-0.000000	0.000000	0.000000
31.015927	25.037906	11.266939	0.176011	-0.130660	3.073106	0.000000	-0.017504	0.000000	0.000020	-0.000000	0.000000	0.000000
31.349260	24.925140	11.364076	0.162285	-0.160751	3.067272	0.000000	-0.017504	0.000000	0.000020	-0.000000	0.000000	0.000000
31.682593	24.821525	11.481273	0.148560	-0.190841	3.061437	0.000000	-0.017504	0.000000	0.000020	-0.000000	0.000000	0.000000
32.017177	24.726724	11.619082	0.134783	-0.221044	3.055580	0.000000	-0.017504	0.000000	0.000020	-0.000000	0.000000	0.000000
32.314499	24.650216	11.758505	0.058144	-0.217165	3.050376	0.000000	-0.009536	0.000000	0.000020	-0.000000	0.000000	0.000000
32.863559	24.164026	12.236190	0.822107	-0.657974	3.020252	0.000000	-0.100033	0.000000	0.000019	-0.000001	0.000000	0.000000
33.412619	22.865991	13.220677	1.528001	-1.145650	2.940855	0.000000	-0.188756	0.000000	0.000019	-0.000002	0.000000	0.000000
33.961679	20.847797	14.782088	2.125964	-1.714927	2.813592	0.000000	-0.274131	0.000000	0.000018	-0.000002	0.000000	0.000000
34.510739	18.251999	17.031641	2.573760	-2.406354	2.640721	0.000000	-0.354644	0.000000	0.000016	-0.000003	0.000000	0.000000
34.956699	16.233654	19.043787	1.968296	-2.086749	2.498910	0.000000	-0.281700	0.000000	0.000015	-0.000002	0.000000	0.000000
35.397659	14.728604	20.707993	1.457773	-1.672942	2.390077	0.000000	-0.212392	0.000000	0.000014	-0.000002	0.000000	0.000000
35.838619	13.642835	21.972168	1.013851	-1.183019	2.311244	0.000000	-0.145503	0.000000	0.000013	-0.000002	0.000000	0.000000
36.279579	12.926742	22.778794	0.616249	-0.639268	2.261513	0.000000	-0.080271	0.000000	0.000013	-0.000001	0.000000	0.000000
36.721789	12.546915	23.091476	0.277462	-0.123106	2.240291	0.000000	-0.021447	0.000000	0.000012	-0.000001	0.000000	0.000000
37.019112	12.389512	23.168567	0.251940	-0.136177	2.233914	0.000000	-0.021447	0.000000	0.000012	-0.000001	0.000000	0.000000
37.352445	12.231089	23.264236	0.223328	-0.150831	2.226766	0.000000	-0.021447	0.000000	0.000012	-0.000001	0.000000	0.000000
37.685779	12.091741	23.369675	0.194716	-0.165486	2.219617	0.000000	-0.021447	0.000000	0.000012	-0.000001	0.000000	0.000000
38.020362	11.971053	23.485334	0.165996	-0.180195	2.212441	0.000000	-0.021447	0.000000	0.000011	-0.000001	0.000000	0.000000
38.317684	11.879932	23.596372	0.169605	-0.251125	2.206065	0.000000	-0.026857	0.000000	0.000011	-0.000001	0.000000	0.000000
38.758644	11.881809	23.556484	-0.173879	0.341238	2.208152	0.000000	0.036332	0.000000	0.000011	-0.000001	0.000000	0.000000
39.199604	12.188957	22.999057	-0.525307	0.918075	2.238167	0.000000	0.099933	0.000000	0.000010	-0.000000	0.000000	0.000000
39.640564	12.815408	21.949452	-0.900735	1.453140	2.296453	0.000000	0.164674	0.000000	0.000010	-0.000000	0.000000	0.000000
40.081524	13.789783	20.455425	-1.317315	1.922088	2.383671	0.000000	0.231289	0.000000	0.000010	0.000000	0.000000	0.000000
40.527484	15.174174	18.562383	-1.797907	2.304867	2.502289	0.000000	0.300944	0.000000	0.000011	0.000000	0.000000	0.000000
41.076544	16.940809	16.435072	-1.400608	1.592464	2.646992	0.000000	0.225373	0.000000	0.000011	0.000000	0.000000	0.000000
41.625604	18.213921	15.023561	-0.904377	0.993488	2.749042	0.000000	0.145805	0.000000	0.000011	-0.000000	0.000000	0.000000
42.174664	18.903583	14.227312	-0.344266	0.465276	2.806629	0.000000	0.063650	0.000000	0.000010	-0.000001	0.000000	0.000000
42.723724	18.961082	13.989609	0.240163	-0.029795	2.818730	0.000000	-0.019634	0.000000	0.000010	-0.000001	0.000000	0.000000
43.022297	18.852123	13.991949	0.174306	-0.014589	2.815067	0.000000	-0.012270	0.000000	0.000010	-0.000001	0.000000	0.000000
43.502297	18.697382	14.022425	0.148072	-0.048902	2.809178	0.000000	-0.012270	0.000000	0.000009	-0.000001	0.000000	0.000000
43.982297	18.567826	14.085840	0.121837	-0.083215	2.803289	0.000000	-0.012270	0.000000	0.000009	-0.000001	0.000000	0.000000
44.462297	18.463456	14.182197	0.095602	-0.117527	2.797400	0.000000	-0.012270	0.000000	0.000008	-0.000001	0.000000	0.000000
44.942297	18.384271	14.311493	0.069367	-0.151840	2.791511	0.000000	-0.012270	0.000000	0.000008	-0.000001	0.000000	0.000000
45.423547	18.330391	14.474016	-0.047755	-0.114529	2.785624	0.000000	0.001532	0.000000	0.000008	-0.000001	0.000000	0.000000
45.720870	18.363622	14.548308	-0.111990	-0.097331	2.786080	0.000000	0.008811	0.000000	0.000007	-0.000001	0.000000	0.000000
46.269930	18.177393	14.936556	0.449159	-0.613957	2.768343	0.000000	-0.073324	0.000000	0.000007	-0.000001	0.000000	0.000000
46.818990	17.388810	15.912663	0.978582	-1.174315	2.705801	0.000000	-0.154158	0.000000	0.000006	-0.000001	0.000000	0.000000
47.368050	16.053572	17.546155	1.438882	-1.818316	2.599563	0.000000	-0.232257	0.000000	0.000005	-0.000001	0.000000	0.000000
47.917110	14.265996	19.953382	1.797547	-2.591832	2.451513	0.000000	-0.306237	0.000000	0.000005	-0.000002	0.000000	0.000000
48.363070	12.874928	22.093601	1.332771	-2.187120	2.330237	0.000000	-0.237934	0.000000	0.000004	-0.000002	0.000000	0.000000
48.804030	11.879741	23.807206	0.932655	-1.684171	2.239779	0.000000	-0.172738	0.000000	0.000003	-0.000001	0.000000	0.000000
49.244990	11.217373	25.041637	0.575149	-1.104592	2.177609	0.000000	-0.109509	0.000000	0.000003	-0.000001	0.000000	0.000000
49.685950	10.857561	25.740726	0.243920	-0.474756	2.143019	0.000000	-0.047527	0.000000	0.000002	-0.000001	0.000000	0.000000
50.128160	10.783992	25.872384	-0.049837	0.113186	2.135627	0.000000	0.008676	0.000000	0.000002	-0.000001	0.000000	0.000000
50.425482	10.821845	25.808539	-0.077476	0.101547	2.138207	0.000000	0.008676	0.000000	0.000001	-0.000001	0.000000	0.000000
50.758816	10.883824	25.745191	-0.108463	0.088499	2.141099	0.000000	0.008676	0.000000	0.000001	-0.000001	0.000000	0.000000
51.092149	10.966462	25.690541	-0.139450	0.075450	2.143992	0.000000	0.008676	0.000000	0.000000	-0.000001	0.000000	0.000000
51.426732	11.069959	25.644955	-0.080746	-0.145692	2.146874	0.000000	-0.008740	0.000000	-0.000000	-0.000001	0.000000	0.000000
51.724055	11.126012	25.735111	-0.080495	-0.220643	2.144275	0.000000	-0.013999	0.000000	-0.000000	-0.000001	0.000000	0.000000
52.165015	11.342277	25.643383	-0.411807	0.427869	2.151692	0.000000	0.047665	0.000000	-0.000001	-0.000001	0.000000	0.000000
52.605975	11.857893	24.986152	-0.761934	1.056914	2.186393	0.000000	0.109872	0.000000	-0.000002	-0.000001	0.000000	0.000000
53.046935	12.696419	23.793321	-1.146871	1.637870	2.248774	0.000000	0.173330	0.000000	-0.000002	-0.000001	0.000000	0.000000
53.487895	13.896162	22.119163	-1.584205	2.144304	2.339547	0.000000	0.238762	0.000000	-0.000003	-0.000001	0.000000	0.000000
53.933855	15.532505	20.014820	-2.098146	2.554511	2.461248	0.000000	0.307313	0.000000	-0.000003	-0.000001	0.000000	0.000000
54.482915	17.639256	17.646885	-1.716157	1.783653	2.609802	0.000000	0.233009	0.000000	-0.000004	-0.000001	0.000000	0.000000
55.031975	19.257087	16.051131	-1.212948	1.139840	2.716362	0.000000	0.154572	0.000000	-0.000005	-0.000001	0.000000	0.000000
55.581035	20.271722	15.113897	-0.624062	0.577216	2.779039	0.000000	0.073394	0.000000	-0.000005	-0.000001	0.000000	0.000000
56.130095	20.611491	14.768425	0.008905	0.055705	2.796720	0.000000	-0.009086	0.000000	-0.000006	-0.000001	0.000000	0.000000
56.428668	20.642668	14.718208	-0.059467	0.073897	2.796189	0.000000	-0.001778	0.000000	-0.000006	-0.000001	0.000000	0.000000
56.762001	20.687714	14.676533	-0.075672	0.051126	2.795597	0.000000	-0.001778	0.000000	-0.000006	-0.000001	0.000000	0.000000
57.095334	20.743564	14.650040	-0.091877	0.028355	2.795004	0.000000	-0.001778	0.000000	-0.000007	-0.000001	0.000000	0.000000
57.429918	20.810487	14.638713	-0.108143	0.005498	2.794409	0.000000	-0.001778	0.000000	-0.000007	-0.000001	0.000000	0.000000
57.727240	20.879091	14.641483	-0.177153	0.023444	2.793881	0.000000	0.005522	0.000000	-0.000007	-0.000001	0.000000	0.000000
58.276300	20.717435	14.896876	0.469835	-0.491337	2.774275	0.000000	-0.076835	0.000000	-0.000008	-0.000001	0.000000	0.000000
58.825360	19.859407	15.733346	1.083636	-1.041114	2.709758	0.000000	-0.157829	0.000000	-0.000008	-0.000000	0.000000	0.000000
59.374420	18.365615	17.210473	1.620895	-1.665048	2.601474	0.000000	-0.236024	0.000000	-0.000008	-0.000000	0.000000	0.000000
59.923480	16.341572	19.433468	2.043661	-2.407580	2.451344	0.000000	-0.310032	0.000000	-0.000008	0.000000	0.000000	0.000000
60.369440	14.757384	21.409277	1.521230	-2.004180	2.328371	0.000000	-0.241755	0.000000	-0.000008	-0.000000	0.000000	0.000000
60.810400	13.617974	22.965237	1.072502	-1.510966	2.236213	0.000000	-0.176629	0.000000	-0.000008	-0.000000	0.000000	0.000000
61.251360	12.851287	24.054129	0.672773	-0.949005	2.172304	0.000000	-0.113514	0.000000	-0.000008	-0.000000	0.000000	0.000000
61.692320	12.422292	24.626410	0.303782	-0.343865	2.135914	0.000000	-0.051693	0.000000	-0.000009	-0.000001	0.000000	0.000000
62.134530	12.311445	24.655501	-0.021238	0.216400	2.126634	0.000000	0.004325	0.000000	-0.000009	-0.000001	0.000000	0.000000
62.431853	12.331258	24.530574	-0.045399	0.203776	2.127921	0.000000	0.004325	0.000000	-0.000009	-0.000001	0.000000	0.000000
62.765186	12.370553	24.399441	-0.072487	0.189623	2.129363	0.000000	0.004325	0.000000	-0.000010	-0.000001	0.000000	0.000000
63.098520	12.427907	24.277743	-0.099574	0.175470	2.130804	0.000000	0.004325	0.000000	-0.000010	-0.000001	0.000000	0.000000
63.433103	12.503635	24.165077	-0.126763	0.161265	2.132252	0.000000	0.004325	0.000000	-0.000010	-0.000001	0.000000	0.000000
63.730426	12.586198	24.072935	-0.120056	0.089601	2.133538	0.000000	-0.000908	0.000000	-0.000011	-0.000001	0.000000	0.000000
64.171386	12.852370	23.728801	-0.485854	0.687849	2.146676	0.000000	0.060553	0.000000	-0.000011	-0.000001	0.000000	0.000000
64.612346	13.449678	22.868898	-0.873850	1.254801	2.187043	0.000000	0.122703	0.000000	-0.000012	-0.000001	0.000000	0.000000
65.053306	14.405413	21.532350	-1.301769	1.764661	2.255097	0.000000	0.186251	0.000000	-0.000012	-0.000002	0.000000	0.000000
65.494266	15.763238	19.779970	-1.789162	2.194230	2.351614	0.000000	0.251921	0.000000	-0.000013	-0.000002	0.000000	0.000000
65.940226	17.608350	17.666693	-2.362988	2.524716	2.479266	0.000000	0.320861	0.000000	-0.000014	-0.000002	0.000000	0.000000
66.489286	19.973659	15.302609	-1.919438	1.806395	2.635077	0.000000	0.245856	0.000000	-0.000015	-0.000002	0.000000	0.000000
67.038346	21.774112	13.652468	-1.340308	1.216739	2.748446	0.000000	0.166490	0.000000	-0.000016	-0.000001	0.000000	0.000000
67.587406	22.882535	12.598734	-0.666506	0.713749	2.817363	0.000000	0.084171	0.000000	-0.000017	-0.000001	0.000000	0.000000
68.136466	23.220633	12.066353	0.054375	0.261598	2.840603	0.000000	0.000359	0.000000	-0.000017	-0.000000	0.000000	0.000000
68.435038	23.228237	11.899334	-0.019164	0.266259	2.842927	0.000000	0.007782	0.000000	-0.000017	-0.000000	0.000000	0.000000
68.768372	23.245798	11.731828	-0.033519	0.236261	2.845521	0.000000	0.007782	0.000000	-0.000018	-0.000000	0.000000	0.000000
69.101705	23.272929	11.584320	-0.047875	0.206262	2.848116	0.000000	0.007782	0.000000	-0.000018	-0.000000	0.000000	0.000000
69.436288	23.309787	11.456371	-0.062285	0.176151	2.850720	0.000000	0.007782	0.000000	-0.000018	-0.000000	0.000000	0.000000
69.733611	23.350631	11.359580	-0.136109	0.179078	2.853034	0.000000	0.015238	0.000000	-0.000018	-0.000000	0.000000	0.000000
70.282671	23.099060	11.390435	0.591583	-0.235605	2.838221	0.000000	-0.069113	0.000000	-0.000018	0.000000	0.000000	0.000000
