#ParticleID	Turn	x[m]	xp	y[m]	yp	z[m]	dE[GeV]# s	beta_x	beta_y	alpha_x	alpha_y	D_x	D_y	D_px	D_py	orbit_x	orbit_px	orbit_y	orbit_py
0.300000	11.804634	25.055053	-0.010133	-0.026846	2.618244	0.000000	-0.000036	0.000000	-0.000002	0.000002	0.000000	0.000000
0.601250	11.818428	25.074852	-0.035656	-0.038878	2.618233	0.000000	-0.000036	0.000000	-0.000002	0.000002	0.000000	0.000000
0.898573	11.847120	25.101501	-0.031792	-0.112310	2.618222	0.000000	-0.006457	0.000000	-0.000001	0.000002	0.000000	0.000000
1.339533	12.027179	24.922086	-0.378090	0.517635	2.631667	0.000000	0.067503	0.000000	-0.000000	0.000002	0.000000	0.000000
1.780493	12.519078	24.195414	-0.741661	1.124027	2.677865	0.000000	0.142231	0.000000	0.000000	0.000002	0.000000	0.000000
2.221453	13.345291	22.954546	-1.139116	1.679277	2.757340	0.000000	0.218580	0.000000	0.000001	0.000002	0.000000	0.000000
2.662413	14.543565	21.255943	-1.588614	2.158122	2.870998	0.000000	0.297418	0.000000	0.000002	0.000002	0.000000	0.000000
3.108373	16.189366	19.151981	-2.114977	2.539907	3.021995	0.000000	0.380133	0.000000	0.000003	0.000002	0.000000	0.000000
3.657433	18.299868	16.788867	-1.706113	1.789424	3.205438	0.000000	0.287095	0.000000	0.000004	0.000002	0.000000	0.000000
4.206493	19.892153	15.175466	-1.176738	1.166398	3.336322	0.000000	0.188965	0.000000	0.000005	0.000002	0.000000	0.000000
4.755553	20.853749	14.196861	-0.564244	0.626452	3.412326	0.000000	0.087483	0.000000	0.000006	0.000001	0.000000	0.000000
5.304613	21.116734	13.783345	0.088106	0.131127	3.432103	0.000000	-0.015550	0.000000	0.000006	0.000001	0.000000	0.000000
5.603185	21.101294	13.690188	0.018780	0.144871	3.430137	0.000000	-0.006583	0.000000	0.000007	0.000001	0.000000	0.000000
5.936519	21.094041	13.601894	0.002978	0.120012	3.427942	0.000000	-0.006583	0.000000	0.000007	0.000001	0.000000	0.000000
6.269852	21.097323	13.530173	-0.012825	0.095152	3.425747	0.000000	-0.006583	0.000000	0.000008	0.000001	0.000000	0.000000
6.604435	21.111212	13.474849	-0.028686	0.070200	3.423544	0.000000	-0.006583	0.000000	0.000008	0.000001	0.000000	0.000000
6.901758	21.132461	13.439698	-0.097993	0.083139	3.421586	0.000000	0.002356	0.000000	0.000009	0.000001	0.000000	0.000000
7.450818	20.879943	13.609360	0.555181	-0.393968	3.394679	0.000000	-0.100221	0.000000	0.000009	0.000001	0.000000	0.000000
7.999878	19.927550	14.315186	1.169140	-0.899136	3.311856	0.000000	-0.201021	0.000000	0.000010	0.000001	0.000000	0.000000
8.548938	18.342554	15.607449	1.700516	-1.468348	3.174588	0.000000	-0.298254	0.000000	0.000010	0.000000	0.000000	0.000000
9.097998	16.236912	17.578195	2.111776	-2.142147	2.985308	0.000000	-0.390198	0.000000	0.000010	0.000000	0.000000	0.000000
9.543958	14.594176	19.334199	1.584914	-1.778789	2.829601	0.000000	-0.308496	0.000000	0.000010	0.000000	0.000000	0.000000
9.984918	13.399447	20.712826	1.134746	-1.335734	2.710812	0.000000	-0.230791	0.000000	0.000010	0.000001	0.000000	0.000000
10.425878	12.577456	21.672319	0.736421	-0.831904	2.625676	0.000000	-0.155715	0.000000	0.000011	0.000001	0.000000	0.000000
10.866838	12.090647	22.169022	0.371741	-0.290223	2.573223	0.000000	-0.082413	0.000000	0.000011	0.000001	0.000000	0.000000
11.309048	11.916648	22.179810	0.053160	0.210217	2.552835	0.000000	-0.016308	0.000000	0.000012	0.000001	0.000000	0.000000
11.606371	11.892476	22.058967	0.028140	0.196220	2.547986	0.000000	-0.016308	0.000000	0.000012	0.000001	0.000000	0.000000
12.086371	11.884851	21.881443	-0.012254	0.173622	2.540157	0.000000	-0.016308	0.000000	0.000013	0.000001	0.000000	0.000000
12.566371	11.916003	21.725613	-0.052648	0.151024	2.532328	0.000000	-0.016308	0.000000	0.000014	0.000001	0.000000	0.000000
13.046371	11.985934	21.591476	-0.093041	0.128427	2.524500	0.000000	-0.016308	0.000000	0.000014	0.000001	0.000000	0.000000
13.526371	12.094642	21.479033	-0.133435	0.105829	2.516671	0.000000	-0.016308	0.000000	0.000015	0.000001	0.000000	0.000000
14.007621	12.242563	21.388076	-0.173934	0.083173	2.508822	0.000000	-0.016308	0.000000	0.000016	0.000001	0.000000	0.000000
14.304943	12.353431	21.342780	-0.168665	0.016845	2.503972	0.000000	-0.022448	0.000000	0.000016	0.000001	0.000000	0.000000
14.745903	12.660659	21.094345	-0.530701	0.544406	2.509703	0.000000	0.048467	0.000000	0.000017	0.000002	0.000000	0.000000
15.186863	13.296618	20.389831	-0.916984	1.047196	2.546796	0.000000	0.119934	0.000000	0.000018	0.000002	0.000000	0.000000
15.627823	14.290364	19.261293	-1.345161	1.502341	2.615674	0.000000	0.192767	0.000000	0.000019	0.000003	0.000000	0.000000
16.068783	15.687299	17.760077	-1.834795	1.889129	2.717121	0.000000	0.267796	0.000000	0.000020	0.000003	0.000000	0.000000
16.514743	17.574906	15.932989	-2.413014	2.190706	2.853987	0.000000	0.346336	0.000000	0.000022	0.000004	0.000000	0.000000
17.063803	19.999381	13.892951	-1.976527	1.546733	3.020418	0.000000	0.259018	0.000000	0.000024	0.000003	0.000000	0.000000
17.612863	21.864576	12.495789	-1.400429	1.012931	3.137573	0.000000	0.167105	0.000000	0.000025	0.000002	0.000000	0.000000
18.161923	23.038740	11.641985	-0.725410	0.551277	3.203373	0.000000	0.072228	0.000000	0.000026	0.000001	0.000000	0.000000
18.710983	23.438939	11.270724	0.000847	0.128889	3.216651	0.000000	-0.023930	0.000000	0.000027	0.000001	0.000000	0.000000
19.009556	23.478812	11.184286	-0.073166	0.131175	3.212015	0.000000	-0.015527	0.000000	0.000027	0.000001	0.000000	0.000000
19.342889	23.532347	11.106941	-0.087439	0.100859	3.206839	0.000000	-0.015527	0.000000	0.000027	0.000001	0.000000	0.000000
19.676223	23.595397	11.049807	-0.101712	0.070542	3.201664	0.000000	-0.015527	0.000000	0.000028	0.000001	0.000000	0.000000
20.010806	23.668546	11.012647	-0.233306	0.094676	3.196488	0.000000	0.000310	0.000000	0.000028	0.000001	0.000000	0.000000
20.308129	23.811218	10.964448	-0.308751	0.096077	3.196580	0.000000	0.008660	0.000000	0.000028	0.000001	0.000000	0.000000
20.857189	23.739569	11.080852	0.438473	-0.309333	3.175120	0.000000	-0.086715	0.000000	0.000028	-0.000000	0.000000	0.000000
21.406249	22.859598	11.651858	1.154725	-0.736776	3.101640	0.000000	-0.180551	0.000000	0.000028	-0.000001	0.000000	0.000000
21.955309	21.233462	12.718139	1.789414	-1.216698	2.977442	0.000000	-0.271186	0.000000	0.000027	-0.000002	0.000000	0.000000
22.504369	18.976023	14.355643	2.297707	-1.783283	2.804730	0.000000	-0.357010	0.000000	0.000026	-0.000003	0.000000	0.000000
22.950329	17.196857	15.825927	1.705893	-1.499706	2.662810	0.000000	-0.279813	0.000000	0.000025	-0.000002	0.000000	0.000000
23.391289	15.921760	16.998250	1.196713	-1.148746	2.555744	0.000000	-0.206257	0.000000	0.000024	-0.000001	0.000000	0.000000
23.832249	15.070004	17.836736	0.742208	-0.745519	2.480564	0.000000	-0.135050	0.000000	0.000024	-0.000001	0.000000	0.000000
24.273209	14.602675	18.303234	0.321612	-0.308371	2.436415	0.000000	-0.065381	0.000000	0.000023	-0.000000	0.000000	0.000000
24.715418	14.498543	18.376276	-0.048830	0.097684	2.422791	0.000000	-0.002397	0.000000	0.000023	0.000000	0.000000	0.000000
25.012741	14.533691	18.323045	-0.069386	0.081350	2.422078	0.000000	-0.002397	0.000000	0.000024	0.000000	0.000000	0.000000
25.346075	14.587630	18.274916	-0.092431	0.063037	2.421279	0.000000	-0.002397	0.000000	0.000024	0.000000	0.000000	0.000000
25.679408	14.656933	18.238995	-0.115477	0.044725	2.420480	0.000000	-0.002397	0.000000	0.000024	0.000000	0.000000	0.000000
26.013991	14.741647	18.215586	-0.019015	-0.121430	2.419653	0.000000	-0.022027	0.000000	0.000024	0.000000	0.000000	0.000000
26.311314	14.758953	18.292718	-0.003006	-0.182842	2.413104	0.000000	-0.027944	0.000000	0.000024	0.000000	0.000000	0.000000
26.752274	14.943423	18.255611	-0.416918	0.266671	2.415889	0.000000	0.040591	0.000000	0.000024	0.000001	0.000000	0.000000
27.193234	15.499918	17.825927	-0.849878	0.704050	2.448969	0.000000	0.109588	0.000000	0.000025	0.000001	0.000000	0.000000
27.634194	16.453864	17.023216	-1.321666	1.109395	2.512719	0.000000	0.179833	0.000000	0.000025	0.000002	0.000000	0.000000
28.075154	17.848843	15.884000	-1.853837	1.464264	2.607866	0.000000	0.252126	0.000000	0.000026	0.000003	0.000000	0.000000
28.521114	19.772819	14.442949	-2.475678	1.753421	2.737096	0.000000	0.327734	0.000000	0.000028	0.000003	0.000000	0.000000
29.070174	22.218193	12.837428	-1.951701	1.187965	2.894380	0.000000	0.244351	0.000000	0.000029	0.000002	0.000000	0.000000
29.619234	24.008608	11.803015	-1.289865	0.707125	3.004624	0.000000	0.156634	0.000000	0.000030	0.000001	0.000000	0.000000
30.168294	25.017596	11.266032	-0.536920	0.276652	3.065871	0.000000	0.066139	0.000000	0.000031	0.000000	0.000000	0.000000
30.717354	25.173888	11.188230	0.253951	-0.134115	3.077036	0.000000	-0.025530	0.000000	0.000031	-0.000001	0.000000	0.000000
31.015927	25.065176	11.258920	0.175913	-0.131870	3.071814	0.000000	-0.017492	0.000000	0.000031	-0.000000	0.000000	0.000000
31.349260	24.952471	11.356873	0.162203	-0.161991	3.065983	0.000000	-0.017492	0.000000	0.000031	-0.000000	0.000000	0.000000
31.682593	24.848906	11.474908	0.148492	-0.192112	3.060152	0.000000	-0.017492	0.000000	0.000031	-0.000000	0.000000	0.000000
32.017177	24.754144	11.613579	0.134731	-0.222346	3.054300	0.000000	-0.017492	0.000000	0.000030	-0.000000	0.000000	0.000000
32.314499	24.677663	11.753784	0.058040	-0.218510	3.049099	0.000000	-0.009527	0.000000	0.000030	-0.000000	0.000000	0.000000
32.863559	24.191088	12.232905	0.822910	-0.659261	3.018991	0.000000	-0.099984	0.000000	0.000030	-0.000001	0.000000	0.000000
33.412619	22.891697	13.218814	1.529653	-1.146969	2.939632	0.000000	-0.188667	0.000000	0.000029	-0.000002	0.000000	0.000000
33.961679	20.871273	14.781736	2.128349	-1.716373	2.812430	0.000000	-0.274003	0.000000	0.000027	-0.000003	0.000000	0.000000
34.510739	18.272528	17.032994	2.576709	-2.408031	2.639640	0.000000	-0.354480	0.000000	0.000025	-0.000004	0.000000	0.000000
34.956699	16.251843	19.046696	1.970614	-2.088547	2.497896	0.000000	-0.281562	0.000000	0.000024	-0.000003	0.000000	0.000000
35.397659	14.744985	20.712512	1.459570	-1.674779	2.389119	0.000000	-0.212280	0.000000	0.000022	-0.000003	0.000000	0.000000
35.838619	13.657829	21.978293	1.015210	-1.184810	2.310330	0.000000	-0.145415	0.000000	0.000021	-0.000002	0.000000	0.000000
36.279579	12.940708	22.786447	0.617232	-0.640932	2.260633	0.000000	-0.080207	0.000000	0.000020	-0.000002	0.000000	0.000000
36.721789	12.560161	23.100517	0.278144	-0.124586	2.239435	0.000000	-0.021402	0.000000	0.000020	-0.000001	0.000000	0.000000
37.019112	12.402347	23.178487	0.252640	-0.137656	2.233072	0.000000	-0.021402	0.000000	0.000019	-0.000001	0.000000	0.000000
37.352445	12.243451	23.275142	0.224048	-0.152310	2.225938	0.000000	-0.021402	0.000000	0.000019	-0.000001	0.000000	0.000000
37.685779	12.103616	23.381567	0.195456	-0.166964	2.218805	0.000000	-0.021402	0.000000	0.000018	-0.000001	0.000000	0.000000
38.020362	11.982426	23.498215	0.166757	-0.181672	2.211644	0.000000	-0.021402	0.000000	0.000018	-0.000001	0.000000	0.000000
38.317684	11.890847	23.610131	0.170409	-0.252633	2.205281	0.000000	-0.026809	0.000000	0.000018	-0.000001	0.000000	0.000000
38.758644	11.892124	23.571408	-0.173316	0.340116	2.207385	0.000000	0.036359	0.000000	0.000017	-0.000001	0.000000	0.000000
39.199604	12.198872	23.014780	-0.524959	0.917389	2.237408	0.000000	0.099941	0.000000	0.000017	-0.000000	0.000000	0.000000
39.640564	12.825104	21.965575	-0.900586	1.452922	2.295692	0.000000	0.164661	0.000000	0.000017	0.000000	0.000000	0.000000
40.081524	13.799433	20.471530	-1.317358	1.922348	2.382901	0.000000	0.231257	0.000000	0.000017	0.000000	0.000000	0.000000
40.527484	15.183949	18.578045	-1.798144	2.305595	2.501500	0.000000	0.300892	0.000000	0.000017	0.000001	0.000000	0.000000
41.076544	16.950632	16.450171	-1.400458	1.592766	2.646182	0.000000	0.225347	0.000000	0.000018	0.000000	0.000000	0.000000
41.625604	18.223370	15.038551	-0.903850	0.993385	2.748224	0.000000	0.145805	0.000000	0.000018	-0.000000	0.000000	0.000000
42.174664	18.912261	14.242639	-0.343398	0.464761	2.805818	0.000000	0.063676	0.000000	0.000017	-0.000001	0.000000	0.000000
42.723724	18.968648	14.005743	0.241309	-0.030758	2.817942	0.000000	-0.019581	0.000000	0.000017	-0.000001	0.000000	0.000000
43.022297	18.859015	14.008627	0.175436	-0.015487	2.814294	0.000000	-0.012220	0.000000	0.000016	-0.000001	0.000000	0.000000
43.502297	18.703189	14.039945	0.149200	-0.049760	2.808429	0.000000	-0.012220	0.000000	0.000016	-0.000001	0.000000	0.000000
43.982297	18.572550	14.104166	0.122965	-0.084033	2.802564	0.000000	-0.012220	0.000000	0.000015	-0.000001	0.000000	0.000000
44.462297	18.467097	14.201289	0.096729	-0.118306	2.796699	0.000000	-0.012220	0.000000	0.000014	-0.000001	0.000000	0.000000
44.942297	18.386830	14.331313	0.070494	-0.152579	2.790834	0.000000	-0.012220	0.000000	0.000014	-0.000001	0.000000	0.000000
45.423547	18.331865	14.494527	-0.046636	-0.115126	2.784972	0.000000	0.001579	0.000000	0.000013	-0.000001	0.000000	0.000000
45.720870	18.364429	14.569166	-0.110868	-0.097848	2.785441	0.000000	0.008856	0.000000	0.000013	-0.000001	0.000000	0.000000
46.269930	18.176963	14.958333	0.450276	-0.615122	2.767735	0.000000	-0.073259	0.000000	0.000012	-0.000002	0.000000	0.000000
46.818990	17.387191	15.936111	0.979615	-1.176210	2.705235	0.000000	-0.154074	0.000000	0.000011	-0.000002	0.000000	0.000000
47.368050	16.050899	17.572145	1.439759	-1.821077	2.599048	0.000000	-0.232156	0.000000	0.000010	-0.000002	0.000000	0.000000
47.917110	14.262475	19.982966	1.798205	-2.595656	2.451059	0.000000	-0.306120	0.000000	0.000009	-0.000003	0.000000	0.000000
48.363070	12.870822	22.126311	1.333428	-2.190276	2.329833	0.000000	-0.237828	0.000000	0.000007	-0.000002	0.000000	0.000000
48.804030	11.875044	23.842353	0.933343	-1.686518	2.239420	0.000000	-0.172641	0.000000	0.000006	-0.000002	0.000000	0.000000
49.244990	11.212043	25.078456	0.575899	-1.106025	2.177290	0.000000	-0.109421	0.000000	0.000005	-0.000002	0.000000	0.000000
49.685950	10.851530	25.778380	0.244766	-0.475208	2.142738	0.000000	-0.047447	0.000000	0.000005	-0.000002	0.000000	0.000000
50.128160	10.777156	25.909993	-0.048872	0.113645	2.135379	0.000000	0.008750	0.000000	0.000004	-0.000002	0.000000	0.000000
50.425482	10.814439	25.845871	-0.076526	0.102022	2.137981	0.000000	0.008750	0.000000	0.000003	-0.000002	0.000000	0.000000
50.758816	10.875792	25.782200	-0.107530	0.088991	2.140899	0.000000	0.008750	0.000000	0.000003	-0.000002	0.000000	0.000000
51.092149	10.957813	25.727217	-0.138533	0.075959	2.143816	0.000000	0.008750	0.000000	0.000002	-0.000002	0.000000	0.000000
51.426732	11.060703	25.681285	-0.079922	-0.145460	2.146722	0.000000	-0.008665	0.000000	0.000001	-0.000002	0.000000	0.000000
51.724055	11.116271	25.771297	-0.079714	-0.220481	2.144147	0.000000	-0.013923	0.000000	0.000001	-0.000002	0.000000	0.000000
52.165015	11.331744	25.679004	-0.410785	0.428983	2.151596	0.000000	0.047737	0.000000	-0.000000	-0.000002	0.000000	0.000000
52.605975	11.846336	25.020388	-0.760624	1.058930	2.186329	0.000000	0.109942	0.000000	-0.000001	-0.000002	0.000000	0.000000
53.046935	12.683559	23.825414	-1.145214	1.640696	2.248741	0.000000	0.173399	0.000000	-0.000002	-0.000002	0.000000	0.000000
53.487895	13.881661	22.148452	-1.582126	2.147811	2.339544	0.000000	0.238831	0.000000	-0.000003	-0.000002	0.000000	0.000000
53.933855	15.515922	20.040733	-2.095544	2.558542	2.461276	0.000000	0.307382	0.000000	-0.000004	-0.000002	0.000000	0.000000
54.482915	17.620044	17.668945	-1.713997	1.786681	2.609868	0.000000	0.233076	0.000000	-0.000005	-0.000002	0.000000	0.000000
55.031975	19.235817	16.070316	-1.211382	1.142080	2.716465	0.000000	0.154637	0.000000	-0.000006	-0.000002	0.000000	0.000000
55.581035	20.249111	15.130979	-0.623202	0.578828	2.779176	0.000000	0.073455	0.000000	-0.000007	-0.000002	0.000000	0.000000
56.130095	20.588353	14.784026	0.008999	0.056804	2.796889	0.000000	-0.009030	0.000000	-0.000007	-0.000001	0.000000	0.000000
56.428668	20.619443	14.733122	-0.059329	0.075055	2.796376	0.000000	-0.001722	0.000000	-0.000008	-0.000001	0.000000	0.000000
56.762001	20.664404	14.690669	-0.075552	0.052303	2.795802	0.000000	-0.001722	0.000000	-0.000008	-0.000001	0.000000	0.000000
57.095334	20.720179	14.663385	-0.091775	0.029551	2.795228	0.000000	-0.001722	0.000000	-0.000009	-0.000001	0.000000	0.000000
57.429918	20.787041	14.651251	-0.108059	0.006714	2.794653	0.000000	-0.001722	0.000000	-0.000009	-0.000001	0.000000	0.000000
57.727240	20.855600	14.653293	-0.177025	0.024708	2.794141	0.000000	0.005579	0.000000	-0.000009	-0.000001	0.000000	0.000000
58.276300	20.694235	14.907477	0.469178	-0.490385	2.774564	0.000000	-0.076787	0.000000	-0.000010	-0.000001	0.000000	0.000000
58.825360	19.837340	15.743040	1.082241	-1.040406	2.710071	0.000000	-0.157791	0.000000	-0.000011	-0.000001	0.000000	0.000000
59.374420	18.345442	17.219500	1.618860	-1.664534	2.601806	0.000000	-0.235996	0.000000	-0.000011	-0.000000	0.000000	0.000000
59.923480	16.323921	19.442019	2.041131	-2.407223	2.451688	0.000000	-0.310015	0.000000	-0.000011	-0.000000	0.000000	0.000000
60.369440	14.741744	21.417365	1.519233	-2.003503	2.328725	0.000000	-0.241729	0.000000	-0.000011	-0.000000	0.000000	0.000000
60.810400	13.603897	22.972598	1.070943	-1.510002	2.236581	0.000000	-0.176594	0.000000	-0.000011	-0.000001	0.000000	0.000000
61.251360	12.838417	24.060529	0.671582	-0.947798	2.172689	0.000000	-0.113469	0.000000	-0.000012	-0.000001	0.000000	0.000000
61.692320	12.410332	24.631659	0.302903	-0.342470	2.136322	0.000000	-0.051637	0.000000	-0.000012	-0.000001	0.000000	0.000000
62.134530	12.300139	24.659457	-0.021872	0.217907	2.127070	0.000000	0.004390	0.000000	-0.000013	-0.000001	0.000000	0.000000
62.431853	12.320336	24.533635	-0.046056	0.205277	2.128375	0.000000	0.004390	0.000000	-0.000013	-0.000001	0.000000	0.000000
62.765186	12.360077	24.401503	-0.073169	0.191118	2.129839	0.000000	0.004390	0.000000	-0.000014	-0.000001	0.000000	0.000000
63.098520	12.417894	24.278811	-0.100282	0.176959	2.131303	0.000000	0.004390	0.000000	-0.000014	-0.000001	0.000000	0.000000
63.433103	12.494105	24.165152	-0.127496	0.162746	2.132772	0.000000	0.004390	0.000000	-0.000015	-0.000001	0.000000	0.000000
63.730426	12.577110	24.072131	-0.120833	0.091076	2.134078	0.000000	-0.000844	0.000000	-0.000015	-0.000001	0.000000	0.000000
64.171386	12.843883	23.726718	-0.486445	0.689264	2.147247	0.000000	0.060631	0.000000	-0.000016	-0.000002	0.000000	0.000000
64.612346	13.441641	22.865616	-0.874282	1.256092	2.187652	0.000000	0.122796	0.000000	-0.000017	-0.000002	0.000000	0.000000
65.053306	14.397694	21.528007	-1.302062	1.765769	2.255751	0.000000	0.186361	0.000000	-0.000018	-0.000003	0.000000	0.000000
65.494266	15.755720	19.774749	-1.789329	2.195105	2.352321	0.000000	0.252048	0.000000	-0.000019	-0.000003	0.000000	0.000000
65.940226	17.600927	17.660812	-2.363036	2.525315	2.480033	0.000000	0.321007	0.000000	-0.000021	-0.000004	0.000000	0.000000
66.489286	19.966470	15.296051	-1.919814	1.807035	2.635918	0.000000	0.245976	0.000000	-0.000022	-0.000003	0.000000	0.000000
67.038346	21.767505	13.645165	-1.340986	1.217466	2.749346	0.000000	0.166582	0.000000	-0.000024	-0.000002	0.000000	0.000000
67.587406	22.876816	12.590562	-0.667438	0.714614	2.818305	0.000000	0.084233	0.000000	-0.000025	-0.000001	0.000000	0.000000
68.136466	23.216047	12.057128	0.053255	0.262662	2.841571	0.000000	0.000390	0.000000	-0.000025	-0.000001	0.000000	0.000000
68.435038	23.224316	11.889498	-0.020279	0.267266	2.843905	0.000000	0.007816	0.000000	-0.000026	-0.000001	0.000000	0.000000
68.768372	23.242621	11.721333	-0.034637	0.237227	2.846511	0.000000	0.007816	0.000000	-0.000026	-0.000001	0.000000	0.000000
69.101705	23.270499	11.573195	-0.048996	0.207189	2.849116	0.000000	0.007816	0.000000	-0.000026	-0.000001	0.000000	0.000000
69.436288	23.308108	11.444639	-0.063409	0.177038	2.851732	0.000000	0.007816	0.000000	-0.000026	-0.000001	0.000000	0.000000
69.733611	23.349621	11.347331	-0.137238	0.179899	2.854056	0.000000	0.015275	0.000000	-0.000027	-0.000001	0.000000	0.000000
70.282671	23.099297	11.377092	0.590454	-0.234423	2.839255	0.000000	-0.069109	0.000000	-0.000027	0.000000	0.000000	0.000000
