#ParticleID	Turn	x[m]	xp	y[m]	yp	z[m]	dE[GeV]# s	beta_x	beta_y	alpha_x	alpha_y	D_x	D_y	D_px	D_py	orbit_x	orbit_px	orbit_y	orbit_py
0.300000	11.822986	24.981319	-0.012129	-0.027607	2.618100	0.000000	0.000017	0.000000	0.000000	0.000001	0.000000	0.000000
0.601250	11.837970	25.001588	-0.037613	-0.039675	2.618105	0.000000	0.000017	0.000000	0.000000	0.000001	0.000000	0.000000
0.898573	11.867815	25.028722	-0.033661	-0.112963	2.618110	0.000000	-0.006404	0.000000	0.000001	0.000001	0.000000	0.000000
1.339533	12.049744	24.850731	-0.380478	0.515072	2.631579	0.000000	0.067553	0.000000	0.000001	0.000001	0.000000	0.000000
1.780493	12.544018	24.127120	-0.744679	1.119672	2.677799	0.000000	0.142280	0.000000	0.000001	0.000001	0.000000	0.000000
2.221453	13.373219	22.890815	-1.142901	1.673327	2.757296	0.000000	0.218627	0.000000	0.000001	0.000001	0.000000	0.000000
2.662413	14.575232	21.198065	-1.593339	2.150848	2.870975	0.000000	0.297464	0.000000	0.000002	0.000001	0.000000	0.000000
3.108373	16.225749	19.101063	-2.120867	2.531638	3.021993	0.000000	0.380179	0.000000	0.000002	0.000001	0.000000	0.000000
3.657433	18.342233	16.745879	-1.711055	1.783165	3.205462	0.000000	0.287141	0.000000	0.000002	0.000001	0.000000	0.000000
4.206493	19.939260	15.138458	-1.180383	1.161704	3.336372	0.000000	0.189010	0.000000	0.000003	0.000001	0.000000	0.000000
4.755553	20.904023	14.164305	-0.566334	0.622987	3.412401	0.000000	0.087526	0.000000	0.000003	0.000001	0.000000	0.000000
5.304613	21.168377	13.754036	0.087718	0.128645	3.432200	0.000000	-0.015510	0.000000	0.000003	0.000000	0.000000	0.000000
5.603185	21.153239	13.662414	0.018291	0.142285	3.430246	0.000000	-0.006543	0.000000	0.000004	0.000000	0.000000	0.000000
5.936519	21.146299	13.575854	0.002528	0.117393	3.428065	0.000000	-0.006543	0.000000	0.000004	0.000000	0.000000	0.000000
6.269852	21.149868	13.505889	-0.013235	0.092501	3.425884	0.000000	-0.006543	0.000000	0.000004	0.000000	0.000000	0.000000
6.604435	21.164019	13.452350	-0.029058	0.067516	3.423695	0.000000	-0.006543	0.000000	0.000004	0.000000	0.000000	0.000000
6.901758	21.185478	13.418803	-0.098470	0.080373	3.421750	0.000000	0.002397	0.000000	0.000004	0.000000	0.000000	0.000000
7.450818	20.932507	13.591191	0.556478	-0.396196	3.394864	0.000000	-0.100186	0.000000	0.000004	0.000000	0.000000	0.000000
7.999878	19.977751	14.299243	1.172119	-0.900986	3.312060	0.000000	-0.200991	0.000000	0.000004	0.000000	0.000000	0.000000
8.548938	18.388651	15.593392	1.704968	-1.469952	3.174806	0.000000	-0.298232	0.000000	0.000004	0.000000	0.000000	0.000000
9.097998	16.277452	17.565816	2.117386	-2.143619	2.985537	0.000000	-0.390183	0.000000	0.000004	-0.000000	0.000000	0.000000
9.543958	14.630268	19.323380	1.589315	-1.780805	2.829838	0.000000	-0.308475	0.000000	0.000004	-0.000000	0.000000	0.000000
9.984918	13.432111	20.703989	1.138149	-1.338197	2.711060	0.000000	-0.230764	0.000000	0.000004	0.000000	0.000000	0.000000
10.425878	12.607500	21.665810	0.738981	-0.834702	2.625937	0.000000	-0.155681	0.000000	0.000004	0.000000	0.000000	0.000000
10.866838	12.118762	22.165083	0.373575	-0.293229	2.573501	0.000000	-0.082372	0.000000	0.000005	0.000000	0.000000	0.000000
11.309048	11.943430	22.178572	0.054420	0.207140	2.553134	0.000000	-0.016261	0.000000	0.000005	0.000000	0.000000	0.000000
11.606371	11.918493	22.059554	0.029452	0.193158	2.548299	0.000000	-0.016261	0.000000	0.000005	0.000000	0.000000	0.000000
12.086371	11.909567	21.884956	-0.010857	0.170587	2.540493	0.000000	-0.016261	0.000000	0.000005	0.000000	0.000000	0.000000
12.566371	11.939337	21.732026	-0.051165	0.148016	2.532688	0.000000	-0.016261	0.000000	0.000005	0.000000	0.000000	0.000000
13.046371	12.007804	21.600765	-0.091473	0.125445	2.524882	0.000000	-0.016261	0.000000	0.000005	0.000000	0.000000	0.000000
13.526371	12.114966	21.491172	-0.131782	0.102874	2.517076	0.000000	-0.016261	0.000000	0.000006	0.000000	0.000000	0.000000
14.007621	12.261256	21.403046	-0.172195	0.080244	2.509250	0.000000	-0.016261	0.000000	0.000006	0.000000	0.000000	0.000000
14.304943	12.371074	21.359486	-0.166828	0.013886	2.504415	0.000000	-0.022402	0.000000	0.000006	0.000000	0.000000	0.000000
14.745903	12.676837	21.113443	-0.529206	0.541962	2.510169	0.000000	0.048524	0.000000	0.000006	0.000001	0.000000	0.000000
15.186863	13.311602	20.410816	-0.915762	1.045378	2.547291	0.000000	0.120004	0.000000	0.000007	0.000001	0.000000	0.000000
15.627823	14.304370	19.283574	-1.344157	1.501231	2.616203	0.000000	0.192850	0.000000	0.000007	0.000001	0.000000	0.000000
16.068783	15.700497	17.783005	-1.833962	1.888778	2.717690	0.000000	0.267893	0.000000	0.000007	0.000001	0.000000	0.000000
16.514743	17.587423	15.955881	-2.412314	2.191136	2.854604	0.000000	0.346449	0.000000	0.000008	0.000001	0.000000	0.000000
17.063803	20.010777	13.915652	-1.975198	1.546656	3.021092	0.000000	0.259109	0.000000	0.000008	0.000001	0.000000	0.000000
17.612863	21.874206	12.518854	-1.398564	1.012341	3.138292	0.000000	0.167174	0.000000	0.000009	0.000001	0.000000	0.000000
18.161923	23.046087	11.665997	-0.723142	0.550132	3.204124	0.000000	0.072273	0.000000	0.000009	0.000000	0.000000	0.000000
18.710983	23.443645	11.296333	0.003358	0.127109	3.217421	0.000000	-0.023909	0.000000	0.000009	0.000000	0.000000	0.000000
19.009556	23.482030	11.210892	-0.070669	0.129542	3.212792	0.000000	-0.015503	0.000000	0.000010	0.000000	0.000000	0.000000
19.342889	23.533898	11.134608	-0.084935	0.099310	3.207624	0.000000	-0.015503	0.000000	0.000010	0.000000	0.000000	0.000000
19.676223	23.595277	11.078478	-0.099201	0.069079	3.202456	0.000000	-0.015503	0.000000	0.000010	0.000000	0.000000	0.000000
20.010806	23.666744	11.042269	-0.230779	0.093443	3.197289	0.000000	0.000338	0.000000	0.000010	0.000000	0.000000	0.000000
20.308129	23.807910	10.994779	-0.306212	0.095007	3.197389	0.000000	0.008692	0.000000	0.000010	0.000000	0.000000	0.000000
20.857189	23.733546	11.112828	0.440848	-0.311278	3.175940	0.000000	-0.086710	0.000000	0.000010	-0.000000	0.000000	0.000000
21.406249	22.851134	11.686512	1.156769	-0.739736	3.102454	0.000000	-0.180573	0.000000	0.000010	-0.000000	0.000000	0.000000
21.955309	21.223003	12.756693	1.790982	-1.220883	2.978237	0.000000	-0.271234	0.000000	0.000009	-0.000001	0.000000	0.000000
22.504369	18.964157	14.399597	2.298688	-1.788992	2.805492	0.000000	-0.357083	0.000000	0.000009	-0.000001	0.000000	0.000000
22.950329	17.184060	15.874532	1.707008	-1.504380	2.663542	0.000000	-0.279866	0.000000	0.000009	-0.000001	0.000000	0.000000
23.391289	15.907903	17.050442	1.198013	-1.152177	2.556456	0.000000	-0.206292	0.000000	0.000008	-0.000001	0.000000	0.000000
23.832249	15.054897	17.891345	0.743752	-0.747550	2.481265	0.000000	-0.135067	0.000000	0.000008	-0.000000	0.000000	0.000000
24.273209	14.586073	18.358982	0.323471	-0.308911	2.437113	0.000000	-0.065380	0.000000	0.000008	-0.000000	0.000000	0.000000
24.715418	14.480126	18.431828	-0.046611	0.098518	2.423493	0.000000	-0.002381	0.000000	0.000008	0.000000	0.000000	0.000000
25.012741	14.513961	18.378088	-0.067189	0.082230	2.422785	0.000000	-0.002381	0.000000	0.000008	0.000000	0.000000	0.000000
25.346075	14.566444	18.329354	-0.090259	0.063970	2.421992	0.000000	-0.002381	0.000000	0.000008	0.000000	0.000000	0.000000
25.679408	14.634307	18.292794	-0.113329	0.045710	2.421198	0.000000	-0.002381	0.000000	0.000008	0.000000	0.000000	0.000000
26.013991	14.717592	18.268710	-0.017087	-0.120823	2.420377	0.000000	-0.022017	0.000000	0.000008	-0.000000	0.000000	0.000000
26.311314	14.733761	18.345466	-0.001166	-0.182321	2.413831	0.000000	-0.027935	0.000000	0.000008	-0.000000	0.000000	0.000000
26.752274	14.916330	18.307271	-0.414432	0.268610	2.416624	0.000000	0.040618	0.000000	0.000008	0.000000	0.000000	0.000000
27.193234	15.470307	17.875281	-0.846632	0.707320	2.449720	0.000000	0.109634	0.000000	0.000008	0.000000	0.000000	0.000000
27.634194	16.421001	17.069151	-1.317512	1.113848	2.513496	0.000000	0.179898	0.000000	0.000008	0.000001	0.000000	0.000000
28.075154	17.811847	15.925559	-1.848585	1.469696	2.608676	0.000000	0.252212	0.000000	0.000009	0.000001	0.000000	0.000000
28.521114	19.730556	14.479314	-2.469077	1.759587	2.737950	0.000000	0.327842	0.000000	0.000009	0.000001	0.000000	0.000000
29.070174	22.169248	12.867829	-1.946206	1.192727	2.895287	0.000000	0.244430	0.000000	0.000009	0.000001	0.000000	0.000000
29.619234	23.954416	11.828799	-1.285865	0.710822	3.005567	0.000000	0.156683	0.000000	0.000010	0.000000	0.000000	0.000000
30.168294	24.959966	11.288217	-0.534696	0.279548	3.066833	0.000000	0.066157	0.000000	0.000010	0.000000	0.000000	0.000000
30.717354	25.114870	11.207579	0.254240	-0.131815	3.078000	0.000000	-0.025543	0.000000	0.000010	-0.000000	0.000000	0.000000
31.015927	25.005909	11.276844	0.176314	-0.129455	3.072774	0.000000	-0.017501	0.000000	0.000010	-0.000000	0.000000	0.000000
31.349260	24.892948	11.373166	0.162569	-0.159509	3.066941	0.000000	-0.017501	0.000000	0.000010	-0.000000	0.000000	0.000000
31.682593	24.789150	11.489523	0.148825	-0.189564	3.061107	0.000000	-0.017501	0.000000	0.000010	-0.000000	0.000000	0.000000
32.017177	24.694177	11.626466	0.135029	-0.219731	3.055252	0.000000	-0.017501	0.000000	0.000010	-0.000000	0.000000	0.000000
32.314499	24.617528	11.765099	0.058453	-0.215801	3.050048	0.000000	-0.009532	0.000000	0.000010	-0.000000	0.000000	0.000000
32.863559	24.131598	12.241354	0.821330	-0.656721	3.019929	0.000000	-0.100019	0.000000	0.000009	-0.000000	0.000000	0.000000
33.412619	22.834991	13.224484	1.526192	-1.144417	2.940542	0.000000	-0.188732	0.000000	0.000009	-0.000001	0.000000	0.000000
33.961679	20.819295	14.784514	2.123252	-1.713628	2.813294	0.000000	-0.274097	0.000000	0.000009	-0.000001	0.000000	0.000000
34.510739	18.226887	17.032562	2.570336	-2.404897	2.640444	0.000000	-0.354601	0.000000	0.000008	-0.000001	0.000000	0.000000
34.956699	16.211251	19.043321	1.965626	-2.085110	2.498650	0.000000	-0.281663	0.000000	0.000007	-0.000001	0.000000	0.000000
35.397659	14.708272	20.706030	1.455727	-1.671199	2.389832	0.000000	-0.212362	0.000000	0.000007	-0.000001	0.000000	0.000000
35.838619	13.624067	21.968650	1.012337	-1.181249	2.311010	0.000000	-0.145479	0.000000	0.000007	-0.000001	0.000000	0.000000
36.279579	12.909102	22.773734	0.615198	-0.637554	2.261288	0.000000	-0.080254	0.000000	0.000006	-0.000001	0.000000	0.000000
36.721789	12.530018	23.084953	0.276785	-0.121513	2.240073	0.000000	-0.021435	0.000000	0.000006	-0.000000	0.000000	0.000000
37.019112	12.373025	23.161096	0.251238	-0.134582	2.233700	0.000000	-0.021435	0.000000	0.000006	-0.000000	0.000000	0.000000
37.352445	12.215080	23.255702	0.222597	-0.149235	2.226555	0.000000	-0.021435	0.000000	0.000006	-0.000000	0.000000	0.000000
37.685779	12.076228	23.360076	0.193957	-0.163888	2.219410	0.000000	-0.021435	0.000000	0.000006	-0.000000	0.000000	0.000000
38.020362	11.956058	23.474665	0.165208	-0.178595	2.212238	0.000000	-0.021435	0.000000	0.000005	-0.000000	0.000000	0.000000
38.317684	11.865413	23.584752	0.168758	-0.249499	2.205865	0.000000	-0.026844	0.000000	0.000005	-0.000000	0.000000	0.000000
38.758644	11.867893	23.543571	-0.174405	0.342534	2.207957	0.000000	0.036339	0.000000	0.000005	-0.000000	0.000000	0.000000
39.199604	12.175372	22.985168	-0.525535	0.918981	2.237974	0.000000	0.099936	0.000000	0.000005	-0.000000	0.000000	0.000000
39.640564	12.801897	21.934951	-0.900675	1.453616	2.296260	0.000000	0.164671	0.000000	0.000005	-0.000000	0.000000	0.000000
40.081524	13.776092	20.440703	-1.316965	1.922112	2.383476	0.000000	0.231282	0.000000	0.000005	0.000000	0.000000	0.000000
40.527484	15.160035	18.547845	-1.797249	2.304435	2.502090	0.000000	0.300932	0.000000	0.000005	0.000000	0.000000	0.000000
41.076544	16.926237	16.420803	-1.400482	1.592402	2.646787	0.000000	0.225367	0.000000	0.000005	-0.000000	0.000000	0.000000
41.625604	18.199508	15.009160	-0.904792	0.993792	2.748836	0.000000	0.145805	0.000000	0.000005	-0.000000	0.000000	0.000000
42.174664	18.889911	14.212367	-0.345192	0.465968	2.806424	0.000000	0.063657	0.000000	0.000005	-0.000000	0.000000	0.000000
42.723724	18.948680	13.973671	0.238790	-0.028666	2.818532	0.000000	-0.019620	0.000000	0.000004	-0.000000	0.000000	0.000000
43.022297	18.840524	13.975367	0.172961	-0.013525	2.814872	0.000000	-0.012256	0.000000	0.000004	-0.000000	0.000000	0.000000
43.502297	18.687075	14.004840	0.146722	-0.047877	2.808990	0.000000	-0.012256	0.000000	0.000004	-0.000000	0.000000	0.000000
43.982297	18.558817	14.067291	0.120483	-0.082230	2.803107	0.000000	-0.012256	0.000000	0.000004	-0.000000	0.000000	0.000000
44.462297	18.455748	14.162720	0.094244	-0.116582	2.797224	0.000000	-0.012256	0.000000	0.000004	-0.000000	0.000000	0.000000
44.942297	18.377868	14.291128	0.068005	-0.150934	2.791341	0.000000	-0.012256	0.000000	0.000003	-0.000000	0.000000	0.000000
45.423547	18.325301	14.452799	-0.049096	-0.113768	2.785461	0.000000	0.001545	0.000000	0.000003	-0.000000	0.000000	0.000000
45.720870	18.359332	14.526646	-0.113328	-0.096652	2.785920	0.000000	0.008823	0.000000	0.000003	-0.000000	0.000000	0.000000
46.269930	18.174640	14.913783	0.447715	-0.612600	2.768192	0.000000	-0.073306	0.000000	0.000003	-0.000001	0.000000	0.000000
46.818990	17.387654	15.887986	0.977134	-1.172183	2.705660	0.000000	-0.154135	0.000000	0.000003	-0.000001	0.000000	0.000000
47.368050	16.053962	17.518644	1.437533	-1.815257	2.599435	0.000000	-0.232231	0.000000	0.000002	-0.000001	0.000000	0.000000
47.917110	14.267770	19.921906	1.796392	-2.587628	2.451401	0.000000	-0.306207	0.000000	0.000002	-0.000001	0.000000	0.000000
48.363070	12.877695	22.058672	1.331689	-2.183614	2.330137	0.000000	-0.237906	0.000000	0.000001	-0.000001	0.000000	0.000000
48.804030	11.883448	23.769552	0.931597	-1.681519	2.239691	0.000000	-0.172712	0.000000	0.000001	-0.000001	0.000000	0.000000
49.244990	11.222021	25.002067	0.574066	-1.102916	2.177531	0.000000	-0.109485	0.000000	0.000001	-0.000001	0.000000	0.000000
49.685950	10.863194	25.700138	0.242762	-0.474132	2.142951	0.000000	-0.047506	0.000000	0.000001	-0.000001	0.000000	0.000000
50.128160	10.790701	25.831722	-0.051105	0.112829	2.135567	0.000000	0.008696	0.000000	0.000000	-0.000001	0.000000	0.000000
50.425482	10.829304	25.768095	-0.078730	0.101173	2.138153	0.000000	0.008696	0.000000	0.000000	-0.000001	0.000000	0.000000
50.758816	10.892114	25.705002	-0.109702	0.088105	2.141052	0.000000	0.008696	0.000000	-0.000000	-0.000001	0.000000	0.000000
51.092149	10.975573	25.650622	-0.140673	0.075036	2.143951	0.000000	0.008696	0.000000	-0.000000	-0.000001	0.000000	0.000000
51.426732	11.079883	25.605318	-0.081874	-0.145804	2.146839	0.000000	-0.008720	0.000000	-0.000001	-0.000001	0.000000	0.000000
51.724055	11.136601	25.695546	-0.081578	-0.220676	2.144247	0.000000	-0.013979	0.000000	-0.000001	-0.000001	0.000000	0.000000
52.165015	11.353935	25.604309	-0.413159	0.426792	2.151671	0.000000	0.047685	0.000000	-0.000001	-0.000001	0.000000	0.000000
52.605975	11.870885	24.948472	-0.763616	1.054842	2.186381	0.000000	0.109891	0.000000	-0.000001	-0.000001	0.000000	0.000000
53.046935	12.711067	23.757873	-1.148960	1.634898	2.248770	0.000000	0.173349	0.000000	-0.000002	-0.000001	0.000000	0.000000
53.487895	13.912867	22.086685	-1.586798	2.140567	2.339551	0.000000	0.238781	0.000000	-0.000002	-0.000001	0.000000	0.000000
53.933855	15.551792	19.985956	-2.101365	2.550177	2.461260	0.000000	0.307332	0.000000	-0.000002	-0.000001	0.000000	0.000000
54.482915	17.661828	17.622152	-1.718883	1.780419	2.609824	0.000000	0.233028	0.000000	-0.000003	-0.000001	0.000000	0.000000
55.031975	19.282292	16.029453	-1.214989	1.137477	2.716394	0.000000	0.154590	0.000000	-0.000003	-0.000001	0.000000	0.000000
55.581035	20.298723	15.094415	-0.625273	0.575554	2.779080	0.000000	0.073411	0.000000	-0.000003	-0.000001	0.000000	0.000000
56.130095	20.639325	14.750438	0.008608	0.054627	2.796769	0.000000	-0.009071	0.000000	-0.000004	-0.000000	0.000000	0.000000
56.428668	20.670716	14.700899	-0.059816	0.072751	2.796243	0.000000	-0.001763	0.000000	-0.000004	-0.000000	0.000000	0.000000
56.762001	20.715988	14.659997	-0.076000	0.049957	2.795655	0.000000	-0.001763	0.000000	-0.000004	-0.000000	0.000000	0.000000
57.095334	20.772049	14.634290	-0.092183	0.027163	2.795068	0.000000	-0.001763	0.000000	-0.000004	-0.000000	0.000000	0.000000
57.429918	20.839170	14.623769	-0.108427	0.004283	2.794478	0.000000	-0.001763	0.000000	-0.000004	-0.000000	0.000000	0.000000
57.727240	20.907937	14.627267	-0.177493	0.022171	2.793954	0.000000	0.005537	0.000000	-0.000004	-0.000000	0.000000	0.000000
58.276300	20.746121	14.883842	0.470463	-0.492227	2.774355	0.000000	-0.076823	0.000000	-0.000005	-0.000000	0.000000	0.000000
58.825360	19.886889	15.721109	1.085188	-1.041684	2.709844	0.000000	-0.157819	0.000000	-0.000005	-0.000000	0.000000	0.000000
59.374420	18.390933	17.198705	1.623261	-1.665338	2.601565	0.000000	-0.236017	0.000000	-0.000005	0.000000	0.000000	0.000000
59.923480	16.363919	19.421875	2.046675	-2.407611	2.451438	0.000000	-0.310028	0.000000	-0.000005	0.000000	0.000000	0.000000
60.369440	14.777345	21.397888	1.523584	-2.004606	2.328467	0.000000	-0.241749	0.000000	-0.000005	0.000000	0.000000	0.000000
60.810400	13.636107	22.954390	1.074310	-1.511764	2.236313	0.000000	-0.176620	0.000000	-0.000005	-0.000000	0.000000	0.000000
61.251360	12.868034	24.044137	0.674118	-0.950139	2.172407	0.000000	-0.113503	0.000000	-0.000005	-0.000000	0.000000	0.000000
61.692320	12.438035	24.617549	0.304725	-0.345283	2.136023	0.000000	-0.051678	0.000000	-0.000005	-0.000000	0.000000	0.000000
62.134530	12.326515	24.647997	-0.020618	0.214782	2.126750	0.000000	0.004342	0.000000	-0.000005	-0.000000	0.000000	0.000000
62.431853	12.345950	24.524030	-0.044749	0.202162	2.128042	0.000000	0.004342	0.000000	-0.000005	-0.000000	0.000000	0.000000
62.765186	12.384801	24.393971	-0.071803	0.188015	2.129489	0.000000	0.004342	0.000000	-0.000005	-0.000000	0.000000	0.000000
63.098520	12.441687	24.273344	-0.098856	0.173867	2.130936	0.000000	0.004342	0.000000	-0.000005	-0.000000	0.000000	0.000000
63.433103	12.516924	24.161749	-0.126011	0.159666	2.132389	0.000000	0.004342	0.000000	-0.000006	-0.000000	0.000000	0.000000
63.730426	12.599030	24.070556	-0.119244	0.088016	2.133680	0.000000	-0.000891	0.000000	-0.000006	-0.000000	0.000000	0.000000
64.171386	12.864608	23.727835	-0.485314	0.686243	2.146827	0.000000	0.060574	0.000000	-0.000006	-0.000001	0.000000	0.000000
64.612346	13.461551	22.869331	-0.873556	1.253246	2.187203	0.000000	0.122728	0.000000	-0.000006	-0.000001	0.000000	0.000000
65.053306	14.417131	21.534106	-1.301710	1.763228	2.255269	0.000000	0.186281	0.000000	-0.000007	-0.000001	0.000000	0.000000
65.494266	15.775006	19.782912	-1.789334	2.192984	2.351800	0.000000	0.251955	0.000000	-0.000007	-0.000001	0.000000	0.000000
65.940226	17.620377	17.670640	-2.363400	2.523717	2.479467	0.000000	0.320900	0.000000	-0.000008	-0.000001	0.000000	0.000000
66.489286	19.985879	15.307620	-1.919372	1.805442	2.635297	0.000000	0.245888	0.000000	-0.000008	-0.000001	0.000000	0.000000
67.038346	21.785999	13.658532	-1.339770	1.215764	2.748681	0.000000	0.166515	0.000000	-0.000009	-0.000001	0.000000	0.000000
67.587406	22.893586	12.605912	-0.665532	0.712683	2.817609	0.000000	0.084188	0.000000	-0.000009	-0.000000	0.000000	0.000000
68.136466	23.230406	12.074786	0.055715	0.260364	2.840856	0.000000	0.000368	0.000000	-0.000009	-0.000000	0.000000	0.000000
68.435038	23.237221	11.908482	-0.017839	0.265082	2.843183	0.000000	0.007791	0.000000	-0.000009	-0.000000	0.000000	0.000000
68.768372	23.253897	11.741746	-0.032189	0.235124	2.845780	0.000000	0.007791	0.000000	-0.000009	-0.000000	0.000000	0.000000
69.101705	23.280139	11.594983	-0.046538	0.205166	2.848377	0.000000	0.007791	0.000000	-0.000009	-0.000000	0.000000	0.000000
69.436288	23.316100	11.467755	-0.060941	0.175095	2.850984	0.000000	0.007791	0.000000	-0.000009	-0.000000	0.000000	0.000000
69.733611	23.356144	11.371580	-0.134770	0.178087	2.853300	0.000000	0.015247	0.000000	-0.000009	-0.000000	0.000000	0.000000
70.282671	23.103014	11.403710	0.593065	-0.236951	2.838491	0.000000	-0.069113	0.000000	-0.000009	0.000000	0.000000	0.000000
