#ParticleID	Turn	x[m]	xp	y[m]	yp	z[m]	dE[GeV]# s	beta_x	beta_y	alpha_x	alpha_y	D_x	D_y	D_px	D_py	orbit_x	orbit_px	orbit_y	orbit_py
0.300000	11.824400	24.975657	-0.012321	-0.027642	2.618123	0.000000	0.000008	0.000000	0.000001	0.000000	0.000000	0.000000
0.601250	11.839499	24.995948	-0.037802	-0.039713	2.618125	0.000000	0.000008	0.000000	0.000001	0.000000	0.000000	0.000000
0.898573	11.869455	25.023105	-0.033843	-0.112990	2.618127	0.000000	-0.006413	0.000000	0.000001	0.000000	0.000000	0.000000
1.339533	12.051562	24.845203	-0.380702	0.514897	2.631592	0.000000	0.067545	0.000000	0.000001	0.000000	0.000000	0.000000
1.780493	12.546056	24.121809	-0.744955	1.119357	2.677808	0.000000	0.142272	0.000000	0.000002	0.000001	0.000000	0.000000
2.221453	13.375529	22.885838	-1.143242	1.672887	2.757302	0.000000	0.218619	0.000000	0.000002	0.000001	0.000000	0.000000
2.662413	14.577876	21.193524	-1.593761	2.150302	2.870978	0.000000	0.297456	0.000000	0.000002	0.000001	0.000000	0.000000
3.108373	16.228812	19.097047	-2.121390	2.531011	3.021992	0.000000	0.380171	0.000000	0.000002	0.000001	0.000000	0.000000
3.657433	18.345831	16.742462	-1.711501	1.782694	3.205457	0.000000	0.287133	0.000000	0.000003	0.000001	0.000000	0.000000
4.206493	19.943290	15.135488	-1.180719	1.161355	3.336362	0.000000	0.189002	0.000000	0.000003	0.000001	0.000000	0.000000
4.755553	20.908352	14.161663	-0.566538	0.622736	3.412387	0.000000	0.087519	0.000000	0.000003	0.000000	0.000000	0.000000
5.304613	21.172851	13.751624	0.087660	0.128473	3.432183	0.000000	-0.015517	0.000000	0.000003	0.000000	0.000000	0.000000
5.603185	21.157753	13.660110	0.018225	0.142104	3.430227	0.000000	-0.006550	0.000000	0.000004	0.000000	0.000000	0.000000
5.936519	21.150857	13.573672	0.002465	0.117209	3.428044	0.000000	-0.006550	0.000000	0.000004	0.000000	0.000000	0.000000
6.269852	21.154467	13.503831	-0.013295	0.092315	3.425861	0.000000	-0.006550	0.000000	0.000004	0.000000	0.000000	0.000000
6.604435	21.168656	13.450417	-0.029114	0.067327	3.423669	0.000000	-0.006550	0.000000	0.000004	0.000000	0.000000	0.000000
6.901758	21.190148	13.416984	-0.098535	0.080176	3.421722	0.000000	0.002390	0.000000	0.000004	0.000000	0.000000	0.000000
7.450818	20.937162	13.589561	0.556570	-0.396346	3.394833	0.000000	-0.100191	0.000000	0.000004	0.000000	0.000000	0.000000
7.999878	19.982222	14.297756	1.172361	-0.901098	3.312026	0.000000	-0.200996	0.000000	0.000004	0.000000	0.000000	0.000000
8.548938	18.392781	15.592010	1.705343	-1.470034	3.174769	0.000000	-0.298236	0.000000	0.000004	-0.000000	0.000000	0.000000
9.097998	16.281108	17.564511	2.117868	-2.143677	2.985499	0.000000	-0.390185	0.000000	0.000004	-0.000000	0.000000	0.000000
9.543958	14.633543	19.322150	1.589690	-1.780913	2.829798	0.000000	-0.308478	0.000000	0.000004	-0.000000	0.000000	0.000000
9.984918	13.435095	20.702874	1.138435	-1.338349	2.711018	0.000000	-0.230768	0.000000	0.000004	-0.000000	0.000000	0.000000
10.425878	12.610265	21.664847	0.739192	-0.834891	2.625894	0.000000	-0.155687	0.000000	0.000004	0.000000	0.000000	0.000000
10.866838	12.121371	22.164299	0.373720	-0.293446	2.573455	0.000000	-0.082379	0.000000	0.000004	0.000000	0.000000	0.000000
11.309048	11.945937	22.177989	0.054512	0.206905	2.553084	0.000000	-0.016269	0.000000	0.000004	0.000000	0.000000	0.000000
11.606371	11.920944	22.059111	0.029549	0.192925	2.548247	0.000000	-0.016269	0.000000	0.000004	0.000000	0.000000	0.000000
12.086371	11.911922	21.884736	-0.010752	0.170355	2.540438	0.000000	-0.016269	0.000000	0.000004	0.000000	0.000000	0.000000
12.566371	11.941588	21.732029	-0.051052	0.147786	2.532629	0.000000	-0.016269	0.000000	0.000005	0.000000	0.000000	0.000000
13.046371	12.009942	21.600988	-0.091353	0.125216	2.524819	0.000000	-0.016269	0.000000	0.000005	0.000000	0.000000	0.000000
13.526371	12.116985	21.491614	-0.131653	0.102646	2.517010	0.000000	-0.016269	0.000000	0.000005	0.000000	0.000000	0.000000
14.007621	12.263146	21.403707	-0.172058	0.080018	2.509180	0.000000	-0.016269	0.000000	0.000005	0.000000	0.000000	0.000000
14.304943	12.372882	21.360281	-0.166681	0.013659	2.504343	0.000000	-0.022410	0.000000	0.000005	0.000000	0.000000	0.000000
14.745903	12.678532	21.114428	-0.529096	0.541761	2.510093	0.000000	0.048515	0.000000	0.000005	0.000000	0.000000	0.000000
15.186863	13.313214	20.411963	-0.915683	1.045213	2.547210	0.000000	0.119992	0.000000	0.000005	0.000001	0.000000	0.000000
15.627823	14.305925	19.284848	-1.344106	1.501108	2.616116	0.000000	0.192836	0.000000	0.000006	0.000001	0.000000	0.000000
16.068783	15.702019	17.784366	-1.833937	1.888705	2.717597	0.000000	0.267876	0.000000	0.000006	0.000001	0.000000	0.000000
16.514743	17.588933	15.957285	-2.412313	2.191115	2.854503	0.000000	0.346430	0.000000	0.000006	0.000001	0.000000	0.000000
17.063803	20.012249	13.917093	-1.975131	1.546609	3.020982	0.000000	0.259094	0.000000	0.000007	0.000001	0.000000	0.000000
17.612863	21.875569	12.520361	-1.398435	1.012265	3.138175	0.000000	0.167162	0.000000	0.000007	0.000001	0.000000	0.000000
18.161923	23.047279	11.667605	-0.722961	0.550023	3.204001	0.000000	0.072266	0.000000	0.000008	0.000000	0.000000	0.000000
18.710983	23.444615	11.298084	0.003579	0.126957	3.217295	0.000000	-0.023913	0.000000	0.000008	0.000000	0.000000	0.000000
19.009556	23.482869	11.212729	-0.070451	0.129401	3.212665	0.000000	-0.015507	0.000000	0.000008	0.000000	0.000000	0.000000
19.342889	23.534591	11.136537	-0.084716	0.099175	3.207496	0.000000	-0.015507	0.000000	0.000008	0.000000	0.000000	0.000000
19.676223	23.595824	11.080496	-0.098981	0.068949	3.202327	0.000000	-0.015507	0.000000	0.000008	0.000000	0.000000	0.000000
20.010806	23.667142	11.044371	-0.230560	0.093331	3.197158	0.000000	0.000333	0.000000	0.000008	0.000000	0.000000	0.000000
20.308129	23.808178	10.996947	-0.305993	0.094906	3.197258	0.000000	0.008687	0.000000	0.000008	0.000000	0.000000	0.000000
20.857189	23.733569	11.115140	0.441072	-0.311443	3.175806	0.000000	-0.086710	0.000000	0.000008	-0.000000	0.000000	0.000000
21.406249	22.850917	11.689045	1.156981	-0.739975	3.102322	0.000000	-0.180569	0.000000	0.000008	-0.000000	0.000000	0.000000
21.955309	21.222568	12.759537	1.791167	-1.221215	2.978108	0.000000	-0.271225	0.000000	0.000007	-0.000001	0.000000	0.000000
22.504369	18.963539	14.402866	2.298834	-1.789438	2.805368	0.000000	-0.357071	0.000000	0.000007	-0.000001	0.000000	0.000000
22.950329	17.183313	15.878167	1.707153	-1.504752	2.663423	0.000000	-0.279857	0.000000	0.000007	-0.000001	0.000000	0.000000
23.391289	15.907026	17.054366	1.198163	-1.152457	2.556341	0.000000	-0.206286	0.000000	0.000006	-0.000000	0.000000	0.000000
23.832249	15.053884	17.895471	0.743915	-0.747726	2.481152	0.000000	-0.135064	0.000000	0.000006	-0.000000	0.000000	0.000000
24.273209	14.584908	18.363214	0.323654	-0.308974	2.437000	0.000000	-0.065380	0.000000	0.000006	-0.000000	0.000000	0.000000
24.715418	14.478788	18.436065	-0.046403	0.098558	2.423379	0.000000	-0.002383	0.000000	0.000006	-0.000000	0.000000	0.000000
25.012741	14.512500	18.382300	-0.066983	0.082274	2.422671	0.000000	-0.002383	0.000000	0.000006	-0.000000	0.000000	0.000000
25.346075	14.564846	18.333535	-0.090054	0.064018	2.421876	0.000000	-0.002383	0.000000	0.000006	-0.000000	0.000000	0.000000
25.679408	14.632573	18.296942	-0.113126	0.045762	2.421082	0.000000	-0.002383	0.000000	0.000006	-0.000000	0.000000	0.000000
26.013991	14.715723	18.272821	-0.016901	-0.120800	2.420260	0.000000	-0.022018	0.000000	0.000006	-0.000000	0.000000	0.000000
26.311314	14.731782	18.349563	-0.000986	-0.182305	2.413713	0.000000	-0.027937	0.000000	0.000006	-0.000000	0.000000	0.000000
26.752274	14.914171	18.311304	-0.414201	0.268737	2.416506	0.000000	0.040613	0.000000	0.000006	0.000000	0.000000	0.000000
27.193234	15.467918	17.879155	-0.846339	0.707552	2.449599	0.000000	0.109626	0.000000	0.000006	0.000000	0.000000	0.000000
27.634194	16.418321	17.072779	-1.317143	1.114173	2.513370	0.000000	0.179888	0.000000	0.000006	0.000000	0.000000	0.000000
28.075154	17.808803	15.928864	-1.848125	1.470101	2.608546	0.000000	0.252198	0.000000	0.000007	0.000001	0.000000	0.000000
28.521114	19.727051	14.482229	-2.468502	1.760054	2.737813	0.000000	0.327824	0.000000	0.000007	0.000001	0.000000	0.000000
29.070174	22.165157	12.870294	-1.945720	1.193084	2.895141	0.000000	0.244417	0.000000	0.000007	0.000001	0.000000	0.000000
29.619234	23.949856	11.830922	-1.285502	0.711094	3.005415	0.000000	0.156675	0.000000	0.000007	0.000000	0.000000	0.000000
30.168294	24.955088	11.290078	-0.534482	0.279755	3.066678	0.000000	0.066154	0.000000	0.000007	0.000000	0.000000	0.000000
30.717354	25.109846	11.209242	0.254290	-0.131659	3.077844	0.000000	-0.025541	0.000000	0.000007	-0.000000	0.000000	0.000000
31.015927	25.000849	11.278409	0.176373	-0.129288	3.072620	0.000000	-0.017499	0.000000	0.000007	-0.000000	0.000000	0.000000
31.349260	24.887850	11.374618	0.162625	-0.159337	3.066787	0.000000	-0.017499	0.000000	0.000007	-0.000000	0.000000	0.000000
31.682593	24.784016	11.490859	0.148878	-0.189386	3.060954	0.000000	-0.017499	0.000000	0.000007	-0.000000	0.000000	0.000000
32.017177	24.689009	11.627682	0.135078	-0.219548	3.055099	0.000000	-0.017499	0.000000	0.000007	-0.000000	0.000000	0.000000
32.314499	24.612331	11.766204	0.058512	-0.215610	3.049896	0.000000	-0.009531	0.000000	0.000007	-0.000000	0.000000	0.000000
32.863559	24.126431	12.242262	0.821216	-0.656550	3.019778	0.000000	-0.100013	0.000000	0.000007	-0.000000	0.000000	0.000000
33.412619	22.830042	13.225210	1.525913	-1.144255	2.940396	0.000000	-0.188721	0.000000	0.000007	-0.000001	0.000000	0.000000
33.961679	20.814734	14.785061	2.122828	-1.713463	2.813156	0.000000	-0.274082	0.000000	0.000006	-0.000001	0.000000	0.000000
34.510739	18.222858	17.032921	2.569796	-2.404717	2.640315	0.000000	-0.354581	0.000000	0.000006	-0.000001	0.000000	0.000000
34.956699	16.207649	19.043505	1.965206	-2.084899	2.498529	0.000000	-0.281646	0.000000	0.000005	-0.000001	0.000000	0.000000
35.397659	14.704996	20.706018	1.455407	-1.670966	2.389717	0.000000	-0.212348	0.000000	0.000005	-0.000001	0.000000	0.000000
35.838619	13.621035	21.968428	1.012102	-1.181006	2.310901	0.000000	-0.145468	0.000000	0.000005	-0.000001	0.000000	0.000000
36.279579	12.906243	22.773296	0.615037	-0.637311	2.261183	0.000000	-0.080245	0.000000	0.000004	-0.000001	0.000000	0.000000
36.721789	12.527272	23.084305	0.276685	-0.121281	2.239971	0.000000	-0.021429	0.000000	0.000004	-0.000000	0.000000	0.000000
37.019112	12.370339	23.160309	0.251134	-0.134350	2.233599	0.000000	-0.021429	0.000000	0.000004	-0.000000	0.000000	0.000000
37.352445	12.212465	23.254760	0.222488	-0.149002	2.226456	0.000000	-0.021429	0.000000	0.000004	-0.000000	0.000000	0.000000
37.685779	12.073688	23.358979	0.193843	-0.163654	2.219314	0.000000	-0.021429	0.000000	0.000004	-0.000000	0.000000	0.000000
38.020362	11.953595	23.473412	0.165090	-0.178362	2.212144	0.000000	-0.021429	0.000000	0.000004	-0.000000	0.000000	0.000000
38.317684	11.863022	23.583360	0.168629	-0.249262	2.205772	0.000000	-0.026838	0.000000	0.000004	-0.000000	0.000000	0.000000
38.758644	11.865592	23.541987	-0.174480	0.342730	2.207866	0.000000	0.036342	0.000000	0.000003	-0.000000	0.000000	0.000000
39.199604	12.173115	22.983432	-0.525561	0.919129	2.237884	0.000000	0.099937	0.000000	0.000003	-0.000000	0.000000	0.000000
39.640564	12.799642	21.933109	-0.900653	1.453708	2.296170	0.000000	0.164670	0.000000	0.000003	-0.000000	0.000000	0.000000
40.081524	13.773795	20.438807	-1.316893	1.922144	2.383385	0.000000	0.231278	0.000000	0.000003	-0.000000	0.000000	0.000000
40.527484	15.157650	18.545948	-1.797124	2.304404	2.501996	0.000000	0.300926	0.000000	0.000003	0.000000	0.000000	0.000000
41.076544	16.923762	16.418914	-1.400445	1.592417	2.646692	0.000000	0.225364	0.000000	0.000003	-0.000000	0.000000	0.000000
41.625604	18.197042	15.007229	-0.904846	0.993854	2.748739	0.000000	0.145805	0.000000	0.000003	-0.000000	0.000000	0.000000
42.174664	18.887553	14.210340	-0.345333	0.466082	2.806329	0.000000	0.063660	0.000000	0.000003	-0.000000	0.000000	0.000000
42.723724	18.946521	13.971488	0.238572	-0.028493	2.818439	0.000000	-0.019614	0.000000	0.000003	-0.000000	0.000000	0.000000
43.022297	18.838492	13.973085	0.172747	-0.013361	2.814781	0.000000	-0.012250	0.000000	0.000003	-0.000000	0.000000	0.000000
43.502297	18.685250	14.002403	0.146507	-0.047719	2.808902	0.000000	-0.012250	0.000000	0.000002	-0.000000	0.000000	0.000000
43.982297	18.557198	14.064705	0.120267	-0.082076	2.803022	0.000000	-0.012250	0.000000	0.000002	-0.000000	0.000000	0.000000
44.462297	18.454337	14.159990	0.094027	-0.116434	2.797142	0.000000	-0.012250	0.000000	0.000002	-0.000000	0.000000	0.000000
44.942297	18.376666	14.288259	0.067787	-0.150792	2.791262	0.000000	-0.012250	0.000000	0.000002	-0.000000	0.000000	0.000000
45.423547	18.324309	14.449795	-0.049310	-0.113646	2.785384	0.000000	0.001550	0.000000	0.000002	-0.000000	0.000000	0.000000
45.720870	18.358467	14.523571	-0.113542	-0.096542	2.785845	0.000000	0.008829	0.000000	0.000002	-0.000000	0.000000	0.000000
46.269930	18.174024	14.910534	0.447478	-0.612393	2.768121	0.000000	-0.073298	0.000000	0.000001	-0.000000	0.000000	0.000000
46.818990	17.387302	15.884449	0.976891	-1.171863	2.705595	0.000000	-0.154125	0.000000	0.000001	-0.000000	0.000000	0.000000
47.368050	16.053873	17.514686	1.437301	-1.814803	2.599376	0.000000	-0.232218	0.000000	0.000001	-0.000000	0.000000	0.000000
47.917110	14.267921	19.917362	1.796187	-2.587008	2.451348	0.000000	-0.306193	0.000000	0.000001	-0.000001	0.000000	0.000000
48.363070	12.878022	22.053617	1.331501	-2.183094	2.330091	0.000000	-0.237893	0.000000	0.000000	-0.000000	0.000000	0.000000
48.804030	11.883937	23.764090	0.931415	-1.681121	2.239649	0.000000	-0.172700	0.000000	0.000000	-0.000000	0.000000	0.000000
49.244990	11.222670	24.996315	0.573883	-1.102659	2.177495	0.000000	-0.109475	0.000000	-0.000000	-0.000000	0.000000	0.000000
49.685950	10.864008	25.694227	0.242569	-0.474027	2.142919	0.000000	-0.047496	0.000000	-0.000000	-0.000000	0.000000	0.000000
50.128160	10.791693	25.825789	-0.051313	0.112790	2.135539	0.000000	0.008705	0.000000	-0.000000	-0.000000	0.000000	0.000000
50.425482	10.830420	25.762185	-0.078937	0.101131	2.138128	0.000000	0.008705	0.000000	-0.000001	-0.000000	0.000000	0.000000
50.758816	10.893367	25.699121	-0.109906	0.088060	2.141030	0.000000	0.008705	0.000000	-0.000001	-0.000000	0.000000	0.000000
51.092149	10.976961	25.644772	-0.140876	0.074989	2.143932	0.000000	0.008705	0.000000	-0.000001	-0.000000	0.000000	0.000000
51.426732	11.081406	25.599500	-0.082061	-0.145807	2.146823	0.000000	-0.008711	0.000000	-0.000001	-0.000000	0.000000	0.000000
51.724055	11.138235	25.689731	-0.081758	-0.220668	2.144233	0.000000	-0.013969	0.000000	-0.000001	-0.000000	0.000000	0.000000
52.165015	11.355746	25.598555	-0.413381	0.426647	2.151662	0.000000	0.047694	0.000000	-0.000001	-0.000001	0.000000	0.000000
52.605975	11.872914	24.942912	-0.763891	1.054550	2.186375	0.000000	0.109900	0.000000	-0.000002	-0.000001	0.000000	0.000000
53.046935	12.713366	23.752631	-1.149300	1.634472	2.248768	0.000000	0.173358	0.000000	-0.000002	-0.000001	0.000000	0.000000
53.487895	13.915500	22.081871	-1.587217	2.140026	2.339553	0.000000	0.238790	0.000000	-0.000002	-0.000001	0.000000	0.000000
53.933855	15.554842	19.981666	-2.101884	2.549547	2.461266	0.000000	0.307341	0.000000	-0.000003	-0.000001	0.000000	0.000000
54.482915	17.665409	17.618461	-1.719326	1.779951	2.609835	0.000000	0.233036	0.000000	-0.000003	-0.000001	0.000000	0.000000
55.031975	19.286302	16.026204	-1.215324	1.137137	2.716409	0.000000	0.154598	0.000000	-0.000003	-0.000001	0.000000	0.000000
55.581035	20.303030	15.091480	-0.625476	0.575319	2.779099	0.000000	0.073418	0.000000	-0.000003	-0.000000	0.000000	0.000000
56.130095	20.643776	14.747711	0.008551	0.054480	2.796792	0.000000	-0.009064	0.000000	-0.000004	-0.000000	0.000000	0.000000
56.428668	20.675207	14.698265	-0.059882	0.072594	2.796268	0.000000	-0.001757	0.000000	-0.000004	-0.000000	0.000000	0.000000
56.762001	20.720522	14.657469	-0.076062	0.049796	2.795682	0.000000	-0.001757	0.000000	-0.000004	-0.000000	0.000000	0.000000
57.095334	20.776623	14.631871	-0.092242	0.026998	2.795097	0.000000	-0.001757	0.000000	-0.000004	-0.000000	0.000000	0.000000
57.429918	20.843783	14.621461	-0.108483	0.004115	2.794509	0.000000	-0.001757	0.000000	-0.000004	-0.000000	0.000000	0.000000
57.727240	20.912582	14.625060	-0.177558	0.021993	2.793987	0.000000	0.005544	0.000000	-0.000004	-0.000000	0.000000	0.000000
58.276300	20.750752	14.881795	0.470555	-0.492344	2.774392	0.000000	-0.076817	0.000000	-0.000004	-0.000000	0.000000	0.000000
58.825360	19.891336	15.719162	1.085429	-1.041749	2.709884	0.000000	-0.157815	0.000000	-0.000004	-0.000000	0.000000	0.000000
59.374420	18.395040	17.196803	1.623635	-1.665356	2.601607	0.000000	-0.236014	0.000000	-0.000004	0.000000	0.000000	0.000000
59.923480	16.367554	19.419967	2.047155	-2.407583	2.451481	0.000000	-0.310026	0.000000	-0.000004	0.000000	0.000000	0.000000
60.369440	14.780601	21.395982	1.523958	-2.004639	2.328511	0.000000	-0.241746	0.000000	-0.000004	0.000000	0.000000	0.000000
60.810400	13.639073	22.952540	1.074596	-1.511858	2.236359	0.000000	-0.176616	0.000000	-0.000004	0.000000	0.000000	0.000000
61.251360	12.870782	24.042396	0.674328	-0.950289	2.172455	0.000000	-0.113497	0.000000	-0.000004	-0.000000	0.000000	0.000000
61.692320	12.440627	24.615962	0.304869	-0.345482	2.136074	0.000000	-0.051672	0.000000	-0.000004	-0.000000	0.000000	0.000000
62.134530	12.329006	24.646604	-0.020527	0.214547	2.126804	0.000000	0.004350	0.000000	-0.000004	-0.000000	0.000000	0.000000
62.431853	12.348386	24.522777	-0.044653	0.201928	2.128098	0.000000	0.004350	0.000000	-0.000004	-0.000000	0.000000	0.000000
62.765186	12.387170	24.392874	-0.071701	0.187781	2.129548	0.000000	0.004350	0.000000	-0.000005	-0.000000	0.000000	0.000000
63.098520	12.443987	24.272402	-0.098749	0.173634	2.130998	0.000000	0.004350	0.000000	-0.000005	-0.000000	0.000000	0.000000
63.433103	12.519150	24.160964	-0.125898	0.159434	2.132453	0.000000	0.004350	0.000000	-0.000005	-0.000000	0.000000	0.000000
63.730426	12.601188	24.069909	-0.119121	0.087786	2.133747	0.000000	-0.000883	0.000000	-0.000005	-0.000000	0.000000	0.000000
64.171386	12.866678	23.727396	-0.485237	0.686001	2.146897	0.000000	0.060583	0.000000	-0.000005	-0.000000	0.000000	0.000000
64.612346	13.463572	22.869106	-0.873522	1.253005	2.187278	0.000000	0.122740	0.000000	-0.000005	-0.000001	0.000000	0.000000
65.053306	14.419140	21.534090	-1.301716	1.762997	2.255349	0.000000	0.186294	0.000000	-0.000006	-0.000001	0.000000	0.000000
65.494266	15.777039	19.783090	-1.789382	2.192774	2.351886	0.000000	0.251970	0.000000	-0.000006	-0.000001	0.000000	0.000000
65.940226	17.622473	17.670992	-2.363493	2.523539	2.479560	0.000000	0.320918	0.000000	-0.000006	-0.000001	0.000000	0.000000
66.489286	19.988031	15.308159	-1.919383	1.805279	2.635400	0.000000	0.245903	0.000000	-0.000007	-0.000001	0.000000	0.000000
67.038346	21.788119	13.659246	-1.339699	1.215604	2.748791	0.000000	0.166526	0.000000	-0.000007	-0.000001	0.000000	0.000000
67.587406	22.895585	12.606805	-0.665385	0.712515	2.817723	0.000000	0.084196	0.000000	-0.000007	-0.000000	0.000000	0.000000
68.136466	23.232205	12.075873	0.055929	0.260177	2.840974	0.000000	0.000372	0.000000	-0.000007	-0.000000	0.000000	0.000000
68.435038	23.238895	11.909678	-0.017628	0.264902	2.843302	0.000000	0.007795	0.000000	-0.000008	-0.000000	0.000000	0.000000
68.768372	23.255430	11.743061	-0.031976	0.234949	2.845900	0.000000	0.007795	0.000000	-0.000008	-0.000000	0.000000	0.000000
69.101705	23.281530	11.596412	-0.046325	0.204997	2.848498	0.000000	0.007795	0.000000	-0.000008	-0.000000	0.000000	0.000000
69.436288	23.317348	11.469294	-0.060727	0.174932	2.851107	0.000000	0.007795	0.000000	-0.000008	-0.000000	0.000000	0.000000
69.733611	23.357264	11.373215	-0.134557	0.177933	2.853424	0.000000	0.015251	0.000000	-0.000008	-0.000000	0.000000	0.000000
70.282671	23.103881	11.405540	0.593309	-0.237154	2.838616	0.000000	-0.069113	0.000000	-0.000008	0.000000	0.000000	0.000000
