#ParticleID	Turn	x[m]	xp	y[m]	yp	z[m]	dE[GeV]# s	beta_x	beta_y	alpha_x	alpha_y	D_x	D_y	D_px	D_py	orbit_x	orbit_px	orbit_y	orbit_py
0.300000	11.831641	24.948785	-0.013328	-0.027763	2.618279	0.000000	-0.000052	0.000000	0.000001	0.000000	0.000000	0.000000
0.601250	11.847343	24.969153	-0.038794	-0.039847	2.618264	0.000000	-0.000052	0.000000	0.000001	0.000000	0.000000	0.000000
0.898573	11.877885	24.996394	-0.034800	-0.113072	2.618248	0.000000	-0.006473	0.000000	0.000001	0.000000	0.000000	0.000000
1.339533	12.060928	24.818876	-0.381876	0.514112	2.631688	0.000000	0.067488	0.000000	0.000001	0.000000	0.000000	0.000000
1.780493	12.556572	24.096473	-0.746399	1.117904	2.677879	0.000000	0.142217	0.000000	0.000001	0.000000	0.000000	0.000000
2.221453	13.387461	22.862055	-1.145023	1.670832	2.757349	0.000000	0.218565	0.000000	0.000001	0.000000	0.000000	0.000000
2.662413	14.591557	21.171786	-1.595959	2.147738	2.871002	0.000000	0.297404	0.000000	0.000001	0.000000	0.000000	0.000000
3.108373	16.244679	19.077781	-2.124111	2.528054	3.021993	0.000000	0.380119	0.000000	0.000001	0.000000	0.000000	0.000000
3.657433	18.364485	16.726020	-1.713825	1.780479	3.205429	0.000000	0.287081	0.000000	0.000001	0.000000	0.000000	0.000000
4.206493	19.964201	15.121146	-1.182482	1.159723	3.336307	0.000000	0.188951	0.000000	0.000001	0.000000	0.000000	0.000000
4.755553	20.930832	14.148848	-0.567615	0.621571	3.412305	0.000000	0.087470	0.000000	0.000001	0.000000	0.000000	0.000000
5.304613	21.196099	13.739872	0.087345	0.127693	3.432075	0.000000	-0.015562	0.000000	0.000001	0.000000	0.000000	0.000000
5.603185	21.181222	13.648845	0.017864	0.141280	3.430105	0.000000	-0.006595	0.000000	0.000001	0.000000	0.000000	0.000000
5.936519	21.174561	13.562962	0.002121	0.116370	3.427907	0.000000	-0.006595	0.000000	0.000001	0.000000	0.000000	0.000000
6.269852	21.178394	13.493685	-0.013621	0.091461	3.425709	0.000000	-0.006595	0.000000	0.000001	0.000000	0.000000	0.000000
6.604435	21.192795	13.440848	-0.029422	0.066458	3.423502	0.000000	-0.006595	0.000000	0.000001	0.000000	0.000000	0.000000
6.901758	21.214466	13.407935	-0.098893	0.079271	3.421541	0.000000	0.002345	0.000000	0.000001	0.000000	0.000000	0.000000
7.450818	20.961423	13.581369	0.557030	-0.397010	3.394629	0.000000	-0.100231	0.000000	0.000001	0.000000	0.000000	0.000000
7.999878	20.005540	14.290182	1.173607	-0.901569	3.311802	0.000000	-0.201029	0.000000	0.000001	-0.000000	0.000000	0.000000
8.548938	18.414337	15.584863	1.707287	-1.470345	3.174530	0.000000	-0.298261	0.000000	0.000001	-0.000000	0.000000	0.000000
9.097998	16.300208	17.557628	2.120372	-2.143850	2.985248	0.000000	-0.390202	0.000000	0.000001	-0.000000	0.000000	0.000000
9.543958	14.650666	19.315532	1.591637	-1.781333	2.829539	0.000000	-0.308502	0.000000	0.000001	-0.000000	0.000000	0.000000
9.984918	13.450711	20.696728	1.139919	-1.338996	2.710747	0.000000	-0.230799	0.000000	0.000001	-0.000000	0.000000	0.000000
10.425878	12.624752	21.659361	0.740280	-0.835736	2.625607	0.000000	-0.155725	0.000000	0.000001	-0.000000	0.000000	0.000000
10.866838	12.135054	22.159631	0.374462	-0.294450	2.573150	0.000000	-0.082424	0.000000	0.000001	0.000000	0.000000	0.000000
11.309048	11.959104	22.174263	0.054975	0.205796	2.552758	0.000000	-0.016322	0.000000	0.000001	0.000000	0.000000	0.000000
11.606371	11.933828	22.056043	0.030038	0.191819	2.547905	0.000000	-0.016322	0.000000	0.000001	0.000000	0.000000	0.000000
12.086371	11.924316	21.882727	-0.010220	0.169256	2.540070	0.000000	-0.016322	0.000000	0.000001	0.000000	0.000000	0.000000
12.566371	11.953451	21.731071	-0.050478	0.146692	2.532236	0.000000	-0.016322	0.000000	0.000001	0.000000	0.000000	0.000000
13.046371	12.021234	21.601077	-0.090736	0.124129	2.524401	0.000000	-0.016322	0.000000	0.000001	0.000000	0.000000	0.000000
13.526371	12.127665	21.492744	-0.130994	0.101565	2.516566	0.000000	-0.016322	0.000000	0.000001	0.000000	0.000000	0.000000
14.007621	12.273171	21.405874	-0.171357	0.078943	2.508711	0.000000	-0.016322	0.000000	0.000001	0.000000	0.000000	0.000000
14.304943	12.382482	21.363086	-0.165929	0.012579	2.503859	0.000000	-0.022462	0.000000	0.000001	0.000000	0.000000	0.000000
14.745903	12.687557	21.118145	-0.528539	0.540781	2.509583	0.000000	0.048450	0.000000	0.000002	0.000000	0.000000	0.000000
15.186863	13.321824	20.416483	-0.915296	1.044377	2.546668	0.000000	0.119914	0.000000	0.000002	0.000000	0.000000	0.000000
15.627823	14.314261	19.290027	-1.343870	1.500456	2.615537	0.000000	0.192743	0.000000	0.000002	0.000000	0.000000	0.000000
16.068783	15.710209	17.790030	-1.833842	1.888264	2.716974	0.000000	0.267768	0.000000	0.000002	0.000000	0.000000	0.000000
16.514743	17.597099	15.963238	-2.412354	2.190908	2.853829	0.000000	0.346305	0.000000	0.000002	0.000000	0.000000	0.000000
17.063803	20.020265	13.923323	-1.974818	1.546308	3.020246	0.000000	0.258992	0.000000	0.000002	0.000000	0.000000	0.000000
17.612863	21.883056	12.526984	-1.397791	1.011848	3.137389	0.000000	0.167085	0.000000	0.000002	0.000000	0.000000	0.000000
18.161923	23.053896	11.674764	-0.722030	0.549459	3.203180	0.000000	0.072214	0.000000	0.000002	0.000000	0.000000	0.000000
18.710983	23.450082	11.305959	0.004730	0.126208	3.216453	0.000000	-0.023937	0.000000	0.000002	-0.000000	0.000000	0.000000
19.009556	23.487658	11.221031	-0.069312	0.128698	3.211815	0.000000	-0.015533	0.000000	0.000002	0.000000	0.000000	0.000000
19.342889	23.538620	11.145298	-0.083572	0.098500	3.206638	0.000000	-0.015533	0.000000	0.000002	0.000000	0.000000	0.000000
19.676223	23.599088	11.089698	-0.097832	0.068302	3.201460	0.000000	-0.015533	0.000000	0.000002	0.000000	0.000000	0.000000
20.010806	23.669636	11.053997	-0.229418	0.092759	3.196282	0.000000	0.000303	0.000000	0.000002	0.000000	0.000000	0.000000
20.308129	23.809990	11.006904	-0.304851	0.094389	3.196372	0.000000	0.008654	0.000000	0.000002	0.000000	0.000000	0.000000
20.857189	23.734101	11.125823	0.442249	-0.312253	3.174911	0.000000	-0.086714	0.000000	0.000002	-0.000000	0.000000	0.000000
21.406249	22.850175	11.700802	1.158110	-0.741135	3.101433	0.000000	-0.180544	0.000000	0.000002	-0.000000	0.000000	0.000000
21.955309	21.220648	12.772796	1.792169	-1.222807	2.977240	0.000000	-0.271172	0.000000	0.000002	-0.000000	0.000000	0.000000
22.504369	18.960623	14.418161	2.299637	-1.791576	2.804537	0.000000	-0.356990	0.000000	0.000002	-0.000000	0.000000	0.000000
22.950329	17.179690	15.895222	1.707941	-1.506543	2.662624	0.000000	-0.279797	0.000000	0.000002	-0.000000	0.000000	0.000000
23.391289	15.902702	17.072817	1.198973	-1.153821	2.555563	0.000000	-0.206246	0.000000	0.000002	-0.000000	0.000000	0.000000
23.832249	15.048823	17.914914	0.744783	-0.748601	2.480387	0.000000	-0.135044	0.000000	0.000002	-0.000000	0.000000	0.000000
24.273209	14.579042	18.383197	0.324619	-0.309321	2.436239	0.000000	-0.065380	0.000000	0.000002	-0.000000	0.000000	0.000000
24.715418	14.472009	18.456114	-0.045311	0.098706	2.422615	0.000000	-0.002401	0.000000	0.000002	-0.000000	0.000000	0.000000
25.012741	14.505073	18.402255	-0.065898	0.082439	2.421901	0.000000	-0.002401	0.000000	0.000002	-0.000000	0.000000	0.000000
25.346075	14.556699	18.353375	-0.088978	0.064202	2.421100	0.000000	-0.002401	0.000000	0.000002	-0.000000	0.000000	0.000000
25.679408	14.623711	18.316652	-0.112058	0.045965	2.420300	0.000000	-0.002401	0.000000	0.000002	-0.000000	0.000000	0.000000
26.013991	14.706149	18.292389	-0.015919	-0.120737	2.419472	0.000000	-0.022030	0.000000	0.000002	-0.000000	0.000000	0.000000
26.311314	14.721628	18.369088	-0.000041	-0.182273	2.412922	0.000000	-0.027947	0.000000	0.000001	-0.000000	0.000000	0.000000
26.752274	14.903070	18.330568	-0.412990	0.269296	2.415706	0.000000	0.040583	0.000000	0.000001	-0.000000	0.000000	0.000000
27.193234	15.455612	17.897702	-0.844808	0.708613	2.448781	0.000000	0.109575	0.000000	0.000001	0.000000	0.000000	0.000000
27.634194	16.404499	17.090185	-1.315222	1.115688	2.512525	0.000000	0.179815	0.000000	0.000001	0.000000	0.000000	0.000000
28.075154	17.793083	15.944759	-1.845726	1.472001	2.607664	0.000000	0.252103	0.000000	0.000002	0.000000	0.000000	0.000000
28.521114	19.708935	14.496288	-2.465510	1.762253	2.736883	0.000000	0.327705	0.000000	0.000002	0.000000	0.000000	0.000000
29.070174	22.143988	12.882239	-1.943186	1.194758	2.894156	0.000000	0.244330	0.000000	0.000002	0.000000	0.000000	0.000000
29.619234	23.926240	11.841260	-1.283605	0.712363	3.004391	0.000000	0.156620	0.000000	0.000002	0.000000	0.000000	0.000000
30.168294	24.929802	11.299203	-0.533356	0.280709	3.065633	0.000000	0.066133	0.000000	0.000002	-0.000000	0.000000	0.000000
30.717354	25.083786	11.217461	0.254566	-0.130952	3.076797	0.000000	-0.025528	0.000000	0.000002	-0.000000	0.000000	0.000000
31.015927	24.974590	11.286185	0.176699	-0.128535	3.071575	0.000000	-0.017489	0.000000	0.000002	-0.000000	0.000000	0.000000
31.349260	24.861379	11.381883	0.162935	-0.158557	3.065745	0.000000	-0.017489	0.000000	0.000002	-0.000000	0.000000	0.000000
31.682593	24.757343	11.497595	0.149172	-0.188580	3.059916	0.000000	-0.017489	0.000000	0.000002	-0.000000	0.000000	0.000000
32.017177	24.662145	11.633869	0.135356	-0.218715	3.054064	0.000000	-0.017489	0.000000	0.000002	-0.000000	0.000000	0.000000
32.314499	24.585306	11.771889	0.058844	-0.214737	3.048864	0.000000	-0.009523	0.000000	0.000002	-0.000000	0.000000	0.000000
32.863559	24.099538	12.247056	0.820647	-0.655790	3.018760	0.000000	-0.099972	0.000000	0.000002	-0.000000	0.000000	0.000000
33.412619	22.804253	13.229207	1.524483	-1.143554	2.939409	0.000000	-0.188647	0.000000	0.000001	-0.000000	0.000000	0.000000
33.961679	20.790945	14.788298	2.120638	-1.712771	2.812218	0.000000	-0.273977	0.000000	0.000001	-0.000000	0.000000	0.000000
34.510739	18.201824	17.035379	2.567001	-2.403984	2.639442	0.000000	-0.354446	0.000000	0.000001	-0.000000	0.000000	0.000000
34.956699	16.188822	19.045234	1.963034	-2.084002	2.497711	0.000000	-0.281534	0.000000	0.000001	-0.000000	0.000000	0.000000
35.397659	14.687849	20.706899	1.453755	-1.669949	2.388944	0.000000	-0.212256	0.000000	0.000001	-0.000000	0.000000	0.000000
35.838619	13.605145	21.968375	1.010893	-1.179914	2.310164	0.000000	-0.145396	0.000000	0.000001	-0.000000	0.000000	0.000000
36.279579	12.891245	22.772265	0.614216	-0.636194	2.260474	0.000000	-0.080192	0.000000	0.000001	-0.000000	0.000000	0.000000
36.721789	12.512842	23.082293	0.276181	-0.120186	2.239281	0.000000	-0.021392	0.000000	0.000001	-0.000000	0.000000	0.000000
37.019112	12.356216	23.157646	0.250607	-0.133253	2.232920	0.000000	-0.021392	0.000000	0.000001	-0.000000	0.000000	0.000000
37.352445	12.198702	23.251365	0.221935	-0.147903	2.225789	0.000000	-0.021392	0.000000	0.000001	-0.000000	0.000000	0.000000
37.685779	12.060302	23.354850	0.193264	-0.162553	2.218659	0.000000	-0.021392	0.000000	0.000001	-0.000000	0.000000	0.000000
38.020362	11.940605	23.468545	0.164486	-0.177257	2.211501	0.000000	-0.021392	0.000000	0.000001	-0.000000	0.000000	0.000000
38.317684	11.850398	23.577835	0.167972	-0.248144	2.205141	0.000000	-0.026800	0.000000	0.000001	-0.000000	0.000000	0.000000
38.758644	11.853422	23.535543	-0.174857	0.343687	2.207248	0.000000	0.036365	0.000000	0.000001	-0.000000	0.000000	0.000000
39.199604	12.161161	22.976232	-0.525674	0.919880	2.237273	0.000000	0.099943	0.000000	0.000001	-0.000000	0.000000	0.000000
39.640564	12.787673	21.925350	-0.900508	1.454220	2.295557	0.000000	0.164660	0.000000	0.000000	-0.000000	0.000000	0.000000
40.081524	13.761583	20.430711	-1.316484	1.922394	2.382765	0.000000	0.231253	0.000000	0.000000	-0.000000	0.000000	0.000000
40.527484	15.144947	18.537752	-1.796429	2.304378	2.501361	0.000000	0.300884	0.000000	0.000000	-0.000000	0.000000	0.000000
41.076544	16.910550	16.410646	-1.400219	1.592577	2.646040	0.000000	0.225344	0.000000	0.000000	-0.000000	0.000000	0.000000
41.625604	18.183848	14.998678	-0.905104	0.994212	2.748082	0.000000	0.145806	0.000000	0.000000	-0.000000	0.000000	0.000000
42.174664	18.874901	14.201277	-0.346057	0.466663	2.805677	0.000000	0.063682	0.000000	0.000000	-0.000000	0.000000	0.000000
42.723724	18.934897	13.961646	0.237433	-0.027647	2.817805	0.000000	-0.019571	0.000000	0.000000	-0.000000	0.000000	0.000000
43.022297	18.827532	13.962758	0.171635	-0.012555	2.814160	0.000000	-0.012209	0.000000	0.000000	-0.000000	0.000000	0.000000
43.502297	18.675361	13.991314	0.145389	-0.046938	2.808300	0.000000	-0.012209	0.000000	0.000000	-0.000000	0.000000	0.000000
43.982297	18.548385	14.052878	0.119143	-0.081320	2.802439	0.000000	-0.012209	0.000000	0.000000	-0.000000	0.000000	0.000000
44.462297	18.446606	14.147449	0.092898	-0.115703	2.796579	0.000000	-0.012209	0.000000	0.000000	-0.000000	0.000000	0.000000
44.942297	18.370022	14.275028	0.066652	-0.150085	2.790719	0.000000	-0.012209	0.000000	0.000000	-0.000000	0.000000	0.000000
45.423547	18.318760	14.435896	-0.050423	-0.113033	2.784861	0.000000	0.001589	0.000000	-0.000000	-0.000000	0.000000	0.000000
45.720870	18.353581	14.509312	-0.114649	-0.095982	2.785333	0.000000	0.008867	0.000000	-0.000000	-0.000000	0.000000	0.000000
46.269930	18.170435	14.895419	0.446238	-0.611382	2.767634	0.000000	-0.073244	0.000000	-0.000000	-0.000000	0.000000	0.000000
46.818990	17.385108	15.867945	0.975606	-1.170330	2.705141	0.000000	-0.154056	0.000000	-0.000000	-0.000000	0.000000	0.000000
47.368050	16.053073	17.496162	1.436062	-1.812637	2.598963	0.000000	-0.232135	0.000000	-0.000000	-0.000000	0.000000	0.000000
47.917110	14.268417	19.896043	1.795081	-2.584054	2.450985	0.000000	-0.306097	0.000000	-0.000000	-0.000000	0.000000	0.000000
48.363070	12.879459	22.029860	1.330486	-2.180604	2.329768	0.000000	-0.237807	0.000000	-0.000000	-0.000000	0.000000	0.000000
48.804030	11.886248	23.738384	0.930443	-1.679206	2.239362	0.000000	-0.172622	0.000000	-0.000000	-0.000000	0.000000	0.000000
49.244990	11.225835	24.969206	0.572910	-1.101406	2.177241	0.000000	-0.109403	0.000000	-0.000000	-0.000000	0.000000	0.000000
49.685950	10.868047	25.666326	0.241551	-0.473493	2.142695	0.000000	-0.047430	0.000000	-0.000000	-0.000000	0.000000	0.000000
50.128160	10.796670	25.797743	-0.052411	0.112650	2.135343	0.000000	0.008766	0.000000	-0.000000	-0.000000	0.000000	0.000000
50.425482	10.836046	25.734227	-0.080025	0.100979	2.137949	0.000000	0.008766	0.000000	-0.000001	-0.000000	0.000000	0.000000
50.758816	10.899716	25.671269	-0.110984	0.087894	2.140871	0.000000	0.008766	0.000000	-0.000001	-0.000000	0.000000	0.000000
51.092149	10.984025	25.617034	-0.141942	0.074809	2.143793	0.000000	0.008766	0.000000	-0.000001	-0.000000	0.000000	0.000000
51.426732	11.089180	25.571888	-0.083054	-0.145777	2.146704	0.000000	-0.008649	0.000000	-0.000001	-0.000000	0.000000	0.000000
51.724055	11.146594	25.662104	-0.082716	-0.220582	2.144133	0.000000	-0.013908	0.000000	-0.000001	-0.000000	0.000000	0.000000
52.165015	11.365042	25.571175	-0.414555	0.426002	2.151588	0.000000	0.047753	0.000000	-0.000001	-0.000000	0.000000	0.000000
52.605975	11.883359	24.916413	-0.765333	1.053204	2.186327	0.000000	0.109958	0.000000	-0.000001	-0.000000	0.000000	0.000000
53.046935	12.725225	23.727607	-1.151077	1.632486	2.248746	0.000000	0.173415	0.000000	-0.000001	-0.000000	0.000000	0.000000
53.487895	13.929104	22.058848	-1.589411	2.137491	2.339555	0.000000	0.238847	0.000000	-0.000001	-0.000000	0.000000	0.000000
53.933855	15.570626	19.961109	-2.104599	2.546576	2.461293	0.000000	0.307398	0.000000	-0.000001	-0.000000	0.000000	0.000000
54.482915	17.683974	17.600726	-1.721646	1.777752	2.609893	0.000000	0.233092	0.000000	-0.000001	-0.000000	0.000000	0.000000
55.031975	19.307122	16.010534	-1.217085	1.135553	2.716497	0.000000	0.154652	0.000000	-0.000001	-0.000000	0.000000	0.000000
55.581035	20.325420	15.077266	-0.626556	0.574237	2.779215	0.000000	0.073468	0.000000	-0.000001	-0.000000	0.000000	0.000000
56.130095	20.666939	14.734447	0.008231	0.053822	2.796935	0.000000	-0.009018	0.000000	-0.000001	-0.000000	0.000000	0.000000
56.428668	20.698592	14.685420	-0.060246	0.071885	2.796424	0.000000	-0.001710	0.000000	-0.000001	-0.000000	0.000000	0.000000
56.762001	20.744143	14.645102	-0.076408	0.049069	2.795854	0.000000	-0.001710	0.000000	-0.000001	-0.000000	0.000000	0.000000
57.095334	20.800470	14.619995	-0.092571	0.026254	2.795284	0.000000	-0.001710	0.000000	-0.000001	-0.000000	0.000000	0.000000
57.429918	20.867843	14.610089	-0.108794	0.003352	2.794712	0.000000	-0.001710	0.000000	-0.000001	-0.000000	0.000000	0.000000
57.727240	20.936824	14.614146	-0.177915	0.021186	2.794203	0.000000	0.005590	0.000000	-0.000001	-0.000000	0.000000	0.000000
58.276300	20.774938	14.871598	0.471012	-0.492850	2.774631	0.000000	-0.076778	0.000000	-0.000002	-0.000000	0.000000	0.000000
58.825360	19.914584	15.709374	1.086670	-1.041992	2.710142	0.000000	-0.157784	0.000000	-0.000002	0.000000	0.000000	0.000000
59.374420	18.416533	17.187145	1.625571	-1.665352	2.601880	0.000000	-0.235991	0.000000	-0.000001	0.000000	0.000000	0.000000
59.923480	16.386600	19.410171	2.049650	-2.407332	2.451764	0.000000	-0.310013	0.000000	-0.000001	0.000000	0.000000	0.000000
60.369440	14.797676	21.386099	1.525898	-2.004698	2.328802	0.000000	-0.241725	0.000000	-0.000001	0.000000	0.000000	0.000000
60.810400	13.654647	22.942844	1.076073	-1.512222	2.236660	0.000000	-0.176587	0.000000	-0.000001	0.000000	0.000000	0.000000
61.251360	12.885231	24.033149	0.675412	-0.950940	2.172771	0.000000	-0.113461	0.000000	-0.000001	0.000000	0.000000	0.000000
61.692320	12.454276	24.607405	0.305607	-0.346392	2.136407	0.000000	-0.051627	0.000000	-0.000001	-0.000000	0.000000	0.000000
62.134530	12.342142	24.638953	-0.020069	0.213440	2.127160	0.000000	0.004403	0.000000	-0.000001	-0.000000	0.000000	0.000000
62.431853	12.361241	24.515783	-0.044169	0.200823	2.128469	0.000000	0.004403	0.000000	-0.000001	-0.000000	0.000000	0.000000
62.765186	12.399693	24.386616	-0.071187	0.186678	2.129937	0.000000	0.004403	0.000000	-0.000001	-0.000000	0.000000	0.000000
63.098520	12.456157	24.266880	-0.098206	0.172533	2.131404	0.000000	0.004403	0.000000	-0.000001	-0.000000	0.000000	0.000000
63.433103	12.530947	24.156177	-0.125326	0.158334	2.132878	0.000000	0.004403	0.000000	-0.000001	-0.000000	0.000000	0.000000
63.730426	12.612637	24.065776	-0.118495	0.086700	2.134187	0.000000	-0.000831	0.000000	-0.000001	-0.000000	0.000000	0.000000
64.171386	12.877686	23.724260	-0.484857	0.684835	2.147362	0.000000	0.060647	0.000000	-0.000001	-0.000000	0.000000	0.000000
64.612346	13.474346	22.867015	-0.873371	1.251810	2.187774	0.000000	0.122816	0.000000	-0.000002	-0.000000	0.000000	0.000000
65.053306	14.429878	21.533045	-1.301786	1.761829	2.255882	0.000000	0.186384	0.000000	-0.000002	-0.000000	0.000000	0.000000
65.494266	15.787938	19.783044	-1.789677	2.191685	2.352461	0.000000	0.252074	0.000000	-0.000002	-0.000000	0.000000	0.000000
65.940226	17.633741	17.671862	-2.364027	2.522580	2.480184	0.000000	0.321037	0.000000	-0.000002	-0.000000	0.000000	0.000000
66.489286	19.999652	15.310020	-1.919487	1.804421	2.636083	0.000000	0.246001	0.000000	-0.000002	-0.000000	0.000000	0.000000
67.038346	21.799612	13.662022	-1.339364	1.214787	2.749522	0.000000	0.166601	0.000000	-0.000002	-0.000000	0.000000	0.000000
67.587406	22.906479	12.610483	-0.664635	0.711679	2.818489	0.000000	0.084247	0.000000	-0.000002	-0.000000	0.000000	0.000000
68.136466	23.242071	12.080506	0.057041	0.259263	2.841760	0.000000	0.000398	0.000000	-0.000002	0.000000	0.000000	0.000000
68.435038	23.248109	11.914843	-0.016534	0.264022	2.844096	0.000000	0.007823	0.000000	-0.000002	-0.000000	0.000000	0.000000
68.768372	23.263912	11.748804	-0.030876	0.234095	2.846704	0.000000	0.007823	0.000000	-0.000002	-0.000000	0.000000	0.000000
69.101705	23.289277	11.602716	-0.045218	0.204169	2.849311	0.000000	0.007823	0.000000	-0.000002	-0.000000	0.000000	0.000000
69.436288	23.324352	11.476144	-0.059614	0.174130	2.851929	0.000000	0.007823	0.000000	-0.000002	-0.000000	0.000000	0.000000
69.733611	23.363605	11.380535	-0.133452	0.177172	2.854255	0.000000	0.015281	0.000000	-0.000002	-0.000000	0.000000	0.000000
70.282671	23.108904	11.413811	0.594591	-0.238135	2.839455	0.000000	-0.069111	0.000000	-0.000002	0.000000	0.000000	0.000000
