#ParticleID	Turn	x[m]	xp	y[m]	yp	z[m]	dE[GeV]# s	beta_x	beta_y	alpha_x	alpha_y	D_x	D_y	D_px	D_py	orbit_x	orbit_px	orbit_y	orbit_py
0.300000	11.804843	25.054269	-0.010150	-0.026857	2.618235	0.000000	-0.000033	0.000000	-0.000002	0.000002	0.000000	0.000000
0.601250	11.818647	25.074075	-0.035672	-0.038889	2.618224	0.000000	-0.000033	0.000000	-0.000001	0.000002	0.000000	0.000000
0.898573	11.847348	25.100731	-0.031807	-0.112319	2.618214	0.000000	-0.006454	0.000000	-0.000001	0.000002	0.000000	0.000000
1.339533	12.027422	24.921334	-0.378110	0.517605	2.631661	0.000000	0.067506	0.000000	-0.000000	0.000002	0.000000	0.000000
1.780493	12.519342	24.194696	-0.741688	1.123979	2.677860	0.000000	0.142234	0.000000	0.000001	0.000002	0.000000	0.000000
2.221453	13.345583	22.953879	-1.139151	1.679212	2.757336	0.000000	0.218583	0.000000	0.000002	0.000002	0.000000	0.000000
2.662413	14.543892	21.255339	-1.588659	2.158043	2.870995	0.000000	0.297420	0.000000	0.000002	0.000002	0.000000	0.000000
3.108373	16.189737	19.151452	-2.115033	2.539818	3.021993	0.000000	0.380135	0.000000	0.000003	0.000002	0.000000	0.000000
3.657433	18.300295	16.788424	-1.706159	1.789356	3.205438	0.000000	0.287098	0.000000	0.000004	0.000002	0.000000	0.000000
4.206493	19.892623	15.175088	-1.176770	1.166347	3.336324	0.000000	0.188968	0.000000	0.000005	0.000002	0.000000	0.000000
4.755553	20.854246	14.196531	-0.564260	0.626413	3.412330	0.000000	0.087486	0.000000	0.000006	0.000001	0.000000	0.000000
5.304613	21.117241	13.783053	0.088106	0.131098	3.432107	0.000000	-0.015548	0.000000	0.000007	0.000001	0.000000	0.000000
5.603185	21.101801	13.689913	0.018780	0.144841	3.430142	0.000000	-0.006581	0.000000	0.000007	0.000001	0.000000	0.000000
5.936519	21.094548	13.601639	0.002978	0.119982	3.427948	0.000000	-0.006581	0.000000	0.000008	0.000001	0.000000	0.000000
6.269852	21.097830	13.529938	-0.012824	0.095122	3.425754	0.000000	-0.006581	0.000000	0.000008	0.000001	0.000000	0.000000
6.604435	21.111719	13.474634	-0.028686	0.070169	3.423552	0.000000	-0.006581	0.000000	0.000008	0.000001	0.000000	0.000000
6.901758	21.132967	13.439501	-0.097993	0.083108	3.421595	0.000000	0.002358	0.000000	0.000009	0.000001	0.000000	0.000000
7.450818	20.880440	13.609195	0.555198	-0.393994	3.394689	0.000000	-0.100219	0.000000	0.000010	0.000001	0.000000	0.000000
7.999878	19.928020	14.315048	1.169172	-0.899160	3.311868	0.000000	-0.201019	0.000000	0.000010	0.000001	0.000000	0.000000
8.548938	18.342981	15.607337	1.700562	-1.468370	3.174600	0.000000	-0.298253	0.000000	0.000010	0.000000	0.000000	0.000000
9.097998	16.237283	17.578107	2.111832	-2.142170	2.985321	0.000000	-0.390197	0.000000	0.000010	0.000000	0.000000	0.000000
9.543958	14.594503	19.334133	1.584958	-1.778817	2.829615	0.000000	-0.308495	0.000000	0.000010	0.000000	0.000000	0.000000
9.984918	13.399739	20.712786	1.134781	-1.335765	2.710826	0.000000	-0.230790	0.000000	0.000011	0.000001	0.000000	0.000000
10.425878	12.577720	21.672307	0.736448	-0.831937	2.625691	0.000000	-0.155713	0.000000	0.000011	0.000001	0.000000	0.000000
10.866838	12.090891	22.169040	0.371762	-0.290257	2.573239	0.000000	-0.082410	0.000000	0.000011	0.000001	0.000000	0.000000
11.309048	11.916876	22.179858	0.053176	0.210184	2.552853	0.000000	-0.016306	0.000000	0.000012	0.000001	0.000000	0.000000
11.606371	11.892694	22.059035	0.028156	0.196187	2.548004	0.000000	-0.016306	0.000000	0.000012	0.000001	0.000000	0.000000
12.086371	11.885053	21.881542	-0.012237	0.173590	2.540177	0.000000	-0.016306	0.000000	0.000013	0.000001	0.000000	0.000000
12.566371	11.916190	21.725743	-0.052630	0.150992	2.532349	0.000000	-0.016306	0.000000	0.000014	0.000001	0.000000	0.000000
13.046371	11.986103	21.591637	-0.093023	0.128395	2.524522	0.000000	-0.016306	0.000000	0.000014	0.000001	0.000000	0.000000
13.526371	12.094794	21.479224	-0.133416	0.105798	2.516695	0.000000	-0.016306	0.000000	0.000015	0.000001	0.000000	0.000000
14.007621	12.242697	21.388297	-0.173914	0.083142	2.508847	0.000000	-0.016306	0.000000	0.000016	0.000001	0.000000	0.000000
14.304943	12.353553	21.343019	-0.168644	0.016813	2.503999	0.000000	-0.022445	0.000000	0.000016	0.000001	0.000000	0.000000
14.745903	12.660763	21.094609	-0.530683	0.544381	2.509731	0.000000	0.048471	0.000000	0.000017	0.000002	0.000000	0.000000
15.186863	13.296707	20.390113	-0.916967	1.047180	2.546825	0.000000	0.119938	0.000000	0.000018	0.000002	0.000000	0.000000
15.627823	14.290439	19.261585	-1.345145	1.502334	2.615705	0.000000	0.192772	0.000000	0.000019	0.000003	0.000000	0.000000
16.068783	15.687359	17.760371	-1.834778	1.889132	2.717155	0.000000	0.267801	0.000000	0.000020	0.000003	0.000000	0.000000
16.514743	17.574951	15.933277	-2.412996	2.190718	2.854024	0.000000	0.346343	0.000000	0.000022	0.000004	0.000000	0.000000
17.063803	19.999404	13.893231	-1.976506	1.546738	3.020458	0.000000	0.259023	0.000000	0.000024	0.000003	0.000000	0.000000
17.612863	21.864573	12.496067	-1.400404	1.012928	3.137616	0.000000	0.167109	0.000000	0.000025	0.000002	0.000000	0.000000
18.161923	23.038711	11.642270	-0.725386	0.551267	3.203418	0.000000	0.072231	0.000000	0.000026	0.000001	0.000000	0.000000
18.710983	23.438882	11.271024	0.000871	0.128872	3.216697	0.000000	-0.023928	0.000000	0.000027	0.000001	0.000000	0.000000
19.009556	23.478741	11.184595	-0.073142	0.131160	3.212062	0.000000	-0.015525	0.000000	0.000027	0.000001	0.000000	0.000000
19.342889	23.532260	11.107260	-0.087415	0.100845	3.206886	0.000000	-0.015525	0.000000	0.000027	0.000001	0.000000	0.000000
19.676223	23.595294	11.050135	-0.101688	0.070529	3.201711	0.000000	-0.015525	0.000000	0.000027	0.000001	0.000000	0.000000
20.010806	23.668427	11.012984	-0.233281	0.094665	3.196536	0.000000	0.000312	0.000000	0.000027	0.000001	0.000000	0.000000
20.308129	23.811085	10.964791	-0.308726	0.096068	3.196628	0.000000	0.008662	0.000000	0.000028	0.000001	0.000000	0.000000
20.857189	23.739411	11.081210	0.438493	-0.309352	3.175169	0.000000	-0.086714	0.000000	0.000028	-0.000000	0.000000	0.000000
21.406249	22.859422	11.652242	1.154739	-0.736806	3.101688	0.000000	-0.180553	0.000000	0.000028	-0.000001	0.000000	0.000000
21.955309	21.233275	12.718563	1.789420	-1.216741	2.977490	0.000000	-0.271189	0.000000	0.000027	-0.000002	0.000000	0.000000
22.504369	18.975833	14.356123	2.297705	-1.783342	2.804776	0.000000	-0.357015	0.000000	0.000026	-0.000003	0.000000	0.000000
22.950329	17.196667	15.826456	1.705895	-1.499754	2.662854	0.000000	-0.279816	0.000000	0.000025	-0.000002	0.000000	0.000000
23.391289	15.921567	16.998815	1.196719	-1.148780	2.555786	0.000000	-0.206259	0.000000	0.000024	-0.000001	0.000000	0.000000
23.832249	15.069804	17.837324	0.742218	-0.745538	2.480606	0.000000	-0.135051	0.000000	0.000023	-0.000001	0.000000	0.000000
24.273209	14.602464	18.303832	0.321626	-0.308374	2.436457	0.000000	-0.065381	0.000000	0.000023	-0.000000	0.000000	0.000000
24.715418	14.498317	18.376869	-0.048811	0.097696	2.422833	0.000000	-0.002396	0.000000	0.000023	0.000000	0.000000	0.000000
25.012741	14.533454	18.323631	-0.069367	0.081362	2.422121	0.000000	-0.002396	0.000000	0.000023	0.000000	0.000000	0.000000
25.346075	14.587381	18.275494	-0.092413	0.063050	2.421322	0.000000	-0.002396	0.000000	0.000023	0.000000	0.000000	0.000000
25.679408	14.656672	18.239564	-0.115459	0.044738	2.420523	0.000000	-0.002396	0.000000	0.000023	0.000000	0.000000	0.000000
26.013991	14.741374	18.216146	-0.019000	-0.121420	2.419696	0.000000	-0.022027	0.000000	0.000024	0.000000	0.000000	0.000000
26.311314	14.758671	18.293272	-0.002992	-0.182833	2.413147	0.000000	-0.027943	0.000000	0.000024	0.000000	0.000000	0.000000
26.752274	14.943125	18.256152	-0.416897	0.266694	2.415934	0.000000	0.040593	0.000000	0.000024	0.000001	0.000000	0.000000
27.193234	15.499598	17.826441	-0.849848	0.704087	2.449014	0.000000	0.109591	0.000000	0.000024	0.000001	0.000000	0.000000
27.634194	16.453514	17.023692	-1.321627	1.109444	2.512766	0.000000	0.179837	0.000000	0.000025	0.000002	0.000000	0.000000
28.075154	17.848453	15.884428	-1.853787	1.464323	2.607915	0.000000	0.252131	0.000000	0.000026	0.000003	0.000000	0.000000
28.521114	19.772379	14.443321	-2.475614	1.753487	2.737147	0.000000	0.327741	0.000000	0.000027	0.000003	0.000000	0.000000
29.070174	22.217689	12.837735	-1.951649	1.188017	2.894435	0.000000	0.244356	0.000000	0.000029	0.000002	0.000000	0.000000
29.619234	24.008055	11.803272	-1.289829	0.707166	3.004681	0.000000	0.156637	0.000000	0.000030	0.000001	0.000000	0.000000
30.168294	25.017013	11.266249	-0.536902	0.276685	3.065930	0.000000	0.066140	0.000000	0.000030	0.000000	0.000000	0.000000
30.717354	25.173296	11.188414	0.253949	-0.134089	3.077094	0.000000	-0.025531	0.000000	0.000030	-0.000001	0.000000	0.000000
31.015927	25.064585	11.259088	0.175912	-0.131842	3.071872	0.000000	-0.017493	0.000000	0.000030	-0.000000	0.000000	0.000000
31.349260	24.951880	11.357023	0.162202	-0.161962	3.066041	0.000000	-0.017493	0.000000	0.000030	-0.000000	0.000000	0.000000
31.682593	24.848316	11.475038	0.148491	-0.192083	3.060210	0.000000	-0.017493	0.000000	0.000030	-0.000000	0.000000	0.000000
32.017177	24.753555	11.613689	0.134729	-0.222316	3.054358	0.000000	-0.017493	0.000000	0.000030	-0.000000	0.000000	0.000000
32.314499	24.677075	11.753876	0.058039	-0.218479	3.049157	0.000000	-0.009528	0.000000	0.000030	-0.000000	0.000000	0.000000
32.863559	24.190512	12.232963	0.822889	-0.659231	3.019048	0.000000	-0.099986	0.000000	0.000029	-0.000001	0.000000	0.000000
33.412619	22.891153	13.218839	1.529615	-1.146938	2.939687	0.000000	-0.188671	0.000000	0.000028	-0.000002	0.000000	0.000000
33.961679	20.870779	14.781725	2.128296	-1.716338	2.812482	0.000000	-0.274009	0.000000	0.000027	-0.000003	0.000000	0.000000
34.510739	18.272100	17.032941	2.576644	-2.407990	2.639688	0.000000	-0.354487	0.000000	0.000025	-0.000004	0.000000	0.000000
34.956699	16.251466	19.046605	1.970563	-2.088504	2.497942	0.000000	-0.281569	0.000000	0.000023	-0.000003	0.000000	0.000000
35.397659	14.744648	20.712383	1.459530	-1.674735	2.389162	0.000000	-0.212285	0.000000	0.000022	-0.000003	0.000000	0.000000
35.838619	13.657523	21.978126	1.015179	-1.184768	2.310372	0.000000	-0.145419	0.000000	0.000021	-0.000002	0.000000	0.000000
36.279579	12.940425	22.786245	0.617209	-0.640894	2.260673	0.000000	-0.080210	0.000000	0.000020	-0.000002	0.000000	0.000000
36.721789	12.559896	23.100283	0.278127	-0.124553	2.239474	0.000000	-0.021404	0.000000	0.000019	-0.000001	0.000000	0.000000
37.019112	12.402092	23.178234	0.252623	-0.137623	2.233110	0.000000	-0.021404	0.000000	0.000019	-0.000001	0.000000	0.000000
37.352445	12.243207	23.274867	0.224031	-0.152277	2.225976	0.000000	-0.021404	0.000000	0.000018	-0.000001	0.000000	0.000000
37.685779	12.103384	23.381270	0.195438	-0.166931	2.218842	0.000000	-0.021404	0.000000	0.000018	-0.000001	0.000000	0.000000
38.020362	11.982206	23.497895	0.166739	-0.181639	2.211680	0.000000	-0.021404	0.000000	0.000017	-0.000001	0.000000	0.000000
38.317684	11.890638	23.609793	0.170390	-0.252599	2.205317	0.000000	-0.026812	0.000000	0.000017	-0.000001	0.000000	0.000000
38.758644	11.891930	23.571043	-0.173330	0.340140	2.207420	0.000000	0.036357	0.000000	0.000017	-0.000001	0.000000	0.000000
39.199604	12.198688	23.014399	-0.524969	0.917402	2.237443	0.000000	0.099941	0.000000	0.000016	-0.000000	0.000000	0.000000
39.640564	12.824928	21.965187	-0.900593	1.452924	2.295727	0.000000	0.164662	0.000000	0.000016	-0.000000	0.000000	0.000000
40.081524	13.799261	20.471146	-1.317361	1.922339	2.382936	0.000000	0.231259	0.000000	0.000016	0.000000	0.000000	0.000000
40.527484	15.183780	18.577674	-1.798145	2.305575	2.501536	0.000000	0.300895	0.000000	0.000017	0.000001	0.000000	0.000000
41.076544	16.950467	16.449815	-1.400466	1.592756	2.646219	0.000000	0.225348	0.000000	0.000017	0.000000	0.000000	0.000000
41.625604	18.223217	15.038200	-0.903864	0.993385	2.748262	0.000000	0.145805	0.000000	0.000017	-0.000000	0.000000	0.000000
42.174664	18.912128	14.242283	-0.343418	0.464771	2.805855	0.000000	0.063675	0.000000	0.000017	-0.000001	0.000000	0.000000
42.723724	18.968539	14.005371	0.241285	-0.030738	2.817978	0.000000	-0.019584	0.000000	0.000016	-0.000001	0.000000	0.000000
43.022297	18.858921	14.008242	0.175411	-0.015468	2.814329	0.000000	-0.012222	0.000000	0.000016	-0.000001	0.000000	0.000000
43.502297	18.703119	14.039543	0.149176	-0.049742	2.808464	0.000000	-0.012222	0.000000	0.000015	-0.000001	0.000000	0.000000
43.982297	18.572503	14.103747	0.122941	-0.084016	2.802598	0.000000	-0.012222	0.000000	0.000014	-0.000001	0.000000	0.000000
44.462297	18.467072	14.200853	0.096705	-0.118290	2.796732	0.000000	-0.012222	0.000000	0.000014	-0.000001	0.000000	0.000000
44.942297	18.386828	14.330863	0.070470	-0.152563	2.790866	0.000000	-0.012222	0.000000	0.000013	-0.000001	0.000000	0.000000
45.423547	18.331886	14.494063	-0.046660	-0.115114	2.785002	0.000000	0.001577	0.000000	0.000012	-0.000001	0.000000	0.000000
45.720870	18.364465	14.568694	-0.110892	-0.097838	2.785471	0.000000	0.008854	0.000000	0.000012	-0.000001	0.000000	0.000000
46.269930	18.177025	14.957842	0.450254	-0.615097	2.767764	0.000000	-0.073262	0.000000	0.000011	-0.000002	0.000000	0.000000
46.818990	17.387276	15.935583	0.979596	-1.176169	2.705261	0.000000	-0.154077	0.000000	0.000010	-0.000002	0.000000	0.000000
47.368050	16.051002	17.571561	1.439745	-1.821016	2.599072	0.000000	-0.232160	0.000000	0.000009	-0.000002	0.000000	0.000000
47.917110	14.262590	19.982303	1.798197	-2.595571	2.451080	0.000000	-0.306126	0.000000	0.000008	-0.000003	0.000000	0.000000
48.363070	12.870946	22.125579	1.333419	-2.190207	2.329852	0.000000	-0.237833	0.000000	0.000007	-0.000002	0.000000	0.000000
48.804030	11.875176	23.841567	0.933332	-1.686467	2.239437	0.000000	-0.172646	0.000000	0.000006	-0.000002	0.000000	0.000000
49.244990	11.212187	25.077634	0.575886	-1.105994	2.177306	0.000000	-0.109425	0.000000	0.000005	-0.000002	0.000000	0.000000
49.685950	10.851686	25.777540	0.244750	-0.475199	2.142751	0.000000	-0.047451	0.000000	0.000004	-0.000002	0.000000	0.000000
50.128160	10.777327	25.909156	-0.048891	0.113633	2.135391	0.000000	0.008747	0.000000	0.000003	-0.000002	0.000000	0.000000
50.425482	10.814622	25.845040	-0.076545	0.102010	2.137992	0.000000	0.008747	0.000000	0.000003	-0.000002	0.000000	0.000000
50.758816	10.875987	25.781377	-0.107548	0.088978	2.140909	0.000000	0.008747	0.000000	0.000002	-0.000002	0.000000	0.000000
51.092149	10.958020	25.726402	-0.138551	0.075947	2.143825	0.000000	0.008747	0.000000	0.000001	-0.000002	0.000000	0.000000
51.426732	11.060921	25.680479	-0.079937	-0.145466	2.146730	0.000000	-0.008669	0.000000	0.000001	-0.000002	0.000000	0.000000
51.724055	11.116499	25.770495	-0.079728	-0.220487	2.144153	0.000000	-0.013927	0.000000	0.000000	-0.000002	0.000000	0.000000
52.165015	11.331987	25.678217	-0.410805	0.428957	2.151601	0.000000	0.047734	0.000000	-0.000001	-0.000002	0.000000	0.000000
52.605975	11.846600	25.019632	-0.760651	1.058884	2.186332	0.000000	0.109939	0.000000	-0.000001	-0.000002	0.000000	0.000000
53.046935	12.683848	23.824707	-1.145248	1.640632	2.248744	0.000000	0.173396	0.000000	-0.000002	-0.000002	0.000000	0.000000
53.487895	13.881984	22.147809	-1.582169	2.147733	2.339545	0.000000	0.238828	0.000000	-0.000003	-0.000002	0.000000	0.000000
53.933855	15.516289	20.040165	-2.095598	2.558452	2.461276	0.000000	0.307379	0.000000	-0.000004	-0.000002	0.000000	0.000000
54.482915	17.620465	17.668464	-1.714041	1.786613	2.609866	0.000000	0.233074	0.000000	-0.000005	-0.000002	0.000000	0.000000
55.031975	19.236279	16.069899	-1.211413	1.142030	2.716461	0.000000	0.154634	0.000000	-0.000006	-0.000002	0.000000	0.000000
55.581035	20.249599	15.130610	-0.623217	0.578791	2.779171	0.000000	0.073452	0.000000	-0.000007	-0.000002	0.000000	0.000000
56.130095	20.588849	14.783692	0.009000	0.056779	2.796883	0.000000	-0.009033	0.000000	-0.000008	-0.000001	0.000000	0.000000
56.428668	20.619939	14.732804	-0.059329	0.075029	2.796368	0.000000	-0.001725	0.000000	-0.000008	-0.000001	0.000000	0.000000
56.762001	20.664900	14.690369	-0.075552	0.052276	2.795794	0.000000	-0.001725	0.000000	-0.000009	-0.000001	0.000000	0.000000
57.095334	20.720675	14.663103	-0.091774	0.029523	2.795220	0.000000	-0.001725	0.000000	-0.000009	-0.000001	0.000000	0.000000
57.429918	20.787536	14.650988	-0.108058	0.006685	2.794643	0.000000	-0.001725	0.000000	-0.000009	-0.000001	0.000000	0.000000
57.727240	20.856094	14.653046	-0.177025	0.024679	2.794131	0.000000	0.005577	0.000000	-0.000010	-0.000001	0.000000	0.000000
58.276300	20.694720	14.907258	0.469195	-0.490407	2.774552	0.000000	-0.076789	0.000000	-0.000010	-0.000001	0.000000	0.000000
58.825360	19.837799	15.742844	1.082273	-1.040424	2.710058	0.000000	-0.157793	0.000000	-0.000011	-0.000001	0.000000	0.000000
59.374420	18.345858	17.219321	1.618905	-1.664548	2.601792	0.000000	-0.235997	0.000000	-0.000011	-0.000000	0.000000	0.000000
59.923480	16.324283	19.441854	2.041186	-2.407234	2.451674	0.000000	-0.310016	0.000000	-0.000011	0.000000	0.000000	0.000000
60.369440	14.742062	21.417213	1.519276	-2.003521	2.328710	0.000000	-0.241730	0.000000	-0.000011	-0.000000	0.000000	0.000000
60.810400	13.604181	22.972465	1.070977	-1.510026	2.236566	0.000000	-0.176595	0.000000	-0.000011	-0.000001	0.000000	0.000000
61.251360	12.838674	24.060420	0.671608	-0.947827	2.172673	0.000000	-0.113471	0.000000	-0.000012	-0.000001	0.000000	0.000000
61.692320	12.410568	24.631577	0.302923	-0.342502	2.136304	0.000000	-0.051640	0.000000	-0.000012	-0.000001	0.000000	0.000000
62.134530	12.300360	24.659404	-0.021856	0.217873	2.127051	0.000000	0.004387	0.000000	-0.000013	-0.000001	0.000000	0.000000
62.431853	12.320547	24.533602	-0.046040	0.205244	2.128356	0.000000	0.004387	0.000000	-0.000013	-0.000001	0.000000	0.000000
62.765186	12.360277	24.401492	-0.073152	0.191084	2.129818	0.000000	0.004387	0.000000	-0.000014	-0.000001	0.000000	0.000000
63.098520	12.418083	24.278822	-0.100265	0.176925	2.131281	0.000000	0.004387	0.000000	-0.000014	-0.000001	0.000000	0.000000
63.433103	12.494282	24.165185	-0.127479	0.162713	2.132749	0.000000	0.004387	0.000000	-0.000015	-0.000001	0.000000	0.000000
63.730426	12.577277	24.072184	-0.120814	0.091043	2.134054	0.000000	-0.000847	0.000000	-0.000015	-0.000001	0.000000	0.000000
64.171386	12.844035	23.726799	-0.486430	0.689234	2.147223	0.000000	0.060627	0.000000	-0.000016	-0.000002	0.000000	0.000000
64.612346	13.441781	22.865723	-0.874269	1.256065	2.187625	0.000000	0.122792	0.000000	-0.000017	-0.000002	0.000000	0.000000
65.053306	14.397823	21.528135	-1.302051	1.765747	2.255722	0.000000	0.186356	0.000000	-0.000018	-0.000003	0.000000	0.000000
65.494266	15.755841	19.774894	-1.789320	2.195088	2.352290	0.000000	0.252042	0.000000	-0.000019	-0.000003	0.000000	0.000000
65.940226	17.601040	17.660969	-2.363028	2.525306	2.479999	0.000000	0.321000	0.000000	-0.000020	-0.000004	0.000000	0.000000
66.489286	19.966571	15.296220	-1.919800	1.807023	2.635881	0.000000	0.245971	0.000000	-0.000022	-0.000003	0.000000	0.000000
67.038346	21.767588	13.645347	-1.340968	1.217452	2.749306	0.000000	0.166578	0.000000	-0.000024	-0.000002	0.000000	0.000000
67.587406	22.876876	12.590762	-0.667416	0.714596	2.818263	0.000000	0.084230	0.000000	-0.000025	-0.000001	0.000000	0.000000
68.136466	23.216082	12.057350	0.053279	0.262639	2.841528	0.000000	0.000389	0.000000	-0.000025	-0.000001	0.000000	0.000000
68.435038	23.224336	11.889733	-0.020254	0.267245	2.843862	0.000000	0.007815	0.000000	-0.000025	-0.000001	0.000000	0.000000
68.768372	23.242626	11.721583	-0.034613	0.237207	2.846467	0.000000	0.007815	0.000000	-0.000026	-0.000001	0.000000	0.000000
69.101705	23.270487	11.573458	-0.048972	0.207169	2.849072	0.000000	0.007815	0.000000	-0.000026	-0.000001	0.000000	0.000000
69.436288	23.308080	11.444915	-0.063384	0.177019	2.851687	0.000000	0.007815	0.000000	-0.000026	-0.000001	0.000000	0.000000
69.733611	23.349579	11.347617	-0.137213	0.179882	2.854011	0.000000	0.015273	0.000000	-0.000026	-0.000001	0.000000	0.000000
70.282671	23.099228	11.377402	0.590476	-0.234449	2.839209	0.000000	-0.069110	0.000000	-0.000026	0.000000	0.000000	0.000000
