#ParticleID	Turn	x[m]	xp	y[m]	yp	z[m]	dE[GeV]# s	beta_x	beta_y	alpha_x	alpha_y	D_x	D_y	D_px	D_py	orbit_x	orbit_px	orbit_y	orbit_py
0.300000	11.812685	25.023580	-0.010880	-0.027238	2.618056	0.000000	0.000034	0.000000	-0.000000	0.000001	0.000000	0.000000
0.601250	11.826924	25.043620	-0.036386	-0.039285	2.618066	0.000000	0.000034	0.000000	0.000000	0.000001	0.000000	0.000000
0.898573	11.856045	25.070516	-0.032484	-0.112655	2.618076	0.000000	-0.006387	0.000000	0.000001	0.000001	0.000000	0.000000
1.339533	12.036808	24.891767	-0.379002	0.516478	2.631552	0.000000	0.067570	0.000000	0.000001	0.000001	0.000000	0.000000
1.780493	12.529625	24.166455	-0.742837	1.122111	2.677779	0.000000	0.142296	0.000000	0.000002	0.000001	0.000000	0.000000
2.221453	13.357010	22.927581	-1.140609	1.676690	2.757282	0.000000	0.218642	0.000000	0.000002	0.000001	0.000000	0.000000
2.662413	14.556765	21.231514	-1.590492	2.154980	2.870968	0.000000	0.297479	0.000000	0.000003	0.000001	0.000000	0.000000
3.108373	16.204445	19.130550	-2.117330	2.536353	3.021992	0.000000	0.380194	0.000000	0.000004	0.000001	0.000000	0.000000
3.657433	18.317323	16.770849	-1.708063	1.786725	3.205469	0.000000	0.287156	0.000000	0.000004	0.000001	0.000000	0.000000
4.206493	19.911463	15.160034	-1.178147	1.164361	3.336387	0.000000	0.189024	0.000000	0.000005	0.000001	0.000000	0.000000
4.755553	20.874262	14.183370	-0.565013	0.624932	3.412423	0.000000	0.087540	0.000000	0.000006	0.000001	0.000000	0.000000
5.304613	21.137714	13.771292	0.088031	0.130015	3.432229	0.000000	-0.015497	0.000000	0.000006	0.000001	0.000000	0.000000
5.603185	21.122347	13.678820	0.018664	0.143717	3.430280	0.000000	-0.006530	0.000000	0.000006	0.000001	0.000000	0.000000
5.936519	21.115167	13.591300	0.002878	0.118845	3.428103	0.000000	-0.006530	0.000000	0.000007	0.000001	0.000000	0.000000
6.269852	21.118511	13.520361	-0.012909	0.093973	3.425926	0.000000	-0.006530	0.000000	0.000007	0.000001	0.000000	0.000000
6.604435	21.132451	13.465830	-0.028755	0.069008	3.423741	0.000000	-0.006530	0.000000	0.000007	0.000001	0.000000	0.000000
6.901758	21.153736	13.431391	-0.098103	0.081914	3.421799	0.000000	0.002410	0.000000	0.000008	0.000001	0.000000	0.000000
7.450818	20.900948	13.602276	0.555780	-0.394983	3.394919	0.000000	-0.100175	0.000000	0.000008	0.000001	0.000000	0.000000
7.999878	19.947524	14.309134	1.170406	-0.900013	3.312121	0.000000	-0.200982	0.000000	0.000008	0.000000	0.000000	0.000000
8.548938	18.360811	15.602314	1.702360	-1.469150	3.174871	0.000000	-0.298225	0.000000	0.000008	0.000000	0.000000	0.000000
9.097998	16.252884	17.573925	2.114068	-2.142931	2.985605	0.000000	-0.390178	0.000000	0.000008	-0.000000	0.000000	0.000000
9.543958	14.608327	19.330725	1.586722	-1.779784	2.829909	0.000000	-0.308468	0.000000	0.000008	0.000000	0.000000	0.000000
9.984918	13.412184	20.710304	1.136156	-1.336893	2.711134	0.000000	-0.230755	0.000000	0.000008	0.000000	0.000000	0.000000
10.425878	12.589100	21.670872	0.737499	-0.833173	2.626016	0.000000	-0.155671	0.000000	0.000009	0.000000	0.000000	0.000000
10.866838	12.101469	22.168723	0.372535	-0.291545	2.573585	0.000000	-0.082359	0.000000	0.000009	0.000001	0.000000	0.000000
11.309048	11.926880	22.180682	0.053732	0.208898	2.553223	0.000000	-0.016246	0.000000	0.000009	0.000001	0.000000	0.000000
11.606371	11.902361	22.060621	0.028732	0.194909	2.548393	0.000000	-0.016246	0.000000	0.000009	0.000001	0.000000	0.000000
12.086371	11.894152	21.884349	-0.011630	0.172324	2.540594	0.000000	-0.016246	0.000000	0.000010	0.000001	0.000000	0.000000
12.566371	11.924690	21.729759	-0.051991	0.149739	2.532795	0.000000	-0.016246	0.000000	0.000010	0.000001	0.000000	0.000000
13.046371	11.993975	21.596850	-0.092353	0.127154	2.524997	0.000000	-0.016246	0.000000	0.000011	0.000001	0.000000	0.000000
13.526371	12.102007	21.485623	-0.132714	0.104569	2.517198	0.000000	-0.016246	0.000000	0.000011	0.000001	0.000000	0.000000
14.007621	12.249219	21.395872	-0.173181	0.081926	2.509379	0.000000	-0.016246	0.000000	0.000012	0.000001	0.000000	0.000000
14.304943	12.359633	21.351314	-0.167875	0.015583	2.504549	0.000000	-0.022387	0.000000	0.000012	0.000001	0.000000	0.000000
14.745903	12.666217	21.103884	-0.530027	0.543401	2.510309	0.000000	0.048543	0.000000	0.000012	0.000001	0.000000	0.000000
15.186863	13.301621	20.400125	-0.916394	1.046494	2.547440	0.000000	0.120026	0.000000	0.000013	0.000002	0.000000	0.000000
15.627823	14.294873	19.272060	-1.344628	1.501973	2.616362	0.000000	0.192876	0.000000	0.000014	0.000002	0.000000	0.000000
16.068783	15.691354	17.771015	-1.834295	1.889113	2.717862	0.000000	0.267923	0.000000	0.000015	0.000002	0.000000	0.000000
16.514743	17.578521	15.943782	-2.412523	2.191045	2.854789	0.000000	0.346484	0.000000	0.000016	0.000003	0.000000	0.000000
17.063803	20.002335	13.903514	-1.975822	1.546817	3.021295	0.000000	0.259138	0.000000	0.000017	0.000002	0.000000	0.000000
17.612863	21.866659	12.506396	-1.399559	1.012765	3.138508	0.000000	0.167196	0.000000	0.000018	0.000002	0.000000	0.000000
18.161923	23.039806	11.652915	-0.724437	0.550851	3.204350	0.000000	0.072288	0.000000	0.000019	0.000001	0.000000	0.000000
18.710983	23.438910	11.282278	0.001854	0.128172	3.217653	0.000000	-0.023902	0.000000	0.000019	0.000000	0.000000	0.000000
19.009556	23.478183	11.196238	-0.072161	0.130524	3.213026	0.000000	-0.015496	0.000000	0.000019	0.000000	0.000000	0.000000
19.342889	23.531048	11.119315	-0.086432	0.100245	3.207861	0.000000	-0.015496	0.000000	0.000019	0.000000	0.000000	0.000000
19.676223	23.593426	11.062578	-0.100704	0.069966	3.202695	0.000000	-0.015496	0.000000	0.000019	0.000000	0.000000	0.000000
20.010806	23.665900	11.025791	-0.232283	0.094202	3.197530	0.000000	0.000347	0.000000	0.000019	0.000000	0.000000	0.000000
20.308129	23.807962	10.977863	-0.307719	0.095675	3.197633	0.000000	0.008700	0.000000	0.000020	0.000001	0.000000	0.000000
20.857189	23.735245	11.094915	0.439375	-0.310120	3.176186	0.000000	-0.086709	0.000000	0.000020	-0.000000	0.000000	0.000000
21.406249	22.854385	11.667021	1.155434	-0.738005	3.102699	0.000000	-0.180581	0.000000	0.000019	-0.000001	0.000000	0.000000
21.955309	21.227600	12.734932	1.789879	-1.218455	2.978476	0.000000	-0.271249	0.000000	0.000019	-0.000001	0.000000	0.000000
22.504369	18.969800	14.374712	2.297896	-1.785694	2.805720	0.000000	-0.357106	0.000000	0.000018	-0.000002	0.000000	0.000000
22.950329	17.190423	15.846953	1.706180	-1.501663	2.663762	0.000000	-0.279883	0.000000	0.000017	-0.000002	0.000000	0.000000
23.391289	15.915025	17.020768	1.197111	-1.150161	2.556670	0.000000	-0.206303	0.000000	0.000017	-0.000001	0.000000	0.000000
23.832249	15.062863	17.860239	0.742735	-0.746328	2.481476	0.000000	-0.135073	0.000000	0.000016	-0.000001	0.000000	0.000000
24.273209	14.595003	18.327169	0.322292	-0.308537	2.437322	0.000000	-0.065381	0.000000	0.000016	-0.000000	0.000000	0.000000
24.715418	14.490190	18.400068	-0.047984	0.098107	2.423703	0.000000	-0.002376	0.000000	0.000016	0.000000	0.000000	0.000000
25.012741	14.524838	18.346580	-0.068550	0.081793	2.422997	0.000000	-0.002376	0.000000	0.000016	0.000000	0.000000	0.000000
25.346075	14.578224	18.298149	-0.091607	0.063502	2.422205	0.000000	-0.002376	0.000000	0.000016	0.000000	0.000000	0.000000
25.679408	14.646981	18.261911	-0.114664	0.045212	2.421413	0.000000	-0.002376	0.000000	0.000016	0.000000	0.000000	0.000000
26.013991	14.731155	18.238169	-0.018298	-0.121104	2.420593	0.000000	-0.022013	0.000000	0.000016	0.000000	0.000000	0.000000
26.311314	14.748039	18.315100	-0.002327	-0.182552	2.414048	0.000000	-0.027932	0.000000	0.000016	-0.000000	0.000000	0.000000
26.752274	14.931791	18.277472	-0.415962	0.267561	2.416844	0.000000	0.040627	0.000000	0.000016	0.000000	0.000000	0.000000
27.193234	15.487305	17.846751	-0.848601	0.705501	2.449945	0.000000	0.109648	0.000000	0.000017	0.000001	0.000000	0.000000
27.634194	16.439962	17.042535	-1.320010	1.111341	2.513728	0.000000	0.179919	0.000000	0.000017	0.000001	0.000000	0.000000
28.075154	17.833285	15.901417	-1.851726	1.466616	2.608918	0.000000	0.252239	0.000000	0.000018	0.000002	0.000000	0.000000
28.521114	19.755138	14.458125	-2.473011	1.756073	2.738205	0.000000	0.327875	0.000000	0.000018	0.000002	0.000000	0.000000
29.070174	22.197826	12.850032	-1.949506	1.190023	2.895557	0.000000	0.244455	0.000000	0.000019	0.000002	0.000000	0.000000
29.619234	23.986162	11.813617	-1.288298	0.708736	3.005848	0.000000	0.156699	0.000000	0.000020	0.000001	0.000000	0.000000
30.168294	24.993826	11.275056	-0.536090	0.277931	3.067120	0.000000	0.066163	0.000000	0.000020	0.000000	0.000000	0.000000
30.717354	25.149642	11.195989	0.253984	-0.133078	3.078287	0.000000	-0.025546	0.000000	0.000020	-0.000000	0.000000	0.000000
31.015927	25.040879	11.266039	0.175991	-0.130785	3.073061	0.000000	-0.017504	0.000000	0.000020	-0.000000	0.000000	0.000000
31.349260	24.928127	11.363260	0.162267	-0.160878	3.067227	0.000000	-0.017504	0.000000	0.000020	-0.000000	0.000000	0.000000
31.682593	24.824523	11.480543	0.148543	-0.190972	3.061392	0.000000	-0.017504	0.000000	0.000020	-0.000000	0.000000	0.000000
32.017177	24.729732	11.618442	0.134768	-0.221178	3.055536	0.000000	-0.017504	0.000000	0.000020	-0.000000	0.000000	0.000000
32.314499	24.653233	11.757945	0.058123	-0.217305	3.050331	0.000000	-0.009535	0.000000	0.000020	-0.000000	0.000000	0.000000
32.863559	24.167012	12.235777	0.822186	-0.658105	3.020208	0.000000	-0.100031	0.000000	0.000019	-0.000001	0.000000	0.000000
33.412619	22.868837	13.220408	1.528174	-1.145782	2.940812	0.000000	-0.188753	0.000000	0.000019	-0.000002	0.000000	0.000000
33.961679	20.850406	14.781970	2.126220	-1.715070	2.813551	0.000000	-0.274127	0.000000	0.000018	-0.000002	0.000000	0.000000
34.510739	18.254291	17.031690	2.574079	-2.406518	2.640683	0.000000	-0.354638	0.000000	0.000016	-0.000003	0.000000	0.000000
34.956699	16.235693	19.043989	1.968546	-2.086927	2.498874	0.000000	-0.281695	0.000000	0.000015	-0.000002	0.000000	0.000000
35.397659	14.730448	20.708356	1.457966	-1.673127	2.390043	0.000000	-0.212388	0.000000	0.000014	-0.000002	0.000000	0.000000
35.838619	13.644531	21.972695	1.013995	-1.183202	2.311212	0.000000	-0.145500	0.000000	0.000014	-0.000002	0.000000	0.000000
36.279579	12.928331	22.779478	0.616351	-0.639441	2.261482	0.000000	-0.080269	0.000000	0.000013	-0.000001	0.000000	0.000000
36.721789	12.548431	23.092305	0.277530	-0.123263	2.240261	0.000000	-0.021446	0.000000	0.000012	-0.000001	0.000000	0.000000
37.019112	12.390986	23.169490	0.252011	-0.136334	2.233885	0.000000	-0.021446	0.000000	0.000012	-0.000001	0.000000	0.000000
37.352445	12.232516	23.265264	0.223401	-0.150989	2.226737	0.000000	-0.021446	0.000000	0.000012	-0.000001	0.000000	0.000000
37.685779	12.093119	23.370808	0.194791	-0.165643	2.219589	0.000000	-0.021446	0.000000	0.000012	-0.000001	0.000000	0.000000
38.020362	11.972379	23.486572	0.166074	-0.180352	2.212414	0.000000	-0.021446	0.000000	0.000011	-0.000001	0.000000	0.000000
38.317684	11.881212	23.597703	0.169688	-0.251286	2.206038	0.000000	-0.026855	0.000000	0.000011	-0.000001	0.000000	0.000000
38.758644	11.883028	23.557941	-0.173824	0.341115	2.208126	0.000000	0.036333	0.000000	0.000011	-0.000001	0.000000	0.000000
39.199604	12.190140	23.000603	-0.525278	0.917995	2.238141	0.000000	0.099934	0.000000	0.000010	-0.000000	0.000000	0.000000
39.640564	12.816576	21.951048	-0.900731	1.453107	2.296427	0.000000	0.164673	0.000000	0.000010	-0.000000	0.000000	0.000000
40.081524	13.790958	20.457030	-1.317335	1.922103	2.383645	0.000000	0.231288	0.000000	0.000010	0.000000	0.000000	0.000000
40.527484	15.175378	18.563953	-1.797952	2.304930	2.502263	0.000000	0.300943	0.000000	0.000010	0.000000	0.000000	0.000000
41.076544	16.942037	16.436595	-1.400607	1.592485	2.646965	0.000000	0.225372	0.000000	0.000011	0.000000	0.000000	0.000000
41.625604	18.215122	15.025083	-0.904330	0.993469	2.749014	0.000000	0.145805	0.000000	0.000010	-0.000000	0.000000	0.000000
42.174664	18.904709	14.228878	-0.344176	0.465216	2.806601	0.000000	0.063651	0.000000	0.000010	-0.000001	0.000000	0.000000
42.723724	18.962088	13.991267	0.240289	-0.029901	2.818704	0.000000	-0.019632	0.000000	0.000010	-0.000001	0.000000	0.000000
43.022297	18.853056	13.993666	0.174430	-0.014689	2.815041	0.000000	-0.012268	0.000000	0.000009	-0.000001	0.000000	0.000000
43.502297	18.698195	14.024235	0.148196	-0.048997	2.809153	0.000000	-0.012268	0.000000	0.000009	-0.000001	0.000000	0.000000
43.982297	18.568520	14.087740	0.121961	-0.083306	2.803265	0.000000	-0.012268	0.000000	0.000009	-0.000001	0.000000	0.000000
44.462297	18.464030	14.184182	0.095726	-0.117614	2.797377	0.000000	-0.012268	0.000000	0.000008	-0.000001	0.000000	0.000000
44.942297	18.384725	14.313560	0.069492	-0.151923	2.791489	0.000000	-0.012268	0.000000	0.000008	-0.000001	0.000000	0.000000
45.423547	18.330725	14.476161	-0.047632	-0.114597	2.785602	0.000000	0.001534	0.000000	0.000007	-0.000001	0.000000	0.000000
45.720870	18.363883	14.550492	-0.111867	-0.097390	2.786059	0.000000	0.008813	0.000000	0.000007	-0.000001	0.000000	0.000000
46.269930	18.177516	14.938843	0.449287	-0.614085	2.768323	0.000000	-0.073321	0.000000	0.000006	-0.000001	0.000000	0.000000
46.818990	17.388793	15.915131	0.978706	-1.174519	2.705783	0.000000	-0.154155	0.000000	0.000006	-0.000001	0.000000	0.000000
47.368050	16.053425	17.548896	1.438994	-1.818612	2.599546	0.000000	-0.232254	0.000000	0.000005	-0.000001	0.000000	0.000000
47.917110	14.265736	19.956508	1.797639	-2.592241	2.451498	0.000000	-0.306233	0.000000	0.000004	-0.000002	0.000000	0.000000
48.363070	12.874589	22.097063	1.332858	-2.187460	2.330224	0.000000	-0.237930	0.000000	0.000004	-0.000002	0.000000	0.000000
48.804030	11.879325	23.810930	0.932742	-1.684425	2.239768	0.000000	-0.172734	0.000000	0.000003	-0.000001	0.000000	0.000000
49.244990	11.216878	25.045543	0.575241	-1.104749	2.177599	0.000000	-0.109506	0.000000	0.000002	-0.000001	0.000000	0.000000
49.685950	10.856982	25.744726	0.244020	-0.474809	2.143011	0.000000	-0.047524	0.000000	0.000002	-0.000001	0.000000	0.000000
50.128160	10.783318	25.876384	-0.049725	0.113230	2.135619	0.000000	0.008679	0.000000	0.000001	-0.000001	0.000000	0.000000
50.425482	10.821105	25.812512	-0.077365	0.101592	2.138200	0.000000	0.008679	0.000000	0.000001	-0.000001	0.000000	0.000000
50.758816	10.883012	25.749133	-0.108354	0.088545	2.141094	0.000000	0.008679	0.000000	0.000000	-0.000001	0.000000	0.000000
51.092149	10.965577	25.694452	-0.139342	0.075498	2.143987	0.000000	0.008679	0.000000	-0.000000	-0.000001	0.000000	0.000000
51.426732	11.069003	25.648833	-0.080648	-0.145673	2.146870	0.000000	-0.008738	0.000000	-0.000001	-0.000001	0.000000	0.000000
51.724055	11.124998	25.738977	-0.080401	-0.220632	2.144272	0.000000	-0.013996	0.000000	-0.000001	-0.000001	0.000000	0.000000
52.165015	11.341169	25.647194	-0.411688	0.427982	2.151689	0.000000	0.047668	0.000000	-0.000001	-0.000001	0.000000	0.000000
52.605975	11.856668	24.989820	-0.761784	1.057124	2.186392	0.000000	0.109874	0.000000	-0.000002	-0.000001	0.000000	0.000000
53.046935	12.695045	23.796765	-1.146683	1.638167	2.248775	0.000000	0.173333	0.000000	-0.000003	-0.000001	0.000000	0.000000
53.487895	13.894603	22.122312	-1.583971	2.144674	2.339548	0.000000	0.238765	0.000000	-0.000003	-0.000001	0.000000	0.000000
53.933855	15.530712	20.017611	-2.097854	2.554939	2.461251	0.000000	0.307315	0.000000	-0.000004	-0.000002	0.000000	0.000000
54.482915	17.637167	17.649268	-1.715912	1.783973	2.609806	0.000000	0.233012	0.000000	-0.000005	-0.000001	0.000000	0.000000
55.031975	19.254763	16.053211	-1.212767	1.140076	2.716368	0.000000	0.154575	0.000000	-0.000006	-0.000001	0.000000	0.000000
55.581035	20.269240	15.115757	-0.623958	0.577383	2.779045	0.000000	0.073396	0.000000	-0.000006	-0.000001	0.000000	0.000000
56.130095	20.608941	14.770132	0.008925	0.055817	2.796727	0.000000	-0.009084	0.000000	-0.000007	-0.000001	0.000000	0.000000
56.428668	20.640102	14.719844	-0.059443	0.074016	2.796197	0.000000	-0.001776	0.000000	-0.000007	-0.000001	0.000000	0.000000
56.762001	20.685133	14.678090	-0.075649	0.051247	2.795605	0.000000	-0.001776	0.000000	-0.000007	-0.000001	0.000000	0.000000
57.095334	20.740968	14.651515	-0.091856	0.028478	2.795014	0.000000	-0.001776	0.000000	-0.000008	-0.000001	0.000000	0.000000
57.429918	20.807878	14.640106	-0.108124	0.005623	2.794420	0.000000	-0.001776	0.000000	-0.000008	-0.000001	0.000000	0.000000
57.727240	20.876472	14.642801	-0.177130	0.023575	2.793892	0.000000	0.005524	0.000000	-0.000008	-0.000001	0.000000	0.000000
58.276300	20.714838	14.898071	0.469770	-0.491241	2.774287	0.000000	-0.076833	0.000000	-0.000009	-0.000001	0.000000	0.000000
58.825360	19.856927	15.734452	1.083488	-1.041047	2.709770	0.000000	-0.157828	0.000000	-0.000009	-0.000000	0.000000	0.000000
59.374420	18.363338	17.211518	1.620674	-1.665005	2.601487	0.000000	-0.236023	0.000000	-0.000009	-0.000000	0.000000	0.000000
59.923480	16.339571	19.434476	2.043384	-2.407557	2.451358	0.000000	-0.310032	0.000000	-0.000009	0.000000	0.000000	0.000000
60.369440	14.755602	21.410248	1.521012	-2.004121	2.328385	0.000000	-0.241755	0.000000	-0.000009	-0.000000	0.000000	0.000000
60.810400	13.616363	22.966140	1.072333	-1.510874	2.236228	0.000000	-0.176628	0.000000	-0.000009	-0.000000	0.000000	0.000000
61.251360	12.849805	24.054938	0.672646	-0.948884	2.172318	0.000000	-0.113513	0.000000	-0.000009	-0.000000	0.000000	0.000000
61.692320	12.420906	24.627102	0.303691	-0.343720	2.135929	0.000000	-0.051691	0.000000	-0.000009	-0.000001	0.000000	0.000000
62.134530	12.310125	24.656057	-0.021301	0.216559	2.126651	0.000000	0.004327	0.000000	-0.000010	-0.000001	0.000000	0.000000
62.431853	12.329976	24.531034	-0.045465	0.203935	2.127938	0.000000	0.004327	0.000000	-0.000010	-0.000001	0.000000	0.000000
62.765186	12.369316	24.399795	-0.072555	0.189782	2.129380	0.000000	0.004327	0.000000	-0.000010	-0.000001	0.000000	0.000000
63.098520	12.426716	24.277992	-0.099645	0.175628	2.130823	0.000000	0.004327	0.000000	-0.000011	-0.000001	0.000000	0.000000
63.433103	12.502493	24.165220	-0.126837	0.161422	2.132271	0.000000	0.004327	0.000000	-0.000011	-0.000001	0.000000	0.000000
63.730426	12.585101	24.072985	-0.120135	0.089757	2.133558	0.000000	-0.000906	0.000000	-0.000011	-0.000001	0.000000	0.000000
64.171386	12.851333	23.728714	-0.485911	0.688003	2.146698	0.000000	0.060556	0.000000	-0.000012	-0.000001	0.000000	0.000000
64.612346	13.448682	22.868679	-0.873886	1.254945	2.187065	0.000000	0.122707	0.000000	-0.000012	-0.000001	0.000000	0.000000
65.053306	14.404440	21.532011	-1.301786	1.764788	2.255121	0.000000	0.186255	0.000000	-0.000013	-0.000002	0.000000	0.000000
65.494266	15.762273	19.779528	-1.789162	2.194335	2.351640	0.000000	0.251925	0.000000	-0.000014	-0.000002	0.000000	0.000000
65.940226	17.607376	17.666169	-2.362970	2.524794	2.479294	0.000000	0.320866	0.000000	-0.000015	-0.000003	0.000000	0.000000
66.489286	19.972687	15.301998	-1.919460	1.806474	2.635108	0.000000	0.245860	0.000000	-0.000016	-0.000002	0.000000	0.000000
67.038346	21.773186	13.651768	-1.340369	1.216824	2.748479	0.000000	0.166494	0.000000	-0.000017	-0.000001	0.000000	0.000000
67.587406	22.881695	12.597934	-0.666601	0.713847	2.817397	0.000000	0.084173	0.000000	-0.000018	-0.000001	0.000000	0.000000
68.136466	23.219913	12.065436	0.054252	0.261714	2.840638	0.000000	0.000360	0.000000	-0.000018	-0.000000	0.000000	0.000000
68.435038	23.227590	11.898351	-0.019286	0.266370	2.842962	0.000000	0.007784	0.000000	-0.000018	-0.000000	0.000000	0.000000
68.768372	23.245233	11.730772	-0.033642	0.236367	2.845557	0.000000	0.007784	0.000000	-0.000018	-0.000000	0.000000	0.000000
69.101705	23.272446	11.583194	-0.047998	0.206364	2.848152	0.000000	0.007784	0.000000	-0.000019	-0.000000	0.000000	0.000000
69.436288	23.309386	11.455178	-0.062408	0.176249	2.850756	0.000000	0.007784	0.000000	-0.000019	-0.000000	0.000000	0.000000
69.733611	23.350304	11.358330	-0.136233	0.179169	2.853071	0.000000	0.015239	0.000000	-0.000019	-0.000000	0.000000	0.000000
70.282671	23.098873	11.389064	0.591453	-0.235476	2.838259	0.000000	-0.069113	0.000000	-0.000019	0.000000	0.000000	0.000000
