#ParticleID	Turn	x[m]	xp	y[m]	yp	z[m]	dE[GeV]# s	beta_x	beta_y	alpha_x	alpha_y	D_x	D_y	D_px	D_py	orbit_x	orbit_px	orbit_y	orbit_py
0.300000	11.806485	25.048204	-0.010281	-0.026942	2.618178	0.000000	-0.000012	0.000000	-0.000002	0.000002	0.000000	0.000000
0.601250	11.820367	25.068062	-0.035799	-0.038977	2.618174	0.000000	-0.000012	0.000000	-0.000001	0.000002	0.000000	0.000000
0.898573	11.849143	25.094772	-0.031927	-0.112396	2.618170	0.000000	-0.006433	0.000000	-0.000001	0.000002	0.000000	0.000000
1.339533	12.029342	24.915511	-0.378274	0.517373	2.631626	0.000000	0.067526	0.000000	0.000000	0.000002	0.000000	0.000000
1.780493	12.521429	24.189143	-0.741903	1.123601	2.677834	0.000000	0.142254	0.000000	0.000001	0.000002	0.000000	0.000000
2.221453	13.347885	22.948717	-1.139428	1.678706	2.757319	0.000000	0.218602	0.000000	0.000002	0.000002	0.000000	0.000000
2.662413	14.546470	21.250672	-1.589010	2.157432	2.870986	0.000000	0.297439	0.000000	0.000002	0.000002	0.000000	0.000000
3.108373	16.192667	19.147366	-2.115475	2.539130	3.021993	0.000000	0.380154	0.000000	0.000003	0.000002	0.000000	0.000000
3.657433	18.303669	16.785000	-1.706521	1.788832	3.205447	0.000000	0.287116	0.000000	0.000004	0.000002	0.000000	0.000000
4.206493	19.896338	15.172168	-1.177027	1.165949	3.336343	0.000000	0.188986	0.000000	0.000005	0.000002	0.000000	0.000000
4.755553	20.858176	14.193991	-0.564393	0.626114	3.412359	0.000000	0.087503	0.000000	0.000006	0.000001	0.000000	0.000000
5.304613	21.121244	13.780797	0.088106	0.130876	3.432146	0.000000	-0.015532	0.000000	0.000007	0.000001	0.000000	0.000000
5.603185	21.105809	13.687794	0.018772	0.144611	3.430185	0.000000	-0.006565	0.000000	0.000007	0.000001	0.000000	0.000000
5.936519	21.098561	13.599674	0.002973	0.119749	3.427996	0.000000	-0.006565	0.000000	0.000008	0.000001	0.000000	0.000000
6.269852	21.101845	13.528128	-0.012826	0.094888	3.425808	0.000000	-0.006565	0.000000	0.000008	0.000001	0.000000	0.000000
6.604435	21.115734	13.472982	-0.028684	0.069932	3.423611	0.000000	-0.006565	0.000000	0.000008	0.000001	0.000000	0.000000
6.901758	21.136981	13.437990	-0.097999	0.082865	3.421659	0.000000	0.002375	0.000000	0.000009	0.000001	0.000000	0.000000
7.450818	20.884387	13.607928	0.555325	-0.394199	3.394761	0.000000	-0.100205	0.000000	0.000009	0.000001	0.000000	0.000000
7.999878	19.931757	14.313992	1.169423	-0.899342	3.311947	0.000000	-0.201007	0.000000	0.000010	0.000001	0.000000	0.000000
8.548938	18.346382	15.606473	1.700920	-1.468542	3.174686	0.000000	-0.298244	0.000000	0.000010	0.000000	0.000000	0.000000
9.097998	16.240243	17.577432	2.112272	-2.142344	2.985411	0.000000	-0.390191	0.000000	0.000010	0.000000	0.000000	0.000000
9.543958	14.597113	19.333631	1.585307	-1.779028	2.829708	0.000000	-0.308486	0.000000	0.000010	0.000000	0.000000	0.000000
9.984918	13.402076	20.712483	1.135055	-1.336004	2.710923	0.000000	-0.230779	0.000000	0.000010	0.000001	0.000000	0.000000
10.425878	12.579844	21.672223	0.736660	-0.832193	2.625793	0.000000	-0.155700	0.000000	0.000011	0.000001	0.000000	0.000000
10.866838	12.092851	22.169184	0.371922	-0.290517	2.573348	0.000000	-0.082394	0.000000	0.000011	0.000001	0.000000	0.000000
11.309048	11.918715	22.180231	0.053296	0.209929	2.552970	0.000000	-0.016287	0.000000	0.000012	0.000001	0.000000	0.000000
11.606371	11.894461	22.059558	0.028279	0.195934	2.548127	0.000000	-0.016287	0.000000	0.000012	0.000001	0.000000	0.000000
12.086371	11.886699	21.882307	-0.012108	0.173339	2.540309	0.000000	-0.016287	0.000000	0.000013	0.000001	0.000000	0.000000
12.566371	11.917709	21.726747	-0.052496	0.150745	2.532490	0.000000	-0.016287	0.000000	0.000013	0.000001	0.000000	0.000000
13.046371	11.987490	21.592878	-0.092883	0.128150	2.524672	0.000000	-0.016287	0.000000	0.000014	0.000001	0.000000	0.000000
13.526371	12.096044	21.480699	-0.133270	0.105555	2.516854	0.000000	-0.016287	0.000000	0.000015	0.000001	0.000000	0.000000
14.007621	12.243803	21.390004	-0.173762	0.082902	2.509015	0.000000	-0.016287	0.000000	0.000015	0.000001	0.000000	0.000000
14.304943	12.354568	21.344868	-0.168486	0.016571	2.504172	0.000000	-0.022427	0.000000	0.000016	0.000001	0.000000	0.000000
14.745903	12.661647	21.096649	-0.530543	0.544194	2.509914	0.000000	0.048494	0.000000	0.000016	0.000002	0.000000	0.000000
15.186863	13.297473	20.392291	-0.916838	1.047056	2.547019	0.000000	0.119966	0.000000	0.000017	0.000002	0.000000	0.000000
15.627823	14.291094	19.263842	-1.345022	1.502278	2.615913	0.000000	0.192805	0.000000	0.000018	0.000003	0.000000	0.000000
16.068783	15.687906	17.762645	-1.834655	1.889148	2.717378	0.000000	0.267840	0.000000	0.000020	0.000003	0.000000	0.000000
16.514743	17.575385	15.935504	-2.412867	2.190806	2.854266	0.000000	0.346388	0.000000	0.000021	0.000004	0.000000	0.000000
17.063803	19.999677	13.895392	-1.976343	1.546771	3.020723	0.000000	0.259060	0.000000	0.000023	0.000003	0.000000	0.000000
17.612863	21.864654	12.498221	-1.400219	1.012909	3.137898	0.000000	0.167137	0.000000	0.000024	0.000002	0.000000	0.000000
18.161923	23.038582	11.644473	-0.725191	0.551195	3.203712	0.000000	0.072249	0.000000	0.000025	0.000001	0.000000	0.000000
18.710983	23.438541	11.273339	0.001061	0.128740	3.216999	0.000000	-0.023920	0.000000	0.000026	0.000001	0.000000	0.000000
19.009556	23.478286	11.186982	-0.072951	0.131041	3.212367	0.000000	-0.015516	0.000000	0.000026	0.000001	0.000000	0.000000
19.342889	23.531678	11.109724	-0.087224	0.100733	3.207194	0.000000	-0.015516	0.000000	0.000026	0.000001	0.000000	0.000000
19.676223	23.594585	11.052671	-0.101497	0.070425	3.202022	0.000000	-0.015516	0.000000	0.000026	0.000001	0.000000	0.000000
20.010806	23.667590	11.015588	-0.233086	0.094581	3.196850	0.000000	0.000323	0.000000	0.000027	0.000001	0.000000	0.000000
20.308129	23.810132	10.967442	-0.308529	0.095998	3.196946	0.000000	0.008674	0.000000	0.000027	0.000001	0.000000	0.000000
20.857189	23.738260	11.083978	0.438655	-0.309497	3.175491	0.000000	-0.086713	0.000000	0.000027	-0.000000	0.000000	0.000000
21.406249	22.858117	11.655217	1.154854	-0.737038	3.102008	0.000000	-0.180562	0.000000	0.000027	-0.000001	0.000000	0.000000
21.955309	21.231874	12.721847	1.789480	-1.217076	2.977801	0.000000	-0.271208	0.000000	0.000026	-0.000002	0.000000	0.000000
22.504369	18.974399	14.359841	2.297705	-1.783803	2.805074	0.000000	-0.357043	0.000000	0.000025	-0.000003	0.000000	0.000000
22.950329	17.195221	15.830547	1.705921	-1.500126	2.663141	0.000000	-0.279837	0.000000	0.000024	-0.000002	0.000000	0.000000
23.391289	15.920086	17.003189	1.196773	-1.149046	2.556066	0.000000	-0.206273	0.000000	0.000023	-0.000001	0.000000	0.000000
23.832249	15.068262	17.841881	0.742301	-0.745685	2.480881	0.000000	-0.135058	0.000000	0.000023	-0.000001	0.000000	0.000000
24.273209	14.600834	18.308465	0.321744	-0.308397	2.436731	0.000000	-0.065381	0.000000	0.000022	-0.000000	0.000000	0.000000
24.715418	14.496567	18.381466	-0.048659	0.097787	2.423108	0.000000	-0.002390	0.000000	0.000022	0.000000	0.000000	0.000000
25.012741	14.531614	18.328173	-0.069217	0.081457	2.422398	0.000000	-0.002390	0.000000	0.000023	0.000000	0.000000	0.000000
25.346075	14.585441	18.279970	-0.092265	0.063150	2.421601	0.000000	-0.002390	0.000000	0.000023	0.000000	0.000000	0.000000
25.679408	14.654634	18.243973	-0.115314	0.044842	2.420804	0.000000	-0.002390	0.000000	0.000023	0.000000	0.000000	0.000000
26.013991	14.739240	18.220484	-0.018874	-0.121348	2.419980	0.000000	-0.022022	0.000000	0.000023	0.000000	0.000000	0.000000
26.311314	14.756463	18.297566	-0.002874	-0.182767	2.413432	0.000000	-0.027940	0.000000	0.000023	0.000000	0.000000	0.000000
26.752274	14.940790	18.260336	-0.416723	0.266875	2.416222	0.000000	0.040604	0.000000	0.000023	0.000001	0.000000	0.000000
27.193234	15.497083	17.830418	-0.849611	0.704375	2.449309	0.000000	0.109609	0.000000	0.000023	0.000001	0.000000	0.000000
27.634194	16.450758	17.027372	-1.321316	1.109826	2.513070	0.000000	0.179863	0.000000	0.000024	0.000002	0.000000	0.000000
28.075154	17.845385	15.887735	-1.853388	1.464781	2.608232	0.000000	0.252165	0.000000	0.000025	0.000002	0.000000	0.000000
28.521114	19.768908	14.446193	-2.475107	1.754002	2.737482	0.000000	0.327783	0.000000	0.000026	0.000003	0.000000	0.000000
29.070174	22.213710	12.840108	-1.951236	1.188417	2.894790	0.000000	0.244387	0.000000	0.000028	0.000002	0.000000	0.000000
29.619234	24.003688	11.805254	-1.289540	0.707481	3.005050	0.000000	0.156657	0.000000	0.000029	0.000001	0.000000	0.000000
30.168294	25.012407	11.267920	-0.536757	0.276938	3.066306	0.000000	0.066147	0.000000	0.000029	0.000000	0.000000	0.000000
30.717354	25.168614	11.189834	0.253941	-0.133880	3.077472	0.000000	-0.025535	0.000000	0.000029	-0.000001	0.000000	0.000000
31.015927	25.059901	11.260379	0.175913	-0.131625	3.072248	0.000000	-0.017496	0.000000	0.000029	-0.000000	0.000000	0.000000
31.349260	24.947197	11.358167	0.162200	-0.161740	3.066416	0.000000	-0.017496	0.000000	0.000029	-0.000000	0.000000	0.000000
31.682593	24.843635	11.476032	0.148487	-0.191855	3.060584	0.000000	-0.017496	0.000000	0.000029	-0.000000	0.000000	0.000000
32.017177	24.748878	11.614529	0.134722	-0.222083	3.054730	0.000000	-0.017496	0.000000	0.000029	-0.000000	0.000000	0.000000
32.314499	24.672403	11.754577	0.058041	-0.218240	3.049528	0.000000	-0.009530	0.000000	0.000029	-0.000000	0.000000	0.000000
32.863559	24.185922	12.233407	0.822738	-0.658998	3.019415	0.000000	-0.100000	0.000000	0.000028	-0.000001	0.000000	0.000000
33.412619	22.886810	13.219023	1.529320	-1.146695	2.940043	0.000000	-0.188697	0.000000	0.000027	-0.000002	0.000000	0.000000
33.961679	20.866828	14.781629	2.127879	-1.716068	2.812820	0.000000	-0.274046	0.000000	0.000026	-0.000003	0.000000	0.000000
34.510739	18.268660	17.032524	2.576135	-2.407673	2.640003	0.000000	-0.354535	0.000000	0.000024	-0.000004	0.000000	0.000000
34.956699	16.248431	19.045897	1.970161	-2.088170	2.498237	0.000000	-0.281609	0.000000	0.000022	-0.000003	0.000000	0.000000
35.397659	14.741927	20.711378	1.459216	-1.674400	2.389441	0.000000	-0.212318	0.000000	0.000021	-0.000003	0.000000	0.000000
35.838619	13.655046	21.976830	1.014939	-1.184446	2.310637	0.000000	-0.145445	0.000000	0.000020	-0.000002	0.000000	0.000000
36.279579	12.938132	22.784676	0.617032	-0.640600	2.260929	0.000000	-0.080229	0.000000	0.000019	-0.000002	0.000000	0.000000
36.721789	12.557735	23.098472	0.277999	-0.124296	2.239723	0.000000	-0.021417	0.000000	0.000018	-0.000001	0.000000	0.000000
37.019112	12.400007	23.176270	0.252493	-0.137367	2.233355	0.000000	-0.021417	0.000000	0.000018	-0.000001	0.000000	0.000000
37.352445	12.241210	23.272733	0.223897	-0.152021	2.226217	0.000000	-0.021417	0.000000	0.000018	-0.000001	0.000000	0.000000
37.685779	12.101477	23.378965	0.195302	-0.166675	2.219078	0.000000	-0.021417	0.000000	0.000017	-0.000001	0.000000	0.000000
38.020362	11.980391	23.495419	0.166599	-0.181384	2.211912	0.000000	-0.021417	0.000000	0.000017	-0.000001	0.000000	0.000000
38.317684	11.888907	23.607164	0.170244	-0.252338	2.205545	0.000000	-0.026825	0.000000	0.000016	-0.000001	0.000000	0.000000
38.758644	11.890311	23.568216	-0.173439	0.340328	2.207643	0.000000	0.036350	0.000000	0.000016	-0.000001	0.000000	0.000000
39.199604	12.197150	23.011442	-0.525045	0.917509	2.237664	0.000000	0.099938	0.000000	0.000016	-0.000000	0.000000	0.000000
39.640564	12.823443	21.962174	-0.900638	1.452944	2.295948	0.000000	0.164666	0.000000	0.000016	-0.000000	0.000000	0.000000
40.081524	13.797804	20.468153	-1.317380	1.922271	2.383161	0.000000	0.231268	0.000000	0.000016	0.000000	0.000000	0.000000
40.527484	15.182327	18.574780	-1.798137	2.305423	2.501766	0.000000	0.300910	0.000000	0.000016	0.000001	0.000000	0.000000
41.076544	16.949038	16.447045	-1.400517	1.592684	2.646454	0.000000	0.225356	0.000000	0.000016	0.000000	0.000000	0.000000
41.625604	18.221877	15.035467	-0.903972	0.993389	2.748499	0.000000	0.145805	0.000000	0.000016	-0.000000	0.000000	0.000000
42.174664	18.910934	14.239505	-0.343575	0.464850	2.806091	0.000000	0.063668	0.000000	0.000016	-0.000001	0.000000	0.000000
42.723724	18.967539	14.002462	0.241090	-0.030578	2.818208	0.000000	-0.019599	0.000000	0.000015	-0.000001	0.000000	0.000000
43.022297	18.858036	14.005244	0.175219	-0.015320	2.814554	0.000000	-0.012237	0.000000	0.000015	-0.000001	0.000000	0.000000
43.502297	18.702418	14.036406	0.148984	-0.049601	2.808681	0.000000	-0.012237	0.000000	0.000014	-0.000001	0.000000	0.000000
43.982297	18.571986	14.100477	0.122750	-0.083882	2.802808	0.000000	-0.012237	0.000000	0.000014	-0.000001	0.000000	0.000000
44.462297	18.466739	14.197458	0.096515	-0.118163	2.796936	0.000000	-0.012237	0.000000	0.000013	-0.000001	0.000000	0.000000
44.942297	18.386678	14.327349	0.070280	-0.152444	2.791063	0.000000	-0.012237	0.000000	0.000013	-0.000001	0.000000	0.000000
45.423547	18.331919	14.490438	-0.046850	-0.115019	2.785192	0.000000	0.001563	0.000000	0.000012	-0.000001	0.000000	0.000000
45.720870	18.364610	14.565014	-0.111083	-0.097757	2.785657	0.000000	0.008841	0.000000	0.000012	-0.000001	0.000000	0.000000
46.269930	18.177375	14.954012	0.450074	-0.614903	2.767941	0.000000	-0.073281	0.000000	0.000011	-0.000002	0.000000	0.000000
46.818990	17.387813	15.931472	0.979439	-1.175847	2.705426	0.000000	-0.154102	0.000000	0.000010	-0.000002	0.000000	0.000000
47.368050	16.051693	17.567016	1.439622	-1.820544	2.599222	0.000000	-0.232190	0.000000	0.000009	-0.000002	0.000000	0.000000
47.917110	14.263394	19.977142	1.798116	-2.594914	2.451212	0.000000	-0.306160	0.000000	0.000008	-0.000002	0.000000	0.000000
48.363070	12.871824	22.119882	1.333332	-2.189668	2.329970	0.000000	-0.237864	0.000000	0.000007	-0.000002	0.000000	0.000000
48.804030	11.876135	23.835456	0.933235	-1.686069	2.239541	0.000000	-0.172674	0.000000	0.000006	-0.000002	0.000000	0.000000
49.244990	11.213237	25.071242	0.575774	-1.105756	2.177398	0.000000	-0.109451	0.000000	0.000005	-0.000002	0.000000	0.000000
49.685950	10.852843	25.771012	0.244619	-0.475131	2.142833	0.000000	-0.047474	0.000000	0.000004	-0.000002	0.000000	0.000000
50.128160	10.778611	25.902645	-0.049045	0.113543	2.135463	0.000000	0.008725	0.000000	0.000003	-0.000002	0.000000	0.000000
50.425482	10.815997	25.838584	-0.076696	0.101917	2.138058	0.000000	0.008725	0.000000	0.000002	-0.000002	0.000000	0.000000
50.758816	10.877461	25.774984	-0.107696	0.088882	2.140967	0.000000	0.008725	0.000000	0.000002	-0.000002	0.000000	0.000000
51.092149	10.959591	25.720074	-0.138696	0.075848	2.143876	0.000000	0.008725	0.000000	0.000001	-0.000002	0.000000	0.000000
51.426732	11.062588	25.674217	-0.080065	-0.145517	2.146774	0.000000	-0.008691	0.000000	0.000001	-0.000002	0.000000	0.000000
51.724055	11.118241	25.764265	-0.079848	-0.220525	2.144191	0.000000	-0.013949	0.000000	0.000000	-0.000002	0.000000	0.000000
52.165015	11.333853	25.672093	-0.410968	0.428755	2.151629	0.000000	0.047713	0.000000	-0.000001	-0.000002	0.000000	0.000000
52.605975	11.848630	25.013757	-0.760863	1.058526	2.186351	0.000000	0.109919	0.000000	-0.000001	-0.000002	0.000000	0.000000
53.046935	12.686092	23.819209	-1.145520	1.640136	2.248753	0.000000	0.173376	0.000000	-0.000002	-0.000002	0.000000	0.000000
53.487895	13.884498	22.142800	-1.582513	2.147121	2.339546	0.000000	0.238808	0.000000	-0.000003	-0.000002	0.000000	0.000000
53.933855	15.519148	20.035744	-2.096031	2.557752	2.461268	0.000000	0.307358	0.000000	-0.000004	-0.000002	0.000000	0.000000
54.482915	17.623759	17.664712	-1.714396	1.786085	2.609847	0.000000	0.233054	0.000000	-0.000005	-0.000002	0.000000	0.000000
55.031975	19.239908	16.066650	-1.211665	1.141637	2.716431	0.000000	0.154615	0.000000	-0.000006	-0.000002	0.000000	0.000000
55.581035	20.253439	15.127730	-0.623348	0.578506	2.779131	0.000000	0.073434	0.000000	-0.000007	-0.000001	0.000000	0.000000
56.130095	20.592762	14.781076	0.008999	0.056580	2.796833	0.000000	-0.009049	0.000000	-0.000008	-0.000001	0.000000	0.000000
56.428668	20.623857	14.730312	-0.059337	0.074820	2.796314	0.000000	-0.001741	0.000000	-0.000008	-0.000001	0.000000	0.000000
56.762001	20.668822	14.688017	-0.075557	0.052064	2.795734	0.000000	-0.001741	0.000000	-0.000008	-0.000001	0.000000	0.000000
57.095334	20.724600	14.660893	-0.091776	0.029309	2.795154	0.000000	-0.001741	0.000000	-0.000009	-0.000001	0.000000	0.000000
57.429918	20.791460	14.648923	-0.108057	0.006467	2.794572	0.000000	-0.001741	0.000000	-0.000009	-0.000001	0.000000	0.000000
57.727240	20.860017	14.651112	-0.177031	0.024454	2.794055	0.000000	0.005560	0.000000	-0.000010	-0.000001	0.000000	0.000000
58.276300	20.698578	14.905543	0.469319	-0.490582	2.774468	0.000000	-0.076803	0.000000	-0.000010	-0.000001	0.000000	0.000000
58.825360	19.841451	15.741299	1.082519	-1.040562	2.709967	0.000000	-0.157804	0.000000	-0.000011	-0.000001	0.000000	0.000000
59.374420	18.349181	17.217911	1.619256	-1.664657	2.601695	0.000000	-0.236005	0.000000	-0.000011	-0.000000	0.000000	0.000000
59.923480	16.327174	19.440552	2.041616	-2.407323	2.451574	0.000000	-0.310021	0.000000	-0.000011	0.000000	0.000000	0.000000
60.369440	14.744611	21.416014	1.519618	-2.003661	2.328607	0.000000	-0.241738	0.000000	-0.000011	-0.000000	0.000000	0.000000
60.810400	13.606461	22.971410	1.071247	-1.510212	2.236458	0.000000	-0.176606	0.000000	-0.000011	-0.000001	0.000000	0.000000
61.251360	12.840744	24.059545	0.671817	-0.948049	2.172560	0.000000	-0.113485	0.000000	-0.000012	-0.000001	0.000000	0.000000
61.692320	12.412478	24.630910	0.303081	-0.342750	2.136185	0.000000	-0.051656	0.000000	-0.000012	-0.000001	0.000000	0.000000
62.134530	12.302149	24.658964	-0.021737	0.217611	2.126924	0.000000	0.004368	0.000000	-0.000012	-0.000001	0.000000	0.000000
62.431853	12.322264	24.533317	-0.045917	0.204983	2.128223	0.000000	0.004368	0.000000	-0.000013	-0.000001	0.000000	0.000000
62.765186	12.361911	24.401381	-0.073025	0.190825	2.129680	0.000000	0.004368	0.000000	-0.000013	-0.000001	0.000000	0.000000
63.098520	12.419631	24.278883	-0.100134	0.176667	2.131136	0.000000	0.004368	0.000000	-0.000014	-0.000001	0.000000	0.000000
63.433103	12.495741	24.165418	-0.127344	0.162456	2.132598	0.000000	0.004368	0.000000	-0.000014	-0.000001	0.000000	0.000000
63.730426	12.578655	24.072569	-0.120673	0.090786	2.133897	0.000000	-0.000866	0.000000	-0.000015	-0.000001	0.000000	0.000000
64.171386	12.845300	23.727404	-0.486316	0.688994	2.147056	0.000000	0.060604	0.000000	-0.000015	-0.000002	0.000000	0.000000
64.612346	13.442955	22.866528	-0.874177	1.255853	2.187448	0.000000	0.122765	0.000000	-0.000016	-0.000002	0.000000	0.000000
65.053306	14.398925	21.529111	-1.301977	1.765572	2.255532	0.000000	0.186324	0.000000	-0.000017	-0.000003	0.000000	0.000000
65.494266	15.756884	19.776005	-1.789260	2.194959	2.352084	0.000000	0.252005	0.000000	-0.000018	-0.000003	0.000000	0.000000
65.940226	17.602035	17.662172	-2.362981	2.525228	2.479776	0.000000	0.320958	0.000000	-0.000020	-0.000004	0.000000	0.000000
66.489286	19.967487	15.297515	-1.919704	1.806932	2.635636	0.000000	0.245936	0.000000	-0.000022	-0.000003	0.000000	0.000000
67.038346	21.768375	13.646752	-1.340830	1.217340	2.749044	0.000000	0.166551	0.000000	-0.000023	-0.000002	0.000000	0.000000
67.587406	22.877493	12.592305	-0.667246	0.714456	2.817989	0.000000	0.084212	0.000000	-0.000024	-0.000001	0.000000	0.000000
68.136466	23.216500	12.059067	0.053469	0.262461	2.841247	0.000000	0.000380	0.000000	-0.000025	-0.000001	0.000000	0.000000
68.435038	23.224641	11.891552	-0.020065	0.267077	2.843577	0.000000	0.007805	0.000000	-0.000025	-0.000001	0.000000	0.000000
68.768372	23.242804	11.723511	-0.034423	0.237046	2.846179	0.000000	0.007805	0.000000	-0.000025	-0.000001	0.000000	0.000000
69.101705	23.270539	11.575490	-0.048782	0.207016	2.848781	0.000000	0.007805	0.000000	-0.000025	-0.000001	0.000000	0.000000
69.436288	23.308004	11.447047	-0.063194	0.176873	2.851392	0.000000	0.007805	0.000000	-0.000025	-0.000001	0.000000	0.000000
69.733611	23.349390	11.349835	-0.137022	0.179748	2.853713	0.000000	0.015263	0.000000	-0.000026	-0.000001	0.000000	0.000000
70.282671	23.098834	11.379802	0.590656	-0.234648	2.838909	0.000000	-0.069111	0.000000	-0.000026	0.000000	0.000000	0.000000
