#ParticleID	Turn	x[m]	xp	y[m]	yp	z[m]	dE[GeV]# s	beta_x	beta_y	alpha_x	alpha_y	D_x	D_y	D_px	D_py	orbit_x	orbit_px	orbit_y	orbit_py
0.300000	11.811787	25.027263	-0.010785	-0.027198	2.618066	0.000000	0.000030	0.000000	-0.000001	0.000001	0.000000	0.000000
0.601250	11.825968	25.047279	-0.036292	-0.039244	2.618075	0.000000	0.000030	0.000000	-0.000000	0.000001	0.000000	0.000000
0.898573	11.855034	25.074150	-0.032395	-0.112621	2.618083	0.000000	-0.006391	0.000000	0.000000	0.000001	0.000000	0.000000
1.339533	12.035708	24.895327	-0.378888	0.516607	2.631558	0.000000	0.067566	0.000000	0.000001	0.000001	0.000000	0.000000
1.780493	12.528410	24.169861	-0.742691	1.122330	2.677783	0.000000	0.142292	0.000000	0.000001	0.000001	0.000000	0.000000
2.221453	13.355652	22.930758	-1.140426	1.676988	2.757285	0.000000	0.218639	0.000000	0.000002	0.000001	0.000000	0.000000
2.662413	14.555226	21.234397	-1.590264	2.155344	2.870969	0.000000	0.297476	0.000000	0.000003	0.000002	0.000000	0.000000
3.108373	16.202678	19.133085	-2.117045	2.536767	3.021992	0.000000	0.380190	0.000000	0.000003	0.000002	0.000000	0.000000
3.657433	18.315267	16.772987	-1.707825	1.787038	3.205467	0.000000	0.287152	0.000000	0.000004	0.000001	0.000000	0.000000
4.206493	19.909179	15.161873	-1.177972	1.164596	3.336382	0.000000	0.189021	0.000000	0.000005	0.000001	0.000000	0.000000
4.755553	20.871826	14.184986	-0.564913	0.625106	3.412417	0.000000	0.087537	0.000000	0.000006	0.000001	0.000000	0.000000
5.304613	21.135213	13.772743	0.088048	0.130140	3.432222	0.000000	-0.015500	0.000000	0.000006	0.000001	0.000000	0.000000
5.603185	21.119832	13.680195	0.018686	0.143847	3.430271	0.000000	-0.006533	0.000000	0.000007	0.000001	0.000000	0.000000
5.936519	21.112638	13.592587	0.002898	0.118977	3.428093	0.000000	-0.006533	0.000000	0.000007	0.000001	0.000000	0.000000
6.269852	21.115968	13.521559	-0.012890	0.094106	3.425915	0.000000	-0.006533	0.000000	0.000007	0.000001	0.000000	0.000000
6.604435	21.129897	13.466938	-0.028738	0.069143	3.423729	0.000000	-0.006533	0.000000	0.000008	0.000001	0.000000	0.000000
6.901758	21.151173	13.432419	-0.098081	0.082054	3.421786	0.000000	0.002407	0.000000	0.000008	0.000001	0.000000	0.000000
7.450818	20.898408	13.603166	0.555716	-0.394870	3.394906	0.000000	-0.100177	0.000000	0.000008	0.000001	0.000000	0.000000
7.999878	19.945100	14.309910	1.170261	-0.899919	3.312106	0.000000	-0.200984	0.000000	0.000009	0.000000	0.000000	0.000000
8.548938	18.358586	15.602993	1.702144	-1.469067	3.174855	0.000000	-0.298226	0.000000	0.000009	0.000000	0.000000	0.000000
9.097998	16.250929	17.574516	2.113796	-2.142853	2.985588	0.000000	-0.390179	0.000000	0.000009	-0.000000	0.000000	0.000000
9.543958	14.606587	19.331235	1.586509	-1.779680	2.829892	0.000000	-0.308469	0.000000	0.000009	0.000000	0.000000	0.000000
9.984918	13.410611	20.710712	1.135991	-1.336767	2.711116	0.000000	-0.230757	0.000000	0.000009	0.000000	0.000000	0.000000
10.425878	12.587654	21.671162	0.737374	-0.833032	2.625997	0.000000	-0.155673	0.000000	0.000009	0.000001	0.000000	0.000000
10.866838	12.100117	22.168883	0.372445	-0.291394	2.573564	0.000000	-0.082362	0.000000	0.000009	0.000001	0.000000	0.000000
11.309048	11.925593	22.180707	0.053670	0.209052	2.553201	0.000000	-0.016250	0.000000	0.000010	0.000001	0.000000	0.000000
11.606371	11.901112	22.060554	0.028667	0.195062	2.548370	0.000000	-0.016250	0.000000	0.000010	0.000001	0.000000	0.000000
12.086371	11.892967	21.884136	-0.011698	0.172476	2.540569	0.000000	-0.016250	0.000000	0.000011	0.000001	0.000000	0.000000
12.566371	11.923573	21.729401	-0.052064	0.149889	2.532769	0.000000	-0.016250	0.000000	0.000011	0.000001	0.000000	0.000000
13.046371	11.992930	21.596348	-0.092429	0.127303	2.524969	0.000000	-0.016250	0.000000	0.000012	0.000001	0.000000	0.000000
13.526371	12.101038	21.484979	-0.132795	0.104717	2.517169	0.000000	-0.016250	0.000000	0.000012	0.000001	0.000000	0.000000
14.007621	12.248329	21.395086	-0.173266	0.082072	2.509348	0.000000	-0.016250	0.000000	0.000013	0.000001	0.000000	0.000000
14.304943	12.358795	21.350442	-0.167965	0.015731	2.504516	0.000000	-0.022391	0.000000	0.000013	0.000001	0.000000	0.000000
14.745903	12.665451	21.102892	-0.530101	0.543522	2.510275	0.000000	0.048539	0.000000	0.000013	0.000001	0.000000	0.000000
15.186863	13.300914	20.399041	-0.916455	1.046583	2.547404	0.000000	0.120021	0.000000	0.000014	0.000002	0.000000	0.000000
15.627823	14.294215	19.270913	-1.344679	1.502026	2.616323	0.000000	0.192870	0.000000	0.000015	0.000002	0.000000	0.000000
16.068783	15.690738	17.769837	-1.834338	1.889128	2.717820	0.000000	0.267916	0.000000	0.000016	0.000002	0.000000	0.000000
16.514743	17.577941	15.942609	-2.412561	2.191019	2.854745	0.000000	0.346476	0.000000	0.000017	0.000003	0.000000	0.000000
17.063803	20.001813	13.902355	-1.975890	1.546818	3.021246	0.000000	0.259132	0.000000	0.000018	0.000002	0.000000	0.000000
17.612863	21.866225	12.505222	-1.399651	1.012793	3.138456	0.000000	0.167191	0.000000	0.000020	0.000002	0.000000	0.000000
18.161923	23.039484	11.651695	-0.724548	0.550907	3.204295	0.000000	0.072285	0.000000	0.000020	0.000001	0.000000	0.000000
18.710983	23.438717	11.280980	0.001733	0.128260	3.217597	0.000000	-0.023903	0.000000	0.000021	0.000000	0.000000	0.000000
19.009556	23.478063	11.194891	-0.072281	0.130605	3.212970	0.000000	-0.015497	0.000000	0.000021	0.000000	0.000000	0.000000
19.342889	23.531007	11.117915	-0.086553	0.100321	3.207804	0.000000	-0.015497	0.000000	0.000021	0.000000	0.000000	0.000000
19.676223	23.593466	11.061129	-0.100825	0.070038	3.202638	0.000000	-0.015497	0.000000	0.000021	0.000000	0.000000	0.000000
20.010806	23.666021	11.024295	-0.232405	0.094262	3.197472	0.000000	0.000345	0.000000	0.000021	0.000001	0.000000	0.000000
20.308129	23.808157	10.976333	-0.307842	0.095727	3.197574	0.000000	0.008698	0.000000	0.000021	0.000001	0.000000	0.000000
20.857189	23.735569	11.093304	0.439262	-0.310024	3.176126	0.000000	-0.086710	0.000000	0.000021	-0.000000	0.000000	0.000000
21.406249	22.854824	11.665278	1.155338	-0.737858	3.102640	0.000000	-0.180579	0.000000	0.000021	-0.000001	0.000000	0.000000
21.955309	21.228133	12.732995	1.789807	-1.218247	2.978418	0.000000	-0.271245	0.000000	0.000021	-0.000001	0.000000	0.000000
22.504369	18.970397	14.372506	2.297853	-1.785410	2.805665	0.000000	-0.357101	0.000000	0.000020	-0.000002	0.000000	0.000000
22.950329	17.191061	15.844516	1.706129	-1.501431	2.663709	0.000000	-0.279879	0.000000	0.000019	-0.000002	0.000000	0.000000
23.391289	15.915712	17.018153	1.197051	-1.149991	2.556618	0.000000	-0.206301	0.000000	0.000018	-0.000001	0.000000	0.000000
23.832249	15.063608	17.857504	0.742663	-0.746228	2.481425	0.000000	-0.135071	0.000000	0.000018	-0.000001	0.000000	0.000000
24.273209	14.595819	18.324379	0.322204	-0.308512	2.437271	0.000000	-0.065381	0.000000	0.000018	-0.000000	0.000000	0.000000
24.715418	14.491093	18.397291	-0.048090	0.098063	2.423652	0.000000	-0.002377	0.000000	0.000018	0.000000	0.000000	0.000000
25.012741	14.525803	18.343829	-0.068655	0.081747	2.422945	0.000000	-0.002377	0.000000	0.000018	0.000000	0.000000	0.000000
25.346075	14.579258	18.295429	-0.091711	0.063454	2.422153	0.000000	-0.002377	0.000000	0.000018	0.000000	0.000000	0.000000
25.679408	14.648084	18.259224	-0.114766	0.045161	2.421361	0.000000	-0.002377	0.000000	0.000018	0.000000	0.000000	0.000000
26.013991	14.732326	18.235517	-0.018390	-0.121136	2.420541	0.000000	-0.022014	0.000000	0.000018	0.000000	0.000000	0.000000
26.311314	14.749264	18.312468	-0.002415	-0.182580	2.413995	0.000000	-0.027933	0.000000	0.000018	-0.000000	0.000000	0.000000
26.752274	14.933107	18.274895	-0.416081	0.267463	2.416791	0.000000	0.040625	0.000000	0.000018	0.000000	0.000000	0.000000
27.193234	15.488743	17.844290	-0.848757	0.705337	2.449891	0.000000	0.109645	0.000000	0.000018	0.000001	0.000000	0.000000
27.634194	16.441556	17.040247	-1.320210	1.111118	2.513671	0.000000	0.179914	0.000000	0.000019	0.000001	0.000000	0.000000
28.075154	17.835079	15.899347	-1.851980	1.466344	2.608860	0.000000	0.252232	0.000000	0.000019	0.000002	0.000000	0.000000
28.521114	19.757186	14.456315	-2.473329	1.755765	2.738143	0.000000	0.327867	0.000000	0.000020	0.000002	0.000000	0.000000
29.070174	22.200196	12.848521	-1.949771	1.189785	2.895492	0.000000	0.244449	0.000000	0.000022	0.000002	0.000000	0.000000
29.619234	23.988785	11.812337	-1.288490	0.708551	3.005780	0.000000	0.156695	0.000000	0.000022	0.000001	0.000000	0.000000
30.168294	24.996614	11.273957	-0.536197	0.277786	3.067050	0.000000	0.066162	0.000000	0.000023	0.000000	0.000000	0.000000
30.717354	25.152496	11.195033	0.253971	-0.133194	3.078218	0.000000	-0.025545	0.000000	0.000023	-0.000000	0.000000	0.000000
31.015927	25.043744	11.265154	0.175973	-0.130907	3.072992	0.000000	-0.017503	0.000000	0.000022	-0.000000	0.000000	0.000000
31.349260	24.931003	11.362458	0.162251	-0.161004	3.067157	0.000000	-0.017503	0.000000	0.000022	-0.000000	0.000000	0.000000
31.682593	24.827409	11.479826	0.148529	-0.191101	3.061323	0.000000	-0.017503	0.000000	0.000022	-0.000000	0.000000	0.000000
32.017177	24.732627	11.617812	0.134755	-0.221310	3.055467	0.000000	-0.017503	0.000000	0.000022	-0.000000	0.000000	0.000000
32.314499	24.656135	11.757394	0.058105	-0.217441	3.050263	0.000000	-0.009535	0.000000	0.000022	-0.000000	0.000000	0.000000
32.863559	24.169880	12.235372	0.822265	-0.658234	3.020140	0.000000	-0.100029	0.000000	0.000022	-0.000001	0.000000	0.000000
33.412619	22.871568	13.220144	1.528343	-1.145912	2.940746	0.000000	-0.188748	0.000000	0.000021	-0.000002	0.000000	0.000000
33.961679	20.852907	14.781854	2.126467	-1.715210	2.813489	0.000000	-0.274120	0.000000	0.000020	-0.000002	0.000000	0.000000
34.510739	18.256484	17.031739	2.574388	-2.406679	2.640625	0.000000	-0.354630	0.000000	0.000018	-0.000003	0.000000	0.000000
34.956699	16.237642	19.044189	1.968788	-2.087103	2.498820	0.000000	-0.281688	0.000000	0.000017	-0.000003	0.000000	0.000000
35.397659	14.732208	20.708715	1.458152	-1.673310	2.389992	0.000000	-0.212382	0.000000	0.000016	-0.000002	0.000000	0.000000
35.838619	13.646148	21.973214	1.014135	-1.183382	2.311163	0.000000	-0.145495	0.000000	0.000015	-0.000002	0.000000	0.000000
36.279579	12.929842	22.780152	0.616451	-0.639612	2.261435	0.000000	-0.080266	0.000000	0.000014	-0.000001	0.000000	0.000000
36.721789	12.549870	23.093123	0.277597	-0.123417	2.240215	0.000000	-0.021443	0.000000	0.000014	-0.000001	0.000000	0.000000
37.019112	12.392385	23.170399	0.252080	-0.136488	2.233840	0.000000	-0.021443	0.000000	0.000014	-0.000001	0.000000	0.000000
37.352445	12.233868	23.266276	0.223472	-0.151142	2.226693	0.000000	-0.021443	0.000000	0.000013	-0.000001	0.000000	0.000000
37.685779	12.094422	23.371922	0.194865	-0.165797	2.219545	0.000000	-0.021443	0.000000	0.000013	-0.000001	0.000000	0.000000
38.020362	11.973633	23.487789	0.166150	-0.180506	2.212371	0.000000	-0.021443	0.000000	0.000013	-0.000001	0.000000	0.000000
38.317684	11.882419	23.599012	0.169769	-0.251442	2.205996	0.000000	-0.026852	0.000000	0.000012	-0.000001	0.000000	0.000000
38.758644	11.884177	23.559372	-0.173770	0.340995	2.208085	0.000000	0.036334	0.000000	0.000012	-0.000001	0.000000	0.000000
39.199604	12.191251	23.002121	-0.525248	0.917918	2.238101	0.000000	0.099934	0.000000	0.000012	-0.000000	0.000000	0.000000
39.640564	12.817671	21.952615	-0.900724	1.453075	2.296386	0.000000	0.164673	0.000000	0.000012	-0.000000	0.000000	0.000000
40.081524	13.792057	20.458603	-1.317351	1.922119	2.383604	0.000000	0.231286	0.000000	0.000012	0.000000	0.000000	0.000000
40.527484	15.176502	18.565491	-1.797991	2.304993	2.502220	0.000000	0.300940	0.000000	0.000012	0.000000	0.000000	0.000000
41.076544	16.943180	16.438088	-1.400602	1.592506	2.646921	0.000000	0.225371	0.000000	0.000012	0.000000	0.000000	0.000000
41.625604	18.216236	15.026573	-0.904282	0.993451	2.748970	0.000000	0.145805	0.000000	0.000012	-0.000000	0.000000	0.000000
42.174664	18.905748	14.230409	-0.344088	0.465157	2.806558	0.000000	0.063652	0.000000	0.000012	-0.000001	0.000000	0.000000
42.723724	18.963012	13.992886	0.240411	-0.030005	2.818661	0.000000	-0.019629	0.000000	0.000011	-0.000001	0.000000	0.000000
43.022297	18.853908	13.995344	0.174550	-0.014785	2.815000	0.000000	-0.012265	0.000000	0.000011	-0.000001	0.000000	0.000000
43.502297	18.698933	14.026004	0.148315	-0.049090	2.809113	0.000000	-0.012265	0.000000	0.000010	-0.000001	0.000000	0.000000
43.982297	18.569143	14.089597	0.122081	-0.083395	2.803226	0.000000	-0.012265	0.000000	0.000010	-0.000001	0.000000	0.000000
44.462297	18.464538	14.186122	0.095846	-0.117699	2.797339	0.000000	-0.012265	0.000000	0.000009	-0.000001	0.000000	0.000000
44.942297	18.385118	14.315580	0.069611	-0.152004	2.791452	0.000000	-0.012265	0.000000	0.000009	-0.000001	0.000000	0.000000
45.423547	18.331003	14.478256	-0.047513	-0.114664	2.785567	0.000000	0.001536	0.000000	0.000008	-0.000001	0.000000	0.000000
45.720870	18.364089	14.552626	-0.111748	-0.097449	2.786024	0.000000	0.008815	0.000000	0.000008	-0.000001	0.000000	0.000000
46.269930	18.177589	14.941077	0.449410	-0.614210	2.768291	0.000000	-0.073318	0.000000	0.000008	-0.000001	0.000000	0.000000
46.818990	17.388733	15.917543	0.978823	-1.174720	2.705752	0.000000	-0.154150	0.000000	0.000007	-0.000001	0.000000	0.000000
47.368050	16.053243	17.551576	1.439098	-1.818903	2.599519	0.000000	-0.232249	0.000000	0.000006	-0.000002	0.000000	0.000000
47.917110	14.265451	19.959565	1.797722	-2.592642	2.451474	0.000000	-0.306227	0.000000	0.000005	-0.000002	0.000000	0.000000
48.363070	12.874231	22.100447	1.332939	-2.187792	2.330203	0.000000	-0.237925	0.000000	0.000004	-0.000002	0.000000	0.000000
48.804030	11.878895	23.814572	0.932824	-1.684673	2.239748	0.000000	-0.172729	0.000000	0.000004	-0.000002	0.000000	0.000000
49.244990	11.216374	25.049363	0.575327	-1.104903	2.177582	0.000000	-0.109501	0.000000	0.000003	-0.000002	0.000000	0.000000
49.685950	10.856398	25.748637	0.244115	-0.474862	2.142996	0.000000	-0.047520	0.000000	0.000002	-0.000001	0.000000	0.000000
50.128160	10.782645	25.880295	-0.049618	0.113272	2.135606	0.000000	0.008683	0.000000	0.000002	-0.000001	0.000000	0.000000
50.425482	10.820369	25.816398	-0.077260	0.101636	2.138188	0.000000	0.008683	0.000000	0.000001	-0.000001	0.000000	0.000000
50.758816	10.882206	25.752989	-0.108250	0.088591	2.141083	0.000000	0.008683	0.000000	0.000001	-0.000001	0.000000	0.000000
51.092149	10.964703	25.698277	-0.139240	0.075546	2.143978	0.000000	0.008683	0.000000	0.000000	-0.000001	0.000000	0.000000
51.426732	11.068061	25.652625	-0.080555	-0.145655	2.146861	0.000000	-0.008734	0.000000	-0.000000	-0.000001	0.000000	0.000000
51.724055	11.124002	25.742757	-0.080313	-0.220621	2.144265	0.000000	-0.013992	0.000000	-0.000001	-0.000001	0.000000	0.000000
52.165015	11.340085	25.650920	-0.411575	0.428093	2.151684	0.000000	0.047672	0.000000	-0.000001	-0.000001	0.000000	0.000000
52.605975	11.855471	24.993406	-0.761641	1.057329	2.186388	0.000000	0.109878	0.000000	-0.000002	-0.000001	0.000000	0.000000
53.046935	12.693706	23.800132	-1.146504	1.638457	2.248773	0.000000	0.173336	0.000000	-0.000003	-0.000002	0.000000	0.000000
53.487895	13.893087	22.125389	-1.583747	2.145037	2.339548	0.000000	0.238768	0.000000	-0.000003	-0.000002	0.000000	0.000000
53.933855	15.528972	20.020338	-2.097574	2.555357	2.461252	0.000000	0.307319	0.000000	-0.000004	-0.000002	0.000000	0.000000
54.482915	17.635143	17.651596	-1.715678	1.784286	2.609809	0.000000	0.233015	0.000000	-0.000005	-0.000002	0.000000	0.000000
55.031975	19.252514	16.055242	-1.212595	1.140307	2.716373	0.000000	0.154578	0.000000	-0.000006	-0.000001	0.000000	0.000000
55.581035	20.266842	15.117572	-0.623860	0.577548	2.779053	0.000000	0.073399	0.000000	-0.000006	-0.000001	0.000000	0.000000
56.130095	20.606480	14.771797	0.008941	0.055927	2.796736	0.000000	-0.009081	0.000000	-0.000007	-0.000001	0.000000	0.000000
56.428668	20.637628	14.721440	-0.059421	0.074133	2.796207	0.000000	-0.001773	0.000000	-0.000007	-0.000001	0.000000	0.000000
56.762001	20.682645	14.679607	-0.075630	0.051365	2.795616	0.000000	-0.001773	0.000000	-0.000008	-0.000001	0.000000	0.000000
57.095334	20.738468	14.652953	-0.091839	0.028598	2.795026	0.000000	-0.001773	0.000000	-0.000008	-0.000001	0.000000	0.000000
57.429918	20.805367	14.641462	-0.108108	0.005746	2.794433	0.000000	-0.001773	0.000000	-0.000008	-0.000001	0.000000	0.000000
57.727240	20.873952	14.644083	-0.177110	0.023703	2.793906	0.000000	0.005527	0.000000	-0.000008	-0.000001	0.000000	0.000000
58.276300	20.712342	14.899232	0.469706	-0.491147	2.774302	0.000000	-0.076831	0.000000	-0.000009	-0.000001	0.000000	0.000000
58.825360	19.854547	15.735525	1.083344	-1.040981	2.709787	0.000000	-0.157826	0.000000	-0.000009	-0.000000	0.000000	0.000000
59.374420	18.361155	17.212531	1.620461	-1.664961	2.601505	0.000000	-0.236022	0.000000	-0.000009	-0.000000	0.000000	0.000000
59.923480	16.337654	19.435453	2.043116	-2.407533	2.451376	0.000000	-0.310031	0.000000	-0.000009	0.000000	0.000000	0.000000
60.369440	14.753898	21.411188	1.520801	-2.004062	2.328404	0.000000	-0.241753	0.000000	-0.000009	-0.000000	0.000000	0.000000
60.810400	13.614823	22.967014	1.072170	-1.510783	2.236247	0.000000	-0.176626	0.000000	-0.000009	-0.000000	0.000000	0.000000
61.251360	12.848391	24.055718	0.672523	-0.948764	2.172339	0.000000	-0.113511	0.000000	-0.000010	-0.000001	0.000000	0.000000
61.692320	12.419586	24.627766	0.303601	-0.343578	2.135951	0.000000	-0.051688	0.000000	-0.000010	-0.000001	0.000000	0.000000
62.134530	12.308870	24.656588	-0.021363	0.216716	2.126674	0.000000	0.004330	0.000000	-0.000010	-0.000001	0.000000	0.000000
62.431853	12.328759	24.531473	-0.045530	0.204091	2.127962	0.000000	0.004330	0.000000	-0.000011	-0.000001	0.000000	0.000000
62.765186	12.368143	24.400130	-0.072623	0.189937	2.129406	0.000000	0.004330	0.000000	-0.000011	-0.000001	0.000000	0.000000
63.098520	12.425589	24.278224	-0.099716	0.175783	2.130850	0.000000	0.004330	0.000000	-0.000011	-0.000001	0.000000	0.000000
63.433103	12.501415	24.165349	-0.126910	0.161576	2.132299	0.000000	0.004330	0.000000	-0.000012	-0.000001	0.000000	0.000000
63.730426	12.584067	24.073023	-0.120213	0.089910	2.133587	0.000000	-0.000902	0.000000	-0.000012	-0.000001	0.000000	0.000000
64.171386	12.850358	23.728618	-0.485967	0.688153	2.146728	0.000000	0.060560	0.000000	-0.000013	-0.000001	0.000000	0.000000
64.612346	13.447748	22.868455	-0.873924	1.255085	2.187098	0.000000	0.122712	0.000000	-0.000013	-0.000002	0.000000	0.000000
65.053306	14.403532	21.531670	-1.301807	1.764912	2.255156	0.000000	0.186261	0.000000	-0.000014	-0.000002	0.000000	0.000000
65.494266	15.761375	19.779087	-1.789166	2.194437	2.351678	0.000000	0.251932	0.000000	-0.000015	-0.000002	0.000000	0.000000
65.940226	17.606475	17.665648	-2.362958	2.524869	2.479335	0.000000	0.320874	0.000000	-0.000016	-0.000003	0.000000	0.000000
66.489286	19.971794	15.301395	-1.919486	1.806550	2.635153	0.000000	0.245867	0.000000	-0.000017	-0.000002	0.000000	0.000000
67.038346	21.772342	13.651078	-1.340431	1.216907	2.748527	0.000000	0.166498	0.000000	-0.000019	-0.000002	0.000000	0.000000
67.587406	22.880936	12.597148	-0.666695	0.713941	2.817447	0.000000	0.084177	0.000000	-0.000019	-0.000001	0.000000	0.000000
68.136466	23.219272	12.064537	0.054133	0.261828	2.840690	0.000000	0.000362	0.000000	-0.000020	-0.000000	0.000000	0.000000
68.435038	23.227020	11.897385	-0.019404	0.266478	2.843015	0.000000	0.007785	0.000000	-0.000020	-0.000000	0.000000	0.000000
68.768372	23.244741	11.729736	-0.033761	0.236471	2.845610	0.000000	0.007785	0.000000	-0.000020	-0.000000	0.000000	0.000000
69.101705	23.272034	11.582091	-0.048117	0.206464	2.848205	0.000000	0.007785	0.000000	-0.000020	-0.000000	0.000000	0.000000
69.436288	23.309054	11.454009	-0.062527	0.176345	2.850810	0.000000	0.007785	0.000000	-0.000020	-0.000000	0.000000	0.000000
69.733611	23.350043	11.357105	-0.136353	0.179259	2.853125	0.000000	0.015241	0.000000	-0.000020	-0.000001	0.000000	0.000000
70.282671	23.098747	11.387722	0.591327	-0.235351	2.838314	0.000000	-0.069113	0.000000	-0.000021	0.000000	0.000000	0.000000
