#ParticleID	Turn	x[m]	xp	y[m]	yp	z[m]	dE[GeV]# s	beta_x	beta_y	alpha_x	alpha_y	D_x	D_y	D_px	D_py	orbit_x	orbit_px	orbit_y	orbit_py
0.300000	11.808898	25.038830	-0.010498	-0.027062	2.618114	0.000000	0.000012	0.000000	-0.000001	0.000001	0.000000	0.000000
0.601250	11.822909	25.058762	-0.036011	-0.039102	2.618117	0.000000	0.000012	0.000000	-0.000000	0.000001	0.000000	0.000000
0.898573	11.851810	25.085547	-0.032128	-0.112502	2.618120	0.000000	-0.006408	0.000000	0.000000	0.000001	0.000000	0.000000
1.339533	12.032214	24.906487	-0.378541	0.517025	2.631587	0.000000	0.067549	0.000000	0.000001	0.000001	0.000000	0.000000
1.780493	12.524569	24.180527	-0.742248	1.123028	2.677805	0.000000	0.142276	0.000000	0.000002	0.000002	0.000000	0.000000
2.221453	13.351370	22.940697	-1.139866	1.677933	2.757299	0.000000	0.218623	0.000000	0.000002	0.000002	0.000000	0.000000
2.662413	14.550390	21.243409	-1.589562	2.156494	2.870977	0.000000	0.297460	0.000000	0.000003	0.000002	0.000000	0.000000
3.108373	16.197141	19.140998	-2.116168	2.538070	3.021992	0.000000	0.380175	0.000000	0.000004	0.000002	0.000000	0.000000
3.657433	18.308841	16.779649	-1.707094	1.788027	3.205459	0.000000	0.287137	0.000000	0.000005	0.000002	0.000000	0.000000
4.206493	19.902055	15.167589	-1.177439	1.165341	3.336366	0.000000	0.189006	0.000000	0.000005	0.000001	0.000000	0.000000
4.755553	20.864244	14.189992	-0.564616	0.625659	3.412393	0.000000	0.087522	0.000000	0.000006	0.000001	0.000000	0.000000
5.304613	21.127444	13.777229	0.088089	0.130542	3.432190	0.000000	-0.015514	0.000000	0.000007	0.000001	0.000000	0.000000
5.603185	21.112028	13.684431	0.018742	0.144265	3.430235	0.000000	-0.006546	0.000000	0.000007	0.000001	0.000000	0.000000
5.936519	21.104798	13.596543	0.002948	0.119400	3.428052	0.000000	-0.006546	0.000000	0.000007	0.000001	0.000000	0.000000
6.269852	21.108098	13.525232	-0.012846	0.094534	3.425870	0.000000	-0.006546	0.000000	0.000008	0.000001	0.000000	0.000000
6.604435	21.121998	13.470324	-0.028700	0.069575	3.423679	0.000000	-0.006546	0.000000	0.000008	0.000001	0.000000	0.000000
6.901758	21.143253	13.435546	-0.098027	0.082498	3.421732	0.000000	0.002393	0.000000	0.000008	0.000001	0.000000	0.000000
7.450818	20.890575	13.605851	0.555506	-0.394505	3.394845	0.000000	-0.100189	0.000000	0.000009	0.000001	0.000000	0.000000
7.999878	19.937637	14.312226	1.169801	-0.899607	3.312039	0.000000	-0.200994	0.000000	0.000009	0.000000	0.000000	0.000000
8.548938	18.351751	15.604985	1.701467	-1.468786	3.174783	0.000000	-0.298234	0.000000	0.000009	0.000000	0.000000	0.000000
9.097998	16.244936	17.576209	2.112950	-2.142584	2.985513	0.000000	-0.390184	0.000000	0.000010	-0.000000	0.000000	0.000000
9.543958	14.601266	19.332651	1.585842	-1.779331	2.829814	0.000000	-0.308477	0.000000	0.000010	0.000000	0.000000	0.000000
9.984918	13.405810	20.711792	1.135473	-1.336354	2.711034	0.000000	-0.230766	0.000000	0.000010	0.000000	0.000000	0.000000
10.425878	12.583253	21.671856	0.736981	-0.832574	2.625910	0.000000	-0.155684	0.000000	0.000010	0.000001	0.000000	0.000000
10.866838	12.096015	22.169161	0.372159	-0.290913	2.573473	0.000000	-0.082376	0.000000	0.000010	0.000001	0.000000	0.000000
11.309048	11.921702	22.180557	0.053468	0.209536	2.553103	0.000000	-0.016265	0.000000	0.000011	0.000001	0.000000	0.000000
11.606371	11.897344	22.060118	0.028457	0.195543	2.548267	0.000000	-0.016265	0.000000	0.000011	0.000001	0.000000	0.000000
12.086371	11.889406	21.883240	-0.011921	0.172952	2.540459	0.000000	-0.016265	0.000000	0.000011	0.000001	0.000000	0.000000
12.566371	11.920231	21.728050	-0.052298	0.150362	2.532651	0.000000	-0.016265	0.000000	0.000012	0.000001	0.000000	0.000000
13.046371	11.989819	21.594546	-0.092676	0.127771	2.524843	0.000000	-0.016265	0.000000	0.000013	0.000001	0.000000	0.000000
13.526371	12.098170	21.482730	-0.133054	0.105180	2.517035	0.000000	-0.016265	0.000000	0.000013	0.000001	0.000000	0.000000
14.007621	12.245717	21.392394	-0.173537	0.082531	2.509207	0.000000	-0.016265	0.000000	0.000014	0.000001	0.000000	0.000000
14.304943	12.356346	21.347478	-0.168251	0.016194	2.504370	0.000000	-0.022406	0.000000	0.000014	0.000001	0.000000	0.000000
14.745903	12.663232	21.099557	-0.530340	0.543896	2.510122	0.000000	0.048520	0.000000	0.000015	0.000001	0.000000	0.000000
15.186863	13.298889	20.395422	-0.916658	1.046850	2.547241	0.000000	0.119998	0.000000	0.000015	0.000002	0.000000	0.000000
15.627823	14.292359	19.267111	-1.344857	1.502174	2.616149	0.000000	0.192843	0.000000	0.000016	0.000002	0.000000	0.000000
16.068783	15.689029	17.765960	-1.834498	1.889150	2.717633	0.000000	0.267884	0.000000	0.000017	0.000003	0.000000	0.000000
16.514743	17.576369	15.938770	-2.412710	2.190914	2.854541	0.000000	0.346438	0.000000	0.000019	0.000003	0.000000	0.000000
17.063803	20.000453	13.898582	-1.976124	1.546801	3.021024	0.000000	0.259101	0.000000	0.000020	0.000003	0.000000	0.000000
17.612863	21.865163	12.501419	-1.399955	1.012864	3.138219	0.000000	0.167168	0.000000	0.000021	0.000002	0.000000	0.000000
18.161923	23.038785	11.647764	-0.724900	0.551070	3.204048	0.000000	0.072270	0.000000	0.000022	0.000001	0.000000	0.000000
18.710983	23.438419	11.276813	0.001358	0.128529	3.217343	0.000000	-0.023910	0.000000	0.000023	0.000000	0.000000	0.000000
19.009556	23.477988	11.190574	-0.072655	0.130850	3.212714	0.000000	-0.015505	0.000000	0.000023	0.000000	0.000000	0.000000
19.342889	23.531182	11.113440	-0.086928	0.100553	3.207545	0.000000	-0.015505	0.000000	0.000023	0.000000	0.000000	0.000000
19.676223	23.593892	11.056504	-0.101200	0.070256	3.202376	0.000000	-0.015505	0.000000	0.000023	0.000000	0.000000	0.000000
20.010806	23.666698	11.019529	-0.232784	0.094443	3.197208	0.000000	0.000335	0.000000	0.000023	0.000001	0.000000	0.000000
20.308129	23.809060	10.971463	-0.308225	0.095882	3.197308	0.000000	0.008688	0.000000	0.000023	0.000001	0.000000	0.000000
20.857189	23.736875	11.088189	0.438917	-0.309729	3.175856	0.000000	-0.086711	0.000000	0.000023	-0.000000	0.000000	0.000000
21.406249	22.856476	11.659754	1.155055	-0.737402	3.102371	0.000000	-0.180572	0.000000	0.000023	-0.000001	0.000000	0.000000
21.955309	21.230051	12.726867	1.789607	-1.217598	2.978156	0.000000	-0.271229	0.000000	0.000023	-0.000002	0.000000	0.000000
22.504369	18.972483	14.365538	2.297749	-1.784520	2.805414	0.000000	-0.357076	0.000000	0.000021	-0.000002	0.000000	0.000000
22.950329	17.193252	15.836825	1.705996	-1.500707	2.663468	0.000000	-0.279862	0.000000	0.000021	-0.000002	0.000000	0.000000
23.391289	15.918036	17.009909	1.196882	-1.149465	2.556384	0.000000	-0.206289	0.000000	0.000020	-0.000001	0.000000	0.000000
23.832249	15.066099	17.848892	0.742451	-0.745923	2.481194	0.000000	-0.135066	0.000000	0.000019	-0.000001	0.000000	0.000000
24.273209	14.598519	18.315602	0.321940	-0.308443	2.437042	0.000000	-0.065381	0.000000	0.000019	-0.000000	0.000000	0.000000
24.715418	14.494054	18.388558	-0.048412	0.097916	2.423421	0.000000	-0.002383	0.000000	0.000019	0.000000	0.000000	0.000000
25.012741	14.528956	18.335186	-0.068974	0.081592	2.422713	0.000000	-0.002383	0.000000	0.000019	0.000000	0.000000	0.000000
25.346075	14.582622	18.286891	-0.092026	0.063291	2.421919	0.000000	-0.002383	0.000000	0.000019	0.000000	0.000000	0.000000
25.679408	14.651657	18.250798	-0.115077	0.044990	2.421124	0.000000	-0.002383	0.000000	0.000019	0.000000	0.000000	0.000000
26.013991	14.736106	18.227208	-0.018667	-0.121247	2.420303	0.000000	-0.022018	0.000000	0.000019	0.000000	0.000000	0.000000
26.311314	14.753207	18.304228	-0.002678	-0.182678	2.413756	0.000000	-0.027936	0.000000	0.000019	-0.000000	0.000000	0.000000
26.752274	14.937324	18.266840	-0.416444	0.267143	2.416549	0.000000	0.040616	0.000000	0.000020	0.000000	0.000000	0.000000
27.193234	15.493330	17.836611	-0.849237	0.704810	2.449643	0.000000	0.109630	0.000000	0.000020	0.000001	0.000000	0.000000
27.634194	16.446626	17.033115	-1.320829	1.110408	2.513416	0.000000	0.179892	0.000000	0.000020	0.000002	0.000000	0.000000
28.075154	17.840767	15.892910	-1.852766	1.465483	2.608593	0.000000	0.252204	0.000000	0.000021	0.000002	0.000000	0.000000
28.521114	19.763664	14.450699	-2.474321	1.754792	2.737863	0.000000	0.327831	0.000000	0.000022	0.000003	0.000000	0.000000
29.070174	22.207674	12.843847	-1.950591	1.189032	2.895194	0.000000	0.244423	0.000000	0.000024	0.000002	0.000000	0.000000
29.619234	23.997042	11.808395	-1.289080	0.707963	3.005470	0.000000	0.156679	0.000000	0.000024	0.000001	0.000000	0.000000
30.168294	25.005373	11.270590	-0.536516	0.277321	3.066734	0.000000	0.066156	0.000000	0.000025	0.000000	0.000000	0.000000
30.717354	25.161445	11.192125	0.253946	-0.133569	3.077901	0.000000	-0.025541	0.000000	0.000025	-0.000000	0.000000	0.000000
31.015927	25.052720	11.262478	0.175930	-0.131299	3.072676	0.000000	-0.017500	0.000000	0.000025	-0.000000	0.000000	0.000000
31.349260	24.940006	11.360046	0.162213	-0.161406	3.066843	0.000000	-0.017500	0.000000	0.000024	-0.000000	0.000000	0.000000
31.682593	24.836436	11.477686	0.148496	-0.191513	3.061009	0.000000	-0.017500	0.000000	0.000024	-0.000000	0.000000	0.000000
32.017177	24.741674	11.615951	0.134728	-0.221733	3.055154	0.000000	-0.017500	0.000000	0.000024	-0.000000	0.000000	0.000000
32.314499	24.665197	11.755788	0.058060	-0.217878	3.049951	0.000000	-0.009533	0.000000	0.000024	-0.000000	0.000000	0.000000
32.863559	24.178827	12.234231	0.822519	-0.658650	3.019832	0.000000	-0.100017	0.000000	0.000024	-0.000001	0.000000	0.000000
33.412619	22.880079	13.219462	1.528879	-1.146336	2.940448	0.000000	-0.188727	0.000000	0.000023	-0.000002	0.000000	0.000000
33.961679	20.860691	14.781656	2.127247	-1.715673	2.813205	0.000000	-0.274089	0.000000	0.000022	-0.000003	0.000000	0.000000
34.510739	18.263303	17.032085	2.575356	-2.407214	2.640361	0.000000	-0.354589	0.000000	0.000020	-0.000003	0.000000	0.000000
34.956699	16.243692	19.045033	1.969548	-2.087680	2.498572	0.000000	-0.281654	0.000000	0.000019	-0.000003	0.000000	0.000000
35.397659	14.737667	20.710076	1.458740	-1.673901	2.389758	0.000000	-0.212355	0.000000	0.000018	-0.000002	0.000000	0.000000
35.838619	13.651154	21.975094	1.014577	-1.183962	2.310940	0.000000	-0.145474	0.000000	0.000017	-0.000002	0.000000	0.000000
36.279579	12.934515	22.782528	0.616768	-0.640153	2.261220	0.000000	-0.080250	0.000000	0.000016	-0.000001	0.000000	0.000000
36.721789	12.554312	23.095952	0.277814	-0.123902	2.240006	0.000000	-0.021432	0.000000	0.000015	-0.000001	0.000000	0.000000
37.019112	12.396696	23.173516	0.252303	-0.136973	2.233634	0.000000	-0.021432	0.000000	0.000015	-0.000001	0.000000	0.000000
37.352445	12.238027	23.269716	0.223703	-0.151627	2.226490	0.000000	-0.021432	0.000000	0.000015	-0.000001	0.000000	0.000000
37.685779	12.098426	23.375685	0.195102	-0.166281	2.219347	0.000000	-0.021432	0.000000	0.000014	-0.000001	0.000000	0.000000
38.020362	11.977475	23.491876	0.166394	-0.180990	2.212176	0.000000	-0.021432	0.000000	0.000014	-0.000001	0.000000	0.000000
38.317684	11.886115	23.603387	0.170028	-0.251937	2.205804	0.000000	-0.026841	0.000000	0.000014	-0.000001	0.000000	0.000000
38.758644	11.887681	23.564131	-0.173593	0.340623	2.207897	0.000000	0.036341	0.000000	0.000013	-0.000001	0.000000	0.000000
39.199604	12.194631	23.007147	-0.525144	0.917685	2.237915	0.000000	0.099936	0.000000	0.000013	-0.000000	0.000000	0.000000
39.640564	12.820990	21.957779	-0.900688	1.452993	2.296200	0.000000	0.164670	0.000000	0.000013	-0.000000	0.000000	0.000000
40.081524	13.795374	20.463773	-1.317382	1.922191	2.383416	0.000000	0.231279	0.000000	0.000013	0.000000	0.000000	0.000000
40.527484	15.179878	18.570528	-1.798091	2.305216	2.502027	0.000000	0.300927	0.000000	0.000013	0.000001	0.000000	0.000000
41.076544	16.946594	16.442954	-1.400571	1.592594	2.646723	0.000000	0.225365	0.000000	0.000013	0.000000	0.000000	0.000000
41.625604	18.219543	15.031415	-0.904120	0.993409	2.748770	0.000000	0.145805	0.000000	0.000013	-0.000000	0.000000	0.000000
42.174664	18.908810	14.235369	-0.343808	0.464982	2.806359	0.000000	0.063659	0.000000	0.000013	-0.000001	0.000000	0.000000
42.723724	18.965710	13.998116	0.240790	-0.030325	2.818469	0.000000	-0.019616	0.000000	0.000012	-0.000001	0.000000	0.000000
43.022297	18.856383	14.000755	0.174923	-0.015084	2.814811	0.000000	-0.012253	0.000000	0.000012	-0.000001	0.000000	0.000000
43.502297	18.701050	14.031695	0.148688	-0.049376	2.808930	0.000000	-0.012253	0.000000	0.000011	-0.000001	0.000000	0.000000
43.982297	18.570902	14.095556	0.122454	-0.083667	2.803049	0.000000	-0.012253	0.000000	0.000011	-0.000001	0.000000	0.000000
44.462297	18.465939	14.192337	0.096219	-0.117959	2.797168	0.000000	-0.012253	0.000000	0.000010	-0.000001	0.000000	0.000000
44.942297	18.386162	14.322037	0.069985	-0.152251	2.791287	0.000000	-0.012253	0.000000	0.000010	-0.000001	0.000000	0.000000
45.423547	18.331687	14.484945	-0.047143	-0.114864	2.785408	0.000000	0.001547	0.000000	0.000009	-0.000001	0.000000	0.000000
45.720870	18.364553	14.559432	-0.111378	-0.097623	2.785868	0.000000	0.008826	0.000000	0.000009	-0.000001	0.000000	0.000000
46.269930	18.177641	14.948188	0.449785	-0.614596	2.768142	0.000000	-0.073302	0.000000	0.000008	-0.000001	0.000000	0.000000
46.818990	17.388382	15.925206	0.979177	-1.175345	2.705614	0.000000	-0.154130	0.000000	0.000008	-0.000002	0.000000	0.000000
47.368050	16.052527	17.560076	1.439405	-1.819811	2.599393	0.000000	-0.232224	0.000000	0.000007	-0.000002	0.000000	0.000000
47.917110	14.264434	19.969247	1.797961	-2.593898	2.451363	0.000000	-0.306199	0.000000	0.000006	-0.000002	0.000000	0.000000
48.363070	12.873003	22.111157	1.333173	-2.188830	2.330104	0.000000	-0.237899	0.000000	0.000005	-0.000002	0.000000	0.000000
48.804030	11.877459	23.826084	0.933065	-1.685447	2.239660	0.000000	-0.172706	0.000000	0.000004	-0.000002	0.000000	0.000000
49.244990	11.214718	25.061428	0.575586	-1.105378	2.177504	0.000000	-0.109480	0.000000	0.000003	-0.000002	0.000000	0.000000
49.685950	10.854502	25.760980	0.244403	-0.475015	2.142927	0.000000	-0.047500	0.000000	0.000003	-0.000002	0.000000	0.000000
50.128160	10.780477	25.892628	-0.049293	0.113417	2.135545	0.000000	0.008701	0.000000	0.000002	-0.000002	0.000000	0.000000
50.425482	10.818009	25.828644	-0.076940	0.101786	2.138133	0.000000	0.008701	0.000000	0.000001	-0.000002	0.000000	0.000000
50.758816	10.879634	25.765133	-0.107935	0.088747	2.141034	0.000000	0.008701	0.000000	0.000001	-0.000002	0.000000	0.000000
51.092149	10.961922	25.710315	-0.138930	0.075707	2.143934	0.000000	0.008701	0.000000	0.000000	-0.000002	0.000000	0.000000
51.426732	11.065075	25.664554	-0.080275	-0.145584	2.146824	0.000000	-0.008715	0.000000	-0.000000	-0.000002	0.000000	0.000000
51.724055	11.120850	25.754642	-0.080046	-0.220574	2.144233	0.000000	-0.013974	0.000000	-0.000001	-0.000002	0.000000	0.000000
52.165015	11.336665	25.662625	-0.411230	0.428453	2.151661	0.000000	0.047689	0.000000	-0.000001	-0.000002	0.000000	0.000000
52.605975	11.851706	25.004661	-0.761202	1.057986	2.186372	0.000000	0.109895	0.000000	-0.000002	-0.000002	0.000000	0.000000
53.046935	12.689505	23.810687	-1.145950	1.639381	2.248764	0.000000	0.173353	0.000000	-0.000003	-0.000002	0.000000	0.000000
53.487895	13.888339	22.135028	-1.583054	2.146185	2.339547	0.000000	0.238785	0.000000	-0.000003	-0.000002	0.000000	0.000000
53.933855	15.523531	20.028872	-2.096709	2.556678	2.461259	0.000000	0.307336	0.000000	-0.000004	-0.000002	0.000000	0.000000
54.482915	17.628826	17.658868	-1.714957	1.785278	2.609825	0.000000	0.233032	0.000000	-0.000005	-0.000002	0.000000	0.000000
55.031975	19.245507	16.061573	-1.212068	1.141039	2.716398	0.000000	0.154594	0.000000	-0.000006	-0.000001	0.000000	0.000000
55.581035	20.259381	15.123216	-0.623565	0.578073	2.779086	0.000000	0.073414	0.000000	-0.000007	-0.000001	0.000000	0.000000
56.130095	20.598833	14.776961	0.008983	0.056283	2.796778	0.000000	-0.009068	0.000000	-0.000007	-0.000001	0.000000	0.000000
56.428668	20.629946	14.726382	-0.059365	0.074508	2.796253	0.000000	-0.001760	0.000000	-0.000008	-0.000001	0.000000	0.000000
56.762001	20.674928	14.684297	-0.075580	0.051747	2.795666	0.000000	-0.001760	0.000000	-0.000008	-0.000001	0.000000	0.000000
57.095334	20.730719	14.657385	-0.091794	0.028986	2.795080	0.000000	-0.001760	0.000000	-0.000008	-0.000001	0.000000	0.000000
57.429918	20.797590	14.645633	-0.108070	0.006140	2.794492	0.000000	-0.001760	0.000000	-0.000009	-0.000001	0.000000	0.000000
57.727240	20.866153	14.648018	-0.177056	0.024114	2.793969	0.000000	0.005541	0.000000	-0.000009	-0.000001	0.000000	0.000000
58.276300	20.704629	14.902775	0.469499	-0.490841	2.774372	0.000000	-0.076819	0.000000	-0.000010	-0.000001	0.000000	0.000000
58.825360	19.847198	15.738780	1.082891	-1.040757	2.709863	0.000000	-0.157817	0.000000	-0.000010	-0.000000	0.000000	0.000000
59.374420	18.354425	17.215578	1.619793	-1.664804	2.601586	0.000000	-0.236015	0.000000	-0.000010	-0.000000	0.000000	0.000000
59.923480	16.331754	19.438358	2.042281	-2.407431	2.451460	0.000000	-0.310027	0.000000	-0.000010	0.000000	0.000000	0.000000
60.369440	14.748661	21.413953	1.520144	-2.003853	2.328490	0.000000	-0.241747	0.000000	-0.000010	-0.000000	0.000000	0.000000
60.810400	13.610099	22.969551	1.071659	-1.510477	2.236337	0.000000	-0.176617	0.000000	-0.000010	-0.000000	0.000000	0.000000
61.251360	12.844062	24.057949	0.672134	-0.948376	2.172433	0.000000	-0.113499	0.000000	-0.000010	-0.000001	0.000000	0.000000
61.692320	12.415552	24.629624	0.303317	-0.343125	2.136050	0.000000	-0.051674	0.000000	-0.000011	-0.000001	0.000000	0.000000
62.134530	12.305046	24.658024	-0.021564	0.217210	2.126780	0.000000	0.004346	0.000000	-0.000011	-0.000001	0.000000	0.000000
62.431853	12.325057	24.532615	-0.045738	0.204583	2.128073	0.000000	0.004346	0.000000	-0.000012	-0.000001	0.000000	0.000000
62.765186	12.364583	24.400945	-0.072840	0.190427	2.129522	0.000000	0.004346	0.000000	-0.000012	-0.000001	0.000000	0.000000
63.098520	12.422177	24.278713	-0.099942	0.176271	2.130971	0.000000	0.004346	0.000000	-0.000012	-0.000001	0.000000	0.000000
63.433103	12.498157	24.165513	-0.127145	0.162062	2.132426	0.000000	0.004346	0.000000	-0.000013	-0.000001	0.000000	0.000000
63.730426	12.580950	24.072898	-0.120463	0.090393	2.133718	0.000000	-0.000887	0.000000	-0.000013	-0.000001	0.000000	0.000000
64.171386	12.847433	23.728072	-0.486153	0.688620	2.146867	0.000000	0.060579	0.000000	-0.000014	-0.000001	0.000000	0.000000
64.612346	13.444962	22.867511	-0.874053	1.255516	2.187247	0.000000	0.122734	0.000000	-0.000014	-0.000002	0.000000	0.000000
65.053306	14.400837	21.530370	-1.301887	1.765286	2.255316	0.000000	0.186288	0.000000	-0.000015	-0.000002	0.000000	0.000000
65.494266	15.758730	19.777489	-1.789199	2.194737	2.351850	0.000000	0.251963	0.000000	-0.000016	-0.000003	0.000000	0.000000
65.940226	17.603839	17.663822	-2.362946	2.525081	2.479522	0.000000	0.320910	0.000000	-0.000018	-0.000003	0.000000	0.000000
66.489286	19.969208	15.299332	-1.919588	1.806771	2.635358	0.000000	0.245896	0.000000	-0.000019	-0.000002	0.000000	0.000000
67.038346	21.769927	13.648760	-1.340639	1.217153	2.748747	0.000000	0.166521	0.000000	-0.000020	-0.000002	0.000000	0.000000
67.587406	22.878801	12.594537	-0.666995	0.714231	2.817677	0.000000	0.084192	0.000000	-0.000021	-0.000001	0.000000	0.000000
68.136466	23.217507	12.061575	0.053763	0.262181	2.840926	0.000000	0.000369	0.000000	-0.000021	-0.000000	0.000000	0.000000
68.435038	23.225473	11.894221	-0.019771	0.266812	2.843254	0.000000	0.007794	0.000000	-0.000022	-0.000001	0.000000	0.000000
68.768372	23.243440	11.726353	-0.034129	0.236792	2.845852	0.000000	0.007794	0.000000	-0.000022	-0.000001	0.000000	0.000000
69.101705	23.270978	11.578498	-0.048487	0.206772	2.848450	0.000000	0.007794	0.000000	-0.000022	-0.000001	0.000000	0.000000
69.436288	23.308246	11.450215	-0.062898	0.176640	2.851057	0.000000	0.007794	0.000000	-0.000022	-0.000001	0.000000	0.000000
69.733611	23.349456	11.353138	-0.136724	0.179532	2.853375	0.000000	0.015250	0.000000	-0.000022	-0.000001	0.000000	0.000000
70.282671	23.098575	11.383393	0.590947	-0.234960	2.838567	0.000000	-0.069112	0.000000	-0.000022	0.000000	0.000000	0.000000
