#ParticleID	Turn	x[m]	xp	y[m]	yp	z[m]	dE[GeV]# s	beta_x	beta_y	alpha_x	alpha_y	D_x	D_y	D_px	D_py	orbit_x	orbit_px	orbit_y	orbit_py
0.300000	11.817224	25.004932	-0.011395	-0.027423	2.618048	0.000000	0.000038	0.000000	-0.000001	0.000001	0.000000	0.000000
0.601250	11.831770	25.025086	-0.036891	-0.039479	2.618059	0.000000	0.000038	0.000000	-0.000001	0.000001	0.000000	0.000000
0.898573	11.861189	25.052101	-0.032967	-0.112814	2.618070	0.000000	-0.006382	0.000000	-0.000000	0.000001	0.000000	0.000000
1.339533	12.042434	24.873705	-0.379616	0.515836	2.631548	0.000000	0.067574	0.000000	0.000000	0.000001	0.000000	0.000000
1.780493	12.535858	24.149162	-0.743607	1.121015	2.677777	0.000000	0.142300	0.000000	0.000000	0.000001	0.000000	0.000000
2.221453	13.364006	22.911438	-1.141572	1.675190	2.757282	0.000000	0.218647	0.000000	0.000001	0.000001	0.000000	0.000000
2.662413	14.564711	21.216847	-1.591693	2.153144	2.870970	0.000000	0.297484	0.000000	0.000001	0.000001	0.000000	0.000000
3.108373	16.213589	19.117641	-2.118824	2.534264	3.021997	0.000000	0.380198	0.000000	0.000002	0.000001	0.000000	0.000000
3.657433	18.327987	16.759943	-1.709321	1.785145	3.205476	0.000000	0.287160	0.000000	0.000002	0.000001	0.000000	0.000000
4.206493	19.923337	15.150637	-1.179080	1.163177	3.336396	0.000000	0.189028	0.000000	0.000003	0.000001	0.000000	0.000000
4.755553	20.886950	14.175095	-0.565554	0.624060	3.412435	0.000000	0.087543	0.000000	0.000003	0.000001	0.000000	0.000000
5.304613	21.150763	13.763832	0.087919	0.129393	3.432243	0.000000	-0.015494	0.000000	0.000004	0.000001	0.000000	0.000000
5.603185	21.135481	13.671746	0.018526	0.143068	3.430294	0.000000	-0.006527	0.000000	0.000004	0.000001	0.000000	0.000000
5.936519	21.128389	13.584661	0.002750	0.118188	3.428118	0.000000	-0.006527	0.000000	0.000004	0.000001	0.000000	0.000000
6.269852	21.131814	13.514162	-0.013027	0.093308	3.425943	0.000000	-0.006527	0.000000	0.000004	0.000001	0.000000	0.000000
6.604435	21.145830	13.460080	-0.028863	0.068334	3.423759	0.000000	-0.006527	0.000000	0.000005	0.000001	0.000000	0.000000
6.901758	21.167177	13.426043	-0.098239	0.081220	3.421818	0.000000	0.002414	0.000000	0.000005	0.000001	0.000000	0.000000
7.450818	20.914290	13.597610	0.556095	-0.395539	3.394941	0.000000	-0.100172	0.000000	0.000005	0.000001	0.000000	0.000000
7.999878	19.960283	14.305022	1.171149	-0.900471	3.312143	0.000000	-0.200980	0.000000	0.000005	0.000000	0.000000	0.000000
8.548938	18.372541	15.598666	1.703478	-1.469542	3.174895	0.000000	-0.298223	0.000000	0.000006	0.000000	0.000000	0.000000
9.097998	16.263216	17.570685	2.115483	-2.143286	2.985630	0.000000	-0.390177	0.000000	0.000006	0.000000	0.000000	0.000000
9.543958	14.617538	19.327865	1.587830	-1.780279	2.829934	0.000000	-0.308467	0.000000	0.000006	0.000000	0.000000	0.000000
9.984918	13.420533	20.707933	1.137011	-1.337503	2.711160	0.000000	-0.230753	0.000000	0.000006	0.000000	0.000000	0.000000
10.425878	12.596792	21.669081	0.738138	-0.833872	2.626042	0.000000	-0.155668	0.000000	0.000006	0.000000	0.000000	0.000000
10.866838	12.108681	22.167575	0.372989	-0.292301	2.573613	0.000000	-0.082356	0.000000	0.000006	0.000001	0.000000	0.000000
11.309048	11.933764	22.180215	0.054040	0.208120	2.553253	0.000000	-0.016242	0.000000	0.000006	0.000001	0.000000	0.000000
11.606371	11.909058	22.060615	0.029053	0.194135	2.548424	0.000000	-0.016242	0.000000	0.000007	0.000001	0.000000	0.000000
12.086371	11.900531	21.885083	-0.011287	0.171557	2.540627	0.000000	-0.016242	0.000000	0.000007	0.000001	0.000000	0.000000
12.566371	11.930729	21.731226	-0.051626	0.148978	2.532830	0.000000	-0.016242	0.000000	0.000007	0.000001	0.000000	0.000000
13.046371	11.999653	21.599045	-0.091966	0.126400	2.525034	0.000000	-0.016242	0.000000	0.000008	0.000001	0.000000	0.000000
13.526371	12.107303	21.488538	-0.132305	0.103822	2.517237	0.000000	-0.016242	0.000000	0.000008	0.000001	0.000000	0.000000
14.007621	12.254110	21.399504	-0.172750	0.081185	2.509420	0.000000	-0.016242	0.000000	0.000008	0.000001	0.000000	0.000000
14.304943	12.364264	21.355386	-0.167418	0.014834	2.504591	0.000000	-0.022384	0.000000	0.000009	0.000001	0.000000	0.000000
14.745903	12.670487	21.108562	-0.529661	0.542778	2.510353	0.000000	0.048548	0.000000	0.000009	0.000001	0.000000	0.000000
15.186863	13.305601	20.405286	-0.916101	1.046026	2.547486	0.000000	0.120032	0.000000	0.000010	0.000001	0.000000	0.000000
15.627823	14.298623	19.277558	-1.344396	1.501681	2.616411	0.000000	0.192883	0.000000	0.000010	0.000001	0.000000	0.000000
16.068783	15.694922	17.776688	-1.834113	1.889010	2.717915	0.000000	0.267932	0.000000	0.000011	0.000002	0.000000	0.000000
16.514743	17.581946	15.949460	-2.412383	2.191136	2.854847	0.000000	0.346494	0.000000	0.000012	0.000002	0.000000	0.000000
17.063803	20.005512	13.909161	-1.975515	1.546784	3.021357	0.000000	0.259146	0.000000	0.000013	0.000002	0.000000	0.000000
17.612863	21.869417	12.512147	-1.399107	1.012607	3.138574	0.000000	0.167202	0.000000	0.000013	0.000001	0.000000	0.000000
18.161923	23.042002	11.658914	-0.723873	0.550554	3.204419	0.000000	0.072292	0.000000	0.000014	0.000001	0.000000	0.000000
18.710983	23.440443	11.288688	0.002492	0.127717	3.217723	0.000000	-0.023900	0.000000	0.000014	0.000000	0.000000	0.000000
19.009556	23.479340	11.202903	-0.071528	0.130106	3.213097	0.000000	-0.015494	0.000000	0.000014	0.000000	0.000000	0.000000
19.342889	23.531781	11.126252	-0.085798	0.099848	3.207932	0.000000	-0.015494	0.000000	0.000014	0.000000	0.000000	0.000000
19.676223	23.593736	11.069772	-0.100067	0.069591	3.202768	0.000000	-0.015494	0.000000	0.000015	0.000000	0.000000	0.000000
20.010806	23.665783	11.033230	-0.231644	0.093885	3.197603	0.000000	0.000349	0.000000	0.000015	0.000000	0.000000	0.000000
20.308129	23.807465	10.985484	-0.307078	0.095399	3.197707	0.000000	0.008703	0.000000	0.000015	0.000000	0.000000	0.000000
20.857189	23.734056	11.102959	0.439986	-0.310617	3.176260	0.000000	-0.086709	0.000000	0.000015	-0.000000	0.000000	0.000000
21.406249	22.852560	11.675747	1.155972	-0.738757	3.102773	0.000000	-0.180582	0.000000	0.000015	-0.000001	0.000000	0.000000
21.955309	21.225243	12.744648	1.790306	-1.219517	2.978548	0.000000	-0.271253	0.000000	0.000014	-0.000001	0.000000	0.000000
22.504369	18.967050	14.385797	2.298181	-1.787141	2.805789	0.000000	-0.357112	0.000000	0.000014	-0.000001	0.000000	0.000000
22.950329	17.187408	15.859218	1.706491	-1.502850	2.663828	0.000000	-0.279888	0.000000	0.000013	-0.000001	0.000000	0.000000
23.391289	15.911720	17.033945	1.197463	-1.151034	2.556735	0.000000	-0.206306	0.000000	0.000013	-0.000001	0.000000	0.000000
23.832249	15.059224	17.874032	0.743143	-0.746848	2.481539	0.000000	-0.135074	0.000000	0.000012	-0.000000	0.000000	0.000000
24.273209	14.590973	18.341256	0.322775	-0.308681	2.437385	0.000000	-0.065381	0.000000	0.000012	-0.000000	0.000000	0.000000
24.715418	14.485692	18.414113	-0.047413	0.098310	2.423766	0.000000	-0.002375	0.000000	0.000012	0.000000	0.000000	0.000000
25.012741	14.520002	18.360500	-0.067985	0.082008	2.423060	0.000000	-0.002375	0.000000	0.000012	0.000000	0.000000	0.000000
25.346075	14.573013	18.311921	-0.091048	0.063731	2.422269	0.000000	-0.002375	0.000000	0.000012	0.000000	0.000000	0.000000
25.679408	14.641399	18.275526	-0.114111	0.045454	2.421477	0.000000	-0.002375	0.000000	0.000012	0.000000	0.000000	0.000000
26.013991	14.725205	18.251618	-0.017799	-0.120958	2.420658	0.000000	-0.022013	0.000000	0.000013	0.000000	0.000000	0.000000
26.311314	14.741794	18.328459	-0.001850	-0.182428	2.414113	0.000000	-0.027932	0.000000	0.000013	0.000000	0.000000	0.000000
26.752274	14.925056	18.290561	-0.415324	0.268046	2.416910	0.000000	0.040629	0.000000	0.000013	0.000000	0.000000	0.000000
27.193234	15.479927	17.859262	-0.847773	0.706323	2.450012	0.000000	0.109652	0.000000	0.000013	0.000001	0.000000	0.000000
27.634194	16.431757	17.054186	-1.318955	1.112463	2.513797	0.000000	0.179924	0.000000	0.000013	0.000001	0.000000	0.000000
28.075154	17.824032	15.911964	-1.850395	1.467987	2.608990	0.000000	0.252246	0.000000	0.000014	0.000001	0.000000	0.000000
28.521114	19.744551	14.467361	-2.471341	1.757631	2.738281	0.000000	0.327884	0.000000	0.000014	0.000002	0.000000	0.000000
29.070174	22.185546	12.857763	-1.948111	1.191225	2.895638	0.000000	0.244461	0.000000	0.000015	0.000001	0.000000	0.000000
29.619234	23.972547	11.820182	-1.287277	0.709668	3.005931	0.000000	0.156703	0.000000	0.000016	0.000001	0.000000	0.000000
30.168294	24.979330	11.280715	-0.535516	0.278659	3.067205	0.000000	0.066165	0.000000	0.000016	0.000000	0.000000	0.000000
30.717354	25.134779	11.200937	0.254072	-0.132502	3.078372	0.000000	-0.025547	0.000000	0.000016	-0.000000	0.000000	0.000000
31.015927	25.025945	11.270630	0.176108	-0.130180	3.073146	0.000000	-0.017505	0.000000	0.000016	-0.000000	0.000000	0.000000
31.349260	24.913117	11.367442	0.162375	-0.160256	3.067311	0.000000	-0.017505	0.000000	0.000016	-0.000000	0.000000	0.000000
31.682593	24.809445	11.484305	0.148642	-0.190333	3.061476	0.000000	-0.017505	0.000000	0.000016	-0.000000	0.000000	0.000000
32.017177	24.714590	11.621770	0.134858	-0.220522	3.055620	0.000000	-0.017505	0.000000	0.000016	-0.000000	0.000000	0.000000
32.314499	24.638039	11.760879	0.058243	-0.216625	3.050415	0.000000	-0.009536	0.000000	0.000016	-0.000000	0.000000	0.000000
32.863559	24.151964	12.237994	0.821802	-0.657471	3.020291	0.000000	-0.100034	0.000000	0.000015	-0.000001	0.000000	0.000000
33.412619	22.854477	13.221932	1.527314	-1.145147	2.940892	0.000000	-0.188759	0.000000	0.000015	-0.000001	0.000000	0.000000
33.961679	20.837226	14.782776	2.124943	-1.714390	2.813627	0.000000	-0.274135	0.000000	0.000014	-0.000002	0.000000	0.000000
34.510739	18.242702	17.031703	2.572477	-2.405745	2.640753	0.000000	-0.354649	0.000000	0.000013	-0.000002	0.000000	0.000000
34.956699	16.225373	19.043274	1.967294	-2.086075	2.498940	0.000000	-0.281704	0.000000	0.000012	-0.000002	0.000000	0.000000
35.397659	14.721101	20.706869	1.457003	-1.672236	2.390106	0.000000	-0.212395	0.000000	0.000012	-0.000001	0.000000	0.000000
35.838619	13.635922	21.970419	1.013278	-1.182311	2.311271	0.000000	-0.145506	0.000000	0.000011	-0.000001	0.000000	0.000000
36.279579	12.920258	22.776432	0.615847	-0.638593	2.261539	0.000000	-0.080273	0.000000	0.000010	-0.000001	0.000000	0.000000
36.721789	12.540718	23.088541	0.277198	-0.122487	2.240317	0.000000	-0.021448	0.000000	0.000010	-0.000001	0.000000	0.000000
37.019112	12.383475	23.165264	0.251667	-0.135558	2.233940	0.000000	-0.021448	0.000000	0.000010	-0.000001	0.000000	0.000000
37.352445	12.225237	23.260520	0.223045	-0.150211	2.226790	0.000000	-0.021448	0.000000	0.000010	-0.000001	0.000000	0.000000
37.685779	12.086081	23.365546	0.194422	-0.164865	2.219641	0.000000	-0.021448	0.000000	0.000009	-0.000001	0.000000	0.000000
38.020362	11.965593	23.480790	0.165693	-0.179574	2.212465	0.000000	-0.021448	0.000000	0.000009	-0.000001	0.000000	0.000000
38.317684	11.874655	23.591459	0.169280	-0.250493	2.206088	0.000000	-0.026858	0.000000	0.000009	-0.000001	0.000000	0.000000
38.758644	11.876767	23.551073	-0.174087	0.341731	2.208175	0.000000	0.036331	0.000000	0.000009	-0.000000	0.000000	0.000000
39.199604	12.184051	22.993280	-0.525408	0.918406	2.238190	0.000000	0.099933	0.000000	0.000009	-0.000000	0.000000	0.000000
39.640564	12.810546	21.943459	-0.900734	1.453295	2.296475	0.000000	0.164674	0.000000	0.000009	-0.000000	0.000000	0.000000
40.081524	13.784874	20.449377	-1.317211	1.922060	2.383694	0.000000	0.231290	0.000000	0.000009	0.000000	0.000000	0.000000
40.527484	15.169125	18.556442	-1.797694	2.304655	2.502313	0.000000	0.300946	0.000000	0.000009	0.000000	0.000000	0.000000
41.076544	16.935631	16.429277	-1.400588	1.592407	2.647016	0.000000	0.225374	0.000000	0.000009	0.000000	0.000000	0.000000
41.625604	18.208827	15.017745	-0.904550	0.993582	2.749066	0.000000	0.145805	0.000000	0.000009	-0.000000	0.000000	0.000000
42.174664	18.898781	14.221307	-0.344620	0.465528	2.806652	0.000000	0.063649	0.000000	0.000009	-0.000000	0.000000	0.000000
42.723724	18.956758	13.983234	0.239652	-0.029367	2.818753	0.000000	-0.019636	0.000000	0.000008	-0.000001	0.000000	0.000000
43.022297	18.848098	13.985330	0.173806	-0.014188	2.815090	0.000000	-0.012271	0.000000	0.000008	-0.000001	0.000000	0.000000
43.502297	18.693838	14.015428	0.147570	-0.048516	2.809200	0.000000	-0.012271	0.000000	0.000008	-0.000001	0.000000	0.000000
43.982297	18.564764	14.078481	0.121334	-0.082845	2.803310	0.000000	-0.012271	0.000000	0.000008	-0.000001	0.000000	0.000000
44.462297	18.460877	14.174490	0.095097	-0.117173	2.797420	0.000000	-0.012271	0.000000	0.000007	-0.000001	0.000000	0.000000
44.942297	18.382177	14.303454	0.068861	-0.151502	2.791531	0.000000	-0.012271	0.000000	0.000007	-0.000001	0.000000	0.000000
45.423547	18.328784	14.465659	-0.048254	-0.114248	2.785643	0.000000	0.001531	0.000000	0.000007	-0.000001	0.000000	0.000000
45.720870	18.362312	14.539787	-0.112488	-0.097082	2.786098	0.000000	0.008810	0.000000	0.000006	-0.000001	0.000000	0.000000
46.269930	18.176650	14.927619	0.448631	-0.613443	2.768361	0.000000	-0.073325	0.000000	0.000006	-0.000001	0.000000	0.000000
46.818990	17.388645	15.902999	0.978062	-1.173498	2.705818	0.000000	-0.154160	0.000000	0.000005	-0.000001	0.000000	0.000000
47.368050	16.053958	17.535401	1.438407	-1.817138	2.599578	0.000000	-0.232260	0.000000	0.000005	-0.000001	0.000000	0.000000
47.917110	14.266864	19.941099	1.797150	-2.590209	2.451526	0.000000	-0.306241	0.000000	0.000004	-0.000001	0.000000	0.000000
48.363070	12.876140	22.079987	1.332394	-2.185771	2.330249	0.000000	-0.237937	0.000000	0.000004	-0.000001	0.000000	0.000000
48.804030	11.881283	23.792546	0.932282	-1.683156	2.239789	0.000000	-0.172740	0.000000	0.000003	-0.000001	0.000000	0.000000
49.244990	11.219248	25.026246	0.574762	-1.103958	2.177618	0.000000	-0.109511	0.000000	0.000003	-0.000001	0.000000	0.000000
49.685950	10.859790	25.724956	0.243502	-0.474531	2.143027	0.000000	-0.047529	0.000000	0.000002	-0.000001	0.000000	0.000000
50.128160	10.786611	25.856600	-0.050298	0.113031	2.135633	0.000000	0.008674	0.000000	0.000002	-0.000001	0.000000	0.000000
50.425482	10.824737	25.792850	-0.077932	0.101385	2.138213	0.000000	0.008674	0.000000	0.000001	-0.000001	0.000000	0.000000
50.758816	10.887019	25.729612	-0.108913	0.088329	2.141104	0.000000	0.008674	0.000000	0.000001	-0.000001	0.000000	0.000000
51.092149	10.969954	25.675078	-0.139894	0.075272	2.143996	0.000000	0.008674	0.000000	0.000001	-0.000001	0.000000	0.000000
51.426732	11.073746	25.629613	-0.081153	-0.145753	2.146877	0.000000	-0.008742	0.000000	0.000000	-0.000001	0.000000	0.000000
51.724055	11.130039	25.719807	-0.080885	-0.220673	2.144278	0.000000	-0.014001	0.000000	0.000000	-0.000001	0.000000	0.000000
52.165015	11.346691	25.628284	-0.412299	0.427436	2.151693	0.000000	0.047663	0.000000	-0.000000	-0.000001	0.000000	0.000000
52.605975	11.862794	24.971607	-0.762549	1.056097	2.186394	0.000000	0.109870	0.000000	-0.000001	-0.000001	0.000000	0.000000
53.046935	12.701927	23.779652	-1.147639	1.636706	2.248774	0.000000	0.173328	0.000000	-0.000001	-0.000001	0.000000	0.000000
53.487895	13.902428	22.106654	-1.585160	2.142847	2.339545	0.000000	0.238760	0.000000	-0.000002	-0.000001	0.000000	0.000000
53.933855	15.539722	20.003718	-2.099334	2.552826	2.461246	0.000000	0.307311	0.000000	-0.000002	-0.000001	0.000000	0.000000
54.482915	17.647684	17.637390	-1.717159	1.782393	2.609798	0.000000	0.233007	0.000000	-0.000003	-0.000001	0.000000	0.000000
55.031975	19.266479	16.042829	-1.213692	1.138916	2.716358	0.000000	0.154571	0.000000	-0.000003	-0.000001	0.000000	0.000000
55.581035	20.281765	15.106457	-0.624497	0.576561	2.779033	0.000000	0.073392	0.000000	-0.000004	-0.000001	0.000000	0.000000
56.130095	20.621827	14.761578	0.008810	0.055273	2.796713	0.000000	-0.009088	0.000000	-0.000004	-0.000001	0.000000	0.000000
56.428668	20.653074	14.711631	-0.059581	0.073440	2.796182	0.000000	-0.001780	0.000000	-0.000004	-0.000001	0.000000	0.000000
56.762001	20.698193	14.670265	-0.075778	0.050660	2.795589	0.000000	-0.001780	0.000000	-0.000005	-0.000001	0.000000	0.000000
57.095334	20.754111	14.644085	-0.091975	0.027880	2.794996	0.000000	-0.001780	0.000000	-0.000005	-0.000001	0.000000	0.000000
57.429918	20.821097	14.633080	-0.108232	0.005014	2.794400	0.000000	-0.001780	0.000000	-0.000005	-0.000001	0.000000	0.000000
57.727240	20.889752	14.636139	-0.177263	0.022938	2.793871	0.000000	0.005520	0.000000	-0.000005	-0.000001	0.000000	0.000000
58.276300	20.728019	14.892007	0.470082	-0.491699	2.774264	0.000000	-0.076836	0.000000	-0.000006	-0.000001	0.000000	0.000000
58.825360	19.869530	15.728809	1.084224	-1.041360	2.709746	0.000000	-0.157830	0.000000	-0.000006	-0.000000	0.000000	0.000000
59.374420	18.374924	17.206149	1.621781	-1.665194	2.601462	0.000000	-0.236025	0.000000	-0.000006	-0.000000	0.000000	0.000000
59.923480	16.349772	19.429254	2.044783	-2.407636	2.451332	0.000000	-0.310033	0.000000	-0.000006	0.000000	0.000000	0.000000
60.369440	14.764694	21.405178	1.522108	-2.004383	2.328359	0.000000	-0.241756	0.000000	-0.000006	-0.000000	0.000000	0.000000
60.810400	13.624601	22.961378	1.073179	-1.511306	2.236201	0.000000	-0.176630	0.000000	-0.000006	-0.000000	0.000000	0.000000
61.251360	12.857393	24.050625	0.673281	-0.949466	2.172291	0.000000	-0.113516	0.000000	-0.000006	-0.000000	0.000000	0.000000
61.692320	12.428017	24.623360	0.304142	-0.344426	2.135900	0.000000	-0.051694	0.000000	-0.000007	-0.000001	0.000000	0.000000
62.134530	12.316910	24.652983	-0.020996	0.215770	2.126620	0.000000	0.004323	0.000000	-0.000007	-0.000001	0.000000	0.000000
62.431853	12.336575	24.528429	-0.045146	0.203148	2.127906	0.000000	0.004323	0.000000	-0.000007	-0.000001	0.000000	0.000000
62.765186	12.375697	24.397713	-0.072221	0.188998	2.129347	0.000000	0.004323	0.000000	-0.000007	-0.000001	0.000000	0.000000
63.098520	12.432869	24.276432	-0.099296	0.174847	2.130788	0.000000	0.004323	0.000000	-0.000008	-0.000001	0.000000	0.000000
63.433103	12.508407	24.164182	-0.126472	0.160644	2.132235	0.000000	0.004323	0.000000	-0.000008	-0.000001	0.000000	0.000000
63.730426	12.590793	24.072408	-0.119743	0.088985	2.133520	0.000000	-0.000909	0.000000	-0.000008	-0.000001	0.000000	0.000000
64.171386	12.856734	23.728819	-0.485638	0.687235	2.146658	0.000000	0.060551	0.000000	-0.000008	-0.000001	0.000000	0.000000
64.612346	13.453891	22.869446	-0.873721	1.254217	2.187023	0.000000	0.122701	0.000000	-0.000009	-0.000001	0.000000	0.000000
65.053306	14.409548	21.533390	-1.301721	1.764133	2.255076	0.000000	0.186248	0.000000	-0.000009	-0.000001	0.000000	0.000000
65.494266	15.767366	19.781441	-1.789193	2.193783	2.351592	0.000000	0.251917	0.000000	-0.000010	-0.000002	0.000000	0.000000
65.940226	17.612541	17.668519	-2.363100	2.524371	2.479241	0.000000	0.320857	0.000000	-0.000011	-0.000002	0.000000	0.000000
66.489286	19.977880	15.304807	-1.919380	1.806057	2.635050	0.000000	0.245853	0.000000	-0.000012	-0.000002	0.000000	0.000000
67.038346	21.778177	13.655044	-1.340084	1.216384	2.748418	0.000000	0.166488	0.000000	-0.000013	-0.000001	0.000000	0.000000
67.587406	22.886269	12.601721	-0.666132	0.713351	2.817333	0.000000	0.084170	0.000000	-0.000013	-0.000001	0.000000	0.000000
68.136466	23.223885	12.069812	0.054873	0.261129	2.840573	0.000000	0.000359	0.000000	-0.000014	-0.000000	0.000000	0.000000
68.435038	23.231195	11.903064	-0.018670	0.265813	2.842896	0.000000	0.007781	0.000000	-0.000014	-0.000000	0.000000	0.000000
68.768372	23.248426	11.735850	-0.033024	0.235831	2.845490	0.000000	0.007781	0.000000	-0.000014	-0.000000	0.000000	0.000000
69.101705	23.275227	11.588624	-0.047377	0.205848	2.848084	0.000000	0.007781	0.000000	-0.000014	-0.000000	0.000000	0.000000
69.436288	23.311750	11.460947	-0.061785	0.175753	2.850688	0.000000	0.007781	0.000000	-0.000014	-0.000000	0.000000	0.000000
69.733611	23.352297	11.364387	-0.135610	0.178706	2.853001	0.000000	0.015237	0.000000	-0.000014	-0.000000	0.000000	0.000000
70.282671	23.100151	11.395726	0.592123	-0.236119	2.838189	0.000000	-0.069114	0.000000	-0.000014	0.000000	0.000000	0.000000
