#ParticleID	Turn	x[m]	xp	y[m]	yp	z[m]	dE[GeV]# s	beta_x	beta_y	alpha_x	alpha_y	D_x	D_y	D_px	D_py	orbit_x	orbit_px	orbit_y	orbit_py
0.300000	11.803198	25.060081	-0.010033	-0.026768	2.618308	0.000000	-0.000061	0.000000	-0.000003	0.000002	0.000000	0.000000
0.601250	11.816932	25.079833	-0.035559	-0.038798	2.618289	0.000000	-0.000061	0.000000	-0.000002	0.000002	0.000000	0.000000
0.898573	11.845567	25.106434	-0.031702	-0.112240	2.618271	0.000000	-0.006482	0.000000	-0.000002	0.000002	0.000000	0.000000
1.339533	12.025530	24.926900	-0.377961	0.517834	2.631706	0.000000	0.067479	0.000000	-0.000001	0.000002	0.000000	0.000000
1.780493	12.517297	24.199998	-0.741489	1.124346	2.677893	0.000000	0.142209	0.000000	0.000000	0.000002	0.000000	0.000000
2.221453	13.343337	22.958802	-1.138893	1.679702	2.757358	0.000000	0.218558	0.000000	0.000001	0.000002	0.000000	0.000000
2.662413	14.541388	21.259785	-1.588330	2.158632	2.871007	0.000000	0.297396	0.000000	0.000002	0.000002	0.000000	0.000000
3.108373	16.186902	19.155338	-2.114617	2.540480	3.021994	0.000000	0.380111	0.000000	0.000003	0.000002	0.000000	0.000000
3.657433	18.297044	16.791673	-1.705822	1.789862	3.205425	0.000000	0.287074	0.000000	0.000004	0.000002	0.000000	0.000000
4.206493	19.889056	15.177852	-1.176535	1.166731	3.336298	0.000000	0.188944	0.000000	0.000005	0.000002	0.000000	0.000000
4.755553	20.850485	14.198927	-0.564144	0.626704	3.412291	0.000000	0.087463	0.000000	0.000006	0.000002	0.000000	0.000000
5.304613	21.113421	13.785170	0.088095	0.131316	3.432057	0.000000	-0.015569	0.000000	0.000007	0.000001	0.000000	0.000000
5.603185	21.097983	13.691897	0.018776	0.145066	3.430085	0.000000	-0.006602	0.000000	0.000007	0.000001	0.000000	0.000000
5.936519	21.090734	13.603472	0.002971	0.120209	3.427884	0.000000	-0.006602	0.000000	0.000007	0.000001	0.000000	0.000000
6.269852	21.094021	13.531618	-0.012834	0.095351	3.425683	0.000000	-0.006602	0.000000	0.000008	0.000001	0.000000	0.000000
6.604435	21.107917	13.476161	-0.028698	0.070400	3.423474	0.000000	-0.006602	0.000000	0.000008	0.000001	0.000000	0.000000
6.901758	21.129174	13.440890	-0.097998	0.083344	3.421511	0.000000	0.002337	0.000000	0.000009	0.000001	0.000000	0.000000
7.450818	20.876721	13.610344	0.555067	-0.393792	3.394594	0.000000	-0.100237	0.000000	0.000010	0.000001	0.000000	0.000000
7.999878	19.924510	14.315987	1.168925	-0.898977	3.311763	0.000000	-0.201034	0.000000	0.000010	0.000001	0.000000	0.000000
8.548938	18.339799	15.608079	1.700215	-1.468195	3.174489	0.000000	-0.298265	0.000000	0.000010	0.000000	0.000000	0.000000
9.097998	16.234525	17.578655	2.111411	-2.141988	2.985204	0.000000	-0.390205	0.000000	0.000011	0.000000	0.000000	0.000000
9.543958	14.592081	19.334503	1.584623	-1.778601	2.829493	0.000000	-0.308506	0.000000	0.000011	0.000000	0.000000	0.000000
9.984918	13.397581	20.712954	1.134516	-1.335526	2.710699	0.000000	-0.230804	0.000000	0.000011	0.000001	0.000000	0.000000
10.425878	12.575770	21.672258	0.736241	-0.831685	2.625557	0.000000	-0.155731	0.000000	0.000011	0.000001	0.000000	0.000000
10.866838	12.089101	22.168767	0.371603	-0.290003	2.573096	0.000000	-0.082431	0.000000	0.000012	0.000001	0.000000	0.000000
11.309048	11.915208	22.179364	0.053054	0.210429	2.552700	0.000000	-0.016330	0.000000	0.000013	0.000002	0.000000	0.000000
11.606371	11.891100	22.058395	0.028030	0.196430	2.547844	0.000000	-0.016330	0.000000	0.000013	0.000002	0.000000	0.000000
12.086371	11.883582	21.880670	-0.012368	0.173830	2.540005	0.000000	-0.016330	0.000000	0.000014	0.000002	0.000000	0.000000
12.566371	11.914847	21.724641	-0.052766	0.151230	2.532166	0.000000	-0.016330	0.000000	0.000015	0.000002	0.000000	0.000000
13.046371	11.984893	21.590308	-0.093164	0.128630	2.524327	0.000000	-0.016330	0.000000	0.000015	0.000002	0.000000	0.000000
13.526371	12.093721	21.477671	-0.133562	0.106030	2.516487	0.000000	-0.016330	0.000000	0.000016	0.000002	0.000000	0.000000
14.007621	12.241767	21.386522	-0.174065	0.083371	2.508628	0.000000	-0.016330	0.000000	0.000017	0.000002	0.000000	0.000000
14.304943	12.352714	21.341108	-0.168801	0.017047	2.503772	0.000000	-0.022469	0.000000	0.000017	0.000002	0.000000	0.000000
14.745903	12.660056	21.092517	-0.530826	0.544558	2.509492	0.000000	0.048441	0.000000	0.000018	0.000002	0.000000	0.000000
15.186863	13.296122	20.387893	-0.917103	1.047293	2.546572	0.000000	0.119902	0.000000	0.000019	0.000002	0.000000	0.000000
15.627823	14.289972	19.259296	-1.345279	1.502376	2.615434	0.000000	0.192729	0.000000	0.000020	0.000003	0.000000	0.000000
16.068783	15.687013	17.758076	-1.834918	1.889103	2.716863	0.000000	0.267751	0.000000	0.000022	0.000004	0.000000	0.000000
16.514743	17.574734	15.931039	-2.413147	2.190618	2.853708	0.000000	0.346285	0.000000	0.000023	0.000004	0.000000	0.000000
17.063803	19.999370	13.891071	-1.976683	1.546694	3.020114	0.000000	0.258976	0.000000	0.000025	0.000003	0.000000	0.000000
17.612863	21.864743	12.493925	-1.400596	1.012938	3.137248	0.000000	0.167074	0.000000	0.000027	0.000002	0.000000	0.000000
18.161923	23.039093	11.640087	-0.725578	0.551331	3.203033	0.000000	0.072208	0.000000	0.000028	0.000002	0.000000	0.000000
18.710983	23.439470	11.268740	0.000691	0.128994	3.216304	0.000000	-0.023939	0.000000	0.000029	0.000001	0.000000	0.000000
19.009556	23.479436	11.182243	-0.073322	0.131270	3.211664	0.000000	-0.015538	0.000000	0.000029	0.000001	0.000000	0.000000
19.342889	23.533075	11.104838	-0.087595	0.100947	3.206485	0.000000	-0.015538	0.000000	0.000029	0.000001	0.000000	0.000000
19.676223	23.596229	11.047648	-0.101868	0.070624	3.201305	0.000000	-0.015538	0.000000	0.000029	0.000001	0.000000	0.000000
20.010806	23.669482	11.010436	-0.233466	0.094740	3.196126	0.000000	0.000298	0.000000	0.000030	0.000001	0.000000	0.000000
20.308129	23.812250	10.962200	-0.308914	0.096129	3.196214	0.000000	0.008647	0.000000	0.000030	0.000001	0.000000	0.000000
20.857189	23.740760	11.078511	0.438348	-0.309217	3.174750	0.000000	-0.086716	0.000000	0.000030	-0.000000	0.000000	0.000000
21.406249	22.860902	11.649351	1.154647	-0.736587	3.101272	0.000000	-0.180541	0.000000	0.000030	-0.000001	0.000000	0.000000
21.955309	21.234823	12.715379	1.789387	-1.216423	2.977083	0.000000	-0.271164	0.000000	0.000029	-0.000002	0.000000	0.000000
22.504369	18.977384	14.352525	2.297734	-1.782902	2.804387	0.000000	-0.356977	0.000000	0.000028	-0.000003	0.000000	0.000000
22.950329	17.198206	15.822503	1.705892	-1.499401	2.662479	0.000000	-0.279788	0.000000	0.000027	-0.000002	0.000000	0.000000
23.391289	15.923121	16.994596	1.196686	-1.148530	2.555422	0.000000	-0.206241	0.000000	0.000026	-0.000001	0.000000	0.000000
23.832249	15.071402	17.832934	0.742152	-0.745402	2.480248	0.000000	-0.135042	0.000000	0.000025	-0.000001	0.000000	0.000000
24.273209	14.604135	18.299375	0.321526	-0.308358	2.436101	0.000000	-0.065381	0.000000	0.000025	-0.000000	0.000000	0.000000
24.715418	14.500094	18.372452	-0.048948	0.097602	2.422475	0.000000	-0.002405	0.000000	0.000025	0.000000	0.000000	0.000000
25.012741	14.535312	18.319271	-0.069502	0.081265	2.421760	0.000000	-0.002405	0.000000	0.000025	0.000000	0.000000	0.000000
25.346075	14.589328	18.271200	-0.092546	0.062949	2.420958	0.000000	-0.002405	0.000000	0.000025	0.000000	0.000000	0.000000
25.679408	14.658706	18.235340	-0.115589	0.044633	2.420156	0.000000	-0.002405	0.000000	0.000026	0.000000	0.000000	0.000000
26.013991	14.743495	18.211994	-0.019110	-0.121496	2.419327	0.000000	-0.022032	0.000000	0.000026	0.000000	0.000000	0.000000
26.311314	14.760856	18.289167	-0.003095	-0.182903	2.412777	0.000000	-0.027947	0.000000	0.000026	0.000000	0.000000	0.000000
26.752274	14.945425	18.252156	-0.417054	0.266515	2.415559	0.000000	0.040579	0.000000	0.000026	0.000001	0.000000	0.000000
27.193234	15.502063	17.822649	-0.850067	0.703806	2.448631	0.000000	0.109567	0.000000	0.000026	0.000001	0.000000	0.000000
27.634194	16.456203	17.020188	-1.321918	1.109074	2.512370	0.000000	0.179803	0.000000	0.000027	0.000002	0.000000	0.000000
28.075154	17.851436	15.881284	-1.854164	1.463880	2.607501	0.000000	0.252087	0.000000	0.000028	0.000003	0.000000	0.000000
28.521114	19.775743	14.440596	-2.476094	1.752993	2.736711	0.000000	0.327685	0.000000	0.000030	0.000004	0.000000	0.000000
29.070174	22.221533	12.835492	-1.952037	1.187630	2.893973	0.000000	0.244315	0.000000	0.000032	0.000003	0.000000	0.000000
29.619234	24.012260	11.801406	-1.290097	0.706860	3.004200	0.000000	0.156612	0.000000	0.000033	0.000002	0.000000	0.000000
30.168294	25.021438	11.264684	-0.537031	0.276438	3.065439	0.000000	0.066130	0.000000	0.000033	0.000001	0.000000	0.000000
30.717354	25.177781	11.187096	0.253969	-0.134293	3.076603	0.000000	-0.025524	0.000000	0.000033	-0.000001	0.000000	0.000000
31.015927	25.069063	11.257896	0.175924	-0.132055	3.071382	0.000000	-0.017488	0.000000	0.000033	-0.000000	0.000000	0.000000
31.349260	24.956350	11.355974	0.162216	-0.162180	3.065553	0.000000	-0.017488	0.000000	0.000033	-0.000000	0.000000	0.000000
31.682593	24.852776	11.474136	0.148507	-0.192306	3.059723	0.000000	-0.017488	0.000000	0.000033	-0.000000	0.000000	0.000000
32.017177	24.758003	11.612938	0.134748	-0.222544	3.053872	0.000000	-0.017488	0.000000	0.000033	-0.000000	0.000000	0.000000
32.314499	24.681511	11.753262	0.058050	-0.218714	3.048673	0.000000	-0.009525	0.000000	0.000033	-0.000000	0.000000	0.000000
32.863559	24.194855	12.232603	0.823046	-0.659461	3.018570	0.000000	-0.099967	0.000000	0.000032	-0.000001	0.000000	0.000000
33.412619	22.895249	13.218737	1.529906	-1.147180	2.939224	0.000000	-0.188637	0.000000	0.000031	-0.000002	0.000000	0.000000
33.961679	20.874491	14.781904	2.128700	-1.716610	2.812042	0.000000	-0.273960	0.000000	0.000029	-0.000003	0.000000	0.000000
34.510739	18.275318	17.033444	2.577134	-2.408311	2.639279	0.000000	-0.354425	0.000000	0.000027	-0.000004	0.000000	0.000000
34.956699	16.254294	19.047402	1.970951	-2.088839	2.497558	0.000000	-0.281516	0.000000	0.000025	-0.000004	0.000000	0.000000
35.397659	14.747171	20.713476	1.459835	-1.675070	2.388799	0.000000	-0.212242	0.000000	0.000024	-0.000003	0.000000	0.000000
35.838619	13.659810	21.979508	1.015414	-1.185086	2.310025	0.000000	-0.145386	0.000000	0.000023	-0.000002	0.000000	0.000000
36.279579	12.942531	22.787895	0.617386	-0.641181	2.260340	0.000000	-0.080185	0.000000	0.000022	-0.000002	0.000000	0.000000
36.721789	12.561868	23.102168	0.278257	-0.124799	2.239150	0.000000	-0.021387	0.000000	0.000021	-0.000001	0.000000	0.000000
37.019112	12.403986	23.180266	0.252756	-0.137870	2.232791	0.000000	-0.021387	0.000000	0.000021	-0.000001	0.000000	0.000000
37.352445	12.245012	23.277063	0.224166	-0.152523	2.225662	0.000000	-0.021387	0.000000	0.000020	-0.000001	0.000000	0.000000
37.685779	12.105098	23.383630	0.195576	-0.167177	2.218534	0.000000	-0.021387	0.000000	0.000020	-0.000001	0.000000	0.000000
38.020362	11.983826	23.500420	0.166879	-0.181885	2.211378	0.000000	-0.021387	0.000000	0.000019	-0.000001	0.000000	0.000000
38.317684	11.892174	23.612463	0.170536	-0.252850	2.205020	0.000000	-0.026794	0.000000	0.000019	-0.000001	0.000000	0.000000
38.758644	11.893352	23.573903	-0.173218	0.339963	2.207129	0.000000	0.036368	0.000000	0.000019	-0.000001	0.000000	0.000000
39.199604	12.200024	23.017379	-0.524885	0.917308	2.237155	0.000000	0.099944	0.000000	0.000018	-0.000000	0.000000	0.000000
39.640564	12.826201	21.968212	-0.900533	1.452916	2.295439	0.000000	0.164657	0.000000	0.000018	0.000000	0.000000	0.000000
40.081524	13.800491	20.474139	-1.317324	1.922418	2.382645	0.000000	0.231247	0.000000	0.000018	0.000001	0.000000	0.000000
40.527484	15.184985	18.580558	-1.798128	2.305738	2.501238	0.000000	0.300875	0.000000	0.000019	0.000001	0.000000	0.000000
41.076544	16.951625	16.452566	-1.400396	1.592838	2.645912	0.000000	0.225339	0.000000	0.000019	0.000000	0.000000	0.000000
41.625604	18.224272	15.040904	-0.903747	0.993391	2.747952	0.000000	0.145805	0.000000	0.000019	-0.000000	0.000000	0.000000
42.174664	18.913032	14.245020	-0.343262	0.464702	2.805548	0.000000	0.063685	0.000000	0.000019	-0.000001	0.000000	0.000000
42.723724	18.969255	14.008228	0.241469	-0.030887	2.817679	0.000000	-0.019564	0.000000	0.000018	-0.000001	0.000000	0.000000
43.022297	18.859527	14.011183	0.175594	-0.015607	2.814036	0.000000	-0.012203	0.000000	0.000018	-0.000001	0.000000	0.000000
43.502297	18.703550	14.042614	0.149358	-0.049873	2.808180	0.000000	-0.012203	0.000000	0.000017	-0.000001	0.000000	0.000000
43.982297	18.572760	14.106940	0.123122	-0.084140	2.802323	0.000000	-0.012203	0.000000	0.000016	-0.000001	0.000000	0.000000
44.462297	18.467156	14.204162	0.096886	-0.118407	2.796466	0.000000	-0.012203	0.000000	0.000016	-0.000001	0.000000	0.000000
44.942297	18.386739	14.334281	0.070650	-0.152673	2.790609	0.000000	-0.012203	0.000000	0.000015	-0.000001	0.000000	0.000000
45.423547	18.331625	14.497583	-0.046480	-0.115199	2.784755	0.000000	0.001594	0.000000	0.000014	-0.000001	0.000000	0.000000
45.720870	18.364097	14.572265	-0.110710	-0.097910	2.785229	0.000000	0.008871	0.000000	0.000014	-0.000001	0.000000	0.000000
46.269930	18.176465	14.961551	0.450418	-0.615280	2.767534	0.000000	-0.073237	0.000000	0.000013	-0.000002	0.000000	0.000000
46.818990	17.386551	15.939559	0.979731	-1.176475	2.705047	0.000000	-0.154046	0.000000	0.000012	-0.000002	0.000000	0.000000
47.368050	16.050149	17.575950	1.439841	-1.821467	2.598877	0.000000	-0.232122	0.000000	0.000011	-0.000003	0.000000	0.000000
47.917110	14.261656	19.987280	1.798247	-2.596198	2.450908	0.000000	-0.306081	0.000000	0.000009	-0.000003	0.000000	0.000000
48.363070	12.869961	22.131067	1.333481	-2.190721	2.329699	0.000000	-0.237792	0.000000	0.000008	-0.000003	0.000000	0.000000
48.804030	11.874132	23.847449	0.933407	-1.686844	2.239300	0.000000	-0.172609	0.000000	0.000007	-0.000002	0.000000	0.000000
49.244990	11.211068	25.083782	0.575979	-1.106217	2.177185	0.000000	-0.109392	0.000000	0.000006	-0.000002	0.000000	0.000000
49.685950	10.850476	25.783813	0.244865	-0.475258	2.142645	0.000000	-0.047420	0.000000	0.000005	-0.000002	0.000000	0.000000
50.128160	10.776004	25.915408	-0.048753	0.113726	2.135297	0.000000	0.008775	0.000000	0.000004	-0.000002	0.000000	0.000000
50.425482	10.813217	25.851236	-0.076410	0.102105	2.137907	0.000000	0.008775	0.000000	0.000004	-0.000002	0.000000	0.000000
50.758816	10.874493	25.787509	-0.107416	0.089076	2.140833	0.000000	0.008775	0.000000	0.000003	-0.000002	0.000000	0.000000
51.092149	10.956439	25.732468	-0.138423	0.076048	2.143758	0.000000	0.008775	0.000000	0.000002	-0.000002	0.000000	0.000000
51.426732	11.059255	25.686476	-0.079825	-0.145411	2.146673	0.000000	-0.008640	0.000000	0.000002	-0.000002	0.000000	0.000000
51.724055	11.114767	25.776458	-0.079625	-0.220443	2.144105	0.000000	-0.013898	0.000000	0.000001	-0.000002	0.000000	0.000000
52.165015	11.330146	25.684072	-0.410660	0.429158	2.151565	0.000000	0.047762	0.000000	0.000000	-0.000002	0.000000	0.000000
52.605975	11.844610	25.025245	-0.760457	1.059232	2.186308	0.000000	0.109966	0.000000	-0.000001	-0.000002	0.000000	0.000000
53.046935	12.681663	23.829953	-1.144997	1.641112	2.248731	0.000000	0.173422	0.000000	-0.000002	-0.000002	0.000000	0.000000
53.487895	13.879548	22.152581	-1.581849	2.148322	2.339544	0.000000	0.238854	0.000000	-0.000003	-0.000002	0.000000	0.000000
53.933855	15.513531	20.044372	-2.095194	2.559125	2.461287	0.000000	0.307405	0.000000	-0.000003	-0.000002	0.000000	0.000000
54.482915	17.617303	17.672026	-1.713714	1.787121	2.609891	0.000000	0.233099	0.000000	-0.000005	-0.000002	0.000000	0.000000
55.031975	19.232812	16.072977	-1.211186	1.142409	2.716500	0.000000	0.154659	0.000000	-0.000006	-0.000002	0.000000	0.000000
55.581035	20.245945	15.133328	-0.623106	0.579069	2.779223	0.000000	0.073475	0.000000	-0.000007	-0.000002	0.000000	0.000000
56.130095	20.585140	14.786151	0.008987	0.056975	2.796947	0.000000	-0.009012	0.000000	-0.000008	-0.000001	0.000000	0.000000
56.428668	20.616232	14.735142	-0.059335	0.075234	2.796439	0.000000	-0.001703	0.000000	-0.000008	-0.000001	0.000000	0.000000
56.762001	20.661197	14.692569	-0.075560	0.052484	2.795872	0.000000	-0.001703	0.000000	-0.000008	-0.000001	0.000000	0.000000
57.095334	20.716979	14.665163	-0.091786	0.029734	2.795305	0.000000	-0.001703	0.000000	-0.000009	-0.000001	0.000000	0.000000
57.429918	20.783848	14.652906	-0.108072	0.006899	2.794735	0.000000	-0.001703	0.000000	-0.000009	-0.000001	0.000000	0.000000
57.727240	20.852415	14.654837	-0.177032	0.024901	2.794229	0.000000	0.005598	0.000000	-0.000010	-0.000001	0.000000	0.000000
58.276300	20.691117	14.908832	0.469065	-0.490232	2.774662	0.000000	-0.076771	0.000000	-0.000011	-0.000001	0.000000	0.000000
58.825360	19.834400	15.744246	1.082031	-1.040283	2.710177	0.000000	-0.157778	0.000000	-0.000011	-0.000001	0.000000	0.000000
59.374420	18.342781	17.220581	1.618567	-1.664431	2.601918	0.000000	-0.235987	0.000000	-0.000011	-0.000000	0.000000	0.000000
59.923480	16.321618	19.442995	2.040775	-2.407133	2.451805	0.000000	-0.310010	0.000000	-0.000012	-0.000000	0.000000	0.000000
60.369440	14.739725	21.418242	1.518949	-2.003372	2.328845	0.000000	-0.241721	0.000000	-0.000012	-0.000000	0.000000	0.000000
60.810400	13.602102	22.973344	1.070718	-1.509837	2.236705	0.000000	-0.176582	0.000000	-0.000012	-0.000001	0.000000	0.000000
61.251360	12.836799	24.061117	0.671404	-0.947606	2.172819	0.000000	-0.113454	0.000000	-0.000012	-0.000001	0.000000	0.000000
61.692320	12.408852	24.632069	0.302765	-0.342260	2.136459	0.000000	-0.051619	0.000000	-0.000013	-0.000001	0.000000	0.000000
62.134530	12.298765	24.659676	-0.021979	0.218125	2.127216	0.000000	0.004411	0.000000	-0.000013	-0.000002	0.000000	0.000000
62.431853	12.319026	24.533724	-0.046166	0.205494	2.128528	0.000000	0.004411	0.000000	-0.000014	-0.000002	0.000000	0.000000
62.765186	12.358842	24.401448	-0.073282	0.191334	2.129999	0.000000	0.004411	0.000000	-0.000014	-0.000002	0.000000	0.000000
63.098520	12.416735	24.278613	-0.100398	0.177173	2.131470	0.000000	0.004411	0.000000	-0.000015	-0.000002	0.000000	0.000000
63.433103	12.493025	24.164810	-0.127615	0.162960	2.132947	0.000000	0.004411	0.000000	-0.000015	-0.000002	0.000000	0.000000
63.730426	12.576102	24.071662	-0.120957	0.091289	2.134259	0.000000	-0.000823	0.000000	-0.000016	-0.000002	0.000000	0.000000
64.171386	12.842975	23.726068	-0.486550	0.689460	2.147439	0.000000	0.060657	0.000000	-0.000017	-0.000002	0.000000	0.000000
64.612346	13.440819	22.864806	-0.874372	1.256261	2.187856	0.000000	0.122828	0.000000	-0.000018	-0.000002	0.000000	0.000000
65.053306	14.396946	21.527062	-1.302141	1.765903	2.255970	0.000000	0.186397	0.000000	-0.000019	-0.000003	0.000000	0.000000
65.494266	15.755040	19.773704	-1.789401	2.195198	2.352557	0.000000	0.252090	0.000000	-0.000020	-0.000003	0.000000	0.000000
65.940226	17.600309	17.659704	-2.363105	2.525363	2.480290	0.000000	0.321056	0.000000	-0.000022	-0.000004	0.000000	0.000000
66.489286	19.965947	15.294882	-1.919918	1.807099	2.636200	0.000000	0.246016	0.000000	-0.000024	-0.000003	0.000000	0.000000
67.038346	21.767111	13.643915	-1.341117	1.217550	2.749647	0.000000	0.166613	0.000000	-0.000025	-0.000002	0.000000	0.000000
67.587406	22.876577	12.589207	-0.667587	0.714724	2.818620	0.000000	0.084254	0.000000	-0.000026	-0.000002	0.000000	0.000000
68.136466	23.215976	12.055634	0.053099	0.262806	2.841895	0.000000	0.000401	0.000000	-0.000027	-0.000001	0.000000	0.000000
68.435038	23.224339	11.887921	-0.020436	0.267401	2.844233	0.000000	0.007828	0.000000	-0.000027	-0.000001	0.000000	0.000000
68.768372	23.242749	11.719668	-0.034794	0.237357	2.846842	0.000000	0.007828	0.000000	-0.000028	-0.000001	0.000000	0.000000
69.101705	23.270732	11.571445	-0.049153	0.207312	2.849452	0.000000	0.007828	0.000000	-0.000028	-0.000001	0.000000	0.000000
69.436288	23.308445	11.442809	-0.063566	0.177155	2.852071	0.000000	0.007828	0.000000	-0.000028	-0.000001	0.000000	0.000000
69.733611	23.350053	11.345433	-0.137397	0.180007	2.854398	0.000000	0.015287	0.000000	-0.000028	-0.000001	0.000000	0.000000
70.282671	23.099894	11.375046	0.590313	-0.234260	2.839601	0.000000	-0.069108	0.000000	-0.000029	0.000000	0.000000	0.000000
