#ParticleID	Turn	x[m]	xp	y[m]	yp	z[m]	dE[GeV]# s	beta_x	beta_y	alpha_x	alpha_y	D_x	D_y	D_px	D_py	orbit_x	orbit_px	orbit_y	orbit_py
0.300000	11.818681	24.998858	-0.011575	-0.027475	2.618053	0.000000	0.000036	0.000000	-0.000000	0.000001	0.000000	0.000000
0.601250	11.833334	25.019045	-0.037068	-0.039535	2.618064	0.000000	0.000036	0.000000	0.000000	0.000001	0.000000	0.000000
0.898573	11.862857	25.046093	-0.033137	-0.112857	2.618074	0.000000	-0.006385	0.000000	0.000000	0.000001	0.000000	0.000000
1.339533	12.044270	24.867805	-0.379827	0.515635	2.631552	0.000000	0.067572	0.000000	0.000001	0.000001	0.000000	0.000000
1.780493	12.537903	24.143506	-0.743871	1.120666	2.677779	0.000000	0.142298	0.000000	0.000001	0.000001	0.000000	0.000000
2.221453	13.366311	22.906150	-1.141900	1.674707	2.757284	0.000000	0.218644	0.000000	0.000001	0.000001	0.000000	0.000000
2.662413	14.567339	21.212036	-1.592100	2.152551	2.870971	0.000000	0.297481	0.000000	0.000002	0.000001	0.000000	0.000000
3.108373	16.216622	19.113398	-2.119330	2.533587	3.021996	0.000000	0.380196	0.000000	0.000002	0.000001	0.000000	0.000000
3.657433	18.331537	16.756349	-1.709749	1.784633	3.205474	0.000000	0.287158	0.000000	0.000003	0.000001	0.000000	0.000000
4.206493	19.927300	15.147530	-1.179400	1.162796	3.336393	0.000000	0.189026	0.000000	0.000003	0.000001	0.000000	0.000000
4.755553	20.891195	14.172348	-0.565745	0.623781	3.412431	0.000000	0.087541	0.000000	0.000003	0.000001	0.000000	0.000000
5.304613	21.155138	13.761345	0.087873	0.129197	3.432238	0.000000	-0.015496	0.000000	0.000004	0.000001	0.000000	0.000000
5.603185	21.139890	13.669380	0.018472	0.142863	3.430289	0.000000	-0.006529	0.000000	0.000004	0.000001	0.000000	0.000000
5.936519	21.132833	13.582432	0.002698	0.117980	3.428112	0.000000	-0.006529	0.000000	0.000004	0.000001	0.000000	0.000000
6.269852	21.136292	13.512073	-0.013075	0.093097	3.425936	0.000000	-0.006529	0.000000	0.000004	0.000001	0.000000	0.000000
6.604435	21.150339	13.458133	-0.028908	0.068121	3.423751	0.000000	-0.006529	0.000000	0.000005	0.000001	0.000000	0.000000
6.901758	21.171712	13.424224	-0.098293	0.080999	3.421810	0.000000	0.002412	0.000000	0.000005	0.000001	0.000000	0.000000
7.450818	20.918800	13.596006	0.556193	-0.395712	3.394932	0.000000	-0.100173	0.000000	0.000005	0.000000	0.000000	0.000000
7.999878	19.964604	14.303589	1.171392	-0.900610	3.312134	0.000000	-0.200981	0.000000	0.000005	0.000000	0.000000	0.000000
8.548938	18.376522	15.597370	1.703850	-1.469656	3.174885	0.000000	-0.298224	0.000000	0.000005	0.000000	0.000000	0.000000
9.097998	16.266730	17.569504	2.115956	-2.143382	2.985619	0.000000	-0.390178	0.000000	0.000005	-0.000000	0.000000	0.000000
9.543958	14.620677	19.326791	1.588200	-1.780423	2.829923	0.000000	-0.308468	0.000000	0.000005	0.000000	0.000000	0.000000
9.984918	13.423385	20.707007	1.137295	-1.337689	2.711148	0.000000	-0.230754	0.000000	0.000005	0.000000	0.000000	0.000000
10.425878	12.599427	21.668333	0.738349	-0.834091	2.626030	0.000000	-0.155669	0.000000	0.000005	0.000000	0.000000	0.000000
10.866838	12.111158	22.167031	0.373137	-0.292542	2.573600	0.000000	-0.082357	0.000000	0.000006	0.000000	0.000000	0.000000
11.309048	11.936136	22.179891	0.054137	0.207868	2.553239	0.000000	-0.016245	0.000000	0.000006	0.000001	0.000000	0.000000
11.606371	11.911371	22.060441	0.029155	0.193883	2.548409	0.000000	-0.016245	0.000000	0.000006	0.000001	0.000000	0.000000
12.086371	11.902742	21.885150	-0.011177	0.171307	2.540612	0.000000	-0.016245	0.000000	0.000006	0.000001	0.000000	0.000000
12.566371	11.932832	21.731531	-0.051509	0.148731	2.532814	0.000000	-0.016245	0.000000	0.000006	0.000001	0.000000	0.000000
13.046371	12.001640	21.599587	-0.091841	0.126154	2.525016	0.000000	-0.016245	0.000000	0.000007	0.000001	0.000000	0.000000
13.526371	12.109166	21.489315	-0.132173	0.103578	2.517219	0.000000	-0.016245	0.000000	0.000007	0.000001	0.000000	0.000000
14.007621	12.255843	21.400514	-0.172610	0.080943	2.509401	0.000000	-0.016245	0.000000	0.000007	0.000001	0.000000	0.000000
14.304943	12.365912	21.356540	-0.167269	0.014590	2.504571	0.000000	-0.022386	0.000000	0.000007	0.000001	0.000000	0.000000
14.745903	12.672018	21.109916	-0.529544	0.542570	2.510333	0.000000	0.048545	0.000000	0.000008	0.000001	0.000000	0.000000
15.186863	13.307042	20.406804	-0.916013	1.045864	2.547464	0.000000	0.120029	0.000000	0.000008	0.000001	0.000000	0.000000
15.627823	14.299997	19.279195	-1.344331	1.501572	2.616388	0.000000	0.192879	0.000000	0.000009	0.000001	0.000000	0.000000
16.068783	15.696247	17.778395	-1.834068	1.888959	2.717889	0.000000	0.267927	0.000000	0.000009	0.000001	0.000000	0.000000
16.514743	17.583239	15.951186	-2.412356	2.191147	2.854819	0.000000	0.346488	0.000000	0.000010	0.000002	0.000000	0.000000
17.063803	20.006742	13.910894	-1.975429	1.546759	3.021327	0.000000	0.259142	0.000000	0.000011	0.000001	0.000000	0.000000
17.612863	21.870521	12.513928	-1.398967	1.012544	3.138543	0.000000	0.167199	0.000000	0.000011	0.000001	0.000000	0.000000
18.161923	23.042927	11.660787	-0.723689	0.550450	3.204386	0.000000	0.072290	0.000000	0.000012	0.000001	0.000000	0.000000
18.710983	23.441148	11.290701	0.002707	0.127563	3.217689	0.000000	-0.023901	0.000000	0.000012	0.000000	0.000000	0.000000
19.009556	23.479917	11.205003	-0.071316	0.129964	3.213063	0.000000	-0.015495	0.000000	0.000012	0.000000	0.000000	0.000000
19.342889	23.532217	11.128444	-0.085584	0.099713	3.207898	0.000000	-0.015495	0.000000	0.000012	0.000000	0.000000	0.000000
19.676223	23.594030	11.072052	-0.099853	0.069462	3.202733	0.000000	-0.015495	0.000000	0.000012	0.000000	0.000000	0.000000
20.010806	23.665933	11.035593	-0.231429	0.093775	3.197568	0.000000	0.000348	0.000000	0.000012	0.000000	0.000000	0.000000
20.308129	23.807487	10.987911	-0.306864	0.095302	3.197671	0.000000	0.008702	0.000000	0.000012	0.000000	0.000000	0.000000
20.857189	23.733843	11.105529	0.440197	-0.310784	3.176224	0.000000	-0.086709	0.000000	0.000012	-0.000000	0.000000	0.000000
21.406249	22.852126	11.678545	1.156164	-0.739006	3.102737	0.000000	-0.180581	0.000000	0.000012	-0.000000	0.000000	0.000000
21.955309	21.224615	12.747772	1.790465	-1.219867	2.978513	0.000000	-0.271251	0.000000	0.000012	-0.000001	0.000000	0.000000
22.504369	18.966270	14.389371	2.298297	-1.787615	2.805756	0.000000	-0.357109	0.000000	0.000011	-0.000001	0.000000	0.000000
22.950329	17.186524	15.863179	1.706611	-1.503240	2.663796	0.000000	-0.279886	0.000000	0.000011	-0.000001	0.000000	0.000000
23.391289	15.910725	17.038207	1.197593	-1.151325	2.556703	0.000000	-0.206305	0.000000	0.000011	-0.000001	0.000000	0.000000
23.832249	15.058108	17.878501	0.743289	-0.747024	2.481508	0.000000	-0.135073	0.000000	0.000010	-0.000000	0.000000	0.000000
24.273209	14.589719	18.345827	0.322944	-0.308735	2.437354	0.000000	-0.065380	0.000000	0.000010	-0.000000	0.000000	0.000000
24.715418	14.484275	18.418677	-0.047217	0.098368	2.423736	0.000000	-0.002375	0.000000	0.000010	0.000000	0.000000	0.000000
25.012741	14.518470	18.365028	-0.067790	0.082070	2.423030	0.000000	-0.002375	0.000000	0.000010	0.000000	0.000000	0.000000
25.346075	14.571351	18.316406	-0.090855	0.063797	2.422238	0.000000	-0.002375	0.000000	0.000010	0.000000	0.000000	0.000000
25.679408	14.639609	18.279965	-0.113920	0.045524	2.421446	0.000000	-0.002375	0.000000	0.000010	0.000000	0.000000	0.000000
26.013991	14.723288	18.256009	-0.017626	-0.120918	2.420627	0.000000	-0.022013	0.000000	0.000010	0.000000	0.000000	0.000000
26.311314	14.739775	18.332826	-0.001683	-0.182396	2.414082	0.000000	-0.027933	0.000000	0.000010	-0.000000	0.000000	0.000000
26.752274	14.922868	18.294847	-0.415105	0.268195	2.416878	0.000000	0.040627	0.000000	0.000010	0.000000	0.000000	0.000000
27.193234	15.477519	17.863367	-0.847492	0.706583	2.449979	0.000000	0.109650	0.000000	0.000010	0.000001	0.000000	0.000000
27.634194	16.429068	17.058018	-1.318598	1.112822	2.513763	0.000000	0.179921	0.000000	0.000011	0.000001	0.000000	0.000000
28.075154	17.820990	15.915441	-1.849948	1.468429	2.608955	0.000000	0.252242	0.000000	0.000011	0.000001	0.000000	0.000000
28.521114	19.741061	14.470414	-2.470780	1.758136	2.738244	0.000000	0.327879	0.000000	0.000012	0.000001	0.000000	0.000000
29.070174	22.181486	12.860329	-1.947640	1.191613	2.895599	0.000000	0.244458	0.000000	0.000012	0.000001	0.000000	0.000000
29.619234	23.968035	11.822374	-1.286929	0.709967	3.005891	0.000000	0.156700	0.000000	0.000013	0.000001	0.000000	0.000000
30.168294	24.974514	11.282618	-0.535315	0.278890	3.067164	0.000000	0.066164	0.000000	0.000013	0.000000	0.000000	0.000000
30.717354	25.129832	11.202615	0.254110	-0.132322	3.078331	0.000000	-0.025547	0.000000	0.000013	-0.000000	0.000000	0.000000
31.015927	25.020969	11.272195	0.176154	-0.129989	3.073105	0.000000	-0.017504	0.000000	0.000013	-0.000000	0.000000	0.000000
31.349260	24.908111	11.368879	0.162419	-0.160060	3.067270	0.000000	-0.017504	0.000000	0.000013	-0.000000	0.000000	0.000000
31.682593	24.804411	11.485609	0.148683	-0.190131	3.061435	0.000000	-0.017504	0.000000	0.000013	-0.000000	0.000000	0.000000
32.017177	24.709530	11.622938	0.134896	-0.220315	3.055579	0.000000	-0.017504	0.000000	0.000013	-0.000000	0.000000	0.000000
32.314499	24.632957	11.761922	0.058290	-0.216409	3.050374	0.000000	-0.009535	0.000000	0.000013	-0.000000	0.000000	0.000000
32.863559	24.146923	12.238811	0.821680	-0.657273	3.020251	0.000000	-0.100033	0.000000	0.000012	-0.000001	0.000000	0.000000
33.412619	22.849659	13.222534	1.527031	-1.144952	2.940853	0.000000	-0.188756	0.000000	0.000012	-0.000001	0.000000	0.000000
33.961679	20.832799	14.783160	2.124520	-1.714184	2.813590	0.000000	-0.274131	0.000000	0.000011	-0.000001	0.000000	0.000000
34.510739	18.238802	17.031849	2.571944	-2.405514	2.640719	0.000000	-0.354643	0.000000	0.000010	-0.000002	0.000000	0.000000
34.956699	16.221895	19.043200	1.966878	-2.085815	2.498908	0.000000	-0.281699	0.000000	0.000010	-0.000001	0.000000	0.000000
35.397659	14.717946	20.706559	1.456684	-1.671960	2.390075	0.000000	-0.212391	0.000000	0.000009	-0.000001	0.000000	0.000000
35.838619	13.633011	21.969862	1.013042	-1.182031	2.311242	0.000000	-0.145502	0.000000	0.000009	-0.000001	0.000000	0.000000
36.279579	12.917522	22.775631	0.615683	-0.638322	2.261512	0.000000	-0.080271	0.000000	0.000008	-0.000001	0.000000	0.000000
36.721789	12.538099	23.087510	0.277092	-0.122236	2.240290	0.000000	-0.021447	0.000000	0.000008	-0.000001	0.000000	0.000000
37.019112	12.380919	23.164083	0.251558	-0.135306	2.233913	0.000000	-0.021447	0.000000	0.000008	-0.000001	0.000000	0.000000
37.352445	12.222756	23.259172	0.222931	-0.149960	2.226765	0.000000	-0.021447	0.000000	0.000008	-0.000001	0.000000	0.000000
37.685779	12.083678	23.364029	0.194304	-0.164613	2.219616	0.000000	-0.021447	0.000000	0.000007	-0.000001	0.000000	0.000000
38.020362	11.963270	23.479104	0.165570	-0.179322	2.212440	0.000000	-0.021447	0.000000	0.000007	-0.000001	0.000000	0.000000
38.317684	11.872407	23.589623	0.169148	-0.250237	2.206064	0.000000	-0.026856	0.000000	0.000007	-0.000001	0.000000	0.000000
38.758644	11.874613	23.549034	-0.174169	0.341935	2.208151	0.000000	0.036332	0.000000	0.000007	-0.000000	0.000000	0.000000
39.199604	12.181948	22.991088	-0.525444	0.918549	2.238166	0.000000	0.099934	0.000000	0.000007	-0.000000	0.000000	0.000000
39.640564	12.808455	21.941171	-0.900725	1.453370	2.296452	0.000000	0.164674	0.000000	0.000007	-0.000000	0.000000	0.000000
40.081524	13.782756	20.447055	-1.317158	1.922063	2.383670	0.000000	0.231289	0.000000	0.000007	0.000000	0.000000	0.000000
40.527484	15.166938	18.554150	-1.797593	2.304587	2.502288	0.000000	0.300944	0.000000	0.000007	0.000000	0.000000	0.000000
41.076544	16.933378	16.427028	-1.400569	1.592397	2.646991	0.000000	0.225373	0.000000	0.000007	0.000000	0.000000	0.000000
41.625604	18.206600	15.015476	-0.904615	0.993630	2.749041	0.000000	0.145805	0.000000	0.000007	-0.000000	0.000000	0.000000
42.174664	18.896669	14.218953	-0.344764	0.465637	2.806628	0.000000	0.063650	0.000000	0.000007	-0.000000	0.000000	0.000000
42.723724	18.954843	13.980723	0.239439	-0.029190	2.818729	0.000000	-0.019634	0.000000	0.000006	-0.000001	0.000000	0.000000
43.022297	18.846308	13.982719	0.173596	-0.014020	2.815066	0.000000	-0.012269	0.000000	0.000006	-0.000001	0.000000	0.000000
43.502297	18.692249	14.012658	0.147360	-0.048355	2.809177	0.000000	-0.012269	0.000000	0.000006	-0.000001	0.000000	0.000000
43.982297	18.563377	14.075560	0.121123	-0.082690	2.803288	0.000000	-0.012269	0.000000	0.000006	-0.000001	0.000000	0.000000
44.462297	18.459693	14.171422	0.094886	-0.117024	2.797399	0.000000	-0.012269	0.000000	0.000005	-0.000001	0.000000	0.000000
44.942297	18.381196	14.300246	0.068650	-0.151359	2.791510	0.000000	-0.012269	0.000000	0.000005	-0.000001	0.000000	0.000000
45.423547	18.328007	14.462317	-0.048463	-0.114128	2.785623	0.000000	0.001532	0.000000	0.000005	-0.000001	0.000000	0.000000
45.720870	18.361659	14.536375	-0.112697	-0.096975	2.786079	0.000000	0.008811	0.000000	0.000005	-0.000001	0.000000	0.000000
46.269930	18.176237	14.924031	0.448407	-0.613229	2.768343	0.000000	-0.073323	0.000000	0.000004	-0.000001	0.000000	0.000000
46.818990	17.388480	15.899111	0.977837	-1.173161	2.705801	0.000000	-0.154157	0.000000	0.000004	-0.000001	0.000000	0.000000
47.368050	16.054032	17.531067	1.438198	-1.816655	2.599563	0.000000	-0.232257	0.000000	0.000003	-0.000001	0.000000	0.000000
47.917110	14.267153	19.936139	1.796971	-2.589546	2.451513	0.000000	-0.306237	0.000000	0.000003	-0.000001	0.000000	0.000000
48.363070	12.876582	22.074483	1.332227	-2.185218	2.330237	0.000000	-0.237933	0.000000	0.000002	-0.000001	0.000000	0.000000
48.804030	11.881870	23.786612	0.932118	-1.682738	2.239779	0.000000	-0.172737	0.000000	0.000002	-0.000001	0.000000	0.000000
49.244990	11.219981	25.020010	0.574594	-1.103693	2.177609	0.000000	-0.109508	0.000000	0.000002	-0.000001	0.000000	0.000000
49.685950	10.860676	25.718559	0.243322	-0.474432	2.143019	0.000000	-0.047526	0.000000	0.000001	-0.000001	0.000000	0.000000
50.128160	10.787665	25.850192	-0.050495	0.112974	2.135627	0.000000	0.008677	0.000000	0.000001	-0.000001	0.000000	0.000000
50.425482	10.825907	25.786475	-0.078127	0.101326	2.138207	0.000000	0.008677	0.000000	0.000001	-0.000001	0.000000	0.000000
50.758816	10.888318	25.723278	-0.109105	0.088266	2.141099	0.000000	0.008677	0.000000	0.000000	-0.000001	0.000000	0.000000
51.092149	10.971381	25.668787	-0.140084	0.075207	2.143992	0.000000	0.008677	0.000000	0.000000	-0.000001	0.000000	0.000000
51.426732	11.075299	25.623366	-0.081328	-0.145771	2.146874	0.000000	-0.008740	0.000000	-0.000000	-0.000001	0.000000	0.000000
51.724055	11.131695	25.713571	-0.081053	-0.220679	2.144275	0.000000	-0.013998	0.000000	-0.000000	-0.000001	0.000000	0.000000
52.165015	11.348513	25.622126	-0.412509	0.427266	2.151692	0.000000	0.047666	0.000000	-0.000001	-0.000001	0.000000	0.000000
52.605975	11.864823	24.965669	-0.762811	1.055770	2.186393	0.000000	0.109872	0.000000	-0.000001	-0.000001	0.000000	0.000000
53.046935	12.704213	23.774067	-1.147964	1.636238	2.248775	0.000000	0.173331	0.000000	-0.000002	-0.000001	0.000000	0.000000
53.487895	13.905034	22.101537	-1.585564	2.142258	2.339547	0.000000	0.238763	0.000000	-0.000002	-0.000001	0.000000	0.000000
53.933855	15.542730	19.999171	-2.099835	2.552143	2.461248	0.000000	0.307313	0.000000	-0.000002	-0.000001	0.000000	0.000000
54.482915	17.651202	17.633494	-1.717583	1.781883	2.609802	0.000000	0.233010	0.000000	-0.000003	-0.000001	0.000000	0.000000
55.031975	19.270407	16.039415	-1.214009	1.138543	2.716363	0.000000	0.154573	0.000000	-0.000003	-0.000001	0.000000	0.000000
55.581035	20.285972	15.103389	-0.624684	0.576299	2.779039	0.000000	0.073395	0.000000	-0.000004	-0.000001	0.000000	0.000000
56.130095	20.626162	14.758746	0.008765	0.055103	2.796720	0.000000	-0.009086	0.000000	-0.000004	-0.000001	0.000000	0.000000
56.428668	20.657441	14.708906	-0.059634	0.073259	2.796190	0.000000	-0.001778	0.000000	-0.000004	-0.000001	0.000000	0.000000
56.762001	20.702595	14.667662	-0.075828	0.050475	2.795597	0.000000	-0.001778	0.000000	-0.000005	-0.000001	0.000000	0.000000
57.095334	20.758545	14.641606	-0.092021	0.027691	2.795005	0.000000	-0.001778	0.000000	-0.000005	-0.000001	0.000000	0.000000
57.429918	20.825561	14.630728	-0.108276	0.004822	2.794410	0.000000	-0.001778	0.000000	-0.000005	-0.000001	0.000000	0.000000
57.727240	20.894242	14.633902	-0.177315	0.022737	2.793881	0.000000	0.005522	0.000000	-0.000005	-0.000001	0.000000	0.000000
58.276300	20.732483	14.889957	0.470181	-0.491840	2.774275	0.000000	-0.076835	0.000000	-0.000005	-0.000000	0.000000	0.000000
58.825360	19.873805	15.726884	1.084466	-1.041450	2.709758	0.000000	-0.157829	0.000000	-0.000006	-0.000000	0.000000	0.000000
59.374420	18.378862	17.204299	1.622150	-1.665240	2.601475	0.000000	-0.236024	0.000000	-0.000006	-0.000000	0.000000	0.000000
59.923480	16.353247	19.427432	2.045253	-2.407641	2.451345	0.000000	-0.310032	0.000000	-0.000006	0.000000	0.000000	0.000000
60.369440	14.767798	21.403389	1.522475	-2.004451	2.328372	0.000000	-0.241755	0.000000	-0.000006	-0.000000	0.000000	0.000000
60.810400	13.627420	22.959675	1.073461	-1.511432	2.236214	0.000000	-0.176629	0.000000	-0.000006	-0.000000	0.000000	0.000000
61.251360	12.859995	24.049057	0.673491	-0.949645	2.172304	0.000000	-0.113514	0.000000	-0.000006	-0.000000	0.000000	0.000000
61.692320	12.430463	24.621970	0.304290	-0.344650	2.135914	0.000000	-0.051692	0.000000	-0.000006	-0.000000	0.000000	0.000000
62.134530	12.319250	24.651807	-0.020898	0.215515	2.126635	0.000000	0.004325	0.000000	-0.000006	-0.000001	0.000000	0.000000
62.431853	12.338856	24.527404	-0.045044	0.202894	2.127921	0.000000	0.004325	0.000000	-0.000006	-0.000001	0.000000	0.000000
62.765186	12.377908	24.396858	-0.072113	0.188744	2.129363	0.000000	0.004325	0.000000	-0.000006	-0.000001	0.000000	0.000000
63.098520	12.435007	24.275745	-0.099183	0.174595	2.130805	0.000000	0.004325	0.000000	-0.000007	-0.000001	0.000000	0.000000
63.433103	12.510468	24.163664	-0.126354	0.160392	2.132253	0.000000	0.004325	0.000000	-0.000007	-0.000001	0.000000	0.000000
63.730426	12.592783	24.072040	-0.119616	0.088735	2.133539	0.000000	-0.000907	0.000000	-0.000007	-0.000001	0.000000	0.000000
64.171386	12.858631	23.728673	-0.485554	0.686983	2.146677	0.000000	0.060554	0.000000	-0.000007	-0.000001	0.000000	0.000000
64.612346	13.455730	22.869520	-0.873674	1.253973	2.187044	0.000000	0.122704	0.000000	-0.000008	-0.000001	0.000000	0.000000
65.053306	14.411362	21.533672	-1.301711	1.763908	2.255098	0.000000	0.186252	0.000000	-0.000008	-0.000001	0.000000	0.000000
65.494266	15.769187	19.781909	-1.789218	2.193587	2.351616	0.000000	0.251922	0.000000	-0.000009	-0.000001	0.000000	0.000000
65.940226	17.614401	17.669144	-2.363162	2.524215	2.479267	0.000000	0.320862	0.000000	-0.000009	-0.000002	0.000000	0.000000
66.489286	19.979768	15.305599	-1.919368	1.805907	2.635078	0.000000	0.245857	0.000000	-0.000010	-0.000001	0.000000	0.000000
67.038346	21.780012	13.656001	-1.339999	1.216231	2.748448	0.000000	0.166491	0.000000	-0.000011	-0.000001	0.000000	0.000000
67.587406	22.887973	12.602853	-0.665979	0.713184	2.817364	0.000000	0.084172	0.000000	-0.000011	-0.000001	0.000000	0.000000
68.136466	23.225389	12.071142	0.055082	0.260935	2.840605	0.000000	0.000360	0.000000	-0.000011	-0.000000	0.000000	0.000000
68.435038	23.232577	11.904507	-0.018464	0.265628	2.842929	0.000000	0.007783	0.000000	-0.000012	-0.000000	0.000000	0.000000
68.768372	23.249670	11.737414	-0.032816	0.235652	2.845523	0.000000	0.007783	0.000000	-0.000012	-0.000000	0.000000	0.000000
69.101705	23.276331	11.590305	-0.047169	0.205675	2.848117	0.000000	0.007783	0.000000	-0.000012	-0.000000	0.000000	0.000000
69.436288	23.312715	11.462741	-0.061575	0.175587	2.850721	0.000000	0.007783	0.000000	-0.000012	-0.000000	0.000000	0.000000
69.733611	23.353137	11.366279	-0.135401	0.178550	2.853035	0.000000	0.015238	0.000000	-0.000012	-0.000000	0.000000	0.000000
70.282671	23.100748	11.397818	0.592354	-0.236331	2.838223	0.000000	-0.069114	0.000000	-0.000012	0.000000	0.000000	0.000000
