#ParticleID	Turn	x[m]	xp	y[m]	yp	z[m]	dE[GeV]# s	beta_x	beta_y	alpha_x	alpha_y	D_x	D_y	D_px	D_py	orbit_x	orbit_px	orbit_y	orbit_py
0.300000	11.802471	25.062387	-0.009990	-0.026729	2.618341	0.000000	-0.000075	0.000000	-0.000002	0.000002	0.000000	0.000000
0.601250	11.816180	25.082115	-0.035517	-0.038758	2.618318	0.000000	-0.000075	0.000000	-0.000001	0.000002	0.000000	0.000000
0.898573	11.844791	25.108692	-0.031664	-0.112203	2.618295	0.000000	-0.006496	0.000000	-0.000000	0.000002	0.000000	0.000000
1.339533	12.024713	24.929099	-0.377905	0.517930	2.631724	0.000000	0.067466	0.000000	0.000001	0.000002	0.000000	0.000000
1.780493	12.516421	24.202088	-0.741412	1.124496	2.677905	0.000000	0.142196	0.000000	0.000001	0.000002	0.000000	0.000000
2.221453	13.342382	22.960738	-1.138791	1.679900	2.757365	0.000000	0.218545	0.000000	0.000002	0.000002	0.000000	0.000000
2.662413	14.540331	21.261529	-1.588198	2.158869	2.871008	0.000000	0.297383	0.000000	0.000003	0.000002	0.000000	0.000000
3.108373	16.185712	19.156857	-2.114450	2.540745	3.021989	0.000000	0.380099	0.000000	0.000004	0.000002	0.000000	0.000000
3.657433	18.295688	16.792936	-1.705688	1.790064	3.205414	0.000000	0.287061	0.000000	0.000005	0.000002	0.000000	0.000000
4.206493	19.887577	15.178920	-1.176445	1.166886	3.336280	0.000000	0.188932	0.000000	0.000006	0.000002	0.000000	0.000000
4.755553	20.848934	14.199845	-0.564104	0.626823	3.412267	0.000000	0.087452	0.000000	0.000007	0.000002	0.000000	0.000000
5.304613	21.111854	13.785975	0.088084	0.131407	3.432026	0.000000	-0.015579	0.000000	0.000008	0.000001	0.000000	0.000000
5.603185	21.096420	13.692646	0.018768	0.145159	3.430052	0.000000	-0.006612	0.000000	0.000009	0.000001	0.000000	0.000000
5.936519	21.089176	13.604159	0.002962	0.120302	3.427847	0.000000	-0.006612	0.000000	0.000009	0.000001	0.000000	0.000000
6.269852	21.092470	13.532243	-0.012844	0.095445	3.425643	0.000000	-0.006612	0.000000	0.000009	0.000001	0.000000	0.000000
6.604435	21.106373	13.476722	-0.028709	0.070495	3.423430	0.000000	-0.006612	0.000000	0.000010	0.000001	0.000000	0.000000
6.901758	21.127637	13.441394	-0.098006	0.083441	3.421463	0.000000	0.002327	0.000000	0.000010	0.000001	0.000000	0.000000
7.450818	20.875221	13.610750	0.555009	-0.393708	3.394541	0.000000	-0.100246	0.000000	0.000011	0.000001	0.000000	0.000000
7.999878	19.923100	14.316304	1.168820	-0.898899	3.311706	0.000000	-0.201041	0.000000	0.000012	0.000001	0.000000	0.000000
8.548938	18.338527	15.608311	1.700071	-1.468117	3.174428	0.000000	-0.298270	0.000000	0.000012	0.000000	0.000000	0.000000
9.097998	16.233428	17.578799	2.111238	-2.141905	2.985141	0.000000	-0.390208	0.000000	0.000012	-0.000000	0.000000	0.000000
9.543958	14.591122	19.334568	1.584485	-1.778507	2.829428	0.000000	-0.308511	0.000000	0.000012	0.000000	0.000000	0.000000
9.984918	13.396732	20.712932	1.134405	-1.335424	2.710632	0.000000	-0.230811	0.000000	0.000012	0.000001	0.000000	0.000000
10.425878	12.575007	21.672144	0.736153	-0.831580	2.625486	0.000000	-0.155739	0.000000	0.000012	0.000001	0.000000	0.000000
10.866838	12.088407	22.168561	0.371534	-0.289900	2.573021	0.000000	-0.082442	0.000000	0.000013	0.000001	0.000000	0.000000
11.309048	11.914568	22.179070	0.052999	0.210527	2.552620	0.000000	-0.016342	0.000000	0.000014	0.000002	0.000000	0.000000
11.606371	11.890492	22.058043	0.027975	0.196527	2.547760	0.000000	-0.016342	0.000000	0.000014	0.000002	0.000000	0.000000
12.086371	11.883029	21.880226	-0.012425	0.173926	2.539915	0.000000	-0.016342	0.000000	0.000015	0.000002	0.000000	0.000000
12.566371	11.914349	21.724106	-0.052825	0.151325	2.532071	0.000000	-0.016342	0.000000	0.000015	0.000002	0.000000	0.000000
13.046371	11.984453	21.589683	-0.093225	0.128723	2.524226	0.000000	-0.016342	0.000000	0.000016	0.000002	0.000000	0.000000
13.526371	12.093341	21.476957	-0.133625	0.106122	2.516381	0.000000	-0.016342	0.000000	0.000017	0.000002	0.000000	0.000000
14.007621	12.241449	21.385719	-0.174130	0.083462	2.508515	0.000000	-0.016342	0.000000	0.000018	0.000002	0.000000	0.000000
14.304943	12.352435	21.340251	-0.168868	0.017139	2.503656	0.000000	-0.022481	0.000000	0.000018	0.000001	0.000000	0.000000
14.745903	12.659834	21.091589	-0.530889	0.544626	2.509370	0.000000	0.048426	0.000000	0.000019	0.000002	0.000000	0.000000
15.186863	13.295956	20.386918	-0.917165	1.047332	2.546443	0.000000	0.119884	0.000000	0.000020	0.000002	0.000000	0.000000
15.627823	14.289861	19.258299	-1.345343	1.502386	2.615296	0.000000	0.192708	0.000000	0.000021	0.000003	0.000000	0.000000
16.068783	15.686960	17.757084	-1.834986	1.889082	2.716715	0.000000	0.267726	0.000000	0.000022	0.000004	0.000000	0.000000
16.514743	17.574746	15.930079	-2.413224	2.190568	2.853547	0.000000	0.346256	0.000000	0.000024	0.000004	0.000000	0.000000
17.063803	19.999470	13.890152	-1.976768	1.546669	3.019938	0.000000	0.258952	0.000000	0.000026	0.000003	0.000000	0.000000
17.612863	21.864937	12.493021	-1.400683	1.012936	3.137061	0.000000	0.167055	0.000000	0.000028	0.000002	0.000000	0.000000
18.161923	23.039381	11.639173	-0.725661	0.551352	3.202838	0.000000	0.072196	0.000000	0.000029	0.000002	0.000000	0.000000
18.710983	23.439844	11.267789	0.000619	0.129040	3.216104	0.000000	-0.023945	0.000000	0.000029	0.000001	0.000000	0.000000
19.009556	23.479854	11.181267	-0.073395	0.131310	3.211463	0.000000	-0.015544	0.000000	0.000030	0.000001	0.000000	0.000000
19.342889	23.533542	11.103836	-0.087668	0.100984	3.206281	0.000000	-0.015544	0.000000	0.000030	0.000001	0.000000	0.000000
19.676223	23.596745	11.046622	-0.101941	0.070658	3.201100	0.000000	-0.015544	0.000000	0.000030	0.000001	0.000000	0.000000
20.010806	23.670047	11.009388	-0.233542	0.094766	3.195919	0.000000	0.000291	0.000000	0.000030	0.000001	0.000000	0.000000
20.308129	23.812860	10.961137	-0.308991	0.096150	3.196005	0.000000	0.008639	0.000000	0.000031	0.000001	0.000000	0.000000
20.857189	23.741443	11.077410	0.438292	-0.309166	3.174538	0.000000	-0.086717	0.000000	0.000031	-0.000000	0.000000	0.000000
21.406249	22.861632	11.648176	1.154617	-0.736502	3.101062	0.000000	-0.180535	0.000000	0.000030	-0.000001	0.000000	0.000000
21.955309	21.235571	12.714089	1.789385	-1.216299	2.976878	0.000000	-0.271151	0.000000	0.000030	-0.000002	0.000000	0.000000
22.504369	18.978118	14.351073	2.297760	-1.782729	2.804191	0.000000	-0.356958	0.000000	0.000028	-0.000003	0.000000	0.000000
22.950329	17.198924	15.820912	1.705903	-1.499263	2.662291	0.000000	-0.279774	0.000000	0.000027	-0.000002	0.000000	0.000000
23.391289	15.923837	16.992900	1.196681	-1.148434	2.555239	0.000000	-0.206231	0.000000	0.000026	-0.000002	0.000000	0.000000
23.832249	15.072129	17.831174	0.742132	-0.745352	2.480068	0.000000	-0.135037	0.000000	0.000026	-0.000001	0.000000	0.000000
24.273209	14.604886	18.297593	0.321489	-0.308356	2.435922	0.000000	-0.065381	0.000000	0.000025	-0.000000	0.000000	0.000000
24.715418	14.500886	18.370689	-0.049001	0.097560	2.422295	0.000000	-0.002409	0.000000	0.000025	0.000000	0.000000	0.000000
25.012741	14.536135	18.317534	-0.069554	0.081221	2.421579	0.000000	-0.002409	0.000000	0.000025	0.000000	0.000000	0.000000
25.346075	14.590185	18.269492	-0.092596	0.062904	2.420776	0.000000	-0.002409	0.000000	0.000026	0.000000	0.000000	0.000000
25.679408	14.659596	18.233662	-0.115638	0.044586	2.419973	0.000000	-0.002409	0.000000	0.000026	0.000000	0.000000	0.000000
26.013991	14.744417	18.210348	-0.019151	-0.121532	2.419142	0.000000	-0.022034	0.000000	0.000026	0.000000	0.000000	0.000000
26.311314	14.761802	18.287542	-0.003132	-0.182935	2.412591	0.000000	-0.027949	0.000000	0.000026	0.000000	0.000000	0.000000
26.752274	14.946414	18.250580	-0.417115	0.266438	2.415371	0.000000	0.040572	0.000000	0.000026	0.000001	0.000000	0.000000
27.193234	15.503117	17.821158	-0.850154	0.703689	2.448439	0.000000	0.109555	0.000000	0.000026	0.000001	0.000000	0.000000
27.634194	16.457347	17.018815	-1.322035	1.108923	2.512171	0.000000	0.179786	0.000000	0.000027	0.000002	0.000000	0.000000
28.075154	17.852698	15.880057	-1.854316	1.463701	2.607294	0.000000	0.252065	0.000000	0.000028	0.000003	0.000000	0.000000
28.521114	19.777160	14.439539	-2.476290	1.752794	2.736494	0.000000	0.327658	0.000000	0.000030	0.000004	0.000000	0.000000
29.070174	22.223144	12.834627	-1.952193	1.187474	2.893742	0.000000	0.244295	0.000000	0.000031	0.000003	0.000000	0.000000
29.619234	24.014016	11.800695	-1.290202	0.706736	3.003961	0.000000	0.156599	0.000000	0.000032	0.000002	0.000000	0.000000
30.168294	25.023278	11.264096	-0.537078	0.276337	3.065195	0.000000	0.066125	0.000000	0.000033	0.000000	0.000000	0.000000
30.717354	25.179639	11.186610	0.253983	-0.134379	3.076358	0.000000	-0.025521	0.000000	0.000033	-0.000001	0.000000	0.000000
31.015927	25.070916	11.257462	0.175934	-0.132144	3.071138	0.000000	-0.017485	0.000000	0.000033	-0.000001	0.000000	0.000000
31.349260	24.958196	11.355600	0.162226	-0.162271	3.065309	0.000000	-0.017485	0.000000	0.000033	-0.000001	0.000000	0.000000
31.682593	24.854614	11.473823	0.148519	-0.192398	3.059481	0.000000	-0.017485	0.000000	0.000032	-0.000001	0.000000	0.000000
32.017177	24.759833	11.612687	0.134761	-0.222638	3.053631	0.000000	-0.017485	0.000000	0.000032	-0.000001	0.000000	0.000000
32.314499	24.683333	11.753067	0.058059	-0.218810	3.048432	0.000000	-0.009523	0.000000	0.000032	-0.000000	0.000000	0.000000
32.863559	24.196635	12.232514	0.823114	-0.659557	3.018333	0.000000	-0.099957	0.000000	0.000032	-0.000001	0.000000	0.000000
33.412619	22.896923	13.218756	1.530029	-1.147283	2.938994	0.000000	-0.188619	0.000000	0.000031	-0.000002	0.000000	0.000000
33.961679	20.876004	14.782043	2.128869	-1.716727	2.811823	0.000000	-0.273936	0.000000	0.000029	-0.000003	0.000000	0.000000
34.510739	18.276625	17.033723	2.577337	-2.408450	2.639076	0.000000	-0.354393	0.000000	0.000027	-0.000004	0.000000	0.000000
34.956699	16.255439	19.047807	1.971112	-2.088983	2.497368	0.000000	-0.281490	0.000000	0.000025	-0.000004	0.000000	0.000000
35.397659	14.748189	20.714007	1.459962	-1.675211	2.388619	0.000000	-0.212221	0.000000	0.000023	-0.000003	0.000000	0.000000
35.838619	13.660729	21.980160	1.015513	-1.185218	2.309854	0.000000	-0.145369	0.000000	0.000022	-0.000002	0.000000	0.000000
36.279579	12.943373	22.788657	0.617461	-0.641298	2.260175	0.000000	-0.080172	0.000000	0.000021	-0.000002	0.000000	0.000000
36.721789	12.562653	23.103025	0.278314	-0.124899	2.238989	0.000000	-0.021378	0.000000	0.000021	-0.000001	0.000000	0.000000
37.019112	12.404736	23.181181	0.252814	-0.137969	2.232634	0.000000	-0.021378	0.000000	0.000020	-0.000001	0.000000	0.000000
37.352445	12.245723	23.278045	0.224225	-0.152622	2.225508	0.000000	-0.021378	0.000000	0.000020	-0.000001	0.000000	0.000000
37.685779	12.105770	23.384677	0.195636	-0.167275	2.218382	0.000000	-0.021378	0.000000	0.000019	-0.000001	0.000000	0.000000
38.020362	11.984458	23.501533	0.166940	-0.181983	2.211230	0.000000	-0.021378	0.000000	0.000019	-0.000001	0.000000	0.000000
38.317684	11.892769	23.613635	0.170599	-0.252952	2.204874	0.000000	-0.026785	0.000000	0.000018	-0.000001	0.000000	0.000000
38.758644	11.893898	23.575150	-0.173167	0.339894	2.206986	0.000000	0.036373	0.000000	0.000018	-0.000001	0.000000	0.000000
39.199604	12.200530	23.018672	-0.524845	0.917275	2.237014	0.000000	0.099945	0.000000	0.000017	-0.000001	0.000000	0.000000
39.640564	12.826676	21.969518	-0.900502	1.452920	2.295298	0.000000	0.164656	0.000000	0.000017	-0.000000	0.000000	0.000000
40.081524	13.800942	20.475425	-1.317300	1.922458	2.382502	0.000000	0.231241	0.000000	0.000017	0.000000	0.000000	0.000000
40.527484	15.185418	18.581792	-1.798110	2.305814	2.501091	0.000000	0.300866	0.000000	0.000018	0.000001	0.000000	0.000000
41.076544	16.952027	16.453737	-1.400359	1.592878	2.645762	0.000000	0.225334	0.000000	0.000018	0.000000	0.000000	0.000000
41.625604	18.224623	15.042048	-0.903693	0.993399	2.747801	0.000000	0.145805	0.000000	0.000018	-0.000000	0.000000	0.000000
42.174664	18.913316	14.246174	-0.343195	0.464678	2.805399	0.000000	0.063691	0.000000	0.000018	-0.000001	0.000000	0.000000
42.723724	18.969460	14.009426	0.241545	-0.030945	2.817534	0.000000	-0.019554	0.000000	0.000017	-0.000001	0.000000	0.000000
43.022297	18.859687	14.012414	0.175669	-0.015659	2.813894	0.000000	-0.012193	0.000000	0.000017	-0.000001	0.000000	0.000000
43.502297	18.703639	14.043893	0.149432	-0.049923	2.808042	0.000000	-0.012193	0.000000	0.000016	-0.000001	0.000000	0.000000
43.982297	18.572778	14.108266	0.123196	-0.084187	2.802190	0.000000	-0.012193	0.000000	0.000015	-0.000001	0.000000	0.000000
44.462297	18.467104	14.205532	0.096959	-0.118451	2.796338	0.000000	-0.012193	0.000000	0.000014	-0.000001	0.000000	0.000000
44.942297	18.386616	14.335691	0.070723	-0.152714	2.790486	0.000000	-0.012193	0.000000	0.000014	-0.000001	0.000000	0.000000
45.423547	18.331432	14.499031	-0.046406	-0.115230	2.784636	0.000000	0.001603	0.000000	0.000013	-0.000001	0.000000	0.000000
45.720870	18.363860	14.573730	-0.110637	-0.097935	2.785113	0.000000	0.008880	0.000000	0.000013	-0.000001	0.000000	0.000000
46.269930	18.176153	14.963068	0.450481	-0.615349	2.767423	0.000000	-0.073224	0.000000	0.000012	-0.000002	0.000000	0.000000
46.818990	17.386177	15.941179	0.979780	-1.176594	2.704944	0.000000	-0.154030	0.000000	0.000011	-0.000002	0.000000	0.000000
47.368050	16.049731	17.577732	1.439872	-1.821645	2.598784	0.000000	-0.232103	0.000000	0.000010	-0.000002	0.000000	0.000000
47.917110	14.261215	19.989295	1.798258	-2.596448	2.450826	0.000000	-0.306059	0.000000	0.000008	-0.000003	0.000000	0.000000
48.363070	12.869508	22.133285	1.333498	-2.190923	2.329626	0.000000	-0.237772	0.000000	0.000007	-0.000003	0.000000	0.000000
48.804030	11.873661	23.849822	0.933432	-1.686991	2.239237	0.000000	-0.172591	0.000000	0.000006	-0.000002	0.000000	0.000000
49.244990	11.210572	25.086257	0.576012	-1.106302	2.177129	0.000000	-0.109375	0.000000	0.000005	-0.000002	0.000000	0.000000
49.685950	10.849947	25.786334	0.244908	-0.475277	2.142596	0.000000	-0.047405	0.000000	0.000004	-0.000002	0.000000	0.000000
50.128160	10.775432	25.917915	-0.048700	0.113768	2.135255	0.000000	0.008789	0.000000	0.000003	-0.000002	0.000000	0.000000
50.425482	10.812614	25.853719	-0.076358	0.102147	2.137869	0.000000	0.008789	0.000000	0.000002	-0.000002	0.000000	0.000000
50.758816	10.873856	25.789963	-0.107366	0.089120	2.140799	0.000000	0.008789	0.000000	0.000002	-0.000002	0.000000	0.000000
51.092149	10.955769	25.734893	-0.138374	0.076092	2.143729	0.000000	0.008789	0.000000	0.000001	-0.000002	0.000000	0.000000
51.426732	11.058553	25.688870	-0.079784	-0.145385	2.146649	0.000000	-0.008626	0.000000	0.000000	-0.000002	0.000000	0.000000
51.724055	11.114041	25.778837	-0.079586	-0.220422	2.144085	0.000000	-0.013884	0.000000	-0.000000	-0.000002	0.000000	0.000000
52.165015	11.329378	25.686404	-0.410604	0.429241	2.151551	0.000000	0.047776	0.000000	-0.000001	-0.000002	0.000000	0.000000
52.605975	11.843784	25.027477	-0.760381	1.059374	2.186301	0.000000	0.109979	0.000000	-0.000002	-0.000002	0.000000	0.000000
53.046935	12.680760	23.832036	-1.144898	1.641306	2.248729	0.000000	0.173436	0.000000	-0.000003	-0.000002	0.000000	0.000000
53.487895	13.878545	22.154473	-1.581721	2.148560	2.339549	0.000000	0.238868	0.000000	-0.000004	-0.000002	0.000000	0.000000
53.933855	15.512400	20.046037	-2.095033	2.559395	2.461297	0.000000	0.307419	0.000000	-0.000005	-0.000002	0.000000	0.000000
54.482915	17.616011	17.673432	-1.713585	1.787325	2.609909	0.000000	0.233112	0.000000	-0.000006	-0.000002	0.000000	0.000000
55.031975	19.231399	16.074187	-1.211098	1.142563	2.716526	0.000000	0.154671	0.000000	-0.000007	-0.000002	0.000000	0.000000
55.581035	20.244460	15.134393	-0.623065	0.579183	2.779255	0.000000	0.073487	0.000000	-0.000008	-0.000002	0.000000	0.000000
56.130095	20.583638	14.787110	0.008978	0.057056	2.796985	0.000000	-0.009001	0.000000	-0.000009	-0.000001	0.000000	0.000000
56.428668	20.614734	14.736050	-0.059342	0.075319	2.796480	0.000000	-0.001693	0.000000	-0.000010	-0.000001	0.000000	0.000000
56.762001	20.659704	14.693420	-0.075568	0.052570	2.795917	0.000000	-0.001693	0.000000	-0.000010	-0.000001	0.000000	0.000000
57.095334	20.715492	14.665956	-0.091795	0.029822	2.795353	0.000000	-0.001693	0.000000	-0.000010	-0.000001	0.000000	0.000000
57.429918	20.782368	14.653640	-0.108083	0.006988	2.794787	0.000000	-0.001693	0.000000	-0.000011	-0.000001	0.000000	0.000000
57.727240	20.850942	14.655518	-0.177041	0.024992	2.794285	0.000000	0.005609	0.000000	-0.000011	-0.000001	0.000000	0.000000
58.276300	20.689680	14.909422	0.469008	-0.490158	2.774723	0.000000	-0.076762	0.000000	-0.000012	-0.000001	0.000000	0.000000
58.825360	19.833052	15.744761	1.081928	-1.040221	2.710242	0.000000	-0.157771	0.000000	-0.000013	-0.000001	0.000000	0.000000
59.374420	18.341566	17.221033	1.618427	-1.664376	2.601986	0.000000	-0.235982	0.000000	-0.000013	-0.000000	0.000000	0.000000
59.923480	16.320573	19.443389	2.040608	-2.407081	2.451875	0.000000	-0.310007	0.000000	-0.000013	0.000000	0.000000	0.000000
60.369440	14.738814	21.418581	1.518815	-2.003303	2.328916	0.000000	-0.241716	0.000000	-0.000013	-0.000000	0.000000	0.000000
60.810400	13.601296	22.973616	1.070610	-1.509754	2.236779	0.000000	-0.176575	0.000000	-0.000013	-0.000001	0.000000	0.000000
61.251360	12.836078	24.061311	0.671319	-0.947512	2.172896	0.000000	-0.113446	0.000000	-0.000013	-0.000001	0.000000	0.000000
61.692320	12.408199	24.632177	0.302698	-0.342159	2.136540	0.000000	-0.051608	0.000000	-0.000014	-0.000001	0.000000	0.000000
62.134530	12.298165	24.659694	-0.022033	0.218226	2.127302	0.000000	0.004424	0.000000	-0.000014	-0.000002	0.000000	0.000000
62.431853	12.318458	24.533682	-0.046221	0.205595	2.128618	0.000000	0.004424	0.000000	-0.000015	-0.000002	0.000000	0.000000
62.765186	12.358311	24.401339	-0.073338	0.191434	2.130093	0.000000	0.004424	0.000000	-0.000015	-0.000002	0.000000	0.000000
63.098520	12.416243	24.278436	-0.100456	0.177273	2.131568	0.000000	0.004424	0.000000	-0.000016	-0.000002	0.000000	0.000000
63.433103	12.492571	24.164567	-0.127675	0.163059	2.133049	0.000000	0.004424	0.000000	-0.000016	-0.000002	0.000000	0.000000
63.730426	12.575684	24.071360	-0.121018	0.091388	2.134365	0.000000	-0.000811	0.000000	-0.000017	-0.000001	0.000000	0.000000
64.171386	12.842608	23.725684	-0.486603	0.689548	2.147551	0.000000	0.060672	0.000000	-0.000018	-0.000002	0.000000	0.000000
64.612346	13.440496	22.864350	-0.874420	1.256334	2.187975	0.000000	0.122845	0.000000	-0.000019	-0.000002	0.000000	0.000000
65.053306	14.396664	21.526549	-1.302186	1.765959	2.256098	0.000000	0.186418	0.000000	-0.000020	-0.000003	0.000000	0.000000
65.494266	15.754797	19.773150	-1.789446	2.195233	2.352695	0.000000	0.252114	0.000000	-0.000021	-0.000003	0.000000	0.000000
65.940226	17.600106	17.659129	-2.363150	2.525376	2.480439	0.000000	0.321084	0.000000	-0.000023	-0.000004	0.000000	0.000000
66.489286	19.965801	15.294288	-1.919977	1.807121	2.636363	0.000000	0.246039	0.000000	-0.000025	-0.000003	0.000000	0.000000
67.038346	21.767036	13.643289	-1.341186	1.217584	2.749822	0.000000	0.166630	0.000000	-0.000026	-0.000002	0.000000	0.000000
67.587406	22.876580	12.588537	-0.667660	0.714771	2.818803	0.000000	0.084266	0.000000	-0.000027	-0.000002	0.000000	0.000000
68.136466	23.216060	12.054902	0.053026	0.262871	2.842082	0.000000	0.000406	0.000000	-0.000028	-0.000001	0.000000	0.000000
68.435038	23.224467	11.887153	-0.020509	0.267462	2.844422	0.000000	0.007834	0.000000	-0.000028	-0.000001	0.000000	0.000000
68.768372	23.242926	11.718861	-0.034868	0.237414	2.847033	0.000000	0.007834	0.000000	-0.000028	-0.000001	0.000000	0.000000
69.101705	23.270958	11.570601	-0.049227	0.207367	2.849645	0.000000	0.007834	0.000000	-0.000029	-0.000001	0.000000	0.000000
69.436288	23.308721	11.441929	-0.063639	0.177207	2.852266	0.000000	0.007834	0.000000	-0.000029	-0.000001	0.000000	0.000000
69.733611	23.350371	11.344523	-0.137472	0.180054	2.854595	0.000000	0.015294	0.000000	-0.000029	-0.000001	0.000000	0.000000
70.282671	23.100288	11.374071	0.590251	-0.234187	2.839800	0.000000	-0.069108	0.000000	-0.000029	0.000000	0.000000	0.000000
