#ParticleID	Turn	x[m]	xp	y[m]	yp	z[m]	dE[GeV]# s	beta_x	beta_y	alpha_x	alpha_y	D_x	D_y	D_px	D_py	orbit_x	orbit_px	orbit_y	orbit_py
0.300000	11.833457	24.942717	-0.013581	-0.027780	2.618325	0.000000	-0.000068	0.000000	-0.000001	0.000000	0.000000	0.000000
0.601250	11.849310	24.963096	-0.039043	-0.039867	2.618305	0.000000	-0.000068	0.000000	-0.000001	0.000000	0.000000	0.000000
0.898573	11.879998	24.990349	-0.035039	-0.113080	2.618284	0.000000	-0.006489	0.000000	-0.000001	0.000000	0.000000	0.000000
1.339533	12.063275	24.812909	-0.382170	0.513944	2.631717	0.000000	0.067472	0.000000	-0.000001	0.000000	0.000000	0.000000
1.780493	12.559207	24.090723	-0.746761	1.117584	2.677902	0.000000	0.142202	0.000000	-0.000001	0.000000	0.000000	0.000000
2.221453	13.390451	22.856648	-1.145469	1.670375	2.757365	0.000000	0.218551	0.000000	-0.000001	0.000000	0.000000	0.000000
2.662413	14.594985	21.166836	-1.596510	2.147165	2.871011	0.000000	0.297389	0.000000	-0.000001	0.000000	0.000000	0.000000
3.108373	16.248654	19.073385	-2.124793	2.527390	3.021996	0.000000	0.380105	0.000000	-0.000001	0.000000	0.000000	0.000000
3.657433	18.369158	16.722257	-1.714407	1.779983	3.205425	0.000000	0.287067	0.000000	-0.000000	0.000000	0.000000	0.000000
4.206493	19.969439	15.117853	-1.182924	1.159359	3.336295	0.000000	0.188938	0.000000	-0.000000	0.000000	0.000000	0.000000
4.755553	20.936463	14.145894	-0.567885	0.621314	3.412286	0.000000	0.087457	0.000000	-0.000000	0.000000	0.000000	0.000000
5.304613	21.201923	13.737149	0.087266	0.127524	3.432048	0.000000	-0.015575	0.000000	-0.000000	0.000000	0.000000	0.000000
5.603185	21.187101	13.646228	0.017773	0.141102	3.430076	0.000000	-0.006607	0.000000	-0.000000	0.000000	0.000000	0.000000
5.936519	21.180499	13.560465	0.002035	0.116189	3.427873	0.000000	-0.006607	0.000000	-0.000000	0.000000	0.000000	0.000000
6.269852	21.184388	13.491310	-0.013703	0.091275	3.425671	0.000000	-0.006607	0.000000	-0.000000	0.000000	0.000000	0.000000
6.604435	21.198843	13.438598	-0.029500	0.066269	3.423460	0.000000	-0.006607	0.000000	-0.000000	0.000000	0.000000	0.000000
6.901758	21.220559	13.405799	-0.098983	0.079074	3.421495	0.000000	0.002332	0.000000	-0.000000	0.000000	0.000000	0.000000
7.450818	20.967502	13.579417	0.557145	-0.397149	3.394577	0.000000	-0.100242	0.000000	-0.000000	0.000000	0.000000	0.000000
7.999878	20.011385	14.288357	1.173919	-0.901661	3.311744	0.000000	-0.201038	0.000000	-0.000000	0.000000	0.000000	0.000000
8.548938	18.419741	15.583116	1.707773	-1.470396	3.174468	0.000000	-0.298268	0.000000	-0.000000	0.000000	0.000000	0.000000
9.097998	16.304998	17.555917	2.120998	-2.143864	2.985182	0.000000	-0.390207	0.000000	-0.000000	0.000000	0.000000	0.000000
9.543958	14.654960	19.313861	1.592125	-1.781407	2.829470	0.000000	-0.308509	0.000000	0.000000	0.000000	0.000000	0.000000
9.984918	13.454628	20.695147	1.140290	-1.339125	2.710675	0.000000	-0.230807	0.000000	0.000000	0.000000	0.000000	0.000000
10.425878	12.628387	21.657916	0.740552	-0.835915	2.625531	0.000000	-0.155735	0.000000	0.000000	0.000000	0.000000	0.000000
10.866838	12.138488	22.158363	0.374647	-0.294670	2.573069	0.000000	-0.082436	0.000000	0.000000	0.000000	0.000000	0.000000
11.309048	11.962410	22.173204	0.055090	0.205546	2.552671	0.000000	-0.016336	0.000000	0.000000	0.000000	0.000000	0.000000
11.606371	11.937064	22.055132	0.030160	0.191571	2.547813	0.000000	-0.016336	0.000000	0.000000	0.000000	0.000000	0.000000
12.086371	11.927429	21.882054	-0.010088	0.169008	2.539972	0.000000	-0.016336	0.000000	0.000000	0.000000	0.000000	0.000000
12.566371	11.956432	21.730636	-0.050335	0.146446	2.532130	0.000000	-0.016336	0.000000	0.000000	0.000000	0.000000	0.000000
13.046371	12.024072	21.600878	-0.090583	0.123884	2.524289	0.000000	-0.016336	0.000000	0.000000	0.000000	0.000000	0.000000
13.526371	12.130351	21.492780	-0.130830	0.101321	2.516447	0.000000	-0.016336	0.000000	0.000000	0.000000	0.000000	0.000000
14.007621	12.275694	21.406145	-0.171182	0.078700	2.508585	0.000000	-0.016336	0.000000	0.000001	0.000000	0.000000	0.000000
14.304943	12.384899	21.363501	-0.165741	0.012335	2.503728	0.000000	-0.022476	0.000000	0.000001	0.000000	0.000000	0.000000
14.745903	12.689831	21.118768	-0.528400	0.540554	2.509445	0.000000	0.048432	0.000000	0.000001	0.000000	0.000000	0.000000
15.186863	13.323995	20.417296	-0.915200	1.044177	2.546522	0.000000	0.119892	0.000000	0.000001	0.000000	0.000000	0.000000
15.627823	14.316364	19.291001	-1.343812	1.500292	2.615381	0.000000	0.192718	0.000000	0.000001	0.000000	0.000000	0.000000
16.068783	15.712277	17.791129	-1.833820	1.888144	2.716806	0.000000	0.267739	0.000000	0.000001	0.000000	0.000000	0.000000
16.514743	17.599164	15.964423	-2.412368	2.190837	2.853646	0.000000	0.346271	0.000000	0.000001	0.000000	0.000000	0.000000
17.063803	20.022295	13.924594	-1.974742	1.546222	3.020046	0.000000	0.258964	0.000000	0.000001	0.000000	0.000000	0.000000
17.612863	21.884956	12.528361	-1.397631	1.011740	3.137176	0.000000	0.167064	0.000000	0.000001	0.000000	0.000000	0.000000
18.161923	23.055580	11.676274	-0.721798	0.549322	3.202958	0.000000	0.072200	0.000000	0.000001	0.000000	0.000000	0.000000
18.710983	23.451478	11.307640	0.005019	0.126032	3.216225	0.000000	-0.023944	0.000000	0.000001	0.000000	0.000000	0.000000
19.009556	23.488884	11.222813	-0.069027	0.128533	3.211585	0.000000	-0.015541	0.000000	0.000001	0.000000	0.000000	0.000000
19.342889	23.539655	11.147188	-0.083285	0.098340	3.206405	0.000000	-0.015541	0.000000	0.000001	0.000000	0.000000	0.000000
19.676223	23.599931	11.091692	-0.097544	0.068148	3.201224	0.000000	-0.015541	0.000000	0.000001	0.000000	0.000000	0.000000
20.010806	23.670286	11.056092	-0.229132	0.092622	3.196044	0.000000	0.000294	0.000000	0.000001	0.000000	0.000000	0.000000
20.308129	23.810470	11.009079	-0.304564	0.094263	3.196132	0.000000	0.008645	0.000000	0.000001	0.000000	0.000000	0.000000
20.857189	23.734259	11.128170	0.442545	-0.312442	3.174668	0.000000	-0.086715	0.000000	0.000001	0.000000	0.000000	0.000000
21.406249	22.850012	11.703398	1.158395	-0.741402	3.101191	0.000000	-0.180537	0.000000	0.000001	-0.000000	0.000000	0.000000
21.955309	21.220188	12.775737	1.792422	-1.223171	2.977004	0.000000	-0.271157	0.000000	0.000001	-0.000000	0.000000	0.000000
22.504369	18.959910	14.421567	2.299842	-1.792063	2.804311	0.000000	-0.356968	0.000000	0.000001	-0.000000	0.000000	0.000000
22.950329	17.178798	15.899029	1.708141	-1.506954	2.662406	0.000000	-0.279781	0.000000	0.000001	-0.000000	0.000000	0.000000
23.391289	15.901632	17.076946	1.199178	-1.154137	2.555351	0.000000	-0.206235	0.000000	0.000001	-0.000000	0.000000	0.000000
23.832249	15.047567	17.919274	0.745001	-0.748808	2.480178	0.000000	-0.135039	0.000000	0.000001	0.000000	0.000000	0.000000
24.273209	14.577583	18.387688	0.324862	-0.309409	2.436032	0.000000	-0.065380	0.000000	0.000001	0.000000	0.000000	0.000000
24.715418	14.470320	18.460629	-0.045036	0.098729	2.422406	0.000000	-0.002406	0.000000	0.000001	0.000000	0.000000	0.000000
25.012741	14.503222	18.406755	-0.065625	0.082466	2.421691	0.000000	-0.002406	0.000000	0.000001	0.000000	0.000000	0.000000
25.346075	14.554666	18.357856	-0.088708	0.064233	2.420888	0.000000	-0.002406	0.000000	0.000001	0.000000	0.000000	0.000000
25.679408	14.621499	18.321111	-0.111790	0.046001	2.420086	0.000000	-0.002406	0.000000	0.000001	0.000000	0.000000	0.000000
26.013991	14.703759	18.296823	-0.015672	-0.120733	2.419257	0.000000	-0.022033	0.000000	0.000001	0.000000	0.000000	0.000000
26.311314	14.719092	18.373518	0.000197	-0.182276	2.412706	0.000000	-0.027950	0.000000	0.000001	0.000000	0.000000	0.000000
26.752274	14.900296	18.334947	-0.412686	0.269413	2.415487	0.000000	0.040575	0.000000	0.000001	0.000000	0.000000	0.000000
27.193234	15.452536	17.901926	-0.844424	0.708845	2.448557	0.000000	0.109561	0.000000	0.000001	0.000000	0.000000	0.000000
27.634194	16.401043	17.094159	-1.314741	1.116024	2.512293	0.000000	0.179795	0.000000	0.000002	0.000000	0.000000	0.000000
28.075154	17.789152	15.948396	-1.845125	1.472425	2.607422	0.000000	0.252077	0.000000	0.000002	0.000000	0.000000	0.000000
28.521114	19.704405	14.499515	-2.464761	1.762746	2.736629	0.000000	0.327673	0.000000	0.000002	0.000000	0.000000	0.000000
29.070174	22.138694	12.884992	-1.942551	1.195132	2.893885	0.000000	0.244306	0.000000	0.000002	0.000000	0.000000	0.000000
29.619234	23.920333	11.843654	-1.283130	0.712645	3.004110	0.000000	0.156605	0.000000	0.000002	0.000000	0.000000	0.000000
30.168294	24.923476	11.301330	-0.533074	0.280918	3.065346	0.000000	0.066127	0.000000	0.000002	0.000000	0.000000	0.000000
30.717354	25.077266	11.219390	0.254635	-0.130800	3.076509	0.000000	-0.025525	0.000000	0.000002	0.000000	0.000000	0.000000
31.015927	24.968019	11.288020	0.176782	-0.128373	3.071288	0.000000	-0.017486	0.000000	0.000002	0.000000	0.000000	0.000000
31.349260	24.854753	11.383608	0.163015	-0.158389	3.065459	0.000000	-0.017486	0.000000	0.000002	0.000000	0.000000	0.000000
31.682593	24.750666	11.499206	0.149247	-0.188406	3.059631	0.000000	-0.017486	0.000000	0.000002	0.000000	0.000000	0.000000
32.017177	24.655419	11.635362	0.135428	-0.218535	3.053780	0.000000	-0.017486	0.000000	0.000002	0.000000	0.000000	0.000000
32.314499	24.578539	11.773273	0.058929	-0.214548	3.048581	0.000000	-0.009521	0.000000	0.000002	0.000000	0.000000	0.000000
32.863559	24.092800	12.248249	0.820506	-0.655630	3.018481	0.000000	-0.099961	0.000000	0.000002	-0.000000	0.000000	0.000000
33.412619	22.797790	13.230234	1.524127	-1.143411	2.939138	0.000000	-0.188627	0.000000	0.000002	-0.000000	0.000000	0.000000
33.961679	20.784980	14.789173	2.120091	-1.712635	2.811960	0.000000	-0.273948	0.000000	0.000002	-0.000000	0.000000	0.000000
34.510739	18.196547	17.036104	2.566302	-2.403846	2.639202	0.000000	-0.354410	0.000000	0.000002	-0.000000	0.000000	0.000000
34.956699	16.184096	19.045817	1.962492	-2.083823	2.497486	0.000000	-0.281504	0.000000	0.000002	-0.000000	0.000000	0.000000
35.397659	14.683543	20.707310	1.453342	-1.669738	2.388731	0.000000	-0.212231	0.000000	0.000002	-0.000000	0.000000	0.000000
35.838619	13.601153	21.968590	1.010592	-1.179681	2.309961	0.000000	-0.145377	0.000000	0.000002	-0.000000	0.000000	0.000000
36.279579	12.887475	22.772269	0.614012	-0.635950	2.260278	0.000000	-0.080177	0.000000	0.000001	-0.000000	0.000000	0.000000
36.721789	12.509212	23.082080	0.276056	-0.119940	2.239090	0.000000	-0.021382	0.000000	0.000001	-0.000000	0.000000	0.000000
37.019112	12.352663	23.157287	0.250476	-0.133007	2.232733	0.000000	-0.021382	0.000000	0.000001	-0.000000	0.000000	0.000000
37.352445	12.195238	23.250841	0.221798	-0.147656	2.225605	0.000000	-0.021382	0.000000	0.000001	-0.000000	0.000000	0.000000
37.685779	12.056932	23.354161	0.193121	-0.162305	2.218478	0.000000	-0.021382	0.000000	0.000001	-0.000000	0.000000	0.000000
38.020362	11.937333	23.467690	0.164335	-0.177009	2.211324	0.000000	-0.021382	0.000000	0.000001	-0.000000	0.000000	0.000000
38.317684	11.847217	23.576832	0.167808	-0.247892	2.204966	0.000000	-0.026789	0.000000	0.000001	-0.000000	0.000000	0.000000
38.758644	11.850354	23.534331	-0.174950	0.343909	2.207077	0.000000	0.036371	0.000000	0.000001	-0.000000	0.000000	0.000000
39.199604	12.158145	22.974841	-0.525701	0.920062	2.237103	0.000000	0.099945	0.000000	0.000001	0.000000	0.000000	0.000000
39.640564	12.784653	21.923819	-0.900470	1.454353	2.295387	0.000000	0.164658	0.000000	0.000001	0.000000	0.000000	0.000000
40.081524	13.758500	20.429086	-1.316378	1.922473	2.382593	0.000000	0.231246	0.000000	0.000001	0.000000	0.000000	0.000000
40.527484	15.141738	18.536082	-1.796251	2.304398	2.501185	0.000000	0.300872	0.000000	0.000001	0.000000	0.000000	0.000000
41.076544	16.907211	16.408935	-1.400159	1.592633	2.645859	0.000000	0.225338	0.000000	0.000002	0.000000	0.000000	0.000000
41.625604	18.180510	14.996884	-0.905167	0.994307	2.747899	0.000000	0.145806	0.000000	0.000002	0.000000	0.000000	0.000000
42.174664	18.871698	14.199354	-0.346238	0.466804	2.805496	0.000000	0.063688	0.000000	0.000002	-0.000000	0.000000	0.000000
42.723724	18.931952	13.959538	0.237147	-0.027450	2.817628	0.000000	-0.019560	0.000000	0.000002	-0.000000	0.000000	0.000000
43.022297	18.824753	13.960536	0.171356	-0.012367	2.813987	0.000000	-0.012198	0.000000	0.000002	-0.000000	0.000000	0.000000
43.502297	18.672850	13.988915	0.145109	-0.046755	2.808132	0.000000	-0.012198	0.000000	0.000002	-0.000000	0.000000	0.000000
43.982297	18.546144	14.050305	0.118862	-0.081143	2.802277	0.000000	-0.012198	0.000000	0.000001	-0.000000	0.000000	0.000000
44.462297	18.444635	14.144709	0.092615	-0.115531	2.796422	0.000000	-0.012198	0.000000	0.000001	-0.000000	0.000000	0.000000
44.942297	18.368324	14.272124	0.066368	-0.149919	2.790567	0.000000	-0.012198	0.000000	0.000001	-0.000000	0.000000	0.000000
45.423547	18.317336	14.432834	-0.050702	-0.112887	2.784714	0.000000	0.001599	0.000000	0.000001	-0.000000	0.000000	0.000000
45.720870	18.352324	14.506165	-0.114926	-0.095848	2.785190	0.000000	0.008876	0.000000	0.000001	-0.000000	0.000000	0.000000
46.269930	18.169502	14.892070	0.445927	-0.611148	2.767497	0.000000	-0.073230	0.000000	0.000001	-0.000000	0.000000	0.000000
46.818990	17.384526	15.864277	0.975283	-1.169979	2.705013	0.000000	-0.154037	0.000000	0.000001	-0.000000	0.000000	0.000000
47.368050	16.052842	17.492034	1.435749	-1.812144	2.598847	0.000000	-0.232113	0.000000	0.000001	-0.000000	0.000000	0.000000
47.917110	14.268513	19.891281	1.794801	-2.583385	2.450882	0.000000	-0.306071	0.000000	0.000001	-0.000000	0.000000	0.000000
48.363070	12.879794	22.024545	1.330229	-2.180037	2.329676	0.000000	-0.237783	0.000000	0.000001	-0.000000	0.000000	0.000000
48.804030	11.886803	23.732623	0.930198	-1.678767	2.239281	0.000000	-0.172600	0.000000	0.000001	-0.000000	0.000000	0.000000
49.244990	11.226605	24.963122	0.572665	-1.101115	2.177168	0.000000	-0.109383	0.000000	0.000001	-0.000000	0.000000	0.000000
49.685950	10.869038	25.660056	0.241295	-0.473363	2.142631	0.000000	-0.047412	0.000000	0.000001	-0.000000	0.000000	0.000000
50.128160	10.797896	25.791433	-0.052687	0.112629	2.135286	0.000000	0.008782	0.000000	0.000001	-0.000000	0.000000	0.000000
50.425482	10.837436	25.727929	-0.080299	0.100955	2.137897	0.000000	0.008782	0.000000	0.000001	-0.000000	0.000000	0.000000
50.758816	10.901287	25.664989	-0.111255	0.087867	2.140825	0.000000	0.008782	0.000000	0.000001	-0.000000	0.000000	0.000000
51.092149	10.985775	25.610773	-0.142211	0.074779	2.143752	0.000000	0.008782	0.000000	0.000001	-0.000000	0.000000	0.000000
51.426732	11.091109	25.565648	-0.083304	-0.145759	2.146669	0.000000	-0.008633	0.000000	0.000001	-0.000000	0.000000	0.000000
51.724055	11.148671	25.655854	-0.082958	-0.220552	2.144102	0.000000	-0.013891	0.000000	0.000001	-0.000000	0.000000	0.000000
52.165015	11.367355	25.564972	-0.414850	0.425868	2.151565	0.000000	0.047769	0.000000	0.000001	-0.000000	0.000000	0.000000
52.605975	11.885961	24.910400	-0.765695	1.052910	2.186311	0.000000	0.109973	0.000000	0.000001	-0.000000	0.000000	0.000000
53.046935	12.728182	23.721919	-1.151523	1.632046	2.248736	0.000000	0.173430	0.000000	0.000000	-0.000000	0.000000	0.000000
53.487895	13.932498	22.053605	-1.589961	2.136925	2.339552	0.000000	0.238862	0.000000	0.000000	-0.000000	0.000000	0.000000
53.933855	15.574568	19.956417	-2.105279	2.545910	2.461297	0.000000	0.307413	0.000000	0.000000	-0.000000	0.000000	0.000000
54.482915	17.688614	17.596667	-1.722229	1.777260	2.609905	0.000000	0.233107	0.000000	0.000000	-0.000000	0.000000	0.000000
55.031975	19.312329	16.006935	-1.217528	1.135201	2.716517	0.000000	0.154666	0.000000	0.000000	-0.000000	0.000000	0.000000
55.581035	20.331021	15.073988	-0.626828	0.574000	2.779243	0.000000	0.073482	0.000000	0.000000	-0.000000	0.000000	0.000000
56.130095	20.672737	14.731375	0.008148	0.053683	2.796970	0.000000	-0.009006	0.000000	0.000000	-0.000000	0.000000	0.000000
56.428668	20.704446	14.682437	-0.060339	0.071733	2.796463	0.000000	-0.001698	0.000000	0.000000	-0.000000	0.000000	0.000000
56.762001	20.750058	14.642222	-0.076497	0.048914	2.795897	0.000000	-0.001698	0.000000	0.000000	-0.000000	0.000000	0.000000
57.095334	20.806443	14.617219	-0.092655	0.026094	2.795331	0.000000	-0.001698	0.000000	0.000000	-0.000000	0.000000	0.000000
57.429918	20.873871	14.607422	-0.108874	0.003189	2.794763	0.000000	-0.001698	0.000000	0.000000	-0.000000	0.000000	0.000000
57.727240	20.942898	14.611577	-0.178007	0.021011	2.794258	0.000000	0.005603	0.000000	0.000000	-0.000000	0.000000	0.000000
58.276300	20.781000	14.869182	0.471125	-0.492954	2.774693	0.000000	-0.076767	0.000000	0.000000	-0.000000	0.000000	0.000000
58.825360	19.920412	15.707035	1.086980	-1.042032	2.710209	0.000000	-0.157775	0.000000	0.000000	-0.000000	0.000000	0.000000
59.374420	18.421923	17.184817	1.626055	-1.665331	2.601951	0.000000	-0.235985	0.000000	0.000000	-0.000000	0.000000	0.000000
59.923480	16.391378	19.407786	2.050274	-2.407248	2.451838	0.000000	-0.310009	0.000000	-0.000000	-0.000000	0.000000	0.000000
60.369440	14.801960	21.383672	1.526383	-2.004688	2.328879	0.000000	-0.241719	0.000000	-0.000000	-0.000000	0.000000	0.000000
60.810400	13.658556	22.940441	1.076443	-1.512285	2.236740	0.000000	-0.176579	0.000000	-0.000000	-0.000000	0.000000	0.000000
61.251360	12.888859	24.030833	0.675682	-0.951074	2.172855	0.000000	-0.113451	0.000000	-0.000000	-0.000000	0.000000	0.000000
61.692320	12.457704	24.605237	0.305791	-0.346590	2.136496	0.000000	-0.051614	0.000000	-0.000000	-0.000000	0.000000	0.000000
62.134530	12.345443	24.636985	-0.019955	0.213191	2.127255	0.000000	0.004417	0.000000	-0.000000	-0.000000	0.000000	0.000000
62.431853	12.364473	24.513963	-0.044049	0.200575	2.128568	0.000000	0.004417	0.000000	-0.000000	-0.000000	0.000000	0.000000
62.765186	12.402843	24.384961	-0.071060	0.186430	2.130041	0.000000	0.004417	0.000000	-0.000000	-0.000000	0.000000	0.000000
63.098520	12.459220	24.265390	-0.098071	0.172285	2.131513	0.000000	0.004417	0.000000	-0.000000	-0.000000	0.000000	0.000000
63.433103	12.533917	24.154853	-0.125184	0.158087	2.132991	0.000000	0.004417	0.000000	-0.000000	-0.000000	0.000000	0.000000
63.730426	12.615520	24.064598	-0.118340	0.086457	2.134305	0.000000	-0.000817	0.000000	-0.000000	-0.000000	0.000000	0.000000
64.171386	12.880460	23.723309	-0.484764	0.684567	2.147487	0.000000	0.060665	0.000000	-0.000001	-0.000000	0.000000	0.000000
64.612346	13.477064	22.866307	-0.873335	1.251529	2.187907	0.000000	0.122837	0.000000	-0.000001	-0.000000	0.000000	0.000000
65.053306	14.432590	21.532585	-1.301807	1.761548	2.256025	0.000000	0.186408	0.000000	-0.000001	-0.000000	0.000000	0.000000
65.494266	15.790692	19.782827	-1.789754	2.191418	2.352616	0.000000	0.252102	0.000000	-0.000001	-0.000000	0.000000	0.000000
65.940226	17.636591	17.671873	-2.364165	2.522338	2.480353	0.000000	0.321070	0.000000	-0.000001	-0.000000	0.000000	0.000000
66.489286	20.002596	15.310280	-1.919517	1.804208	2.636268	0.000000	0.246028	0.000000	-0.000001	-0.000000	0.000000	0.000000
67.038346	21.802527	13.662506	-1.339283	1.214588	2.749719	0.000000	0.166622	0.000000	-0.000001	-0.000000	0.000000	0.000000
67.587406	22.909247	12.611184	-0.664449	0.711481	2.818696	0.000000	0.084261	0.000000	-0.000001	-0.000000	0.000000	0.000000
68.136466	23.244583	12.081431	0.057319	0.259051	2.841973	0.000000	0.000405	0.000000	-0.000001	-0.000000	0.000000	0.000000
68.435038	23.250458	11.915892	-0.016261	0.263817	2.844311	0.000000	0.007830	0.000000	-0.000001	-0.000000	0.000000	0.000000
68.768372	23.266078	11.749987	-0.030601	0.233896	2.846921	0.000000	0.007830	0.000000	-0.000001	-0.000000	0.000000	0.000000
69.101705	23.291259	11.604030	-0.044942	0.203975	2.849531	0.000000	0.007830	0.000000	-0.000001	-0.000000	0.000000	0.000000
69.436288	23.326149	11.477585	-0.059336	0.173942	2.852151	0.000000	0.007830	0.000000	-0.000001	-0.000000	0.000000	0.000000
69.733611	23.365236	11.382086	-0.133177	0.176994	2.854479	0.000000	0.015289	0.000000	-0.000001	-0.000000	0.000000	0.000000
70.282671	23.110205	11.415583	0.594913	-0.238361	2.839682	0.000000	-0.069110	0.000000	-0.000001	-0.000000	0.000000	0.000000
