#ParticleID	Turn	x[m]	xp	y[m]	yp	z[m]	dE[GeV]# s	beta_x	beta_y	alpha_x	alpha_y	D_x	D_y	D_px	D_py	orbit_x	orbit_px	orbit_y	orbit_py
0.300000	11.820302	24.992172	-0.011780	-0.027529	2.618067	0.000000	0.000030	0.000000	0.000000	0.000001	0.000000	0.000000
0.601250	11.835078	25.012392	-0.037269	-0.039592	2.618076	0.000000	0.000030	0.000000	0.000000	0.000001	0.000000	0.000000
0.898573	11.864720	25.039475	-0.033330	-0.112901	2.618085	0.000000	-0.006390	0.000000	0.000000	0.000001	0.000000	0.000000
1.339533	12.046323	24.861304	-0.380068	0.515417	2.631560	0.000000	0.067567	0.000000	0.000001	0.000001	0.000000	0.000000
1.780493	12.540194	24.137270	-0.744171	1.120284	2.677785	0.000000	0.142293	0.000000	0.000001	0.000001	0.000000	0.000000
2.221453	13.368896	22.900317	-1.142272	1.674179	2.757288	0.000000	0.218640	0.000000	0.000001	0.000001	0.000000	0.000000
2.662413	14.570290	21.206725	-1.592560	2.151900	2.870972	0.000000	0.297476	0.000000	0.000002	0.000001	0.000000	0.000000
3.108373	16.220032	19.108712	-2.119902	2.532843	3.021996	0.000000	0.380191	0.000000	0.000002	0.000001	0.000000	0.000000
3.657433	18.335530	16.752376	-1.710234	1.784072	3.205471	0.000000	0.287153	0.000000	0.000002	0.000001	0.000000	0.000000
4.206493	19.931762	15.144092	-1.179764	1.162377	3.336388	0.000000	0.189021	0.000000	0.000003	0.000001	0.000000	0.000000
4.755553	20.895978	14.169305	-0.565962	0.623476	3.412423	0.000000	0.087537	0.000000	0.000003	0.000001	0.000000	0.000000
5.304613	21.160071	13.758584	0.087818	0.128984	3.432228	0.000000	-0.015500	0.000000	0.000003	0.000000	0.000000	0.000000
5.603185	21.144862	13.666751	0.018407	0.142640	3.430278	0.000000	-0.006533	0.000000	0.000004	0.000000	0.000000	0.000000
5.936519	21.137848	13.579953	0.002637	0.117754	3.428100	0.000000	-0.006533	0.000000	0.000004	0.000000	0.000000	0.000000
6.269852	21.141346	13.509746	-0.013133	0.092867	3.425922	0.000000	-0.006533	0.000000	0.000004	0.000000	0.000000	0.000000
6.604435	21.155430	13.455960	-0.028961	0.067888	3.423736	0.000000	-0.006533	0.000000	0.000004	0.000000	0.000000	0.000000
6.901758	21.176834	13.422191	-0.098356	0.080758	3.421794	0.000000	0.002408	0.000000	0.000004	0.000000	0.000000	0.000000
7.450818	20.923898	13.594208	0.556301	-0.395900	3.394914	0.000000	-0.100177	0.000000	0.000004	0.000000	0.000000	0.000000
7.999878	19.969491	14.301973	1.171665	-0.900758	3.312114	0.000000	-0.200984	0.000000	0.000005	0.000000	0.000000	0.000000
8.548938	18.381029	15.595900	1.704267	-1.469775	3.174863	0.000000	-0.298227	0.000000	0.000005	0.000000	0.000000	0.000000
9.097998	16.270712	17.568153	2.116489	-2.143481	2.985597	0.000000	-0.390179	0.000000	0.000005	-0.000000	0.000000	0.000000
9.543958	14.624237	19.325553	1.588616	-1.780576	2.829900	0.000000	-0.308470	0.000000	0.000005	0.000000	0.000000	0.000000
9.984918	13.426622	20.705924	1.137614	-1.337888	2.711124	0.000000	-0.230757	0.000000	0.000005	0.000000	0.000000	0.000000
10.425878	12.602420	21.667443	0.738586	-0.834328	2.626005	0.000000	-0.155673	0.000000	0.000005	0.000000	0.000000	0.000000
10.866838	12.113975	22.166363	0.373302	-0.292806	2.573573	0.000000	-0.082362	0.000000	0.000005	0.000000	0.000000	0.000000
11.309048	11.938836	22.179463	0.054244	0.207590	2.553210	0.000000	-0.016249	0.000000	0.000005	0.000000	0.000000	0.000000
11.606371	11.914006	22.060179	0.029267	0.193607	2.548379	0.000000	-0.016249	0.000000	0.000005	0.000000	0.000000	0.000000
12.086371	11.905265	21.885152	-0.011056	0.171032	2.540579	0.000000	-0.016249	0.000000	0.000005	0.000000	0.000000	0.000000
12.566371	11.935234	21.731796	-0.051379	0.148458	2.532779	0.000000	-0.016249	0.000000	0.000006	0.000000	0.000000	0.000000
13.046371	12.003914	21.600112	-0.091703	0.125884	2.524979	0.000000	-0.016249	0.000000	0.000006	0.000000	0.000000	0.000000
13.526371	12.111303	21.490099	-0.132026	0.103310	2.517180	0.000000	-0.016249	0.000000	0.000006	0.000000	0.000000	0.000000
14.007621	12.257834	21.401556	-0.172454	0.080677	2.509359	0.000000	-0.016249	0.000000	0.000006	0.000000	0.000000	0.000000
14.304943	12.367809	21.357739	-0.167103	0.014322	2.504528	0.000000	-0.022391	0.000000	0.000007	0.000000	0.000000	0.000000
14.745903	12.673786	21.111336	-0.529416	0.542340	2.510287	0.000000	0.048539	0.000000	0.000007	0.000001	0.000000	0.000000
15.186863	13.308711	20.408406	-0.915916	1.045683	2.547416	0.000000	0.120022	0.000000	0.000007	0.000001	0.000000	0.000000
15.627823	14.301593	19.280933	-1.344262	1.501447	2.616337	0.000000	0.192871	0.000000	0.000008	0.000001	0.000000	0.000000
16.068783	15.697794	17.780216	-1.834024	1.888898	2.717834	0.000000	0.267917	0.000000	0.000008	0.000001	0.000000	0.000000
16.514743	17.584756	15.953032	-2.412334	2.191151	2.854760	0.000000	0.346477	0.000000	0.000009	0.000001	0.000000	0.000000
17.063803	20.008198	13.912756	-1.975338	1.546726	3.021262	0.000000	0.259133	0.000000	0.000009	0.000001	0.000000	0.000000
17.612863	21.871842	12.515849	-1.398813	1.012471	3.138473	0.000000	0.167192	0.000000	0.000010	0.000001	0.000000	0.000000
18.161923	23.044050	11.662811	-0.723484	0.550332	3.204313	0.000000	0.072285	0.000000	0.000010	0.000001	0.000000	0.000000
18.710983	23.442022	11.292883	0.002949	0.127392	3.217615	0.000000	-0.023904	0.000000	0.000010	0.000000	0.000000	0.000000
19.009556	23.480649	11.207282	-0.071075	0.129806	3.212988	0.000000	-0.015497	0.000000	0.000010	0.000000	0.000000	0.000000
19.342889	23.532788	11.130826	-0.085343	0.099562	3.207822	0.000000	-0.015497	0.000000	0.000011	0.000000	0.000000	0.000000
19.676223	23.594439	11.074532	-0.099611	0.069319	3.202656	0.000000	-0.015497	0.000000	0.000011	0.000000	0.000000	0.000000
20.010806	23.666180	11.038167	-0.231187	0.093651	3.197491	0.000000	0.000345	0.000000	0.000011	0.000000	0.000000	0.000000
20.308129	23.807590	10.990557	-0.306621	0.095193	3.197593	0.000000	0.008699	0.000000	0.000011	0.000000	0.000000	0.000000
20.857189	23.733679	11.108336	0.440437	-0.310970	3.176145	0.000000	-0.086709	0.000000	0.000011	-0.000000	0.000000	0.000000
21.406249	22.851707	11.681604	1.156385	-0.739283	3.102659	0.000000	-0.180579	0.000000	0.000011	-0.000000	0.000000	0.000000
21.955309	21.223970	12.751193	1.790652	-1.220253	2.978437	0.000000	-0.271246	0.000000	0.000010	-0.000001	0.000000	0.000000
22.504369	18.965445	14.393288	2.298436	-1.788139	2.805682	0.000000	-0.357102	0.000000	0.000010	-0.000001	0.000000	0.000000
22.950329	17.185572	15.867523	1.706754	-1.503673	2.663726	0.000000	-0.279880	0.000000	0.000009	-0.000001	0.000000	0.000000
23.391289	15.909644	17.042886	1.197746	-1.151647	2.556635	0.000000	-0.206301	0.000000	0.000009	-0.000001	0.000000	0.000000
23.832249	15.056886	17.883409	0.743459	-0.747222	2.481441	0.000000	-0.135072	0.000000	0.000009	-0.000000	0.000000	0.000000
24.273209	14.588337	18.350851	0.323138	-0.308799	2.437287	0.000000	-0.065380	0.000000	0.000009	-0.000000	0.000000	0.000000
24.715418	14.482708	18.423696	-0.046993	0.098429	2.423668	0.000000	-0.002377	0.000000	0.000009	0.000000	0.000000	0.000000
25.012741	14.516769	18.370010	-0.067568	0.082135	2.422962	0.000000	-0.002377	0.000000	0.000009	0.000000	0.000000	0.000000
25.346075	14.569504	18.321343	-0.090635	0.063867	2.422169	0.000000	-0.002377	0.000000	0.000009	0.000000	0.000000	0.000000
25.679408	14.637616	18.284855	-0.113701	0.045599	2.421377	0.000000	-0.002377	0.000000	0.000009	0.000000	0.000000	0.000000
26.013991	14.721149	18.260847	-0.017427	-0.120879	2.420557	0.000000	-0.022014	0.000000	0.000009	-0.000000	0.000000	0.000000
26.311314	14.737519	18.337639	-0.001493	-0.182364	2.414012	0.000000	-0.027933	0.000000	0.000009	-0.000000	0.000000	0.000000
26.752274	14.920418	18.299575	-0.414856	0.268356	2.416807	0.000000	0.040625	0.000000	0.000009	0.000000	0.000000	0.000000
27.193234	15.474819	17.867897	-0.847173	0.706867	2.449907	0.000000	0.109645	0.000000	0.000009	0.000000	0.000000	0.000000
27.634194	16.426051	17.062248	-1.318195	1.113215	2.513689	0.000000	0.179915	0.000000	0.000009	0.000001	0.000000	0.000000
28.075154	17.817573	15.919283	-1.849441	1.468914	2.608878	0.000000	0.252234	0.000000	0.000010	0.000001	0.000000	0.000000
28.521114	19.737137	14.473790	-2.470146	1.758690	2.738163	0.000000	0.327868	0.000000	0.000010	0.000001	0.000000	0.000000
29.070174	22.176917	12.863170	-1.947107	1.192039	2.895512	0.000000	0.244450	0.000000	0.000011	0.000001	0.000000	0.000000
29.619234	23.962954	11.824803	-1.286534	0.710295	3.005801	0.000000	0.156696	0.000000	0.000011	0.000000	0.000000	0.000000
30.168294	24.969089	11.284730	-0.535087	0.279143	3.067072	0.000000	0.066162	0.000000	0.000011	0.000000	0.000000	0.000000
30.717354	25.124255	11.204482	0.254156	-0.132126	3.078239	0.000000	-0.025546	0.000000	0.000011	-0.000000	0.000000	0.000000
31.015927	25.015357	11.273941	0.176211	-0.129783	3.073013	0.000000	-0.017503	0.000000	0.000011	-0.000000	0.000000	0.000000
31.349260	24.902463	11.370484	0.162472	-0.159847	3.067178	0.000000	-0.017503	0.000000	0.000011	-0.000000	0.000000	0.000000
31.682593	24.798728	11.487071	0.148733	-0.189912	3.061344	0.000000	-0.017503	0.000000	0.000011	-0.000000	0.000000	0.000000
32.017177	24.703814	11.624251	0.134943	-0.220090	3.055488	0.000000	-0.017503	0.000000	0.000011	-0.000000	0.000000	0.000000
32.314499	24.627214	11.763099	0.058348	-0.216174	3.050284	0.000000	-0.009534	0.000000	0.000011	-0.000000	0.000000	0.000000
32.863559	24.141222	12.239743	0.821547	-0.657058	3.020161	0.000000	-0.100029	0.000000	0.000011	-0.000001	0.000000	0.000000
33.412619	22.844206	13.223235	1.526717	-1.144743	2.940766	0.000000	-0.188749	0.000000	0.000010	-0.000001	0.000000	0.000000
33.961679	20.827781	14.783627	2.124046	-1.713965	2.813508	0.000000	-0.274121	0.000000	0.000010	-0.000001	0.000000	0.000000
34.510739	18.234378	17.032062	2.571344	-2.405269	2.640643	0.000000	-0.354631	0.000000	0.000009	-0.000001	0.000000	0.000000
34.956699	16.217945	19.043180	1.966411	-2.085538	2.498836	0.000000	-0.281689	0.000000	0.000008	-0.000001	0.000000	0.000000
35.397659	14.714358	20.706284	1.456327	-1.671663	2.390007	0.000000	-0.212383	0.000000	0.000008	-0.000001	0.000000	0.000000
35.838619	13.629697	21.969322	1.012778	-1.181728	2.311178	0.000000	-0.145496	0.000000	0.000007	-0.000001	0.000000	0.000000
36.279579	12.914404	22.774826	0.615501	-0.638026	2.261449	0.000000	-0.080266	0.000000	0.000007	-0.000001	0.000000	0.000000
36.721789	12.535109	23.086452	0.276976	-0.121959	2.240229	0.000000	-0.021444	0.000000	0.000007	-0.000001	0.000000	0.000000
37.019112	12.378000	23.162861	0.251437	-0.135030	2.233854	0.000000	-0.021444	0.000000	0.000007	-0.000001	0.000000	0.000000
37.352445	12.219919	23.257765	0.222805	-0.149683	2.226706	0.000000	-0.021444	0.000000	0.000006	-0.000001	0.000000	0.000000
37.685779	12.080927	23.362438	0.194173	-0.164336	2.219558	0.000000	-0.021444	0.000000	0.000006	-0.000001	0.000000	0.000000
38.020362	11.960608	23.477327	0.165434	-0.179044	2.212384	0.000000	-0.021444	0.000000	0.000006	-0.000001	0.000000	0.000000
38.317684	11.869827	23.587681	0.169001	-0.249955	2.206008	0.000000	-0.026853	0.000000	0.000006	-0.000001	0.000000	0.000000
38.758644	11.872137	23.546867	-0.174259	0.342161	2.208097	0.000000	0.036334	0.000000	0.000006	-0.000000	0.000000	0.000000
39.199604	12.179528	22.988749	-0.525481	0.918710	2.238113	0.000000	0.099934	0.000000	0.000006	-0.000000	0.000000	0.000000
39.640564	12.806044	21.938723	-0.900710	1.453458	2.296398	0.000000	0.164673	0.000000	0.000006	-0.000000	0.000000	0.000000
40.081524	13.780309	20.444562	-1.317090	1.922074	2.383616	0.000000	0.231287	0.000000	0.000006	0.000000	0.000000	0.000000
40.527484	15.164407	18.551682	-1.797471	2.304520	2.502233	0.000000	0.300941	0.000000	0.000006	0.000000	0.000000	0.000000
41.076544	16.930763	16.424600	-1.400541	1.592392	2.646934	0.000000	0.225372	0.000000	0.000006	0.000000	0.000000	0.000000
41.625604	18.204008	15.013019	-0.904684	0.993687	2.748984	0.000000	0.145805	0.000000	0.000006	-0.000000	0.000000	0.000000
42.174664	18.894204	14.216398	-0.344925	0.465760	2.806571	0.000000	0.063652	0.000000	0.000005	-0.000000	0.000000	0.000000
42.723724	18.952600	13.977993	0.239198	-0.028992	2.818674	0.000000	-0.019630	0.000000	0.000005	-0.000001	0.000000	0.000000
43.022297	18.844206	13.979876	0.173360	-0.013833	2.815012	0.000000	-0.012266	0.000000	0.000005	-0.000001	0.000000	0.000000
43.502297	18.690374	14.009640	0.147123	-0.048175	2.809125	0.000000	-0.012266	0.000000	0.000005	-0.000001	0.000000	0.000000
43.982297	18.561730	14.072372	0.120885	-0.082516	2.803238	0.000000	-0.012266	0.000000	0.000005	-0.000001	0.000000	0.000000
44.462297	18.458275	14.168071	0.094647	-0.116858	2.797350	0.000000	-0.012266	0.000000	0.000004	-0.000001	0.000000	0.000000
44.942297	18.380007	14.296739	0.068410	-0.151200	2.791463	0.000000	-0.012266	0.000000	0.000004	-0.000001	0.000000	0.000000
45.423547	18.327049	14.458660	-0.048698	-0.113994	2.785578	0.000000	0.001536	0.000000	0.000004	-0.000000	0.000000	0.000000
45.720870	18.360842	14.532639	-0.112932	-0.096855	2.786034	0.000000	0.008815	0.000000	0.000004	-0.000000	0.000000	0.000000
46.269930	18.175691	14.920100	0.448151	-0.612991	2.768300	0.000000	-0.073318	0.000000	0.000003	-0.000001	0.000000	0.000000
46.818990	17.388218	15.894847	0.977578	-1.172790	2.705762	0.000000	-0.154151	0.000000	0.000003	-0.000001	0.000000	0.000000
47.368050	16.054048	17.526310	1.437955	-1.816123	2.599527	0.000000	-0.232249	0.000000	0.000003	-0.000001	0.000000	0.000000
47.917110	14.267418	19.930693	1.796761	-2.588815	2.451481	0.000000	-0.306228	0.000000	0.000002	-0.000001	0.000000	0.000000
48.363070	12.877028	22.068436	1.332031	-2.184608	2.330209	0.000000	-0.237926	0.000000	0.000002	-0.000001	0.000000	0.000000
48.804030	11.882486	23.780091	0.931927	-1.682275	2.239754	0.000000	-0.172730	0.000000	0.000002	-0.000001	0.000000	0.000000
49.244990	11.220766	25.013154	0.574400	-1.103400	2.177587	0.000000	-0.109502	0.000000	0.000001	-0.000001	0.000000	0.000000
49.685950	10.861636	25.711523	0.243116	-0.474321	2.143000	0.000000	-0.047520	0.000000	0.000001	-0.000001	0.000000	0.000000
50.128160	10.788816	25.843141	-0.050720	0.112916	2.135610	0.000000	0.008682	0.000000	0.000001	-0.000001	0.000000	0.000000
50.425482	10.827192	25.779460	-0.078350	0.101264	2.138192	0.000000	0.008682	0.000000	0.000000	-0.000001	0.000000	0.000000
50.758816	10.889750	25.716305	-0.109325	0.088201	2.141086	0.000000	0.008682	0.000000	0.000000	-0.000001	0.000000	0.000000
51.092149	10.972959	25.661859	-0.140301	0.075138	2.143980	0.000000	0.008682	0.000000	-0.000000	-0.000001	0.000000	0.000000
51.426732	11.077022	25.616485	-0.081529	-0.145787	2.146864	0.000000	-0.008734	0.000000	-0.000000	-0.000001	0.000000	0.000000
51.724055	11.133536	25.706701	-0.081246	-0.220681	2.144267	0.000000	-0.013993	0.000000	-0.000001	-0.000001	0.000000	0.000000
52.165015	11.350545	25.615339	-0.412749	0.427082	2.151686	0.000000	0.047671	0.000000	-0.000001	-0.000001	0.000000	0.000000
52.605975	11.867091	24.959120	-0.763109	1.055413	2.186389	0.000000	0.109878	0.000000	-0.000001	-0.000001	0.000000	0.000000
53.046935	12.706775	23.767903	-1.148333	1.635724	2.248773	0.000000	0.173336	0.000000	-0.000002	-0.000001	0.000000	0.000000
53.487895	13.907958	22.095887	-1.586021	2.141611	2.339548	0.000000	0.238768	0.000000	-0.000002	-0.000001	0.000000	0.000000
53.933855	15.546110	19.994147	-2.100403	2.551392	2.461251	0.000000	0.307318	0.000000	-0.000002	-0.000001	0.000000	0.000000
54.482915	17.655162	17.629186	-1.718065	1.781323	2.609808	0.000000	0.233015	0.000000	-0.000003	-0.000001	0.000000	0.000000
55.031975	19.274833	16.035635	-1.214371	1.138135	2.716371	0.000000	0.154578	0.000000	-0.000003	-0.000001	0.000000	0.000000
55.581035	20.290717	15.099988	-0.624901	0.576013	2.779050	0.000000	0.073399	0.000000	-0.000003	-0.000001	0.000000	0.000000
56.130095	20.631058	14.755602	0.008709	0.054919	2.796734	0.000000	-0.009082	0.000000	-0.000004	-0.000000	0.000000	0.000000
56.428668	20.662377	14.705879	-0.059699	0.073062	2.796204	0.000000	-0.001774	0.000000	-0.000004	-0.000000	0.000000	0.000000
56.762001	20.707573	14.664766	-0.075889	0.050275	2.795613	0.000000	-0.001774	0.000000	-0.000004	-0.000000	0.000000	0.000000
57.095334	20.763562	14.638846	-0.092079	0.027487	2.795022	0.000000	-0.001774	0.000000	-0.000004	-0.000000	0.000000	0.000000
57.429918	20.830616	14.628106	-0.108329	0.004614	2.794429	0.000000	-0.001774	0.000000	-0.000004	-0.000000	0.000000	0.000000
57.727240	20.899327	14.631405	-0.177378	0.022518	2.793901	0.000000	0.005526	0.000000	-0.000005	-0.000000	0.000000	0.000000
58.276300	20.737544	14.887661	0.470289	-0.491991	2.774297	0.000000	-0.076831	0.000000	-0.000005	-0.000000	0.000000	0.000000
58.825360	19.878657	15.724723	1.084737	-1.041544	2.709782	0.000000	-0.157826	0.000000	-0.000005	-0.000000	0.000000	0.000000
59.374420	18.383335	17.202213	1.622564	-1.665284	2.601499	0.000000	-0.236022	0.000000	-0.000005	-0.000000	0.000000	0.000000
59.923480	16.357199	19.425370	2.045782	-2.407639	2.451370	0.000000	-0.310031	0.000000	-0.000005	0.000000	0.000000	0.000000
60.369440	14.771331	21.401356	1.522889	-2.004518	2.328398	0.000000	-0.241753	0.000000	-0.000005	0.000000	0.000000	0.000000
60.810400	13.630632	22.957730	1.073778	-1.511565	2.236241	0.000000	-0.176626	0.000000	-0.000005	-0.000000	0.000000	0.000000
61.251360	12.862965	24.047256	0.673726	-0.949838	2.172333	0.000000	-0.113511	0.000000	-0.000005	-0.000000	0.000000	0.000000
61.692320	12.433257	24.620362	0.304454	-0.344894	2.135944	0.000000	-0.051688	0.000000	-0.000005	-0.000000	0.000000	0.000000
62.134530	12.321929	24.650434	-0.020792	0.215235	2.126667	0.000000	0.004330	0.000000	-0.000005	-0.000001	0.000000	0.000000
62.431853	12.341470	24.526198	-0.044932	0.202615	2.127955	0.000000	0.004330	0.000000	-0.000006	-0.000001	0.000000	0.000000
62.765186	12.380446	24.395838	-0.071996	0.188466	2.129398	0.000000	0.004330	0.000000	-0.000006	-0.000001	0.000000	0.000000
63.098520	12.437464	24.274910	-0.099059	0.174317	2.130842	0.000000	0.004330	0.000000	-0.000006	-0.000001	0.000000	0.000000
63.433103	12.512840	24.163015	-0.126225	0.160115	2.132291	0.000000	0.004330	0.000000	-0.000006	-0.000001	0.000000	0.000000
63.730426	12.595077	24.071555	-0.119476	0.088461	2.133578	0.000000	-0.000903	0.000000	-0.000006	-0.000000	0.000000	0.000000
64.171386	12.860822	23.728434	-0.485462	0.686702	2.146719	0.000000	0.060559	0.000000	-0.000006	-0.000001	0.000000	0.000000
64.612346	13.457860	22.869526	-0.873627	1.253700	2.187088	0.000000	0.122711	0.000000	-0.000007	-0.000001	0.000000	0.000000
65.053306	14.413470	21.533911	-1.301706	1.763655	2.255146	0.000000	0.186260	0.000000	-0.000007	-0.000001	0.000000	0.000000
65.494266	15.771308	19.782359	-1.789256	2.193365	2.351667	0.000000	0.251931	0.000000	-0.000008	-0.000001	0.000000	0.000000
65.940226	17.616575	17.669775	-2.363244	2.524033	2.479322	0.000000	0.320873	0.000000	-0.000008	-0.000001	0.000000	0.000000
66.489286	19.981985	15.306422	-1.919364	1.805736	2.635139	0.000000	0.245866	0.000000	-0.000009	-0.000001	0.000000	0.000000
67.038346	21.782178	13.657012	-1.339909	1.216058	2.748513	0.000000	0.166498	0.000000	-0.000009	-0.000001	0.000000	0.000000
67.587406	22.889996	12.604061	-0.665811	0.712996	2.817432	0.000000	0.084177	0.000000	-0.000010	-0.000001	0.000000	0.000000
68.136466	23.227189	12.072570	0.055317	0.260720	2.840675	0.000000	0.000362	0.000000	-0.000010	-0.000000	0.000000	0.000000
68.435038	23.234238	11.906060	-0.018231	0.265422	2.842999	0.000000	0.007785	0.000000	-0.000010	-0.000000	0.000000	0.000000
68.768372	23.251176	11.739102	-0.032582	0.235452	2.845594	0.000000	0.007785	0.000000	-0.000010	-0.000000	0.000000	0.000000
69.101705	23.277681	11.592123	-0.046934	0.205483	2.848189	0.000000	0.007785	0.000000	-0.000010	-0.000000	0.000000	0.000000
69.436288	23.313907	11.464686	-0.061339	0.175401	2.850794	0.000000	0.007785	0.000000	-0.000010	-0.000000	0.000000	0.000000
69.733611	23.354188	11.368332	-0.135165	0.178376	2.853109	0.000000	0.015240	0.000000	-0.000010	-0.000000	0.000000	0.000000
70.282671	23.101524	11.400095	0.592617	-0.236566	2.838297	0.000000	-0.069113	0.000000	-0.000010	0.000000	0.000000	0.000000
