#ParticleID	Turn	x[m]	xp	y[m]	yp	z[m]	dE[GeV]# s	beta_x	beta_y	alpha_x	alpha_y	D_x	D_y	D_px	D_py	orbit_x	orbit_px	orbit_y	orbit_py
0.300000	11.822767	24.982219	-0.012100	-0.027601	2.618098	0.000000	0.000018	0.000000	-0.000000	0.000001	0.000000	0.000000
0.601250	11.837734	25.002484	-0.037584	-0.039669	2.618104	0.000000	0.000018	0.000000	0.000000	0.000001	0.000000	0.000000
0.898573	11.867561	25.029614	-0.033633	-0.112959	2.618109	0.000000	-0.006403	0.000000	0.000000	0.000001	0.000000	0.000000
1.339533	12.049462	24.851608	-0.380444	0.515100	2.631578	0.000000	0.067555	0.000000	0.000000	0.000001	0.000000	0.000000
1.780493	12.543703	24.127964	-0.744636	1.119722	2.677799	0.000000	0.142281	0.000000	0.000001	0.000001	0.000000	0.000000
2.221453	13.372862	22.891605	-1.142848	1.673397	2.757296	0.000000	0.218628	0.000000	0.000001	0.000001	0.000000	0.000000
2.662413	14.574822	21.198786	-1.593274	2.150935	2.870976	0.000000	0.297465	0.000000	0.000001	0.000001	0.000000	0.000000
3.108373	16.225274	19.101701	-2.120787	2.531737	3.021995	0.000000	0.380180	0.000000	0.000002	0.000001	0.000000	0.000000
3.657433	18.341676	16.746422	-1.710986	1.783240	3.205464	0.000000	0.287142	0.000000	0.000002	0.000001	0.000000	0.000000
4.206493	19.938636	15.138929	-1.180330	1.161759	3.336375	0.000000	0.189011	0.000000	0.000002	0.000001	0.000000	0.000000
4.755553	20.903353	14.164725	-0.566302	0.623027	3.412404	0.000000	0.087527	0.000000	0.000003	0.000001	0.000000	0.000000
5.304613	21.167684	13.754419	0.087727	0.128673	3.432204	0.000000	-0.015509	0.000000	0.000003	0.000000	0.000000	0.000000
5.603185	21.152539	13.662780	0.018301	0.142314	3.430251	0.000000	-0.006542	0.000000	0.000003	0.000000	0.000000	0.000000
5.936519	21.145593	13.576201	0.002538	0.117423	3.428070	0.000000	-0.006542	0.000000	0.000003	0.000000	0.000000	0.000000
6.269852	21.149156	13.506216	-0.013226	0.092531	3.425889	0.000000	-0.006542	0.000000	0.000003	0.000000	0.000000	0.000000
6.604435	21.163300	13.452657	-0.029049	0.067547	3.423700	0.000000	-0.006542	0.000000	0.000004	0.000000	0.000000	0.000000
6.901758	21.184755	13.419092	-0.098460	0.080405	3.421755	0.000000	0.002398	0.000000	0.000004	0.000000	0.000000	0.000000
7.450818	20.931786	13.591450	0.556464	-0.396172	3.394870	0.000000	-0.100185	0.000000	0.000004	0.000000	0.000000	0.000000
7.999878	19.977060	14.299479	1.172082	-0.900968	3.312066	0.000000	-0.200991	0.000000	0.000004	0.000000	0.000000	0.000000
8.548938	18.388012	15.593610	1.704909	-1.469938	3.174812	0.000000	-0.298232	0.000000	0.000004	0.000000	0.000000	0.000000
9.097998	16.276887	17.566021	2.117311	-2.143609	2.985543	0.000000	-0.390183	0.000000	0.000004	-0.000000	0.000000	0.000000
9.543958	14.629762	19.323573	1.589257	-1.780787	2.829845	0.000000	-0.308474	0.000000	0.000004	0.000000	0.000000	0.000000
9.984918	13.431650	20.704163	1.138104	-1.338172	2.711067	0.000000	-0.230763	0.000000	0.000004	0.000000	0.000000	0.000000
10.425878	12.607074	21.665961	0.738948	-0.834672	2.625944	0.000000	-0.155681	0.000000	0.000004	0.000000	0.000000	0.000000
10.866838	12.118360	22.165204	0.373553	-0.293194	2.573509	0.000000	-0.082371	0.000000	0.000004	0.000000	0.000000	0.000000
11.309048	11.943044	22.178661	0.054406	0.207177	2.553142	0.000000	-0.016260	0.000000	0.000005	0.000000	0.000000	0.000000
11.606371	11.918116	22.059621	0.029437	0.193196	2.548307	0.000000	-0.016260	0.000000	0.000005	0.000000	0.000000	0.000000
12.086371	11.909205	21.884988	-0.010873	0.170624	2.540502	0.000000	-0.016260	0.000000	0.000005	0.000000	0.000000	0.000000
12.566371	11.938992	21.732023	-0.051183	0.148053	2.532697	0.000000	-0.016260	0.000000	0.000005	0.000000	0.000000	0.000000
13.046371	12.007476	21.600726	-0.091492	0.125481	2.524892	0.000000	-0.016260	0.000000	0.000005	0.000000	0.000000	0.000000
13.526371	12.114657	21.491098	-0.131802	0.102910	2.517087	0.000000	-0.016260	0.000000	0.000006	0.000000	0.000000	0.000000
14.007621	12.260966	21.402938	-0.172217	0.080280	2.509261	0.000000	-0.016260	0.000000	0.000006	0.000000	0.000000	0.000000
14.304943	12.370798	21.359357	-0.166850	0.013922	2.504427	0.000000	-0.022401	0.000000	0.000006	0.000000	0.000000	0.000000
14.745903	12.676578	21.113284	-0.529223	0.541993	2.510181	0.000000	0.048526	0.000000	0.000006	0.000001	0.000000	0.000000
15.186863	13.311356	20.410631	-0.915774	1.045404	2.547303	0.000000	0.120005	0.000000	0.000006	0.000001	0.000000	0.000000
15.627823	14.304133	19.283369	-1.344165	1.501250	2.616216	0.000000	0.192852	0.000000	0.000007	0.000001	0.000000	0.000000
16.068783	15.700266	17.782787	-1.833967	1.888790	2.717704	0.000000	0.267895	0.000000	0.000007	0.000001	0.000000	0.000000
16.514743	17.587194	15.955657	-2.412315	2.191139	2.854619	0.000000	0.346451	0.000000	0.000008	0.000001	0.000000	0.000000
17.063803	20.010554	13.915422	-1.975209	1.546663	3.021109	0.000000	0.259111	0.000000	0.000008	0.000001	0.000000	0.000000
17.612863	21.874000	12.518614	-1.398584	1.012352	3.138309	0.000000	0.167176	0.000000	0.000009	0.000001	0.000000	0.000000
18.161923	23.045908	11.665741	-0.723171	0.550150	3.204142	0.000000	0.072274	0.000000	0.000009	0.000000	0.000000	0.000000
18.710983	23.443501	11.296054	0.003324	0.127133	3.217439	0.000000	-0.023909	0.000000	0.000009	0.000000	0.000000	0.000000
19.009556	23.481906	11.210600	-0.070703	0.129565	3.212811	0.000000	-0.015503	0.000000	0.000010	0.000000	0.000000	0.000000
19.342889	23.533796	11.134301	-0.084969	0.099332	3.207643	0.000000	-0.015503	0.000000	0.000010	0.000000	0.000000	0.000000
19.676223	23.595198	11.078157	-0.099236	0.069099	3.202475	0.000000	-0.015503	0.000000	0.000010	0.000000	0.000000	0.000000
20.010806	23.666688	11.041935	-0.230813	0.093461	3.197308	0.000000	0.000339	0.000000	0.000010	0.000000	0.000000	0.000000
20.308129	23.807874	10.994435	-0.306246	0.095023	3.197409	0.000000	0.008692	0.000000	0.000010	0.000000	0.000000	0.000000
20.857189	23.733548	11.112461	0.440814	-0.311252	3.175959	0.000000	-0.086710	0.000000	0.000010	-0.000000	0.000000	0.000000
21.406249	22.851174	11.686110	1.156737	-0.739698	3.102474	0.000000	-0.180574	0.000000	0.000010	-0.000000	0.000000	0.000000
21.955309	21.223077	12.756241	1.790954	-1.220831	2.978256	0.000000	-0.271235	0.000000	0.000009	-0.000001	0.000000	0.000000
22.504369	18.964258	14.399078	2.298666	-1.788921	2.805510	0.000000	-0.357085	0.000000	0.000009	-0.000001	0.000000	0.000000
22.950329	17.184180	15.873955	1.706986	-1.504321	2.663559	0.000000	-0.279868	0.000000	0.000009	-0.000001	0.000000	0.000000
23.391289	15.908043	17.049819	1.197991	-1.152132	2.556473	0.000000	-0.206293	0.000000	0.000008	-0.000001	0.000000	0.000000
23.832249	15.055059	17.890691	0.743727	-0.747522	2.481282	0.000000	-0.135067	0.000000	0.000008	-0.000000	0.000000	0.000000
24.273209	14.586257	18.358311	0.323443	-0.308901	2.437129	0.000000	-0.065380	0.000000	0.000008	-0.000000	0.000000	0.000000
24.715418	14.480338	18.431156	-0.046643	0.098511	2.423509	0.000000	-0.002380	0.000000	0.000008	0.000000	0.000000	0.000000
25.012741	14.514192	18.377420	-0.067221	0.082223	2.422802	0.000000	-0.002380	0.000000	0.000008	0.000000	0.000000	0.000000
25.346075	14.566696	18.328691	-0.090291	0.063962	2.422008	0.000000	-0.002380	0.000000	0.000008	0.000000	0.000000	0.000000
25.679408	14.634579	18.292137	-0.113360	0.045701	2.421215	0.000000	-0.002380	0.000000	0.000008	0.000000	0.000000	0.000000
26.013991	14.717886	18.268058	-0.017116	-0.120827	2.420394	0.000000	-0.022016	0.000000	0.000008	0.000000	0.000000	0.000000
26.311314	14.734071	18.344817	-0.001193	-0.182324	2.413848	0.000000	-0.027935	0.000000	0.000008	-0.000000	0.000000	0.000000
26.752274	14.916668	18.306632	-0.414467	0.268590	2.416641	0.000000	0.040618	0.000000	0.000008	0.000000	0.000000	0.000000
27.193234	15.470681	17.874667	-0.846677	0.707284	2.449738	0.000000	0.109635	0.000000	0.000008	0.000000	0.000000	0.000000
27.634194	16.421420	17.068576	-1.317569	1.113796	2.513513	0.000000	0.179900	0.000000	0.000009	0.000001	0.000000	0.000000
28.075154	17.812323	15.925036	-1.848657	1.469632	2.608695	0.000000	0.252214	0.000000	0.000009	0.000001	0.000000	0.000000
28.521114	19.731103	14.478853	-2.469166	1.759513	2.737970	0.000000	0.327844	0.000000	0.000009	0.000001	0.000000	0.000000
29.070174	22.169886	12.867439	-1.946281	1.192671	2.895308	0.000000	0.244432	0.000000	0.000010	0.000001	0.000000	0.000000
29.619234	23.955128	11.828463	-1.285921	0.710779	3.005588	0.000000	0.156684	0.000000	0.000010	0.000000	0.000000	0.000000
30.168294	24.960727	11.287923	-0.534729	0.279515	3.066855	0.000000	0.066157	0.000000	0.000010	0.000000	0.000000	0.000000
30.717354	25.115653	11.207317	0.254233	-0.131840	3.078021	0.000000	-0.025543	0.000000	0.000010	-0.000000	0.000000	0.000000
31.015927	25.006698	11.276598	0.176305	-0.129481	3.072796	0.000000	-0.017501	0.000000	0.000010	-0.000000	0.000000	0.000000
31.349260	24.893742	11.372937	0.162561	-0.159537	3.066962	0.000000	-0.017501	0.000000	0.000010	-0.000000	0.000000	0.000000
31.682593	24.789950	11.489313	0.148817	-0.189592	3.061129	0.000000	-0.017501	0.000000	0.000010	-0.000000	0.000000	0.000000
32.017177	24.694982	11.626275	0.135021	-0.219760	3.055273	0.000000	-0.017501	0.000000	0.000010	-0.000000	0.000000	0.000000
32.314499	24.618337	11.764925	0.058444	-0.215831	3.050070	0.000000	-0.009533	0.000000	0.000010	-0.000000	0.000000	0.000000
32.863559	24.132402	12.241212	0.821348	-0.656748	3.019950	0.000000	-0.100020	0.000000	0.000010	-0.000000	0.000000	0.000000
33.412619	22.835761	13.224371	1.526236	-1.144443	2.940562	0.000000	-0.188734	0.000000	0.000009	-0.000001	0.000000	0.000000
33.961679	20.820004	14.784430	2.123318	-1.713655	2.813313	0.000000	-0.274099	0.000000	0.000009	-0.000001	0.000000	0.000000
34.510739	18.227513	17.032508	2.570420	-2.404926	2.640462	0.000000	-0.354604	0.000000	0.000008	-0.000001	0.000000	0.000000
34.956699	16.211810	19.043295	1.965691	-2.085143	2.498667	0.000000	-0.281666	0.000000	0.000008	-0.000001	0.000000	0.000000
35.397659	14.708781	20.706036	1.455777	-1.671236	2.389847	0.000000	-0.212364	0.000000	0.000007	-0.000001	0.000000	0.000000
35.838619	13.624538	21.968690	1.012374	-1.181288	2.311025	0.000000	-0.145481	0.000000	0.000007	-0.000001	0.000000	0.000000
36.279579	12.909545	22.773807	0.615223	-0.637593	2.261302	0.000000	-0.080255	0.000000	0.000007	-0.000001	0.000000	0.000000
36.721789	12.530444	23.085060	0.276801	-0.121550	2.240086	0.000000	-0.021436	0.000000	0.000006	-0.000000	0.000000	0.000000
37.019112	12.373441	23.161225	0.251255	-0.134619	2.233713	0.000000	-0.021436	0.000000	0.000006	-0.000000	0.000000	0.000000
37.352445	12.215485	23.255855	0.222615	-0.149272	2.226568	0.000000	-0.021436	0.000000	0.000006	-0.000000	0.000000	0.000000
37.685779	12.076622	23.360254	0.193975	-0.163925	2.219423	0.000000	-0.021436	0.000000	0.000006	-0.000000	0.000000	0.000000
38.020362	11.956439	23.474868	0.165227	-0.178632	2.212251	0.000000	-0.021436	0.000000	0.000006	-0.000000	0.000000	0.000000
38.317684	11.865783	23.584977	0.168778	-0.249536	2.205878	0.000000	-0.026845	0.000000	0.000006	-0.000000	0.000000	0.000000
38.758644	11.868249	23.543826	-0.174393	0.342503	2.207969	0.000000	0.036338	0.000000	0.000005	-0.000000	0.000000	0.000000
39.199604	12.175721	22.985447	-0.525531	0.918958	2.237987	0.000000	0.099936	0.000000	0.000005	-0.000000	0.000000	0.000000
39.640564	12.802245	21.935246	-0.900679	1.453602	2.296272	0.000000	0.164671	0.000000	0.000005	-0.000000	0.000000	0.000000
40.081524	13.776447	20.441007	-1.316976	1.922108	2.383488	0.000000	0.231282	0.000000	0.000005	0.000000	0.000000	0.000000
40.527484	15.160403	18.548148	-1.797268	2.304440	2.502102	0.000000	0.300932	0.000000	0.000005	0.000000	0.000000	0.000000
41.076544	16.926618	16.421104	-1.400487	1.592400	2.646800	0.000000	0.225367	0.000000	0.000005	0.000000	0.000000	0.000000
41.625604	18.199888	15.009468	-0.904783	0.993783	2.748848	0.000000	0.145805	0.000000	0.000005	-0.000000	0.000000	0.000000
42.174664	18.890274	14.212690	-0.345170	0.465950	2.806437	0.000000	0.063657	0.000000	0.000005	-0.000000	0.000000	0.000000
42.723724	18.949012	13.974018	0.238824	-0.028693	2.818544	0.000000	-0.019621	0.000000	0.000005	-0.000000	0.000000	0.000000
43.022297	18.840835	13.975730	0.172995	-0.013551	2.814884	0.000000	-0.012257	0.000000	0.000005	-0.000000	0.000000	0.000000
43.502297	18.687355	14.005227	0.146756	-0.047902	2.809001	0.000000	-0.012257	0.000000	0.000005	-0.000000	0.000000	0.000000
43.982297	18.559064	14.067702	0.120517	-0.082254	2.803118	0.000000	-0.012257	0.000000	0.000004	-0.000000	0.000000	0.000000
44.462297	18.455963	14.163154	0.094278	-0.116605	2.797235	0.000000	-0.012257	0.000000	0.000004	-0.000000	0.000000	0.000000
44.942297	18.378051	14.291584	0.068039	-0.150957	2.791351	0.000000	-0.012257	0.000000	0.000004	-0.000000	0.000000	0.000000
45.423547	18.325451	14.453276	-0.049063	-0.113787	2.785470	0.000000	0.001544	0.000000	0.000004	-0.000000	0.000000	0.000000
45.720870	18.359461	14.527134	-0.113295	-0.096670	2.785929	0.000000	0.008823	0.000000	0.000004	-0.000000	0.000000	0.000000
46.269930	18.174731	14.914299	0.447752	-0.612633	2.768200	0.000000	-0.073307	0.000000	0.000003	-0.000001	0.000000	0.000000
46.818990	17.387704	15.888547	0.977171	-1.172233	2.705669	0.000000	-0.154137	0.000000	0.000003	-0.000001	0.000000	0.000000
47.368050	16.053971	17.519272	1.437569	-1.815329	2.599443	0.000000	-0.232232	0.000000	0.000003	-0.000001	0.000000	0.000000
47.917110	14.267742	19.922627	1.796423	-2.587726	2.451407	0.000000	-0.306209	0.000000	0.000002	-0.000001	0.000000	0.000000
48.363070	12.877641	22.059474	1.331718	-2.183697	2.330143	0.000000	-0.237908	0.000000	0.000002	-0.000001	0.000000	0.000000
48.804030	11.883369	23.770418	0.931625	-1.681582	2.239696	0.000000	-0.172714	0.000000	0.000002	-0.000001	0.000000	0.000000
49.244990	11.221916	25.002979	0.574094	-1.102957	2.177535	0.000000	-0.109487	0.000000	0.000001	-0.000001	0.000000	0.000000
49.685950	10.863063	25.701076	0.242792	-0.474148	2.142955	0.000000	-0.047507	0.000000	0.000001	-0.000001	0.000000	0.000000
50.128160	10.790543	25.832664	-0.051072	0.112836	2.135570	0.000000	0.008695	0.000000	0.000001	-0.000001	0.000000	0.000000
50.425482	10.829127	25.769032	-0.078698	0.101180	2.138156	0.000000	0.008695	0.000000	0.000000	-0.000001	0.000000	0.000000
50.758816	10.891916	25.705935	-0.109670	0.088112	2.141054	0.000000	0.008695	0.000000	0.000000	-0.000001	0.000000	0.000000
51.092149	10.975353	25.651549	-0.140642	0.075044	2.143953	0.000000	0.008695	0.000000	0.000000	-0.000001	0.000000	0.000000
51.426732	11.079643	25.606240	-0.081845	-0.145803	2.146840	0.000000	-0.008721	0.000000	-0.000000	-0.000001	0.000000	0.000000
51.724055	11.136344	25.696467	-0.081550	-0.220677	2.144247	0.000000	-0.013980	0.000000	-0.000000	-0.000001	0.000000	0.000000
52.165015	11.353651	25.605221	-0.413124	0.426816	2.151672	0.000000	0.047683	0.000000	-0.000001	-0.000001	0.000000	0.000000
52.605975	11.870566	24.949353	-0.763573	1.054889	2.186381	0.000000	0.109890	0.000000	-0.000001	-0.000001	0.000000	0.000000
53.046935	12.710706	23.758703	-1.148908	1.634966	2.248770	0.000000	0.173348	0.000000	-0.000001	-0.000001	0.000000	0.000000
53.487895	13.912455	22.087447	-1.586732	2.140653	2.339549	0.000000	0.238780	0.000000	-0.000002	-0.000001	0.000000	0.000000
53.933855	15.551315	19.986635	-2.101284	2.550277	2.461258	0.000000	0.307330	0.000000	-0.000002	-0.000001	0.000000	0.000000
54.482915	17.661268	17.622735	-1.718815	1.780494	2.609822	0.000000	0.233026	0.000000	-0.000002	-0.000001	0.000000	0.000000
55.031975	19.281665	16.029966	-1.214937	1.137531	2.716391	0.000000	0.154589	0.000000	-0.000003	-0.000001	0.000000	0.000000
55.581035	20.298050	15.094878	-0.625242	0.575592	2.779076	0.000000	0.073410	0.000000	-0.000003	-0.000001	0.000000	0.000000
56.130095	20.638631	14.750868	0.008617	0.054651	2.796765	0.000000	-0.009072	0.000000	-0.000003	-0.000000	0.000000	0.000000
56.428668	20.670015	14.701314	-0.059806	0.072776	2.796238	0.000000	-0.001764	0.000000	-0.000003	-0.000000	0.000000	0.000000
56.762001	20.715281	14.660394	-0.075990	0.049983	2.795650	0.000000	-0.001764	0.000000	-0.000004	-0.000000	0.000000	0.000000
57.095334	20.771335	14.634670	-0.092174	0.027189	2.795062	0.000000	-0.001764	0.000000	-0.000004	-0.000000	0.000000	0.000000
57.429918	20.838450	14.624132	-0.108419	0.004310	2.794472	0.000000	-0.001764	0.000000	-0.000004	-0.000000	0.000000	0.000000
57.727240	20.907213	14.627614	-0.177483	0.022199	2.793947	0.000000	0.005536	0.000000	-0.000004	-0.000000	0.000000	0.000000
58.276300	20.745400	14.884163	0.470449	-0.492208	2.774348	0.000000	-0.076823	0.000000	-0.000004	-0.000000	0.000000	0.000000
58.825360	19.886196	15.721414	1.085150	-1.041674	2.709837	0.000000	-0.157820	0.000000	-0.000004	-0.000000	0.000000	0.000000
59.374420	18.390293	17.199002	1.623203	-1.665335	2.601557	0.000000	-0.236017	0.000000	-0.000004	-0.000000	0.000000	0.000000
59.923480	16.363353	19.422173	2.046600	-2.407615	2.451430	0.000000	-0.310028	0.000000	-0.000004	0.000000	0.000000	0.000000
60.369440	14.776838	21.398185	1.523526	-2.004600	2.328459	0.000000	-0.241749	0.000000	-0.000004	-0.000000	0.000000	0.000000
60.810400	13.635645	22.954677	1.074266	-1.511749	2.236305	0.000000	-0.176621	0.000000	-0.000004	-0.000000	0.000000	0.000000
61.251360	12.867606	24.044408	0.674085	-0.950115	2.172399	0.000000	-0.113504	0.000000	-0.000004	-0.000000	0.000000	0.000000
61.692320	12.437631	24.617795	0.304702	-0.345252	2.136015	0.000000	-0.051679	0.000000	-0.000005	-0.000000	0.000000	0.000000
62.134530	12.326127	24.648212	-0.020633	0.214819	2.126742	0.000000	0.004341	0.000000	-0.000005	-0.000000	0.000000	0.000000
62.431853	12.345571	24.524223	-0.044764	0.202200	2.128033	0.000000	0.004341	0.000000	-0.000005	-0.000000	0.000000	0.000000
62.765186	12.384431	24.394139	-0.071819	0.188052	2.129480	0.000000	0.004341	0.000000	-0.000005	-0.000000	0.000000	0.000000
63.098520	12.441329	24.273487	-0.098873	0.173904	2.130927	0.000000	0.004341	0.000000	-0.000005	-0.000000	0.000000	0.000000
63.433103	12.516577	24.161868	-0.126029	0.159703	2.132379	0.000000	0.004341	0.000000	-0.000005	-0.000000	0.000000	0.000000
63.730426	12.598694	24.070653	-0.119263	0.088053	2.133670	0.000000	-0.000892	0.000000	-0.000006	-0.000000	0.000000	0.000000
64.171386	12.864286	23.727899	-0.485326	0.686281	2.146816	0.000000	0.060573	0.000000	-0.000006	-0.000001	0.000000	0.000000
64.612346	13.461236	22.869361	-0.873562	1.253284	2.187192	0.000000	0.122727	0.000000	-0.000006	-0.000001	0.000000	0.000000
65.053306	14.416818	21.534103	-1.301709	1.763264	2.255257	0.000000	0.186279	0.000000	-0.000006	-0.000001	0.000000	0.000000
65.494266	15.774690	19.782878	-1.789327	2.193017	2.351787	0.000000	0.251952	0.000000	-0.000007	-0.000001	0.000000	0.000000
65.940226	17.620052	17.670579	-2.363386	2.523744	2.479453	0.000000	0.320897	0.000000	-0.000007	-0.000001	0.000000	0.000000
66.489286	19.985545	15.307530	-1.919371	1.805467	2.635282	0.000000	0.245886	0.000000	-0.000008	-0.000001	0.000000	0.000000
67.038346	21.785670	13.658414	-1.339781	1.215789	2.748665	0.000000	0.166513	0.000000	-0.000009	-0.000001	0.000000	0.000000
67.587406	22.893276	12.605766	-0.665555	0.712709	2.817592	0.000000	0.084187	0.000000	-0.000009	-0.000000	0.000000	0.000000
68.136466	23.230128	12.074609	0.055682	0.260394	2.840839	0.000000	0.000368	0.000000	-0.000009	-0.000000	0.000000	0.000000
68.435038	23.236962	11.908288	-0.017872	0.265110	2.843165	0.000000	0.007791	0.000000	-0.000009	-0.000000	0.000000	0.000000
68.768372	23.253660	11.741534	-0.032222	0.235151	2.845762	0.000000	0.007791	0.000000	-0.000009	-0.000000	0.000000	0.000000
69.101705	23.279924	11.594753	-0.046571	0.205192	2.848359	0.000000	0.007791	0.000000	-0.000009	-0.000000	0.000000	0.000000
69.436288	23.315907	11.467507	-0.060975	0.175121	2.850966	0.000000	0.007791	0.000000	-0.000009	-0.000000	0.000000	0.000000
69.733611	23.355971	11.371317	-0.134804	0.178112	2.853282	0.000000	0.015246	0.000000	-0.000009	-0.000000	0.000000	0.000000
70.282671	23.102881	11.403416	0.593027	-0.236919	2.838472	0.000000	-0.069113	0.000000	-0.000009	0.000000	0.000000	0.000000
