#ParticleID	Turn	x[m]	xp	y[m]	yp	z[m]	dE[GeV]# s	beta_x	beta_y	alpha_x	alpha_y	D_x	D_y	D_px	D_py	orbit_x	orbit_px	orbit_y	orbit_py
0.300000	11.829185	24.957545	-0.012981	-0.027733	2.618224	0.000000	-0.000030	0.000000	0.000000	0.000000	0.000000	0.000000
0.601250	11.844679	24.977894	-0.038452	-0.039813	2.618215	0.000000	-0.000030	0.000000	0.000000	0.000000	0.000000	0.000000
0.898573	11.875019	25.005113	-0.034470	-0.113055	2.618206	0.000000	-0.006451	0.000000	0.000000	0.000000	0.000000	0.000000
1.339533	12.057740	24.827478	-0.381472	0.514359	2.631655	0.000000	0.067508	0.000000	0.000000	0.000000	0.000000	0.000000
1.780493	12.552989	24.104760	-0.745903	1.118369	2.677855	0.000000	0.142237	0.000000	0.000000	0.000000	0.000000	0.000000
2.221453	13.383392	22.869842	-1.144412	1.671495	2.757334	0.000000	0.218585	0.000000	0.000001	0.000000	0.000000	0.000000
2.662413	14.586888	21.178913	-1.595206	2.148569	2.870995	0.000000	0.297423	0.000000	0.000001	0.000000	0.000000	0.000000
3.108373	16.239261	19.084106	-2.123178	2.529015	3.021995	0.000000	0.380138	0.000000	0.000001	0.000000	0.000000	0.000000
3.657433	18.358111	16.731428	-1.713027	1.781197	3.205441	0.000000	0.287100	0.000000	0.000001	0.000000	0.000000	0.000000
4.206493	19.957052	15.125875	-1.181877	1.160250	3.336329	0.000000	0.188970	0.000000	0.000001	0.000000	0.000000	0.000000
4.755553	20.923143	14.153085	-0.567244	0.621945	3.412337	0.000000	0.087488	0.000000	0.000001	0.000000	0.000000	0.000000
5.304613	21.188144	13.743770	0.087456	0.127939	3.432116	0.000000	-0.015546	0.000000	0.000001	0.000000	0.000000	0.000000
5.603185	21.173190	13.652589	0.017990	0.141541	3.430152	0.000000	-0.006579	0.000000	0.000001	0.000000	0.000000	0.000000
5.936519	21.166446	13.566529	0.002242	0.116637	3.427959	0.000000	-0.006579	0.000000	0.000001	0.000000	0.000000	0.000000
6.269852	21.170201	13.497073	-0.013507	0.091732	3.425766	0.000000	-0.006579	0.000000	0.000002	0.000000	0.000000	0.000000
6.604435	21.184528	13.444053	-0.029314	0.066734	3.423565	0.000000	-0.006579	0.000000	0.000002	0.000000	0.000000	0.000000
6.901758	21.206136	13.410974	-0.098768	0.079560	3.421609	0.000000	0.002361	0.000000	0.000002	0.000000	0.000000	0.000000
7.450818	20.953110	13.584137	0.556875	-0.396802	3.394705	0.000000	-0.100217	0.000000	0.000002	0.000000	0.000000	0.000000
7.999878	19.997548	14.292760	1.173183	-0.901428	3.311886	0.000000	-0.201017	0.000000	0.000002	0.000000	0.000000	0.000000
8.548938	18.406947	15.587317	1.706623	-1.470260	3.174619	0.000000	-0.298252	0.000000	0.000002	0.000000	0.000000	0.000000
9.097998	16.293658	17.560017	2.119515	-2.143816	2.985341	0.000000	-0.390196	0.000000	0.000002	-0.000000	0.000000	0.000000
9.543958	14.644791	19.317853	1.590972	-1.781215	2.829635	0.000000	-0.308493	0.000000	0.000002	-0.000000	0.000000	0.000000
9.984918	13.445352	20.698911	1.139412	-1.338800	2.710847	0.000000	-0.230788	0.000000	0.000002	0.000000	0.000000	0.000000
10.425878	12.619779	21.661339	0.739908	-0.835471	2.625713	0.000000	-0.155711	0.000000	0.000002	0.000000	0.000000	0.000000
10.866838	12.130354	22.161350	0.374209	-0.294128	2.573263	0.000000	-0.082407	0.000000	0.000002	0.000000	0.000000	0.000000
11.309048	11.954580	22.175677	0.054818	0.206157	2.552878	0.000000	-0.016303	0.000000	0.000002	0.000000	0.000000	0.000000
11.606371	11.929400	22.057243	0.029872	0.192179	2.548031	0.000000	-0.016303	0.000000	0.000002	0.000000	0.000000	0.000000
12.086371	11.920053	21.883582	-0.010400	0.169614	2.540205	0.000000	-0.016303	0.000000	0.000002	0.000000	0.000000	0.000000
12.566371	11.949368	21.731584	-0.050673	0.147049	2.532380	0.000000	-0.016303	0.000000	0.000002	0.000000	0.000000	0.000000
13.046371	12.017345	21.601249	-0.090946	0.124483	2.524555	0.000000	-0.016303	0.000000	0.000002	0.000000	0.000000	0.000000
13.526371	12.123984	21.492576	-0.131218	0.101918	2.516729	0.000000	-0.016303	0.000000	0.000002	0.000000	0.000000	0.000000
14.007621	12.269713	21.405368	-0.171596	0.079294	2.508883	0.000000	-0.016303	0.000000	0.000002	0.000000	0.000000	0.000000
14.304943	12.379168	21.362372	-0.166185	0.012931	2.504036	0.000000	-0.022443	0.000000	0.000002	0.000000	0.000000	0.000000
14.745903	12.684439	21.117131	-0.528727	0.541105	2.509770	0.000000	0.048473	0.000000	0.000002	0.000000	0.000000	0.000000
15.186863	13.318845	20.415200	-0.915425	1.044660	2.546867	0.000000	0.119942	0.000000	0.000003	0.000000	0.000000	0.000000
15.627823	14.311372	19.288518	-1.343947	1.500683	2.615749	0.000000	0.192777	0.000000	0.000003	0.000000	0.000000	0.000000
16.068783	15.707366	17.788348	-1.833869	1.888427	2.717202	0.000000	0.267808	0.000000	0.000003	0.000000	0.000000	0.000000
16.514743	17.594260	15.961443	-2.412334	2.190997	2.854075	0.000000	0.346350	0.000000	0.000003	0.000001	0.000000	0.000000
17.063803	20.017469	13.921417	-1.974920	1.546423	3.020515	0.000000	0.259029	0.000000	0.000003	0.000000	0.000000	0.000000
17.612863	21.880437	12.524935	-1.398008	1.011996	3.137676	0.000000	0.167113	0.000000	0.000004	0.000000	0.000000	0.000000
18.161923	23.051572	11.672528	-0.722347	0.549652	3.203480	0.000000	0.072233	0.000000	0.000004	0.000000	0.000000	0.000000
18.710983	23.448150	11.303481	0.004336	0.126458	3.216761	0.000000	-0.023928	0.000000	0.000004	0.000000	0.000000	0.000000
19.009556	23.485958	11.218411	-0.069702	0.128934	3.212126	0.000000	-0.015524	0.000000	0.000004	0.000000	0.000000	0.000000
19.342889	23.537180	11.142524	-0.083964	0.098727	3.206951	0.000000	-0.015524	0.000000	0.000004	0.000000	0.000000	0.000000
19.676223	23.597910	11.086775	-0.098226	0.068520	3.201777	0.000000	-0.015524	0.000000	0.000004	0.000000	0.000000	0.000000
20.010806	23.668722	11.050931	-0.229809	0.092953	3.196602	0.000000	0.000314	0.000000	0.000004	0.000000	0.000000	0.000000
20.308129	23.809309	11.003726	-0.305241	0.094565	3.196696	0.000000	0.008666	0.000000	0.000004	0.000000	0.000000	0.000000
20.857189	23.733859	11.122401	0.441844	-0.311983	3.175238	0.000000	-0.086713	0.000000	0.000004	-0.000000	0.000000	0.000000
21.406249	22.850372	11.697023	1.157720	-0.740752	3.101757	0.000000	-0.180553	0.000000	0.000004	-0.000000	0.000000	0.000000
21.955309	21.221253	12.768523	1.791821	-1.222284	2.977557	0.000000	-0.271191	0.000000	0.000004	-0.000000	0.000000	0.000000
22.504369	18.961575	14.413221	2.299356	-1.790876	2.804840	0.000000	-0.357019	0.000000	0.000004	-0.000000	0.000000	0.000000
22.950329	17.180890	15.889704	1.707666	-1.505954	2.662915	0.000000	-0.279819	0.000000	0.000003	-0.000000	0.000000	0.000000
23.391289	15.904146	17.066839	1.198692	-1.153370	2.555847	0.000000	-0.206261	0.000000	0.000003	-0.000000	0.000000	0.000000
23.832249	15.050522	17.908606	0.744483	-0.748308	2.480666	0.000000	-0.135051	0.000000	0.000003	-0.000000	0.000000	0.000000
24.273209	14.581019	18.376705	0.324287	-0.309199	2.436517	0.000000	-0.065380	0.000000	0.000003	-0.000000	0.000000	0.000000
24.715418	14.474300	18.449592	-0.045686	0.098667	2.422894	0.000000	-0.002395	0.000000	0.000003	0.000000	0.000000	0.000000
25.012741	14.507587	18.395758	-0.066271	0.082395	2.422181	0.000000	-0.002395	0.000000	0.000003	0.000000	0.000000	0.000000
25.346075	14.559460	18.346909	-0.089348	0.064152	2.421383	0.000000	-0.002395	0.000000	0.000003	0.000000	0.000000	0.000000
25.679408	14.626718	18.310223	-0.112425	0.045909	2.420585	0.000000	-0.002395	0.000000	0.000003	0.000000	0.000000	0.000000
26.013991	14.709401	18.286000	-0.016257	-0.120748	2.419759	0.000000	-0.022026	0.000000	0.000003	-0.000000	0.000000	0.000000
26.311314	14.725080	18.362707	-0.000366	-0.182274	2.413210	0.000000	-0.027943	0.000000	0.000003	-0.000000	0.000000	0.000000
26.752274	14.906847	18.324263	-0.413406	0.269123	2.415997	0.000000	0.040594	0.000000	0.000003	0.000000	0.000000	0.000000
27.193234	15.459803	17.891623	-0.845333	0.708275	2.449079	0.000000	0.109594	0.000000	0.000003	0.000000	0.000000	0.000000
27.634194	16.409210	17.084472	-1.315880	1.115201	2.512833	0.000000	0.179841	0.000000	0.000003	0.000000	0.000000	0.000000
28.075154	17.798444	15.939533	-1.846547	1.471387	2.607985	0.000000	0.252137	0.000000	0.000003	0.000000	0.000000	0.000000
28.521114	19.715116	14.491657	-2.466534	1.761539	2.737221	0.000000	0.327749	0.000000	0.000004	0.000000	0.000000	0.000000
29.070174	22.151214	12.878293	-1.944054	1.194216	2.894514	0.000000	0.244361	0.000000	0.000004	0.000000	0.000000	0.000000
29.619234	23.934305	11.837833	-1.284256	0.711955	3.004763	0.000000	0.156640	0.000000	0.000004	0.000000	0.000000	0.000000
30.168294	24.938440	11.296166	-0.533744	0.280404	3.066013	0.000000	0.066140	0.000000	0.000004	0.000000	0.000000	0.000000
30.717354	25.092692	11.214710	0.254469	-0.131174	3.077178	0.000000	-0.025533	0.000000	0.000004	-0.000000	0.000000	0.000000
31.015927	24.983566	11.283575	0.176585	-0.128773	3.071955	0.000000	-0.017493	0.000000	0.000004	-0.000000	0.000000	0.000000
31.349260	24.870428	11.379433	0.162827	-0.158804	3.066124	0.000000	-0.017493	0.000000	0.000004	-0.000000	0.000000	0.000000
31.682593	24.766463	11.495313	0.149069	-0.188835	3.060293	0.000000	-0.017493	0.000000	0.000004	-0.000000	0.000000	0.000000
32.017177	24.671332	11.631761	0.135259	-0.218979	3.054440	0.000000	-0.017493	0.000000	0.000004	-0.000000	0.000000	0.000000
32.314499	24.594550	11.769940	0.058728	-0.215015	3.049239	0.000000	-0.009526	0.000000	0.000004	-0.000000	0.000000	0.000000
32.863559	24.108739	12.245389	0.820839	-0.656028	3.019130	0.000000	-0.099987	0.000000	0.000004	-0.000000	0.000000	0.000000
33.412619	22.813078	13.227786	1.524970	-1.143769	2.939768	0.000000	-0.188674	0.000000	0.000004	-0.000000	0.000000	0.000000
33.961679	20.799088	14.787107	2.121385	-1.712978	2.812558	0.000000	-0.274015	0.000000	0.000003	-0.000000	0.000000	0.000000
34.510739	18.209026	17.034419	2.567956	-2.404198	2.639759	0.000000	-0.354495	0.000000	0.000003	-0.000001	0.000000	0.000000
34.956699	16.195270	19.044490	1.963776	-2.084273	2.498008	0.000000	-0.281575	0.000000	0.000003	-0.000000	0.000000	0.000000
35.397659	14.693723	20.706415	1.454319	-1.670263	2.389225	0.000000	-0.212290	0.000000	0.000003	-0.000000	0.000000	0.000000
35.838619	13.610590	21.968182	1.011305	-1.180258	2.310432	0.000000	-0.145423	0.000000	0.000003	-0.000000	0.000000	0.000000
36.279579	12.896386	22.772382	0.614496	-0.636551	2.260731	0.000000	-0.080211	0.000000	0.000002	-0.000000	0.000000	0.000000
36.721789	12.517790	23.082727	0.276351	-0.120541	2.239531	0.000000	-0.021406	0.000000	0.000002	-0.000000	0.000000	0.000000
37.019112	12.361061	23.158291	0.250785	-0.133609	2.233167	0.000000	-0.021406	0.000000	0.000002	-0.000000	0.000000	0.000000
37.352445	12.203425	23.252248	0.222123	-0.148260	2.226031	0.000000	-0.021406	0.000000	0.000002	-0.000000	0.000000	0.000000
37.685779	12.064897	23.355971	0.193461	-0.162910	2.218896	0.000000	-0.021406	0.000000	0.000002	-0.000000	0.000000	0.000000
38.020362	11.945065	23.469905	0.164691	-0.177616	2.211734	0.000000	-0.021406	0.000000	0.000002	-0.000000	0.000000	0.000000
38.317684	11.854734	23.579409	0.168196	-0.248507	2.205370	0.000000	-0.026814	0.000000	0.000002	-0.000000	0.000000	0.000000
38.758644	11.857604	23.537418	-0.174730	0.343371	2.207472	0.000000	0.036356	0.000000	0.000002	-0.000000	0.000000	0.000000
39.199604	12.165271	22.978360	-0.525638	0.919625	2.237494	0.000000	0.099941	0.000000	0.000002	-0.000000	0.000000	0.000000
39.640564	12.791790	21.927671	-0.900560	1.454038	2.295779	0.000000	0.164664	0.000000	0.000002	-0.000000	0.000000	0.000000
40.081524	13.765787	20.433158	-1.316627	1.922292	2.382989	0.000000	0.231262	0.000000	0.000002	0.000000	0.000000	0.000000
40.527484	15.149323	18.540251	-1.796671	2.304363	2.501591	0.000000	0.300899	0.000000	0.000002	0.000000	0.000000	0.000000
41.076544	16.915104	16.413191	-1.400300	1.592507	2.646276	0.000000	0.225351	0.000000	0.000002	-0.000000	0.000000	0.000000
41.625604	18.188400	15.001331	-0.905018	0.994083	2.748319	0.000000	0.145806	0.000000	0.000002	-0.000000	0.000000	0.000000
42.174664	18.879270	14.204109	-0.345811	0.466465	2.805913	0.000000	0.063674	0.000000	0.000002	-0.000000	0.000000	0.000000
42.723724	18.938915	13.964738	0.237823	-0.027928	2.818034	0.000000	-0.019587	0.000000	0.000002	-0.000000	0.000000	0.000000
43.022297	18.831322	13.966011	0.172015	-0.012823	2.814384	0.000000	-0.012224	0.000000	0.000002	-0.000000	0.000000	0.000000
43.502297	18.678784	13.994821	0.145772	-0.047198	2.808517	0.000000	-0.012224	0.000000	0.000002	-0.000000	0.000000	0.000000
43.982297	18.551440	14.056631	0.119528	-0.081573	2.802650	0.000000	-0.012224	0.000000	0.000002	-0.000000	0.000000	0.000000
44.462297	18.449290	14.151441	0.093284	-0.115947	2.796782	0.000000	-0.012224	0.000000	0.000001	-0.000000	0.000000	0.000000
44.942297	18.372334	14.279250	0.067041	-0.150322	2.790915	0.000000	-0.012224	0.000000	0.000001	-0.000000	0.000000	0.000000
45.423547	18.320697	14.440343	-0.050042	-0.113240	2.785049	0.000000	0.001575	0.000000	0.000001	-0.000000	0.000000	0.000000
45.720870	18.355292	14.513881	-0.114270	-0.096172	2.785518	0.000000	0.008853	0.000000	0.000001	-0.000000	0.000000	0.000000
46.269930	18.171700	14.900274	0.446664	-0.611717	2.767809	0.000000	-0.073264	0.000000	0.000001	-0.000000	0.000000	0.000000
46.818990	17.385894	15.873258	0.976049	-1.170834	2.705304	0.000000	-0.154081	0.000000	0.000001	-0.000000	0.000000	0.000000
47.368050	16.053377	17.502137	1.436490	-1.813346	2.599112	0.000000	-0.232166	0.000000	0.000001	-0.000000	0.000000	0.000000
47.917110	14.268274	19.902931	1.795464	-2.585018	2.451115	0.000000	-0.306132	0.000000	0.000001	-0.000000	0.000000	0.000000
48.363070	12.878990	22.037546	1.330837	-2.181419	2.329884	0.000000	-0.237838	0.000000	0.000001	-0.000000	0.000000	0.000000
48.804030	11.885477	23.746708	0.930779	-1.679836	2.239465	0.000000	-0.172650	0.000000	0.000000	-0.000000	0.000000	0.000000
49.244990	11.224769	24.977994	0.573245	-1.101822	2.177332	0.000000	-0.109429	0.000000	0.000000	-0.000000	0.000000	0.000000
49.685950	10.866680	25.675379	0.241902	-0.473676	2.142775	0.000000	-0.047454	0.000000	0.000000	-0.000000	0.000000	0.000000
50.128160	10.794980	25.806852	-0.052034	0.112687	2.135413	0.000000	0.008744	0.000000	0.000000	-0.000000	0.000000	0.000000
50.425482	10.834133	25.743313	-0.079651	0.101019	2.138013	0.000000	0.008744	0.000000	0.000000	-0.000000	0.000000	0.000000
50.758816	10.897555	25.680327	-0.110613	0.087939	2.140927	0.000000	0.008744	0.000000	-0.000000	-0.000000	0.000000	0.000000
51.092149	10.981618	25.626061	-0.141575	0.074858	2.143842	0.000000	0.008744	0.000000	-0.000000	-0.000000	0.000000	0.000000
51.426732	11.086528	25.580880	-0.082713	-0.145796	2.146746	0.000000	-0.008672	0.000000	-0.000000	-0.000000	0.000000	0.000000
51.724055	11.143741	25.671106	-0.082387	-0.220619	2.144168	0.000000	-0.013930	0.000000	-0.000000	-0.000000	0.000000	0.000000
52.165015	11.361867	25.580105	-0.414151	0.426204	2.151613	0.000000	0.047731	0.000000	-0.000000	-0.000000	0.000000	0.000000
52.605975	11.879789	24.925063	-0.764838	1.053634	2.186343	0.000000	0.109937	0.000000	-0.000001	-0.000000	0.000000	0.000000
53.046935	12.721170	23.735784	-1.150467	1.633126	2.248752	0.000000	0.173394	0.000000	-0.000001	-0.000000	0.000000	0.000000
53.487895	13.924450	22.066379	-1.588658	2.138311	2.339552	0.000000	0.238826	0.000000	-0.000001	-0.000000	0.000000	0.000000
53.933855	15.565224	19.967841	-2.103668	2.547539	2.461281	0.000000	0.307377	0.000000	-0.000001	-0.000000	0.000000	0.000000
54.482915	17.677618	17.606544	-1.720850	1.778464	2.609869	0.000000	0.233071	0.000000	-0.000001	-0.000000	0.000000	0.000000
55.031975	19.299992	16.015684	-1.216480	1.136064	2.716463	0.000000	0.154632	0.000000	-0.000001	-0.000000	0.000000	0.000000
55.581035	20.317750	15.081948	-0.626184	0.574583	2.779171	0.000000	0.073450	0.000000	-0.000001	-0.000000	0.000000	0.000000
56.130095	20.659002	14.738828	0.008343	0.054029	2.796881	0.000000	-0.009035	0.000000	-0.000001	-0.000000	0.000000	0.000000
56.428668	20.690578	14.689669	-0.060119	0.072108	2.796365	0.000000	-0.001727	0.000000	-0.000002	-0.000000	0.000000	0.000000
56.762001	20.736047	14.649200	-0.076287	0.049298	2.795789	0.000000	-0.001727	0.000000	-0.000002	-0.000000	0.000000	0.000000
57.095334	20.792294	14.623938	-0.092456	0.026489	2.795214	0.000000	-0.001727	0.000000	-0.000002	-0.000000	0.000000	0.000000
57.429918	20.859593	14.613873	-0.108685	0.003593	2.794636	0.000000	-0.001727	0.000000	-0.000002	-0.000000	0.000000	0.000000
57.727240	20.928510	14.617785	-0.177790	0.021442	2.794122	0.000000	0.005573	0.000000	-0.000002	-0.000000	0.000000	0.000000
58.276300	20.766640	14.875013	0.470858	-0.492695	2.774542	0.000000	-0.076792	0.000000	-0.000002	-0.000000	0.000000	0.000000
58.825360	19.906605	15.712668	1.086247	-1.041926	2.710046	0.000000	-0.157795	0.000000	-0.000002	-0.000000	0.000000	0.000000
59.374420	18.409154	17.190414	1.624909	-1.665371	2.601778	0.000000	-0.235999	0.000000	-0.000002	0.000000	0.000000	0.000000
59.923480	16.380059	19.413508	2.048795	-2.407437	2.451659	0.000000	-0.310018	0.000000	-0.000002	0.000000	0.000000	0.000000
60.369440	14.791809	21.389484	1.525234	-2.004699	2.328695	0.000000	-0.241732	0.000000	-0.000002	0.000000	0.000000	0.000000
60.810400	13.649294	22.946185	1.075568	-1.512120	2.236549	0.000000	-0.176598	0.000000	-0.000002	-0.000000	0.000000	0.000000
61.251360	12.880262	24.036356	0.675042	-0.950740	2.172655	0.000000	-0.113474	0.000000	-0.000002	-0.000000	0.000000	0.000000
61.692320	12.449580	24.610397	0.305356	-0.346103	2.136284	0.000000	-0.051643	0.000000	-0.000002	-0.000000	0.000000	0.000000
62.134530	12.337620	24.641653	-0.020224	0.213798	2.127029	0.000000	0.004384	0.000000	-0.000002	-0.000000	0.000000	0.000000
62.431853	12.356814	24.518270	-0.044333	0.201181	2.128332	0.000000	0.004384	0.000000	-0.000002	-0.000000	0.000000	0.000000
62.765186	12.395379	24.388865	-0.071361	0.187035	2.129794	0.000000	0.004384	0.000000	-0.000002	-0.000000	0.000000	0.000000
63.098520	12.451962	24.268890	-0.098390	0.172890	2.131255	0.000000	0.004384	0.000000	-0.000002	-0.000000	0.000000	0.000000
63.433103	12.526879	24.157948	-0.125520	0.158691	2.132722	0.000000	0.004384	0.000000	-0.000002	-0.000000	0.000000	0.000000
63.730426	12.608687	24.067335	-0.118708	0.087052	2.134025	0.000000	-0.000850	0.000000	-0.000002	-0.000000	0.000000	0.000000
64.171386	12.873885	23.725493	-0.484985	0.685219	2.147192	0.000000	0.060624	0.000000	-0.000002	-0.000000	0.000000	0.000000
64.612346	13.470623	22.867902	-0.873420	1.252209	2.187592	0.000000	0.122788	0.000000	-0.000002	-0.000000	0.000000	0.000000
65.053306	14.426164	21.533580	-1.301758	1.762224	2.255686	0.000000	0.186351	0.000000	-0.000003	-0.000000	0.000000	0.000000
65.494266	15.784165	19.783239	-1.789571	2.192059	2.352250	0.000000	0.252036	0.000000	-0.000003	-0.000000	0.000000	0.000000
65.940226	17.629836	17.671740	-2.363837	2.522915	2.479956	0.000000	0.320994	0.000000	-0.000003	-0.000000	0.000000	0.000000
66.489286	19.995620	15.309554	-1.919446	1.804717	2.635833	0.000000	0.245965	0.000000	-0.000003	-0.000000	0.000000	0.000000
67.038346	21.795618	13.661242	-1.339475	1.215065	2.749254	0.000000	0.166574	0.000000	-0.000003	-0.000000	0.000000	0.000000
67.587406	22.902688	12.609398	-0.664890	0.711959	2.818209	0.000000	0.084228	0.000000	-0.000004	-0.000000	0.000000	0.000000
68.136466	23.238631	12.079103	0.056660	0.259565	2.841473	0.000000	0.000388	0.000000	-0.000004	-0.000000	0.000000	0.000000
68.435038	23.244892	11.913264	-0.016909	0.264314	2.843805	0.000000	0.007813	0.000000	-0.000004	-0.000000	0.000000	0.000000
68.768372	23.260946	11.747033	-0.031253	0.234379	2.846410	0.000000	0.007813	0.000000	-0.000004	-0.000000	0.000000	0.000000
69.101705	23.286562	11.600759	-0.045597	0.204444	2.849014	0.000000	0.007813	0.000000	-0.000004	-0.000000	0.000000	0.000000
69.436288	23.321891	11.474005	-0.059995	0.174397	2.851628	0.000000	0.007813	0.000000	-0.000004	-0.000000	0.000000	0.000000
69.733611	23.361371	11.378240	-0.133830	0.177426	2.853951	0.000000	0.015270	0.000000	-0.000004	-0.000000	0.000000	0.000000
70.282671	23.107123	11.411200	0.594151	-0.237812	2.839148	0.000000	-0.069111	0.000000	-0.000004	0.000000	0.000000	0.000000
