#ParticleID	Turn	x[m]	xp	y[m]	yp	z[m]	dE[GeV]# s	beta_x	beta_y	alpha_x	alpha_y	D_x	D_y	D_px	D_py	orbit_x	orbit_px	orbit_y	orbit_py
0.300000	11.811306	25.029224	-0.010734	-0.027176	2.618070	0.000000	0.000027	0.000000	-0.000000	0.000001	0.000000	0.000000
0.601250	11.825457	25.049226	-0.036242	-0.039221	2.618078	0.000000	0.000027	0.000000	0.000000	0.000001	0.000000	0.000000
0.898573	11.854494	25.076083	-0.032348	-0.112601	2.618086	0.000000	-0.006393	0.000000	0.000001	0.000001	0.000000	0.000000
1.339533	12.035121	24.897221	-0.378827	0.516677	2.631559	0.000000	0.067564	0.000000	0.000001	0.000002	0.000000	0.000000
1.780493	12.527763	24.171671	-0.742614	1.122448	2.677783	0.000000	0.142290	0.000000	0.000002	0.000002	0.000000	0.000000
2.221453	13.354928	22.932446	-1.140329	1.677148	2.757284	0.000000	0.218636	0.000000	0.000003	0.000002	0.000000	0.000000
2.662413	14.554407	21.235928	-1.590143	2.155539	2.870967	0.000000	0.297473	0.000000	0.000003	0.000002	0.000000	0.000000
3.108373	16.201738	19.134430	-2.116894	2.536988	3.021988	0.000000	0.380188	0.000000	0.000004	0.000002	0.000000	0.000000
3.657433	18.314174	16.774121	-1.707698	1.787205	3.205461	0.000000	0.287150	0.000000	0.000005	0.000002	0.000000	0.000000
4.206493	19.907965	15.162846	-1.177879	1.164722	3.336376	0.000000	0.189019	0.000000	0.000006	0.000001	0.000000	0.000000
4.755553	20.870532	14.185839	-0.564861	0.625199	3.412409	0.000000	0.087535	0.000000	0.000007	0.000001	0.000000	0.000000
5.304613	21.133886	13.773509	0.088057	0.130208	3.432213	0.000000	-0.015502	0.000000	0.000007	0.000001	0.000000	0.000000
5.603185	21.118498	13.680919	0.018698	0.143917	3.430261	0.000000	-0.006535	0.000000	0.000008	0.000001	0.000000	0.000000
5.936519	21.111295	13.593264	0.002909	0.119048	3.428083	0.000000	-0.006535	0.000000	0.000008	0.000001	0.000000	0.000000
6.269852	21.114619	13.522189	-0.012881	0.094178	3.425904	0.000000	-0.006535	0.000000	0.000008	0.000001	0.000000	0.000000
6.604435	21.128541	13.467520	-0.028729	0.069215	3.423717	0.000000	-0.006535	0.000000	0.000009	0.000001	0.000000	0.000000
6.901758	21.149813	13.432957	-0.098070	0.082128	3.421774	0.000000	0.002405	0.000000	0.000009	0.000001	0.000000	0.000000
7.450818	20.897060	13.603630	0.555683	-0.394809	3.394892	0.000000	-0.100179	0.000000	0.000009	0.000001	0.000000	0.000000
7.999878	19.943813	14.310314	1.170184	-0.899867	3.312091	0.000000	-0.200985	0.000000	0.000010	0.000000	0.000000	0.000000
8.548938	18.357404	15.603344	1.702030	-1.469021	3.174840	0.000000	-0.298227	0.000000	0.000010	0.000000	0.000000	0.000000
9.097998	16.249890	17.574820	2.113652	-2.142811	2.985574	0.000000	-0.390179	0.000000	0.000010	-0.000000	0.000000	0.000000
9.543958	14.605662	19.331493	1.586395	-1.779623	2.829877	0.000000	-0.308470	0.000000	0.000010	0.000000	0.000000	0.000000
9.984918	13.409774	20.710916	1.135904	-1.336699	2.711101	0.000000	-0.230758	0.000000	0.000010	0.000000	0.000000	0.000000
10.425878	12.586884	21.671302	0.737308	-0.832956	2.625981	0.000000	-0.155674	0.000000	0.000010	0.000001	0.000000	0.000000
10.866838	12.099397	22.168953	0.372398	-0.291314	2.573548	0.000000	-0.082364	0.000000	0.000011	0.000001	0.000000	0.000000
11.309048	11.924908	22.180705	0.053638	0.209134	2.553184	0.000000	-0.016252	0.000000	0.000011	0.000001	0.000000	0.000000
11.606371	11.900447	22.060504	0.028633	0.195144	2.548352	0.000000	-0.016252	0.000000	0.000011	0.000001	0.000000	0.000000
12.086371	11.892336	21.884008	-0.011735	0.172557	2.540550	0.000000	-0.016252	0.000000	0.000012	0.000001	0.000000	0.000000
12.566371	11.922978	21.729196	-0.052103	0.149970	2.532749	0.000000	-0.016252	0.000000	0.000012	0.000001	0.000000	0.000000
13.046371	11.992373	21.596067	-0.092470	0.127383	2.524947	0.000000	-0.016252	0.000000	0.000013	0.000001	0.000000	0.000000
13.526371	12.100521	21.484621	-0.132838	0.104796	2.517146	0.000000	-0.016252	0.000000	0.000013	0.000001	0.000000	0.000000
14.007621	12.247855	21.394653	-0.173311	0.082150	2.509324	0.000000	-0.016252	0.000000	0.000014	0.000001	0.000000	0.000000
14.304943	12.358347	21.349963	-0.168013	0.015810	2.504492	0.000000	-0.022393	0.000000	0.000014	0.000001	0.000000	0.000000
14.745903	12.665042	21.102349	-0.530140	0.543587	2.510250	0.000000	0.048536	0.000000	0.000015	0.000001	0.000000	0.000000
15.186863	13.300536	20.398448	-0.916487	1.046631	2.547377	0.000000	0.120018	0.000000	0.000016	0.000002	0.000000	0.000000
15.627823	14.293864	19.270287	-1.344707	1.502053	2.616295	0.000000	0.192866	0.000000	0.000017	0.000002	0.000000	0.000000
16.068783	15.690409	17.769196	-1.834362	1.889134	2.717790	0.000000	0.267911	0.000000	0.000018	0.000003	0.000000	0.000000
16.514743	17.577631	15.941972	-2.412581	2.191005	2.854712	0.000000	0.346470	0.000000	0.000019	0.000003	0.000000	0.000000
17.063803	20.001535	13.901726	-1.975926	1.546817	3.021210	0.000000	0.259127	0.000000	0.000021	0.000003	0.000000	0.000000
17.612863	21.865995	12.504585	-1.399701	1.012807	3.138418	0.000000	0.167188	0.000000	0.000022	0.000002	0.000000	0.000000
18.161923	23.039314	11.651035	-0.724608	0.550936	3.204256	0.000000	0.072283	0.000000	0.000023	0.000001	0.000000	0.000000
18.710983	23.438615	11.280278	0.001668	0.128307	3.217557	0.000000	-0.023904	0.000000	0.000023	0.000000	0.000000	0.000000
19.009556	23.477999	11.194163	-0.072345	0.130647	3.212929	0.000000	-0.015498	0.000000	0.000023	0.000000	0.000000	0.000000
19.342889	23.530986	11.117160	-0.086617	0.100362	3.207763	0.000000	-0.015498	0.000000	0.000023	0.000000	0.000000	0.000000
19.676223	23.593488	11.060347	-0.100889	0.070076	3.202597	0.000000	-0.015498	0.000000	0.000023	0.000000	0.000000	0.000000
20.010806	23.666085	11.023489	-0.232469	0.094294	3.197431	0.000000	0.000343	0.000000	0.000024	0.000001	0.000000	0.000000
20.308129	23.808259	10.975509	-0.307905	0.095754	3.197533	0.000000	0.008696	0.000000	0.000024	0.000001	0.000000	0.000000
20.857189	23.735739	11.092438	0.439203	-0.309974	3.176084	0.000000	-0.086710	0.000000	0.000024	-0.000000	0.000000	0.000000
21.406249	22.855054	11.664342	1.155288	-0.737780	3.102598	0.000000	-0.180578	0.000000	0.000024	-0.000001	0.000000	0.000000
21.955309	21.228411	12.731956	1.789769	-1.218137	2.978377	0.000000	-0.271243	0.000000	0.000023	-0.000002	0.000000	0.000000
22.504369	18.970708	14.371324	2.297830	-1.785259	2.805626	0.000000	-0.357097	0.000000	0.000022	-0.000002	0.000000	0.000000
22.950329	17.191394	15.843211	1.706103	-1.501307	2.663672	0.000000	-0.279877	0.000000	0.000021	-0.000002	0.000000	0.000000
23.391289	15.916070	17.016754	1.197020	-1.149901	2.556582	0.000000	-0.206299	0.000000	0.000020	-0.000001	0.000000	0.000000
23.832249	15.063997	17.856042	0.742625	-0.746176	2.481389	0.000000	-0.135070	0.000000	0.000020	-0.000001	0.000000	0.000000
24.273209	14.596244	18.322889	0.322158	-0.308500	2.437236	0.000000	-0.065381	0.000000	0.000019	-0.000000	0.000000	0.000000
24.715418	14.491563	18.395807	-0.048145	0.098040	2.423617	0.000000	-0.002378	0.000000	0.000019	0.000000	0.000000	0.000000
25.012741	14.526306	18.342360	-0.068710	0.081722	2.422910	0.000000	-0.002378	0.000000	0.000020	0.000000	0.000000	0.000000
25.346075	14.579798	18.293977	-0.091765	0.063428	2.422117	0.000000	-0.002378	0.000000	0.000020	0.000000	0.000000	0.000000
25.679408	14.648660	18.257790	-0.114820	0.045133	2.421325	0.000000	-0.002378	0.000000	0.000020	0.000000	0.000000	0.000000
26.013991	14.732937	18.234102	-0.018439	-0.121153	2.420504	0.000000	-0.022014	0.000000	0.000020	0.000000	0.000000	0.000000
26.311314	14.749904	18.311065	-0.002462	-0.182594	2.413959	0.000000	-0.027933	0.000000	0.000020	-0.000000	0.000000	0.000000
26.752274	14.933795	18.273521	-0.416144	0.267411	2.416754	0.000000	0.040624	0.000000	0.000020	0.000000	0.000000	0.000000
27.193234	15.489494	17.842979	-0.848839	0.705249	2.449853	0.000000	0.109643	0.000000	0.000020	0.000001	0.000000	0.000000
27.634194	16.442390	17.039027	-1.320315	1.110999	2.513633	0.000000	0.179911	0.000000	0.000021	0.000002	0.000000	0.000000
28.075154	17.836018	15.898244	-1.852113	1.466199	2.608820	0.000000	0.252228	0.000000	0.000021	0.000002	0.000000	0.000000
28.521114	19.758258	14.455351	-2.473497	1.755600	2.738101	0.000000	0.327862	0.000000	0.000023	0.000003	0.000000	0.000000
29.070174	22.201439	12.847717	-1.949910	1.189658	2.895447	0.000000	0.244445	0.000000	0.000024	0.000002	0.000000	0.000000
29.619234	23.990160	11.811656	-1.288591	0.708452	3.005733	0.000000	0.156693	0.000000	0.000025	0.000001	0.000000	0.000000
30.168294	24.998076	11.273372	-0.536253	0.277708	3.067003	0.000000	0.066161	0.000000	0.000025	0.000000	0.000000	0.000000
30.717354	25.153993	11.194524	0.253964	-0.133256	3.078171	0.000000	-0.025544	0.000000	0.000025	-0.000001	0.000000	0.000000
31.015927	25.045247	11.264684	0.175964	-0.130972	3.072945	0.000000	-0.017503	0.000000	0.000025	-0.000000	0.000000	0.000000
31.349260	24.932511	11.362032	0.162243	-0.161071	3.067111	0.000000	-0.017503	0.000000	0.000025	-0.000000	0.000000	0.000000
31.682593	24.828923	11.479446	0.148522	-0.191170	3.061277	0.000000	-0.017503	0.000000	0.000024	-0.000000	0.000000	0.000000
32.017177	24.734145	11.617478	0.134749	-0.221381	3.055421	0.000000	-0.017503	0.000000	0.000024	-0.000000	0.000000	0.000000
32.314499	24.657656	11.757104	0.058097	-0.217515	3.050217	0.000000	-0.009535	0.000000	0.000024	-0.000000	0.000000	0.000000
32.863559	24.171383	12.235159	0.822307	-0.658304	3.020095	0.000000	-0.100027	0.000000	0.000024	-0.000001	0.000000	0.000000
33.412619	22.872999	13.220008	1.528433	-1.145982	2.940702	0.000000	-0.188745	0.000000	0.000023	-0.000002	0.000000	0.000000
33.961679	20.854216	14.781798	2.126598	-1.715287	2.813447	0.000000	-0.274115	0.000000	0.000022	-0.000003	0.000000	0.000000
34.510739	18.257631	17.031772	2.574550	-2.406767	2.640586	0.000000	-0.354624	0.000000	0.000020	-0.000003	0.000000	0.000000
34.956699	16.238660	19.044305	1.968916	-2.087198	2.498784	0.000000	-0.281683	0.000000	0.000019	-0.000003	0.000000	0.000000
35.397659	14.733127	20.708917	1.458251	-1.673408	2.389958	0.000000	-0.212378	0.000000	0.000018	-0.000002	0.000000	0.000000
35.838619	13.646991	21.973503	1.014209	-1.183480	2.311131	0.000000	-0.145492	0.000000	0.000017	-0.000002	0.000000	0.000000
36.279579	12.930630	22.780525	0.616504	-0.639704	2.261404	0.000000	-0.080263	0.000000	0.000016	-0.000001	0.000000	0.000000
36.721789	12.550619	23.093573	0.277632	-0.123499	2.240185	0.000000	-0.021442	0.000000	0.000015	-0.000001	0.000000	0.000000
37.019112	12.393113	23.170897	0.252116	-0.136570	2.233810	0.000000	-0.021442	0.000000	0.000015	-0.000001	0.000000	0.000000
37.352445	12.234571	23.266829	0.223510	-0.151225	2.226664	0.000000	-0.021442	0.000000	0.000015	-0.000001	0.000000	0.000000
37.685779	12.095099	23.372530	0.194904	-0.165879	2.219517	0.000000	-0.021442	0.000000	0.000014	-0.000001	0.000000	0.000000
38.020362	11.974283	23.488452	0.166190	-0.180588	2.212343	0.000000	-0.021442	0.000000	0.000014	-0.000001	0.000000	0.000000
38.317684	11.883045	23.599724	0.169811	-0.251525	2.205968	0.000000	-0.026851	0.000000	0.000014	-0.000001	0.000000	0.000000
38.758644	11.884772	23.560149	-0.173742	0.340932	2.208058	0.000000	0.036335	0.000000	0.000013	-0.000001	0.000000	0.000000
39.199604	12.191826	23.002944	-0.525232	0.917877	2.238075	0.000000	0.099935	0.000000	0.000013	-0.000000	0.000000	0.000000
39.640564	12.818238	21.953462	-0.900719	1.453059	2.296360	0.000000	0.164672	0.000000	0.000013	-0.000000	0.000000	0.000000
40.081524	13.792625	20.459453	-1.317358	1.922129	2.383578	0.000000	0.231286	0.000000	0.000013	0.000000	0.000000	0.000000
40.527484	15.177081	18.566321	-1.798010	2.305027	2.502193	0.000000	0.300938	0.000000	0.000013	0.000001	0.000000	0.000000
41.076544	16.943768	16.438892	-1.400599	1.592519	2.646894	0.000000	0.225370	0.000000	0.000013	0.000000	0.000000	0.000000
41.625604	18.216808	15.027375	-0.904257	0.993443	2.748943	0.000000	0.145805	0.000000	0.000013	-0.000000	0.000000	0.000000
42.174664	18.906281	14.231232	-0.344042	0.465127	2.806530	0.000000	0.063653	0.000000	0.000013	-0.000001	0.000000	0.000000
42.723724	18.963484	13.993756	0.240474	-0.030059	2.818635	0.000000	-0.019627	0.000000	0.000012	-0.000001	0.000000	0.000000
43.022297	18.854343	13.996245	0.174612	-0.014837	2.814974	0.000000	-0.012263	0.000000	0.000012	-0.000001	0.000000	0.000000
43.502297	18.699308	14.026953	0.148378	-0.049139	2.809088	0.000000	-0.012263	0.000000	0.000011	-0.000001	0.000000	0.000000
43.982297	18.569458	14.090592	0.122143	-0.083442	2.803202	0.000000	-0.012263	0.000000	0.000011	-0.000001	0.000000	0.000000
44.462297	18.464793	14.187161	0.095909	-0.117744	2.797316	0.000000	-0.012263	0.000000	0.000010	-0.000001	0.000000	0.000000
44.942297	18.385313	14.316661	0.069674	-0.152047	2.791430	0.000000	-0.012263	0.000000	0.000010	-0.000001	0.000000	0.000000
45.423547	18.331137	14.479377	-0.047451	-0.114699	2.785546	0.000000	0.001538	0.000000	0.000009	-0.000001	0.000000	0.000000
45.720870	18.364187	14.553768	-0.111686	-0.097480	2.786004	0.000000	0.008817	0.000000	0.000009	-0.000001	0.000000	0.000000
46.269930	18.177616	14.942271	0.449473	-0.614276	2.768271	0.000000	-0.073316	0.000000	0.000008	-0.000001	0.000000	0.000000
46.818990	17.388692	15.918832	0.978884	-1.174826	2.705735	0.000000	-0.154147	0.000000	0.000007	-0.000002	0.000000	0.000000
47.368050	16.053139	17.553007	1.439152	-1.819057	2.599503	0.000000	-0.232245	0.000000	0.000006	-0.000002	0.000000	0.000000
47.917110	14.265294	19.961197	1.797764	-2.592855	2.451460	0.000000	-0.306223	0.000000	0.000005	-0.000002	0.000000	0.000000
48.363070	12.874036	22.102254	1.332980	-2.187968	2.330190	0.000000	-0.237921	0.000000	0.000005	-0.000002	0.000000	0.000000
48.804030	11.878665	23.816515	0.932866	-1.684805	2.239738	0.000000	-0.172726	0.000000	0.000004	-0.000002	0.000000	0.000000
49.244990	11.216105	25.051401	0.575372	-1.104985	2.177573	0.000000	-0.109498	0.000000	0.000003	-0.000002	0.000000	0.000000
49.685950	10.856088	25.750723	0.244165	-0.474889	2.142988	0.000000	-0.047517	0.000000	0.000002	-0.000002	0.000000	0.000000
50.128160	10.782289	25.882381	-0.049563	0.113295	2.135599	0.000000	0.008686	0.000000	0.000002	-0.000002	0.000000	0.000000
50.425482	10.819980	25.818470	-0.077206	0.101660	2.138182	0.000000	0.008686	0.000000	0.000001	-0.000002	0.000000	0.000000
50.758816	10.881781	25.755044	-0.108197	0.088616	2.141078	0.000000	0.008686	0.000000	0.000001	-0.000002	0.000000	0.000000
51.092149	10.964242	25.700315	-0.139187	0.075572	2.143974	0.000000	0.008686	0.000000	0.000000	-0.000002	0.000000	0.000000
51.426732	11.067565	25.654646	-0.080507	-0.145644	2.146858	0.000000	-0.008731	0.000000	-0.000000	-0.000002	0.000000	0.000000
51.724055	11.123477	25.744771	-0.080267	-0.220614	2.144263	0.000000	-0.013989	0.000000	-0.000001	-0.000002	0.000000	0.000000
52.165015	11.339515	25.652906	-0.411516	0.428153	2.151683	0.000000	0.047674	0.000000	-0.000002	-0.000002	0.000000	0.000000
52.605975	11.854842	24.995317	-0.761566	1.057439	2.186389	0.000000	0.109881	0.000000	-0.000002	-0.000002	0.000000	0.000000
53.046935	12.693003	23.801925	-1.146410	1.638612	2.248774	0.000000	0.173339	0.000000	-0.000003	-0.000002	0.000000	0.000000
53.487895	13.892291	22.127028	-1.583629	2.145231	2.339551	0.000000	0.238771	0.000000	-0.000004	-0.000002	0.000000	0.000000
53.933855	15.528058	20.021791	-2.097428	2.555580	2.461256	0.000000	0.307322	0.000000	-0.000005	-0.000002	0.000000	0.000000
54.482915	17.634081	17.652836	-1.715556	1.784453	2.609815	0.000000	0.233018	0.000000	-0.000006	-0.000002	0.000000	0.000000
55.031975	19.251335	16.056324	-1.212505	1.140430	2.716380	0.000000	0.154581	0.000000	-0.000007	-0.000002	0.000000	0.000000
55.581035	20.265585	15.118538	-0.623809	0.577636	2.779061	0.000000	0.073402	0.000000	-0.000007	-0.000001	0.000000	0.000000
56.130095	20.605190	14.772683	0.008949	0.055986	2.796746	0.000000	-0.009079	0.000000	-0.000008	-0.000001	0.000000	0.000000
56.428668	20.636332	14.722290	-0.059411	0.074195	2.796217	0.000000	-0.001772	0.000000	-0.000008	-0.000001	0.000000	0.000000
56.762001	20.681342	14.680415	-0.075621	0.051429	2.795627	0.000000	-0.001772	0.000000	-0.000009	-0.000001	0.000000	0.000000
57.095334	20.737160	14.653718	-0.091831	0.028663	2.795037	0.000000	-0.001772	0.000000	-0.000009	-0.000001	0.000000	0.000000
57.429918	20.804054	14.642183	-0.108101	0.005812	2.794445	0.000000	-0.001772	0.000000	-0.000009	-0.000001	0.000000	0.000000
57.727240	20.872634	14.644765	-0.177101	0.023772	2.793918	0.000000	0.005529	0.000000	-0.000010	-0.000001	0.000000	0.000000
58.276300	20.711039	14.899848	0.469671	-0.491096	2.774316	0.000000	-0.076829	0.000000	-0.000010	-0.000001	0.000000	0.000000
58.825360	19.853305	15.736094	1.083268	-1.040945	2.709802	0.000000	-0.157825	0.000000	-0.000011	-0.000000	0.000000	0.000000
59.374420	18.360018	17.213067	1.620348	-1.664937	2.601520	0.000000	-0.236021	0.000000	-0.000011	-0.000000	0.000000	0.000000
59.923480	16.336656	19.435968	2.042975	-2.407519	2.451391	0.000000	-0.310031	0.000000	-0.000011	0.000000	0.000000	0.000000
60.369440	14.753013	21.411682	1.520690	-2.004029	2.328419	0.000000	-0.241753	0.000000	-0.000011	-0.000000	0.000000	0.000000
60.810400	13.614024	22.967471	1.072083	-1.510733	2.236263	0.000000	-0.176625	0.000000	-0.000011	-0.000000	0.000000	0.000000
61.251360	12.847659	24.056125	0.672457	-0.948700	2.172355	0.000000	-0.113509	0.000000	-0.000011	-0.000001	0.000000	0.000000
61.692320	12.418904	24.628111	0.303553	-0.343502	2.135968	0.000000	-0.051686	0.000000	-0.000011	-0.000001	0.000000	0.000000
62.134530	12.308224	24.656862	-0.021397	0.216799	2.126692	0.000000	0.004333	0.000000	-0.000012	-0.000001	0.000000	0.000000
62.431853	12.328133	24.531697	-0.045564	0.204174	2.127981	0.000000	0.004333	0.000000	-0.000012	-0.000001	0.000000	0.000000
62.765186	12.367541	24.400299	-0.072659	0.190019	2.129426	0.000000	0.004333	0.000000	-0.000012	-0.000001	0.000000	0.000000
63.098520	12.425011	24.278338	-0.099754	0.175865	2.130870	0.000000	0.004333	0.000000	-0.000013	-0.000001	0.000000	0.000000
63.433103	12.500863	24.165408	-0.126950	0.161658	2.132320	0.000000	0.004333	0.000000	-0.000013	-0.000001	0.000000	0.000000
63.730426	12.583538	24.073033	-0.120255	0.089990	2.133609	0.000000	-0.000900	0.000000	-0.000013	-0.000001	0.000000	0.000000
64.171386	12.849861	23.728558	-0.485998	0.688231	2.146751	0.000000	0.060562	0.000000	-0.000014	-0.000001	0.000000	0.000000
64.612346	13.447274	22.868327	-0.873944	1.255158	2.187122	0.000000	0.122715	0.000000	-0.000015	-0.000002	0.000000	0.000000
65.053306	14.403072	21.531482	-1.301819	1.764977	2.255182	0.000000	0.186265	0.000000	-0.000016	-0.000002	0.000000	0.000000
65.494266	15.760923	19.778846	-1.789170	2.194490	2.351706	0.000000	0.251937	0.000000	-0.000017	-0.000003	0.000000	0.000000
65.940226	17.606022	17.665367	-2.362954	2.524908	2.479365	0.000000	0.320879	0.000000	-0.000018	-0.000003	0.000000	0.000000
66.489286	19.971348	15.301071	-1.919502	1.806589	2.635186	0.000000	0.245871	0.000000	-0.000020	-0.000002	0.000000	0.000000
67.038346	21.771923	13.650709	-1.340465	1.216950	2.748563	0.000000	0.166502	0.000000	-0.000021	-0.000002	0.000000	0.000000
67.587406	22.880563	12.596729	-0.666745	0.713991	2.817484	0.000000	0.084179	0.000000	-0.000022	-0.000001	0.000000	0.000000
68.136466	23.218960	12.064057	0.054071	0.261888	2.840728	0.000000	0.000363	0.000000	-0.000022	-0.000000	0.000000	0.000000
68.435038	23.226745	11.896872	-0.019467	0.266535	2.843053	0.000000	0.007786	0.000000	-0.000022	-0.000000	0.000000	0.000000
68.768372	23.244508	11.729185	-0.033823	0.236526	2.845648	0.000000	0.007786	0.000000	-0.000022	-0.000000	0.000000	0.000000
69.101705	23.271843	11.581503	-0.048180	0.206517	2.848244	0.000000	0.007786	0.000000	-0.000022	-0.000000	0.000000	0.000000
69.436288	23.308905	11.453387	-0.062591	0.176395	2.850849	0.000000	0.007786	0.000000	-0.000023	-0.000000	0.000000	0.000000
69.733611	23.349932	11.356453	-0.136417	0.179306	2.853165	0.000000	0.015243	0.000000	-0.000023	-0.000001	0.000000	0.000000
70.282671	23.098708	11.387008	0.591261	-0.235284	2.838354	0.000000	-0.069113	0.000000	-0.000023	0.000000	0.000000	0.000000
