#ParticleID	Turn	x[m]	xp	y[m]	yp	z[m]	dE[GeV]# s	beta_x	beta_y	alpha_x	alpha_y	D_x	D_y	D_px	D_py	orbit_x	orbit_px	orbit_y	orbit_py
0.300000	11.805892	25.050383	-0.010233	-0.026912	2.618195	0.000000	-0.000019	0.000000	-0.000001	0.000002	0.000000	0.000000
0.601250	11.819745	25.070223	-0.035753	-0.038946	2.618189	0.000000	-0.000019	0.000000	-0.000001	0.000002	0.000000	0.000000
0.898573	11.848494	25.096914	-0.031883	-0.112368	2.618183	0.000000	-0.006439	0.000000	-0.000000	0.000002	0.000000	0.000000
1.339533	12.028648	24.917603	-0.378214	0.517456	2.631637	0.000000	0.067520	0.000000	0.000001	0.000002	0.000000	0.000000
1.780493	12.520674	24.191138	-0.741825	1.123737	2.677842	0.000000	0.142248	0.000000	0.000001	0.000002	0.000000	0.000000
2.221453	13.347052	22.950572	-1.139327	1.678888	2.757324	0.000000	0.218596	0.000000	0.000002	0.000002	0.000000	0.000000
2.662413	14.545537	21.252349	-1.588882	2.157652	2.870989	0.000000	0.297433	0.000000	0.000003	0.000002	0.000000	0.000000
3.108373	16.191606	19.148834	-2.115314	2.539377	3.021993	0.000000	0.380148	0.000000	0.000004	0.000002	0.000000	0.000000
3.657433	18.302446	16.786230	-1.706389	1.789021	3.205444	0.000000	0.287110	0.000000	0.000005	0.000002	0.000000	0.000000
4.206493	19.894991	15.173217	-1.176933	1.166092	3.336337	0.000000	0.188980	0.000000	0.000006	0.000002	0.000000	0.000000
4.755553	20.856751	14.194904	-0.564345	0.626222	3.412349	0.000000	0.087498	0.000000	0.000006	0.000001	0.000000	0.000000
5.304613	21.119792	13.781607	0.088107	0.130956	3.432133	0.000000	-0.015537	0.000000	0.000007	0.000001	0.000000	0.000000
5.603185	21.104355	13.688555	0.018775	0.144694	3.430171	0.000000	-0.006570	0.000000	0.000007	0.000001	0.000000	0.000000
5.936519	21.097105	13.600379	0.002975	0.119833	3.427981	0.000000	-0.006570	0.000000	0.000008	0.000001	0.000000	0.000000
6.269852	21.100388	13.528778	-0.012825	0.094972	3.425791	0.000000	-0.006570	0.000000	0.000008	0.000001	0.000000	0.000000
6.604435	21.114276	13.473575	-0.028684	0.070017	3.423592	0.000000	-0.006570	0.000000	0.000009	0.000001	0.000000	0.000000
6.901758	21.135523	13.438533	-0.097996	0.082952	3.421638	0.000000	0.002370	0.000000	0.000009	0.000001	0.000000	0.000000
7.450818	20.882953	13.608383	0.555279	-0.394126	3.394738	0.000000	-0.100209	0.000000	0.000010	0.000001	0.000000	0.000000
7.999878	19.930399	14.314371	1.169333	-0.899276	3.311922	0.000000	-0.201011	0.000000	0.000010	0.000001	0.000000	0.000000
8.548938	18.345145	15.606783	1.700790	-1.468480	3.174658	0.000000	-0.298247	0.000000	0.000010	0.000000	0.000000	0.000000
9.097998	16.239166	17.577675	2.112112	-2.142281	2.985382	0.000000	-0.390193	0.000000	0.000010	-0.000000	0.000000	0.000000
9.543958	14.596163	19.333811	1.585181	-1.778952	2.829678	0.000000	-0.308489	0.000000	0.000010	0.000000	0.000000	0.000000
9.984918	13.401224	20.712592	1.134956	-1.335918	2.710893	0.000000	-0.230782	0.000000	0.000010	0.000000	0.000000	0.000000
10.425878	12.579069	21.672253	0.736584	-0.832101	2.625761	0.000000	-0.155704	0.000000	0.000011	0.000001	0.000000	0.000000
10.866838	12.092135	22.169133	0.371864	-0.290424	2.573313	0.000000	-0.082399	0.000000	0.000011	0.000001	0.000000	0.000000
11.309048	11.918043	22.180097	0.053253	0.210021	2.552933	0.000000	-0.016293	0.000000	0.000012	0.000001	0.000000	0.000000
11.606371	11.893815	22.059370	0.028235	0.196025	2.548088	0.000000	-0.016293	0.000000	0.000012	0.000001	0.000000	0.000000
12.086371	11.886096	21.882033	-0.012155	0.173429	2.540267	0.000000	-0.016293	0.000000	0.000013	0.000001	0.000000	0.000000
12.566371	11.917152	21.726386	-0.052544	0.150834	2.532446	0.000000	-0.016293	0.000000	0.000013	0.000001	0.000000	0.000000
13.046371	11.986981	21.592432	-0.092933	0.128238	2.524625	0.000000	-0.016293	0.000000	0.000014	0.000001	0.000000	0.000000
13.526371	12.095583	21.480170	-0.133322	0.105642	2.516804	0.000000	-0.016293	0.000000	0.000015	0.000001	0.000000	0.000000
14.007621	12.243394	21.389391	-0.173817	0.082988	2.508962	0.000000	-0.016293	0.000000	0.000015	0.000001	0.000000	0.000000
14.304943	12.354192	21.344204	-0.168543	0.016658	2.504118	0.000000	-0.022433	0.000000	0.000016	0.000001	0.000000	0.000000
14.745903	12.661318	21.095917	-0.530593	0.544261	2.509856	0.000000	0.048486	0.000000	0.000016	0.000002	0.000000	0.000000
15.186863	13.297186	20.391510	-0.916884	1.047100	2.546958	0.000000	0.119957	0.000000	0.000017	0.000002	0.000000	0.000000
15.627823	14.290846	19.263032	-1.345065	1.502298	2.615847	0.000000	0.192795	0.000000	0.000018	0.000003	0.000000	0.000000
16.068783	15.687696	17.761830	-1.834698	1.889142	2.717308	0.000000	0.267828	0.000000	0.000019	0.000003	0.000000	0.000000
16.514743	17.575215	15.934706	-2.412912	2.190774	2.854190	0.000000	0.346374	0.000000	0.000021	0.000004	0.000000	0.000000
17.063803	19.999564	13.894617	-1.976400	1.546759	3.020640	0.000000	0.259048	0.000000	0.000022	0.000003	0.000000	0.000000
17.612863	21.864608	12.497449	-1.400285	1.012916	3.137809	0.000000	0.167128	0.000000	0.000024	0.000002	0.000000	0.000000
18.161923	23.038611	11.643684	-0.725261	0.551220	3.203620	0.000000	0.072244	0.000000	0.000025	0.000001	0.000000	0.000000
18.710983	23.438647	11.272509	0.000992	0.128787	3.216904	0.000000	-0.023922	0.000000	0.000025	0.000000	0.000000	0.000000
19.009556	23.478434	11.186127	-0.073021	0.131084	3.212271	0.000000	-0.015519	0.000000	0.000025	0.000001	0.000000	0.000000
19.342889	23.531872	11.108841	-0.087294	0.100773	3.207098	0.000000	-0.015519	0.000000	0.000026	0.000001	0.000000	0.000000
19.676223	23.594826	11.051763	-0.101567	0.070462	3.201924	0.000000	-0.015519	0.000000	0.000026	0.000001	0.000000	0.000000
20.010806	23.667877	11.014655	-0.233157	0.094611	3.196752	0.000000	0.000320	0.000000	0.000026	0.000001	0.000000	0.000000
20.308129	23.810461	10.966492	-0.308601	0.096024	3.196846	0.000000	0.008671	0.000000	0.000026	0.000001	0.000000	0.000000
20.857189	23.738662	11.082986	0.438595	-0.309445	3.175390	0.000000	-0.086713	0.000000	0.000026	-0.000000	0.000000	0.000000
21.406249	22.858577	11.654150	1.154810	-0.736954	3.101908	0.000000	-0.180559	0.000000	0.000026	-0.000001	0.000000	0.000000
21.955309	21.232371	12.720669	1.789456	-1.216955	2.977704	0.000000	-0.271202	0.000000	0.000025	-0.000002	0.000000	0.000000
22.504369	18.974911	14.358507	2.297703	-1.783637	2.804981	0.000000	-0.357034	0.000000	0.000024	-0.000003	0.000000	0.000000
22.950329	17.195739	15.829079	1.705910	-1.499992	2.663051	0.000000	-0.279831	0.000000	0.000023	-0.000002	0.000000	0.000000
23.391289	15.920618	17.001618	1.196752	-1.148950	2.555978	0.000000	-0.206269	0.000000	0.000022	-0.000001	0.000000	0.000000
23.832249	15.068818	17.840245	0.742270	-0.745632	2.480795	0.000000	-0.135056	0.000000	0.000022	-0.000001	0.000000	0.000000
24.273209	14.601423	18.306801	0.321700	-0.308388	2.436645	0.000000	-0.065381	0.000000	0.000022	-0.000000	0.000000	0.000000
24.715418	14.497200	18.379815	-0.048715	0.097754	2.423022	0.000000	-0.002392	0.000000	0.000022	0.000000	0.000000	0.000000
25.012741	14.532280	18.326541	-0.069272	0.081423	2.422311	0.000000	-0.002392	0.000000	0.000022	0.000000	0.000000	0.000000
25.346075	14.586145	18.278362	-0.092320	0.063114	2.421513	0.000000	-0.002392	0.000000	0.000022	0.000000	0.000000	0.000000
25.679408	14.655374	18.242389	-0.115368	0.044805	2.420716	0.000000	-0.002392	0.000000	0.000022	0.000000	0.000000	0.000000
26.013991	14.740015	18.218926	-0.018921	-0.121374	2.419891	0.000000	-0.022024	0.000000	0.000022	0.000000	0.000000	0.000000
26.311314	14.757266	18.296024	-0.002918	-0.182792	2.413343	0.000000	-0.027941	0.000000	0.000022	0.000000	0.000000	0.000000
26.752274	14.941639	18.258834	-0.416787	0.266809	2.416131	0.000000	0.040600	0.000000	0.000022	0.000001	0.000000	0.000000
27.193234	15.497998	17.828991	-0.849698	0.704271	2.449216	0.000000	0.109603	0.000000	0.000023	0.000001	0.000000	0.000000
27.634194	16.451761	17.026051	-1.321429	1.109689	2.512975	0.000000	0.179855	0.000000	0.000023	0.000002	0.000000	0.000000
28.075154	17.846502	15.886549	-1.853533	1.464616	2.608133	0.000000	0.252155	0.000000	0.000024	0.000002	0.000000	0.000000
28.521114	19.770172	14.445163	-2.475292	1.753817	2.737377	0.000000	0.327770	0.000000	0.000025	0.000003	0.000000	0.000000
29.070174	22.215159	12.839258	-1.951387	1.188273	2.894679	0.000000	0.244377	0.000000	0.000027	0.000002	0.000000	0.000000
29.619234	24.005279	11.804545	-1.289646	0.707368	3.004934	0.000000	0.156650	0.000000	0.000028	0.000001	0.000000	0.000000
30.168294	25.014085	11.267323	-0.536810	0.276847	3.066188	0.000000	0.066145	0.000000	0.000028	0.000000	0.000000	0.000000
30.717354	25.170321	11.189328	0.253943	-0.133955	3.077354	0.000000	-0.025534	0.000000	0.000028	-0.000001	0.000000	0.000000
31.015927	25.061609	11.259919	0.175911	-0.131703	3.072130	0.000000	-0.017495	0.000000	0.000028	-0.000000	0.000000	0.000000
31.349260	24.948906	11.357760	0.162199	-0.161820	3.066299	0.000000	-0.017495	0.000000	0.000028	-0.000000	0.000000	0.000000
31.682593	24.845344	11.475679	0.148487	-0.191937	3.060467	0.000000	-0.017495	0.000000	0.000028	-0.000000	0.000000	0.000000
32.017177	24.750586	11.614231	0.134723	-0.222167	3.054614	0.000000	-0.017495	0.000000	0.000028	-0.000000	0.000000	0.000000
32.314499	24.674110	11.754329	0.058039	-0.218326	3.049412	0.000000	-0.009529	0.000000	0.000027	-0.000000	0.000000	0.000000
32.863559	24.187601	12.233251	0.822791	-0.659081	3.019300	0.000000	-0.099996	0.000000	0.000027	-0.000001	0.000000	0.000000
33.412619	22.888401	13.218960	1.529426	-1.146782	2.939932	0.000000	-0.188689	0.000000	0.000026	-0.000002	0.000000	0.000000
33.961679	20.868278	14.781666	2.128030	-1.716165	2.812714	0.000000	-0.274035	0.000000	0.000025	-0.000003	0.000000	0.000000
34.510739	18.269925	17.032677	2.576320	-2.407787	2.639905	0.000000	-0.354520	0.000000	0.000023	-0.000004	0.000000	0.000000
34.956699	16.249549	19.046154	1.970307	-2.088290	2.498145	0.000000	-0.281596	0.000000	0.000021	-0.000003	0.000000	0.000000
35.397659	14.742931	20.711741	1.459330	-1.674520	2.389354	0.000000	-0.212307	0.000000	0.000020	-0.000003	0.000000	0.000000
35.838619	13.655962	21.977298	1.015026	-1.184561	2.310554	0.000000	-0.145437	0.000000	0.000019	-0.000002	0.000000	0.000000
36.279579	12.938982	22.785242	0.617095	-0.640705	2.260849	0.000000	-0.080222	0.000000	0.000018	-0.000002	0.000000	0.000000
36.721789	12.558538	23.099124	0.278045	-0.124388	2.239645	0.000000	-0.021413	0.000000	0.000018	-0.000001	0.000000	0.000000
37.019112	12.400783	23.176977	0.252539	-0.137459	2.233279	0.000000	-0.021413	0.000000	0.000017	-0.000001	0.000000	0.000000
37.352445	12.241955	23.273501	0.223945	-0.152113	2.226141	0.000000	-0.021413	0.000000	0.000017	-0.000001	0.000000	0.000000
37.685779	12.102190	23.379794	0.195351	-0.166767	2.219004	0.000000	-0.021413	0.000000	0.000016	-0.000001	0.000000	0.000000
38.020362	11.981070	23.496311	0.166649	-0.181476	2.211840	0.000000	-0.021413	0.000000	0.000016	-0.000001	0.000000	0.000000
38.317684	11.889557	23.608110	0.170296	-0.252432	2.205474	0.000000	-0.026821	0.000000	0.000016	-0.000001	0.000000	0.000000
38.758644	11.890920	23.569234	-0.173400	0.340260	2.207573	0.000000	0.036352	0.000000	0.000015	-0.000001	0.000000	0.000000
39.199604	12.197730	23.012507	-0.525018	0.917470	2.237595	0.000000	0.099939	0.000000	0.000015	-0.000000	0.000000	0.000000
39.640564	12.824006	21.963260	-0.900624	1.452936	2.295879	0.000000	0.164664	0.000000	0.000015	-0.000000	0.000000	0.000000
40.081524	13.798358	20.469232	-1.317376	1.922295	2.383091	0.000000	0.231265	0.000000	0.000015	0.000000	0.000000	0.000000
40.527484	15.182882	18.575824	-1.798143	2.305477	2.501694	0.000000	0.300905	0.000000	0.000015	0.000001	0.000000	0.000000
41.076544	16.949588	16.448044	-1.400501	1.592710	2.646381	0.000000	0.225354	0.000000	0.000015	0.000000	0.000000	0.000000
41.625604	18.222396	15.036454	-0.903934	0.993387	2.748425	0.000000	0.145805	0.000000	0.000015	-0.000000	0.000000	0.000000
42.174664	18.911401	14.240508	-0.343519	0.464822	2.806018	0.000000	0.063670	0.000000	0.000015	-0.000001	0.000000	0.000000
42.723724	18.967936	14.003513	0.241162	-0.030636	2.818136	0.000000	-0.019594	0.000000	0.000014	-0.000001	0.000000	0.000000
43.022297	18.858390	14.006326	0.175289	-0.015373	2.814484	0.000000	-0.012232	0.000000	0.000014	-0.000001	0.000000	0.000000
43.502297	18.702705	14.037539	0.149054	-0.049652	2.808614	0.000000	-0.012232	0.000000	0.000013	-0.000001	0.000000	0.000000
43.982297	18.572206	14.101658	0.122819	-0.083930	2.802743	0.000000	-0.012232	0.000000	0.000013	-0.000001	0.000000	0.000000
44.462297	18.466892	14.198684	0.096584	-0.118208	2.796872	0.000000	-0.012232	0.000000	0.000012	-0.000001	0.000000	0.000000
44.942297	18.386764	14.328618	0.070349	-0.152487	2.791001	0.000000	-0.012232	0.000000	0.000012	-0.000001	0.000000	0.000000
45.423547	18.331938	14.491746	-0.046780	-0.115053	2.785133	0.000000	0.001567	0.000000	0.000011	-0.000001	0.000000	0.000000
45.720870	18.364589	14.566343	-0.111014	-0.097786	2.785599	0.000000	0.008845	0.000000	0.000011	-0.000001	0.000000	0.000000
46.269930	18.177279	14.955394	0.450140	-0.614973	2.767886	0.000000	-0.073275	0.000000	0.000010	-0.000001	0.000000	0.000000
46.818990	17.387647	15.932955	0.979498	-1.175963	2.705375	0.000000	-0.154094	0.000000	0.000009	-0.000002	0.000000	0.000000
47.368050	16.051469	17.568655	1.439669	-1.820714	2.599176	0.000000	-0.232181	0.000000	0.000008	-0.000002	0.000000	0.000000
47.917110	14.263125	19.979002	1.798149	-2.595151	2.451171	0.000000	-0.306149	0.000000	0.000007	-0.000002	0.000000	0.000000
48.363070	12.871525	22.121936	1.333367	-2.189862	2.329933	0.000000	-0.237854	0.000000	0.000006	-0.000002	0.000000	0.000000
48.804030	11.875805	23.837658	0.933272	-1.686212	2.239509	0.000000	-0.172665	0.000000	0.000005	-0.000002	0.000000	0.000000
49.244990	11.212872	25.073545	0.575816	-1.105841	2.177370	0.000000	-0.109443	0.000000	0.000004	-0.000002	0.000000	0.000000
49.685950	10.852439	25.773364	0.244668	-0.475155	2.142808	0.000000	-0.047467	0.000000	0.000003	-0.000002	0.000000	0.000000
50.128160	10.778160	25.904990	-0.048988	0.113576	2.135441	0.000000	0.008732	0.000000	0.000003	-0.000002	0.000000	0.000000
50.425482	10.815512	25.840909	-0.076640	0.101950	2.138038	0.000000	0.008732	0.000000	0.000002	-0.000002	0.000000	0.000000
50.758816	10.876939	25.777287	-0.107641	0.088917	2.140949	0.000000	0.008732	0.000000	0.000001	-0.000002	0.000000	0.000000
51.092149	10.959033	25.722354	-0.138642	0.075883	2.143860	0.000000	0.008732	0.000000	0.000001	-0.000002	0.000000	0.000000
51.426732	11.061995	25.676473	-0.080017	-0.145499	2.146761	0.000000	-0.008684	0.000000	0.000000	-0.000002	0.000000	0.000000
51.724055	11.117619	25.766509	-0.079803	-0.220512	2.144180	0.000000	-0.013942	0.000000	-0.000000	-0.000002	0.000000	0.000000
52.165015	11.333185	25.674299	-0.410907	0.428827	2.151621	0.000000	0.047720	0.000000	-0.000001	-0.000002	0.000000	0.000000
52.605975	11.847901	25.015873	-0.760785	1.058655	2.186346	0.000000	0.109925	0.000000	-0.000002	-0.000002	0.000000	0.000000
53.046935	12.685284	23.821190	-1.145420	1.640315	2.248751	0.000000	0.173382	0.000000	-0.000003	-0.000002	0.000000	0.000000
53.487895	13.883591	22.144605	-1.582387	2.147341	2.339546	0.000000	0.238814	0.000000	-0.000003	-0.000002	0.000000	0.000000
53.933855	15.518115	20.037337	-2.095872	2.558004	2.461271	0.000000	0.307365	0.000000	-0.000004	-0.000002	0.000000	0.000000
54.482915	17.622566	17.666064	-1.714265	1.786275	2.609854	0.000000	0.233060	0.000000	-0.000005	-0.000002	0.000000	0.000000
55.031975	19.238592	16.067821	-1.211572	1.141779	2.716442	0.000000	0.154621	0.000000	-0.000006	-0.000002	0.000000	0.000000
55.581035	20.252044	15.128769	-0.623299	0.578608	2.779144	0.000000	0.073440	0.000000	-0.000007	-0.000001	0.000000	0.000000
56.130095	20.591338	14.782020	0.009001	0.056651	2.796850	0.000000	-0.009044	0.000000	-0.000008	-0.000001	0.000000	0.000000
56.428668	20.622431	14.731211	-0.059333	0.074895	2.796332	0.000000	-0.001736	0.000000	-0.000008	-0.000001	0.000000	0.000000
56.762001	20.667393	14.688866	-0.075553	0.052140	2.795754	0.000000	-0.001736	0.000000	-0.000009	-0.000001	0.000000	0.000000
57.095334	20.723168	14.661691	-0.091774	0.029386	2.795175	0.000000	-0.001736	0.000000	-0.000009	-0.000001	0.000000	0.000000
57.429918	20.790028	14.649669	-0.108055	0.006546	2.794595	0.000000	-0.001736	0.000000	-0.000009	-0.000001	0.000000	0.000000
57.727240	20.858584	14.651811	-0.177027	0.024535	2.794079	0.000000	0.005565	0.000000	-0.000010	-0.000001	0.000000	0.000000
58.276300	20.697167	14.906163	0.469275	-0.490519	2.774495	0.000000	-0.076799	0.000000	-0.000010	-0.000001	0.000000	0.000000
58.825360	19.840113	15.741858	1.082431	-1.040512	2.709996	0.000000	-0.157800	0.000000	-0.000011	-0.000001	0.000000	0.000000
59.374420	18.347962	17.218421	1.619129	-1.664618	2.601726	0.000000	-0.236003	0.000000	-0.000011	-0.000000	0.000000	0.000000
59.923480	16.326112	19.441024	2.041460	-2.407292	2.451606	0.000000	-0.310020	0.000000	-0.000011	0.000000	0.000000	0.000000
60.369440	14.743673	21.416449	1.519494	-2.003611	2.328640	0.000000	-0.241736	0.000000	-0.000011	-0.000000	0.000000	0.000000
60.810400	13.605620	22.971794	1.071149	-1.510145	2.236493	0.000000	-0.176602	0.000000	-0.000011	-0.000000	0.000000	0.000000
61.251360	12.839979	24.059864	0.671742	-0.947969	2.172596	0.000000	-0.113480	0.000000	-0.000012	-0.000001	0.000000	0.000000
61.692320	12.411770	24.631154	0.303025	-0.342661	2.136223	0.000000	-0.051651	0.000000	-0.000012	-0.000001	0.000000	0.000000
62.134530	12.301484	24.659126	-0.021779	0.217706	2.126964	0.000000	0.004374	0.000000	-0.000012	-0.000001	0.000000	0.000000
62.431853	12.321625	24.533423	-0.045960	0.205077	2.128265	0.000000	0.004374	0.000000	-0.000013	-0.000001	0.000000	0.000000
62.765186	12.361302	24.401424	-0.073070	0.190919	2.129724	0.000000	0.004374	0.000000	-0.000013	-0.000001	0.000000	0.000000
63.098520	12.419052	24.278865	-0.100180	0.176760	2.131182	0.000000	0.004374	0.000000	-0.000014	-0.000001	0.000000	0.000000
63.433103	12.495193	24.165338	-0.127392	0.162549	2.132646	0.000000	0.004374	0.000000	-0.000014	-0.000001	0.000000	0.000000
63.730426	12.578136	24.072434	-0.120723	0.090879	2.133947	0.000000	-0.000860	0.000000	-0.000015	-0.000001	0.000000	0.000000
64.171386	12.844821	23.727189	-0.486356	0.689081	2.147109	0.000000	0.060612	0.000000	-0.000015	-0.000002	0.000000	0.000000
64.612346	13.442508	22.866241	-0.874208	1.255930	2.187504	0.000000	0.122774	0.000000	-0.000016	-0.000002	0.000000	0.000000
65.053306	14.398502	21.528762	-1.302001	1.765636	2.255592	0.000000	0.186334	0.000000	-0.000017	-0.000002	0.000000	0.000000
65.494266	15.756480	19.775606	-1.789279	2.195006	2.352149	0.000000	0.252017	0.000000	-0.000018	-0.000003	0.000000	0.000000
65.940226	17.601645	17.661740	-2.362994	2.525257	2.479847	0.000000	0.320971	0.000000	-0.000020	-0.000003	0.000000	0.000000
66.489286	19.967122	15.297049	-1.919736	1.806966	2.635714	0.000000	0.245947	0.000000	-0.000021	-0.000003	0.000000	0.000000
67.038346	21.768054	13.646246	-1.340877	1.217380	2.749127	0.000000	0.166559	0.000000	-0.000023	-0.000002	0.000000	0.000000
67.587406	22.877232	12.591749	-0.667306	0.714507	2.818075	0.000000	0.084218	0.000000	-0.000024	-0.000001	0.000000	0.000000
68.136466	23.216310	12.058448	0.053400	0.262526	2.841335	0.000000	0.000383	0.000000	-0.000024	-0.000001	0.000000	0.000000
68.435038	23.224493	11.890896	-0.020133	0.267137	2.843667	0.000000	0.007808	0.000000	-0.000024	-0.000001	0.000000	0.000000
68.768372	23.242701	11.722815	-0.034492	0.237104	2.846270	0.000000	0.007808	0.000000	-0.000024	-0.000001	0.000000	0.000000
69.101705	23.270482	11.574757	-0.048850	0.207071	2.848873	0.000000	0.007808	0.000000	-0.000025	-0.000001	0.000000	0.000000
69.436288	23.307993	11.446278	-0.063263	0.176925	2.851485	0.000000	0.007808	0.000000	-0.000025	-0.000001	0.000000	0.000000
69.733611	23.349420	11.349035	-0.137091	0.179796	2.853807	0.000000	0.015266	0.000000	-0.000025	-0.000001	0.000000	0.000000
70.282671	23.098939	11.378936	0.590590	-0.234576	2.839003	0.000000	-0.069110	0.000000	-0.000025	0.000000	0.000000	0.000000
