#ParticleID	Turn	x[m]	xp	y[m]	yp	z[m]	dE[GeV]# s	beta_x	beta_y	alpha_x	alpha_y	D_x	D_y	D_px	D_py	orbit_x	orbit_px	orbit_y	orbit_py
0.300000	11.825019	24.973315	-0.012402	-0.027657	2.618136	0.000000	0.000003	0.000000	-0.000000	0.000001	0.000000	0.000000
0.601250	11.840167	24.993615	-0.037882	-0.039729	2.618136	0.000000	0.000003	0.000000	-0.000000	0.000001	0.000000	0.000000
0.898573	11.870170	25.020782	-0.033920	-0.113002	2.618137	0.000000	-0.006418	0.000000	0.000000	0.000001	0.000000	0.000000
1.339533	12.052353	24.842917	-0.380797	0.514824	2.631600	0.000000	0.067540	0.000000	0.000000	0.000001	0.000000	0.000000
1.780493	12.546941	24.119614	-0.745073	1.119227	2.677814	0.000000	0.142267	0.000000	0.000001	0.000001	0.000000	0.000000
2.221453	13.376529	22.883781	-1.143388	1.672705	2.757306	0.000000	0.218615	0.000000	0.000001	0.000001	0.000000	0.000000
2.662413	14.579020	21.191648	-1.593941	2.150076	2.870980	0.000000	0.297452	0.000000	0.000001	0.000001	0.000000	0.000000
3.108373	16.230136	19.095388	-2.121614	2.530752	3.021992	0.000000	0.380167	0.000000	0.000002	0.000001	0.000000	0.000000
3.657433	18.347383	16.741052	-1.711691	1.782499	3.205455	0.000000	0.287129	0.000000	0.000002	0.000001	0.000000	0.000000
4.206493	19.945026	15.134263	-1.180863	1.161210	3.336358	0.000000	0.188998	0.000000	0.000002	0.000001	0.000000	0.000000
4.755553	20.910216	14.160574	-0.566625	0.622632	3.412381	0.000000	0.087515	0.000000	0.000003	0.000001	0.000000	0.000000
5.304613	21.174775	13.750632	0.087637	0.128402	3.432174	0.000000	-0.015521	0.000000	0.000003	0.000000	0.000000	0.000000
5.603185	21.159694	13.659162	0.018198	0.142029	3.430217	0.000000	-0.006553	0.000000	0.000003	0.000000	0.000000	0.000000
5.936519	21.152815	13.572774	0.002439	0.117133	3.428033	0.000000	-0.006553	0.000000	0.000003	0.000000	0.000000	0.000000
6.269852	21.156441	13.502984	-0.013319	0.092237	3.425848	0.000000	-0.006553	0.000000	0.000003	0.000000	0.000000	0.000000
6.604435	21.170646	13.449624	-0.029137	0.067248	3.423655	0.000000	-0.006553	0.000000	0.000003	0.000000	0.000000	0.000000
6.901758	21.192152	13.416238	-0.098562	0.080095	3.421707	0.000000	0.002387	0.000000	0.000004	0.000000	0.000000	0.000000
7.450818	20.939159	13.588893	0.556610	-0.396408	3.394816	0.000000	-0.100195	0.000000	0.000004	0.000000	0.000000	0.000000
7.999878	19.984139	14.297147	1.172466	-0.901145	3.312007	0.000000	-0.200999	0.000000	0.000004	0.000000	0.000000	0.000000
8.548938	18.394550	15.591446	1.705505	-1.470069	3.174750	0.000000	-0.298238	0.000000	0.000004	0.000000	0.000000	0.000000
9.097998	16.282673	17.563980	2.118076	-2.143703	2.985478	0.000000	-0.390187	0.000000	0.000004	-0.000000	0.000000	0.000000
9.543958	14.634944	19.321651	1.589852	-1.780959	2.829777	0.000000	-0.308480	0.000000	0.000004	0.000000	0.000000	0.000000
9.984918	13.436371	20.702423	1.138559	-1.338412	2.710996	0.000000	-0.230771	0.000000	0.000004	0.000000	0.000000	0.000000
10.425878	12.611447	21.664459	0.739283	-0.834970	2.625870	0.000000	-0.155690	0.000000	0.000004	0.000000	0.000000	0.000000
10.866838	12.122485	22.163986	0.373783	-0.293536	2.573430	0.000000	-0.082382	0.000000	0.000004	0.000000	0.000000	0.000000
11.309048	11.947007	22.177759	0.054552	0.206808	2.553057	0.000000	-0.016273	0.000000	0.000004	0.000000	0.000000	0.000000
11.606371	11.921990	22.058938	0.029591	0.192828	2.548219	0.000000	-0.016273	0.000000	0.000004	0.000000	0.000000	0.000000
12.086371	11.912925	21.884656	-0.010706	0.170259	2.540408	0.000000	-0.016273	0.000000	0.000005	0.000000	0.000000	0.000000
12.566371	11.942546	21.732040	-0.051003	0.147690	2.532596	0.000000	-0.016273	0.000000	0.000005	0.000000	0.000000	0.000000
13.046371	12.010852	21.601090	-0.091300	0.125122	2.524785	0.000000	-0.016273	0.000000	0.000005	0.000000	0.000000	0.000000
13.526371	12.117842	21.491806	-0.131597	0.102553	2.516973	0.000000	-0.016273	0.000000	0.000005	0.000000	0.000000	0.000000
14.007621	12.263948	21.403989	-0.171999	0.079925	2.509142	0.000000	-0.016273	0.000000	0.000006	0.000000	0.000000	0.000000
14.304943	12.373648	21.360619	-0.166618	0.013565	2.504303	0.000000	-0.022414	0.000000	0.000006	0.000000	0.000000	0.000000
14.745903	12.679250	21.114843	-0.529048	0.541678	2.510051	0.000000	0.048510	0.000000	0.000006	0.000001	0.000000	0.000000
15.186863	13.313896	20.412444	-0.915649	1.045145	2.547165	0.000000	0.119986	0.000000	0.000006	0.000001	0.000000	0.000000
15.627823	14.306581	19.285381	-1.344083	1.501059	2.616068	0.000000	0.192829	0.000000	0.000007	0.000001	0.000000	0.000000
16.068783	15.702660	17.784934	-1.833925	1.888676	2.717546	0.000000	0.267868	0.000000	0.000007	0.000001	0.000000	0.000000
16.514743	17.589568	15.957868	-2.412311	2.191107	2.854448	0.000000	0.346420	0.000000	0.000008	0.000001	0.000000	0.000000
17.063803	20.012866	13.917690	-1.975101	1.546591	3.020921	0.000000	0.259086	0.000000	0.000008	0.000001	0.000000	0.000000
17.612863	21.876139	12.520985	-1.398379	1.012235	3.138110	0.000000	0.167156	0.000000	0.000009	0.000001	0.000000	0.000000
18.161923	23.047775	11.668270	-0.722883	0.549978	3.203934	0.000000	0.072262	0.000000	0.000009	0.000000	0.000000	0.000000
18.710983	23.445015	11.298807	0.003674	0.126895	3.217226	0.000000	-0.023915	0.000000	0.000009	0.000000	0.000000	0.000000
19.009556	23.483213	11.213487	-0.070356	0.129343	3.212595	0.000000	-0.015509	0.000000	0.000009	0.000000	0.000000	0.000000
19.342889	23.534872	11.137333	-0.084621	0.099119	3.207425	0.000000	-0.015509	0.000000	0.000009	0.000000	0.000000	0.000000
19.676223	23.596041	11.081328	-0.098885	0.068896	3.202256	0.000000	-0.015509	0.000000	0.000009	0.000000	0.000000	0.000000
20.010806	23.667295	11.045238	-0.230465	0.093284	3.197086	0.000000	0.000331	0.000000	0.000009	0.000000	0.000000	0.000000
20.308129	23.808274	10.997841	-0.305896	0.094864	3.197185	0.000000	0.008684	0.000000	0.000009	0.000000	0.000000	0.000000
20.857189	23.733558	11.116094	0.441169	-0.311511	3.175732	0.000000	-0.086711	0.000000	0.000010	-0.000000	0.000000	0.000000
21.406249	22.850802	11.690090	1.157073	-0.740074	3.102248	0.000000	-0.180567	0.000000	0.000009	-0.000000	0.000000	0.000000
21.955309	21.222357	12.760711	1.791247	-1.221352	2.978036	0.000000	-0.271221	0.000000	0.000009	-0.000001	0.000000	0.000000
22.504369	18.963250	14.404216	2.298896	-1.789623	2.805299	0.000000	-0.357064	0.000000	0.000009	-0.000001	0.000000	0.000000
22.950329	17.182970	15.879669	1.707214	-1.504906	2.663357	0.000000	-0.279852	0.000000	0.000008	-0.000001	0.000000	0.000000
23.391289	15.906627	17.055987	1.198228	-1.152573	2.556276	0.000000	-0.206283	0.000000	0.000008	-0.000001	0.000000	0.000000
23.832249	15.053426	17.897177	0.743985	-0.747799	2.481088	0.000000	-0.135062	0.000000	0.000008	-0.000000	0.000000	0.000000
24.273209	14.584384	18.364963	0.323733	-0.309001	2.436937	0.000000	-0.065380	0.000000	0.000008	-0.000000	0.000000	0.000000
24.715418	14.478189	18.437817	-0.046313	0.098576	2.423316	0.000000	-0.002385	0.000000	0.000008	0.000000	0.000000	0.000000
25.012741	14.511848	18.384040	-0.066893	0.082293	2.422607	0.000000	-0.002385	0.000000	0.000008	0.000000	0.000000	0.000000
25.346075	14.564134	18.335263	-0.089966	0.064039	2.421812	0.000000	-0.002385	0.000000	0.000008	0.000000	0.000000	0.000000
25.679408	14.631802	18.298655	-0.113038	0.045785	2.421017	0.000000	-0.002385	0.000000	0.000008	0.000000	0.000000	0.000000
26.013991	14.714894	18.274519	-0.016821	-0.120790	2.420195	0.000000	-0.022019	0.000000	0.000008	0.000000	0.000000	0.000000
26.311314	14.730905	18.351254	-0.000910	-0.182297	2.413648	0.000000	-0.027938	0.000000	0.000008	-0.000000	0.000000	0.000000
26.752274	14.913217	18.312968	-0.414102	0.268791	2.416439	0.000000	0.040611	0.000000	0.000008	0.000000	0.000000	0.000000
27.193234	15.466865	17.880752	-0.846212	0.707649	2.449531	0.000000	0.109622	0.000000	0.000008	0.000000	0.000000	0.000000
27.634194	16.417143	17.074272	-1.316984	1.114309	2.513300	0.000000	0.179882	0.000000	0.000008	0.000001	0.000000	0.000000
28.075154	17.807467	15.930223	-1.847925	1.470270	2.608473	0.000000	0.252190	0.000000	0.000009	0.000001	0.000000	0.000000
28.521114	19.725516	14.483426	-2.468252	1.760247	2.737736	0.000000	0.327814	0.000000	0.000009	0.000001	0.000000	0.000000
29.070174	22.163368	12.871304	-1.945509	1.193232	2.895060	0.000000	0.244410	0.000000	0.000010	0.000001	0.000000	0.000000
29.619234	23.947865	11.831788	-1.285345	0.711208	3.005330	0.000000	0.156671	0.000000	0.000010	0.000000	0.000000	0.000000
30.168294	24.952960	11.290836	-0.534391	0.279842	3.066592	0.000000	0.066152	0.000000	0.000010	0.000000	0.000000	0.000000
30.717354	25.107657	11.209916	0.254310	-0.131592	3.077758	0.000000	-0.025539	0.000000	0.000010	-0.000000	0.000000	0.000000
31.015927	24.998644	11.279042	0.176399	-0.129219	3.072533	0.000000	-0.017499	0.000000	0.000010	-0.000000	0.000000	0.000000
31.349260	24.885628	11.375204	0.162650	-0.159265	3.066700	0.000000	-0.017499	0.000000	0.000010	-0.000000	0.000000	0.000000
31.682593	24.781778	11.491396	0.148901	-0.189312	3.060868	0.000000	-0.017499	0.000000	0.000010	-0.000000	0.000000	0.000000
32.017177	24.686756	11.628169	0.135100	-0.219472	3.055013	0.000000	-0.017499	0.000000	0.000010	-0.000000	0.000000	0.000000
32.314499	24.610066	11.766645	0.058540	-0.215531	3.049810	0.000000	-0.009531	0.000000	0.000010	-0.000000	0.000000	0.000000
32.863559	24.124176	12.242622	0.821169	-0.656480	3.019694	0.000000	-0.100010	0.000000	0.000010	-0.000000	0.000000	0.000000
33.412619	22.827879	13.225495	1.525794	-1.144188	2.940314	0.000000	-0.188715	0.000000	0.000009	-0.000001	0.000000	0.000000
33.961679	20.812738	14.785272	2.122644	-1.713394	2.813078	0.000000	-0.274073	0.000000	0.000009	-0.000001	0.000000	0.000000
34.510739	18.221093	17.033053	2.569562	-2.404642	2.640243	0.000000	-0.354570	0.000000	0.000008	-0.000001	0.000000	0.000000
34.956699	16.206069	19.043564	1.965024	-2.084811	2.498461	0.000000	-0.281637	0.000000	0.000008	-0.000001	0.000000	0.000000
35.397659	14.703556	20.705995	1.455269	-1.670870	2.389653	0.000000	-0.212341	0.000000	0.000007	-0.000001	0.000000	0.000000
35.838619	13.619700	21.968318	1.012001	-1.180906	2.310840	0.000000	-0.145463	0.000000	0.000007	-0.000001	0.000000	0.000000
36.279579	12.904983	22.773098	0.614968	-0.637212	2.261124	0.000000	-0.080241	0.000000	0.000006	-0.000001	0.000000	0.000000
36.721789	12.526060	23.084020	0.276642	-0.121184	2.239913	0.000000	-0.021426	0.000000	0.000006	-0.000000	0.000000	0.000000
37.019112	12.369153	23.159968	0.251089	-0.134254	2.233543	0.000000	-0.021426	0.000000	0.000006	-0.000000	0.000000	0.000000
37.352445	12.211309	23.254354	0.222442	-0.148906	2.226401	0.000000	-0.021426	0.000000	0.000006	-0.000000	0.000000	0.000000
37.685779	12.072564	23.358509	0.193794	-0.163558	2.219259	0.000000	-0.021426	0.000000	0.000006	-0.000000	0.000000	0.000000
38.020362	11.952505	23.472877	0.165039	-0.178265	2.212090	0.000000	-0.021426	0.000000	0.000006	-0.000000	0.000000	0.000000
38.317684	11.861963	23.582767	0.168573	-0.249163	2.205720	0.000000	-0.026835	0.000000	0.000005	-0.000000	0.000000	0.000000
38.758644	11.864572	23.541313	-0.174513	0.342813	2.207815	0.000000	0.036344	0.000000	0.000005	-0.000000	0.000000	0.000000
39.199604	12.172114	22.982695	-0.525571	0.919190	2.237833	0.000000	0.099937	0.000000	0.000005	-0.000000	0.000000	0.000000
39.640564	12.798640	21.932328	-0.900642	1.453746	2.296118	0.000000	0.164669	0.000000	0.000005	-0.000000	0.000000	0.000000
40.081524	13.772774	20.438003	-1.316860	1.922157	2.383333	0.000000	0.231276	0.000000	0.000005	0.000000	0.000000	0.000000
40.527484	15.156590	18.545145	-1.797067	2.304391	2.501943	0.000000	0.300922	0.000000	0.000005	0.000000	0.000000	0.000000
41.076544	16.922661	16.418115	-1.400428	1.592423	2.646637	0.000000	0.225362	0.000000	0.000005	0.000000	0.000000	0.000000
41.625604	18.195944	15.006412	-0.904869	0.993880	2.748684	0.000000	0.145805	0.000000	0.000005	-0.000000	0.000000	0.000000
42.174664	18.886502	14.209483	-0.345395	0.466129	2.806274	0.000000	0.063662	0.000000	0.000005	-0.000000	0.000000	0.000000
42.723724	18.945557	13.970566	0.238476	-0.028421	2.818386	0.000000	-0.019610	0.000000	0.000005	-0.000000	0.000000	0.000000
43.022297	18.837584	13.972122	0.172654	-0.013293	2.814729	0.000000	-0.012247	0.000000	0.000005	-0.000000	0.000000	0.000000
43.502297	18.684431	14.001376	0.146414	-0.047653	2.808851	0.000000	-0.012247	0.000000	0.000005	-0.000000	0.000000	0.000000
43.982297	18.556469	14.063616	0.120173	-0.082013	2.802973	0.000000	-0.012247	0.000000	0.000004	-0.000000	0.000000	0.000000
44.462297	18.453698	14.158841	0.093933	-0.116373	2.797095	0.000000	-0.012247	0.000000	0.000004	-0.000000	0.000000	0.000000
44.942297	18.376118	14.287052	0.067692	-0.150734	2.791216	0.000000	-0.012247	0.000000	0.000004	-0.000000	0.000000	0.000000
45.423547	18.323853	14.448533	-0.049403	-0.113596	2.785340	0.000000	0.001553	0.000000	0.000004	-0.000000	0.000000	0.000000
45.720870	18.358066	14.522280	-0.113634	-0.096497	2.785802	0.000000	0.008832	0.000000	0.000004	-0.000000	0.000000	0.000000
46.269930	18.173730	14.909173	0.447376	-0.612308	2.768080	0.000000	-0.073294	0.000000	0.000003	-0.000001	0.000000	0.000000
46.818990	17.387124	15.882969	0.976785	-1.171732	2.705556	0.000000	-0.154120	0.000000	0.000003	-0.000001	0.000000	0.000000
47.368050	16.053809	17.513031	1.437199	-1.814615	2.599341	0.000000	-0.232212	0.000000	0.000003	-0.000001	0.000000	0.000000
47.917110	14.267964	19.915464	1.796096	-2.586750	2.451317	0.000000	-0.306185	0.000000	0.000002	-0.000001	0.000000	0.000000
48.363070	12.878142	22.051508	1.331417	-2.182878	2.330063	0.000000	-0.237886	0.000000	0.000002	-0.000001	0.000000	0.000000
48.804030	11.884130	23.761813	0.931335	-1.680957	2.239625	0.000000	-0.172694	0.000000	0.000002	-0.000001	0.000000	0.000000
49.244990	11.222933	24.993919	0.573802	-1.102554	2.177473	0.000000	-0.109469	0.000000	0.000001	-0.000001	0.000000	0.000000
49.685950	10.864343	25.691765	0.242485	-0.473986	2.142900	0.000000	-0.047490	0.000000	0.000001	-0.000001	0.000000	0.000000
50.128160	10.792106	25.823319	-0.051404	0.112773	2.135522	0.000000	0.008710	0.000000	0.000001	-0.000001	0.000000	0.000000
50.425482	10.830886	25.759726	-0.079027	0.101113	2.138112	0.000000	0.008710	0.000000	0.000001	-0.000001	0.000000	0.000000
50.758816	10.893894	25.696675	-0.109996	0.088041	2.141016	0.000000	0.008710	0.000000	0.000000	-0.000001	0.000000	0.000000
51.092149	10.977547	25.642338	-0.140964	0.074968	2.143919	0.000000	0.008710	0.000000	0.000000	-0.000001	0.000000	0.000000
51.426732	11.082051	25.597081	-0.082144	-0.145809	2.146812	0.000000	-0.008706	0.000000	-0.000000	-0.000001	0.000000	0.000000
51.724055	11.138928	25.687313	-0.081838	-0.220665	2.144224	0.000000	-0.013964	0.000000	-0.000000	-0.000001	0.000000	0.000000
52.165015	11.356517	25.596163	-0.413479	0.426586	2.151655	0.000000	0.047698	0.000000	-0.000001	-0.000001	0.000000	0.000000
52.605975	11.873780	24.940600	-0.764010	1.054428	2.186370	0.000000	0.109904	0.000000	-0.000001	-0.000001	0.000000	0.000000
53.046935	12.714350	23.750452	-1.149447	1.634295	2.248766	0.000000	0.173362	0.000000	-0.000001	-0.000001	0.000000	0.000000
53.487895	13.916628	22.079869	-1.587399	2.139802	2.339552	0.000000	0.238794	0.000000	-0.000001	-0.000001	0.000000	0.000000
53.933855	15.556151	19.979883	-2.102110	2.549285	2.461267	0.000000	0.307345	0.000000	-0.000002	-0.000001	0.000000	0.000000
54.482915	17.666949	17.616927	-1.719519	1.779756	2.609838	0.000000	0.233041	0.000000	-0.000002	-0.000001	0.000000	0.000000
55.031975	19.288030	16.024853	-1.215470	1.136996	2.716415	0.000000	0.154602	0.000000	-0.000003	-0.000001	0.000000	0.000000
55.581035	20.304889	15.090259	-0.625566	0.575222	2.779107	0.000000	0.073422	0.000000	-0.000003	-0.000001	0.000000	0.000000
56.130095	20.645699	14.746578	0.008524	0.054419	2.796803	0.000000	-0.009061	0.000000	-0.000003	-0.000000	0.000000	0.000000
56.428668	20.677148	14.697171	-0.059912	0.072528	2.796280	0.000000	-0.001753	0.000000	-0.000003	-0.000000	0.000000	0.000000
56.762001	20.722482	14.656418	-0.076091	0.049729	2.795696	0.000000	-0.001753	0.000000	-0.000003	-0.000000	0.000000	0.000000
57.095334	20.778602	14.630866	-0.092269	0.026929	2.795111	0.000000	-0.001753	0.000000	-0.000004	-0.000000	0.000000	0.000000
57.429918	20.845779	14.620502	-0.108509	0.004044	2.794525	0.000000	-0.001753	0.000000	-0.000004	-0.000000	0.000000	0.000000
57.727240	20.914594	14.624144	-0.177587	0.021919	2.794004	0.000000	0.005548	0.000000	-0.000004	-0.000000	0.000000	0.000000
58.276300	20.752759	14.880946	0.470593	-0.492393	2.774411	0.000000	-0.076814	0.000000	-0.000004	-0.000000	0.000000	0.000000
58.825360	19.893265	15.718354	1.085532	-1.041777	2.709904	0.000000	-0.157812	0.000000	-0.000004	-0.000000	0.000000	0.000000
59.374420	18.396823	17.196014	1.623796	-1.665364	2.601628	0.000000	-0.236012	0.000000	-0.000004	-0.000000	0.000000	0.000000
59.923480	16.369134	19.419178	2.047362	-2.407572	2.451504	0.000000	-0.310025	0.000000	-0.000004	0.000000	0.000000	0.000000
60.369440	14.782017	21.395194	1.524119	-2.004654	2.328535	0.000000	-0.241744	0.000000	-0.000004	-0.000000	0.000000	0.000000
60.810400	13.640365	22.951776	1.074718	-1.511898	2.236383	0.000000	-0.176614	0.000000	-0.000004	-0.000000	0.000000	0.000000
61.251360	12.871980	24.041677	0.674418	-0.950352	2.172481	0.000000	-0.113494	0.000000	-0.000004	-0.000000	0.000000	0.000000
61.692320	12.441759	24.615307	0.304931	-0.345565	2.136100	0.000000	-0.051668	0.000000	-0.000004	-0.000000	0.000000	0.000000
62.134530	12.330095	24.646031	-0.020489	0.214448	2.126833	0.000000	0.004354	0.000000	-0.000005	-0.000000	0.000000	0.000000
62.431853	12.349451	24.522262	-0.044612	0.201830	2.128128	0.000000	0.004354	0.000000	-0.000005	-0.000000	0.000000	0.000000
62.765186	12.388208	24.392424	-0.071658	0.187683	2.129579	0.000000	0.004354	0.000000	-0.000005	-0.000000	0.000000	0.000000
63.098520	12.444995	24.272018	-0.098703	0.173536	2.131031	0.000000	0.004354	0.000000	-0.000005	-0.000000	0.000000	0.000000
63.433103	12.520127	24.160644	-0.125850	0.159336	2.132488	0.000000	0.004354	0.000000	-0.000005	-0.000000	0.000000	0.000000
63.730426	12.602135	24.069647	-0.119068	0.087689	2.133782	0.000000	-0.000879	0.000000	-0.000005	-0.000000	0.000000	0.000000
64.171386	12.867589	23.727222	-0.485205	0.685900	2.146935	0.000000	0.060588	0.000000	-0.000006	-0.000001	0.000000	0.000000
64.612346	13.464462	22.869022	-0.873509	1.252904	2.187318	0.000000	0.122746	0.000000	-0.000006	-0.000001	0.000000	0.000000
65.053306	14.420027	21.534093	-1.301721	1.762901	2.255393	0.000000	0.186301	0.000000	-0.000006	-0.000001	0.000000	0.000000
65.494266	15.777938	19.783174	-1.789405	2.192687	2.351933	0.000000	0.251978	0.000000	-0.000007	-0.000001	0.000000	0.000000
65.940226	17.623402	17.671147	-2.363536	2.523465	2.479611	0.000000	0.320927	0.000000	-0.000007	-0.000001	0.000000	0.000000
66.489286	19.988988	15.308392	-1.919391	1.805211	2.635455	0.000000	0.245911	0.000000	-0.000008	-0.000001	0.000000	0.000000
67.038346	21.789063	13.659552	-1.339670	1.215538	2.748851	0.000000	0.166532	0.000000	-0.000008	-0.000001	0.000000	0.000000
67.587406	22.896479	12.607186	-0.665322	0.712445	2.817786	0.000000	0.084200	0.000000	-0.000009	-0.000000	0.000000	0.000000
68.136466	23.233013	12.076335	0.056022	0.260098	2.841038	0.000000	0.000374	0.000000	-0.000009	-0.000000	0.000000	0.000000
68.435038	23.239649	11.910185	-0.017538	0.264827	2.843367	0.000000	0.007797	0.000000	-0.000009	-0.000000	0.000000	0.000000
68.768372	23.256124	11.743617	-0.031886	0.234877	2.845966	0.000000	0.007797	0.000000	-0.000009	-0.000000	0.000000	0.000000
69.101705	23.282163	11.597015	-0.046233	0.204927	2.848565	0.000000	0.007797	0.000000	-0.000009	-0.000000	0.000000	0.000000
69.436288	23.317920	11.469944	-0.060635	0.174864	2.851174	0.000000	0.007797	0.000000	-0.000009	-0.000000	0.000000	0.000000
69.733611	23.357781	11.373904	-0.134467	0.177870	2.853492	0.000000	0.015254	0.000000	-0.000009	-0.000000	0.000000	0.000000
70.282671	23.104291	11.406309	0.593414	-0.237238	2.838685	0.000000	-0.069113	0.000000	-0.000009	0.000000	0.000000	0.000000
