#ParticleID	Turn	x[m]	xp	y[m]	yp	z[m]	dE[GeV]# s	beta_x	beta_y	alpha_x	alpha_y	D_x	D_y	D_px	D_py	orbit_x	orbit_px	orbit_y	orbit_py
0.300000	11.834494	24.939366	-0.013724	-0.027787	2.618349	0.000000	-0.000078	0.000000	-0.000001	0.000000	0.000000	0.000000
0.601250	11.850432	24.959750	-0.039184	-0.039876	2.618325	0.000000	-0.000078	0.000000	-0.000001	0.000000	0.000000	0.000000
0.898573	11.881204	24.987009	-0.035175	-0.113083	2.618302	0.000000	-0.006499	0.000000	-0.000001	0.000000	0.000000	0.000000
1.339533	12.064614	24.809611	-0.382337	0.513853	2.631731	0.000000	0.067463	0.000000	-0.000001	0.000000	0.000000	0.000000
1.780493	12.560710	24.087542	-0.746966	1.117409	2.677912	0.000000	0.142193	0.000000	-0.000001	0.000000	0.000000	0.000000
2.221453	13.392155	22.853656	-1.145722	1.670124	2.757371	0.000000	0.218542	0.000000	-0.000001	0.000000	0.000000	0.000000
2.662413	14.596937	21.164094	-1.596823	2.146849	2.871014	0.000000	0.297381	0.000000	-0.000001	0.000000	0.000000	0.000000
3.108373	16.250918	19.070949	-2.125180	2.527024	3.021995	0.000000	0.380096	0.000000	-0.000001	0.000000	0.000000	0.000000
3.657433	18.371818	16.720170	-1.714738	1.779709	3.205419	0.000000	0.287059	0.000000	-0.000001	0.000000	0.000000	0.000000
4.206493	19.972421	15.116024	-1.183175	1.159159	3.336284	0.000000	0.188930	0.000000	-0.000001	0.000000	0.000000	0.000000
4.755553	20.939668	14.144251	-0.568038	0.621173	3.412271	0.000000	0.087450	0.000000	-0.000001	0.000000	0.000000	0.000000
5.304613	21.205237	13.735633	0.087222	0.127432	3.432029	0.000000	-0.015582	0.000000	-0.000001	0.000000	0.000000	0.000000
5.603185	21.190446	13.644770	0.017722	0.141004	3.430055	0.000000	-0.006614	0.000000	-0.000001	0.000000	0.000000	0.000000
5.936519	21.183877	13.559072	0.001987	0.116089	3.427850	0.000000	-0.006614	0.000000	-0.000000	0.000000	0.000000	0.000000
6.269852	21.187797	13.489984	-0.013749	0.091174	3.425645	0.000000	-0.006614	0.000000	-0.000000	0.000000	0.000000	0.000000
6.604435	21.202282	13.437341	-0.029543	0.066166	3.423432	0.000000	-0.006614	0.000000	-0.000000	0.000000	0.000000	0.000000
6.901758	21.224023	13.404603	-0.099033	0.078966	3.421465	0.000000	0.002325	0.000000	-0.000000	0.000000	0.000000	0.000000
7.450818	20.970957	13.578321	0.557211	-0.397225	3.394542	0.000000	-0.100248	0.000000	-0.000000	0.000000	0.000000	0.000000
7.999878	20.014705	14.287330	1.174097	-0.901711	3.311707	0.000000	-0.201043	0.000000	-0.000000	0.000000	0.000000	0.000000
8.548938	18.422810	15.582131	1.708050	-1.470422	3.174428	0.000000	-0.298271	0.000000	0.000000	0.000000	0.000000	0.000000
9.097998	16.307716	17.554949	2.121355	-2.143869	2.985141	0.000000	-0.390210	0.000000	0.000000	0.000000	0.000000	0.000000
9.543958	14.657396	19.312911	1.592402	-1.781445	2.829428	0.000000	-0.308512	0.000000	0.000000	0.000000	0.000000	0.000000
9.984918	13.456849	20.694245	1.140501	-1.339195	2.710630	0.000000	-0.230812	0.000000	0.000000	0.000000	0.000000	0.000000
10.425878	12.630447	21.657088	0.740707	-0.836012	2.625484	0.000000	-0.155741	0.000000	0.000000	0.000000	0.000000	0.000000
10.866838	12.140433	22.157631	0.374753	-0.294791	2.573019	0.000000	-0.082443	0.000000	0.000000	0.000000	0.000000	0.000000
11.309048	11.964281	22.172588	0.055156	0.205409	2.552617	0.000000	-0.016345	0.000000	0.000001	0.000000	0.000000	0.000000
11.606371	11.938894	22.054598	0.030230	0.191433	2.547758	0.000000	-0.016345	0.000000	0.000001	0.000000	0.000000	0.000000
12.086371	11.929189	21.881651	-0.010012	0.168872	2.539912	0.000000	-0.016345	0.000000	0.000001	0.000000	0.000000	0.000000
12.566371	11.958116	21.730364	-0.050253	0.146310	2.532067	0.000000	-0.016345	0.000000	0.000001	0.000000	0.000000	0.000000
13.046371	12.025675	21.600736	-0.090495	0.123748	2.524221	0.000000	-0.016345	0.000000	0.000001	0.000000	0.000000	0.000000
13.526371	12.131866	21.492767	-0.130736	0.101186	2.516376	0.000000	-0.016345	0.000000	0.000001	0.000000	0.000000	0.000000
14.007621	12.277116	21.406261	-0.171082	0.078566	2.508510	0.000000	-0.016345	0.000000	0.000001	0.000000	0.000000	0.000000
14.304943	12.386260	21.363698	-0.165634	0.012201	2.503650	0.000000	-0.022484	0.000000	0.000001	0.000000	0.000000	0.000000
14.745903	12.691110	21.119079	-0.528321	0.540428	2.509363	0.000000	0.048422	0.000000	0.000001	0.000000	0.000000	0.000000
15.186863	13.325215	20.417712	-0.915144	1.044066	2.546435	0.000000	0.119880	0.000000	0.000001	0.000000	0.000000	0.000000
15.627823	14.317545	19.291507	-1.343779	1.500199	2.615288	0.000000	0.192704	0.000000	0.000002	0.000000	0.000000	0.000000
16.068783	15.713437	17.791707	-1.833806	1.888075	2.716706	0.000000	0.267722	0.000000	0.000002	0.000000	0.000000	0.000000
16.514743	17.600321	15.965050	-2.412373	2.190795	2.853538	0.000000	0.346251	0.000000	0.000002	0.000000	0.000000	0.000000
17.063803	20.023430	13.925271	-1.974698	1.546172	3.019928	0.000000	0.258948	0.000000	0.000002	0.000000	0.000000	0.000000
17.612863	21.886016	12.529099	-1.397539	1.011679	3.137050	0.000000	0.167052	0.000000	0.000002	0.000000	0.000000	0.000000
18.161923	23.056516	11.677087	-0.721666	0.549246	3.202826	0.000000	0.072192	0.000000	0.000002	0.000000	0.000000	0.000000
18.710983	23.452252	11.308548	0.005182	0.125934	3.216090	0.000000	-0.023948	0.000000	0.000003	0.000000	0.000000	0.000000
19.009556	23.489560	11.223777	-0.068864	0.128440	3.211449	0.000000	-0.015545	0.000000	0.000003	0.000000	0.000000	0.000000
19.342889	23.540222	11.148213	-0.083122	0.098251	3.206267	0.000000	-0.015545	0.000000	0.000003	0.000000	0.000000	0.000000
19.676223	23.600389	11.092775	-0.097380	0.068062	3.201085	0.000000	-0.015545	0.000000	0.000003	0.000000	0.000000	0.000000
20.010806	23.670634	11.057232	-0.228969	0.092545	3.195904	0.000000	0.000290	0.000000	0.000003	0.000000	0.000000	0.000000
20.308129	23.810720	11.010264	-0.304400	0.094192	3.195990	0.000000	0.008640	0.000000	0.000003	0.000000	0.000000	0.000000
20.857189	23.734325	11.129451	0.442714	-0.312548	3.174524	0.000000	-0.086716	0.000000	0.000003	0.000000	0.000000	0.000000
21.406249	22.849895	11.704818	1.158557	-0.741551	3.101048	0.000000	-0.180533	0.000000	0.000003	-0.000000	0.000000	0.000000
21.955309	21.219902	12.777349	1.792566	-1.223373	2.976865	0.000000	-0.271149	0.000000	0.000003	-0.000000	0.000000	0.000000
22.504369	18.959481	14.423435	2.299956	-1.792333	2.804178	0.000000	-0.356955	0.000000	0.000003	-0.000000	0.000000	0.000000
22.950329	17.178268	15.901121	1.708253	-1.507181	2.662278	0.000000	-0.279772	0.000000	0.000003	-0.000000	0.000000	0.000000
23.391289	15.901002	17.079216	1.199293	-1.154313	2.555226	0.000000	-0.206229	0.000000	0.000003	-0.000000	0.000000	0.000000
23.832249	15.046831	17.921673	0.745126	-0.748924	2.480056	0.000000	-0.135036	0.000000	0.000003	-0.000000	0.000000	0.000000
24.273209	14.576732	18.390161	0.325001	-0.309460	2.435910	0.000000	-0.065380	0.000000	0.000003	0.000000	0.000000	0.000000
24.715418	14.469337	18.463116	-0.044880	0.098740	2.422284	0.000000	-0.002409	0.000000	0.000003	0.000000	0.000000	0.000000
25.012741	14.502147	18.409236	-0.065470	0.082479	2.421567	0.000000	-0.002409	0.000000	0.000003	0.000000	0.000000	0.000000
25.346075	14.553488	18.360326	-0.088554	0.064249	2.420764	0.000000	-0.002409	0.000000	0.000003	0.000000	0.000000	0.000000
25.679408	14.620218	18.323570	-0.111637	0.046019	2.419961	0.000000	-0.002409	0.000000	0.000003	0.000000	0.000000	0.000000
26.013991	14.702377	18.299269	-0.015532	-0.120732	2.419131	0.000000	-0.022035	0.000000	0.000003	0.000000	0.000000	0.000000
26.311314	14.717627	18.375963	0.000331	-0.182278	2.412579	0.000000	-0.027951	0.000000	0.000003	0.000000	0.000000	0.000000
26.752274	14.898696	18.337365	-0.412514	0.269477	2.415359	0.000000	0.040570	0.000000	0.000003	0.000000	0.000000	0.000000
27.193234	15.450765	17.904260	-0.844206	0.708972	2.448426	0.000000	0.109553	0.000000	0.000003	0.000000	0.000000	0.000000
27.634194	16.399055	17.096354	-1.314467	1.116208	2.512159	0.000000	0.179784	0.000000	0.000003	0.000000	0.000000	0.000000
28.075154	17.786893	15.950407	-1.844782	1.472659	2.607281	0.000000	0.252062	0.000000	0.000003	0.000000	0.000000	0.000000
28.521114	19.701803	14.501299	-2.464333	1.763019	2.736480	0.000000	0.327654	0.000000	0.000003	0.000000	0.000000	0.000000
29.070174	22.135656	12.886515	-1.942189	1.195339	2.893728	0.000000	0.244292	0.000000	0.000004	0.000000	0.000000	0.000000
29.619234	23.916945	11.844980	-1.282859	0.712800	3.003946	0.000000	0.156597	0.000000	0.000004	0.000000	0.000000	0.000000
30.168294	24.919850	11.302508	-0.532914	0.281033	3.065180	0.000000	0.066124	0.000000	0.000004	0.000000	0.000000	0.000000
30.717354	25.073531	11.220461	0.254673	-0.130718	3.076342	0.000000	-0.025522	0.000000	0.000004	-0.000000	0.000000	0.000000
31.015927	24.964256	11.289039	0.176829	-0.128285	3.071122	0.000000	-0.017485	0.000000	0.000004	0.000000	0.000000	0.000000
31.349260	24.850960	11.384566	0.163059	-0.158298	3.065293	0.000000	-0.017485	0.000000	0.000004	0.000000	0.000000	0.000000
31.682593	24.746843	11.500103	0.149289	-0.188311	3.059465	0.000000	-0.017485	0.000000	0.000004	0.000000	0.000000	0.000000
32.017177	24.651568	11.636194	0.135468	-0.218437	3.053615	0.000000	-0.017485	0.000000	0.000004	0.000000	0.000000	0.000000
32.314499	24.574665	11.774046	0.058978	-0.214445	3.048417	0.000000	-0.009520	0.000000	0.000004	0.000000	0.000000	0.000000
32.863559	24.088944	12.248918	0.820426	-0.655543	3.018318	0.000000	-0.099954	0.000000	0.000004	-0.000000	0.000000	0.000000
33.412619	22.794090	13.230814	1.523924	-1.143335	2.938980	0.000000	-0.188616	0.000000	0.000004	-0.000000	0.000000	0.000000
33.961679	20.781565	14.789672	2.119778	-1.712563	2.811810	0.000000	-0.273932	0.000000	0.000004	-0.000000	0.000000	0.000000
34.510739	18.193525	17.036525	2.565903	-2.403773	2.639063	0.000000	-0.354389	0.000000	0.000003	-0.000000	0.000000	0.000000
34.956699	16.181390	19.046163	1.962181	-2.083728	2.497356	0.000000	-0.281486	0.000000	0.000003	-0.000000	0.000000	0.000000
35.397659	14.681076	20.707564	1.453106	-1.669625	2.388608	0.000000	-0.212217	0.000000	0.000003	-0.000000	0.000000	0.000000
35.838619	13.598865	21.968738	1.010419	-1.179555	2.309843	0.000000	-0.145365	0.000000	0.000003	-0.000000	0.000000	0.000000
36.279579	12.885314	22.772302	0.613896	-0.635816	2.260165	0.000000	-0.080169	0.000000	0.000003	-0.000000	0.000000	0.000000
36.721789	12.507133	23.081994	0.275984	-0.119805	2.238980	0.000000	-0.021376	0.000000	0.000003	-0.000000	0.000000	0.000000
37.019112	12.350626	23.157121	0.250401	-0.132871	2.232625	0.000000	-0.021376	0.000000	0.000003	-0.000000	0.000000	0.000000
37.352445	12.193253	23.250584	0.221720	-0.147520	2.225499	0.000000	-0.021376	0.000000	0.000003	-0.000000	0.000000	0.000000
37.685779	12.055000	23.353814	0.193038	-0.162168	2.218374	0.000000	-0.021376	0.000000	0.000003	-0.000000	0.000000	0.000000
38.020362	11.935458	23.467251	0.164249	-0.176872	2.211222	0.000000	-0.021376	0.000000	0.000003	-0.000000	0.000000	0.000000
38.317684	11.845394	23.576312	0.167714	-0.247752	2.204866	0.000000	-0.026783	0.000000	0.000003	-0.000000	0.000000	0.000000
38.758644	11.848596	23.533694	-0.175004	0.344033	2.206979	0.000000	0.036374	0.000000	0.000003	-0.000000	0.000000	0.000000
39.199604	12.156418	22.974104	-0.525717	0.920165	2.237006	0.000000	0.099946	0.000000	0.000003	0.000000	0.000000	0.000000
39.640564	12.782923	21.923003	-0.900448	1.454430	2.295290	0.000000	0.164656	0.000000	0.000003	0.000000	0.000000	0.000000
40.081524	13.756734	20.428215	-1.316318	1.922519	2.382495	0.000000	0.231242	0.000000	0.000003	0.000000	0.000000	0.000000
40.527484	15.139901	18.535184	-1.796150	2.304413	2.501084	0.000000	0.300866	0.000000	0.000003	0.000000	0.000000	0.000000
41.076544	16.905299	16.408010	-1.400126	1.592667	2.645755	0.000000	0.225334	0.000000	0.000003	0.000000	0.000000	0.000000
41.625604	18.178601	14.995911	-0.905203	0.994362	2.747794	0.000000	0.145806	0.000000	0.000003	0.000000	0.000000	0.000000
42.174664	18.869866	14.198308	-0.346342	0.466883	2.805393	0.000000	0.063692	0.000000	0.000003	-0.000000	0.000000	0.000000
42.723724	18.930268	13.958388	0.236983	-0.027340	2.817528	0.000000	-0.019553	0.000000	0.000003	-0.000000	0.000000	0.000000
43.022297	18.823164	13.959323	0.171196	-0.012262	2.813888	0.000000	-0.012191	0.000000	0.000003	-0.000000	0.000000	0.000000
43.502297	18.671415	13.987603	0.144949	-0.046653	2.808036	0.000000	-0.012191	0.000000	0.000003	-0.000000	0.000000	0.000000
43.982297	18.544863	14.048897	0.118701	-0.081044	2.802185	0.000000	-0.012191	0.000000	0.000003	-0.000000	0.000000	0.000000
44.462297	18.443509	14.143207	0.092453	-0.115435	2.796333	0.000000	-0.012191	0.000000	0.000003	-0.000000	0.000000	0.000000
44.942297	18.367354	14.270531	0.066205	-0.149825	2.790481	0.000000	-0.012191	0.000000	0.000003	-0.000000	0.000000	0.000000
45.423547	18.316523	14.431153	-0.050861	-0.112805	2.784631	0.000000	0.001605	0.000000	0.000003	-0.000000	0.000000	0.000000
45.720870	18.351606	14.504436	-0.115084	-0.095773	2.785109	0.000000	0.008882	0.000000	0.000003	-0.000000	0.000000	0.000000
46.269930	18.168970	14.890229	0.445750	-0.611018	2.767420	0.000000	-0.073222	0.000000	0.000003	-0.000000	0.000000	0.000000
46.818990	17.384194	15.862259	0.975098	-1.169785	2.704941	0.000000	-0.154027	0.000000	0.000002	-0.000000	0.000000	0.000000
47.368050	16.052710	17.489761	1.435570	-1.811872	2.598782	0.000000	-0.232100	0.000000	0.000002	-0.000000	0.000000	0.000000
47.917110	14.268569	19.888658	1.794641	-2.583015	2.450824	0.000000	-0.306056	0.000000	0.000002	-0.000000	0.000000	0.000000
48.363070	12.879987	22.021616	1.330082	-2.179723	2.329625	0.000000	-0.237769	0.000000	0.000002	-0.000000	0.000000	0.000000
48.804030	11.887122	23.729447	0.930058	-1.678524	2.239236	0.000000	-0.172588	0.000000	0.000002	-0.000000	0.000000	0.000000
49.244990	11.227047	24.959767	0.572525	-1.100953	2.177128	0.000000	-0.109372	0.000000	0.000002	-0.000000	0.000000	0.000000
49.685950	10.869605	25.656597	0.241149	-0.473290	2.142596	0.000000	-0.047402	0.000000	0.000002	-0.000000	0.000000	0.000000
50.128160	10.798598	25.787951	-0.052845	0.112619	2.135255	0.000000	0.008792	0.000000	0.000001	-0.000000	0.000000	0.000000
50.425482	10.838231	25.724454	-0.080455	0.100943	2.137869	0.000000	0.008792	0.000000	0.000001	-0.000000	0.000000	0.000000
50.758816	10.902186	25.661522	-0.111410	0.087853	2.140800	0.000000	0.008792	0.000000	0.000001	-0.000000	0.000000	0.000000
51.092149	10.986777	25.607316	-0.142364	0.074763	2.143731	0.000000	0.008792	0.000000	0.000001	-0.000000	0.000000	0.000000
51.426732	11.092213	25.562202	-0.083447	-0.145749	2.146651	0.000000	-0.008623	0.000000	0.000001	-0.000000	0.000000	0.000000
51.724055	11.149860	25.652402	-0.083096	-0.220534	2.144087	0.000000	-0.013881	0.000000	0.000001	-0.000000	0.000000	0.000000
52.165015	11.368679	25.561545	-0.415019	0.425794	2.151554	0.000000	0.047779	0.000000	0.000001	-0.000000	0.000000	0.000000
52.605975	11.887450	24.907076	-0.765903	1.052749	2.186304	0.000000	0.109983	0.000000	0.000001	-0.000000	0.000000	0.000000
53.046935	12.729874	23.718774	-1.151778	1.631804	2.248733	0.000000	0.173439	0.000000	0.000001	-0.000000	0.000000	0.000000
53.487895	13.934440	22.050705	-1.590275	2.136613	2.339553	0.000000	0.238871	0.000000	0.000001	-0.000000	0.000000	0.000000
53.933855	15.576823	19.953822	-2.105669	2.545542	2.461302	0.000000	0.307422	0.000000	0.000001	-0.000000	0.000000	0.000000
54.482915	17.691268	17.594420	-1.722562	1.776989	2.609915	0.000000	0.233116	0.000000	0.000001	-0.000000	0.000000	0.000000
55.031975	19.315306	16.004942	-1.217782	1.135007	2.716532	0.000000	0.154674	0.000000	0.000001	-0.000000	0.000000	0.000000
55.581035	20.334225	15.072172	-0.626984	0.573869	2.779262	0.000000	0.073490	0.000000	0.000001	-0.000000	0.000000	0.000000
56.130095	20.676052	14.729672	0.008101	0.053607	2.796993	0.000000	-0.008999	0.000000	0.000000	-0.000000	0.000000	0.000000
56.428668	20.707795	14.680782	-0.060393	0.071651	2.796489	0.000000	-0.001691	0.000000	0.000000	-0.000000	0.000000	0.000000
56.762001	20.753442	14.640622	-0.076548	0.048829	2.795925	0.000000	-0.001691	0.000000	0.000000	-0.000000	0.000000	0.000000
57.095334	20.809859	14.615677	-0.092704	0.026007	2.795362	0.000000	-0.001691	0.000000	0.000000	-0.000000	0.000000	0.000000
57.429918	20.877319	14.605939	-0.108920	0.003099	2.794796	0.000000	-0.001691	0.000000	0.000000	-0.000000	0.000000	0.000000
57.727240	20.946373	14.610149	-0.178060	0.020916	2.794293	0.000000	0.005610	0.000000	0.000000	-0.000000	0.000000	0.000000
58.276300	20.784469	14.867835	0.471189	-0.493010	2.774732	0.000000	-0.076761	0.000000	0.000000	-0.000000	0.000000	0.000000
58.825360	19.923748	15.705730	1.087156	-1.042052	2.710251	0.000000	-0.157770	0.000000	-0.000000	-0.000000	0.000000	0.000000
59.374420	18.425009	17.183515	1.626331	-1.665317	2.601995	0.000000	-0.235981	0.000000	-0.000000	-0.000000	0.000000	0.000000
59.923480	16.394114	19.406449	2.050631	-2.407198	2.451884	0.000000	-0.310007	0.000000	-0.000000	-0.000000	0.000000	0.000000
60.369440	14.804415	21.382309	1.526660	-2.004679	2.328926	0.000000	-0.241716	0.000000	-0.000000	-0.000000	0.000000	0.000000
60.810400	13.660796	22.939088	1.076653	-1.512317	2.236789	0.000000	-0.176575	0.000000	-0.000000	-0.000000	0.000000	0.000000
61.251360	12.890939	24.029526	0.675836	-0.951146	2.172906	0.000000	-0.113445	0.000000	-0.000000	-0.000000	0.000000	0.000000
61.692320	12.459671	24.604010	0.305896	-0.346699	2.136550	0.000000	-0.051607	0.000000	-0.000001	-0.000000	0.000000	0.000000
62.134530	12.347337	24.635868	-0.019891	0.213054	2.127312	0.000000	0.004426	0.000000	-0.000001	-0.000000	0.000000	0.000000
62.431853	12.366328	24.512928	-0.043980	0.200438	2.128628	0.000000	0.004426	0.000000	-0.000001	-0.000000	0.000000	0.000000
62.765186	12.404650	24.384017	-0.070988	0.186293	2.130103	0.000000	0.004426	0.000000	-0.000001	-0.000000	0.000000	0.000000
63.098520	12.460978	24.264537	-0.097995	0.172148	2.131578	0.000000	0.004426	0.000000	-0.000001	-0.000000	0.000000	0.000000
63.433103	12.535622	24.154091	-0.125103	0.157951	2.133059	0.000000	0.004426	0.000000	-0.000001	-0.000000	0.000000	0.000000
63.730426	12.617177	24.063918	-0.118251	0.086322	2.134375	0.000000	-0.000808	0.000000	-0.000001	-0.000000	0.000000	0.000000
64.171386	12.882054	23.722755	-0.484711	0.684417	2.147562	0.000000	0.060675	0.000000	-0.000001	-0.000000	0.000000	0.000000
64.612346	13.478625	22.865888	-0.873315	1.251372	2.187987	0.000000	0.122849	0.000000	-0.000001	-0.000000	0.000000	0.000000
65.053306	14.434148	21.532306	-1.301819	1.761390	2.256110	0.000000	0.186422	0.000000	-0.000001	-0.000000	0.000000	0.000000
65.494266	15.792275	19.782685	-1.789799	2.191266	2.352708	0.000000	0.252118	0.000000	-0.000002	-0.000000	0.000000	0.000000
65.940226	17.638230	17.671861	-2.364245	2.522200	2.480453	0.000000	0.321088	0.000000	-0.000002	-0.000000	0.000000	0.000000
66.489286	20.004288	15.310408	-1.919534	1.804088	2.636377	0.000000	0.246043	0.000000	-0.000002	-0.000000	0.000000	0.000000
67.038346	21.804203	13.662761	-1.339237	1.214477	2.749836	0.000000	0.166634	0.000000	-0.000002	-0.000000	0.000000	0.000000
67.587406	22.910839	12.611561	-0.664342	0.711370	2.818818	0.000000	0.084268	0.000000	-0.000002	-0.000000	0.000000	0.000000
68.136466	23.246028	12.081933	0.057478	0.258932	2.842099	0.000000	0.000409	0.000000	-0.000002	-0.000000	0.000000	0.000000
68.435038	23.251811	11.916463	-0.016105	0.263703	2.844438	0.000000	0.007835	0.000000	-0.000002	-0.000000	0.000000	0.000000
68.768372	23.267327	11.750633	-0.030445	0.233785	2.847050	0.000000	0.007835	0.000000	-0.000002	-0.000000	0.000000	0.000000
69.101705	23.292403	11.604749	-0.044784	0.203868	2.849661	0.000000	0.007835	0.000000	-0.000002	-0.000000	0.000000	0.000000
69.436288	23.327187	11.478375	-0.059177	0.173838	2.852283	0.000000	0.007835	0.000000	-0.000002	-0.000000	0.000000	0.000000
69.733611	23.366180	11.382937	-0.133021	0.176894	2.854612	0.000000	0.015293	0.000000	-0.000002	-0.000000	0.000000	0.000000
70.282671	23.110962	11.416557	0.595095	-0.238486	2.839816	0.000000	-0.069109	0.000000	-0.000003	-0.000000	0.000000	0.000000
