#ParticleID	Turn	x[m]	xp	y[m]	yp	z[m]	dE[GeV]# s	beta_x	beta_y	alpha_x	alpha_y	D_x	D_y	D_px	D_py	orbit_x	orbit_px	orbit_y	orbit_py
0.300000	11.808257	25.041347	-0.010438	-0.027031	2.618128	0.000000	0.000006	0.000000	-0.000001	0.000002	0.000000	0.000000
0.601250	11.822232	25.061259	-0.035953	-0.039070	2.618129	0.000000	0.000006	0.000000	-0.000000	0.000002	0.000000	0.000000
0.898573	11.851098	25.088025	-0.032072	-0.112474	2.618131	0.000000	-0.006414	0.000000	0.000000	0.000002	0.000000	0.000000
1.339533	12.031446	24.908912	-0.378468	0.517117	2.631595	0.000000	0.067544	0.000000	0.000001	0.000002	0.000000	0.000000
1.780493	12.523728	24.182843	-0.742154	1.123181	2.677810	0.000000	0.142271	0.000000	0.000002	0.000002	0.000000	0.000000
2.221453	13.350435	22.942854	-1.139747	1.678140	2.757303	0.000000	0.218618	0.000000	0.000002	0.000002	0.000000	0.000000
2.662413	14.549337	21.245363	-1.589412	2.156746	2.870978	0.000000	0.297455	0.000000	0.000003	0.000002	0.000000	0.000000
3.108373	16.195937	19.142712	-2.115980	2.538354	3.021991	0.000000	0.380170	0.000000	0.000004	0.000002	0.000000	0.000000
3.657433	18.307448	16.781090	-1.706938	1.788243	3.205455	0.000000	0.287132	0.000000	0.000005	0.000002	0.000000	0.000000
4.206493	19.900513	15.168823	-1.177326	1.165504	3.336359	0.000000	0.189001	0.000000	0.000006	0.000002	0.000000	0.000000
4.755553	20.862605	14.191072	-0.564554	0.625781	3.412383	0.000000	0.087518	0.000000	0.000006	0.000001	0.000000	0.000000
5.304613	21.125768	13.778193	0.088095	0.130631	3.432178	0.000000	-0.015518	0.000000	0.000007	0.000001	0.000000	0.000000
5.603185	21.110346	13.685341	0.018752	0.144357	3.430222	0.000000	-0.006551	0.000000	0.000007	0.000001	0.000000	0.000000
5.936519	21.103110	13.597391	0.002957	0.119493	3.428038	0.000000	-0.006551	0.000000	0.000008	0.000001	0.000000	0.000000
6.269852	21.106404	13.526017	-0.012839	0.094628	3.425854	0.000000	-0.006551	0.000000	0.000008	0.000001	0.000000	0.000000
6.604435	21.120301	13.471046	-0.028694	0.069670	3.423662	0.000000	-0.006551	0.000000	0.000009	0.000001	0.000000	0.000000
6.901758	21.141552	13.436211	-0.098018	0.082596	3.421714	0.000000	0.002389	0.000000	0.000009	0.000001	0.000000	0.000000
7.450818	20.888895	13.606418	0.555458	-0.394424	3.394824	0.000000	-0.100193	0.000000	0.000009	0.000001	0.000000	0.000000
7.999878	19.936039	14.312711	1.169700	-0.899537	3.312016	0.000000	-0.200997	0.000000	0.000010	0.000001	0.000000	0.000000
8.548938	18.350290	15.605398	1.701320	-1.468723	3.174759	0.000000	-0.298236	0.000000	0.000010	0.000000	0.000000	0.000000
9.097998	16.243657	17.576553	2.112767	-2.142522	2.985488	0.000000	-0.390186	0.000000	0.000010	-0.000000	0.000000	0.000000
9.543958	14.600132	19.332932	1.585698	-1.779252	2.829788	0.000000	-0.308479	0.000000	0.000010	0.000000	0.000000	0.000000
9.984918	13.404789	20.711996	1.135361	-1.336262	2.711007	0.000000	-0.230769	0.000000	0.000010	0.000000	0.000000	0.000000
10.425878	12.582319	21.671975	0.736895	-0.832473	2.625882	0.000000	-0.155688	0.000000	0.000010	0.000001	0.000000	0.000000
10.866838	12.095146	22.169189	0.372096	-0.290808	2.573442	0.000000	-0.082380	0.000000	0.000011	0.000001	0.000000	0.000000
11.309048	11.920880	22.180492	0.053423	0.209642	2.553071	0.000000	-0.016270	0.000000	0.000011	0.000001	0.000000	0.000000
11.606371	11.896549	22.059990	0.028410	0.195648	2.548233	0.000000	-0.016270	0.000000	0.000012	0.000001	0.000000	0.000000
12.086371	11.888658	21.883012	-0.011970	0.173056	2.540423	0.000000	-0.016270	0.000000	0.000012	0.000001	0.000000	0.000000
12.566371	11.919532	21.727722	-0.052351	0.150464	2.532612	0.000000	-0.016270	0.000000	0.000013	0.000001	0.000000	0.000000
13.046371	11.989171	21.594120	-0.092731	0.127873	2.524802	0.000000	-0.016270	0.000000	0.000013	0.000001	0.000000	0.000000
13.526371	12.097575	21.482206	-0.133111	0.105281	2.516992	0.000000	-0.016270	0.000000	0.000014	0.000001	0.000000	0.000000
14.007621	12.245179	21.391774	-0.173597	0.082630	2.509161	0.000000	-0.016270	0.000000	0.000014	0.000001	0.000000	0.000000
14.304943	12.355844	21.346799	-0.168314	0.016296	2.504323	0.000000	-0.022411	0.000000	0.000015	0.000001	0.000000	0.000000
14.745903	12.662782	21.098798	-0.530393	0.543976	2.510072	0.000000	0.048514	0.000000	0.000015	0.000002	0.000000	0.000000
15.186863	13.298483	20.394602	-0.916705	1.046907	2.547188	0.000000	0.119990	0.000000	0.000016	0.000002	0.000000	0.000000
15.627823	14.291991	19.266252	-1.344899	1.502204	2.616093	0.000000	0.192834	0.000000	0.000017	0.000002	0.000000	0.000000
16.068783	15.688697	17.765087	-1.834537	1.889151	2.717572	0.000000	0.267874	0.000000	0.000018	0.000003	0.000000	0.000000
16.514743	17.576072	15.937908	-2.412748	2.190887	2.854476	0.000000	0.346427	0.000000	0.000020	0.000003	0.000000	0.000000
17.063803	20.000208	13.897738	-1.976180	1.546795	3.020953	0.000000	0.259092	0.000000	0.000021	0.000003	0.000000	0.000000
17.612863	21.864987	12.500571	-1.400024	1.012877	3.138143	0.000000	0.167161	0.000000	0.000023	0.000002	0.000000	0.000000
18.161923	23.038690	11.646890	-0.724978	0.551105	3.203969	0.000000	0.072265	0.000000	0.000023	0.000001	0.000000	0.000000
18.710983	23.438412	11.275888	0.001277	0.128586	3.217262	0.000000	-0.023912	0.000000	0.000024	0.000000	0.000000	0.000000
19.009556	23.478028	11.189617	-0.072735	0.130902	3.212632	0.000000	-0.015508	0.000000	0.000024	0.000001	0.000000	0.000000
19.342889	23.531276	11.112449	-0.087008	0.100602	3.207462	0.000000	-0.015508	0.000000	0.000024	0.000001	0.000000	0.000000
19.676223	23.594039	11.055481	-0.101281	0.070302	3.202293	0.000000	-0.015508	0.000000	0.000024	0.000001	0.000000	0.000000
20.010806	23.666899	11.018477	-0.232866	0.094481	3.197124	0.000000	0.000333	0.000000	0.000025	0.000001	0.000000	0.000000
20.308129	23.809309	10.970389	-0.308306	0.095914	3.197223	0.000000	0.008685	0.000000	0.000025	0.000001	0.000000	0.000000
20.857189	23.737209	11.087064	0.438845	-0.309667	3.175770	0.000000	-0.086711	0.000000	0.000025	-0.000000	0.000000	0.000000
21.406249	22.856881	11.658540	1.154999	-0.737304	3.102286	0.000000	-0.180569	0.000000	0.000025	-0.000001	0.000000	0.000000
21.955309	21.230509	12.725523	1.789569	-1.217457	2.978073	0.000000	-0.271224	0.000000	0.000024	-0.000002	0.000000	0.000000
22.504369	18.972970	14.364012	2.297733	-1.784327	2.805334	0.000000	-0.357069	0.000000	0.000023	-0.000002	0.000000	0.000000
22.950329	17.193757	15.835142	1.705973	-1.500550	2.663391	0.000000	-0.279856	0.000000	0.000022	-0.000002	0.000000	0.000000
23.391289	15.918565	17.008107	1.196850	-1.149352	2.556309	0.000000	-0.206285	0.000000	0.000021	-0.000001	0.000000	0.000000
23.832249	15.066661	17.847011	0.742409	-0.745859	2.481121	0.000000	-0.135064	0.000000	0.000021	-0.000001	0.000000	0.000000
24.273209	14.599123	18.313686	0.321886	-0.308430	2.436969	0.000000	-0.065381	0.000000	0.000020	-0.000000	0.000000	0.000000
24.715418	14.494712	18.386654	-0.048480	0.097883	2.423348	0.000000	-0.002384	0.000000	0.000020	0.000000	0.000000	0.000000
25.012741	14.529654	18.333302	-0.069040	0.081557	2.422639	0.000000	-0.002384	0.000000	0.000020	0.000000	0.000000	0.000000
25.346075	14.583364	18.285032	-0.092091	0.063254	2.421844	0.000000	-0.002384	0.000000	0.000021	0.000000	0.000000	0.000000
25.679408	14.652442	18.248963	-0.115142	0.044951	2.421049	0.000000	-0.002384	0.000000	0.000021	0.000000	0.000000	0.000000
26.013991	14.736934	18.225400	-0.018724	-0.121273	2.420227	0.000000	-0.022019	0.000000	0.000021	0.000000	0.000000	0.000000
26.311314	14.754069	18.302436	-0.002732	-0.182701	2.413680	0.000000	-0.027937	0.000000	0.000021	-0.000000	0.000000	0.000000
26.752274	14.938244	18.265090	-0.416521	0.267072	2.416472	0.000000	0.040613	0.000000	0.000021	0.000001	0.000000	0.000000
27.193234	15.494328	17.834943	-0.849339	0.704694	2.449565	0.000000	0.109625	0.000000	0.000021	0.000001	0.000000	0.000000
27.634194	16.447728	17.031567	-1.320961	1.110252	2.513335	0.000000	0.179886	0.000000	0.000022	0.000002	0.000000	0.000000
28.075154	17.842000	15.891514	-1.852934	1.465295	2.608509	0.000000	0.252195	0.000000	0.000023	0.000002	0.000000	0.000000
28.521114	19.765065	14.449482	-2.474533	1.754580	2.737774	0.000000	0.327820	0.000000	0.000024	0.000003	0.000000	0.000000
29.070174	22.209290	12.842836	-1.950766	1.188867	2.895099	0.000000	0.244414	0.000000	0.000025	0.000002	0.000000	0.000000
29.619234	23.998823	11.807544	-1.289206	0.707834	3.005372	0.000000	0.156674	0.000000	0.000026	0.000001	0.000000	0.000000
30.168294	25.007261	11.269865	-0.536582	0.277219	3.066634	0.000000	0.066154	0.000000	0.000026	0.000000	0.000000	0.000000
30.717354	25.163371	11.191500	0.253942	-0.133651	3.077801	0.000000	-0.025539	0.000000	0.000026	-0.000001	0.000000	0.000000
31.015927	25.054651	11.261904	0.175924	-0.131386	3.072576	0.000000	-0.017499	0.000000	0.000026	-0.000000	0.000000	0.000000
31.349260	24.941940	11.359531	0.162208	-0.161495	3.066743	0.000000	-0.017499	0.000000	0.000026	-0.000000	0.000000	0.000000
31.682593	24.838374	11.477231	0.148492	-0.191604	3.060910	0.000000	-0.017499	0.000000	0.000026	-0.000000	0.000000	0.000000
32.017177	24.743614	11.615558	0.134725	-0.221826	3.055055	0.000000	-0.017499	0.000000	0.000026	-0.000000	0.000000	0.000000
32.314499	24.667138	11.755451	0.058053	-0.217975	3.049852	0.000000	-0.009532	0.000000	0.000026	-0.000000	0.000000	0.000000
32.863559	24.180740	12.233997	0.822576	-0.658742	3.019735	0.000000	-0.100013	0.000000	0.000025	-0.000001	0.000000	0.000000
33.412619	22.881895	13.219330	1.528997	-1.146431	2.940353	0.000000	-0.188720	0.000000	0.000024	-0.000002	0.000000	0.000000
33.961679	20.862349	14.781632	2.127416	-1.715777	2.813115	0.000000	-0.274079	0.000000	0.000023	-0.000003	0.000000	0.000000
34.510739	18.264751	17.032184	2.575565	-2.407335	2.640277	0.000000	-0.354577	0.000000	0.000021	-0.000003	0.000000	0.000000
34.956699	16.244975	19.045244	1.969712	-2.087809	2.498494	0.000000	-0.281643	0.000000	0.000020	-0.000003	0.000000	0.000000
35.397659	14.738821	20.710403	1.458867	-1.674033	2.389684	0.000000	-0.212346	0.000000	0.000019	-0.000002	0.000000	0.000000
35.838619	13.652210	21.975536	1.014674	-1.184091	2.310869	0.000000	-0.145467	0.000000	0.000018	-0.000002	0.000000	0.000000
36.279579	12.935497	22.783080	0.616838	-0.640273	2.261152	0.000000	-0.080245	0.000000	0.000017	-0.000002	0.000000	0.000000
36.721789	12.555243	23.096603	0.277863	-0.124008	2.239940	0.000000	-0.021429	0.000000	0.000016	-0.000001	0.000000	0.000000
37.019112	12.397598	23.174230	0.252353	-0.137079	2.233569	0.000000	-0.021429	0.000000	0.000016	-0.000001	0.000000	0.000000
37.352445	12.238895	23.270501	0.223754	-0.151733	2.226427	0.000000	-0.021429	0.000000	0.000016	-0.000001	0.000000	0.000000
37.685779	12.099259	23.376540	0.195155	-0.166387	2.219284	0.000000	-0.021429	0.000000	0.000015	-0.000001	0.000000	0.000000
38.020362	11.978272	23.492802	0.166448	-0.181096	2.212115	0.000000	-0.021429	0.000000	0.000015	-0.000001	0.000000	0.000000
38.317684	11.886879	23.604376	0.170085	-0.252044	2.205744	0.000000	-0.026837	0.000000	0.000014	-0.000001	0.000000	0.000000
38.758644	11.888402	23.565202	-0.173552	0.340544	2.207838	0.000000	0.036343	0.000000	0.000014	-0.000001	0.000000	0.000000
39.199604	12.195324	23.008276	-0.525119	0.917637	2.237857	0.000000	0.099937	0.000000	0.000014	-0.000000	0.000000	0.000000
39.640564	12.821667	21.958936	-0.900677	1.452978	2.296142	0.000000	0.164669	0.000000	0.000014	-0.000000	0.000000	0.000000
40.081524	13.796047	20.464928	-1.317384	1.922210	2.383357	0.000000	0.231276	0.000000	0.000014	0.000000	0.000000	0.000000
40.527484	15.180558	18.571650	-1.798107	2.305269	2.501967	0.000000	0.300923	0.000000	0.000014	0.000001	0.000000	0.000000
41.076544	16.947276	16.444036	-1.400559	1.592616	2.646661	0.000000	0.225363	0.000000	0.000014	0.000000	0.000000	0.000000
41.625604	18.220197	15.032488	-0.904082	0.993402	2.748708	0.000000	0.145805	0.000000	0.000014	-0.000000	0.000000	0.000000
42.174664	18.909410	14.236466	-0.343746	0.464946	2.806298	0.000000	0.063661	0.000000	0.000014	-0.000001	0.000000	0.000000
42.723724	18.966231	13.999271	0.240871	-0.030393	2.818409	0.000000	-0.019612	0.000000	0.000013	-0.000001	0.000000	0.000000
43.022297	18.856857	14.001948	0.175002	-0.015148	2.814752	0.000000	-0.012249	0.000000	0.000013	-0.000001	0.000000	0.000000
43.502297	18.701447	14.032949	0.148768	-0.049437	2.808873	0.000000	-0.012249	0.000000	0.000012	-0.000001	0.000000	0.000000
43.982297	18.571222	14.096866	0.122533	-0.083726	2.802993	0.000000	-0.012249	0.000000	0.000012	-0.000001	0.000000	0.000000
44.462297	18.466183	14.193702	0.096299	-0.118014	2.797114	0.000000	-0.012249	0.000000	0.000011	-0.000001	0.000000	0.000000
44.942297	18.386328	14.323454	0.070064	-0.152303	2.791235	0.000000	-0.012249	0.000000	0.000011	-0.000001	0.000000	0.000000
45.423547	18.331777	14.486411	-0.047064	-0.114907	2.785358	0.000000	0.001551	0.000000	0.000010	-0.000001	0.000000	0.000000
45.720870	18.364596	14.560922	-0.111299	-0.097660	2.785820	0.000000	0.008829	0.000000	0.000010	-0.000001	0.000000	0.000000
46.269930	18.177597	14.949744	0.449863	-0.614679	2.768096	0.000000	-0.073297	0.000000	0.000009	-0.000001	0.000000	0.000000
46.818990	17.388255	15.926881	0.979249	-1.175480	2.705571	0.000000	-0.154123	0.000000	0.000008	-0.000002	0.000000	0.000000
47.368050	16.052326	17.561933	1.439466	-1.820008	2.599354	0.000000	-0.232216	0.000000	0.000007	-0.000002	0.000000	0.000000
47.917110	14.264174	19.971360	1.798006	-2.594171	2.451328	0.000000	-0.306190	0.000000	0.000006	-0.000002	0.000000	0.000000
48.363070	12.872703	22.113494	1.333219	-2.189056	2.330073	0.000000	-0.237891	0.000000	0.000005	-0.000002	0.000000	0.000000
48.804030	11.877118	23.828595	0.933113	-1.685615	2.239633	0.000000	-0.172698	0.000000	0.000004	-0.000002	0.000000	0.000000
49.244990	11.214334	25.064058	0.575638	-1.105480	2.177480	0.000000	-0.109473	0.000000	0.000003	-0.000002	0.000000	0.000000
49.685950	10.854069	25.763670	0.244463	-0.475047	2.142906	0.000000	-0.047494	0.000000	0.000003	-0.000002	0.000000	0.000000
50.128160	10.779986	25.895315	-0.049225	0.113450	2.135527	0.000000	0.008707	0.000000	0.000002	-0.000002	0.000000	0.000000
50.425482	10.817478	25.831311	-0.076873	0.101820	2.138116	0.000000	0.008707	0.000000	0.000002	-0.000002	0.000000	0.000000
50.758816	10.879059	25.767777	-0.107870	0.088782	2.141019	0.000000	0.008707	0.000000	0.000001	-0.000002	0.000000	0.000000
51.092149	10.961305	25.712935	-0.138866	0.075744	2.143922	0.000000	0.008707	0.000000	0.000000	-0.000002	0.000000	0.000000
51.426732	11.064415	25.667148	-0.080217	-0.145567	2.146813	0.000000	-0.008710	0.000000	-0.000000	-0.000002	0.000000	0.000000
51.724055	11.120156	25.757227	-0.079992	-0.220562	2.144224	0.000000	-0.013968	0.000000	-0.000001	-0.000002	0.000000	0.000000
52.165015	11.335915	25.665169	-0.411158	0.428533	2.151654	0.000000	0.047695	0.000000	-0.000001	-0.000002	0.000000	0.000000
52.605975	11.850884	25.007106	-0.761109	1.058130	2.186368	0.000000	0.109901	0.000000	-0.000002	-0.000002	0.000000	0.000000
53.046935	12.688592	23.812979	-1.145833	1.639582	2.248763	0.000000	0.173358	0.000000	-0.000003	-0.000002	0.000000	0.000000
53.487895	13.887309	22.137120	-1.582907	2.146436	2.339548	0.000000	0.238791	0.000000	-0.000004	-0.000002	0.000000	0.000000
53.933855	15.522354	20.030722	-2.096525	2.556966	2.461262	0.000000	0.307341	0.000000	-0.000004	-0.000002	0.000000	0.000000
54.482915	17.627464	17.660443	-1.714804	1.785494	2.609831	0.000000	0.233037	0.000000	-0.000005	-0.000002	0.000000	0.000000
55.031975	19.244000	16.062943	-1.211958	1.141199	2.716407	0.000000	0.154599	0.000000	-0.000006	-0.000002	0.000000	0.000000
55.581035	20.257780	15.124436	-0.623505	0.578189	2.779098	0.000000	0.073419	0.000000	-0.000007	-0.000001	0.000000	0.000000
56.130095	20.597195	14.778074	0.008989	0.056362	2.796792	0.000000	-0.009063	0.000000	-0.000008	-0.000001	0.000000	0.000000
56.428668	20.628303	14.727446	-0.059356	0.074591	2.796268	0.000000	-0.001755	0.000000	-0.000008	-0.000001	0.000000	0.000000
56.762001	20.673279	14.685305	-0.075572	0.051831	2.795683	0.000000	-0.001755	0.000000	-0.000009	-0.000001	0.000000	0.000000
57.095334	20.729065	14.658338	-0.091788	0.029072	2.795099	0.000000	-0.001755	0.000000	-0.000009	-0.000001	0.000000	0.000000
57.429918	20.795933	14.646527	-0.108065	0.006227	2.794512	0.000000	-0.001755	0.000000	-0.000009	-0.000001	0.000000	0.000000
57.727240	20.864494	14.648860	-0.177048	0.024204	2.793990	0.000000	0.005545	0.000000	-0.000010	-0.000001	0.000000	0.000000
58.276300	20.702990	14.903531	0.469451	-0.490773	2.774396	0.000000	-0.076815	0.000000	-0.000010	-0.000001	0.000000	0.000000
58.825360	19.845641	15.739470	1.082791	-1.040706	2.709889	0.000000	-0.157814	0.000000	-0.000011	-0.000001	0.000000	0.000000
59.374420	18.353003	17.216220	1.619649	-1.664767	2.601612	0.000000	-0.236013	0.000000	-0.000011	-0.000000	0.000000	0.000000
59.923480	16.330510	19.438966	2.042102	-2.407405	2.451488	0.000000	-0.310026	0.000000	-0.000011	0.000000	0.000000	0.000000
60.369440	14.747560	21.414527	1.520002	-2.003804	2.328518	0.000000	-0.241745	0.000000	-0.000011	-0.000000	0.000000	0.000000
60.810400	13.609109	22.970073	1.071548	-1.510408	2.236366	0.000000	-0.176615	0.000000	-0.000011	-0.000000	0.000000	0.000000
61.251360	12.843158	24.058401	0.672049	-0.948289	2.172464	0.000000	-0.113496	0.000000	-0.000011	-0.000001	0.000000	0.000000
61.692320	12.414714	24.629994	0.303255	-0.343025	2.136083	0.000000	-0.051670	0.000000	-0.000011	-0.000001	0.000000	0.000000
62.134530	12.304255	24.658301	-0.021610	0.217317	2.126815	0.000000	0.004351	0.000000	-0.000012	-0.000001	0.000000	0.000000
62.431853	12.324293	24.532829	-0.045786	0.204690	2.128109	0.000000	0.004351	0.000000	-0.000012	-0.000001	0.000000	0.000000
62.765186	12.363851	24.401088	-0.072889	0.190533	2.129560	0.000000	0.004351	0.000000	-0.000013	-0.000001	0.000000	0.000000
63.098520	12.421478	24.278785	-0.099993	0.176377	2.131011	0.000000	0.004351	0.000000	-0.000013	-0.000001	0.000000	0.000000
63.433103	12.497493	24.165513	-0.127198	0.162167	2.132467	0.000000	0.004351	0.000000	-0.000014	-0.000001	0.000000	0.000000
63.730426	12.580318	24.072836	-0.120519	0.090498	2.133761	0.000000	-0.000882	0.000000	-0.000014	-0.000001	0.000000	0.000000
64.171386	12.846843	23.727919	-0.486195	0.688721	2.146912	0.000000	0.060585	0.000000	-0.000014	-0.000002	0.000000	0.000000
64.612346	13.444405	22.867273	-0.874085	1.255607	2.187294	0.000000	0.122741	0.000000	-0.000015	-0.000002	0.000000	0.000000
65.053306	14.400304	21.530057	-1.301909	1.765364	2.255367	0.000000	0.186296	0.000000	-0.000016	-0.000002	0.000000	0.000000
65.494266	15.758213	19.777113	-1.789213	2.194799	2.351906	0.000000	0.251973	0.000000	-0.000017	-0.000003	0.000000	0.000000
65.940226	17.603330	17.663399	-2.362952	2.525123	2.479582	0.000000	0.320921	0.000000	-0.000019	-0.000003	0.000000	0.000000
66.489286	19.968718	15.298863	-1.919616	1.806816	2.635424	0.000000	0.245905	0.000000	-0.000020	-0.000003	0.000000	0.000000
67.038346	21.769479	13.648237	-1.340688	1.217205	2.748817	0.000000	0.166528	0.000000	-0.000021	-0.000002	0.000000	0.000000
67.587406	22.878418	12.593953	-0.667061	0.714292	2.817751	0.000000	0.084196	0.000000	-0.000022	-0.000001	0.000000	0.000000
68.136466	23.217203	12.060916	0.053684	0.262256	2.841002	0.000000	0.000372	0.000000	-0.000023	-0.000000	0.000000	0.000000
68.435038	23.225217	11.893519	-0.019851	0.266884	2.843330	0.000000	0.007796	0.000000	-0.000023	-0.000001	0.000000	0.000000
68.768372	23.243237	11.725604	-0.034208	0.236861	2.845929	0.000000	0.007796	0.000000	-0.000023	-0.000001	0.000000	0.000000
69.101705	23.270828	11.577704	-0.048566	0.206838	2.848528	0.000000	0.007796	0.000000	-0.000023	-0.000001	0.000000	0.000000
69.436288	23.308149	11.449378	-0.062978	0.176703	2.851137	0.000000	0.007796	0.000000	-0.000024	-0.000001	0.000000	0.000000
69.733611	23.349407	11.352264	-0.136805	0.179591	2.853455	0.000000	0.015253	0.000000	-0.000024	-0.000001	0.000000	0.000000
70.282671	23.098614	11.382441	0.590868	-0.234876	2.838647	0.000000	-0.069112	0.000000	-0.000024	0.000000	0.000000	0.000000
