#ParticleID	Turn	x[m]	xp	y[m]	yp	z[m]	dE[GeV]# s	beta_x	beta_y	alpha_x	alpha_y	D_x	D_y	D_px	D_py	orbit_x	orbit_px	orbit_y	orbit_py
0.300000	11.821119	24.988837	-0.011885	-0.027554	2.618075	0.000000	0.000027	0.000000	0.000000	0.000001	0.000000	0.000000
0.601250	11.835957	25.009073	-0.037372	-0.039619	2.618083	0.000000	0.000027	0.000000	0.000000	0.000001	0.000000	0.000000
0.898573	11.865660	25.036172	-0.033430	-0.112921	2.618091	0.000000	-0.006394	0.000000	0.000001	0.000001	0.000000	0.000000
1.339533	12.047361	24.858057	-0.380192	0.515310	2.631564	0.000000	0.067563	0.000000	0.000001	0.000001	0.000000	0.000000
1.780493	12.541354	24.134154	-0.744324	1.120095	2.677788	0.000000	0.142289	0.000000	0.000001	0.000001	0.000000	0.000000
2.221453	13.370206	22.897401	-1.142462	1.673916	2.757289	0.000000	0.218636	0.000000	0.000002	0.000001	0.000000	0.000000
2.662413	14.571787	21.204068	-1.592795	2.151576	2.870972	0.000000	0.297473	0.000000	0.000002	0.000001	0.000000	0.000000
3.108373	16.221762	19.106367	-2.120193	2.532472	3.021994	0.000000	0.380188	0.000000	0.000002	0.000001	0.000000	0.000000
3.657433	18.337558	16.750385	-1.710482	1.783793	3.205468	0.000000	0.287150	0.000000	0.000003	0.000001	0.000000	0.000000
4.206493	19.934029	15.142366	-1.179951	1.162170	3.336383	0.000000	0.189018	0.000000	0.000003	0.000001	0.000000	0.000000
4.755553	20.898410	14.167775	-0.566073	0.623325	3.412416	0.000000	0.087534	0.000000	0.000003	0.000001	0.000000	0.000000
5.304613	21.162581	13.757194	0.087788	0.128879	3.432220	0.000000	-0.015503	0.000000	0.000004	0.000000	0.000000	0.000000
5.603185	21.147393	13.665427	0.018373	0.142530	3.430268	0.000000	-0.006535	0.000000	0.000004	0.000000	0.000000	0.000000
5.936519	21.140401	13.578703	0.002605	0.117642	3.428090	0.000000	-0.006535	0.000000	0.000004	0.000000	0.000000	0.000000
6.269852	21.143920	13.508570	-0.013163	0.092754	3.425911	0.000000	-0.006535	0.000000	0.000004	0.000000	0.000000	0.000000
6.604435	21.158023	13.454861	-0.028990	0.067773	3.423725	0.000000	-0.006535	0.000000	0.000004	0.000000	0.000000	0.000000
6.901758	21.179443	13.421161	-0.098390	0.080639	3.421781	0.000000	0.002405	0.000000	0.000004	0.000000	0.000000	0.000000
7.450818	20.926496	13.593292	0.556356	-0.395992	3.394900	0.000000	-0.100179	0.000000	0.000005	0.000000	0.000000	0.000000
7.999878	19.971983	14.301147	1.171803	-0.900830	3.312099	0.000000	-0.200986	0.000000	0.000005	0.000000	0.000000	0.000000
8.548938	18.383327	15.595145	1.704480	-1.469831	3.174847	0.000000	-0.298228	0.000000	0.000005	0.000000	0.000000	0.000000
9.097998	16.272743	17.567453	2.116760	-2.143526	2.985580	0.000000	-0.390180	0.000000	0.000005	-0.000000	0.000000	0.000000
9.543958	14.626054	19.324905	1.588827	-1.780649	2.829883	0.000000	-0.308471	0.000000	0.000005	-0.000000	0.000000	0.000000
9.984918	13.428275	20.705351	1.137776	-1.337985	2.711106	0.000000	-0.230759	0.000000	0.000005	0.000000	0.000000	0.000000
10.425878	12.603949	21.666965	0.738706	-0.834444	2.625986	0.000000	-0.155675	0.000000	0.000005	0.000000	0.000000	0.000000
10.866838	12.115415	22.165994	0.373385	-0.292937	2.573553	0.000000	-0.082364	0.000000	0.000005	0.000000	0.000000	0.000000
11.309048	11.940217	22.179214	0.054298	0.207451	2.553190	0.000000	-0.016252	0.000000	0.000005	0.000000	0.000000	0.000000
11.606371	11.915354	22.060012	0.029324	0.193469	2.548357	0.000000	-0.016252	0.000000	0.000005	0.000000	0.000000	0.000000
12.086371	11.906557	21.885117	-0.010995	0.170896	2.540556	0.000000	-0.016252	0.000000	0.000005	0.000000	0.000000	0.000000
12.566371	11.936465	21.731892	-0.051314	0.148322	2.532755	0.000000	-0.016252	0.000000	0.000006	0.000000	0.000000	0.000000
13.046371	12.005079	21.600338	-0.091633	0.125749	2.524953	0.000000	-0.016252	0.000000	0.000006	0.000000	0.000000	0.000000
13.526371	12.112400	21.490454	-0.131952	0.103176	2.517152	0.000000	-0.016252	0.000000	0.000006	0.000000	0.000000	0.000000
14.007621	12.258857	21.402039	-0.172375	0.080544	2.509330	0.000000	-0.016252	0.000000	0.000006	0.000000	0.000000	0.000000
14.304943	12.368785	21.358301	-0.167020	0.014188	2.504498	0.000000	-0.022394	0.000000	0.000007	0.000000	0.000000	0.000000
14.745903	12.674696	21.112008	-0.529352	0.542225	2.510256	0.000000	0.048535	0.000000	0.000007	0.000001	0.000000	0.000000
15.186863	13.309573	20.409171	-0.915869	1.045590	2.547383	0.000000	0.120017	0.000000	0.000007	0.000001	0.000000	0.000000
15.627823	14.302419	19.281767	-1.344229	1.501383	2.616301	0.000000	0.192866	0.000000	0.000007	0.000001	0.000000	0.000000
16.068783	15.698596	17.781093	-1.834003	1.888863	2.717796	0.000000	0.267911	0.000000	0.000008	0.000001	0.000000	0.000000
16.514743	17.585546	15.953926	-2.412326	2.191149	2.854718	0.000000	0.346470	0.000000	0.000009	0.000001	0.000000	0.000000
17.063803	20.008958	13.913661	-1.975294	1.546707	3.021217	0.000000	0.259126	0.000000	0.000009	0.000001	0.000000	0.000000
17.612863	21.872536	12.516786	-1.398737	1.012433	3.138425	0.000000	0.167187	0.000000	0.000010	0.000001	0.000000	0.000000
18.161923	23.044644	11.663802	-0.723380	0.550272	3.204263	0.000000	0.072282	0.000000	0.000010	0.000000	0.000000	0.000000
18.710983	23.442491	11.293954	0.003073	0.127306	3.217563	0.000000	-0.023905	0.000000	0.000010	0.000000	0.000000	0.000000
19.009556	23.481044	11.208402	-0.070952	0.129726	3.212936	0.000000	-0.015499	0.000000	0.000010	0.000000	0.000000	0.000000
19.342889	23.533102	11.131998	-0.085220	0.099486	3.207769	0.000000	-0.015499	0.000000	0.000010	0.000000	0.000000	0.000000
19.676223	23.594671	11.075754	-0.099487	0.069246	3.202603	0.000000	-0.015499	0.000000	0.000010	0.000000	0.000000	0.000000
20.010806	23.666329	11.039436	-0.231064	0.093588	3.197437	0.000000	0.000343	0.000000	0.000011	0.000000	0.000000	0.000000
20.308129	23.807665	10.991862	-0.306497	0.095137	3.197539	0.000000	0.008697	0.000000	0.000011	0.000000	0.000000	0.000000
20.857189	23.733618	11.109723	0.440561	-0.311064	3.176091	0.000000	-0.086709	0.000000	0.000011	-0.000000	0.000000	0.000000
21.406249	22.851513	11.683118	1.156500	-0.739421	3.102605	0.000000	-0.180577	0.000000	0.000010	-0.000000	0.000000	0.000000
21.955309	21.223659	12.752889	1.790750	-1.220446	2.978384	0.000000	-0.271243	0.000000	0.000010	-0.000001	0.000000	0.000000
22.504369	18.965039	14.395232	2.298510	-1.788400	2.805632	0.000000	-0.357097	0.000000	0.000010	-0.000001	0.000000	0.000000
22.950329	17.185101	15.869682	1.706829	-1.503889	2.663677	0.000000	-0.279877	0.000000	0.000009	-0.000001	0.000000	0.000000
23.391289	15.909105	17.045212	1.197825	-1.151809	2.556588	0.000000	-0.206299	0.000000	0.000009	-0.000001	0.000000	0.000000
23.832249	15.056273	17.885851	0.743546	-0.747322	2.481394	0.000000	-0.135070	0.000000	0.000009	-0.000000	0.000000	0.000000
24.273209	14.587641	18.353352	0.323238	-0.308832	2.437241	0.000000	-0.065380	0.000000	0.000009	-0.000000	0.000000	0.000000
24.715418	14.481917	18.426196	-0.046878	0.098457	2.423622	0.000000	-0.002378	0.000000	0.000009	0.000000	0.000000	0.000000
25.012741	14.515910	18.372493	-0.067454	0.082165	2.422915	0.000000	-0.002378	0.000000	0.000009	0.000000	0.000000	0.000000
25.346075	14.568569	18.323805	-0.090522	0.063900	2.422122	0.000000	-0.002378	0.000000	0.000009	0.000000	0.000000	0.000000
25.679408	14.636606	18.287293	-0.113589	0.045634	2.421330	0.000000	-0.002378	0.000000	0.000009	0.000000	0.000000	0.000000
26.013991	14.720065	18.263261	-0.017325	-0.120860	2.420510	0.000000	-0.022015	0.000000	0.000009	-0.000000	0.000000	0.000000
26.311314	14.736374	18.340041	-0.001395	-0.182350	2.413964	0.000000	-0.027934	0.000000	0.000009	-0.000000	0.000000	0.000000
26.752274	14.919174	18.301936	-0.414728	0.268436	2.416759	0.000000	0.040623	0.000000	0.000009	0.000000	0.000000	0.000000
27.193234	15.473448	17.870162	-0.847010	0.707007	2.449858	0.000000	0.109642	0.000000	0.000009	0.000000	0.000000	0.000000
27.634194	16.424517	17.064364	-1.317989	1.113411	2.513638	0.000000	0.179911	0.000000	0.000009	0.000001	0.000000	0.000000
28.075154	17.815835	15.921205	-1.849183	1.469155	2.608825	0.000000	0.252228	0.000000	0.000009	0.000001	0.000000	0.000000
28.521114	19.735141	14.475481	-2.469823	1.758966	2.738107	0.000000	0.327861	0.000000	0.000010	0.000001	0.000000	0.000000
29.070174	22.174592	12.864594	-1.946835	1.192251	2.895453	0.000000	0.244445	0.000000	0.000010	0.000001	0.000000	0.000000
29.619234	23.960367	11.826023	-1.286332	0.710458	3.005739	0.000000	0.156692	0.000000	0.000011	0.000000	0.000000	0.000000
30.168294	24.966326	11.285793	-0.534970	0.279268	3.067009	0.000000	0.066161	0.000000	0.000011	0.000000	0.000000	0.000000
30.717354	25.121414	11.205425	0.254181	-0.132029	3.078176	0.000000	-0.025545	0.000000	0.000011	-0.000000	0.000000	0.000000
31.015927	25.012497	11.274823	0.176241	-0.129681	3.072950	0.000000	-0.017503	0.000000	0.000011	-0.000000	0.000000	0.000000
31.349260	24.899583	11.371298	0.162501	-0.159743	3.067116	0.000000	-0.017503	0.000000	0.000011	-0.000000	0.000000	0.000000
31.682593	24.795830	11.487813	0.148760	-0.189804	3.061282	0.000000	-0.017503	0.000000	0.000011	-0.000000	0.000000	0.000000
32.017177	24.700899	11.624920	0.134968	-0.219978	3.055426	0.000000	-0.017503	0.000000	0.000011	-0.000000	0.000000	0.000000
32.314499	24.624285	11.763701	0.058379	-0.216059	3.050222	0.000000	-0.009534	0.000000	0.000010	-0.000000	0.000000	0.000000
32.863559	24.138312	12.240225	0.821481	-0.656953	3.020100	0.000000	-0.100026	0.000000	0.000010	-0.000001	0.000000	0.000000
33.412619	22.841421	13.223603	1.526557	-1.144641	2.940707	0.000000	-0.188744	0.000000	0.000010	-0.000001	0.000000	0.000000
33.961679	20.825217	14.783882	2.123805	-1.713859	2.813452	0.000000	-0.274115	0.000000	0.000009	-0.000001	0.000000	0.000000
34.510739	18.232115	17.032195	2.571039	-2.405152	2.640591	0.000000	-0.354623	0.000000	0.000009	-0.000001	0.000000	0.000000
34.956699	16.215924	19.043200	1.966173	-2.085404	2.498788	0.000000	-0.281682	0.000000	0.000008	-0.000001	0.000000	0.000000
35.397659	14.712522	20.706181	1.456145	-1.671518	2.389961	0.000000	-0.212377	0.000000	0.000007	-0.000001	0.000000	0.000000
35.838619	13.627999	21.969089	1.012644	-1.181580	2.311134	0.000000	-0.145492	0.000000	0.000007	-0.000001	0.000000	0.000000
36.279579	12.912806	22.774463	0.615408	-0.637880	2.261407	0.000000	-0.080263	0.000000	0.000007	-0.000001	0.000000	0.000000
36.721789	12.533575	23.085963	0.276917	-0.121822	2.240188	0.000000	-0.021441	0.000000	0.000006	-0.000001	0.000000	0.000000
37.019112	12.376501	23.162290	0.251376	-0.134892	2.233813	0.000000	-0.021441	0.000000	0.000006	-0.000001	0.000000	0.000000
37.352445	12.218462	23.257102	0.222742	-0.149545	2.226667	0.000000	-0.021441	0.000000	0.000006	-0.000001	0.000000	0.000000
37.685779	12.079513	23.361683	0.194107	-0.164198	2.219520	0.000000	-0.021441	0.000000	0.000006	-0.000001	0.000000	0.000000
38.020362	11.959239	23.476480	0.165365	-0.178906	2.212346	0.000000	-0.021441	0.000000	0.000006	-0.000001	0.000000	0.000000
38.317684	11.868500	23.586752	0.168927	-0.249815	2.205971	0.000000	-0.026851	0.000000	0.000006	-0.000001	0.000000	0.000000
38.758644	11.870862	23.545825	-0.174304	0.342275	2.208060	0.000000	0.036335	0.000000	0.000005	-0.000000	0.000000	0.000000
39.199604	12.178280	22.987621	-0.525498	0.918792	2.238077	0.000000	0.099935	0.000000	0.000005	-0.000000	0.000000	0.000000
39.640564	12.804800	21.937538	-0.900701	1.453504	2.296362	0.000000	0.164672	0.000000	0.000005	-0.000000	0.000000	0.000000
40.081524	13.779045	20.443352	-1.317054	1.922083	2.383580	0.000000	0.231286	0.000000	0.000005	0.000000	0.000000	0.000000
40.527484	15.163097	18.550482	-1.797405	2.304490	2.502196	0.000000	0.300938	0.000000	0.000005	0.000000	0.000000	0.000000
41.076544	16.929409	16.423414	-1.400525	1.592393	2.646896	0.000000	0.225370	0.000000	0.000005	-0.000000	0.000000	0.000000
41.625604	18.202663	15.011817	-0.904718	0.993718	2.748945	0.000000	0.145805	0.000000	0.000005	-0.000000	0.000000	0.000000
42.174664	18.892922	14.215144	-0.345006	0.465823	2.806533	0.000000	0.063653	0.000000	0.000005	-0.000000	0.000000	0.000000
42.723724	18.951431	13.976651	0.239075	-0.028893	2.818637	0.000000	-0.019627	0.000000	0.000005	-0.000001	0.000000	0.000000
43.022297	18.843109	13.978477	0.173240	-0.013739	2.814976	0.000000	-0.012263	0.000000	0.000005	-0.000000	0.000000	0.000000
43.502297	18.689393	14.008152	0.147002	-0.048084	2.809090	0.000000	-0.012263	0.000000	0.000005	-0.000000	0.000000	0.000000
43.982297	18.560866	14.070798	0.120764	-0.082429	2.803204	0.000000	-0.012263	0.000000	0.000004	-0.000000	0.000000	0.000000
44.462297	18.457527	14.166416	0.094526	-0.116774	2.797318	0.000000	-0.012263	0.000000	0.000004	-0.000000	0.000000	0.000000
44.942297	18.379377	14.295005	0.068287	-0.151119	2.791432	0.000000	-0.012263	0.000000	0.000004	-0.000000	0.000000	0.000000
45.423547	18.326537	14.456849	-0.048819	-0.113925	2.785547	0.000000	0.001538	0.000000	0.000004	-0.000000	0.000000	0.000000
45.720870	18.360402	14.530789	-0.113052	-0.096793	2.786005	0.000000	0.008817	0.000000	0.000003	-0.000000	0.000000	0.000000
46.269930	18.175389	14.918151	0.448019	-0.612872	2.768272	0.000000	-0.073315	0.000000	0.000003	-0.000001	0.000000	0.000000
46.818990	17.388063	15.892731	0.977445	-1.172604	2.705736	0.000000	-0.154147	0.000000	0.000003	-0.000001	0.000000	0.000000
47.368050	16.054036	17.523947	1.437829	-1.815857	2.599504	0.000000	-0.232244	0.000000	0.000002	-0.000001	0.000000	0.000000
47.917110	14.267537	19.927986	1.796651	-2.588451	2.451461	0.000000	-0.306223	0.000000	0.000002	-0.000001	0.000000	0.000000
48.363070	12.877241	22.065429	1.331929	-2.184303	2.330191	0.000000	-0.237921	0.000000	0.000002	-0.000001	0.000000	0.000000
48.804030	11.882787	23.776846	0.931828	-1.682044	2.239738	0.000000	-0.172725	0.000000	0.000001	-0.000001	0.000000	0.000000
49.244990	11.221154	25.009742	0.574300	-1.103252	2.177573	0.000000	-0.109497	0.000000	0.000001	-0.000001	0.000000	0.000000
49.685950	10.862116	25.708021	0.243010	-0.474264	2.142988	0.000000	-0.047517	0.000000	0.000001	-0.000001	0.000000	0.000000
50.128160	10.789394	25.839629	-0.050836	0.112888	2.135599	0.000000	0.008686	0.000000	0.000000	-0.000001	0.000000	0.000000
50.425482	10.827838	25.775965	-0.078464	0.101235	2.138182	0.000000	0.008686	0.000000	0.000000	-0.000001	0.000000	0.000000
50.758816	10.890472	25.712830	-0.109439	0.088170	2.141078	0.000000	0.008686	0.000000	-0.000000	-0.000001	0.000000	0.000000
51.092149	10.973756	25.658405	-0.140413	0.075106	2.143973	0.000000	0.008686	0.000000	-0.000000	-0.000001	0.000000	0.000000
51.426732	11.077893	25.613053	-0.081632	-0.145793	2.146858	0.000000	-0.008731	0.000000	-0.000001	-0.000001	0.000000	0.000000
51.724055	11.134469	25.703273	-0.081345	-0.220681	2.144262	0.000000	-0.013989	0.000000	-0.000001	-0.000001	0.000000	0.000000
52.165015	11.351575	25.611951	-0.412872	0.426992	2.151683	0.000000	0.047675	0.000000	-0.000001	-0.000001	0.000000	0.000000
52.605975	11.868243	24.955851	-0.763261	1.055237	2.186388	0.000000	0.109881	0.000000	-0.000001	-0.000001	0.000000	0.000000
53.046935	12.708077	23.764825	-1.148522	1.635469	2.248773	0.000000	0.173339	0.000000	-0.000002	-0.000001	0.000000	0.000000
53.487895	13.909446	22.093064	-1.586256	2.141289	2.339549	0.000000	0.238772	0.000000	-0.000002	-0.000001	0.000000	0.000000
53.933855	15.547832	19.991635	-2.100693	2.551018	2.461255	0.000000	0.307322	0.000000	-0.000002	-0.000001	0.000000	0.000000
54.482915	17.657180	17.627030	-1.718312	1.781045	2.609813	0.000000	0.233018	0.000000	-0.000003	-0.000001	0.000000	0.000000
55.031975	19.277090	16.033742	-1.214557	1.137932	2.716378	0.000000	0.154581	0.000000	-0.000003	-0.000001	0.000000	0.000000
55.581035	20.293139	15.098283	-0.625013	0.575871	2.779059	0.000000	0.073402	0.000000	-0.000004	-0.000001	0.000000	0.000000
56.130095	20.633557	14.754024	0.008680	0.054828	2.796744	0.000000	-0.009079	0.000000	-0.000004	-0.000000	0.000000	0.000000
56.428668	20.664898	14.704358	-0.059734	0.072966	2.796215	0.000000	-0.001771	0.000000	-0.000004	-0.000000	0.000000	0.000000
56.762001	20.710116	14.663311	-0.075921	0.050176	2.795625	0.000000	-0.001771	0.000000	-0.000004	-0.000000	0.000000	0.000000
57.095334	20.766126	14.637457	-0.092109	0.027386	2.795035	0.000000	-0.001771	0.000000	-0.000004	-0.000000	0.000000	0.000000
57.429918	20.833199	14.626784	-0.108358	0.004511	2.794442	0.000000	-0.001771	0.000000	-0.000005	-0.000000	0.000000	0.000000
57.727240	20.901927	14.630146	-0.177412	0.022411	2.793916	0.000000	0.005529	0.000000	-0.000005	-0.000000	0.000000	0.000000
58.276300	20.740133	14.886501	0.470342	-0.492065	2.774313	0.000000	-0.076829	0.000000	-0.000005	-0.000000	0.000000	0.000000
58.825360	19.881142	15.723628	1.084874	-1.041589	2.709799	0.000000	-0.157825	0.000000	-0.000005	-0.000000	0.000000	0.000000
59.374420	18.385627	17.201152	1.622775	-1.665303	2.601517	0.000000	-0.236021	0.000000	-0.000005	0.000000	0.000000	0.000000
59.923480	16.359226	19.424316	2.046052	-2.407633	2.451389	0.000000	-0.310030	0.000000	-0.000005	0.000000	0.000000	0.000000
60.369440	14.773144	21.400313	1.523099	-2.004547	2.328417	0.000000	-0.241752	0.000000	-0.000005	0.000000	0.000000	0.000000
60.810400	13.632282	22.956728	1.073939	-1.511629	2.236261	0.000000	-0.176625	0.000000	-0.000005	-0.000000	0.000000	0.000000
61.251360	12.864492	24.046324	0.673845	-0.949932	2.172353	0.000000	-0.113509	0.000000	-0.000005	-0.000000	0.000000	0.000000
61.692320	12.434696	24.619525	0.304536	-0.345015	2.135966	0.000000	-0.051686	0.000000	-0.000005	-0.000000	0.000000	0.000000
62.134530	12.323309	24.649713	-0.020739	0.215095	2.126690	0.000000	0.004333	0.000000	-0.000005	-0.000000	0.000000	0.000000
62.431853	12.342818	24.525560	-0.044876	0.202475	2.127978	0.000000	0.004333	0.000000	-0.000006	-0.000000	0.000000	0.000000
62.765186	12.381755	24.395292	-0.071937	0.188327	2.129423	0.000000	0.004333	0.000000	-0.000006	-0.000000	0.000000	0.000000
63.098520	12.438733	24.274457	-0.098997	0.174179	2.130867	0.000000	0.004333	0.000000	-0.000006	-0.000000	0.000000	0.000000
63.433103	12.514067	24.162654	-0.126159	0.159977	2.132317	0.000000	0.004333	0.000000	-0.000006	-0.000000	0.000000	0.000000
63.730426	12.596264	24.071277	-0.119405	0.088324	2.133606	0.000000	-0.000899	0.000000	-0.000006	-0.000000	0.000000	0.000000
64.171386	12.861958	23.728278	-0.485416	0.686561	2.146748	0.000000	0.060563	0.000000	-0.000006	-0.000001	0.000000	0.000000
64.612346	13.458966	22.869494	-0.873605	1.253561	2.187119	0.000000	0.122716	0.000000	-0.000007	-0.000001	0.000000	0.000000
65.053306	14.414566	21.533997	-1.301705	1.763525	2.255179	0.000000	0.186266	0.000000	-0.000007	-0.000001	0.000000	0.000000
65.494266	15.772414	19.782553	-1.789278	2.193250	2.351702	0.000000	0.251937	0.000000	-0.000008	-0.000001	0.000000	0.000000
65.940226	17.617711	17.670062	-2.363289	2.523939	2.479361	0.000000	0.320880	0.000000	-0.000008	-0.000001	0.000000	0.000000
66.489286	19.983146	15.306809	-1.919364	1.805648	2.635181	0.000000	0.245872	0.000000	-0.000009	-0.000001	0.000000	0.000000
67.038346	21.783315	13.657496	-1.339866	1.215969	2.748558	0.000000	0.166502	0.000000	-0.000009	-0.000001	0.000000	0.000000
67.587406	22.891062	12.604646	-0.665726	0.712901	2.817479	0.000000	0.084180	0.000000	-0.000010	-0.000000	0.000000	0.000000
68.136466	23.228142	12.073266	0.055438	0.260611	2.840723	0.000000	0.000364	0.000000	-0.000010	-0.000000	0.000000	0.000000
68.435038	23.235120	11.906819	-0.018112	0.265318	2.843048	0.000000	0.007787	0.000000	-0.000010	-0.000000	0.000000	0.000000
68.768372	23.251979	11.739929	-0.032463	0.235352	2.845644	0.000000	0.007787	0.000000	-0.000010	-0.000000	0.000000	0.000000
69.101705	23.278404	11.593016	-0.046814	0.205386	2.848239	0.000000	0.007787	0.000000	-0.000010	-0.000000	0.000000	0.000000
69.436288	23.314550	11.465642	-0.061219	0.175308	2.850845	0.000000	0.007787	0.000000	-0.000010	-0.000000	0.000000	0.000000
69.733611	23.354760	11.369343	-0.135046	0.178288	2.853160	0.000000	0.015242	0.000000	-0.000010	-0.000000	0.000000	0.000000
70.282671	23.101955	11.401218	0.592752	-0.236684	2.838349	0.000000	-0.069113	0.000000	-0.000010	0.000000	0.000000	0.000000
