#ParticleID	Turn	x[m]	xp	y[m]	yp	z[m]	dE[GeV]# s	beta_x	beta_y	alpha_x	alpha_y	D_x	D_y	D_px	D_py	orbit_x	orbit_px	orbit_y	orbit_py
0.300000	11.804095	25.056884	-0.010096	-0.026817	2.618262	0.000000	-0.000044	0.000000	-0.000001	0.000002	0.000000	0.000000
0.601250	11.817867	25.076666	-0.035619	-0.038848	2.618248	0.000000	-0.000044	0.000000	-0.000001	0.000002	0.000000	0.000000
0.898573	11.846537	25.103298	-0.031759	-0.112283	2.618235	0.000000	-0.006465	0.000000	-0.000000	0.000002	0.000000	0.000000
1.339533	12.026560	24.923839	-0.378042	0.517708	2.631677	0.000000	0.067495	0.000000	0.000001	0.000002	0.000000	0.000000
1.780493	12.518410	24.197082	-0.741597	1.124144	2.677871	0.000000	0.142224	0.000000	0.000001	0.000002	0.000000	0.000000
2.221453	13.344559	22.956094	-1.139033	1.679433	2.757343	0.000000	0.218573	0.000000	0.000002	0.000002	0.000000	0.000000
2.662413	14.542750	21.257339	-1.588508	2.158308	2.870999	0.000000	0.297411	0.000000	0.000003	0.000002	0.000000	0.000000
3.108373	16.188443	19.153199	-2.114843	2.540116	3.021992	0.000000	0.380126	0.000000	0.000004	0.000002	0.000000	0.000000
3.657433	18.298811	16.789884	-1.706005	1.789584	3.205431	0.000000	0.287088	0.000000	0.000005	0.000002	0.000000	0.000000
4.206493	19.890994	15.176330	-1.176663	1.166520	3.336312	0.000000	0.188958	0.000000	0.000006	0.000002	0.000000	0.000000
4.755553	20.852528	14.197607	-0.564207	0.626545	3.412313	0.000000	0.087477	0.000000	0.000007	0.000001	0.000000	0.000000
5.304613	21.115496	13.784003	0.088102	0.131196	3.432086	0.000000	-0.015556	0.000000	0.000008	0.000001	0.000000	0.000000
5.603185	21.100056	13.690803	0.018779	0.144943	3.430118	0.000000	-0.006589	0.000000	0.000008	0.000001	0.000000	0.000000
5.936519	21.092804	13.602461	0.002976	0.120084	3.427921	0.000000	-0.006589	0.000000	0.000008	0.000001	0.000000	0.000000
6.269852	21.096088	13.530691	-0.012828	0.095225	3.425725	0.000000	-0.006589	0.000000	0.000009	0.000001	0.000000	0.000000
6.604435	21.109980	13.475318	-0.028690	0.070273	3.423520	0.000000	-0.006589	0.000000	0.000009	0.000001	0.000000	0.000000
6.901758	21.131231	13.440123	-0.097994	0.083214	3.421560	0.000000	0.002350	0.000000	0.000010	0.000001	0.000000	0.000000
7.450818	20.878737	13.609710	0.555139	-0.393903	3.394650	0.000000	-0.100226	0.000000	0.000010	0.000001	0.000000	0.000000
7.999878	19.926411	14.315468	1.169060	-0.899078	3.311825	0.000000	-0.201025	0.000000	0.000011	0.000001	0.000000	0.000000
8.548938	18.341521	15.607668	1.700404	-1.468291	3.174555	0.000000	-0.298258	0.000000	0.000011	0.000000	0.000000	0.000000
9.097998	16.236016	17.578351	2.111640	-2.142088	2.985274	0.000000	-0.390200	0.000000	0.000011	-0.000000	0.000000	0.000000
9.543958	14.593389	19.334297	1.584806	-1.778720	2.829566	0.000000	-0.308499	0.000000	0.000011	0.000000	0.000000	0.000000
9.984918	13.398746	20.712859	1.134660	-1.335657	2.710775	0.000000	-0.230795	0.000000	0.000011	0.000000	0.000000	0.000000
10.425878	12.576821	21.672282	0.736354	-0.831824	2.625637	0.000000	-0.155720	0.000000	0.000011	0.000001	0.000000	0.000000
10.866838	12.090065	22.168914	0.371690	-0.290143	2.573182	0.000000	-0.082419	0.000000	0.000012	0.000001	0.000000	0.000000
11.309048	11.916105	22.179633	0.053121	0.210294	2.552791	0.000000	-0.016315	0.000000	0.000012	0.000001	0.000000	0.000000
11.606371	11.891956	22.058744	0.028099	0.196296	2.547940	0.000000	-0.016315	0.000000	0.000013	0.000001	0.000000	0.000000
12.086371	11.884371	21.881147	-0.012296	0.173698	2.540108	0.000000	-0.016315	0.000000	0.000013	0.000001	0.000000	0.000000
12.566371	11.915565	21.725245	-0.052691	0.151099	2.532276	0.000000	-0.016315	0.000000	0.000014	0.000001	0.000000	0.000000
13.046371	11.985538	21.591037	-0.093087	0.128501	2.524444	0.000000	-0.016315	0.000000	0.000015	0.000001	0.000000	0.000000
13.526371	12.094291	21.478523	-0.133482	0.105902	2.516612	0.000000	-0.016315	0.000000	0.000015	0.000001	0.000000	0.000000
14.007621	12.242258	21.387496	-0.173982	0.083245	2.508760	0.000000	-0.016315	0.000000	0.000016	0.000001	0.000000	0.000000
14.304943	12.353156	21.342157	-0.168715	0.016918	2.503909	0.000000	-0.022455	0.000000	0.000016	0.000001	0.000000	0.000000
14.745903	12.660425	21.093666	-0.530747	0.544460	2.509636	0.000000	0.048459	0.000000	0.000017	0.000002	0.000000	0.000000
15.186863	13.296424	20.389113	-0.917027	1.047230	2.546725	0.000000	0.119924	0.000000	0.000018	0.000002	0.000000	0.000000
15.627823	14.290208	19.260554	-1.345204	1.502352	2.615598	0.000000	0.192755	0.000000	0.000019	0.000003	0.000000	0.000000
16.068783	15.687181	17.759338	-1.834839	1.889118	2.717039	0.000000	0.267782	0.000000	0.000020	0.000003	0.000000	0.000000
16.514743	17.574829	15.932270	-2.413062	2.190673	2.853899	0.000000	0.346320	0.000000	0.000022	0.000004	0.000000	0.000000
17.063803	19.999362	13.892260	-1.976584	1.546718	3.020322	0.000000	0.259005	0.000000	0.000023	0.000003	0.000000	0.000000
17.612863	21.864622	12.495105	-1.400490	1.012932	3.137470	0.000000	0.167095	0.000000	0.000025	0.000002	0.000000	0.000000
18.161923	23.038855	11.641289	-0.725473	0.551296	3.203266	0.000000	0.072222	0.000000	0.000026	0.000001	0.000000	0.000000
18.710983	23.439120	11.269998	0.000789	0.128927	3.216542	0.000000	-0.023933	0.000000	0.000026	0.000001	0.000000	0.000000
19.009556	23.479028	11.183539	-0.073224	0.131209	3.211905	0.000000	-0.015530	0.000000	0.000027	0.000001	0.000000	0.000000
19.342889	23.532602	11.106172	-0.087498	0.100890	3.206728	0.000000	-0.015530	0.000000	0.000027	0.000001	0.000000	0.000000
19.676223	23.595692	11.049018	-0.101771	0.070572	3.201551	0.000000	-0.015530	0.000000	0.000027	0.000001	0.000000	0.000000
20.010806	23.668880	11.011840	-0.233366	0.094699	3.196374	0.000000	0.000306	0.000000	0.000027	0.000001	0.000000	0.000000
20.308129	23.811589	10.963627	-0.308813	0.096096	3.196465	0.000000	0.008656	0.000000	0.000027	0.000001	0.000000	0.000000
20.857189	23.740001	11.079997	0.438424	-0.309291	3.175004	0.000000	-0.086715	0.000000	0.000028	-0.000000	0.000000	0.000000
21.406249	22.860074	11.650943	1.154694	-0.736707	3.101524	0.000000	-0.180548	0.000000	0.000027	-0.000001	0.000000	0.000000
21.955309	21.233962	12.717132	1.789401	-1.216598	2.977330	0.000000	-0.271179	0.000000	0.000026	-0.000002	0.000000	0.000000
22.504369	18.976525	14.354505	2.297714	-1.783144	2.804623	0.000000	-0.357000	0.000000	0.000025	-0.000003	0.000000	0.000000
22.950329	17.197357	15.824678	1.705891	-1.499595	2.662706	0.000000	-0.279805	0.000000	0.000024	-0.000002	0.000000	0.000000
23.391289	15.922266	16.996917	1.196701	-1.148667	2.555643	0.000000	-0.206252	0.000000	0.000023	-0.000001	0.000000	0.000000
23.832249	15.070526	17.835349	0.742185	-0.745476	2.480466	0.000000	-0.135047	0.000000	0.000023	-0.000001	0.000000	0.000000
24.273209	14.603221	18.301827	0.321578	-0.308367	2.436317	0.000000	-0.065381	0.000000	0.000023	-0.000000	0.000000	0.000000
24.715418	14.499125	18.374882	-0.048875	0.097653	2.422692	0.000000	-0.002400	0.000000	0.000023	0.000000	0.000000	0.000000
25.012741	14.534300	18.321669	-0.069430	0.081318	2.421979	0.000000	-0.002400	0.000000	0.000023	0.000000	0.000000	0.000000
25.346075	14.588268	18.273562	-0.092475	0.063004	2.421179	0.000000	-0.002400	0.000000	0.000023	0.000000	0.000000	0.000000
25.679408	14.657600	18.237664	-0.115520	0.044691	2.420379	0.000000	-0.002400	0.000000	0.000023	0.000000	0.000000	0.000000
26.013991	14.742342	18.214278	-0.019052	-0.121455	2.419551	0.000000	-0.022029	0.000000	0.000023	0.000000	0.000000	0.000000
26.311314	14.759670	18.291426	-0.003040	-0.182866	2.413002	0.000000	-0.027945	0.000000	0.000023	0.000000	0.000000	0.000000
26.752274	14.944177	18.254356	-0.416969	0.266612	2.415786	0.000000	0.040587	0.000000	0.000023	0.000001	0.000000	0.000000
27.193234	15.500727	17.824737	-0.849949	0.703959	2.448864	0.000000	0.109581	0.000000	0.000024	0.000001	0.000000	0.000000
27.634194	16.454746	17.022118	-1.321761	1.109277	2.512610	0.000000	0.179824	0.000000	0.000024	0.000002	0.000000	0.000000
28.075154	17.849820	15.883017	-1.853960	1.464123	2.607753	0.000000	0.252114	0.000000	0.000025	0.000002	0.000000	0.000000
28.521114	19.773921	14.442099	-2.475835	1.753264	2.736976	0.000000	0.327719	0.000000	0.000026	0.000003	0.000000	0.000000
29.070174	22.219452	12.836731	-1.951828	1.187842	2.894254	0.000000	0.244340	0.000000	0.000028	0.000002	0.000000	0.000000
29.619234	24.009984	11.802438	-1.289953	0.707028	3.004493	0.000000	0.156627	0.000000	0.000029	0.000001	0.000000	0.000000
30.168294	25.019044	11.265551	-0.536962	0.276573	3.065737	0.000000	0.066136	0.000000	0.000029	0.000000	0.000000	0.000000
30.717354	25.175356	11.187828	0.253957	-0.134182	3.076902	0.000000	-0.025528	0.000000	0.000029	-0.000001	0.000000	0.000000
31.015927	25.066643	11.258559	0.175915	-0.131938	3.071680	0.000000	-0.017491	0.000000	0.000029	-0.000000	0.000000	0.000000
31.349260	24.953936	11.356558	0.162206	-0.162061	3.065850	0.000000	-0.017491	0.000000	0.000029	-0.000000	0.000000	0.000000
31.682593	24.850368	11.474640	0.148496	-0.192183	3.060020	0.000000	-0.017491	0.000000	0.000029	-0.000000	0.000000	0.000000
32.017177	24.755603	11.613359	0.134736	-0.222419	3.054168	0.000000	-0.017491	0.000000	0.000029	-0.000000	0.000000	0.000000
32.314499	24.679119	11.753607	0.058041	-0.218584	3.048967	0.000000	-0.009526	0.000000	0.000029	-0.000000	0.000000	0.000000
32.863559	24.192517	12.232809	0.822958	-0.659334	3.018861	0.000000	-0.099978	0.000000	0.000028	-0.000001	0.000000	0.000000
33.412619	22.893048	13.218800	1.529746	-1.147047	2.939506	0.000000	-0.188657	0.000000	0.000027	-0.000002	0.000000	0.000000
33.961679	20.872500	14.781812	2.128480	-1.716461	2.812310	0.000000	-0.273990	0.000000	0.000026	-0.000003	0.000000	0.000000
34.510739	18.273596	17.033174	2.576868	-2.408135	2.639528	0.000000	-0.354462	0.000000	0.000024	-0.000004	0.000000	0.000000
34.956699	16.252784	19.046971	1.970740	-2.088655	2.497792	0.000000	-0.281548	0.000000	0.000022	-0.000003	0.000000	0.000000
35.397659	14.745827	20.712881	1.459669	-1.674886	2.389020	0.000000	-0.212268	0.000000	0.000021	-0.000003	0.000000	0.000000
35.838619	13.658595	21.978755	1.015286	-1.184910	2.310236	0.000000	-0.145406	0.000000	0.000020	-0.000002	0.000000	0.000000
36.279579	12.941416	22.786994	0.617288	-0.641023	2.260543	0.000000	-0.080200	0.000000	0.000019	-0.000002	0.000000	0.000000
36.721789	12.560827	23.101137	0.278185	-0.124664	2.239347	0.000000	-0.021398	0.000000	0.000018	-0.000001	0.000000	0.000000
37.019112	12.402988	23.179154	0.252682	-0.137734	2.232986	0.000000	-0.021398	0.000000	0.000018	-0.000001	0.000000	0.000000
37.352445	12.244064	23.275861	0.224091	-0.152388	2.225854	0.000000	-0.021398	0.000000	0.000017	-0.000001	0.000000	0.000000
37.685779	12.104200	23.382338	0.195500	-0.167042	2.218722	0.000000	-0.021398	0.000000	0.000017	-0.000001	0.000000	0.000000
38.020362	11.982980	23.499038	0.166802	-0.181750	2.211563	0.000000	-0.021398	0.000000	0.000017	-0.000001	0.000000	0.000000
38.317684	11.891375	23.611001	0.170456	-0.252713	2.205201	0.000000	-0.026804	0.000000	0.000016	-0.000001	0.000000	0.000000
38.758644	11.892615	23.572337	-0.173280	0.340059	2.207307	0.000000	0.036362	0.000000	0.000016	-0.000001	0.000000	0.000000
39.199604	12.199336	23.015748	-0.524933	0.917359	2.237331	0.000000	0.099942	0.000000	0.000015	-0.000000	0.000000	0.000000
39.640564	12.825549	21.966557	-0.900568	1.452920	2.295615	0.000000	0.164660	0.000000	0.000015	-0.000000	0.000000	0.000000
40.081524	13.799866	20.472501	-1.317348	1.922374	2.382823	0.000000	0.231254	0.000000	0.000015	0.000000	0.000000	0.000000
40.527484	15.184377	18.578981	-1.798142	2.305649	2.501421	0.000000	0.300887	0.000000	0.000016	0.000001	0.000000	0.000000
41.076544	16.951048	16.451063	-1.400438	1.592793	2.646100	0.000000	0.225345	0.000000	0.000016	0.000000	0.000000	0.000000
41.625604	18.223754	15.039427	-0.903813	0.993388	2.748142	0.000000	0.145805	0.000000	0.000016	-0.000000	0.000000	0.000000
42.174664	18.912597	14.243525	-0.343347	0.464740	2.805737	0.000000	0.063679	0.000000	0.000015	-0.000001	0.000000	0.000000
42.723724	18.968922	14.006668	0.241371	-0.030806	2.817863	0.000000	-0.019576	0.000000	0.000015	-0.000001	0.000000	0.000000
43.022297	18.859253	14.009577	0.175495	-0.015531	2.814216	0.000000	-0.012214	0.000000	0.000014	-0.000001	0.000000	0.000000
43.502297	18.703371	14.040936	0.149260	-0.049801	2.808354	0.000000	-0.012214	0.000000	0.000014	-0.000001	0.000000	0.000000
43.982297	18.572675	14.105196	0.123024	-0.084072	2.802492	0.000000	-0.012214	0.000000	0.000013	-0.000001	0.000000	0.000000
44.462297	18.467165	14.202355	0.096788	-0.118342	2.796629	0.000000	-0.012214	0.000000	0.000013	-0.000001	0.000000	0.000000
44.942297	18.386841	14.332413	0.070553	-0.152613	2.790767	0.000000	-0.012214	0.000000	0.000012	-0.000001	0.000000	0.000000
45.423547	18.331820	14.495659	-0.046577	-0.115152	2.784907	0.000000	0.001584	0.000000	0.000011	-0.000001	0.000000	0.000000
45.720870	18.364349	14.570313	-0.110809	-0.097870	2.785378	0.000000	0.008861	0.000000	0.000011	-0.000001	0.000000	0.000000
46.269930	18.176821	14.959523	0.450330	-0.615179	2.767675	0.000000	-0.073252	0.000000	0.000010	-0.000002	0.000000	0.000000
46.818990	17.386994	15.937384	0.979661	-1.176306	2.705179	0.000000	-0.154065	0.000000	0.000009	-0.000002	0.000000	0.000000
47.368050	16.050657	17.573548	1.439793	-1.821219	2.598998	0.000000	-0.232145	0.000000	0.000008	-0.000002	0.000000	0.000000
47.917110	14.262203	19.984555	1.798225	-2.595854	2.451014	0.000000	-0.306108	0.000000	0.000007	-0.000002	0.000000	0.000000
48.363070	12.870531	22.128061	1.333452	-2.190438	2.329794	0.000000	-0.237817	0.000000	0.000006	-0.000002	0.000000	0.000000
48.804030	11.874731	23.844227	0.933370	-1.686636	2.239385	0.000000	-0.172631	0.000000	0.000005	-0.000002	0.000000	0.000000
49.244990	11.211705	25.080413	0.575931	-1.106094	2.177260	0.000000	-0.109412	0.000000	0.000004	-0.000002	0.000000	0.000000
49.685950	10.851161	25.780375	0.244805	-0.475225	2.142711	0.000000	-0.047439	0.000000	0.000003	-0.000002	0.000000	0.000000
50.128160	10.776748	25.911980	-0.048826	0.113675	2.135356	0.000000	0.008758	0.000000	0.000002	-0.000002	0.000000	0.000000
50.425482	10.814005	25.847839	-0.076481	0.102053	2.137961	0.000000	0.008758	0.000000	0.000002	-0.000002	0.000000	0.000000
50.758816	10.875327	25.784147	-0.107486	0.089023	2.140880	0.000000	0.008758	0.000000	0.000001	-0.000002	0.000000	0.000000
51.092149	10.957319	25.729142	-0.138490	0.075992	2.143800	0.000000	0.008758	0.000000	0.000001	-0.000002	0.000000	0.000000
51.426732	11.060181	25.683188	-0.079884	-0.145441	2.146710	0.000000	-0.008657	0.000000	0.000000	-0.000002	0.000000	0.000000
51.724055	11.115727	25.773189	-0.079678	-0.220467	2.144136	0.000000	-0.013916	0.000000	-0.000000	-0.000002	0.000000	0.000000
52.165015	11.331163	25.680862	-0.410737	0.429047	2.151588	0.000000	0.047745	0.000000	-0.000001	-0.000002	0.000000	0.000000
52.605975	11.845705	25.022168	-0.760560	1.059041	2.186325	0.000000	0.109950	0.000000	-0.000002	-0.000002	0.000000	0.000000
53.046935	12.682863	23.827078	-1.145131	1.640848	2.248741	0.000000	0.173407	0.000000	-0.000003	-0.000002	0.000000	0.000000
53.487895	13.880882	22.149966	-1.582021	2.147999	2.339547	0.000000	0.238838	0.000000	-0.000004	-0.000002	0.000000	0.000000
53.933855	15.515039	20.042067	-2.095411	2.558756	2.461282	0.000000	0.307389	0.000000	-0.000005	-0.000002	0.000000	0.000000
54.482915	17.619027	17.670075	-1.713889	1.786842	2.609878	0.000000	0.233084	0.000000	-0.000006	-0.000002	0.000000	0.000000
55.031975	19.234699	16.071292	-1.211306	1.142201	2.716479	0.000000	0.154644	0.000000	-0.000007	-0.000002	0.000000	0.000000
55.581035	20.247930	15.131841	-0.623163	0.578916	2.779194	0.000000	0.073461	0.000000	-0.000008	-0.000002	0.000000	0.000000
56.130095	20.587151	14.784806	0.008997	0.056867	2.796911	0.000000	-0.009024	0.000000	-0.000008	-0.000001	0.000000	0.000000
56.428668	20.618241	14.733863	-0.059329	0.075121	2.796399	0.000000	-0.001716	0.000000	-0.000009	-0.000001	0.000000	0.000000
56.762001	20.663201	14.691366	-0.075553	0.052370	2.795827	0.000000	-0.001716	0.000000	-0.000009	-0.000001	0.000000	0.000000
57.095334	20.718978	14.664037	-0.091777	0.029618	2.795255	0.000000	-0.001716	0.000000	-0.000010	-0.000001	0.000000	0.000000
57.429918	20.785840	14.651858	-0.108061	0.006782	2.794682	0.000000	-0.001716	0.000000	-0.000010	-0.000001	0.000000	0.000000
57.727240	20.854401	14.653859	-0.177026	0.024779	2.794172	0.000000	0.005585	0.000000	-0.000010	-0.000001	0.000000	0.000000
58.276300	20.693058	14.907973	0.469138	-0.490328	2.774598	0.000000	-0.076782	0.000000	-0.000011	-0.000001	0.000000	0.000000
58.825360	19.836229	15.743481	1.082164	-1.040361	2.710107	0.000000	-0.157787	0.000000	-0.000011	-0.000001	0.000000	0.000000
59.374420	18.344434	17.219894	1.618751	-1.664496	2.601844	0.000000	-0.235993	0.000000	-0.000012	-0.000000	0.000000	0.000000
59.923480	16.323046	19.442374	2.040998	-2.407189	2.451727	0.000000	-0.310014	0.000000	-0.000012	0.000000	0.000000	0.000000
60.369440	14.740975	21.417683	1.519127	-2.003454	2.328765	0.000000	-0.241727	0.000000	-0.000012	-0.000000	0.000000	0.000000
60.810400	13.603211	22.972867	1.070860	-1.509941	2.236622	0.000000	-0.176590	0.000000	-0.000012	-0.000000	0.000000	0.000000
61.251360	12.837797	24.060740	0.671516	-0.947727	2.172732	0.000000	-0.113465	0.000000	-0.000012	-0.000001	0.000000	0.000000
61.692320	12.409763	24.631805	0.302853	-0.342392	2.136367	0.000000	-0.051632	0.000000	-0.000012	-0.000001	0.000000	0.000000
62.134530	12.299608	24.659532	-0.021910	0.217987	2.127117	0.000000	0.004397	0.000000	-0.000013	-0.000001	0.000000	0.000000
62.431853	12.319828	24.533662	-0.046095	0.205357	2.128425	0.000000	0.004397	0.000000	-0.000013	-0.000001	0.000000	0.000000
62.765186	12.359596	24.401477	-0.073209	0.191197	2.129891	0.000000	0.004397	0.000000	-0.000014	-0.000001	0.000000	0.000000
63.098520	12.417441	24.278732	-0.100324	0.177038	2.131357	0.000000	0.004397	0.000000	-0.000014	-0.000001	0.000000	0.000000
63.433103	12.493680	24.165020	-0.127539	0.162825	2.132828	0.000000	0.004397	0.000000	-0.000015	-0.000001	0.000000	0.000000
63.730426	12.576711	24.071952	-0.120878	0.091154	2.134136	0.000000	-0.000838	0.000000	-0.000015	-0.000001	0.000000	0.000000
64.171386	12.843521	23.726473	-0.486483	0.689336	2.147309	0.000000	0.060639	0.000000	-0.000016	-0.000002	0.000000	0.000000
64.612346	13.441309	22.865312	-0.874313	1.256154	2.187717	0.000000	0.122806	0.000000	-0.000017	-0.000002	0.000000	0.000000
65.053306	14.397387	21.527654	-1.302088	1.765818	2.255821	0.000000	0.186372	0.000000	-0.000018	-0.000003	0.000000	0.000000
65.494266	15.755435	19.774359	-1.789352	2.195138	2.352396	0.000000	0.252061	0.000000	-0.000019	-0.000003	0.000000	0.000000
65.940226	17.600661	17.660400	-2.363057	2.525332	2.480115	0.000000	0.321022	0.000000	-0.000020	-0.000004	0.000000	0.000000
66.489286	19.966235	15.295617	-1.919849	1.807058	2.636008	0.000000	0.245989	0.000000	-0.000022	-0.000003	0.000000	0.000000
67.038346	21.767314	13.644701	-1.341032	1.217496	2.749442	0.000000	0.166592	0.000000	-0.000024	-0.000002	0.000000	0.000000
67.587406	22.876681	12.590060	-0.667492	0.714654	2.818405	0.000000	0.084240	0.000000	-0.000025	-0.000001	0.000000	0.000000
68.136466	23.215974	12.056574	0.053196	0.262715	2.841674	0.000000	0.000393	0.000000	-0.000025	-0.000001	0.000000	0.000000
68.435038	23.224278	11.888914	-0.020337	0.267316	2.844009	0.000000	0.007820	0.000000	-0.000025	-0.000001	0.000000	0.000000
68.768372	23.242622	11.720717	-0.034695	0.237275	2.846616	0.000000	0.007820	0.000000	-0.000025	-0.000001	0.000000	0.000000
69.101705	23.270538	11.572548	-0.049054	0.207234	2.849222	0.000000	0.007820	0.000000	-0.000026	-0.000001	0.000000	0.000000
69.436288	23.308186	11.443963	-0.063467	0.177080	2.851839	0.000000	0.007820	0.000000	-0.000026	-0.000001	0.000000	0.000000
69.733611	23.349734	11.346630	-0.137296	0.179938	2.854164	0.000000	0.015279	0.000000	-0.000026	-0.000001	0.000000	0.000000
70.282671	23.099471	11.376337	0.590401	-0.234364	2.839364	0.000000	-0.069109	0.000000	-0.000026	0.000000	0.000000	0.000000
