#ParticleID	Turn	x[m]	xp	y[m]	yp	z[m]	dE[GeV]# s	beta_x	beta_y	alpha_x	alpha_y	D_x	D_y	D_px	D_py	orbit_x	orbit_px	orbit_y	orbit_py
0.300000	11.814315	25.016887	-0.011059	-0.027308	2.618045	0.000000	0.000038	0.000000	-0.000000	0.000001	0.000000	0.000000
0.601250	11.828661	25.036970	-0.036561	-0.039359	2.618056	0.000000	0.000038	0.000000	0.000000	0.000001	0.000000	0.000000
0.898573	11.857885	25.063911	-0.032651	-0.112716	2.618067	0.000000	-0.006383	0.000000	0.000001	0.000001	0.000000	0.000000
1.339533	12.038815	24.885291	-0.379216	0.516244	2.631545	0.000000	0.067574	0.000000	0.000001	0.000001	0.000000	0.000000
1.780493	12.531844	24.160258	-0.743106	1.121715	2.677773	0.000000	0.142299	0.000000	0.000002	0.000001	0.000000	0.000000
2.221453	13.359496	22.921799	-1.140947	1.676149	2.757278	0.000000	0.218646	0.000000	0.000002	0.000001	0.000000	0.000000
2.662413	14.559585	21.226264	-1.590914	2.154319	2.870966	0.000000	0.297483	0.000000	0.000003	0.000001	0.000000	0.000000
3.108373	16.207685	19.125932	-2.117855	2.535602	3.021992	0.000000	0.380197	0.000000	0.000003	0.000001	0.000000	0.000000
3.657433	18.321097	16.766952	-1.708504	1.786156	3.205470	0.000000	0.287159	0.000000	0.000004	0.000001	0.000000	0.000000
4.206493	19.915660	15.156680	-1.178473	1.163934	3.336390	0.000000	0.189027	0.000000	0.000005	0.000001	0.000000	0.000000
4.755553	20.878743	14.180421	-0.565200	0.624616	3.412428	0.000000	0.087543	0.000000	0.000005	0.000001	0.000000	0.000000
5.304613	21.142318	13.768638	0.087995	0.129789	3.432236	0.000000	-0.015494	0.000000	0.000006	0.000001	0.000000	0.000000
5.603185	21.126978	13.676306	0.018620	0.143481	3.430287	0.000000	-0.006527	0.000000	0.000006	0.000001	0.000000	0.000000
5.936519	21.119826	13.588944	0.002837	0.118606	3.428111	0.000000	-0.006527	0.000000	0.000006	0.000001	0.000000	0.000000
6.269852	21.123196	13.518164	-0.012946	0.093731	3.425935	0.000000	-0.006527	0.000000	0.000007	0.000001	0.000000	0.000000
6.604435	21.137160	13.463796	-0.028789	0.068763	3.423751	0.000000	-0.006527	0.000000	0.000007	0.000001	0.000000	0.000000
6.901758	21.158465	13.429504	-0.098147	0.081663	3.421811	0.000000	0.002413	0.000000	0.000007	0.000001	0.000000	0.000000
7.450818	20.905637	13.600636	0.555895	-0.395186	3.394933	0.000000	-0.100172	0.000000	0.000008	0.000001	0.000000	0.000000
7.999878	19.952003	14.307698	1.170671	-0.900183	3.312136	0.000000	-0.200980	0.000000	0.000008	0.000000	0.000000	0.000000
8.548938	18.364924	15.601050	1.702757	-1.469297	3.174887	0.000000	-0.298223	0.000000	0.000008	0.000000	0.000000	0.000000
9.097998	16.256503	17.572816	2.114568	-2.143067	2.985622	0.000000	-0.390177	0.000000	0.000008	-0.000000	0.000000	0.000000
9.543958	14.611549	19.329759	1.587114	-1.779969	2.829927	0.000000	-0.308466	0.000000	0.000008	0.000000	0.000000	0.000000
9.984918	13.415100	20.709520	1.136460	-1.337118	2.711153	0.000000	-0.230753	0.000000	0.000008	0.000000	0.000000	0.000000
10.425878	12.591783	21.670301	0.737726	-0.833428	2.626035	0.000000	-0.155668	0.000000	0.000008	0.000000	0.000000	0.000000
10.866838	12.103981	22.168385	0.372698	-0.291819	2.573605	0.000000	-0.082356	0.000000	0.000008	0.000001	0.000000	0.000000
11.309048	11.929273	22.180590	0.053844	0.208619	2.553246	0.000000	-0.016243	0.000000	0.000009	0.000001	0.000000	0.000000
11.606371	11.904686	22.060695	0.028848	0.194631	2.548416	0.000000	-0.016243	0.000000	0.000009	0.000001	0.000000	0.000000
12.086371	11.896362	21.884689	-0.011506	0.172048	2.540619	0.000000	-0.016243	0.000000	0.000009	0.000001	0.000000	0.000000
12.566371	11.926777	21.730362	-0.051859	0.149466	2.532822	0.000000	-0.016243	0.000000	0.000010	0.000001	0.000000	0.000000
13.046371	11.995932	21.597714	-0.092213	0.126884	2.525025	0.000000	-0.016243	0.000000	0.000010	0.000001	0.000000	0.000000
13.526371	12.103827	21.486745	-0.132567	0.104301	2.517229	0.000000	-0.016243	0.000000	0.000011	0.000001	0.000000	0.000000
14.007621	12.250894	21.397251	-0.173026	0.081660	2.509411	0.000000	-0.016243	0.000000	0.000011	0.000001	0.000000	0.000000
14.304943	12.361215	21.352851	-0.167712	0.015314	2.504582	0.000000	-0.022384	0.000000	0.000011	0.000001	0.000000	0.000000
14.745903	12.667669	21.105637	-0.529894	0.543180	2.510344	0.000000	0.048547	0.000000	0.000012	0.000001	0.000000	0.000000
15.186863	13.302966	20.402049	-0.916286	1.046330	2.547477	0.000000	0.120031	0.000000	0.000012	0.000001	0.000000	0.000000
15.627823	14.296133	19.274100	-1.344540	1.501874	2.616402	0.000000	0.192883	0.000000	0.000013	0.000002	0.000000	0.000000
16.068783	15.692543	17.773112	-1.834222	1.889084	2.717904	0.000000	0.267930	0.000000	0.000014	0.000002	0.000000	0.000000
16.514743	17.579651	15.945874	-2.412463	2.191086	2.854836	0.000000	0.346492	0.000000	0.000015	0.000002	0.000000	0.000000
17.063803	20.003367	13.905586	-1.975705	1.546812	3.021346	0.000000	0.259145	0.000000	0.000016	0.000002	0.000000	0.000000
17.612863	21.867535	12.508500	-1.399394	1.012713	3.138562	0.000000	0.167201	0.000000	0.000017	0.000001	0.000000	0.000000
18.161923	23.040479	11.655103	-0.724236	0.550748	3.204407	0.000000	0.072292	0.000000	0.000018	0.000001	0.000000	0.000000
18.710983	23.439348	11.284610	0.002078	0.128011	3.217711	0.000000	-0.023900	0.000000	0.000018	0.000000	0.000000	0.000000
19.009556	23.478489	11.198660	-0.071938	0.130377	3.213085	0.000000	-0.015494	0.000000	0.000018	0.000000	0.000000	0.000000
19.342889	23.531204	11.121833	-0.086209	0.100106	3.207920	0.000000	-0.015494	0.000000	0.000018	0.000000	0.000000	0.000000
19.676223	23.593433	11.065186	-0.100479	0.069834	3.202755	0.000000	-0.015494	0.000000	0.000018	0.000000	0.000000	0.000000
20.010806	23.665757	11.028485	-0.232057	0.094091	3.197591	0.000000	0.000349	0.000000	0.000018	0.000000	0.000000	0.000000
20.308129	23.807685	10.980621	-0.307493	0.095579	3.197694	0.000000	0.008702	0.000000	0.000018	0.000000	0.000000	0.000000
20.857189	23.734725	11.097822	0.439588	-0.310296	3.176248	0.000000	-0.086709	0.000000	0.000019	-0.000000	0.000000	0.000000
21.406249	22.853645	11.670171	1.155618	-0.738273	3.102760	0.000000	-0.180582	0.000000	0.000018	-0.000001	0.000000	0.000000
21.955309	21.226681	12.738435	1.790021	-1.218835	2.978536	0.000000	-0.271252	0.000000	0.000018	-0.000001	0.000000	0.000000
22.504369	18.968753	14.378705	2.297986	-1.786212	2.805778	0.000000	-0.357111	0.000000	0.000017	-0.000002	0.000000	0.000000
22.950329	17.189291	15.851367	1.706281	-1.502087	2.663818	0.000000	-0.279887	0.000000	0.000016	-0.000001	0.000000	0.000000
23.391289	15.913797	17.025508	1.197229	-1.150472	2.556724	0.000000	-0.206306	0.000000	0.000016	-0.000001	0.000000	0.000000
23.832249	15.061523	17.865197	0.742874	-0.746512	2.481529	0.000000	-0.135074	0.000000	0.000015	-0.000001	0.000000	0.000000
24.273209	14.593528	18.332230	0.322459	-0.308585	2.437375	0.000000	-0.065381	0.000000	0.000015	-0.000000	0.000000	0.000000
24.715418	14.488553	18.405111	-0.047785	0.098184	2.423756	0.000000	-0.002375	0.000000	0.000015	0.000000	0.000000	0.000000
25.012741	14.523083	18.351576	-0.068353	0.081873	2.423050	0.000000	-0.002375	0.000000	0.000015	0.000000	0.000000	0.000000
25.346075	14.576338	18.303089	-0.091412	0.063588	2.422259	0.000000	-0.002375	0.000000	0.000015	0.000000	0.000000	0.000000
25.679408	14.644966	18.266793	-0.114471	0.045302	2.421467	0.000000	-0.002375	0.000000	0.000015	0.000000	0.000000	0.000000
26.013991	14.729012	18.242989	-0.018126	-0.121048	2.420648	0.000000	-0.022013	0.000000	0.000015	-0.000000	0.000000	0.000000
26.311314	14.745794	18.319886	-0.002163	-0.182504	2.414103	0.000000	-0.027932	0.000000	0.000015	-0.000000	0.000000	0.000000
26.752274	14.929376	18.282157	-0.415740	0.267739	2.416900	0.000000	0.040629	0.000000	0.000015	0.000000	0.000000	0.000000
27.193234	15.484665	17.851226	-0.848311	0.705799	2.450002	0.000000	0.109652	0.000000	0.000016	0.000001	0.000000	0.000000
27.634194	16.437032	17.046699	-1.319639	1.111746	2.513786	0.000000	0.179924	0.000000	0.000016	0.000001	0.000000	0.000000
28.075154	17.829986	15.905183	-1.851257	1.467110	2.608980	0.000000	0.252245	0.000000	0.000017	0.000002	0.000000	0.000000
28.521114	19.751369	14.461419	-2.472421	1.756633	2.738270	0.000000	0.327883	0.000000	0.000017	0.000002	0.000000	0.000000
29.070174	22.193460	12.852785	-1.949015	1.190456	2.895626	0.000000	0.244461	0.000000	0.000018	0.000001	0.000000	0.000000
29.619234	23.981327	11.815949	-1.287940	0.709073	3.005919	0.000000	0.156702	0.000000	0.000019	0.000001	0.000000	0.000000
30.168294	24.988684	11.277061	-0.535891	0.278195	3.067193	0.000000	0.066165	0.000000	0.000019	0.000000	0.000000	0.000000
30.717354	25.144375	11.197736	0.254010	-0.132868	3.078360	0.000000	-0.025547	0.000000	0.000019	-0.000000	0.000000	0.000000
31.015927	25.035590	11.267656	0.176028	-0.130565	3.073134	0.000000	-0.017505	0.000000	0.000019	-0.000000	0.000000	0.000000
31.349260	24.922813	11.364728	0.162301	-0.160652	3.067299	0.000000	-0.017505	0.000000	0.000019	-0.000000	0.000000	0.000000
31.682593	24.819189	11.481859	0.148574	-0.190740	3.061465	0.000000	-0.017505	0.000000	0.000019	-0.000000	0.000000	0.000000
32.017177	24.724378	11.619600	0.134795	-0.220940	3.055608	0.000000	-0.017505	0.000000	0.000019	-0.000000	0.000000	0.000000
32.314499	24.647863	11.758960	0.058161	-0.217058	3.050404	0.000000	-0.009536	0.000000	0.000019	-0.000000	0.000000	0.000000
32.863559	24.161698	12.236531	0.822046	-0.657874	3.020279	0.000000	-0.100034	0.000000	0.000018	-0.000001	0.000000	0.000000
33.412619	22.863771	13.220908	1.527866	-1.145549	2.940881	0.000000	-0.188758	0.000000	0.000018	-0.000001	0.000000	0.000000
33.961679	20.845761	14.782206	2.125766	-1.714818	2.813617	0.000000	-0.274134	0.000000	0.000017	-0.000002	0.000000	0.000000
34.510739	18.250210	17.031632	2.573511	-2.406231	2.640744	0.000000	-0.354648	0.000000	0.000015	-0.000003	0.000000	0.000000
34.956699	16.232062	19.043662	1.968102	-2.086613	2.498932	0.000000	-0.281703	0.000000	0.000014	-0.000002	0.000000	0.000000
35.397659	14.727163	20.707746	1.457623	-1.672801	2.390098	0.000000	-0.212394	0.000000	0.000013	-0.000002	0.000000	0.000000
35.838619	13.641509	21.971796	1.013739	-1.182878	2.311264	0.000000	-0.145505	0.000000	0.000013	-0.000001	0.000000	0.000000
36.279579	12.925501	22.778300	0.616170	-0.639134	2.261532	0.000000	-0.080273	0.000000	0.000012	-0.000001	0.000000	0.000000
36.721789	12.545730	23.090869	0.277409	-0.122984	2.240310	0.000000	-0.021448	0.000000	0.000012	-0.000001	0.000000	0.000000
37.019112	12.388359	23.167887	0.251886	-0.136055	2.233933	0.000000	-0.021448	0.000000	0.000011	-0.000001	0.000000	0.000000
37.352445	12.229973	23.263475	0.223272	-0.150709	2.226784	0.000000	-0.021448	0.000000	0.000011	-0.000001	0.000000	0.000000
37.685779	12.090663	23.368833	0.194658	-0.165363	2.219635	0.000000	-0.021448	0.000000	0.000011	-0.000001	0.000000	0.000000
38.020362	11.970014	23.484410	0.165937	-0.180072	2.212459	0.000000	-0.021448	0.000000	0.000011	-0.000001	0.000000	0.000000
38.317684	11.878929	23.595375	0.169541	-0.251001	2.206082	0.000000	-0.026857	0.000000	0.000010	-0.000001	0.000000	0.000000
38.758644	11.880853	23.555390	-0.173921	0.341334	2.208169	0.000000	0.036331	0.000000	0.000010	-0.000001	0.000000	0.000000
39.199604	12.188028	22.997891	-0.525329	0.918138	2.238185	0.000000	0.099933	0.000000	0.000010	-0.000000	0.000000	0.000000
39.640564	12.814490	21.948245	-0.900737	1.453168	2.296470	0.000000	0.164674	0.000000	0.000010	-0.000000	0.000000	0.000000
40.081524	13.788858	20.454210	-1.317298	1.922080	2.383689	0.000000	0.231290	0.000000	0.000010	0.000000	0.000000	0.000000
40.527484	15.173226	18.561192	-1.797870	2.304822	2.502308	0.000000	0.300946	0.000000	0.000010	0.000000	0.000000	0.000000
41.076544	16.939839	16.433912	-1.400607	1.592450	2.647011	0.000000	0.225374	0.000000	0.000010	0.000000	0.000000	0.000000
41.625604	18.212970	15.022400	-0.904413	0.993505	2.749061	0.000000	0.145805	0.000000	0.000010	-0.000000	0.000000	0.000000
42.174664	18.902691	14.226115	-0.344335	0.465324	2.806647	0.000000	0.063649	0.000000	0.000010	-0.000001	0.000000	0.000000
42.723724	18.960282	13.988341	0.240064	-0.029712	2.818749	0.000000	-0.019635	0.000000	0.000009	-0.000001	0.000000	0.000000
43.022297	18.851381	13.990633	0.174210	-0.014511	2.815085	0.000000	-0.012271	0.000000	0.000009	-0.000001	0.000000	0.000000
43.502297	18.696733	14.021035	0.147974	-0.048827	2.809196	0.000000	-0.012271	0.000000	0.000008	-0.000001	0.000000	0.000000
43.982297	18.567271	14.084381	0.121739	-0.083143	2.803306	0.000000	-0.012271	0.000000	0.000008	-0.000001	0.000000	0.000000
44.462297	18.462994	14.180669	0.095504	-0.117459	2.797417	0.000000	-0.012271	0.000000	0.000008	-0.000001	0.000000	0.000000
44.942297	18.383902	14.309901	0.069269	-0.151774	2.791527	0.000000	-0.012271	0.000000	0.000007	-0.000001	0.000000	0.000000
45.423547	18.330116	14.472362	-0.047852	-0.114475	2.785640	0.000000	0.001531	0.000000	0.000007	-0.000001	0.000000	0.000000
45.720870	18.363405	14.546622	-0.112087	-0.097283	2.786095	0.000000	0.008810	0.000000	0.000007	-0.000001	0.000000	0.000000
46.269930	18.177286	14.934789	0.449058	-0.613857	2.768358	0.000000	-0.073325	0.000000	0.000006	-0.000001	0.000000	0.000000
46.818990	17.388812	15.910754	0.978483	-1.174154	2.705816	0.000000	-0.154159	0.000000	0.000005	-0.000001	0.000000	0.000000
47.368050	16.053678	17.544031	1.438793	-1.818084	2.599576	0.000000	-0.232260	0.000000	0.000005	-0.000001	0.000000	0.000000
47.917110	14.266192	19.950957	1.797474	-2.591512	2.451525	0.000000	-0.306240	0.000000	0.000004	-0.000002	0.000000	0.000000
48.363070	12.875187	22.090915	1.332701	-2.186855	2.330248	0.000000	-0.237936	0.000000	0.000003	-0.000001	0.000000	0.000000
48.804030	11.880061	23.804314	0.932585	-1.683971	2.239789	0.000000	-0.172740	0.000000	0.000003	-0.000001	0.000000	0.000000
49.244990	11.217756	25.038602	0.575076	-1.104468	2.177618	0.000000	-0.109511	0.000000	0.000002	-0.000001	0.000000	0.000000
49.685950	10.858011	25.737617	0.243840	-0.474713	2.143027	0.000000	-0.047529	0.000000	0.000002	-0.000001	0.000000	0.000000
50.128160	10.784516	25.869273	-0.049925	0.113154	2.135634	0.000000	0.008675	0.000000	0.000001	-0.000001	0.000000	0.000000
50.425482	10.822421	25.805448	-0.077563	0.101514	2.138214	0.000000	0.008675	0.000000	0.000001	-0.000001	0.000000	0.000000
50.758816	10.884459	25.742122	-0.108549	0.088464	2.141106	0.000000	0.008675	0.000000	0.000000	-0.000001	0.000000	0.000000
51.092149	10.967153	25.687496	-0.139534	0.075413	2.143998	0.000000	0.008675	0.000000	-0.000000	-0.000001	0.000000	0.000000
51.426732	11.070706	25.641935	-0.080823	-0.145706	2.146879	0.000000	-0.008742	0.000000	-0.000001	-0.000001	0.000000	0.000000
51.724055	11.126804	25.732099	-0.080569	-0.220651	2.144280	0.000000	-0.014000	0.000000	-0.000001	-0.000001	0.000000	0.000000
52.165015	11.343143	25.640413	-0.411901	0.427782	2.151696	0.000000	0.047664	0.000000	-0.000001	-0.000001	0.000000	0.000000
52.605975	11.858852	24.983292	-0.762052	1.056751	2.186396	0.000000	0.109871	0.000000	-0.000002	-0.000001	0.000000	0.000000
53.046935	12.697494	23.790635	-1.147018	1.637639	2.248777	0.000000	0.173329	0.000000	-0.000003	-0.000001	0.000000	0.000000
53.487895	13.897383	22.116707	-1.584389	2.144016	2.339549	0.000000	0.238761	0.000000	-0.000003	-0.000001	0.000000	0.000000
53.933855	15.533908	20.012641	-2.098375	2.554179	2.461250	0.000000	0.307312	0.000000	-0.000004	-0.000001	0.000000	0.000000
54.482915	17.640892	17.645024	-1.716349	1.783404	2.609803	0.000000	0.233008	0.000000	-0.000005	-0.000001	0.000000	0.000000
55.031975	19.258908	16.049506	-1.213090	1.139657	2.716363	0.000000	0.154571	0.000000	-0.000005	-0.000001	0.000000	0.000000
55.581035	20.273666	15.112443	-0.624144	0.577085	2.779038	0.000000	0.073393	0.000000	-0.000006	-0.000001	0.000000	0.000000
56.130095	20.613490	14.767089	0.008888	0.055618	2.796719	0.000000	-0.009087	0.000000	-0.000006	-0.000001	0.000000	0.000000
56.428668	20.644679	14.716926	-0.059487	0.073806	2.796188	0.000000	-0.001780	0.000000	-0.000007	-0.000001	0.000000	0.000000
56.762001	20.689738	14.675313	-0.075691	0.051033	2.795595	0.000000	-0.001780	0.000000	-0.000007	-0.000001	0.000000	0.000000
57.095334	20.745600	14.648882	-0.091894	0.028260	2.795002	0.000000	-0.001780	0.000000	-0.000007	-0.000001	0.000000	0.000000
57.429918	20.812534	14.637619	-0.108158	0.005402	2.794407	0.000000	-0.001780	0.000000	-0.000008	-0.000001	0.000000	0.000000
57.727240	20.881147	14.640447	-0.177173	0.023344	2.793878	0.000000	0.005521	0.000000	-0.000008	-0.000001	0.000000	0.000000
58.276300	20.719474	14.895934	0.469884	-0.491409	2.774271	0.000000	-0.076836	0.000000	-0.000008	-0.000001	0.000000	0.000000
58.825360	19.861356	15.732472	1.083750	-1.041165	2.709753	0.000000	-0.157830	0.000000	-0.000008	-0.000000	0.000000	0.000000
59.374420	18.367405	17.209642	1.621066	-1.665080	2.601469	0.000000	-0.236025	0.000000	-0.000009	-0.000000	0.000000	0.000000
59.923480	16.343148	19.432663	2.043878	-2.407594	2.451339	0.000000	-0.310033	0.000000	-0.000008	0.000000	0.000000	0.000000
60.369440	14.758787	21.408497	1.521400	-2.004223	2.328366	0.000000	-0.241756	0.000000	-0.000008	0.000000	0.000000	0.000000
60.810400	13.619246	22.964506	1.072633	-1.511036	2.236208	0.000000	-0.176630	0.000000	-0.000008	-0.000000	0.000000	0.000000
61.251360	12.852457	24.053470	0.672872	-0.949097	2.172297	0.000000	-0.113515	0.000000	-0.000009	-0.000000	0.000000	0.000000
61.692320	12.423388	24.625842	0.303852	-0.343976	2.135907	0.000000	-0.051694	0.000000	-0.000009	-0.000001	0.000000	0.000000
62.134530	12.312490	24.655038	-0.021190	0.216275	2.126627	0.000000	0.004323	0.000000	-0.000009	-0.000001	0.000000	0.000000
62.431853	12.332273	24.530184	-0.045349	0.203652	2.127913	0.000000	0.004323	0.000000	-0.000009	-0.000001	0.000000	0.000000
62.765186	12.371534	24.399133	-0.072434	0.189500	2.129354	0.000000	0.004323	0.000000	-0.000010	-0.000001	0.000000	0.000000
63.098520	12.428852	24.277517	-0.099519	0.175347	2.130796	0.000000	0.004323	0.000000	-0.000010	-0.000001	0.000000	0.000000
63.433103	12.504543	24.164933	-0.126705	0.161142	2.132242	0.000000	0.004323	0.000000	-0.000010	-0.000001	0.000000	0.000000
63.730426	12.587071	24.072864	-0.119994	0.089479	2.133528	0.000000	-0.000909	0.000000	-0.000011	-0.000001	0.000000	0.000000
64.171386	12.853197	23.728838	-0.485811	0.687729	2.146666	0.000000	0.060551	0.000000	-0.000011	-0.000001	0.000000	0.000000
64.612346	13.450474	22.869038	-0.873823	1.254687	2.187032	0.000000	0.122702	0.000000	-0.000012	-0.000001	0.000000	0.000000
65.053306	14.406192	21.532586	-1.301757	1.764559	2.255085	0.000000	0.186249	0.000000	-0.000012	-0.000002	0.000000	0.000000
65.494266	15.764013	19.780289	-1.789165	2.194144	2.351601	0.000000	0.251918	0.000000	-0.000013	-0.000002	0.000000	0.000000
65.940226	17.609133	17.667079	-2.363006	2.524651	2.479251	0.000000	0.320858	0.000000	-0.000014	-0.000002	0.000000	0.000000
66.489286	19.974444	15.303065	-1.919423	1.806331	2.635061	0.000000	0.245854	0.000000	-0.000015	-0.000002	0.000000	0.000000
67.038346	21.774864	13.652996	-1.340262	1.216671	2.748429	0.000000	0.166488	0.000000	-0.000016	-0.000001	0.000000	0.000000
67.587406	22.883220	12.599341	-0.666432	0.713672	2.817344	0.000000	0.084170	0.000000	-0.000017	-0.000001	0.000000	0.000000
68.136466	23.221223	12.067052	0.054471	0.261506	2.840584	0.000000	0.000359	0.000000	-0.000017	-0.000000	0.000000	0.000000
68.435038	23.228771	11.900087	-0.019068	0.266172	2.842908	0.000000	0.007782	0.000000	-0.000017	-0.000000	0.000000	0.000000
68.768372	23.246268	11.732637	-0.033424	0.236177	2.845502	0.000000	0.007782	0.000000	-0.000017	-0.000000	0.000000	0.000000
69.101705	23.273336	11.585185	-0.047779	0.206181	2.848096	0.000000	0.007782	0.000000	-0.000018	-0.000000	0.000000	0.000000
69.436288	23.310129	11.457289	-0.062188	0.176073	2.850700	0.000000	0.007782	0.000000	-0.000018	-0.000000	0.000000	0.000000
69.733611	23.350915	11.360543	-0.136013	0.179005	2.853013	0.000000	0.015237	0.000000	-0.000018	-0.000000	0.000000	0.000000
70.282671	23.099234	11.391492	0.591686	-0.235705	2.838201	0.000000	-0.069113	0.000000	-0.000018	0.000000	0.000000	0.000000
