#ParticleID	Turn	x[m]	xp	y[m]	yp	z[m]	dE[GeV]# s	beta_x	beta_y	alpha_x	alpha_y	D_x	D_y	D_px	D_py	orbit_x	orbit_px	orbit_y	orbit_py
0.300000	11.820376	24.991867	-0.011789	-0.027531	2.618068	0.000000	0.000030	0.000000	0.000000	0.000001	0.000000	0.000000
0.601250	11.835157	25.012089	-0.037278	-0.039594	2.618076	0.000000	0.000030	0.000000	0.000000	0.000001	0.000000	0.000000
0.898573	11.864804	25.039173	-0.033339	-0.112903	2.618085	0.000000	-0.006390	0.000000	0.000000	0.000001	0.000000	0.000000
1.339533	12.046416	24.861007	-0.380080	0.515407	2.631560	0.000000	0.067566	0.000000	0.000001	0.000001	0.000000	0.000000
1.780493	12.540298	24.136985	-0.744184	1.120266	2.677785	0.000000	0.142293	0.000000	0.000001	0.000001	0.000000	0.000000
2.221453	13.369014	22.900050	-1.142289	1.674155	2.757288	0.000000	0.218639	0.000000	0.000001	0.000001	0.000000	0.000000
2.662413	14.570425	21.206482	-1.592582	2.151870	2.870972	0.000000	0.297476	0.000000	0.000002	0.000001	0.000000	0.000000
3.108373	16.220188	19.108498	-2.119928	2.532809	3.021996	0.000000	0.380191	0.000000	0.000002	0.000001	0.000000	0.000000
3.657433	18.335712	16.752194	-1.710257	1.784047	3.205471	0.000000	0.287153	0.000000	0.000003	0.000001	0.000000	0.000000
4.206493	19.931966	15.143934	-1.179781	1.162358	3.336388	0.000000	0.189021	0.000000	0.000003	0.000001	0.000000	0.000000
4.755553	20.896197	14.169165	-0.565972	0.623462	3.412423	0.000000	0.087537	0.000000	0.000003	0.000001	0.000000	0.000000
5.304613	21.160298	13.758456	0.087815	0.128974	3.432228	0.000000	-0.015500	0.000000	0.000004	0.000000	0.000000	0.000000
5.603185	21.145091	13.666630	0.018404	0.142630	3.430277	0.000000	-0.006533	0.000000	0.000004	0.000000	0.000000	0.000000
5.936519	21.138078	13.579839	0.002634	0.117744	3.428099	0.000000	-0.006533	0.000000	0.000004	0.000000	0.000000	0.000000
6.269852	21.141579	13.509638	-0.013135	0.092857	3.425921	0.000000	-0.006533	0.000000	0.000004	0.000000	0.000000	0.000000
6.604435	21.155664	13.455859	-0.028964	0.067877	3.423736	0.000000	-0.006533	0.000000	0.000004	0.000000	0.000000	0.000000
6.901758	21.177070	13.422096	-0.098360	0.080748	3.421793	0.000000	0.002407	0.000000	0.000004	0.000000	0.000000	0.000000
7.450818	20.924133	13.594123	0.556306	-0.395909	3.394913	0.000000	-0.100177	0.000000	0.000004	0.000000	0.000000	0.000000
7.999878	19.969716	14.301897	1.171677	-0.900765	3.312113	0.000000	-0.200984	0.000000	0.000005	0.000000	0.000000	0.000000
8.548938	18.381237	15.595831	1.704286	-1.469780	3.174862	0.000000	-0.298227	0.000000	0.000005	0.000000	0.000000	0.000000
9.097998	16.270896	17.568088	2.116514	-2.143485	2.985596	0.000000	-0.390179	0.000000	0.000005	-0.000000	0.000000	0.000000
9.543958	14.624401	19.325493	1.588635	-1.780583	2.829899	0.000000	-0.308470	0.000000	0.000005	-0.000000	0.000000	0.000000
9.984918	13.426772	20.705871	1.137628	-1.337897	2.711123	0.000000	-0.230757	0.000000	0.000005	0.000000	0.000000	0.000000
10.425878	12.602559	21.667399	0.738596	-0.834339	2.626004	0.000000	-0.155673	0.000000	0.000005	0.000000	0.000000	0.000000
10.866838	12.114106	22.166328	0.373309	-0.292818	2.573572	0.000000	-0.082362	0.000000	0.000005	0.000000	0.000000	0.000000
11.309048	11.938962	22.179440	0.054249	0.207577	2.553209	0.000000	-0.016249	0.000000	0.000005	0.000000	0.000000	0.000000
11.606371	11.914129	22.060162	0.029272	0.193594	2.548378	0.000000	-0.016249	0.000000	0.000005	0.000000	0.000000	0.000000
12.086371	11.905382	21.885148	-0.011051	0.171020	2.540578	0.000000	-0.016249	0.000000	0.000005	0.000000	0.000000	0.000000
12.566371	11.935346	21.731804	-0.051373	0.148446	2.532778	0.000000	-0.016249	0.000000	0.000006	0.000000	0.000000	0.000000
13.046371	12.004019	21.600132	-0.091696	0.125872	2.524978	0.000000	-0.016249	0.000000	0.000006	0.000000	0.000000	0.000000
13.526371	12.111403	21.490131	-0.132019	0.103297	2.517178	0.000000	-0.016249	0.000000	0.000006	0.000000	0.000000	0.000000
14.007621	12.257927	21.401599	-0.172447	0.080664	2.509357	0.000000	-0.016249	0.000000	0.000006	0.000000	0.000000	0.000000
14.304943	12.367898	21.357790	-0.167096	0.014309	2.504526	0.000000	-0.022391	0.000000	0.000006	0.000000	0.000000	0.000000
14.745903	12.673869	21.111396	-0.529410	0.542329	2.510285	0.000000	0.048539	0.000000	0.000007	0.000001	0.000000	0.000000
15.186863	13.308790	20.408475	-0.915912	1.045674	2.547414	0.000000	0.120021	0.000000	0.000007	0.000001	0.000000	0.000000
15.627823	14.301669	19.281009	-1.344259	1.501441	2.616334	0.000000	0.192871	0.000000	0.000007	0.000001	0.000000	0.000000
16.068783	15.697867	17.780296	-1.834022	1.888894	2.717831	0.000000	0.267917	0.000000	0.000008	0.000001	0.000000	0.000000
16.514743	17.584829	15.953113	-2.412333	2.191151	2.854757	0.000000	0.346477	0.000000	0.000008	0.000001	0.000000	0.000000
17.063803	20.008268	13.912839	-1.975334	1.546724	3.021259	0.000000	0.259132	0.000000	0.000009	0.000001	0.000000	0.000000
17.612863	21.871906	12.515934	-1.398806	1.012467	3.138470	0.000000	0.167191	0.000000	0.000010	0.000001	0.000000	0.000000
18.161923	23.044104	11.662902	-0.723474	0.550327	3.204310	0.000000	0.072285	0.000000	0.000010	0.000000	0.000000	0.000000
18.710983	23.442066	11.292981	0.002960	0.127384	3.217611	0.000000	-0.023904	0.000000	0.000010	0.000000	0.000000	0.000000
19.009556	23.480686	11.207385	-0.071064	0.129799	3.212984	0.000000	-0.015497	0.000000	0.000010	0.000000	0.000000	0.000000
19.342889	23.532818	11.130933	-0.085332	0.099555	3.207818	0.000000	-0.015497	0.000000	0.000010	0.000000	0.000000	0.000000
19.676223	23.594461	11.074644	-0.099600	0.069312	3.202652	0.000000	-0.015497	0.000000	0.000010	0.000000	0.000000	0.000000
20.010806	23.666195	11.038283	-0.231176	0.093646	3.197487	0.000000	0.000345	0.000000	0.000010	0.000000	0.000000	0.000000
20.308129	23.807598	10.990676	-0.306610	0.095188	3.197589	0.000000	0.008699	0.000000	0.000011	0.000000	0.000000	0.000000
20.857189	23.733675	11.108463	0.440448	-0.310979	3.176142	0.000000	-0.086709	0.000000	0.000011	-0.000000	0.000000	0.000000
21.406249	22.851691	11.681742	1.156396	-0.739295	3.102655	0.000000	-0.180579	0.000000	0.000010	-0.000000	0.000000	0.000000
21.955309	21.223944	12.751348	1.790661	-1.220270	2.978433	0.000000	-0.271246	0.000000	0.000010	-0.000001	0.000000	0.000000
22.504369	18.965410	14.393466	2.298443	-1.788163	2.805679	0.000000	-0.357101	0.000000	0.000010	-0.000001	0.000000	0.000000
22.950329	17.185532	15.867721	1.706761	-1.503693	2.663722	0.000000	-0.279880	0.000000	0.000009	-0.000001	0.000000	0.000000
23.391289	15.909597	17.043099	1.197753	-1.151662	2.556632	0.000000	-0.206301	0.000000	0.000009	-0.000001	0.000000	0.000000
23.832249	15.056832	17.883633	0.743466	-0.747231	2.481437	0.000000	-0.135071	0.000000	0.000009	-0.000000	0.000000	0.000000
24.273209	14.588276	18.351080	0.323147	-0.308802	2.437284	0.000000	-0.065380	0.000000	0.000009	-0.000000	0.000000	0.000000
24.715418	14.482638	18.423925	-0.046983	0.098432	2.423665	0.000000	-0.002377	0.000000	0.000009	0.000000	0.000000	0.000000
25.012741	14.516694	18.370238	-0.067558	0.082137	2.422958	0.000000	-0.002377	0.000000	0.000009	0.000000	0.000000	0.000000
25.346075	14.569421	18.321569	-0.090625	0.063870	2.422166	0.000000	-0.002377	0.000000	0.000009	0.000000	0.000000	0.000000
25.679408	14.637526	18.285078	-0.113691	0.045602	2.421374	0.000000	-0.002377	0.000000	0.000009	0.000000	0.000000	0.000000
26.013991	14.721053	18.261068	-0.017418	-0.120877	2.420554	0.000000	-0.022014	0.000000	0.000009	-0.000000	0.000000	0.000000
26.311314	14.737417	18.337859	-0.001484	-0.182363	2.414009	0.000000	-0.027933	0.000000	0.000009	-0.000000	0.000000	0.000000
26.752274	14.920308	18.299791	-0.414844	0.268364	2.416804	0.000000	0.040625	0.000000	0.000009	0.000000	0.000000	0.000000
27.193234	15.474697	17.868105	-0.847158	0.706880	2.449904	0.000000	0.109645	0.000000	0.000009	0.000000	0.000000	0.000000
27.634194	16.425915	17.062442	-1.318176	1.113233	2.513685	0.000000	0.179915	0.000000	0.000009	0.000001	0.000000	0.000000
28.075154	17.817418	15.919460	-1.849418	1.468936	2.608874	0.000000	0.252233	0.000000	0.000009	0.000001	0.000000	0.000000
28.521114	19.736959	14.473946	-2.470117	1.758715	2.738159	0.000000	0.327868	0.000000	0.000010	0.000001	0.000000	0.000000
29.070174	22.176710	12.863301	-1.947083	1.192059	2.895508	0.000000	0.244450	0.000000	0.000010	0.000001	0.000000	0.000000
29.619234	23.962723	11.824916	-1.286516	0.710310	3.005797	0.000000	0.156695	0.000000	0.000011	0.000000	0.000000	0.000000
30.168294	24.968842	11.284828	-0.535076	0.279155	3.067068	0.000000	0.066162	0.000000	0.000011	0.000000	0.000000	0.000000
30.717354	25.124001	11.204570	0.254159	-0.132117	3.078234	0.000000	-0.025546	0.000000	0.000011	-0.000000	0.000000	0.000000
31.015927	25.015102	11.274023	0.176214	-0.129773	3.073008	0.000000	-0.017503	0.000000	0.000011	-0.000000	0.000000	0.000000
31.349260	24.902205	11.370560	0.162475	-0.159838	3.067174	0.000000	-0.017503	0.000000	0.000011	-0.000000	0.000000	0.000000
31.682593	24.798468	11.487140	0.148736	-0.189902	3.061340	0.000000	-0.017503	0.000000	0.000011	-0.000000	0.000000	0.000000
32.017177	24.703553	11.624313	0.134945	-0.220079	3.055483	0.000000	-0.017503	0.000000	0.000011	-0.000000	0.000000	0.000000
32.314499	24.626952	11.763155	0.058350	-0.216164	3.050279	0.000000	-0.009534	0.000000	0.000011	-0.000000	0.000000	0.000000
32.863559	24.140962	12.239788	0.821541	-0.657049	3.020157	0.000000	-0.100029	0.000000	0.000010	-0.000001	0.000000	0.000000
33.412619	22.843957	13.223270	1.526702	-1.144734	2.940762	0.000000	-0.188749	0.000000	0.000010	-0.000001	0.000000	0.000000
33.961679	20.827552	14.783651	2.124025	-1.713956	2.813504	0.000000	-0.274121	0.000000	0.000009	-0.000001	0.000000	0.000000
34.510739	18.234176	17.032075	2.571317	-2.405259	2.640639	0.000000	-0.354631	0.000000	0.000009	-0.000001	0.000000	0.000000
34.956699	16.217765	19.043183	1.966389	-2.085526	2.498833	0.000000	-0.281688	0.000000	0.000008	-0.000001	0.000000	0.000000
35.397659	14.714195	20.706276	1.456310	-1.671650	2.390004	0.000000	-0.212383	0.000000	0.000008	-0.000001	0.000000	0.000000
35.838619	13.629546	21.969302	1.012766	-1.181715	2.311175	0.000000	-0.145496	0.000000	0.000007	-0.000001	0.000000	0.000000
36.279579	12.914262	22.774794	0.615492	-0.638013	2.261446	0.000000	-0.080266	0.000000	0.000007	-0.000001	0.000000	0.000000
36.721789	12.534973	23.086409	0.276970	-0.121947	2.240226	0.000000	-0.021443	0.000000	0.000007	-0.000001	0.000000	0.000000
37.019112	12.377867	23.162810	0.251431	-0.135017	2.233851	0.000000	-0.021443	0.000000	0.000006	-0.000001	0.000000	0.000000
37.352445	12.219790	23.257706	0.222799	-0.149670	2.226703	0.000000	-0.021443	0.000000	0.000006	-0.000001	0.000000	0.000000
37.685779	12.080801	23.362370	0.194167	-0.164324	2.219556	0.000000	-0.021443	0.000000	0.000006	-0.000001	0.000000	0.000000
38.020362	11.960487	23.477251	0.165427	-0.179032	2.212381	0.000000	-0.021443	0.000000	0.000006	-0.000001	0.000000	0.000000
38.317684	11.869710	23.587598	0.168995	-0.249943	2.206006	0.000000	-0.026853	0.000000	0.000006	-0.000001	0.000000	0.000000
38.758644	11.872024	23.546773	-0.174263	0.342171	2.208094	0.000000	0.036334	0.000000	0.000006	-0.000000	0.000000	0.000000
39.199604	12.179417	22.988648	-0.525482	0.918717	2.238110	0.000000	0.099934	0.000000	0.000005	-0.000000	0.000000	0.000000
39.640564	12.805934	21.938616	-0.900709	1.453462	2.296395	0.000000	0.164673	0.000000	0.000005	-0.000000	0.000000	0.000000
40.081524	13.780198	20.444453	-1.317087	1.922075	2.383614	0.000000	0.231287	0.000000	0.000005	0.000000	0.000000	0.000000
40.527484	15.164291	18.551574	-1.797465	2.304517	2.502230	0.000000	0.300941	0.000000	0.000005	0.000000	0.000000	0.000000
41.076544	16.930644	16.424493	-1.400540	1.592392	2.646932	0.000000	0.225371	0.000000	0.000005	0.000000	0.000000	0.000000
41.625604	18.203889	15.012911	-0.904687	0.993690	2.748981	0.000000	0.145805	0.000000	0.000005	-0.000000	0.000000	0.000000
42.174664	18.894091	14.216284	-0.344932	0.465766	2.806568	0.000000	0.063652	0.000000	0.000005	-0.000000	0.000000	0.000000
42.723724	18.952497	13.977872	0.239187	-0.028983	2.818672	0.000000	-0.019630	0.000000	0.000005	-0.000001	0.000000	0.000000
43.022297	18.844109	13.979749	0.173349	-0.013825	2.815010	0.000000	-0.012265	0.000000	0.000005	-0.000000	0.000000	0.000000
43.502297	18.690288	14.009505	0.147112	-0.048167	2.809122	0.000000	-0.012265	0.000000	0.000005	-0.000000	0.000000	0.000000
43.982297	18.561654	14.072229	0.120874	-0.082508	2.803235	0.000000	-0.012265	0.000000	0.000004	-0.000000	0.000000	0.000000
44.462297	18.458209	14.167921	0.094637	-0.116850	2.797348	0.000000	-0.012265	0.000000	0.000004	-0.000000	0.000000	0.000000
44.942297	18.379952	14.296582	0.068399	-0.151192	2.791461	0.000000	-0.012265	0.000000	0.000004	-0.000000	0.000000	0.000000
45.423547	18.327005	14.458496	-0.048709	-0.113987	2.785576	0.000000	0.001536	0.000000	0.000004	-0.000000	0.000000	0.000000
45.720870	18.360805	14.532471	-0.112943	-0.096849	2.786032	0.000000	0.008815	0.000000	0.000004	-0.000000	0.000000	0.000000
46.269930	18.175666	14.919923	0.448139	-0.612980	2.768298	0.000000	-0.073318	0.000000	0.000003	-0.000001	0.000000	0.000000
46.818990	17.388206	15.894655	0.977566	-1.172773	2.705760	0.000000	-0.154151	0.000000	0.000003	-0.000001	0.000000	0.000000
47.368050	16.054048	17.526095	1.437943	-1.816099	2.599525	0.000000	-0.232249	0.000000	0.000003	-0.000001	0.000000	0.000000
47.917110	14.267431	19.930447	1.796751	-2.588782	2.451480	0.000000	-0.306228	0.000000	0.000002	-0.000001	0.000000	0.000000
48.363070	12.877049	22.068162	1.332022	-2.184580	2.330208	0.000000	-0.237925	0.000000	0.000002	-0.000001	0.000000	0.000000
48.804030	11.882514	23.779795	0.931918	-1.682254	2.239753	0.000000	-0.172730	0.000000	0.000001	-0.000001	0.000000	0.000000
49.244990	11.220802	25.012843	0.574391	-1.103386	2.177586	0.000000	-0.109501	0.000000	0.000001	-0.000001	0.000000	0.000000
49.685950	10.861680	25.711204	0.243106	-0.474315	2.142999	0.000000	-0.047520	0.000000	0.000001	-0.000001	0.000000	0.000000
50.128160	10.788869	25.842820	-0.050731	0.112913	2.135609	0.000000	0.008683	0.000000	0.000000	-0.000001	0.000000	0.000000
50.425482	10.827251	25.779141	-0.078360	0.101261	2.138191	0.000000	0.008683	0.000000	0.000000	-0.000001	0.000000	0.000000
50.758816	10.889816	25.715988	-0.109336	0.088198	2.141085	0.000000	0.008683	0.000000	0.000000	-0.000001	0.000000	0.000000
51.092149	10.973031	25.661543	-0.140311	0.075136	2.143980	0.000000	0.008683	0.000000	-0.000000	-0.000001	0.000000	0.000000
51.426732	11.077101	25.616172	-0.081538	-0.145787	2.146863	0.000000	-0.008734	0.000000	-0.000000	-0.000001	0.000000	0.000000
51.724055	11.133621	25.706388	-0.081255	-0.220681	2.144267	0.000000	-0.013992	0.000000	-0.000001	-0.000001	0.000000	0.000000
52.165015	11.350638	25.615029	-0.412760	0.427074	2.151686	0.000000	0.047671	0.000000	-0.000001	-0.000001	0.000000	0.000000
52.605975	11.867195	24.958822	-0.763122	1.055397	2.186389	0.000000	0.109878	0.000000	-0.000001	-0.000001	0.000000	0.000000
53.046935	12.706892	23.767622	-1.148350	1.635701	2.248773	0.000000	0.173336	0.000000	-0.000002	-0.000001	0.000000	0.000000
53.487895	13.908093	22.095629	-1.586042	2.141581	2.339548	0.000000	0.238768	0.000000	-0.000002	-0.000001	0.000000	0.000000
53.933855	15.546266	19.993917	-2.100429	2.551358	2.461252	0.000000	0.307319	0.000000	-0.000002	-0.000001	0.000000	0.000000
54.482915	17.655344	17.628989	-1.718087	1.781298	2.609809	0.000000	0.233015	0.000000	-0.000003	-0.000001	0.000000	0.000000
55.031975	19.275036	16.035462	-1.214388	1.138116	2.716372	0.000000	0.154578	0.000000	-0.000003	-0.000001	0.000000	0.000000
55.581035	20.290935	15.099832	-0.624911	0.576000	2.779051	0.000000	0.073399	0.000000	-0.000004	-0.000001	0.000000	0.000000
56.130095	20.631283	14.755458	0.008707	0.054910	2.796734	0.000000	-0.009081	0.000000	-0.000004	-0.000000	0.000000	0.000000
56.428668	20.662604	14.705740	-0.059702	0.073054	2.796205	0.000000	-0.001774	0.000000	-0.000004	-0.000000	0.000000	0.000000
56.762001	20.707802	14.664633	-0.075892	0.050266	2.795614	0.000000	-0.001774	0.000000	-0.000004	-0.000000	0.000000	0.000000
57.095334	20.763793	14.638719	-0.092081	0.027478	2.795023	0.000000	-0.001774	0.000000	-0.000004	-0.000000	0.000000	0.000000
57.429918	20.830847	14.627985	-0.108332	0.004604	2.794430	0.000000	-0.001774	0.000000	-0.000004	-0.000000	0.000000	0.000000
57.727240	20.899560	14.631290	-0.177381	0.022509	2.793902	0.000000	0.005527	0.000000	-0.000005	-0.000000	0.000000	0.000000
58.276300	20.737776	14.887555	0.470293	-0.491998	2.774298	0.000000	-0.076831	0.000000	-0.000005	-0.000000	0.000000	0.000000
58.825360	19.878880	15.724623	1.084749	-1.041548	2.709783	0.000000	-0.157826	0.000000	-0.000005	-0.000000	0.000000	0.000000
59.374420	18.383540	17.202116	1.622583	-1.665286	2.601501	0.000000	-0.236022	0.000000	-0.000005	-0.000000	0.000000	0.000000
59.923480	16.357380	19.425273	2.045807	-2.407638	2.451372	0.000000	-0.310031	0.000000	-0.000005	0.000000	0.000000	0.000000
60.369440	14.771493	21.401260	1.522908	-2.004520	2.328399	0.000000	-0.241753	0.000000	-0.000005	0.000000	0.000000	0.000000
60.810400	13.630779	22.957638	1.073793	-1.511571	2.236243	0.000000	-0.176626	0.000000	-0.000005	-0.000000	0.000000	0.000000
61.251360	12.863101	24.047171	0.673736	-0.949847	2.172334	0.000000	-0.113511	0.000000	-0.000005	-0.000000	0.000000	0.000000
61.692320	12.433386	24.620285	0.304461	-0.344905	2.135946	0.000000	-0.051688	0.000000	-0.000005	-0.000000	0.000000	0.000000
62.134530	12.322052	24.650367	-0.020787	0.215222	2.126669	0.000000	0.004330	0.000000	-0.000005	-0.000000	0.000000	0.000000
62.431853	12.341590	24.526139	-0.044927	0.202602	2.127956	0.000000	0.004330	0.000000	-0.000005	-0.000000	0.000000	0.000000
62.765186	12.380562	24.395787	-0.071990	0.188453	2.129400	0.000000	0.004330	0.000000	-0.000006	-0.000000	0.000000	0.000000
63.098520	12.437577	24.274868	-0.099054	0.174304	2.130843	0.000000	0.004330	0.000000	-0.000006	-0.000000	0.000000	0.000000
63.433103	12.512949	24.162981	-0.126219	0.160102	2.132292	0.000000	0.004330	0.000000	-0.000006	-0.000000	0.000000	0.000000
63.730426	12.595182	24.071529	-0.119470	0.088448	2.133580	0.000000	-0.000902	0.000000	-0.000006	-0.000000	0.000000	0.000000
64.171386	12.860923	23.728419	-0.485458	0.686689	2.146721	0.000000	0.060560	0.000000	-0.000006	-0.000001	0.000000	0.000000
64.612346	13.457958	22.869522	-0.873625	1.253687	2.187090	0.000000	0.122711	0.000000	-0.000007	-0.000001	0.000000	0.000000
65.053306	14.413567	21.533918	-1.301706	1.763643	2.255148	0.000000	0.186261	0.000000	-0.000007	-0.000001	0.000000	0.000000
65.494266	15.771406	19.782376	-1.789257	2.193354	2.351669	0.000000	0.251931	0.000000	-0.000007	-0.000001	0.000000	0.000000
65.940226	17.616676	17.669800	-2.363247	2.524025	2.479325	0.000000	0.320873	0.000000	-0.000008	-0.000001	0.000000	0.000000
66.489286	19.982088	15.306456	-1.919364	1.805728	2.635142	0.000000	0.245866	0.000000	-0.000009	-0.000001	0.000000	0.000000
67.038346	21.782278	13.657055	-1.339905	1.216050	2.748516	0.000000	0.166498	0.000000	-0.000009	-0.000001	0.000000	0.000000
67.587406	22.890089	12.604114	-0.665803	0.712987	2.817435	0.000000	0.084177	0.000000	-0.000010	-0.000000	0.000000	0.000000
68.136466	23.227273	12.072633	0.055328	0.260710	2.840678	0.000000	0.000362	0.000000	-0.000010	-0.000000	0.000000	0.000000
68.435038	23.234315	11.906128	-0.018220	0.265412	2.843003	0.000000	0.007785	0.000000	-0.000010	-0.000000	0.000000	0.000000
68.768372	23.251245	11.739176	-0.032572	0.235443	2.845598	0.000000	0.007785	0.000000	-0.000010	-0.000000	0.000000	0.000000
69.101705	23.277743	11.592204	-0.046923	0.205474	2.848193	0.000000	0.007785	0.000000	-0.000010	-0.000000	0.000000	0.000000
69.436288	23.313962	11.464772	-0.061328	0.175393	2.850798	0.000000	0.007785	0.000000	-0.000010	-0.000000	0.000000	0.000000
69.733611	23.354237	11.368423	-0.135155	0.178368	2.853112	0.000000	0.015240	0.000000	-0.000010	-0.000000	0.000000	0.000000
70.282671	23.101560	11.400196	0.592629	-0.236577	2.838301	0.000000	-0.069113	0.000000	-0.000010	0.000000	0.000000	0.000000
