#ParticleID	Turn	x[m]	xp	y[m]	yp	z[m]	dE[GeV]# s	beta_x	beta_y	alpha_x	alpha_y	D_x	D_y	D_px	D_py	orbit_x	orbit_px	orbit_y	orbit_py
0.300000	11.830724	24.952039	-0.013197	-0.027754	2.618259	0.000000	-0.000044	0.000000	-0.000000	0.000000	0.000000	0.000000
0.601250	11.846348	24.972400	-0.038665	-0.039836	2.618246	0.000000	-0.000044	0.000000	-0.000000	0.000000	0.000000	0.000000
0.898573	11.876813	24.999634	-0.034675	-0.113067	2.618233	0.000000	-0.006465	0.000000	0.000000	0.000000	0.000000	0.000000
1.339533	12.059734	24.822074	-0.381724	0.514202	2.631676	0.000000	0.067495	0.000000	0.000000	0.000000	0.000000	0.000000
1.780493	12.555229	24.099556	-0.746212	1.118075	2.677870	0.000000	0.142224	0.000000	0.000000	0.000000	0.000000	0.000000
2.221453	13.385935	22.864954	-1.144793	1.671077	2.757343	0.000000	0.218573	0.000000	0.000000	0.000000	0.000000	0.000000
2.662413	14.589805	21.174440	-1.595675	2.148046	2.870999	0.000000	0.297411	0.000000	0.000001	0.000000	0.000000	0.000000
3.108373	16.242645	19.080138	-2.123760	2.528410	3.021993	0.000000	0.380125	0.000000	0.000001	0.000000	0.000000	0.000000
3.657433	18.362090	16.728038	-1.713524	1.780745	3.205433	0.000000	0.287088	0.000000	0.000001	0.000000	0.000000	0.000000
4.206493	19.961514	15.122912	-1.182254	1.159918	3.336314	0.000000	0.188958	0.000000	0.000001	0.000000	0.000000	0.000000
4.755553	20.927941	14.150433	-0.567475	0.621709	3.412316	0.000000	0.087477	0.000000	0.000001	0.000000	0.000000	0.000000
5.304613	21.193107	13.741332	0.087388	0.127783	3.432089	0.000000	-0.015556	0.000000	0.000001	0.000000	0.000000	0.000000
5.603185	21.178201	13.650249	0.017912	0.141376	3.430122	0.000000	-0.006589	0.000000	0.000001	0.000000	0.000000	0.000000
5.936519	21.171508	13.564301	0.002167	0.116468	3.427925	0.000000	-0.006589	0.000000	0.000001	0.000000	0.000000	0.000000
6.269852	21.175311	13.494958	-0.013577	0.091560	3.425729	0.000000	-0.006589	0.000000	0.000001	0.000000	0.000000	0.000000
6.604435	21.189684	13.442054	-0.029381	0.066559	3.423524	0.000000	-0.006589	0.000000	0.000001	0.000000	0.000000	0.000000
6.901758	21.211330	13.409080	-0.098845	0.079378	3.421565	0.000000	0.002351	0.000000	0.000002	0.000000	0.000000	0.000000
7.450818	20.958293	13.582414	0.556973	-0.396934	3.394656	0.000000	-0.100226	0.000000	0.000002	0.000000	0.000000	0.000000
7.999878	20.002530	14.291159	1.173448	-0.901519	3.311832	0.000000	-0.201024	0.000000	0.000002	0.000000	0.000000	0.000000
8.548938	18.411553	15.585797	1.707037	-1.470316	3.174562	0.000000	-0.298257	0.000000	0.000002	0.000000	0.000000	0.000000
9.097998	16.297739	17.558542	2.120050	-2.143841	2.985281	0.000000	-0.390200	0.000000	0.000002	-0.000000	0.000000	0.000000
9.543958	14.648451	19.316424	1.591387	-1.781293	2.829573	0.000000	-0.308499	0.000000	0.000002	0.000000	0.000000	0.000000
9.984918	13.448690	20.697572	1.139728	-1.338926	2.710782	0.000000	-0.230795	0.000000	0.000002	0.000000	0.000000	0.000000
10.425878	12.622876	21.660131	0.740140	-0.835639	2.625645	0.000000	-0.155720	0.000000	0.000002	0.000000	0.000000	0.000000
10.866838	12.133280	22.160306	0.374368	-0.294331	2.573190	0.000000	-0.082418	0.000000	0.000002	0.000000	0.000000	0.000000
11.309048	11.957396	22.174825	0.054916	0.205930	2.552801	0.000000	-0.016315	0.000000	0.000002	0.000000	0.000000	0.000000
11.606371	11.932155	22.056525	0.029976	0.191953	2.547950	0.000000	-0.016315	0.000000	0.000002	0.000000	0.000000	0.000000
12.086371	11.922705	21.883081	-0.010287	0.169389	2.540119	0.000000	-0.016315	0.000000	0.000002	0.000000	0.000000	0.000000
12.566371	11.951907	21.731299	-0.050551	0.146825	2.532287	0.000000	-0.016315	0.000000	0.000002	0.000000	0.000000	0.000000
13.046371	12.019763	21.601177	-0.090815	0.124261	2.524456	0.000000	-0.016315	0.000000	0.000002	0.000000	0.000000	0.000000
13.526371	12.126271	21.492718	-0.131078	0.101697	2.516625	0.000000	-0.016315	0.000000	0.000002	0.000000	0.000000	0.000000
14.007621	12.271861	21.405722	-0.171447	0.079074	2.508773	0.000000	-0.016315	0.000000	0.000002	0.000000	0.000000	0.000000
14.304943	12.381226	21.362857	-0.166025	0.012710	2.503922	0.000000	-0.022455	0.000000	0.000003	0.000000	0.000000	0.000000
14.745903	12.686375	21.117803	-0.528609	0.540903	2.509650	0.000000	0.048459	0.000000	0.000003	0.000000	0.000000	0.000000
15.186863	13.320694	20.416040	-0.915344	1.044485	2.546739	0.000000	0.119924	0.000000	0.000003	0.000000	0.000000	0.000000
15.627823	14.313164	19.289498	-1.343898	1.500543	2.615613	0.000000	0.192756	0.000000	0.000003	0.000000	0.000000	0.000000
16.068783	15.709128	17.789433	-1.833851	1.888328	2.717056	0.000000	0.267782	0.000000	0.000003	0.000000	0.000000	0.000000
16.514743	17.596018	15.962595	-2.412345	2.190946	2.853917	0.000000	0.346321	0.000000	0.000003	0.000001	0.000000	0.000000
17.063803	20.019199	13.922635	-1.974855	1.546354	3.020342	0.000000	0.259005	0.000000	0.000004	0.000000	0.000000	0.000000
17.612863	21.882056	12.526240	-1.397872	1.011905	3.137492	0.000000	0.167095	0.000000	0.000004	0.000000	0.000000	0.000000
18.161923	23.053006	11.673947	-0.722149	0.549533	3.203288	0.000000	0.072221	0.000000	0.000004	0.000000	0.000000	0.000000
18.710983	23.449340	11.305051	0.004582	0.126302	3.216564	0.000000	-0.023934	0.000000	0.000004	0.000000	0.000000	0.000000
19.009556	23.487003	11.220069	-0.069458	0.128787	3.211927	0.000000	-0.015530	0.000000	0.000004	0.000000	0.000000	0.000000
19.342889	23.538062	11.144278	-0.083719	0.098586	3.206750	0.000000	-0.015530	0.000000	0.000004	0.000000	0.000000	0.000000
19.676223	23.598628	11.088622	-0.097980	0.068384	3.201574	0.000000	-0.015530	0.000000	0.000004	0.000000	0.000000	0.000000
20.010806	23.669275	11.052867	-0.229565	0.092832	3.196397	0.000000	0.000307	0.000000	0.000004	0.000000	0.000000	0.000000
20.308129	23.809717	11.005732	-0.304996	0.094455	3.196489	0.000000	0.008658	0.000000	0.000004	0.000000	0.000000	0.000000
20.857189	23.733992	11.124559	0.442098	-0.312151	3.175028	0.000000	-0.086714	0.000000	0.000004	-0.000000	0.000000	0.000000
21.406249	22.850230	11.699404	1.157964	-0.740992	3.101549	0.000000	-0.180547	0.000000	0.000004	-0.000000	0.000000	0.000000
21.955309	21.220857	12.771214	1.792037	-1.222612	2.977354	0.000000	-0.271179	0.000000	0.000004	-0.000000	0.000000	0.000000
22.504369	18.960963	14.416331	2.299530	-1.791316	2.804646	0.000000	-0.357000	0.000000	0.000004	-0.000000	0.000000	0.000000
22.950329	17.180125	15.893177	1.707837	-1.506324	2.662728	0.000000	-0.279805	0.000000	0.000004	-0.000000	0.000000	0.000000
23.391289	15.903229	17.070600	1.198867	-1.153653	2.555665	0.000000	-0.206251	0.000000	0.000004	-0.000000	0.000000	0.000000
23.832249	15.049446	17.912574	0.744670	-0.748491	2.480487	0.000000	-0.135047	0.000000	0.000004	-0.000000	0.000000	0.000000
24.273209	14.579769	18.380788	0.324494	-0.309274	2.436339	0.000000	-0.065380	0.000000	0.000003	-0.000000	0.000000	0.000000
24.715418	14.472853	18.453692	-0.045452	0.098693	2.422715	0.000000	-0.002399	0.000000	0.000003	0.000000	0.000000	0.000000
25.012741	14.506002	18.399842	-0.066038	0.082424	2.422002	0.000000	-0.002399	0.000000	0.000003	0.000000	0.000000	0.000000
25.346075	14.557720	18.350972	-0.089117	0.064185	2.421202	0.000000	-0.002399	0.000000	0.000003	0.000000	0.000000	0.000000
25.679408	14.624824	18.314261	-0.112196	0.045946	2.420402	0.000000	-0.002399	0.000000	0.000003	0.000000	0.000000	0.000000
26.013991	14.707355	18.290012	-0.016046	-0.120739	2.419575	0.000000	-0.022028	0.000000	0.000004	0.000000	0.000000	0.000000
26.311314	14.722909	18.366713	-0.000164	-0.182271	2.413026	0.000000	-0.027945	0.000000	0.000004	-0.000000	0.000000	0.000000
26.752274	14.904473	18.328219	-0.413147	0.269234	2.415810	0.000000	0.040587	0.000000	0.000004	0.000000	0.000000	0.000000
27.193234	15.457171	17.895435	-0.845005	0.708490	2.448888	0.000000	0.109582	0.000000	0.000004	0.000000	0.000000	0.000000
27.634194	16.406253	17.088052	-1.315469	1.115509	2.512635	0.000000	0.179825	0.000000	0.000004	0.000000	0.000000	0.000000
28.075154	17.795081	15.942805	-1.846034	1.471774	2.607779	0.000000	0.252116	0.000000	0.000004	0.000000	0.000000	0.000000
28.521114	19.711241	14.494555	-2.465894	1.761988	2.737005	0.000000	0.327721	0.000000	0.000004	0.000000	0.000000	0.000000
29.070174	22.146686	12.880759	-1.943511	1.194558	2.894284	0.000000	0.244341	0.000000	0.000004	0.000000	0.000000	0.000000
29.619234	23.929253	11.839972	-1.283849	0.712213	3.004524	0.000000	0.156627	0.000000	0.000004	0.000000	0.000000	0.000000
30.168294	24.933030	11.298058	-0.533503	0.280597	3.065770	0.000000	0.066135	0.000000	0.000004	0.000000	0.000000	0.000000
30.717354	25.087116	11.216420	0.254528	-0.131032	3.076934	0.000000	-0.025530	0.000000	0.000004	-0.000000	0.000000	0.000000
31.015927	24.977946	11.285196	0.176656	-0.128622	3.071711	0.000000	-0.017490	0.000000	0.000004	-0.000000	0.000000	0.000000
31.349260	24.864763	11.380952	0.162894	-0.158648	3.065881	0.000000	-0.017490	0.000000	0.000004	-0.000000	0.000000	0.000000
31.682593	24.760754	11.496726	0.149133	-0.188673	3.060051	0.000000	-0.017490	0.000000	0.000004	-0.000000	0.000000	0.000000
32.017177	24.665581	11.633064	0.135320	-0.218812	3.054199	0.000000	-0.017490	0.000000	0.000004	-0.000000	0.000000	0.000000
32.314499	24.588763	11.771142	0.058801	-0.214839	3.048999	0.000000	-0.009524	0.000000	0.000004	-0.000000	0.000000	0.000000
32.863559	24.102978	12.246412	0.820719	-0.655877	3.018893	0.000000	-0.099977	0.000000	0.000004	-0.000000	0.000000	0.000000
33.412619	22.807552	13.228652	1.524666	-1.143631	2.939538	0.000000	-0.188657	0.000000	0.000004	-0.000000	0.000000	0.000000
33.961679	20.793988	14.787826	2.120918	-1.712844	2.812340	0.000000	-0.273991	0.000000	0.000004	-0.000000	0.000000	0.000000
34.510739	18.204514	17.034988	2.567359	-2.404059	2.639556	0.000000	-0.354464	0.000000	0.000004	-0.000001	0.000000	0.000000
34.956699	16.191229	19.044920	1.963312	-2.084099	2.497818	0.000000	-0.281549	0.000000	0.000003	-0.000001	0.000000	0.000000
35.397659	14.690041	20.706679	1.453966	-1.670063	2.389045	0.000000	-0.212269	0.000000	0.000003	-0.000000	0.000000	0.000000
35.838619	13.607177	21.968261	1.011048	-1.180040	2.310260	0.000000	-0.145406	0.000000	0.000003	-0.000000	0.000000	0.000000
36.279579	12.893162	22.772265	0.614321	-0.636326	2.260566	0.000000	-0.080199	0.000000	0.000003	-0.000000	0.000000	0.000000
36.721789	12.514687	23.082411	0.276245	-0.120318	2.239371	0.000000	-0.021397	0.000000	0.000003	-0.000000	0.000000	0.000000
37.019112	12.358022	23.157842	0.250674	-0.133385	2.233009	0.000000	-0.021397	0.000000	0.000003	-0.000000	0.000000	0.000000
37.352445	12.200462	23.251649	0.222006	-0.148035	2.225876	0.000000	-0.021397	0.000000	0.000003	-0.000000	0.000000	0.000000
37.685779	12.062014	23.355223	0.193338	-0.162685	2.218744	0.000000	-0.021397	0.000000	0.000003	-0.000000	0.000000	0.000000
38.020362	11.942267	23.469006	0.164562	-0.177390	2.211585	0.000000	-0.021397	0.000000	0.000003	-0.000000	0.000000	0.000000
38.317684	11.852013	23.578376	0.168056	-0.248277	2.205223	0.000000	-0.026805	0.000000	0.000002	-0.000000	0.000000	0.000000
38.758644	11.854980	23.536195	-0.174809	0.343569	2.207328	0.000000	0.036362	0.000000	0.000002	-0.000000	0.000000	0.000000
39.199604	12.162692	22.976979	-0.525660	0.919784	2.237352	0.000000	0.099943	0.000000	0.000002	-0.000000	0.000000	0.000000
39.640564	12.789207	21.926170	-0.900527	1.454150	2.295637	0.000000	0.164662	0.000000	0.000002	-0.000000	0.000000	0.000000
40.081524	13.763149	20.431580	-1.316537	1.922352	2.382846	0.000000	0.231256	0.000000	0.000002	0.000000	0.000000	0.000000
40.527484	15.146577	18.538644	-1.796519	2.304368	2.501444	0.000000	0.300889	0.000000	0.000002	0.000000	0.000000	0.000000
41.076544	16.912246	16.411559	-1.400249	1.592548	2.646125	0.000000	0.225346	0.000000	0.000002	0.000000	0.000000	0.000000
41.625604	18.185543	14.999634	-0.905072	0.994162	2.748167	0.000000	0.145806	0.000000	0.000002	-0.000000	0.000000	0.000000
42.174664	18.876528	14.202301	-0.345965	0.466588	2.805762	0.000000	0.063679	0.000000	0.000002	-0.000000	0.000000	0.000000
42.723724	18.936393	13.962768	0.237579	-0.027752	2.817887	0.000000	-0.019577	0.000000	0.000002	-0.000000	0.000000	0.000000
43.022297	18.828943	13.963940	0.171777	-0.012655	2.814240	0.000000	-0.012214	0.000000	0.000002	-0.000000	0.000000	0.000000
43.502297	18.676634	13.992591	0.145532	-0.047035	2.808378	0.000000	-0.012214	0.000000	0.000002	-0.000000	0.000000	0.000000
43.982297	18.549521	14.054247	0.119287	-0.081415	2.802515	0.000000	-0.012214	0.000000	0.000002	-0.000000	0.000000	0.000000
44.462297	18.447603	14.148908	0.093042	-0.115795	2.796652	0.000000	-0.012214	0.000000	0.000002	-0.000000	0.000000	0.000000
44.942297	18.370880	14.276573	0.066798	-0.150175	2.790789	0.000000	-0.012214	0.000000	0.000002	-0.000000	0.000000	0.000000
45.423547	18.319477	14.437526	-0.050281	-0.113111	2.784929	0.000000	0.001584	0.000000	0.000002	-0.000000	0.000000	0.000000
45.720870	18.354214	14.510988	-0.114507	-0.096055	2.785400	0.000000	0.008861	0.000000	0.000002	-0.000000	0.000000	0.000000
46.269930	18.170901	14.897203	0.446398	-0.611508	2.767697	0.000000	-0.073252	0.000000	0.000002	-0.000000	0.000000	0.000000
46.818990	17.385394	15.869900	0.975772	-1.170518	2.705199	0.000000	-0.154065	0.000000	0.000001	-0.000000	0.000000	0.000000
47.368050	16.053179	17.498363	1.436222	-1.812901	2.599017	0.000000	-0.232146	0.000000	0.000001	-0.000000	0.000000	0.000000
47.917110	14.268356	19.898584	1.795224	-2.584412	2.451031	0.000000	-0.306110	0.000000	0.000001	-0.000000	0.000000	0.000000
48.363070	12.879276	22.032698	1.330617	-2.180907	2.329809	0.000000	-0.237818	0.000000	0.000001	-0.000000	0.000000	0.000000
48.804030	11.885952	23.741459	0.930569	-1.679441	2.239399	0.000000	-0.172632	0.000000	0.000001	-0.000000	0.000000	0.000000
49.244990	11.225429	24.972455	0.573035	-1.101562	2.177273	0.000000	-0.109413	0.000000	0.000001	-0.000000	0.000000	0.000000
49.685950	10.867528	25.669675	0.241683	-0.473563	2.142724	0.000000	-0.047439	0.000000	0.000000	-0.000000	0.000000	0.000000
50.128160	10.796030	25.801115	-0.052270	0.112662	2.135368	0.000000	0.008758	0.000000	0.000000	-0.000000	0.000000	0.000000
50.425482	10.835323	25.737591	-0.079885	0.100992	2.137972	0.000000	0.008758	0.000000	0.000000	-0.000000	0.000000	0.000000
50.758816	10.898900	25.674624	-0.110845	0.087909	2.140891	0.000000	0.008758	0.000000	0.000000	-0.000000	0.000000	0.000000
51.092149	10.983117	25.620380	-0.141805	0.074825	2.143811	0.000000	0.008758	0.000000	0.000000	-0.000000	0.000000	0.000000
51.426732	11.088180	25.575221	-0.082926	-0.145786	2.146719	0.000000	-0.008658	0.000000	-0.000000	-0.000000	0.000000	0.000000
51.724055	11.145520	25.665442	-0.082593	-0.220598	2.144145	0.000000	-0.013916	0.000000	-0.000000	-0.000000	0.000000	0.000000
52.165015	11.363847	25.574489	-0.414404	0.426075	2.151597	0.000000	0.047745	0.000000	-0.000000	-0.000000	0.000000	0.000000
52.605975	11.882016	24.919624	-0.765147	1.053362	2.186333	0.000000	0.109950	0.000000	-0.000000	-0.000000	0.000000	0.000000
53.046935	12.723701	23.730644	-1.150848	1.632722	2.248748	0.000000	0.173407	0.000000	-0.000000	-0.000000	0.000000	0.000000
53.487895	13.927354	22.061646	-1.589129	2.137794	2.339554	0.000000	0.238839	0.000000	-0.000001	-0.000000	0.000000	0.000000
53.933855	15.568597	19.963612	-2.104250	2.546932	2.461289	0.000000	0.307390	0.000000	-0.000001	-0.000000	0.000000	0.000000
54.482915	17.681587	17.602891	-1.721348	1.778015	2.609884	0.000000	0.233084	0.000000	-0.000001	-0.000000	0.000000	0.000000
55.031975	19.304446	16.012452	-1.216859	1.135741	2.716485	0.000000	0.154645	0.000000	-0.000001	-0.000000	0.000000	0.000000
55.581035	20.322541	15.079012	-0.626417	0.574364	2.779199	0.000000	0.073462	0.000000	-0.000001	-0.000000	0.000000	0.000000
56.130095	20.663961	14.736083	0.008272	0.053897	2.796915	0.000000	-0.009024	0.000000	-0.000001	-0.000000	0.000000	0.000000
56.428668	20.695585	14.687008	-0.060199	0.071966	2.796403	0.000000	-0.001716	0.000000	-0.000001	-0.000000	0.000000	0.000000
56.762001	20.741106	14.646635	-0.076364	0.049153	2.795831	0.000000	-0.001716	0.000000	-0.000001	-0.000000	0.000000	0.000000
57.095334	20.797403	14.621471	-0.092529	0.026339	2.795259	0.000000	-0.001716	0.000000	-0.000002	-0.000000	0.000000	0.000000
57.429918	20.864749	14.611507	-0.108754	0.003440	2.794684	0.000000	-0.001716	0.000000	-0.000002	-0.000000	0.000000	0.000000
57.727240	20.933706	14.615511	-0.177869	0.021280	2.794174	0.000000	0.005584	0.000000	-0.000002	-0.000000	0.000000	0.000000
58.276300	20.771827	14.872882	0.470954	-0.492795	2.774599	0.000000	-0.076783	0.000000	-0.000002	-0.000000	0.000000	0.000000
58.825360	19.911593	15.710615	1.086511	-1.041970	2.710108	0.000000	-0.157788	0.000000	-0.000002	-0.000000	0.000000	0.000000
59.374420	18.413768	17.188380	1.625322	-1.665362	2.601843	0.000000	-0.235994	0.000000	-0.000002	-0.000000	0.000000	0.000000
59.923480	16.384149	19.411435	2.049329	-2.407375	2.451726	0.000000	-0.310015	0.000000	-0.000002	0.000000	0.000000	0.000000
60.369440	14.795478	21.387385	1.525648	-2.004702	2.328763	0.000000	-0.241728	0.000000	-0.000002	-0.000000	0.000000	0.000000
60.810400	13.652643	22.944116	1.075883	-1.512187	2.236620	0.000000	-0.176591	0.000000	-0.000002	-0.000000	0.000000	0.000000
61.251360	12.883371	24.034374	0.675272	-0.950868	2.172729	0.000000	-0.113466	0.000000	-0.000002	-0.000000	0.000000	0.000000
61.692320	12.452519	24.608552	0.305513	-0.346286	2.136363	0.000000	-0.051633	0.000000	-0.000002	-0.000000	0.000000	0.000000
62.134530	12.340451	24.639992	-0.020127	0.213572	2.127113	0.000000	0.004396	0.000000	-0.000002	-0.000000	0.000000	0.000000
62.431853	12.359586	24.516744	-0.044230	0.200955	2.128420	0.000000	0.004396	0.000000	-0.000002	-0.000000	0.000000	0.000000
62.765186	12.398080	24.387489	-0.071253	0.186810	2.129885	0.000000	0.004396	0.000000	-0.000002	-0.000000	0.000000	0.000000
63.098520	12.454589	24.267664	-0.098275	0.172665	2.131351	0.000000	0.004396	0.000000	-0.000002	-0.000000	0.000000	0.000000
63.433103	12.529427	24.156873	-0.125399	0.158466	2.132821	0.000000	0.004396	0.000000	-0.000002	-0.000000	0.000000	0.000000
63.730426	12.611161	24.066393	-0.118575	0.086830	2.134129	0.000000	-0.000838	0.000000	-0.000002	-0.000000	0.000000	0.000000
64.171386	12.876266	23.724757	-0.484905	0.684977	2.147301	0.000000	0.060639	0.000000	-0.000002	-0.000000	0.000000	0.000000
64.612346	13.472956	22.867383	-0.873390	1.251959	2.187709	0.000000	0.122806	0.000000	-0.000003	-0.000000	0.000000	0.000000
65.053306	14.428492	21.533281	-1.301777	1.761977	2.255811	0.000000	0.186372	0.000000	-0.000003	-0.000000	0.000000	0.000000
65.494266	15.786530	19.783152	-1.789638	2.191827	2.352385	0.000000	0.252060	0.000000	-0.000003	-0.000000	0.000000	0.000000
65.940226	17.632285	17.671849	-2.363957	2.522708	2.480102	0.000000	0.321021	0.000000	-0.000003	-0.000001	0.000000	0.000000
66.489286	19.998149	15.309876	-1.919472	1.804534	2.635993	0.000000	0.245988	0.000000	-0.000003	-0.000000	0.000000	0.000000
67.038346	21.798124	13.661759	-1.339406	1.214892	2.749426	0.000000	0.166591	0.000000	-0.000004	-0.000000	0.000000	0.000000
67.587406	22.905067	12.610106	-0.664731	0.711784	2.818388	0.000000	0.084240	0.000000	-0.000004	-0.000000	0.000000	0.000000
68.136466	23.240791	12.080010	0.056898	0.259375	2.841657	0.000000	0.000394	0.000000	-0.000004	-0.000000	0.000000	0.000000
68.435038	23.246913	11.914281	-0.016675	0.264131	2.843991	0.000000	0.007819	0.000000	-0.000004	-0.000000	0.000000	0.000000
68.768372	23.262811	11.748170	-0.031018	0.234201	2.846598	0.000000	0.007819	0.000000	-0.000004	-0.000000	0.000000	0.000000
69.101705	23.288270	11.602013	-0.045361	0.204272	2.849204	0.000000	0.007819	0.000000	-0.000004	-0.000000	0.000000	0.000000
69.436288	23.323441	11.475372	-0.059757	0.174230	2.851821	0.000000	0.007819	0.000000	-0.000004	-0.000000	0.000000	0.000000
69.733611	23.362779	11.379705	-0.133595	0.177268	2.854145	0.000000	0.015277	0.000000	-0.000004	-0.000000	0.000000	0.000000
70.282671	23.108249	11.412863	0.594425	-0.238015	2.839345	0.000000	-0.069111	0.000000	-0.000004	0.000000	0.000000	0.000000
