#ParticleID	Turn	x[m]	xp	y[m]	yp	z[m]	dE[GeV]# s	beta_x	beta_y	alpha_x	alpha_y	D_x	D_y	D_px	D_py	orbit_x	orbit_px	orbit_y	orbit_py
0.300000	11.834414	24.939622	-0.013713	-0.027787	2.618347	0.000000	-0.000077	0.000000	-0.000001	0.000000	0.000000	0.000000
0.601250	11.850346	24.960005	-0.039173	-0.039875	2.618324	0.000000	-0.000077	0.000000	-0.000001	0.000000	0.000000	0.000000
0.898573	11.881111	24.987264	-0.035165	-0.113083	2.618301	0.000000	-0.006498	0.000000	-0.000001	0.000000	0.000000	0.000000
1.339533	12.064511	24.809863	-0.382324	0.513860	2.631730	0.000000	0.067464	0.000000	-0.000001	0.000000	0.000000	0.000000
1.780493	12.560594	24.087785	-0.746950	1.117422	2.677911	0.000000	0.142194	0.000000	-0.000001	0.000000	0.000000	0.000000
2.221453	13.392024	22.853885	-1.145703	1.670143	2.757371	0.000000	0.218543	0.000000	-0.000001	0.000000	0.000000	0.000000
2.662413	14.596787	21.164304	-1.596799	2.146873	2.871014	0.000000	0.297382	0.000000	-0.000001	0.000000	0.000000	0.000000
3.108373	16.250744	19.071136	-2.125150	2.527052	3.021995	0.000000	0.380097	0.000000	-0.000001	0.000000	0.000000	0.000000
3.657433	18.371614	16.720330	-1.714712	1.779730	3.205419	0.000000	0.287059	0.000000	-0.000001	0.000000	0.000000	0.000000
4.206493	19.972192	15.116164	-1.183155	1.159174	3.336285	0.000000	0.188930	0.000000	-0.000001	0.000000	0.000000	0.000000
4.755553	20.939421	14.144377	-0.568026	0.621184	3.412272	0.000000	0.087450	0.000000	-0.000001	0.000000	0.000000	0.000000
5.304613	21.204982	13.735750	0.087225	0.127439	3.432031	0.000000	-0.015581	0.000000	-0.000001	0.000000	0.000000	0.000000
5.603185	21.190189	13.644882	0.017726	0.141012	3.430056	0.000000	-0.006614	0.000000	-0.000001	0.000000	0.000000	0.000000
5.936519	21.183617	13.559179	0.001990	0.116097	3.427852	0.000000	-0.006614	0.000000	-0.000001	0.000000	0.000000	0.000000
6.269852	21.187535	13.490086	-0.013745	0.091182	3.425647	0.000000	-0.006614	0.000000	-0.000000	0.000000	0.000000	0.000000
6.604435	21.202018	13.437438	-0.029540	0.066173	3.423434	0.000000	-0.006614	0.000000	-0.000000	0.000000	0.000000	0.000000
6.901758	21.223756	13.404695	-0.099029	0.078974	3.421467	0.000000	0.002326	0.000000	-0.000000	0.000000	0.000000	0.000000
7.450818	20.970692	13.578406	0.557206	-0.397220	3.394545	0.000000	-0.100247	0.000000	-0.000000	0.000000	0.000000	0.000000
7.999878	20.014450	14.287409	1.174083	-0.901707	3.311710	0.000000	-0.201042	0.000000	-0.000000	0.000000	0.000000	0.000000
8.548938	18.422574	15.582207	1.708029	-1.470421	3.174432	0.000000	-0.298271	0.000000	-0.000000	0.000000	0.000000	0.000000
9.097998	16.307507	17.555024	2.121328	-2.143869	2.985144	0.000000	-0.390210	0.000000	0.000000	0.000000	0.000000	0.000000
9.543958	14.657209	19.312985	1.592381	-1.781442	2.829431	0.000000	-0.308512	0.000000	0.000000	0.000000	0.000000	0.000000
9.984918	13.456679	20.694315	1.140485	-1.339189	2.710634	0.000000	-0.230812	0.000000	0.000000	0.000000	0.000000	0.000000
10.425878	12.630289	21.657152	0.740695	-0.836004	2.625488	0.000000	-0.155740	0.000000	0.000000	0.000000	0.000000	0.000000
10.866838	12.140283	22.157689	0.374745	-0.294782	2.573023	0.000000	-0.082443	0.000000	0.000000	0.000000	0.000000	0.000000
11.309048	11.964137	22.172636	0.055151	0.205419	2.552622	0.000000	-0.016344	0.000000	0.000000	0.000000	0.000000	0.000000
11.606371	11.938753	22.054640	0.030224	0.191444	2.547762	0.000000	-0.016344	0.000000	0.000001	0.000000	0.000000	0.000000
12.086371	11.929054	21.881683	-0.010017	0.168882	2.539917	0.000000	-0.016344	0.000000	0.000001	0.000000	0.000000	0.000000
12.566371	11.957987	21.730386	-0.050259	0.146320	2.532072	0.000000	-0.016344	0.000000	0.000001	0.000000	0.000000	0.000000
13.046371	12.025552	21.600748	-0.090501	0.123759	2.524226	0.000000	-0.016344	0.000000	0.000001	0.000000	0.000000	0.000000
13.526371	12.131749	21.492770	-0.130743	0.101197	2.516381	0.000000	-0.016344	0.000000	0.000001	0.000000	0.000000	0.000000
14.007621	12.277007	21.406254	-0.171090	0.078576	2.508515	0.000000	-0.016344	0.000000	0.000001	0.000000	0.000000	0.000000
14.304943	12.386156	21.363684	-0.165643	0.012211	2.503656	0.000000	-0.022484	0.000000	0.000001	0.000000	0.000000	0.000000
14.745903	12.691012	21.119057	-0.528327	0.540438	2.509369	0.000000	0.048423	0.000000	0.000001	0.000000	0.000000	0.000000
15.186863	13.325121	20.417682	-0.915149	1.044074	2.546442	0.000000	0.119881	0.000000	0.000001	0.000000	0.000000	0.000000
15.627823	14.317455	19.291470	-1.343781	1.500206	2.615295	0.000000	0.192705	0.000000	0.000002	0.000000	0.000000	0.000000
16.068783	15.713349	17.791664	-1.833807	1.888080	2.716713	0.000000	0.267723	0.000000	0.000002	0.000000	0.000000	0.000000
16.514743	17.600232	15.965003	-2.412373	2.190798	2.853546	0.000000	0.346253	0.000000	0.000002	0.000000	0.000000	0.000000
17.063803	20.023343	13.925221	-1.974701	1.546176	3.019937	0.000000	0.258949	0.000000	0.000002	0.000000	0.000000	0.000000
17.612863	21.885935	12.529044	-1.397547	1.011684	3.137059	0.000000	0.167053	0.000000	0.000002	0.000000	0.000000	0.000000
18.161923	23.056445	11.677026	-0.721676	0.549252	3.202836	0.000000	0.072193	0.000000	0.000002	0.000000	0.000000	0.000000
18.710983	23.452192	11.308479	0.005170	0.125942	3.216100	0.000000	-0.023947	0.000000	0.000002	0.000000	0.000000	0.000000
19.009556	23.489509	11.223704	-0.068876	0.128447	3.211459	0.000000	-0.015544	0.000000	0.000002	0.000000	0.000000	0.000000
19.342889	23.540179	11.148136	-0.083135	0.098258	3.206278	0.000000	-0.015544	0.000000	0.000002	0.000000	0.000000	0.000000
19.676223	23.600355	11.092693	-0.097393	0.068069	3.201096	0.000000	-0.015544	0.000000	0.000003	0.000000	0.000000	0.000000
20.010806	23.670608	11.057145	-0.228981	0.092551	3.195915	0.000000	0.000290	0.000000	0.000003	0.000000	0.000000	0.000000
20.308129	23.810701	11.010174	-0.304412	0.094198	3.196001	0.000000	0.008640	0.000000	0.000003	0.000000	0.000000	0.000000
20.857189	23.734320	11.129354	0.442701	-0.312540	3.174535	0.000000	-0.086716	0.000000	0.000003	0.000000	0.000000	0.000000
21.406249	22.849904	11.704710	1.158545	-0.741540	3.101059	0.000000	-0.180534	0.000000	0.000003	-0.000000	0.000000	0.000000
21.955309	21.219925	12.777226	1.792555	-1.223357	2.976876	0.000000	-0.271149	0.000000	0.000003	-0.000000	0.000000	0.000000
22.504369	18.959514	14.423293	2.299947	-1.792312	2.804188	0.000000	-0.356956	0.000000	0.000003	-0.000000	0.000000	0.000000
22.950329	17.178309	15.900961	1.708245	-1.507164	2.662288	0.000000	-0.279772	0.000000	0.000002	-0.000000	0.000000	0.000000
23.391289	15.901051	17.079043	1.199285	-1.154299	2.555236	0.000000	-0.206230	0.000000	0.000002	-0.000000	0.000000	0.000000
23.832249	15.046888	17.921490	0.745116	-0.748915	2.480065	0.000000	-0.135036	0.000000	0.000002	-0.000000	0.000000	0.000000
24.273209	14.576797	18.389972	0.324990	-0.309456	2.435920	0.000000	-0.065380	0.000000	0.000002	0.000000	0.000000	0.000000
24.715418	14.469413	18.462926	-0.044892	0.098739	2.422293	0.000000	-0.002409	0.000000	0.000002	0.000000	0.000000	0.000000
25.012741	14.502230	18.409046	-0.065482	0.082478	2.421577	0.000000	-0.002409	0.000000	0.000003	0.000000	0.000000	0.000000
25.346075	14.553579	18.360138	-0.088565	0.064248	2.420774	0.000000	-0.002409	0.000000	0.000003	0.000000	0.000000	0.000000
25.679408	14.620317	18.323382	-0.111649	0.046018	2.419971	0.000000	-0.002409	0.000000	0.000003	0.000000	0.000000	0.000000
26.013991	14.702483	18.299082	-0.015543	-0.120732	2.419140	0.000000	-0.022035	0.000000	0.000003	0.000000	0.000000	0.000000
26.311314	14.717740	18.375776	0.000321	-0.182278	2.412589	0.000000	-0.027951	0.000000	0.000003	0.000000	0.000000	0.000000
26.752274	14.898819	18.337180	-0.412527	0.269472	2.415369	0.000000	0.040570	0.000000	0.000003	0.000000	0.000000	0.000000
27.193234	15.450901	17.904082	-0.844222	0.708962	2.448436	0.000000	0.109554	0.000000	0.000003	0.000000	0.000000	0.000000
27.634194	16.399209	17.096186	-1.314488	1.116194	2.512169	0.000000	0.179785	0.000000	0.000003	0.000000	0.000000	0.000000
28.075154	17.787067	15.950253	-1.844808	1.472641	2.607292	0.000000	0.252063	0.000000	0.000003	0.000000	0.000000	0.000000
28.521114	19.702003	14.501162	-2.464366	1.762998	2.736492	0.000000	0.327656	0.000000	0.000003	0.000000	0.000000	0.000000
29.070174	22.135890	12.886398	-1.942217	1.195323	2.893740	0.000000	0.244293	0.000000	0.000004	0.000000	0.000000	0.000000
29.619234	23.917206	11.844878	-1.282880	0.712788	3.003959	0.000000	0.156597	0.000000	0.000004	0.000000	0.000000	0.000000
30.168294	24.920130	11.302418	-0.532926	0.281024	3.065192	0.000000	0.066124	0.000000	0.000004	0.000000	0.000000	0.000000
30.717354	25.073819	11.220379	0.254671	-0.130724	3.076355	0.000000	-0.025523	0.000000	0.000004	-0.000000	0.000000	0.000000
31.015927	24.964546	11.288961	0.176826	-0.128292	3.071134	0.000000	-0.017485	0.000000	0.000004	0.000000	0.000000	0.000000
31.349260	24.851252	11.384493	0.163056	-0.158305	3.065306	0.000000	-0.017485	0.000000	0.000004	0.000000	0.000000	0.000000
31.682593	24.747138	11.500034	0.149286	-0.188318	3.059478	0.000000	-0.017485	0.000000	0.000004	0.000000	0.000000	0.000000
32.017177	24.651865	11.636130	0.135465	-0.218444	3.053628	0.000000	-0.017485	0.000000	0.000004	0.000000	0.000000	0.000000
32.314499	24.574963	11.773986	0.058975	-0.214453	3.048429	0.000000	-0.009520	0.000000	0.000004	0.000000	0.000000	0.000000
32.863559	24.089241	12.248867	0.820433	-0.655550	3.018331	0.000000	-0.099955	0.000000	0.000004	-0.000000	0.000000	0.000000
33.412619	22.794375	13.230769	1.523939	-1.143340	2.938992	0.000000	-0.188617	0.000000	0.000004	-0.000000	0.000000	0.000000
33.961679	20.781828	14.789633	2.119803	-1.712568	2.811822	0.000000	-0.273933	0.000000	0.000004	-0.000000	0.000000	0.000000
34.510739	18.193757	17.036492	2.565933	-2.403779	2.639074	0.000000	-0.354390	0.000000	0.000003	-0.000000	0.000000	0.000000
34.956699	16.181598	19.046135	1.962205	-2.083735	2.497366	0.000000	-0.281487	0.000000	0.000003	-0.000000	0.000000	0.000000
35.397659	14.681266	20.707543	1.453124	-1.669634	2.388617	0.000000	-0.212218	0.000000	0.000003	-0.000000	0.000000	0.000000
35.838619	13.599042	21.968725	1.010433	-1.179565	2.309852	0.000000	-0.145366	0.000000	0.000003	-0.000000	0.000000	0.000000
36.279579	12.885481	22.772298	0.613905	-0.635827	2.260174	0.000000	-0.080170	0.000000	0.000003	-0.000000	0.000000	0.000000
36.721789	12.507293	23.081999	0.275990	-0.119815	2.238989	0.000000	-0.021377	0.000000	0.000003	-0.000000	0.000000	0.000000
37.019112	12.350783	23.157132	0.250407	-0.132882	2.232633	0.000000	-0.021377	0.000000	0.000003	-0.000000	0.000000	0.000000
37.352445	12.193406	23.250603	0.221726	-0.147530	2.225507	0.000000	-0.021377	0.000000	0.000003	-0.000000	0.000000	0.000000
37.685779	12.055149	23.353839	0.193045	-0.162179	2.218382	0.000000	-0.021377	0.000000	0.000003	-0.000000	0.000000	0.000000
38.020362	11.935602	23.467283	0.164256	-0.176882	2.211229	0.000000	-0.021377	0.000000	0.000003	-0.000000	0.000000	0.000000
38.317684	11.845534	23.576350	0.167721	-0.247763	2.204874	0.000000	-0.026784	0.000000	0.000003	-0.000000	0.000000	0.000000
38.758644	11.848732	23.533741	-0.174999	0.344023	2.206986	0.000000	0.036374	0.000000	0.000003	-0.000000	0.000000	0.000000
39.199604	12.156551	22.974159	-0.525715	0.920157	2.237013	0.000000	0.099946	0.000000	0.000003	0.000000	0.000000	0.000000
39.640564	12.783056	21.923064	-0.900450	1.454424	2.295297	0.000000	0.164656	0.000000	0.000003	0.000000	0.000000	0.000000
40.081524	13.756870	20.428280	-1.316323	1.922516	2.382502	0.000000	0.231242	0.000000	0.000003	0.000000	0.000000	0.000000
40.527484	15.140042	18.535252	-1.796158	2.304412	2.501092	0.000000	0.300866	0.000000	0.000003	0.000000	0.000000	0.000000
41.076544	16.905446	16.408079	-1.400128	1.592664	2.645763	0.000000	0.225335	0.000000	0.000003	0.000000	0.000000	0.000000
41.625604	18.178748	14.995985	-0.905201	0.994358	2.747802	0.000000	0.145806	0.000000	0.000003	0.000000	0.000000	0.000000
42.174664	18.870007	14.198387	-0.346334	0.466877	2.805400	0.000000	0.063691	0.000000	0.000003	-0.000000	0.000000	0.000000
42.723724	18.930398	13.958475	0.236996	-0.027348	2.817535	0.000000	-0.019553	0.000000	0.000003	-0.000000	0.000000	0.000000
43.022297	18.823286	13.959415	0.171209	-0.012270	2.813895	0.000000	-0.012192	0.000000	0.000003	-0.000000	0.000000	0.000000
43.502297	18.671525	13.987702	0.144961	-0.046661	2.808043	0.000000	-0.012192	0.000000	0.000003	-0.000000	0.000000	0.000000
43.982297	18.544961	14.049004	0.118713	-0.081051	2.802191	0.000000	-0.012192	0.000000	0.000003	-0.000000	0.000000	0.000000
44.462297	18.443596	14.143321	0.092465	-0.115442	2.796339	0.000000	-0.012192	0.000000	0.000003	-0.000000	0.000000	0.000000
44.942297	18.367428	14.270652	0.066218	-0.149832	2.790488	0.000000	-0.012192	0.000000	0.000003	-0.000000	0.000000	0.000000
45.423547	18.316585	14.431281	-0.050849	-0.112811	2.784638	0.000000	0.001605	0.000000	0.000003	-0.000000	0.000000	0.000000
45.720870	18.351661	14.504567	-0.115072	-0.095779	2.785115	0.000000	0.008882	0.000000	0.000003	-0.000000	0.000000	0.000000
46.269930	18.169011	14.890369	0.445763	-0.611028	2.767425	0.000000	-0.073222	0.000000	0.000003	-0.000000	0.000000	0.000000
46.818990	17.384219	15.862413	0.975112	-1.169799	2.704947	0.000000	-0.154028	0.000000	0.000002	-0.000000	0.000000	0.000000
47.368050	16.052720	17.489934	1.435584	-1.811893	2.598787	0.000000	-0.232101	0.000000	0.000002	-0.000000	0.000000	0.000000
47.917110	14.268565	19.888858	1.794653	-2.583043	2.450829	0.000000	-0.306057	0.000000	0.000002	-0.000000	0.000000	0.000000
48.363070	12.879971	22.021839	1.330094	-2.179747	2.329629	0.000000	-0.237771	0.000000	0.000002	-0.000000	0.000000	0.000000
48.804030	11.887097	23.729689	0.930069	-1.678543	2.239239	0.000000	-0.172589	0.000000	0.000002	-0.000000	0.000000	0.000000
49.244990	11.227012	24.960023	0.572536	-1.100966	2.177131	0.000000	-0.109373	0.000000	0.000002	-0.000000	0.000000	0.000000
49.685950	10.869561	25.656861	0.241160	-0.473296	2.142598	0.000000	-0.047403	0.000000	0.000001	-0.000000	0.000000	0.000000
50.128160	10.798544	25.788216	-0.052833	0.112620	2.135258	0.000000	0.008791	0.000000	0.000001	-0.000000	0.000000	0.000000
50.425482	10.838170	25.724719	-0.080443	0.100944	2.137871	0.000000	0.008791	0.000000	0.000001	-0.000000	0.000000	0.000000
50.758816	10.902117	25.661786	-0.111398	0.087854	2.140802	0.000000	0.008791	0.000000	0.000001	-0.000000	0.000000	0.000000
51.092149	10.986700	25.607580	-0.142352	0.074764	2.143732	0.000000	0.008791	0.000000	0.000001	-0.000000	0.000000	0.000000
51.426732	11.092128	25.562465	-0.083436	-0.145750	2.146652	0.000000	-0.008624	0.000000	0.000001	-0.000000	0.000000	0.000000
51.724055	11.149768	25.652666	-0.083085	-0.220535	2.144088	0.000000	-0.013882	0.000000	0.000001	-0.000000	0.000000	0.000000
52.165015	11.368576	25.561806	-0.415006	0.425800	2.151554	0.000000	0.047778	0.000000	0.000001	-0.000000	0.000000	0.000000
52.605975	11.887335	24.907330	-0.765887	1.052761	2.186304	0.000000	0.109982	0.000000	0.000001	-0.000000	0.000000	0.000000
53.046935	12.729744	23.719014	-1.151759	1.631822	2.248733	0.000000	0.173438	0.000000	0.000001	-0.000000	0.000000	0.000000
53.487895	13.934291	22.050927	-1.590251	2.136637	2.339553	0.000000	0.238870	0.000000	0.000001	-0.000000	0.000000	0.000000
53.933855	15.576649	19.954021	-2.105639	2.545570	2.461302	0.000000	0.307421	0.000000	0.000001	-0.000000	0.000000	0.000000
54.482915	17.691063	17.594592	-1.722536	1.777010	2.609914	0.000000	0.233115	0.000000	0.000001	-0.000000	0.000000	0.000000
55.031975	19.315077	16.005094	-1.217762	1.135022	2.716531	0.000000	0.154674	0.000000	0.000001	-0.000000	0.000000	0.000000
55.581035	20.333978	15.072311	-0.626972	0.573879	2.779261	0.000000	0.073489	0.000000	0.000001	-0.000000	0.000000	0.000000
56.130095	20.675797	14.729802	0.008104	0.053613	2.796991	0.000000	-0.008999	0.000000	0.000000	-0.000000	0.000000	0.000000
56.428668	20.707537	14.680909	-0.060388	0.071657	2.796486	0.000000	-0.001691	0.000000	0.000000	-0.000000	0.000000	0.000000
56.762001	20.753181	14.640745	-0.076544	0.048835	2.795923	0.000000	-0.001691	0.000000	0.000000	-0.000000	0.000000	0.000000
57.095334	20.809596	14.615795	-0.092700	0.026013	2.795359	0.000000	-0.001691	0.000000	0.000000	-0.000000	0.000000	0.000000
57.429918	20.877054	14.606052	-0.108917	0.003106	2.794793	0.000000	-0.001691	0.000000	0.000000	-0.000000	0.000000	0.000000
57.727240	20.946105	14.610258	-0.178056	0.020923	2.794291	0.000000	0.005610	0.000000	0.000000	-0.000000	0.000000	0.000000
58.276300	20.784201	14.867938	0.471185	-0.493006	2.774729	0.000000	-0.076761	0.000000	0.000000	-0.000000	0.000000	0.000000
58.825360	19.923491	15.705830	1.087142	-1.042050	2.710248	0.000000	-0.157771	0.000000	0.000000	-0.000000	0.000000	0.000000
59.374420	18.424771	17.183615	1.626310	-1.665318	2.601992	0.000000	-0.235982	0.000000	-0.000000	-0.000000	0.000000	0.000000
59.923480	16.393903	19.406551	2.050603	-2.407202	2.451880	0.000000	-0.310007	0.000000	-0.000000	-0.000000	0.000000	0.000000
60.369440	14.804226	21.382414	1.526639	-2.004680	2.328922	0.000000	-0.241716	0.000000	-0.000000	-0.000000	0.000000	0.000000
60.810400	13.660624	22.939192	1.076637	-1.512315	2.236785	0.000000	-0.176575	0.000000	-0.000000	-0.000000	0.000000	0.000000
61.251360	12.890779	24.029627	0.675824	-0.951141	2.172902	0.000000	-0.113446	0.000000	-0.000000	-0.000000	0.000000	0.000000
61.692320	12.459519	24.604105	0.305888	-0.346691	2.136545	0.000000	-0.051608	0.000000	-0.000000	-0.000000	0.000000	0.000000
62.134530	12.347191	24.635954	-0.019896	0.213065	2.127307	0.000000	0.004425	0.000000	-0.000001	-0.000000	0.000000	0.000000
62.431853	12.366185	24.513008	-0.043986	0.200448	2.128623	0.000000	0.004425	0.000000	-0.000001	-0.000000	0.000000	0.000000
62.765186	12.404511	24.384091	-0.070993	0.186303	2.130098	0.000000	0.004425	0.000000	-0.000001	-0.000000	0.000000	0.000000
63.098520	12.460842	24.264603	-0.098000	0.172159	2.131573	0.000000	0.004425	0.000000	-0.000001	-0.000000	0.000000	0.000000
63.433103	12.535491	24.154150	-0.125109	0.157961	2.133054	0.000000	0.004425	0.000000	-0.000001	-0.000000	0.000000	0.000000
63.730426	12.617049	24.063971	-0.118258	0.086332	2.134370	0.000000	-0.000809	0.000000	-0.000001	-0.000000	0.000000	0.000000
64.171386	12.881931	23.722798	-0.484715	0.684428	2.147556	0.000000	0.060674	0.000000	-0.000001	-0.000000	0.000000	0.000000
64.612346	13.478505	22.865921	-0.873317	1.251384	2.187981	0.000000	0.122848	0.000000	-0.000001	-0.000000	0.000000	0.000000
65.053306	14.434027	21.532329	-1.301818	1.761402	2.256103	0.000000	0.186421	0.000000	-0.000001	-0.000000	0.000000	0.000000
65.494266	15.792153	19.782697	-1.789796	2.191278	2.352701	0.000000	0.252117	0.000000	-0.000001	-0.000000	0.000000	0.000000
65.940226	17.638104	17.671863	-2.364239	2.522211	2.480445	0.000000	0.321087	0.000000	-0.000002	-0.000000	0.000000	0.000000
66.489286	20.004157	15.310399	-1.919533	1.804097	2.636369	0.000000	0.246042	0.000000	-0.000002	-0.000000	0.000000	0.000000
67.038346	21.804074	13.662742	-1.339240	1.214485	2.749827	0.000000	0.166633	0.000000	-0.000002	-0.000000	0.000000	0.000000
67.587406	22.910716	12.611532	-0.664351	0.711378	2.818809	0.000000	0.084268	0.000000	-0.000002	-0.000000	0.000000	0.000000
68.136466	23.245917	12.081895	0.057466	0.258941	2.842089	0.000000	0.000408	0.000000	-0.000002	-0.000000	0.000000	0.000000
68.435038	23.251706	11.916419	-0.016117	0.263712	2.844428	0.000000	0.007834	0.000000	-0.000002	-0.000000	0.000000	0.000000
68.768372	23.267231	11.750584	-0.030457	0.233794	2.847040	0.000000	0.007834	0.000000	-0.000002	-0.000000	0.000000	0.000000
69.101705	23.292315	11.604694	-0.044796	0.203876	2.849651	0.000000	0.007834	0.000000	-0.000002	-0.000000	0.000000	0.000000
69.436288	23.327107	11.478315	-0.059190	0.173846	2.852273	0.000000	0.007834	0.000000	-0.000002	-0.000000	0.000000	0.000000
69.733611	23.366107	11.382873	-0.133033	0.176902	2.854602	0.000000	0.015293	0.000000	-0.000002	-0.000000	0.000000	0.000000
70.282671	23.110903	11.416483	0.595081	-0.238477	2.839806	0.000000	-0.069109	0.000000	-0.000002	-0.000000	0.000000	0.000000
