#ParticleID	Turn	x[m]	xp	y[m]	yp	z[m]	dE[GeV]# s	beta_x	beta_y	alpha_x	alpha_y	D_x	D_y	D_px	D_py	orbit_x	orbit_px	orbit_y	orbit_py
0.300000	11.823665	24.978638	-0.012219	-0.027625	2.618114	0.000000	0.000012	0.000000	-0.000000	0.000001	0.000000	0.000000
0.601250	11.838704	24.998918	-0.037702	-0.039694	2.618117	0.000000	0.000012	0.000000	-0.000000	0.000001	0.000000	0.000000
0.898573	11.868601	25.026064	-0.033747	-0.112977	2.618121	0.000000	-0.006408	0.000000	-0.000000	0.000001	0.000000	0.000000
1.339533	12.050613	24.848116	-0.380584	0.514988	2.631588	0.000000	0.067549	0.000000	0.000000	0.000001	0.000000	0.000000
1.780493	12.544991	24.124610	-0.744809	1.119521	2.677806	0.000000	0.142276	0.000000	0.000000	0.000001	0.000000	0.000000
2.221453	13.374321	22.888463	-1.143062	1.673118	2.757302	0.000000	0.218623	0.000000	0.000001	0.000001	0.000000	0.000000
2.662413	14.576492	21.195921	-1.593539	2.150589	2.870979	0.000000	0.297461	0.000000	0.000001	0.000001	0.000000	0.000000
3.108373	16.227207	19.099168	-2.121115	2.531341	3.021996	0.000000	0.380175	0.000000	0.000001	0.000001	0.000000	0.000000
3.657433	18.343944	16.744269	-1.711266	1.782942	3.205463	0.000000	0.287137	0.000000	0.000002	0.000001	0.000000	0.000000
4.206493	19.941175	15.137060	-1.180541	1.161538	3.336371	0.000000	0.189006	0.000000	0.000002	0.000001	0.000000	0.000000
4.755553	20.906079	14.163064	-0.566430	0.622867	3.412398	0.000000	0.087522	0.000000	0.000002	0.000000	0.000000	0.000000
5.304613	21.170500	13.752905	0.087692	0.128563	3.432196	0.000000	-0.015514	0.000000	0.000002	0.000000	0.000000	0.000000
5.603185	21.155380	13.661334	0.018260	0.142198	3.430241	0.000000	-0.006546	0.000000	0.000002	0.000000	0.000000	0.000000
5.936519	21.148461	13.574833	0.002499	0.117305	3.428059	0.000000	-0.006546	0.000000	0.000003	0.000000	0.000000	0.000000
6.269852	21.152049	13.504927	-0.013263	0.092412	3.425877	0.000000	-0.006546	0.000000	0.000003	0.000000	0.000000	0.000000
6.604435	21.166217	13.451448	-0.029084	0.067426	3.423686	0.000000	-0.006546	0.000000	0.000003	0.000000	0.000000	0.000000
6.901758	21.187692	13.417955	-0.098501	0.080280	3.421740	0.000000	0.002394	0.000000	0.000003	0.000000	0.000000	0.000000
7.450818	20.934713	13.590434	0.556522	-0.396268	3.394853	0.000000	-0.100188	0.000000	0.000003	0.000000	0.000000	0.000000
7.999878	19.979871	14.298554	1.172234	-0.901041	3.312047	0.000000	-0.200994	0.000000	0.000003	0.000000	0.000000	0.000000
8.548938	18.390609	15.592755	1.705146	-1.469993	3.174792	0.000000	-0.298234	0.000000	0.000003	0.000000	0.000000	0.000000
9.097998	16.279185	17.565218	2.117615	-2.143649	2.985522	0.000000	-0.390184	0.000000	0.000003	-0.000000	0.000000	0.000000
9.543958	14.631820	19.322819	1.589493	-1.780858	2.829822	0.000000	-0.308477	0.000000	0.000003	0.000000	0.000000	0.000000
9.984918	13.433525	20.703484	1.138284	-1.338270	2.711043	0.000000	-0.230766	0.000000	0.000003	0.000000	0.000000	0.000000
10.425878	12.608811	21.665379	0.739081	-0.834793	2.625919	0.000000	-0.155684	0.000000	0.000004	0.000000	0.000000	0.000000
10.866838	12.119998	22.164737	0.373644	-0.293332	2.573482	0.000000	-0.082375	0.000000	0.000004	0.000000	0.000000	0.000000
11.309048	11.944618	22.178321	0.054464	0.207028	2.553113	0.000000	-0.016265	0.000000	0.000004	0.000000	0.000000	0.000000
11.606371	11.919655	22.059369	0.029498	0.193048	2.548277	0.000000	-0.016265	0.000000	0.000004	0.000000	0.000000	0.000000
12.086371	11.910683	21.884877	-0.010807	0.170477	2.540469	0.000000	-0.016265	0.000000	0.000004	0.000000	0.000000	0.000000
12.566371	11.940404	21.732053	-0.051111	0.147907	2.532662	0.000000	-0.016265	0.000000	0.000004	0.000000	0.000000	0.000000
13.046371	12.008817	21.600896	-0.091416	0.125337	2.524855	0.000000	-0.016265	0.000000	0.000005	0.000000	0.000000	0.000000
13.526371	12.115922	21.491406	-0.131721	0.102766	2.517047	0.000000	-0.016265	0.000000	0.000005	0.000000	0.000000	0.000000
14.007621	12.262150	21.403384	-0.172130	0.080137	2.509219	0.000000	-0.016265	0.000000	0.000005	0.000000	0.000000	0.000000
14.304943	12.371930	21.359888	-0.166758	0.013778	2.504383	0.000000	-0.022406	0.000000	0.000005	0.000000	0.000000	0.000000
14.745903	12.677639	21.113934	-0.529153	0.541867	2.510135	0.000000	0.048520	0.000000	0.000005	0.000001	0.000000	0.000000
15.186863	13.312364	20.411383	-0.915724	1.045301	2.547254	0.000000	0.119998	0.000000	0.000006	0.000001	0.000000	0.000000
15.627823	14.305105	19.284200	-1.344132	1.501174	2.616164	0.000000	0.192843	0.000000	0.000006	0.000001	0.000000	0.000000
16.068783	15.701215	17.783671	-1.833950	1.888746	2.717648	0.000000	0.267885	0.000000	0.000006	0.000001	0.000000	0.000000
16.514743	17.588135	15.956565	-2.412313	2.191128	2.854558	0.000000	0.346440	0.000000	0.000007	0.000001	0.000000	0.000000
17.063803	20.011470	13.916351	-1.975165	1.546636	3.021042	0.000000	0.259102	0.000000	0.000007	0.000001	0.000000	0.000000
17.612863	21.874846	12.519583	-1.398502	1.012306	3.138238	0.000000	0.167168	0.000000	0.000008	0.000001	0.000000	0.000000
18.161923	23.046646	11.666772	-0.723056	0.550081	3.204068	0.000000	0.072270	0.000000	0.000008	0.000000	0.000000	0.000000
18.710983	23.444099	11.297175	0.003463	0.127038	3.217363	0.000000	-0.023911	0.000000	0.000008	0.000000	0.000000	0.000000
19.009556	23.482421	11.211774	-0.070565	0.129476	3.212734	0.000000	-0.015505	0.000000	0.000008	0.000000	0.000000	0.000000
19.342889	23.534220	11.135533	-0.084831	0.099247	3.207566	0.000000	-0.015505	0.000000	0.000008	0.000000	0.000000	0.000000
19.676223	23.595530	11.079445	-0.099097	0.069018	3.202397	0.000000	-0.015505	0.000000	0.000008	0.000000	0.000000	0.000000
20.010806	23.666926	11.043275	-0.230675	0.093391	3.197229	0.000000	0.000336	0.000000	0.000009	0.000000	0.000000	0.000000
20.308129	23.808030	10.995816	-0.306108	0.094961	3.197329	0.000000	0.008689	0.000000	0.000009	0.000000	0.000000	0.000000
20.857189	23.733550	11.113932	0.440954	-0.311356	3.175878	0.000000	-0.086710	0.000000	0.000009	-0.000000	0.000000	0.000000
21.406249	22.851025	11.687720	1.156869	-0.739849	3.102393	0.000000	-0.180571	0.000000	0.000009	-0.000000	0.000000	0.000000
21.955309	21.222791	12.758047	1.791069	-1.221040	2.978178	0.000000	-0.271230	0.000000	0.000008	-0.000001	0.000000	0.000000
22.504369	18.963859	14.401153	2.298757	-1.789203	2.805434	0.000000	-0.357078	0.000000	0.000008	-0.000001	0.000000	0.000000
22.950329	17.183702	15.876260	1.707076	-1.504556	2.663487	0.000000	-0.279862	0.000000	0.000008	-0.000001	0.000000	0.000000
23.391289	15.907483	17.052307	1.198084	-1.152309	2.556403	0.000000	-0.206289	0.000000	0.000007	-0.000000	0.000000	0.000000
23.832249	15.054414	17.893305	0.743829	-0.747633	2.481212	0.000000	-0.135066	0.000000	0.000007	-0.000000	0.000000	0.000000
24.273209	14.585517	18.360991	0.323558	-0.308940	2.437060	0.000000	-0.065380	0.000000	0.000007	-0.000000	0.000000	0.000000
24.715418	14.479489	18.433839	-0.046513	0.098538	2.423440	0.000000	-0.002382	0.000000	0.000007	0.000000	0.000000	0.000000
25.012741	14.513266	18.380085	-0.067091	0.082252	2.422732	0.000000	-0.002382	0.000000	0.000007	0.000000	0.000000	0.000000
25.346075	14.565684	18.331337	-0.090162	0.063994	2.421938	0.000000	-0.002382	0.000000	0.000007	0.000000	0.000000	0.000000
25.679408	14.633482	18.294760	-0.113233	0.045736	2.421144	0.000000	-0.002382	0.000000	0.000007	0.000000	0.000000	0.000000
26.013991	14.716704	18.270657	-0.016999	-0.120811	2.420322	0.000000	-0.022017	0.000000	0.000007	0.000000	0.000000	0.000000
26.311314	14.732821	18.347406	-0.001081	-0.182312	2.413776	0.000000	-0.027936	0.000000	0.000007	0.000000	0.000000	0.000000
26.752274	14.915305	18.309180	-0.414322	0.268672	2.416569	0.000000	0.040616	0.000000	0.000007	0.000000	0.000000	0.000000
27.193234	15.469173	17.877113	-0.846493	0.707431	2.449663	0.000000	0.109630	0.000000	0.000007	0.000000	0.000000	0.000000
27.634194	16.419730	17.070865	-1.317337	1.114003	2.513436	0.000000	0.179893	0.000000	0.000008	0.000001	0.000000	0.000000
28.075154	17.810403	15.927120	-1.848367	1.469889	2.608615	0.000000	0.252205	0.000000	0.000008	0.000001	0.000000	0.000000
28.521114	19.728894	14.480689	-2.468804	1.759809	2.737885	0.000000	0.327833	0.000000	0.000008	0.000001	0.000000	0.000000
29.070174	22.167308	12.868990	-1.945976	1.192897	2.895218	0.000000	0.244424	0.000000	0.000009	0.000001	0.000000	0.000000
29.619234	23.952255	11.829797	-1.285693	0.710952	3.005495	0.000000	0.156679	0.000000	0.000009	0.000000	0.000000	0.000000
30.168294	24.957654	11.289090	-0.534595	0.279647	3.066760	0.000000	0.066155	0.000000	0.000009	0.000000	0.000000	0.000000
30.717354	25.112489	11.208357	0.254264	-0.131740	3.077926	0.000000	-0.025542	0.000000	0.000009	-0.000000	0.000000	0.000000
31.015927	25.003512	11.277576	0.176342	-0.129375	3.072701	0.000000	-0.017500	0.000000	0.000009	-0.000000	0.000000	0.000000
31.349260	24.890532	11.373843	0.162596	-0.159427	3.066867	0.000000	-0.017500	0.000000	0.000009	-0.000000	0.000000	0.000000
31.682593	24.786717	11.490145	0.148850	-0.189479	3.061034	0.000000	-0.017500	0.000000	0.000009	-0.000000	0.000000	0.000000
32.017177	24.691728	11.627030	0.135052	-0.219643	3.055179	0.000000	-0.017500	0.000000	0.000009	-0.000000	0.000000	0.000000
32.314499	24.615066	11.765610	0.058481	-0.215709	3.049976	0.000000	-0.009532	0.000000	0.000009	-0.000000	0.000000	0.000000
32.863559	24.129149	12.241770	0.821276	-0.656639	3.019857	0.000000	-0.100016	0.000000	0.000009	-0.000000	0.000000	0.000000
33.412619	22.832645	13.224813	1.526060	-1.144339	2.940472	0.000000	-0.188727	0.000000	0.000009	-0.000001	0.000000	0.000000
33.961679	20.817132	14.784756	2.123051	-1.713548	2.813228	0.000000	-0.274090	0.000000	0.000008	-0.000001	0.000000	0.000000
34.510739	18.224976	17.032712	2.570080	-2.404809	2.640382	0.000000	-0.354591	0.000000	0.000008	-0.000001	0.000000	0.000000
34.956699	16.209543	19.043386	1.965427	-2.085007	2.498592	0.000000	-0.281655	0.000000	0.000007	-0.000001	0.000000	0.000000
35.397659	14.706718	20.706000	1.455576	-1.671086	2.389777	0.000000	-0.212356	0.000000	0.000007	-0.000001	0.000000	0.000000
35.838619	13.622629	21.968519	1.012226	-1.181133	2.310958	0.000000	-0.145474	0.000000	0.000006	-0.000001	0.000000	0.000000
36.279579	12.907745	22.773499	0.615122	-0.637438	2.261237	0.000000	-0.080250	0.000000	0.000006	-0.000001	0.000000	0.000000
36.721789	12.528715	23.084618	0.276738	-0.121402	2.240023	0.000000	-0.021432	0.000000	0.000006	-0.000000	0.000000	0.000000
37.019112	12.371750	23.160696	0.251189	-0.134472	2.233651	0.000000	-0.021432	0.000000	0.000006	-0.000000	0.000000	0.000000
37.352445	12.213839	23.255228	0.222546	-0.149124	2.226507	0.000000	-0.021432	0.000000	0.000006	-0.000000	0.000000	0.000000
37.685779	12.075022	23.359528	0.193903	-0.163777	2.219363	0.000000	-0.021432	0.000000	0.000005	-0.000000	0.000000	0.000000
38.020362	11.954889	23.474043	0.165152	-0.178484	2.212192	0.000000	-0.021432	0.000000	0.000005	-0.000000	0.000000	0.000000
38.317684	11.864278	23.584063	0.168697	-0.249386	2.205820	0.000000	-0.026841	0.000000	0.000005	-0.000000	0.000000	0.000000
38.758644	11.866801	23.542791	-0.174440	0.342627	2.207912	0.000000	0.036340	0.000000	0.000005	-0.000000	0.000000	0.000000
39.199604	12.174301	22.984317	-0.525547	0.919050	2.237930	0.000000	0.099936	0.000000	0.000005	-0.000000	0.000000	0.000000
39.640564	12.800826	21.934050	-0.900665	1.453658	2.296215	0.000000	0.164670	0.000000	0.000005	-0.000000	0.000000	0.000000
40.081524	13.775002	20.439779	-1.316931	1.922125	2.383431	0.000000	0.231280	0.000000	0.000005	0.000000	0.000000	0.000000
40.527484	15.158904	18.546922	-1.797190	2.304418	2.502043	0.000000	0.300928	0.000000	0.000005	0.000000	0.000000	0.000000
41.076544	16.925063	16.419886	-1.400465	1.592407	2.646740	0.000000	0.225365	0.000000	0.000005	0.000000	0.000000	0.000000
41.625604	18.198338	15.008225	-0.904818	0.993820	2.748788	0.000000	0.145805	0.000000	0.000005	-0.000000	0.000000	0.000000
42.174664	18.888793	14.211388	-0.345259	0.466021	2.806376	0.000000	0.063658	0.000000	0.000005	-0.000000	0.000000	0.000000
42.723724	18.947656	13.972618	0.238687	-0.028584	2.818485	0.000000	-0.019617	0.000000	0.000005	-0.000000	0.000000	0.000000
43.022297	18.839560	13.974268	0.172860	-0.013447	2.814827	0.000000	-0.012253	0.000000	0.000005	-0.000000	0.000000	0.000000
43.502297	18.686209	14.003668	0.146621	-0.047803	2.808945	0.000000	-0.012253	0.000000	0.000004	-0.000000	0.000000	0.000000
43.982297	18.558048	14.066048	0.120381	-0.082158	2.803064	0.000000	-0.012253	0.000000	0.000004	-0.000000	0.000000	0.000000
44.462297	18.455078	14.161410	0.094141	-0.116513	2.797182	0.000000	-0.012253	0.000000	0.000004	-0.000000	0.000000	0.000000
44.942297	18.377297	14.289753	0.067902	-0.150868	2.791301	0.000000	-0.012253	0.000000	0.000004	-0.000000	0.000000	0.000000
45.423547	18.324829	14.451360	-0.049197	-0.113711	2.785421	0.000000	0.001547	0.000000	0.000004	-0.000000	0.000000	0.000000
45.720870	18.358920	14.525175	-0.113429	-0.096601	2.785882	0.000000	0.008826	0.000000	0.000004	-0.000000	0.000000	0.000000
46.269930	18.174345	14.912230	0.447603	-0.612503	2.768155	0.000000	-0.073302	0.000000	0.000003	-0.000000	0.000000	0.000000
46.818990	17.387484	15.886297	0.977019	-1.172032	2.705626	0.000000	-0.154130	0.000000	0.000003	-0.000001	0.000000	0.000000
47.368050	16.053916	17.516756	1.437423	-1.815042	2.599404	0.000000	-0.232225	0.000000	0.000003	-0.000001	0.000000	0.000000
47.917110	14.267837	19.919741	1.796295	-2.587334	2.451373	0.000000	-0.306200	0.000000	0.000002	-0.000001	0.000000	0.000000
48.363070	12.877845	22.056265	1.331600	-2.183368	2.330113	0.000000	-0.237900	0.000000	0.000002	-0.000001	0.000000	0.000000
48.804030	11.883675	23.766952	0.931511	-1.681331	2.239669	0.000000	-0.172707	0.000000	0.000002	-0.000001	0.000000	0.000000
49.244990	11.222323	24.999331	0.573979	-1.102796	2.177511	0.000000	-0.109480	0.000000	0.000001	-0.000001	0.000000	0.000000
49.685950	10.863574	25.697328	0.242671	-0.474084	2.142933	0.000000	-0.047501	0.000000	0.000001	-0.000001	0.000000	0.000000
50.128160	10.791165	25.828903	-0.051203	0.112810	2.135551	0.000000	0.008701	0.000000	0.000001	-0.000001	0.000000	0.000000
50.425482	10.829826	25.765287	-0.078828	0.101152	2.138138	0.000000	0.008701	0.000000	0.000001	-0.000001	0.000000	0.000000
50.758816	10.892702	25.702209	-0.109798	0.088082	2.141039	0.000000	0.008701	0.000000	0.000000	-0.000001	0.000000	0.000000
51.092149	10.976224	25.647844	-0.140769	0.075013	2.143939	0.000000	0.008701	0.000000	0.000000	-0.000001	0.000000	0.000000
51.426732	11.080599	25.602556	-0.081962	-0.145806	2.146829	0.000000	-0.008716	0.000000	0.000000	-0.000001	0.000000	0.000000
51.724055	11.137369	25.692785	-0.081663	-0.220673	2.144237	0.000000	-0.013974	0.000000	-0.000000	-0.000001	0.000000	0.000000
52.165015	11.354787	25.601579	-0.413264	0.426723	2.151664	0.000000	0.047689	0.000000	-0.000000	-0.000001	0.000000	0.000000
52.605975	11.871840	24.945834	-0.763746	1.054703	2.186375	0.000000	0.109895	0.000000	-0.000001	-0.000001	0.000000	0.000000
53.046935	12.712149	23.755386	-1.149121	1.634695	2.248767	0.000000	0.173353	0.000000	-0.000001	-0.000001	0.000000	0.000000
53.487895	13.914107	22.084401	-1.586996	2.140310	2.339549	0.000000	0.238785	0.000000	-0.000001	-0.000001	0.000000	0.000000
53.933855	15.553229	19.983922	-2.101610	2.549878	2.461260	0.000000	0.307336	0.000000	-0.000001	-0.000001	0.000000	0.000000
54.482915	17.663516	17.620402	-1.719093	1.780197	2.609826	0.000000	0.233031	0.000000	-0.000002	-0.000001	0.000000	0.000000
55.031975	19.284184	16.027913	-1.215147	1.137315	2.716398	0.000000	0.154594	0.000000	-0.000002	-0.000001	0.000000	0.000000
55.581035	20.300756	15.093025	-0.625370	0.575442	2.779085	0.000000	0.073414	0.000000	-0.000002	-0.000000	0.000000	0.000000
56.130095	20.641426	14.749147	0.008581	0.054557	2.796776	0.000000	-0.009068	0.000000	-0.000003	-0.000000	0.000000	0.000000
56.428668	20.672836	14.699652	-0.059847	0.072676	2.796251	0.000000	-0.001760	0.000000	-0.000003	-0.000000	0.000000	0.000000
56.762001	20.718128	14.658801	-0.076029	0.049880	2.795664	0.000000	-0.001760	0.000000	-0.000003	-0.000000	0.000000	0.000000
57.095334	20.774208	14.633146	-0.092211	0.027084	2.795078	0.000000	-0.001760	0.000000	-0.000003	-0.000000	0.000000	0.000000
57.429918	20.841347	14.622678	-0.108454	0.004202	2.794489	0.000000	-0.001760	0.000000	-0.000003	-0.000000	0.000000	0.000000
57.727240	20.910130	14.626225	-0.177523	0.022085	2.793966	0.000000	0.005540	0.000000	-0.000003	-0.000000	0.000000	0.000000
58.276300	20.748307	14.882877	0.470507	-0.492283	2.774369	0.000000	-0.076820	0.000000	-0.000003	-0.000000	0.000000	0.000000
58.825360	19.888987	15.720193	1.085302	-1.041717	2.709859	0.000000	-0.157817	0.000000	-0.000004	-0.000000	0.000000	0.000000
59.374420	18.392870	17.197812	1.623438	-1.665349	2.601581	0.000000	-0.236015	0.000000	-0.000004	-0.000000	0.000000	0.000000
59.923480	16.365633	19.420982	2.046902	-2.407600	2.451455	0.000000	-0.310027	0.000000	-0.000004	0.000000	0.000000	0.000000
60.369440	14.778880	21.396998	1.523761	-2.004624	2.328485	0.000000	-0.241747	0.000000	-0.000004	-0.000000	0.000000	0.000000
60.810400	13.637505	22.953528	1.074445	-1.511811	2.236332	0.000000	-0.176618	0.000000	-0.000004	-0.000000	0.000000	0.000000
61.251360	12.869329	24.043329	0.674218	-0.950212	2.172427	0.000000	-0.113500	0.000000	-0.000004	-0.000000	0.000000	0.000000
61.692320	12.439255	24.616815	0.304793	-0.345379	2.136044	0.000000	-0.051675	0.000000	-0.000004	-0.000000	0.000000	0.000000
62.134530	12.327688	24.647356	-0.020575	0.214670	2.126773	0.000000	0.004346	0.000000	-0.000004	-0.000000	0.000000	0.000000
62.431853	12.347096	24.523455	-0.044703	0.202051	2.128066	0.000000	0.004346	0.000000	-0.000004	-0.000000	0.000000	0.000000
62.765186	12.385916	24.393470	-0.071754	0.187904	2.129514	0.000000	0.004346	0.000000	-0.000004	-0.000000	0.000000	0.000000
63.098520	12.442769	24.272917	-0.098805	0.173756	2.130963	0.000000	0.004346	0.000000	-0.000004	-0.000000	0.000000	0.000000
63.433103	12.517971	24.161396	-0.125957	0.159556	2.132417	0.000000	0.004346	0.000000	-0.000005	-0.000000	0.000000	0.000000
63.730426	12.600044	24.070269	-0.119186	0.087907	2.133710	0.000000	-0.000887	0.000000	-0.000005	-0.000000	0.000000	0.000000
64.171386	12.865581	23.727647	-0.485277	0.686129	2.146858	0.000000	0.060578	0.000000	-0.000005	-0.000001	0.000000	0.000000
64.612346	13.462500	22.869244	-0.873540	1.253133	2.187236	0.000000	0.122734	0.000000	-0.000005	-0.000001	0.000000	0.000000
65.053306	14.418074	21.534117	-1.301712	1.763120	2.255305	0.000000	0.186287	0.000000	-0.000006	-0.000001	0.000000	0.000000
65.494266	15.775960	19.783013	-1.789356	2.192886	2.351838	0.000000	0.251962	0.000000	-0.000006	-0.000001	0.000000	0.000000
65.940226	17.621361	17.670821	-2.363443	2.523634	2.479509	0.000000	0.320908	0.000000	-0.000006	-0.000001	0.000000	0.000000
66.489286	19.986889	15.307888	-1.919377	1.805366	2.635343	0.000000	0.245895	0.000000	-0.000007	-0.000001	0.000000	0.000000
67.038346	21.786993	13.658881	-1.339736	1.215690	2.748731	0.000000	0.166520	0.000000	-0.000007	-0.000001	0.000000	0.000000
67.587406	22.894523	12.606345	-0.665462	0.712604	2.817660	0.000000	0.084192	0.000000	-0.000008	-0.000000	0.000000	0.000000
68.136466	23.231249	12.075310	0.055816	0.260276	2.840910	0.000000	0.000370	0.000000	-0.000008	-0.000000	0.000000	0.000000
68.435038	23.238004	11.909057	-0.017740	0.264997	2.843236	0.000000	0.007793	0.000000	-0.000008	-0.000000	0.000000	0.000000
68.768372	23.254614	11.742378	-0.032088	0.235042	2.845834	0.000000	0.007793	0.000000	-0.000008	-0.000000	0.000000	0.000000
69.101705	23.280789	11.595669	-0.046437	0.205086	2.848432	0.000000	0.007793	0.000000	-0.000008	-0.000000	0.000000	0.000000
69.436288	23.316682	11.468492	-0.060840	0.175018	2.851040	0.000000	0.007793	0.000000	-0.000008	-0.000000	0.000000	0.000000
69.733611	23.356666	11.372363	-0.134669	0.178015	2.853357	0.000000	0.015249	0.000000	-0.000008	-0.000000	0.000000	0.000000
70.282671	23.103416	11.404585	0.593180	-0.237047	2.838548	0.000000	-0.069113	0.000000	-0.000008	0.000000	0.000000	0.000000
