#ParticleID	Turn	x[m]	xp	y[m]	yp	z[m]	dE[GeV]# s	beta_x	beta_y	alpha_x	alpha_y	D_x	D_y	D_px	D_py	orbit_x	orbit_px	orbit_y	orbit_py
0.300000	11.827666	24.963187	-0.012768	-0.027709	2.618193	0.000000	-0.000017	0.000000	-0.000001	0.000000	0.000000	0.000000
0.601250	11.843032	24.983520	-0.038242	-0.039786	2.618187	0.000000	-0.000017	0.000000	-0.000001	0.000000	0.000000	0.000000
0.898573	11.873248	25.010723	-0.034267	-0.113040	2.618182	0.000000	-0.006438	0.000000	-0.000000	0.000000	0.000000	0.000000
1.339533	12.055771	24.833009	-0.381224	0.514521	2.631637	0.000000	0.067521	0.000000	-0.000000	0.000000	0.000000	0.000000
1.780493	12.550776	24.110085	-0.745597	1.118672	2.677843	0.000000	0.142249	0.000000	-0.000000	0.000000	0.000000	0.000000
2.221453	13.380879	22.874843	-1.144035	1.671925	2.757326	0.000000	0.218597	0.000000	0.000000	0.000000	0.000000	0.000000
2.662413	14.584005	21.183485	-1.594741	2.149106	2.870992	0.000000	0.297434	0.000000	0.000000	0.000000	0.000000	0.000000
3.108373	16.235916	19.088160	-2.122603	2.529635	3.021997	0.000000	0.380149	0.000000	0.000000	0.000000	0.000000	0.000000
3.657433	18.354177	16.734890	-1.712536	1.781661	3.205450	0.000000	0.287111	0.000000	0.000000	0.000000	0.000000	0.000000
4.206493	19.952640	15.128897	-1.181503	1.160591	3.336344	0.000000	0.188981	0.000000	0.000001	0.000000	0.000000	0.000000
4.755553	20.918399	14.155788	-0.567015	0.622188	3.412358	0.000000	0.087498	0.000000	0.000001	0.000000	0.000000	0.000000
5.304613	21.183236	13.746252	0.087524	0.128102	3.432143	0.000000	-0.015536	0.000000	0.000001	0.000000	0.000000	0.000000
5.603185	21.168235	13.654969	0.018067	0.141713	3.430181	0.000000	-0.006569	0.000000	0.000001	0.000000	0.000000	0.000000
5.936519	21.161441	13.568794	0.002315	0.116812	3.427992	0.000000	-0.006569	0.000000	0.000001	0.000000	0.000000	0.000000
6.269852	21.165148	13.499220	-0.013437	0.091910	3.425802	0.000000	-0.006569	0.000000	0.000001	0.000000	0.000000	0.000000
6.604435	21.179430	13.446080	-0.029248	0.066916	3.423604	0.000000	-0.006569	0.000000	0.000001	0.000000	0.000000	0.000000
6.901758	21.201000	13.412893	-0.098692	0.079749	3.421651	0.000000	0.002371	0.000000	0.000001	0.000000	0.000000	0.000000
7.450818	20.947986	13.585877	0.556778	-0.396664	3.394752	0.000000	-0.100208	0.000000	0.000001	0.000000	0.000000	0.000000
7.999878	19.992623	14.294372	1.172920	-0.901331	3.311937	0.000000	-0.201010	0.000000	0.000001	0.000000	0.000000	0.000000
8.548938	18.402393	15.588843	1.706212	-1.470198	3.174674	0.000000	-0.298247	0.000000	0.000002	0.000000	0.000000	0.000000
9.097998	16.289622	17.561491	2.118987	-2.143784	2.985398	0.000000	-0.390193	0.000000	0.000002	0.000000	0.000000	0.000000
9.543958	14.641173	19.319275	1.590561	-1.781130	2.829693	0.000000	-0.308489	0.000000	0.000002	0.000000	0.000000	0.000000
9.984918	13.442052	20.700236	1.139099	-1.338667	2.710908	0.000000	-0.230782	0.000000	0.000002	0.000000	0.000000	0.000000
10.425878	12.616717	21.662528	0.739679	-0.835295	2.625777	0.000000	-0.155703	0.000000	0.000002	0.000000	0.000000	0.000000
10.866838	12.127462	22.162368	0.374053	-0.293918	2.573330	0.000000	-0.082398	0.000000	0.000002	0.000000	0.000000	0.000000
11.309048	11.951797	22.176497	0.054721	0.206389	2.552951	0.000000	-0.016291	0.000000	0.000002	0.000000	0.000000	0.000000
11.606371	11.926676	22.057925	0.029769	0.192411	2.548107	0.000000	-0.016291	0.000000	0.000002	0.000000	0.000000	0.000000
12.086371	11.917432	21.884042	-0.010512	0.169845	2.540287	0.000000	-0.016291	0.000000	0.000002	0.000000	0.000000	0.000000
12.566371	11.946859	21.731823	-0.050794	0.147278	2.532467	0.000000	-0.016291	0.000000	0.000002	0.000000	0.000000	0.000000
13.046371	12.014956	21.601268	-0.091075	0.124712	2.524647	0.000000	-0.016291	0.000000	0.000002	0.000000	0.000000	0.000000
13.526371	12.121724	21.492377	-0.131357	0.102145	2.516827	0.000000	-0.016291	0.000000	0.000003	0.000000	0.000000	0.000000
14.007621	12.267591	21.404951	-0.171743	0.079520	2.508986	0.000000	-0.016291	0.000000	0.000003	0.000000	0.000000	0.000000
14.304943	12.377136	21.361821	-0.166343	0.013158	2.504142	0.000000	-0.022432	0.000000	0.000003	0.000000	0.000000	0.000000
14.745903	12.682527	21.116388	-0.528844	0.541312	2.509881	0.000000	0.048487	0.000000	0.000003	0.000000	0.000000	0.000000
15.186863	13.317021	20.414288	-0.915506	1.044837	2.546985	0.000000	0.119959	0.000000	0.000003	0.000000	0.000000	0.000000
15.627823	14.309605	19.287466	-1.343995	1.500823	2.615876	0.000000	0.192797	0.000000	0.000003	0.000000	0.000000	0.000000
16.068783	15.705628	17.787191	-1.833888	1.888523	2.717338	0.000000	0.267831	0.000000	0.000004	0.000001	0.000000	0.000000
16.514743	17.592526	15.960222	-2.412323	2.191045	2.854223	0.000000	0.346378	0.000000	0.000004	0.000001	0.000000	0.000000
17.063803	20.015766	13.920133	-1.974984	1.546489	3.020676	0.000000	0.259051	0.000000	0.000004	0.000001	0.000000	0.000000
17.612863	21.878844	12.523566	-1.398143	1.012086	3.137847	0.000000	0.167130	0.000000	0.000004	0.000000	0.000000	0.000000
18.161923	23.050161	11.671044	-0.722543	0.549772	3.203659	0.000000	0.072244	0.000000	0.000005	0.000000	0.000000	0.000000
18.710983	23.446982	11.301846	0.004094	0.126616	3.216944	0.000000	-0.023923	0.000000	0.000005	0.000000	0.000000	0.000000
19.009556	23.484933	11.216685	-0.069942	0.129083	3.212311	0.000000	-0.015518	0.000000	0.000005	0.000000	0.000000	0.000000
19.342889	23.536316	11.140701	-0.084205	0.098870	3.207138	0.000000	-0.015518	0.000000	0.000005	0.000000	0.000000	0.000000
19.676223	23.597207	11.084859	-0.098468	0.068657	3.201965	0.000000	-0.015518	0.000000	0.000005	0.000000	0.000000	0.000000
20.010806	23.668181	11.048926	-0.230050	0.093074	3.196793	0.000000	0.000320	0.000000	0.000005	0.000000	0.000000	0.000000
20.308129	23.808912	11.001650	-0.305482	0.094675	3.196888	0.000000	0.008673	0.000000	0.000005	0.000000	0.000000	0.000000
20.857189	23.733733	11.120171	0.441595	-0.311811	3.175432	0.000000	-0.086712	0.000000	0.000005	0.000000	0.000000	0.000000
21.406249	22.850516	11.694567	1.157481	-0.740508	3.101950	0.000000	-0.180559	0.000000	0.000005	-0.000000	0.000000	0.000000
21.955309	21.221647	12.765750	1.791608	-1.221949	2.977745	0.000000	-0.271203	0.000000	0.000005	-0.000000	0.000000	0.000000
22.504369	18.962181	14.410020	2.299185	-1.790427	2.805021	0.000000	-0.357037	0.000000	0.000005	-0.000000	0.000000	0.000000
22.950329	17.181646	15.886133	1.707498	-1.505577	2.663089	0.000000	-0.279832	0.000000	0.000004	-0.000000	0.000000	0.000000
23.391289	15.905051	17.062974	1.198520	-1.153082	2.556015	0.000000	-0.206269	0.000000	0.000004	-0.000000	0.000000	0.000000
23.832249	15.051584	17.904532	0.744299	-0.748123	2.480831	0.000000	-0.135056	0.000000	0.000004	-0.000000	0.000000	0.000000
24.273209	14.582251	18.372516	0.324082	-0.309124	2.436681	0.000000	-0.065380	0.000000	0.000004	-0.000000	0.000000	0.000000
24.715418	14.475725	18.445388	-0.045917	0.098638	2.423059	0.000000	-0.002391	0.000000	0.000004	0.000000	0.000000	0.000000
25.012741	14.509149	18.391572	-0.066500	0.082362	2.422348	0.000000	-0.002391	0.000000	0.000004	0.000000	0.000000	0.000000
25.346075	14.561175	18.342747	-0.089576	0.064115	2.421551	0.000000	-0.002391	0.000000	0.000004	0.000000	0.000000	0.000000
25.679408	14.628584	18.306086	-0.112651	0.045868	2.420754	0.000000	-0.002391	0.000000	0.000004	0.000000	0.000000	0.000000
26.013991	14.711418	18.281891	-0.016465	-0.120759	2.419929	0.000000	-0.022023	0.000000	0.000004	0.000000	0.000000	0.000000
26.311314	14.727219	18.358606	-0.000567	-0.182279	2.413381	0.000000	-0.027941	0.000000	0.000004	0.000000	0.000000	0.000000
26.752274	14.909187	18.320216	-0.413662	0.269008	2.416170	0.000000	0.040600	0.000000	0.000004	0.000000	0.000000	0.000000
27.193234	15.462397	17.887725	-0.845656	0.708054	2.449255	0.000000	0.109605	0.000000	0.000004	0.000000	0.000000	0.000000
27.634194	16.412125	17.080811	-1.316286	1.114885	2.513015	0.000000	0.179857	0.000000	0.000005	0.000000	0.000000	0.000000
28.075154	17.801760	15.936188	-1.847054	1.470989	2.608175	0.000000	0.252158	0.000000	0.000005	0.000000	0.000000	0.000000
28.521114	19.718938	14.488697	-2.467166	1.761078	2.737422	0.000000	0.327774	0.000000	0.000005	0.000001	0.000000	0.000000
29.070174	22.155681	12.875776	-1.944589	1.193866	2.894727	0.000000	0.244380	0.000000	0.000005	0.000000	0.000000	0.000000
29.619234	23.939289	11.835652	-1.284657	0.711689	3.004984	0.000000	0.156652	0.000000	0.000005	0.000000	0.000000	0.000000
30.168294	24.943778	11.294238	-0.533982	0.280205	3.066239	0.000000	0.066145	0.000000	0.000006	0.000000	0.000000	0.000000
30.717354	25.098194	11.212971	0.254410	-0.131321	3.077403	0.000000	-0.025536	0.000000	0.000006	-0.000000	0.000000	0.000000
31.015927	24.989110	11.281928	0.176516	-0.128929	3.072180	0.000000	-0.017495	0.000000	0.000006	-0.000000	0.000000	0.000000
31.349260	24.876017	11.377893	0.162761	-0.158966	3.066348	0.000000	-0.017495	0.000000	0.000006	-0.000000	0.000000	0.000000
31.682593	24.772095	11.493882	0.149006	-0.189003	3.060516	0.000000	-0.017495	0.000000	0.000006	-0.000000	0.000000	0.000000
32.017177	24.677005	11.630444	0.135200	-0.219153	3.054663	0.000000	-0.017495	0.000000	0.000005	-0.000000	0.000000	0.000000
32.314499	24.600256	11.768728	0.058658	-0.215196	3.049461	0.000000	-0.009528	0.000000	0.000005	-0.000000	0.000000	0.000000
32.863559	24.114418	12.244362	0.820959	-0.656186	3.019349	0.000000	-0.099996	0.000000	0.000005	-0.000000	0.000000	0.000000
33.412619	22.818524	13.226924	1.525272	-1.143913	2.939980	0.000000	-0.188690	0.000000	0.000005	-0.000000	0.000000	0.000000
33.961679	20.804112	14.786402	2.121848	-1.713120	2.812760	0.000000	-0.274038	0.000000	0.000005	-0.000001	0.000000	0.000000
34.510739	18.213468	17.033872	2.568546	-2.404347	2.639947	0.000000	-0.354524	0.000000	0.000005	-0.000001	0.000000	0.000000
34.956699	16.199246	19.044093	1.964235	-2.084457	2.498184	0.000000	-0.281599	0.000000	0.000004	-0.000001	0.000000	0.000000
35.397659	14.697344	20.706192	1.454668	-1.670473	2.389391	0.000000	-0.212310	0.000000	0.000004	-0.000000	0.000000	0.000000
35.838619	13.613946	21.968153	1.011561	-1.180485	2.310590	0.000000	-0.145438	0.000000	0.000004	-0.000000	0.000000	0.000000
36.279579	12.899554	22.772557	0.614669	-0.636785	2.260883	0.000000	-0.080223	0.000000	0.000004	-0.000000	0.000000	0.000000
36.721789	12.520838	23.083107	0.276458	-0.120770	2.239679	0.000000	-0.021414	0.000000	0.000004	-0.000000	0.000000	0.000000
37.019112	12.364044	23.158808	0.250897	-0.133839	2.233312	0.000000	-0.021414	0.000000	0.000004	-0.000000	0.000000	0.000000
37.352445	12.206332	23.252917	0.222240	-0.148490	2.226174	0.000000	-0.021414	0.000000	0.000003	-0.000000	0.000000	0.000000
37.685779	12.067724	23.356795	0.193583	-0.163141	2.219036	0.000000	-0.021414	0.000000	0.000003	-0.000000	0.000000	0.000000
38.020362	11.947809	23.470884	0.164818	-0.177847	2.211872	0.000000	-0.021414	0.000000	0.000003	-0.000000	0.000000	0.000000
38.317684	11.857401	23.580525	0.168334	-0.248741	2.205505	0.000000	-0.026822	0.000000	0.000003	-0.000000	0.000000	0.000000
38.758644	11.860176	23.538727	-0.174650	0.343170	2.207604	0.000000	0.036352	0.000000	0.000003	-0.000000	0.000000	0.000000
39.199604	12.167797	22.979828	-0.525614	0.919466	2.237625	0.000000	0.099939	0.000000	0.000003	-0.000000	0.000000	0.000000
39.640564	12.794320	21.929259	-0.900592	1.453927	2.295910	0.000000	0.164665	0.000000	0.000003	0.000000	0.000000	0.000000
40.081524	13.768368	20.434819	-1.316714	1.922236	2.383122	0.000000	0.231267	0.000000	0.000003	0.000000	0.000000	0.000000
40.527484	15.152009	18.541936	-1.796819	2.304364	2.501727	0.000000	0.300908	0.000000	0.000003	0.000000	0.000000	0.000000
41.076544	16.917898	16.414896	-1.400348	1.592471	2.646414	0.000000	0.225355	0.000000	0.000003	0.000000	0.000000	0.000000
41.625604	18.191191	15.003098	-0.904964	0.994006	2.748459	0.000000	0.145805	0.000000	0.000003	-0.000000	0.000000	0.000000
42.174664	18.881947	14.205985	-0.345658	0.466342	2.806051	0.000000	0.063669	0.000000	0.000003	-0.000000	0.000000	0.000000
42.723724	18.941375	13.966779	0.238063	-0.028106	2.818169	0.000000	-0.019596	0.000000	0.000003	-0.000000	0.000000	0.000000
43.022297	18.833643	13.968155	0.172251	-0.012993	2.814516	0.000000	-0.012233	0.000000	0.000003	-0.000000	0.000000	0.000000
43.502297	18.680878	13.997125	0.146008	-0.047363	2.808645	0.000000	-0.012233	0.000000	0.000003	-0.000000	0.000000	0.000000
43.982297	18.553307	14.059091	0.119766	-0.081732	2.802773	0.000000	-0.012233	0.000000	0.000003	-0.000000	0.000000	0.000000
44.462297	18.450928	14.154051	0.093523	-0.116102	2.796901	0.000000	-0.012233	0.000000	0.000003	-0.000000	0.000000	0.000000
44.942297	18.373742	14.282007	0.067281	-0.150472	2.791030	0.000000	-0.012233	0.000000	0.000003	-0.000000	0.000000	0.000000
45.423547	18.321874	14.443240	-0.049807	-0.113370	2.785160	0.000000	0.001566	0.000000	0.000003	-0.000000	0.000000	0.000000
45.720870	18.356328	14.516855	-0.114036	-0.096291	2.785626	0.000000	0.008845	0.000000	0.000002	-0.000000	0.000000	0.000000
46.269930	18.172462	14.903429	0.446927	-0.611931	2.767912	0.000000	-0.073276	0.000000	0.000002	-0.000000	0.000000	0.000000
46.818990	17.386360	15.876706	0.976321	-1.171156	2.705399	0.000000	-0.154096	0.000000	0.000002	-0.000000	0.000000	0.000000
47.368050	16.053548	17.506009	1.436752	-1.813801	2.599198	0.000000	-0.232183	0.000000	0.000002	-0.000000	0.000000	0.000000
47.917110	14.268170	19.907390	1.795699	-2.585638	2.451191	0.000000	-0.306152	0.000000	0.000002	-0.000000	0.000000	0.000000
48.363070	12.878687	22.042517	1.331052	-2.181942	2.329951	0.000000	-0.237857	0.000000	0.000002	-0.000000	0.000000	0.000000
48.804030	11.884989	23.752090	0.930985	-1.680239	2.239525	0.000000	-0.172667	0.000000	0.000001	-0.000000	0.000000	0.000000
49.244990	11.224100	24.983671	0.573451	-1.102087	2.177384	0.000000	-0.109445	0.000000	0.000001	-0.000000	0.000000	0.000000
49.685950	10.865826	25.681224	0.242117	-0.473790	2.142821	0.000000	-0.047468	0.000000	0.000001	-0.000000	0.000000	0.000000
50.128160	10.793927	25.812729	-0.051802	0.112714	2.135453	0.000000	0.008731	0.000000	0.000001	-0.000000	0.000000	0.000000
50.425482	10.832943	25.749172	-0.079421	0.101049	2.138049	0.000000	0.008731	0.000000	0.000001	-0.000000	0.000000	0.000000
50.758816	10.896211	25.686165	-0.110385	0.087972	2.140959	0.000000	0.008731	0.000000	0.000001	-0.000000	0.000000	0.000000
51.092149	10.980123	25.631876	-0.141350	0.074894	2.143870	0.000000	0.008731	0.000000	0.000001	-0.000000	0.000000	0.000000
51.426732	11.084884	25.586671	-0.082502	-0.145804	2.146769	0.000000	-0.008685	0.000000	0.000000	-0.000000	0.000000	0.000000
51.724055	11.141973	25.676901	-0.082184	-0.220639	2.144187	0.000000	-0.013943	0.000000	0.000000	-0.000000	0.000000	0.000000
52.165015	11.359901	25.585849	-0.413903	0.426337	2.151627	0.000000	0.047719	0.000000	0.000000	-0.000000	0.000000	0.000000
52.605975	11.877580	24.930623	-0.764533	1.053916	2.186351	0.000000	0.109924	0.000000	0.000000	-0.000000	0.000000	0.000000
53.046935	12.718661	23.741036	-1.150091	1.633541	2.248755	0.000000	0.173381	0.000000	-0.000000	-0.000000	0.000000	0.000000
53.487895	13.921572	22.071211	-1.588194	2.138842	2.339549	0.000000	0.238813	0.000000	-0.000000	-0.000000	0.000000	0.000000
53.933855	15.561886	19.972157	-2.103094	2.548162	2.461273	0.000000	0.307364	0.000000	-0.000000	-0.000000	0.000000	0.000000
54.482915	17.673692	17.610269	-1.720359	1.778924	2.609854	0.000000	0.233059	0.000000	-0.000001	-0.000000	0.000000	0.000000
55.031975	19.295589	16.018977	-1.216107	1.136395	2.716441	0.000000	0.154620	0.000000	-0.000001	-0.000000	0.000000	0.000000
55.581035	20.313015	15.084936	-0.625956	0.574809	2.779143	0.000000	0.073439	0.000000	-0.000001	-0.000000	0.000000	0.000000
56.130095	20.654104	14.741618	0.008410	0.054166	2.796847	0.000000	-0.009045	0.000000	-0.000001	-0.000000	0.000000	0.000000
56.428668	20.685632	14.692372	-0.060041	0.072255	2.796328	0.000000	-0.001737	0.000000	-0.000001	-0.000000	0.000000	0.000000
56.762001	20.731050	14.651804	-0.076214	0.049449	2.795749	0.000000	-0.001737	0.000000	-0.000001	-0.000000	0.000000	0.000000
57.095334	20.787250	14.626439	-0.092386	0.026643	2.795170	0.000000	-0.001737	0.000000	-0.000001	-0.000000	0.000000	0.000000
57.429918	20.854504	14.616270	-0.108619	0.003752	2.794589	0.000000	-0.001737	0.000000	-0.000001	-0.000000	0.000000	0.000000
57.727240	20.923382	14.620087	-0.177714	0.021610	2.794073	0.000000	0.005563	0.000000	-0.000001	-0.000000	0.000000	0.000000
58.276300	20.761523	14.877166	0.470762	-0.492591	2.774488	0.000000	-0.076800	0.000000	-0.000002	-0.000000	0.000000	0.000000
58.825360	19.901686	15.714738	1.085985	-1.041878	2.709987	0.000000	-0.157802	0.000000	-0.000002	-0.000000	0.000000	0.000000
59.374420	18.404605	17.192459	1.624500	-1.665375	2.601717	0.000000	-0.236004	0.000000	-0.000002	-0.000000	0.000000	0.000000
59.923480	16.376027	19.415586	2.048268	-2.407494	2.451596	0.000000	-0.310020	0.000000	-0.000002	-0.000000	0.000000	0.000000
60.369440	14.788194	21.391584	1.524824	-2.004691	2.328629	0.000000	-0.241737	0.000000	-0.000002	-0.000000	0.000000	0.000000
60.810400	13.645996	22.948249	1.075256	-1.512047	2.236482	0.000000	-0.176604	0.000000	-0.000002	-0.000000	0.000000	0.000000
61.251360	12.877202	24.038328	0.674813	-0.950606	2.172584	0.000000	-0.113482	0.000000	-0.000002	-0.000000	0.000000	0.000000
61.692320	12.446688	24.612225	0.305201	-0.345913	2.136210	0.000000	-0.051653	0.000000	-0.000002	-0.000000	0.000000	0.000000
62.134530	12.334836	24.643293	-0.020320	0.214030	2.126950	0.000000	0.004372	0.000000	-0.000002	-0.000000	0.000000	0.000000
62.431853	12.354090	24.519772	-0.044434	0.201412	2.128250	0.000000	0.004372	0.000000	-0.000002	-0.000000	0.000000	0.000000
62.765186	12.392724	24.390213	-0.071469	0.187266	2.129708	0.000000	0.004372	0.000000	-0.000002	-0.000000	0.000000	0.000000
63.098520	12.449382	24.270084	-0.098504	0.173121	2.131165	0.000000	0.004372	0.000000	-0.000002	-0.000000	0.000000	0.000000
63.433103	12.524377	24.158988	-0.125641	0.158921	2.132628	0.000000	0.004372	0.000000	-0.000002	-0.000000	0.000000	0.000000
63.730426	12.606258	24.068237	-0.118840	0.087280	2.133928	0.000000	-0.000861	0.000000	-0.000003	-0.000000	0.000000	0.000000
64.171386	12.871550	23.726187	-0.485065	0.685464	2.147090	0.000000	0.060610	0.000000	-0.000003	-0.000000	0.000000	0.000000
64.612346	13.468337	22.868375	-0.873451	1.252461	2.187483	0.000000	0.122772	0.000000	-0.000003	-0.000000	0.000000	0.000000
65.053306	14.423885	21.533832	-1.301743	1.762471	2.255570	0.000000	0.186332	0.000000	-0.000003	-0.000000	0.000000	0.000000
65.494266	15.781851	19.783278	-1.789507	2.192291	2.352124	0.000000	0.252014	0.000000	-0.000003	-0.000001	0.000000	0.000000
65.940226	17.627443	17.671584	-2.363723	2.523120	2.479819	0.000000	0.320968	0.000000	-0.000004	-0.000001	0.000000	0.000000
66.489286	19.993151	15.309186	-1.919423	1.804900	2.635683	0.000000	0.245944	0.000000	-0.000004	-0.000001	0.000000	0.000000
67.038346	21.793175	13.660680	-1.339545	1.215239	2.749095	0.000000	0.166558	0.000000	-0.000004	-0.000000	0.000000	0.000000
67.587406	22.900371	12.608645	-0.665048	0.712136	2.818042	0.000000	0.084217	0.000000	-0.000004	-0.000000	0.000000	0.000000
68.136466	23.236531	12.078148	0.056425	0.259758	2.841301	0.000000	0.000383	0.000000	-0.000004	-0.000000	0.000000	0.000000
68.435038	23.242930	11.912197	-0.017140	0.264499	2.843632	0.000000	0.007807	0.000000	-0.000004	-0.000000	0.000000	0.000000
68.768372	23.259138	11.745844	-0.031485	0.234559	2.846235	0.000000	0.007807	0.000000	-0.000004	-0.000000	0.000000	0.000000
69.101705	23.284910	11.599452	-0.045831	0.204619	2.848837	0.000000	0.007807	0.000000	-0.000005	-0.000000	0.000000	0.000000
69.436288	23.320396	11.472583	-0.060230	0.174566	2.851449	0.000000	0.007807	0.000000	-0.000005	-0.000000	0.000000	0.000000
69.733611	23.360016	11.376718	-0.134064	0.177587	2.853770	0.000000	0.015264	0.000000	-0.000005	-0.000000	0.000000	0.000000
70.282671	23.106047	11.409478	0.593879	-0.237606	2.838966	0.000000	-0.069112	0.000000	-0.000005	0.000000	0.000000	0.000000
