#ParticleID	Turn	x[m]	xp	y[m]	yp	z[m]	dE[GeV]# s	beta_x	beta_y	alpha_x	alpha_y	D_x	D_y	D_px	D_py	orbit_x	orbit_px	orbit_y	orbit_py
0.300000	11.810971	25.030605	-0.010700	-0.027160	2.618078	0.000000	0.000026	0.000000	-0.000001	0.000001	0.000000	0.000000
0.601250	11.825102	25.050598	-0.036209	-0.039205	2.618085	0.000000	0.000026	0.000000	-0.000001	0.000001	0.000000	0.000000
0.898573	11.854119	25.077445	-0.032315	-0.112589	2.618093	0.000000	-0.006395	0.000000	-0.000000	0.000001	0.000000	0.000000
1.339533	12.034713	24.898556	-0.378785	0.516726	2.631565	0.000000	0.067562	0.000000	0.000000	0.000001	0.000000	0.000000
1.780493	12.527314	24.172948	-0.742561	1.122530	2.677788	0.000000	0.142288	0.000000	0.000001	0.000001	0.000000	0.000000
2.221453	13.354426	22.933637	-1.140263	1.677260	2.757288	0.000000	0.218635	0.000000	0.000002	0.000002	0.000000	0.000000
2.662413	14.553839	21.237009	-1.590060	2.155675	2.870971	0.000000	0.297472	0.000000	0.000002	0.000002	0.000000	0.000000
3.108373	16.201087	19.135380	-2.116790	2.537143	3.021992	0.000000	0.380187	0.000000	0.000003	0.000002	0.000000	0.000000
3.657433	18.313417	16.774922	-1.707611	1.787323	3.205465	0.000000	0.287149	0.000000	0.000004	0.000002	0.000000	0.000000
4.206493	19.907125	15.163536	-1.177816	1.164810	3.336378	0.000000	0.189017	0.000000	0.000005	0.000001	0.000000	0.000000
4.755553	20.869637	14.186445	-0.564825	0.625264	3.412411	0.000000	0.087533	0.000000	0.000006	0.000001	0.000000	0.000000
5.304613	21.132967	13.774054	0.088062	0.130255	3.432214	0.000000	-0.015503	0.000000	0.000006	0.000001	0.000000	0.000000
5.603185	21.117574	13.681434	0.018705	0.143966	3.430262	0.000000	-0.006536	0.000000	0.000007	0.000001	0.000000	0.000000
5.936519	21.110368	13.593746	0.002915	0.119097	3.428083	0.000000	-0.006536	0.000000	0.000007	0.000001	0.000000	0.000000
6.269852	21.113688	13.522637	-0.012875	0.094229	3.425904	0.000000	-0.006536	0.000000	0.000007	0.000001	0.000000	0.000000
6.604435	21.127606	13.467935	-0.028724	0.069266	3.423717	0.000000	-0.006536	0.000000	0.000008	0.000001	0.000000	0.000000
6.901758	21.148875	13.433341	-0.098063	0.082181	3.421773	0.000000	0.002404	0.000000	0.000008	0.000001	0.000000	0.000000
7.450818	20.896132	13.603962	0.555658	-0.394766	3.394891	0.000000	-0.100180	0.000000	0.000008	0.000001	0.000000	0.000000
7.999878	19.942929	14.310603	1.170129	-0.899831	3.312089	0.000000	-0.200987	0.000000	0.000009	0.000001	0.000000	0.000000
8.548938	18.356595	15.603595	1.701949	-1.468989	3.174837	0.000000	-0.298228	0.000000	0.000009	0.000000	0.000000	0.000000
9.097998	16.249180	17.575037	2.113552	-2.142780	2.985570	0.000000	-0.390180	0.000000	0.000009	-0.000000	0.000000	0.000000
9.543958	14.605033	19.331679	1.586316	-1.779583	2.829872	0.000000	-0.308471	0.000000	0.000009	0.000000	0.000000	0.000000
9.984918	13.409206	20.711063	1.135842	-1.336651	2.711096	0.000000	-0.230759	0.000000	0.000009	0.000000	0.000000	0.000000
10.425878	12.586364	21.671403	0.737262	-0.832902	2.625975	0.000000	-0.155676	0.000000	0.000009	0.000001	0.000000	0.000000
10.866838	12.098912	22.169005	0.372364	-0.291256	2.573542	0.000000	-0.082365	0.000000	0.000010	0.000001	0.000000	0.000000
11.309048	11.924448	22.180706	0.053614	0.209192	2.553177	0.000000	-0.016253	0.000000	0.000010	0.000001	0.000000	0.000000
11.606371	11.900001	22.060471	0.028608	0.195201	2.548344	0.000000	-0.016253	0.000000	0.000011	0.000001	0.000000	0.000000
12.086371	11.891915	21.883920	-0.011761	0.172613	2.540542	0.000000	-0.016253	0.000000	0.000011	0.000001	0.000000	0.000000
12.566371	11.922582	21.729053	-0.052130	0.150026	2.532740	0.000000	-0.016253	0.000000	0.000012	0.000001	0.000000	0.000000
13.046371	11.992004	21.595870	-0.092499	0.127439	2.524938	0.000000	-0.016253	0.000000	0.000012	0.000001	0.000000	0.000000
13.526371	12.100181	21.484371	-0.132868	0.104851	2.517136	0.000000	-0.016253	0.000000	0.000013	0.000001	0.000000	0.000000
14.007621	12.247545	21.394351	-0.173343	0.082205	2.509313	0.000000	-0.016253	0.000000	0.000013	0.000001	0.000000	0.000000
14.304943	12.358057	21.349628	-0.168047	0.015865	2.504480	0.000000	-0.022394	0.000000	0.000014	0.000001	0.000000	0.000000
14.745903	12.664778	21.101970	-0.530168	0.543631	2.510238	0.000000	0.048534	0.000000	0.000014	0.000001	0.000000	0.000000
15.186863	13.300295	20.398035	-0.916511	1.046663	2.547363	0.000000	0.120015	0.000000	0.000015	0.000002	0.000000	0.000000
15.627823	14.293643	19.269851	-1.344727	1.502072	2.616281	0.000000	0.192864	0.000000	0.000016	0.000002	0.000000	0.000000
16.068783	15.690204	17.768750	-1.834380	1.889138	2.717774	0.000000	0.267908	0.000000	0.000017	0.000003	0.000000	0.000000
16.514743	17.577442	15.941529	-2.412598	2.190994	2.854695	0.000000	0.346467	0.000000	0.000018	0.000003	0.000000	0.000000
17.063803	20.001370	13.901289	-1.975953	1.546817	3.021191	0.000000	0.259124	0.000000	0.000020	0.000002	0.000000	0.000000
17.612863	21.865864	12.504144	-1.399736	1.012816	3.138397	0.000000	0.167186	0.000000	0.000021	0.000002	0.000000	0.000000
18.161923	23.039226	11.650577	-0.724649	0.550956	3.204234	0.000000	0.072282	0.000000	0.000022	0.000001	0.000000	0.000000
18.710983	23.438574	11.279792	0.001624	0.128339	3.217535	0.000000	-0.023905	0.000000	0.000022	0.000000	0.000000	0.000000
19.009556	23.477984	11.193659	-0.072389	0.130677	3.212907	0.000000	-0.015499	0.000000	0.000022	0.000000	0.000000	0.000000
19.342889	23.531001	11.116637	-0.086661	0.100390	3.207740	0.000000	-0.015499	0.000000	0.000022	0.000000	0.000000	0.000000
19.676223	23.593532	11.059806	-0.100933	0.070102	3.202573	0.000000	-0.015499	0.000000	0.000023	0.000000	0.000000	0.000000
20.010806	23.666160	11.022931	-0.232514	0.094316	3.197407	0.000000	0.000342	0.000000	0.000023	0.000001	0.000000	0.000000
20.308129	23.808360	10.974937	-0.307951	0.095773	3.197509	0.000000	0.008695	0.000000	0.000023	0.000001	0.000000	0.000000
20.857189	23.735890	11.091837	0.439161	-0.309938	3.176060	0.000000	-0.086710	0.000000	0.000023	-0.000000	0.000000	0.000000
21.406249	22.855247	11.663691	1.155254	-0.737725	3.102574	0.000000	-0.180577	0.000000	0.000023	-0.000001	0.000000	0.000000
21.955309	21.228636	12.731233	1.789745	-1.218059	2.978354	0.000000	-0.271241	0.000000	0.000022	-0.000002	0.000000	0.000000
22.504369	18.970954	14.370500	2.297817	-1.785152	2.805603	0.000000	-0.357095	0.000000	0.000021	-0.000002	0.000000	0.000000
22.950329	17.191653	15.842301	1.706086	-1.501220	2.663650	0.000000	-0.279875	0.000000	0.000020	-0.000002	0.000000	0.000000
23.391289	15.916346	17.015777	1.196999	-1.149838	2.556561	0.000000	-0.206298	0.000000	0.000020	-0.000001	0.000000	0.000000
23.832249	15.064293	17.855021	0.742599	-0.746139	2.481368	0.000000	-0.135070	0.000000	0.000019	-0.000001	0.000000	0.000000
24.273209	14.596566	18.321846	0.322126	-0.308491	2.437215	0.000000	-0.065381	0.000000	0.000019	-0.000000	0.000000	0.000000
24.715418	14.491916	18.394769	-0.048184	0.098023	2.423595	0.000000	-0.002378	0.000000	0.000019	0.000000	0.000000	0.000000
25.012741	14.526683	18.341332	-0.068748	0.081704	2.422888	0.000000	-0.002378	0.000000	0.000019	0.000000	0.000000	0.000000
25.346075	14.580200	18.292961	-0.091803	0.063409	2.422095	0.000000	-0.002378	0.000000	0.000019	0.000000	0.000000	0.000000
25.679408	14.649087	18.256787	-0.114858	0.045114	2.421302	0.000000	-0.002378	0.000000	0.000019	0.000000	0.000000	0.000000
26.013991	14.733389	18.233112	-0.018472	-0.121166	2.420482	0.000000	-0.022015	0.000000	0.000019	0.000000	0.000000	0.000000
26.311314	14.750376	18.310082	-0.002493	-0.182606	2.413936	0.000000	-0.027934	0.000000	0.000019	0.000000	0.000000	0.000000
26.752274	14.934300	18.272560	-0.416188	0.267373	2.416731	0.000000	0.040623	0.000000	0.000019	0.000001	0.000000	0.000000
27.193234	15.490043	17.842062	-0.848897	0.705187	2.449830	0.000000	0.109641	0.000000	0.000020	0.000001	0.000000	0.000000
27.634194	16.442997	17.038175	-1.320389	1.110915	2.513608	0.000000	0.179909	0.000000	0.000020	0.000002	0.000000	0.000000
28.075154	17.836698	15.897475	-1.852207	1.466097	2.608794	0.000000	0.252225	0.000000	0.000021	0.000002	0.000000	0.000000
28.521114	19.759033	14.454679	-2.473616	1.755485	2.738074	0.000000	0.327858	0.000000	0.000022	0.000003	0.000000	0.000000
29.070174	22.202333	12.847156	-1.950008	1.189568	2.895418	0.000000	0.244443	0.000000	0.000023	0.000002	0.000000	0.000000
29.619234	23.991148	11.811182	-1.288662	0.708382	3.005703	0.000000	0.156691	0.000000	0.000024	0.000001	0.000000	0.000000
30.168294	24.999124	11.272967	-0.536291	0.277653	3.066972	0.000000	0.066161	0.000000	0.000025	0.000000	0.000000	0.000000
30.717354	25.155064	11.194173	0.253961	-0.133300	3.078140	0.000000	-0.025544	0.000000	0.000025	-0.000000	0.000000	0.000000
31.015927	25.046321	11.264360	0.175959	-0.131018	3.072914	0.000000	-0.017503	0.000000	0.000025	-0.000000	0.000000	0.000000
31.349260	24.933589	11.361739	0.162238	-0.161118	3.067080	0.000000	-0.017503	0.000000	0.000024	-0.000000	0.000000	0.000000
31.682593	24.830003	11.479185	0.148517	-0.191218	3.061246	0.000000	-0.017503	0.000000	0.000024	-0.000000	0.000000	0.000000
32.017177	24.735228	11.617250	0.134745	-0.221431	3.055390	0.000000	-0.017503	0.000000	0.000024	-0.000000	0.000000	0.000000
32.314499	24.658742	11.756906	0.058091	-0.217567	3.050186	0.000000	-0.009535	0.000000	0.000024	-0.000000	0.000000	0.000000
32.863559	24.172455	12.235016	0.822337	-0.658353	3.020064	0.000000	-0.100026	0.000000	0.000024	-0.000001	0.000000	0.000000
33.412619	22.874019	13.219918	1.528497	-1.146032	2.940672	0.000000	-0.188743	0.000000	0.000023	-0.000002	0.000000	0.000000
33.961679	20.855150	14.781764	2.126691	-1.715340	2.813419	0.000000	-0.274112	0.000000	0.000022	-0.000003	0.000000	0.000000
34.510739	18.258449	17.031801	2.574666	-2.406829	2.640560	0.000000	-0.354620	0.000000	0.000020	-0.000003	0.000000	0.000000
34.956699	16.239386	19.044391	1.969006	-2.087265	2.498759	0.000000	-0.281679	0.000000	0.000019	-0.000003	0.000000	0.000000
35.397659	14.733783	20.709063	1.458321	-1.673477	2.389934	0.000000	-0.212375	0.000000	0.000018	-0.000002	0.000000	0.000000
35.838619	13.647593	21.973709	1.014262	-1.183548	2.311108	0.000000	-0.145490	0.000000	0.000017	-0.000002	0.000000	0.000000
36.279579	12.931192	22.780790	0.616541	-0.639767	2.261382	0.000000	-0.080262	0.000000	0.000016	-0.000001	0.000000	0.000000
36.721789	12.551154	23.093891	0.277658	-0.123557	2.240164	0.000000	-0.021441	0.000000	0.000015	-0.000001	0.000000	0.000000
37.019112	12.393633	23.171250	0.252143	-0.136628	2.233789	0.000000	-0.021441	0.000000	0.000015	-0.000001	0.000000	0.000000
37.352445	12.235073	23.267220	0.223537	-0.151282	2.226643	0.000000	-0.021441	0.000000	0.000015	-0.000001	0.000000	0.000000
37.685779	12.095583	23.372959	0.194932	-0.165936	2.219496	0.000000	-0.021441	0.000000	0.000014	-0.000001	0.000000	0.000000
38.020362	11.974748	23.488920	0.166219	-0.180645	2.212323	0.000000	-0.021441	0.000000	0.000014	-0.000001	0.000000	0.000000
38.317684	11.883492	23.600226	0.169842	-0.251584	2.205948	0.000000	-0.026850	0.000000	0.000014	-0.000001	0.000000	0.000000
38.758644	11.885196	23.560696	-0.173721	0.340887	2.208038	0.000000	0.036336	0.000000	0.000013	-0.000001	0.000000	0.000000
39.199604	12.192236	23.003524	-0.525220	0.917849	2.238055	0.000000	0.099935	0.000000	0.000013	-0.000000	0.000000	0.000000
39.640564	12.818641	21.954059	-0.900716	1.453049	2.296340	0.000000	0.164672	0.000000	0.000013	-0.000000	0.000000	0.000000
40.081524	13.793028	20.460052	-1.317362	1.922136	2.383557	0.000000	0.231284	0.000000	0.000013	0.000000	0.000000	0.000000
40.527484	15.177493	18.566906	-1.798023	2.305052	2.502172	0.000000	0.300937	0.000000	0.000013	0.000001	0.000000	0.000000
41.076544	16.944185	16.439458	-1.400596	1.592528	2.646872	0.000000	0.225369	0.000000	0.000013	0.000000	0.000000	0.000000
41.625604	18.217214	15.027940	-0.904238	0.993437	2.748921	0.000000	0.145805	0.000000	0.000013	-0.000000	0.000000	0.000000
42.174664	18.906657	14.231812	-0.344009	0.465105	2.806508	0.000000	0.063654	0.000000	0.000013	-0.000001	0.000000	0.000000
42.723724	18.963817	13.994368	0.240519	-0.030098	2.818614	0.000000	-0.019626	0.000000	0.000013	-0.000001	0.000000	0.000000
43.022297	18.854649	13.996879	0.174657	-0.014873	2.814953	0.000000	-0.012262	0.000000	0.000012	-0.000001	0.000000	0.000000
43.502297	18.699571	14.027621	0.148423	-0.049174	2.809067	0.000000	-0.012262	0.000000	0.000012	-0.000001	0.000000	0.000000
43.982297	18.569678	14.091292	0.122188	-0.083475	2.803182	0.000000	-0.012262	0.000000	0.000011	-0.000001	0.000000	0.000000
44.462297	18.464970	14.187892	0.095954	-0.117776	2.797296	0.000000	-0.012262	0.000000	0.000011	-0.000001	0.000000	0.000000
44.942297	18.385447	14.317421	0.069719	-0.152076	2.791411	0.000000	-0.012262	0.000000	0.000010	-0.000001	0.000000	0.000000
45.423547	18.331227	14.480166	-0.047407	-0.114723	2.785528	0.000000	0.001539	0.000000	0.000010	-0.000001	0.000000	0.000000
45.720870	18.364251	14.554571	-0.111641	-0.097501	2.785985	0.000000	0.008817	0.000000	0.000009	-0.000001	0.000000	0.000000
46.269930	18.177630	14.943111	0.449519	-0.614323	2.768254	0.000000	-0.073314	0.000000	0.000009	-0.000001	0.000000	0.000000
46.818990	17.388657	15.919738	0.978927	-1.174901	2.705718	0.000000	-0.154145	0.000000	0.000008	-0.000002	0.000000	0.000000
47.368050	16.053059	17.554014	1.439189	-1.819165	2.599487	0.000000	-0.232242	0.000000	0.000007	-0.000002	0.000000	0.000000
47.917110	14.265176	19.962344	1.797794	-2.593005	2.451446	0.000000	-0.306220	0.000000	0.000006	-0.000002	0.000000	0.000000
48.363070	12.873893	22.103524	1.333009	-2.188092	2.330178	0.000000	-0.237918	0.000000	0.000005	-0.000002	0.000000	0.000000
48.804030	11.878495	23.817882	0.932896	-1.684898	2.239726	0.000000	-0.172724	0.000000	0.000004	-0.000002	0.000000	0.000000
49.244990	11.215909	25.052833	0.575403	-1.105042	2.177562	0.000000	-0.109496	0.000000	0.000004	-0.000002	0.000000	0.000000
49.685950	10.855863	25.752190	0.244200	-0.474908	2.142978	0.000000	-0.047515	0.000000	0.000003	-0.000002	0.000000	0.000000
50.128160	10.782030	25.883847	-0.049523	0.113312	2.135591	0.000000	0.008687	0.000000	0.000002	-0.000002	0.000000	0.000000
50.425482	10.819698	25.819926	-0.077167	0.101677	2.138174	0.000000	0.008687	0.000000	0.000002	-0.000002	0.000000	0.000000
50.758816	10.881473	25.756489	-0.108158	0.088634	2.141070	0.000000	0.008687	0.000000	0.000001	-0.000002	0.000000	0.000000
51.092149	10.963909	25.701748	-0.139150	0.075590	2.143967	0.000000	0.008687	0.000000	0.000001	-0.000002	0.000000	0.000000
51.426732	11.067207	25.656066	-0.080473	-0.145636	2.146852	0.000000	-0.008729	0.000000	0.000000	-0.000002	0.000000	0.000000
51.724055	11.123099	25.746186	-0.080235	-0.220609	2.144257	0.000000	-0.013988	0.000000	-0.000000	-0.000002	0.000000	0.000000
52.165015	11.339104	25.654299	-0.411475	0.428195	2.151678	0.000000	0.047676	0.000000	-0.000001	-0.000002	0.000000	0.000000
52.605975	11.854389	24.996657	-0.761513	1.057517	2.186384	0.000000	0.109882	0.000000	-0.000002	-0.000002	0.000000	0.000000
53.046935	12.692498	23.803182	-1.146343	1.638722	2.248770	0.000000	0.173340	0.000000	-0.000002	-0.000002	0.000000	0.000000
53.487895	13.891720	22.128176	-1.583546	2.145367	2.339547	0.000000	0.238772	0.000000	-0.000003	-0.000002	0.000000	0.000000
53.933855	15.527404	20.022808	-2.097324	2.555737	2.461253	0.000000	0.307323	0.000000	-0.000004	-0.000002	0.000000	0.000000
54.482915	17.633321	17.653702	-1.715469	1.784571	2.609813	0.000000	0.233019	0.000000	-0.000005	-0.000002	0.000000	0.000000
55.031975	19.250492	16.057078	-1.212441	1.140517	2.716379	0.000000	0.154582	0.000000	-0.000006	-0.000001	0.000000	0.000000
55.581035	20.264687	15.119211	-0.623774	0.577698	2.779060	0.000000	0.073403	0.000000	-0.000006	-0.000001	0.000000	0.000000
56.130095	20.604270	14.773299	0.008955	0.056028	2.796746	0.000000	-0.009078	0.000000	-0.000007	-0.000001	0.000000	0.000000
56.428668	20.635407	14.722879	-0.059404	0.074239	2.796218	0.000000	-0.001770	0.000000	-0.000007	-0.000001	0.000000	0.000000
56.762001	20.680413	14.680975	-0.075614	0.051474	2.795628	0.000000	-0.001770	0.000000	-0.000008	-0.000001	0.000000	0.000000
57.095334	20.736226	14.654247	-0.091825	0.028709	2.795038	0.000000	-0.001770	0.000000	-0.000008	-0.000001	0.000000	0.000000
57.429918	20.803116	14.642682	-0.108096	0.005858	2.794447	0.000000	-0.001770	0.000000	-0.000008	-0.000001	0.000000	0.000000
57.727240	20.871694	14.645236	-0.177093	0.023820	2.793921	0.000000	0.005530	0.000000	-0.000009	-0.000001	0.000000	0.000000
58.276300	20.710107	14.900273	0.469647	-0.491061	2.774319	0.000000	-0.076828	0.000000	-0.000009	-0.000001	0.000000	0.000000
58.825360	19.852415	15.736486	1.083214	-1.040919	2.709805	0.000000	-0.157824	0.000000	-0.000009	-0.000001	0.000000	0.000000
59.374420	18.359202	17.213436	1.620268	-1.664919	2.601524	0.000000	-0.236020	0.000000	-0.000010	-0.000000	0.000000	0.000000
59.923480	16.335940	19.436321	2.042875	-2.407508	2.451396	0.000000	-0.310030	0.000000	-0.000010	0.000000	0.000000	0.000000
60.369440	14.752375	21.412020	1.520612	-2.004006	2.328425	0.000000	-0.241752	0.000000	-0.000010	-0.000000	0.000000	0.000000
60.810400	13.613448	22.967783	1.072023	-1.510698	2.236269	0.000000	-0.176624	0.000000	-0.000010	-0.000000	0.000000	0.000000
61.251360	12.847130	24.056402	0.672411	-0.948655	2.172362	0.000000	-0.113508	0.000000	-0.000010	-0.000001	0.000000	0.000000
61.692320	12.418410	24.628344	0.303520	-0.343449	2.135975	0.000000	-0.051685	0.000000	-0.000010	-0.000001	0.000000	0.000000
62.134530	12.307754	24.657045	-0.021420	0.216858	2.126700	0.000000	0.004334	0.000000	-0.000011	-0.000001	0.000000	0.000000
62.431853	12.327677	24.531846	-0.045589	0.204232	2.127989	0.000000	0.004334	0.000000	-0.000011	-0.000001	0.000000	0.000000
62.765186	12.367102	24.400409	-0.072684	0.190078	2.129434	0.000000	0.004334	0.000000	-0.000012	-0.000001	0.000000	0.000000
63.098520	12.424590	24.278409	-0.099780	0.175923	2.130879	0.000000	0.004334	0.000000	-0.000012	-0.000001	0.000000	0.000000
63.433103	12.500459	24.165440	-0.126977	0.161716	2.132330	0.000000	0.004334	0.000000	-0.000012	-0.000001	0.000000	0.000000
63.730426	12.583151	24.073031	-0.120284	0.090048	2.133619	0.000000	-0.000899	0.000000	-0.000013	-0.000001	0.000000	0.000000
64.171386	12.849496	23.728505	-0.486019	0.688288	2.146762	0.000000	0.060564	0.000000	-0.000013	-0.000001	0.000000	0.000000
64.612346	13.446925	22.868226	-0.873959	1.255211	2.187134	0.000000	0.122717	0.000000	-0.000014	-0.000002	0.000000	0.000000
65.053306	14.402733	21.531337	-1.301827	1.765023	2.255195	0.000000	0.186268	0.000000	-0.000015	-0.000002	0.000000	0.000000
65.494266	15.760589	19.778665	-1.789172	2.194527	2.351720	0.000000	0.251939	0.000000	-0.000016	-0.000003	0.000000	0.000000
65.940226	17.605688	17.665157	-2.362951	2.524935	2.479381	0.000000	0.320883	0.000000	-0.000017	-0.000003	0.000000	0.000000
66.489286	19.971017	15.300831	-1.919512	1.806617	2.635203	0.000000	0.245874	0.000000	-0.000019	-0.000002	0.000000	0.000000
67.038346	21.771611	13.650438	-1.340489	1.216980	2.748581	0.000000	0.166504	0.000000	-0.000020	-0.000002	0.000000	0.000000
67.587406	22.880284	12.596421	-0.666780	0.714026	2.817504	0.000000	0.084180	0.000000	-0.000021	-0.000001	0.000000	0.000000
68.136466	23.218726	12.063707	0.054026	0.261930	2.840748	0.000000	0.000364	0.000000	-0.000021	-0.000000	0.000000	0.000000
68.435038	23.226537	11.896497	-0.019510	0.266575	2.843073	0.000000	0.007787	0.000000	-0.000021	-0.000001	0.000000	0.000000
68.768372	23.244329	11.728784	-0.033867	0.236565	2.845669	0.000000	0.007787	0.000000	-0.000021	-0.000001	0.000000	0.000000
69.101705	23.271693	11.581077	-0.048224	0.206554	2.848265	0.000000	0.007787	0.000000	-0.000022	-0.000001	0.000000	0.000000
69.436288	23.308785	11.452937	-0.062635	0.176431	2.850871	0.000000	0.007787	0.000000	-0.000022	-0.000001	0.000000	0.000000
69.733611	23.349838	11.355982	-0.136461	0.179339	2.853187	0.000000	0.015244	0.000000	-0.000022	-0.000001	0.000000	0.000000
70.282671	23.098663	11.386493	0.591216	-0.235237	2.838376	0.000000	-0.069113	0.000000	-0.000022	0.000000	0.000000	0.000000
