#ParticleID	Turn	x[m]	xp	y[m]	yp	z[m]	dE[GeV]# s	beta_x	beta_y	alpha_x	alpha_y	D_x	D_y	D_px	D_py	orbit_x	orbit_px	orbit_y	orbit_py
0.300000	11.807203	25.045449	-0.010343	-0.026978	2.618155	0.000000	-0.000004	0.000000	-0.000001	0.000002	0.000000	0.000000
0.601250	11.821122	25.065329	-0.035860	-0.039015	2.618153	0.000000	-0.000004	0.000000	-0.000001	0.000002	0.000000	0.000000
0.898573	11.849933	25.092062	-0.031984	-0.112428	2.618151	0.000000	-0.006425	0.000000	-0.000000	0.000002	0.000000	0.000000
1.339533	12.030191	24.912861	-0.378351	0.517270	2.631611	0.000000	0.067534	0.000000	0.000001	0.000002	0.000000	0.000000
1.780493	12.522355	24.186614	-0.742003	1.123432	2.677822	0.000000	0.142261	0.000000	0.000001	0.000002	0.000000	0.000000
2.221453	13.348911	22.946364	-1.139555	1.678479	2.757310	0.000000	0.218608	0.000000	0.000002	0.000002	0.000000	0.000000
2.662413	14.547623	21.248541	-1.589170	2.157156	2.870981	0.000000	0.297446	0.000000	0.000003	0.000002	0.000000	0.000000
3.108373	16.193980	19.145499	-2.115676	2.538818	3.021990	0.000000	0.380161	0.000000	0.000004	0.000002	0.000000	0.000000
3.657433	18.305185	16.783432	-1.706687	1.788595	3.205448	0.000000	0.287123	0.000000	0.000005	0.000002	0.000000	0.000000
4.206493	19.898012	15.170827	-1.177146	1.165770	3.336348	0.000000	0.188992	0.000000	0.000006	0.000002	0.000000	0.000000
4.755553	20.859951	14.192822	-0.564456	0.625980	3.412367	0.000000	0.087509	0.000000	0.000007	0.000001	0.000000	0.000000
5.304613	21.123055	13.779755	0.088103	0.130777	3.432157	0.000000	-0.015526	0.000000	0.000007	0.000001	0.000000	0.000000
5.603185	21.107625	13.686813	0.018766	0.144509	3.430199	0.000000	-0.006559	0.000000	0.000008	0.000001	0.000000	0.000000
5.936519	21.100380	13.598761	0.002968	0.119646	3.428012	0.000000	-0.006559	0.000000	0.000008	0.000001	0.000000	0.000000
6.269852	21.103668	13.527285	-0.012830	0.094783	3.425825	0.000000	-0.006559	0.000000	0.000009	0.000001	0.000000	0.000000
6.604435	21.117558	13.472209	-0.028687	0.069827	3.423631	0.000000	-0.006559	0.000000	0.000009	0.000001	0.000000	0.000000
6.901758	21.138806	13.437281	-0.098005	0.082756	3.421680	0.000000	0.002381	0.000000	0.000009	0.000001	0.000000	0.000000
7.450818	20.886185	13.607328	0.555380	-0.394290	3.394786	0.000000	-0.100200	0.000000	0.000010	0.000001	0.000000	0.000000
7.999878	19.933464	14.313485	1.169535	-0.899421	3.311975	0.000000	-0.201003	0.000000	0.000010	0.000001	0.000000	0.000000
8.548938	18.347938	15.606050	1.701081	-1.468616	3.174715	0.000000	-0.298240	0.000000	0.000011	0.000000	0.000000	0.000000
9.097998	16.241600	17.577090	2.112470	-2.142417	2.985442	0.000000	-0.390188	0.000000	0.000011	-0.000000	0.000000	0.000000
9.543958	14.598312	19.333362	1.585464	-1.779120	2.829740	0.000000	-0.308483	0.000000	0.000011	0.000000	0.000000	0.000000
9.984918	13.403152	20.712301	1.135178	-1.336109	2.710958	0.000000	-0.230774	0.000000	0.000011	0.000000	0.000000	0.000000
10.425878	12.580824	21.672138	0.736755	-0.832306	2.625830	0.000000	-0.155694	0.000000	0.000011	0.000001	0.000000	0.000000
10.866838	12.093758	22.169202	0.371993	-0.290635	2.573387	0.000000	-0.082388	0.000000	0.000012	0.000001	0.000000	0.000000
11.309048	11.919569	22.180351	0.053348	0.209814	2.553011	0.000000	-0.016280	0.000000	0.000012	0.000001	0.000000	0.000000
11.606371	11.895283	22.059748	0.028333	0.195819	2.548171	0.000000	-0.016280	0.000000	0.000012	0.000001	0.000000	0.000000
12.086371	11.887469	21.882606	-0.012052	0.173226	2.540356	0.000000	-0.016280	0.000000	0.000013	0.000001	0.000000	0.000000
12.566371	11.918423	21.727155	-0.052437	0.150632	2.532541	0.000000	-0.016280	0.000000	0.000014	0.000001	0.000000	0.000000
13.046371	11.988147	21.593393	-0.092821	0.128039	2.524726	0.000000	-0.016280	0.000000	0.000014	0.000001	0.000000	0.000000
13.526371	12.096639	21.481320	-0.133206	0.105445	2.516912	0.000000	-0.016280	0.000000	0.000015	0.000001	0.000000	0.000000
14.007621	12.244336	21.390731	-0.173695	0.082793	2.509076	0.000000	-0.016280	0.000000	0.000016	0.000001	0.000000	0.000000
14.304943	12.355060	21.345659	-0.168417	0.016461	2.504236	0.000000	-0.022420	0.000000	0.000016	0.000001	0.000000	0.000000
14.745903	12.662082	21.097527	-0.530482	0.544107	2.509980	0.000000	0.048502	0.000000	0.000017	0.000002	0.000000	0.000000
15.186863	13.297857	20.393233	-0.916784	1.046997	2.547090	0.000000	0.119977	0.000000	0.000018	0.000002	0.000000	0.000000
15.627823	14.291431	19.264823	-1.344970	1.502250	2.615989	0.000000	0.192818	0.000000	0.000019	0.000003	0.000000	0.000000
16.068783	15.688199	17.763638	-1.834605	1.889151	2.717460	0.000000	0.267854	0.000000	0.000020	0.000003	0.000000	0.000000
16.514743	17.575634	15.936480	-2.412816	2.190841	2.854354	0.000000	0.346404	0.000000	0.000021	0.000004	0.000000	0.000000
17.063803	19.999860	13.896342	-1.976275	1.546782	3.020820	0.000000	0.259073	0.000000	0.000023	0.000003	0.000000	0.000000
17.612863	21.864755	12.499171	-1.400139	1.012898	3.138001	0.000000	0.167147	0.000000	0.000025	0.000002	0.000000	0.000000
18.161923	23.038591	11.645449	-0.725105	0.551159	3.203821	0.000000	0.072256	0.000000	0.000026	0.000001	0.000000	0.000000
18.710983	23.438455	11.274367	0.001147	0.128679	3.217111	0.000000	-0.023916	0.000000	0.000026	0.000001	0.000000	0.000000
19.009556	23.478149	11.188045	-0.072865	0.130986	3.212479	0.000000	-0.015512	0.000000	0.000026	0.000001	0.000000	0.000000
19.342889	23.531483	11.110823	-0.087138	0.100681	3.207308	0.000000	-0.015512	0.000000	0.000026	0.000001	0.000000	0.000000
19.676223	23.594332	11.053803	-0.101411	0.070376	3.202137	0.000000	-0.015512	0.000000	0.000027	0.000001	0.000000	0.000000
20.010806	23.667279	11.016751	-0.232998	0.094541	3.196966	0.000000	0.000327	0.000000	0.000027	0.000001	0.000000	0.000000
20.308129	23.809768	10.968628	-0.308439	0.095965	3.197063	0.000000	0.008679	0.000000	0.000027	0.000001	0.000000	0.000000
20.857189	23.737805	11.085220	0.438731	-0.309565	3.175609	0.000000	-0.086712	0.000000	0.000027	-0.000000	0.000000	0.000000
21.406249	22.857589	11.656553	1.154910	-0.737144	3.102126	0.000000	-0.180565	0.000000	0.000027	-0.000001	0.000000	0.000000
21.955309	21.231296	12.723325	1.789513	-1.217229	2.977916	0.000000	-0.271215	0.000000	0.000026	-0.000002	0.000000	0.000000
22.504369	18.973799	14.361518	2.297713	-1.784014	2.805185	0.000000	-0.357054	0.000000	0.000025	-0.000003	0.000000	0.000000
22.950329	17.194609	15.832394	1.705939	-1.500296	2.663247	0.000000	-0.279845	0.000000	0.000024	-0.000002	0.000000	0.000000
23.391289	15.919453	17.005165	1.196802	-1.149168	2.556169	0.000000	-0.206278	0.000000	0.000023	-0.000001	0.000000	0.000000
23.832249	15.067599	17.843942	0.742343	-0.745754	2.480983	0.000000	-0.135060	0.000000	0.000023	-0.000001	0.000000	0.000000
24.273209	14.600128	18.310562	0.321800	-0.308410	2.436832	0.000000	-0.065381	0.000000	0.000022	-0.000000	0.000000	0.000000
24.715418	14.495803	18.383549	-0.048588	0.097826	2.423210	0.000000	-0.002387	0.000000	0.000022	0.000000	0.000000	0.000000
25.012741	14.530808	18.330232	-0.069147	0.081498	2.422500	0.000000	-0.002387	0.000000	0.000022	0.000000	0.000000	0.000000
25.346075	14.584589	18.282002	-0.092196	0.063192	2.421704	0.000000	-0.002387	0.000000	0.000022	0.000000	0.000000	0.000000
25.679408	14.653737	18.245975	-0.115246	0.044887	2.420909	0.000000	-0.002387	0.000000	0.000023	0.000000	0.000000	0.000000
26.013991	14.738298	18.222456	-0.018815	-0.121317	2.420085	0.000000	-0.022021	0.000000	0.000023	0.000000	0.000000	0.000000
26.311314	14.755486	18.299519	-0.002819	-0.182740	2.413538	0.000000	-0.027938	0.000000	0.000023	0.000000	0.000000	0.000000
26.752274	14.939753	18.262242	-0.416643	0.266955	2.416328	0.000000	0.040608	0.000000	0.000023	0.000001	0.000000	0.000000
27.193234	15.495963	17.832231	-0.849503	0.704504	2.449418	0.000000	0.109616	0.000000	0.000023	0.000001	0.000000	0.000000
27.634194	16.449527	17.029051	-1.321174	1.109998	2.513183	0.000000	0.179873	0.000000	0.000024	0.000002	0.000000	0.000000
28.075154	17.844012	15.889247	-1.853206	1.464988	2.608350	0.000000	0.252178	0.000000	0.000025	0.000002	0.000000	0.000000
28.521114	19.767352	14.447508	-2.474876	1.754234	2.737606	0.000000	0.327799	0.000000	0.000026	0.000003	0.000000	0.000000
29.070174	22.211922	12.841197	-1.951048	1.188598	2.894922	0.000000	0.244399	0.000000	0.000028	0.000002	0.000000	0.000000
29.619234	24.001722	11.806167	-1.289407	0.707624	3.005187	0.000000	0.156664	0.000000	0.000028	0.000001	0.000000	0.000000
30.168294	25.010329	11.268693	-0.536688	0.277051	3.066446	0.000000	0.066150	0.000000	0.000029	0.000000	0.000000	0.000000
30.717354	25.166499	11.190495	0.253940	-0.133787	3.077612	0.000000	-0.025537	0.000000	0.000029	-0.000001	0.000000	0.000000
31.015927	25.057784	11.260983	0.175916	-0.131528	3.072388	0.000000	-0.017498	0.000000	0.000029	-0.000000	0.000000	0.000000
31.349260	24.945078	11.358706	0.162202	-0.161641	3.066556	0.000000	-0.017498	0.000000	0.000029	-0.000000	0.000000	0.000000
31.682593	24.841515	11.476504	0.148487	-0.191754	3.060724	0.000000	-0.017498	0.000000	0.000028	-0.000000	0.000000	0.000000
32.017177	24.746758	11.614932	0.134722	-0.221980	3.054869	0.000000	-0.017498	0.000000	0.000028	-0.000000	0.000000	0.000000
32.314499	24.670284	11.754917	0.058045	-0.218133	3.049667	0.000000	-0.009531	0.000000	0.000028	-0.000000	0.000000	0.000000
32.863559	24.183837	12.233633	0.822672	-0.658895	3.019552	0.000000	-0.100006	0.000000	0.000028	-0.000001	0.000000	0.000000
33.412619	22.884833	13.219134	1.529189	-1.146588	2.940176	0.000000	-0.188707	0.000000	0.000027	-0.000002	0.000000	0.000000
33.961679	20.865027	14.781617	2.127692	-1.715950	2.812946	0.000000	-0.274060	0.000000	0.000025	-0.000003	0.000000	0.000000
34.510739	18.267089	17.032373	2.575905	-2.407535	2.640121	0.000000	-0.354553	0.000000	0.000023	-0.000004	0.000000	0.000000
34.956699	16.247043	19.045618	1.969980	-2.088023	2.498347	0.000000	-0.281624	0.000000	0.000022	-0.000003	0.000000	0.000000
35.397659	14.740680	20.710968	1.459075	-1.674251	2.389545	0.000000	-0.212330	0.000000	0.000021	-0.000003	0.000000	0.000000
35.838619	13.653908	21.976291	1.014832	-1.184302	2.310737	0.000000	-0.145454	0.000000	0.000019	-0.000002	0.000000	0.000000
36.279579	12.937075	22.784016	0.616953	-0.640468	2.261025	0.000000	-0.080235	0.000000	0.000019	-0.000002	0.000000	0.000000
36.721789	12.556736	23.097702	0.277944	-0.124180	2.239816	0.000000	-0.021422	0.000000	0.000018	-0.000001	0.000000	0.000000
37.019112	12.399042	23.175431	0.252436	-0.137251	2.233447	0.000000	-0.021422	0.000000	0.000018	-0.000001	0.000000	0.000000
37.352445	12.240284	23.271817	0.223839	-0.151905	2.226307	0.000000	-0.021422	0.000000	0.000017	-0.000001	0.000000	0.000000
37.685779	12.100590	23.377971	0.195242	-0.166559	2.219167	0.000000	-0.021422	0.000000	0.000017	-0.000001	0.000000	0.000000
38.020362	11.979545	23.494349	0.166538	-0.181268	2.212000	0.000000	-0.021422	0.000000	0.000016	-0.000001	0.000000	0.000000
38.317684	11.888098	23.606025	0.170179	-0.252220	2.205631	0.000000	-0.026830	0.000000	0.000016	-0.000001	0.000000	0.000000
38.758644	11.889550	23.566986	-0.173485	0.340414	2.207727	0.000000	0.036347	0.000000	0.000016	-0.000001	0.000000	0.000000
39.199604	12.196423	23.010151	-0.525076	0.917559	2.237747	0.000000	0.099938	0.000000	0.000015	-0.000000	0.000000	0.000000
39.640564	12.822737	21.960855	-0.900655	1.452956	2.296032	0.000000	0.164667	0.000000	0.000015	-0.000000	0.000000	0.000000
40.081524	13.797107	20.466841	-1.317383	1.922245	2.383245	0.000000	0.231272	0.000000	0.000015	0.000000	0.000000	0.000000
40.527484	15.181627	18.573508	-1.798127	2.305359	2.501853	0.000000	0.300916	0.000000	0.000015	0.000001	0.000000	0.000000
41.076544	16.948343	16.445823	-1.400536	1.592655	2.646544	0.000000	0.225359	0.000000	0.000016	0.000000	0.000000	0.000000
41.625604	18.221217	15.034259	-0.904018	0.993393	2.748590	0.000000	0.145805	0.000000	0.000016	-0.000000	0.000000	0.000000
42.174664	18.910338	14.238273	-0.343645	0.464888	2.806180	0.000000	0.063665	0.000000	0.000015	-0.000001	0.000000	0.000000
42.723724	18.967030	14.001170	0.241002	-0.030504	2.818295	0.000000	-0.019605	0.000000	0.000015	-0.000001	0.000000	0.000000
43.022297	18.857579	14.003910	0.175132	-0.015251	2.814640	0.000000	-0.012242	0.000000	0.000014	-0.000001	0.000000	0.000000
43.502297	18.702045	14.035007	0.148897	-0.049535	2.808764	0.000000	-0.012242	0.000000	0.000014	-0.000001	0.000000	0.000000
43.982297	18.571696	14.099018	0.122662	-0.083819	2.802889	0.000000	-0.012242	0.000000	0.000013	-0.000001	0.000000	0.000000
44.462297	18.466533	14.195941	0.096428	-0.118104	2.797013	0.000000	-0.012242	0.000000	0.000013	-0.000001	0.000000	0.000000
44.942297	18.386555	14.325777	0.070193	-0.152388	2.791138	0.000000	-0.012242	0.000000	0.000012	-0.000001	0.000000	0.000000
45.423547	18.331879	14.488812	-0.046936	-0.114975	2.785264	0.000000	0.001558	0.000000	0.000011	-0.000001	0.000000	0.000000
45.720870	18.364622	14.563364	-0.111170	-0.097719	2.785728	0.000000	0.008836	0.000000	0.000011	-0.000001	0.000000	0.000000
46.269930	18.177482	14.952291	0.449990	-0.614814	2.768008	0.000000	-0.073288	0.000000	0.000010	-0.000002	0.000000	0.000000
46.818990	17.388007	15.929622	0.979364	-1.175700	2.705489	0.000000	-0.154111	0.000000	0.000009	-0.000002	0.000000	0.000000
47.368050	16.051963	17.564969	1.439561	-1.820329	2.599280	0.000000	-0.232201	0.000000	0.000008	-0.000002	0.000000	0.000000
47.917110	14.263721	19.974814	1.798074	-2.594616	2.451263	0.000000	-0.306173	0.000000	0.000007	-0.000002	0.000000	0.000000
48.363070	12.872189	22.117311	1.333288	-2.189422	2.330015	0.000000	-0.237875	0.000000	0.000006	-0.000002	0.000000	0.000000
48.804030	11.876541	23.832695	0.933187	-1.685887	2.239582	0.000000	-0.172684	0.000000	0.000005	-0.000002	0.000000	0.000000
49.244990	11.213687	25.068352	0.575720	-1.105646	2.177434	0.000000	-0.109460	0.000000	0.000004	-0.000002	0.000000	0.000000
49.685950	10.853345	25.768059	0.244557	-0.475098	2.142865	0.000000	-0.047483	0.000000	0.000003	-0.000002	0.000000	0.000000
50.128160	10.779172	25.899698	-0.049117	0.113505	2.135492	0.000000	0.008717	0.000000	0.000002	-0.000002	0.000000	0.000000
50.425482	10.816600	25.835660	-0.076767	0.101877	2.138084	0.000000	0.008717	0.000000	0.000002	-0.000002	0.000000	0.000000
50.758816	10.878111	25.772087	-0.107765	0.088841	2.140990	0.000000	0.008717	0.000000	0.000001	-0.000002	0.000000	0.000000
51.092149	10.960287	25.717205	-0.138764	0.075805	2.143897	0.000000	0.008717	0.000000	0.000001	-0.000002	0.000000	0.000000
51.426732	11.063329	25.671377	-0.080125	-0.145538	2.146792	0.000000	-0.008699	0.000000	0.000000	-0.000002	0.000000	0.000000
51.724055	11.119017	25.761437	-0.079905	-0.220541	2.144206	0.000000	-0.013957	0.000000	-0.000000	-0.000002	0.000000	0.000000
52.165015	11.334688	25.669313	-0.411044	0.428664	2.151641	0.000000	0.047705	0.000000	-0.000001	-0.000002	0.000000	0.000000
52.605975	11.849542	25.011087	-0.760962	1.058366	2.186360	0.000000	0.109911	0.000000	-0.000002	-0.000002	0.000000	0.000000
53.046935	12.687101	23.816709	-1.145646	1.639913	2.248759	0.000000	0.173368	0.000000	-0.000003	-0.000002	0.000000	0.000000
53.487895	13.885632	22.140522	-1.582671	2.146845	2.339548	0.000000	0.238801	0.000000	-0.000004	-0.000002	0.000000	0.000000
53.933855	15.520441	20.033731	-2.096229	2.557436	2.461267	0.000000	0.307351	0.000000	-0.000004	-0.000002	0.000000	0.000000
54.482915	17.625251	17.663002	-1.714559	1.785847	2.609842	0.000000	0.233047	0.000000	-0.000006	-0.000002	0.000000	0.000000
55.031975	19.241555	16.065166	-1.211782	1.141461	2.716423	0.000000	0.154608	0.000000	-0.000007	-0.000002	0.000000	0.000000
55.581035	20.255185	15.126413	-0.623410	0.578378	2.779119	0.000000	0.073428	0.000000	-0.000007	-0.000001	0.000000	0.000000
56.130095	20.594544	14.779877	0.008996	0.056491	2.796817	0.000000	-0.009055	0.000000	-0.000008	-0.000001	0.000000	0.000000
56.428668	20.625644	14.729168	-0.059344	0.074727	2.796296	0.000000	-0.001747	0.000000	-0.000009	-0.000001	0.000000	0.000000
56.762001	20.670612	14.686936	-0.075562	0.051970	2.795714	0.000000	-0.001747	0.000000	-0.000009	-0.000001	0.000000	0.000000
57.095334	20.726393	14.659875	-0.091780	0.029213	2.795132	0.000000	-0.001747	0.000000	-0.000009	-0.000001	0.000000	0.000000
57.429918	20.793256	14.647970	-0.108059	0.006370	2.794548	0.000000	-0.001747	0.000000	-0.000010	-0.000001	0.000000	0.000000
57.727240	20.861814	14.650217	-0.177038	0.024353	2.794029	0.000000	0.005554	0.000000	-0.000010	-0.000001	0.000000	0.000000
58.276300	20.700349	14.904745	0.469373	-0.490660	2.774439	0.000000	-0.076808	0.000000	-0.000011	-0.000001	0.000000	0.000000
58.825360	19.843132	15.740576	1.082629	-1.040621	2.709935	0.000000	-0.157808	0.000000	-0.000011	-0.000001	0.000000	0.000000
59.374420	18.350714	17.217244	1.619414	-1.664703	2.601662	0.000000	-0.236009	0.000000	-0.000011	-0.000000	0.000000	0.000000
59.923480	16.328512	19.439929	2.041811	-2.407358	2.451538	0.000000	-0.310023	0.000000	-0.000011	0.000000	0.000000	0.000000
60.369440	14.745793	21.415433	1.519773	-2.003720	2.328571	0.000000	-0.241741	0.000000	-0.000011	-0.000000	0.000000	0.000000
60.810400	13.607522	22.970891	1.071368	-1.510292	2.236420	0.000000	-0.176610	0.000000	-0.000012	-0.000000	0.000000	0.000000
61.251360	12.841711	24.059104	0.671911	-0.948146	2.172520	0.000000	-0.113490	0.000000	-0.000012	-0.000001	0.000000	0.000000
61.692320	12.413373	24.630561	0.303151	-0.342861	2.136143	0.000000	-0.051662	0.000000	-0.000012	-0.000001	0.000000	0.000000
62.134530	12.302991	24.658717	-0.021686	0.217493	2.126879	0.000000	0.004361	0.000000	-0.000013	-0.000001	0.000000	0.000000
62.431853	12.323075	24.533141	-0.045864	0.204865	2.128176	0.000000	0.004361	0.000000	-0.000013	-0.000001	0.000000	0.000000
62.765186	12.362686	24.401283	-0.072970	0.190708	2.129630	0.000000	0.004361	0.000000	-0.000014	-0.000001	0.000000	0.000000
63.098520	12.420368	24.278864	-0.100076	0.176550	2.131084	0.000000	0.004361	0.000000	-0.000014	-0.000001	0.000000	0.000000
63.433103	12.496440	24.165477	-0.127285	0.162340	2.132543	0.000000	0.004361	0.000000	-0.000015	-0.000001	0.000000	0.000000
63.730426	12.579317	24.072697	-0.120610	0.090670	2.133840	0.000000	-0.000873	0.000000	-0.000015	-0.000001	0.000000	0.000000
64.171386	12.845914	23.727631	-0.486266	0.688884	2.146996	0.000000	0.060596	0.000000	-0.000016	-0.000002	0.000000	0.000000
64.612346	13.443531	22.866848	-0.874139	1.255755	2.187383	0.000000	0.122755	0.000000	-0.000016	-0.000002	0.000000	0.000000
65.053306	14.399471	21.529511	-1.301948	1.765490	2.255463	0.000000	0.186312	0.000000	-0.000017	-0.000003	0.000000	0.000000
65.494266	15.757408	19.776469	-1.789240	2.194896	2.352009	0.000000	0.251991	0.000000	-0.000019	-0.000003	0.000000	0.000000
65.940226	17.602544	17.662682	-2.362967	2.525188	2.479694	0.000000	0.320942	0.000000	-0.000020	-0.000004	0.000000	0.000000
66.489286	19.967968	15.298072	-1.919667	1.806887	2.635547	0.000000	0.245923	0.000000	-0.000022	-0.000003	0.000000	0.000000
67.038346	21.768804	13.647363	-1.340772	1.217286	2.748949	0.000000	0.166541	0.000000	-0.000023	-0.000002	0.000000	0.000000
67.587406	22.877848	12.592981	-0.667171	0.714391	2.817888	0.000000	0.084205	0.000000	-0.000024	-0.000001	0.000000	0.000000
68.136466	23.216766	12.059823	0.053556	0.262379	2.841143	0.000000	0.000376	0.000000	-0.000025	-0.000001	0.000000	0.000000
68.435038	23.224856	11.892355	-0.019979	0.267000	2.843473	0.000000	0.007801	0.000000	-0.000025	-0.000001	0.000000	0.000000
68.768372	23.242961	11.724364	-0.034337	0.236972	2.846073	0.000000	0.007801	0.000000	-0.000025	-0.000001	0.000000	0.000000
69.101705	23.270639	11.576392	-0.048695	0.206945	2.848674	0.000000	0.007801	0.000000	-0.000025	-0.000001	0.000000	0.000000
69.436288	23.308046	11.447996	-0.063107	0.176805	2.851284	0.000000	0.007801	0.000000	-0.000026	-0.000001	0.000000	0.000000
69.733611	23.349380	11.350823	-0.136935	0.179685	2.853604	0.000000	0.015259	0.000000	-0.000026	-0.000001	0.000000	0.000000
70.282671	23.098731	11.380873	0.590740	-0.234739	2.838798	0.000000	-0.069111	0.000000	-0.000026	0.000000	0.000000	0.000000
