#ParticleID	Turn	x[m]	xp	y[m]	yp	z[m]	dE[GeV]# s	beta_x	beta_y	alpha_x	alpha_y	D_x	D_y	D_px	D_py	orbit_x	orbit_px	orbit_y	orbit_py
0.300000	11.827437	24.964043	-0.012736	-0.027705	2.618188	0.000000	-0.000016	0.000000	-0.000001	0.000000	0.000000	0.000000
0.601250	11.842785	24.984373	-0.038211	-0.039782	2.618183	0.000000	-0.000016	0.000000	-0.000001	0.000000	0.000000	0.000000
0.898573	11.872982	25.011573	-0.034237	-0.113037	2.618179	0.000000	-0.006436	0.000000	-0.000000	0.000000	0.000000	0.000000
1.339533	12.055475	24.833847	-0.381187	0.514547	2.631634	0.000000	0.067523	0.000000	-0.000000	0.000000	0.000000	0.000000
1.780493	12.550444	24.110892	-0.745552	1.118719	2.677841	0.000000	0.142251	0.000000	-0.000000	0.000000	0.000000	0.000000
2.221453	13.380502	22.875600	-1.143979	1.671990	2.757325	0.000000	0.218598	0.000000	-0.000000	0.000000	0.000000	0.000000
2.662413	14.583574	21.184177	-1.594671	2.149187	2.870992	0.000000	0.297436	0.000000	0.000000	0.000000	0.000000	0.000000
3.108373	16.235415	19.088773	-2.122517	2.529729	3.021998	0.000000	0.380151	0.000000	0.000000	0.000000	0.000000	0.000000
3.657433	18.353588	16.735414	-1.712462	1.781732	3.205452	0.000000	0.287113	0.000000	0.000000	0.000000	0.000000	0.000000
4.206493	19.951980	15.129353	-1.181448	1.160643	3.336347	0.000000	0.188983	0.000000	0.000001	0.000000	0.000000	0.000000
4.755553	20.917690	14.156196	-0.566981	0.622225	3.412361	0.000000	0.087500	0.000000	0.000001	0.000000	0.000000	0.000000
5.304613	21.182503	13.746625	0.087534	0.128126	3.432147	0.000000	-0.015535	0.000000	0.000001	0.000000	0.000000	0.000000
5.603185	21.167495	13.655327	0.018078	0.141739	3.430186	0.000000	-0.006567	0.000000	0.000001	0.000000	0.000000	0.000000
5.936519	21.160693	13.569134	0.002326	0.116838	3.427997	0.000000	-0.006567	0.000000	0.000001	0.000000	0.000000	0.000000
6.269852	21.164394	13.499542	-0.013427	0.091938	3.425807	0.000000	-0.006567	0.000000	0.000001	0.000000	0.000000	0.000000
6.604435	21.178669	13.446384	-0.029238	0.066943	3.423610	0.000000	-0.006567	0.000000	0.000001	0.000000	0.000000	0.000000
6.901758	21.200233	13.413180	-0.098681	0.079778	3.421657	0.000000	0.002373	0.000000	0.000001	0.000000	0.000000	0.000000
7.450818	20.947220	13.586137	0.556763	-0.396643	3.394759	0.000000	-0.100207	0.000000	0.000001	0.000000	0.000000	0.000000
7.999878	19.991887	14.294612	1.172880	-0.901316	3.311944	0.000000	-0.201009	0.000000	0.000001	0.000000	0.000000	0.000000
8.548938	18.401713	15.589069	1.706151	-1.470188	3.174682	0.000000	-0.298246	0.000000	0.000002	0.000000	0.000000	0.000000
9.097998	16.289020	17.561708	2.118908	-2.143778	2.985406	0.000000	-0.390193	0.000000	0.000002	0.000000	0.000000	0.000000
9.543958	14.640634	19.319483	1.590499	-1.781117	2.829702	0.000000	-0.308488	0.000000	0.000002	0.000000	0.000000	0.000000
9.984918	13.441560	20.700429	1.139052	-1.338646	2.710917	0.000000	-0.230781	0.000000	0.000002	0.000000	0.000000	0.000000
10.425878	12.616261	21.662700	0.739645	-0.835268	2.625787	0.000000	-0.155702	0.000000	0.000002	0.000000	0.000000	0.000000
10.866838	12.127031	22.162514	0.374030	-0.293886	2.573341	0.000000	-0.082396	0.000000	0.000002	0.000000	0.000000	0.000000
11.309048	11.951382	22.176613	0.054706	0.206425	2.552961	0.000000	-0.016290	0.000000	0.000002	0.000000	0.000000	0.000000
11.606371	11.926270	22.058020	0.029754	0.192446	2.548118	0.000000	-0.016290	0.000000	0.000002	0.000000	0.000000	0.000000
12.086371	11.917042	21.884104	-0.010529	0.169880	2.540299	0.000000	-0.016290	0.000000	0.000002	0.000000	0.000000	0.000000
12.566371	11.946486	21.731851	-0.050812	0.147313	2.532480	0.000000	-0.016290	0.000000	0.000002	0.000000	0.000000	0.000000
13.046371	12.014601	21.601263	-0.091095	0.124746	2.524660	0.000000	-0.016290	0.000000	0.000002	0.000000	0.000000	0.000000
13.526371	12.121388	21.492339	-0.131378	0.102179	2.516841	0.000000	-0.016290	0.000000	0.000003	0.000000	0.000000	0.000000
14.007621	12.267276	21.404879	-0.171766	0.079554	2.509002	0.000000	-0.016290	0.000000	0.000003	0.000000	0.000000	0.000000
14.304943	12.376834	21.361729	-0.166367	0.013192	2.504158	0.000000	-0.022431	0.000000	0.000003	0.000000	0.000000	0.000000
14.745903	12.682243	21.116267	-0.528862	0.541343	2.509898	0.000000	0.048489	0.000000	0.000003	0.000000	0.000000	0.000000
15.186863	13.316750	20.414142	-0.915519	1.044864	2.547003	0.000000	0.119962	0.000000	0.000003	0.000000	0.000000	0.000000
15.627823	14.309343	19.287299	-1.344003	1.500844	2.615895	0.000000	0.192800	0.000000	0.000003	0.000000	0.000000	0.000000
16.068783	15.705372	17.787008	-1.833891	1.888537	2.717358	0.000000	0.267834	0.000000	0.000003	0.000001	0.000000	0.000000
16.514743	17.592270	15.960031	-2.412322	2.191051	2.854245	0.000000	0.346382	0.000000	0.000004	0.000001	0.000000	0.000000
17.063803	20.015515	13.919934	-1.974994	1.546498	3.020700	0.000000	0.259054	0.000000	0.000004	0.000001	0.000000	0.000000
17.612863	21.878609	12.523354	-1.398163	1.012099	3.137873	0.000000	0.167132	0.000000	0.000004	0.000000	0.000000	0.000000
18.161923	23.049954	11.670816	-0.722572	0.549789	3.203686	0.000000	0.072246	0.000000	0.000005	0.000000	0.000000	0.000000
18.710983	23.446811	11.301595	0.004057	0.126640	3.216972	0.000000	-0.023922	0.000000	0.000005	0.000000	0.000000	0.000000
19.009556	23.484784	11.216420	-0.069978	0.129105	3.212338	0.000000	-0.015517	0.000000	0.000005	0.000000	0.000000	0.000000
19.342889	23.536191	11.140422	-0.084241	0.098891	3.207166	0.000000	-0.015517	0.000000	0.000005	0.000000	0.000000	0.000000
19.676223	23.597106	11.084565	-0.098504	0.068677	3.201993	0.000000	-0.015517	0.000000	0.000005	0.000000	0.000000	0.000000
20.010806	23.668105	11.048619	-0.230086	0.093092	3.196821	0.000000	0.000321	0.000000	0.000005	0.000000	0.000000	0.000000
20.308129	23.808857	11.001332	-0.305519	0.094692	3.196917	0.000000	0.008674	0.000000	0.000005	0.000000	0.000000	0.000000
20.857189	23.733719	11.119830	0.441558	-0.311786	3.175461	0.000000	-0.086712	0.000000	0.000005	0.000000	0.000000	0.000000
21.406249	22.850542	11.694192	1.157445	-0.740471	3.101979	0.000000	-0.180560	0.000000	0.000005	-0.000000	0.000000	0.000000
21.955309	21.221710	12.765328	1.791576	-1.221898	2.977774	0.000000	-0.271205	0.000000	0.000005	-0.000000	0.000000	0.000000
22.504369	18.962275	14.409533	2.299159	-1.790359	2.805048	0.000000	-0.357040	0.000000	0.000005	-0.000000	0.000000	0.000000
22.950329	17.181763	15.885590	1.707474	-1.505520	2.663115	0.000000	-0.279834	0.000000	0.000004	-0.000000	0.000000	0.000000
23.391289	15.905190	17.062386	1.198494	-1.153039	2.556040	0.000000	-0.206271	0.000000	0.000004	-0.000000	0.000000	0.000000
23.832249	15.051745	17.903913	0.744271	-0.748095	2.480856	0.000000	-0.135056	0.000000	0.000004	-0.000000	0.000000	0.000000
24.273209	14.582438	18.371880	0.324052	-0.309113	2.436706	0.000000	-0.065380	0.000000	0.000004	-0.000000	0.000000	0.000000
24.715418	14.475941	18.444750	-0.045952	0.098633	2.423084	0.000000	-0.002391	0.000000	0.000004	0.000000	0.000000	0.000000
25.012741	14.509386	18.390937	-0.066534	0.082357	2.422373	0.000000	-0.002391	0.000000	0.000004	0.000000	0.000000	0.000000
25.346075	14.561434	18.342115	-0.089610	0.064109	2.421576	0.000000	-0.002391	0.000000	0.000004	0.000000	0.000000	0.000000
25.679408	14.628866	18.305458	-0.112685	0.045861	2.420779	0.000000	-0.002391	0.000000	0.000004	0.000000	0.000000	0.000000
26.013991	14.711722	18.281268	-0.016496	-0.120761	2.419955	0.000000	-0.022023	0.000000	0.000004	0.000000	0.000000	0.000000
26.311314	14.727542	18.357985	-0.000596	-0.182280	2.413407	0.000000	-0.027941	0.000000	0.000004	0.000000	0.000000	0.000000
26.752274	14.909539	18.319603	-0.413700	0.268990	2.416196	0.000000	0.040601	0.000000	0.000004	0.000000	0.000000	0.000000
27.193234	15.462788	17.887135	-0.845705	0.708020	2.449282	0.000000	0.109606	0.000000	0.000004	0.000000	0.000000	0.000000
27.634194	16.412563	17.080258	-1.316347	1.114837	2.513042	0.000000	0.179859	0.000000	0.000005	0.000000	0.000000	0.000000
28.075154	17.802258	15.935683	-1.847130	1.470929	2.608203	0.000000	0.252161	0.000000	0.000005	0.000000	0.000000	0.000000
28.521114	19.719512	14.488250	-2.467260	1.761008	2.737452	0.000000	0.327778	0.000000	0.000005	0.000001	0.000000	0.000000
29.070174	22.156352	12.875397	-1.944669	1.193812	2.894759	0.000000	0.244383	0.000000	0.000005	0.000000	0.000000	0.000000
29.619234	23.940038	11.835324	-1.284717	0.711649	3.005017	0.000000	0.156654	0.000000	0.000005	0.000000	0.000000	0.000000
30.168294	24.944578	11.293949	-0.534018	0.280175	3.066272	0.000000	0.066145	0.000000	0.000006	0.000000	0.000000	0.000000
30.717354	25.099019	11.212711	0.254401	-0.131343	3.077437	0.000000	-0.025536	0.000000	0.000006	-0.000000	0.000000	0.000000
31.015927	24.989941	11.281682	0.176505	-0.128953	3.072214	0.000000	-0.017496	0.000000	0.000006	-0.000000	0.000000	0.000000
31.349260	24.876856	11.377663	0.162751	-0.158991	3.066382	0.000000	-0.017496	0.000000	0.000006	-0.000000	0.000000	0.000000
31.682593	24.772940	11.493670	0.148997	-0.189029	3.060550	0.000000	-0.017496	0.000000	0.000006	-0.000000	0.000000	0.000000
32.017177	24.677855	11.630249	0.135191	-0.219179	3.054696	0.000000	-0.017496	0.000000	0.000005	-0.000000	0.000000	0.000000
32.314499	24.601112	11.768549	0.058647	-0.215224	3.049494	0.000000	-0.009528	0.000000	0.000005	-0.000000	0.000000	0.000000
32.863559	24.115269	12.244211	0.820977	-0.656210	3.019382	0.000000	-0.099997	0.000000	0.000005	-0.000000	0.000000	0.000000
33.412619	22.819341	13.226799	1.525318	-1.143936	2.940012	0.000000	-0.188693	0.000000	0.000005	-0.000000	0.000000	0.000000
33.961679	20.804865	14.786301	2.121917	-1.713142	2.812790	0.000000	-0.274041	0.000000	0.000005	-0.000001	0.000000	0.000000
34.510739	18.214134	17.033797	2.568635	-2.404371	2.639975	0.000000	-0.354529	0.000000	0.000005	-0.000001	0.000000	0.000000
34.956699	16.199842	19.044041	1.964303	-2.084486	2.498211	0.000000	-0.281603	0.000000	0.000004	-0.000001	0.000000	0.000000
35.397659	14.697887	20.706167	1.454720	-1.670506	2.389416	0.000000	-0.212313	0.000000	0.000004	-0.000000	0.000000	0.000000
35.838619	13.614449	21.968158	1.011599	-1.180519	2.310613	0.000000	-0.145441	0.000000	0.000004	-0.000000	0.000000	0.000000
36.279579	12.900029	22.772593	0.614695	-0.636820	2.260906	0.000000	-0.080225	0.000000	0.000004	-0.000000	0.000000	0.000000
36.721789	12.521295	23.083174	0.276474	-0.120805	2.239701	0.000000	-0.021415	0.000000	0.000004	-0.000000	0.000000	0.000000
37.019112	12.364491	23.158896	0.250913	-0.133874	2.233334	0.000000	-0.021415	0.000000	0.000004	-0.000000	0.000000	0.000000
37.352445	12.206768	23.253029	0.222257	-0.148525	2.226196	0.000000	-0.021415	0.000000	0.000003	-0.000000	0.000000	0.000000
37.685779	12.068148	23.356929	0.193601	-0.163176	2.219057	0.000000	-0.021415	0.000000	0.000003	-0.000000	0.000000	0.000000
38.020362	11.948221	23.471042	0.164837	-0.177883	2.211892	0.000000	-0.021415	0.000000	0.000003	-0.000000	0.000000	0.000000
38.317684	11.857801	23.580705	0.168355	-0.248776	2.205525	0.000000	-0.026824	0.000000	0.000003	-0.000000	0.000000	0.000000
38.758644	11.860561	23.538935	-0.174638	0.343139	2.207624	0.000000	0.036351	0.000000	0.000003	-0.000000	0.000000	0.000000
39.199604	12.168176	22.980061	-0.525610	0.919442	2.237645	0.000000	0.099939	0.000000	0.000003	-0.000000	0.000000	0.000000
39.640564	12.794699	21.929509	-0.900596	1.453911	2.295929	0.000000	0.164666	0.000000	0.000003	0.000000	0.000000	0.000000
40.081524	13.768755	20.435079	-1.316727	1.922229	2.383142	0.000000	0.231268	0.000000	0.000003	0.000000	0.000000	0.000000
40.527484	15.152411	18.542200	-1.796841	2.304365	2.501747	0.000000	0.300909	0.000000	0.000003	0.000000	0.000000	0.000000
41.076544	16.918317	16.415161	-1.400355	1.592466	2.646435	0.000000	0.225356	0.000000	0.000003	0.000000	0.000000	0.000000
41.625604	18.191609	15.003373	-0.904956	0.993995	2.748480	0.000000	0.145805	0.000000	0.000003	-0.000000	0.000000	0.000000
42.174664	18.882348	14.206275	-0.345635	0.466323	2.806072	0.000000	0.063669	0.000000	0.000003	-0.000000	0.000000	0.000000
42.723724	18.941743	13.967094	0.238099	-0.028133	2.818189	0.000000	-0.019597	0.000000	0.000003	-0.000000	0.000000	0.000000
43.022297	18.833990	13.968485	0.172286	-0.013019	2.814536	0.000000	-0.012234	0.000000	0.000003	-0.000000	0.000000	0.000000
43.502297	18.681191	13.997480	0.146044	-0.047387	2.808664	0.000000	-0.012234	0.000000	0.000003	-0.000000	0.000000	0.000000
43.982297	18.553586	14.059469	0.119801	-0.081756	2.802792	0.000000	-0.012234	0.000000	0.000003	-0.000000	0.000000	0.000000
44.462297	18.451173	14.154452	0.093559	-0.116125	2.796919	0.000000	-0.012234	0.000000	0.000003	-0.000000	0.000000	0.000000
44.942297	18.373953	14.282430	0.067317	-0.150494	2.791047	0.000000	-0.012234	0.000000	0.000003	-0.000000	0.000000	0.000000
45.423547	18.322049	14.443684	-0.049772	-0.113390	2.785177	0.000000	0.001565	0.000000	0.000003	-0.000000	0.000000	0.000000
45.720870	18.356483	14.517310	-0.114001	-0.096309	2.785642	0.000000	0.008843	0.000000	0.000003	-0.000000	0.000000	0.000000
46.269930	18.172576	14.903912	0.446966	-0.611963	2.767927	0.000000	-0.073277	0.000000	0.000002	-0.000000	0.000000	0.000000
46.818990	17.386430	15.877233	0.976362	-1.171205	2.705414	0.000000	-0.154098	0.000000	0.000002	-0.000000	0.000000	0.000000
47.368050	16.053574	17.506600	1.436792	-1.813870	2.599211	0.000000	-0.232186	0.000000	0.000002	-0.000000	0.000000	0.000000
47.917110	14.268154	19.908070	1.795734	-2.585732	2.451203	0.000000	-0.306155	0.000000	0.000002	-0.000000	0.000000	0.000000
48.363070	12.878641	22.043274	1.331084	-2.182021	2.329961	0.000000	-0.237859	0.000000	0.000002	-0.000000	0.000000	0.000000
48.804030	11.884916	23.752909	0.931015	-1.680300	2.239534	0.000000	-0.172670	0.000000	0.000001	-0.000000	0.000000	0.000000
49.244990	11.224000	24.984535	0.573482	-1.102126	2.177392	0.000000	-0.109447	0.000000	0.000001	-0.000000	0.000000	0.000000
49.685950	10.865698	25.682113	0.242150	-0.473807	2.142828	0.000000	-0.047470	0.000000	0.000001	-0.000000	0.000000	0.000000
50.128160	10.793770	25.813623	-0.051767	0.112719	2.135459	0.000000	0.008729	0.000000	0.000001	-0.000000	0.000000	0.000000
50.425482	10.832765	25.750063	-0.079386	0.101054	2.138054	0.000000	0.008729	0.000000	0.000001	-0.000000	0.000000	0.000000
50.758816	10.896010	25.687052	-0.110351	0.087977	2.140964	0.000000	0.008729	0.000000	0.000001	-0.000000	0.000000	0.000000
51.092149	10.979899	25.632760	-0.141316	0.074900	2.143874	0.000000	0.008729	0.000000	0.000001	-0.000000	0.000000	0.000000
51.426732	11.084638	25.587550	-0.082471	-0.145805	2.146773	0.000000	-0.008687	0.000000	0.000000	-0.000000	0.000000	0.000000
51.724055	11.141708	25.677781	-0.082154	-0.220641	2.144190	0.000000	-0.013945	0.000000	0.000000	-0.000000	0.000000	0.000000
52.165015	11.359606	25.586721	-0.413866	0.426358	2.151629	0.000000	0.047717	0.000000	0.000000	-0.000000	0.000000	0.000000
52.605975	11.877249	24.931467	-0.764487	1.053959	2.186352	0.000000	0.109922	0.000000	0.000000	-0.000000	0.000000	0.000000
53.046935	12.718286	23.741832	-1.150035	1.633605	2.248755	0.000000	0.173379	0.000000	-0.000000	-0.000000	0.000000	0.000000
53.487895	13.921142	22.071944	-1.588125	2.138923	2.339549	0.000000	0.238811	0.000000	-0.000000	-0.000000	0.000000	0.000000
53.933855	15.561386	19.972811	-2.103008	2.548257	2.461272	0.000000	0.307362	0.000000	-0.000000	-0.000000	0.000000	0.000000
54.482915	17.673104	17.610833	-1.720286	1.778994	2.609852	0.000000	0.233057	0.000000	-0.000001	-0.000000	0.000000	0.000000
55.031975	19.294930	16.019475	-1.216052	1.136446	2.716438	0.000000	0.154619	0.000000	-0.000001	-0.000000	0.000000	0.000000
55.581035	20.312307	15.085388	-0.625922	0.574844	2.779138	0.000000	0.073438	0.000000	-0.000001	-0.000000	0.000000	0.000000
56.130095	20.653371	14.742039	0.008420	0.054187	2.796842	0.000000	-0.009046	0.000000	-0.000001	-0.000000	0.000000	0.000000
56.428668	20.684892	14.692780	-0.060030	0.072278	2.796323	0.000000	-0.001739	0.000000	-0.000001	-0.000000	0.000000	0.000000
56.762001	20.730303	14.652196	-0.076203	0.049473	2.795743	0.000000	-0.001739	0.000000	-0.000001	-0.000000	0.000000	0.000000
57.095334	20.786496	14.626816	-0.092376	0.026667	2.795164	0.000000	-0.001739	0.000000	-0.000001	-0.000000	0.000000	0.000000
57.429918	20.853742	14.616630	-0.108609	0.003776	2.794582	0.000000	-0.001739	0.000000	-0.000001	-0.000000	0.000000	0.000000
57.727240	20.922615	14.620433	-0.177703	0.021636	2.794066	0.000000	0.005562	0.000000	-0.000001	-0.000000	0.000000	0.000000
58.276300	20.760758	14.877489	0.470747	-0.492575	2.774479	0.000000	-0.076801	0.000000	-0.000002	-0.000000	0.000000	0.000000
58.825360	19.900950	15.715047	1.085946	-1.041870	2.709979	0.000000	-0.157803	0.000000	-0.000002	-0.000000	0.000000	0.000000
59.374420	18.403925	17.192765	1.624439	-1.665375	2.601707	0.000000	-0.236005	0.000000	-0.000002	-0.000000	0.000000	0.000000
59.923480	16.375424	19.415896	2.048189	-2.407501	2.451586	0.000000	-0.310021	0.000000	-0.000002	-0.000000	0.000000	0.000000
60.369440	14.787653	21.391896	1.524763	-2.004689	2.328620	0.000000	-0.241737	0.000000	-0.000002	-0.000000	0.000000	0.000000
60.810400	13.645503	22.948554	1.075209	-1.512035	2.236472	0.000000	-0.176604	0.000000	-0.000002	-0.000000	0.000000	0.000000
61.251360	12.876744	24.038619	0.674779	-0.950585	2.172574	0.000000	-0.113483	0.000000	-0.000002	-0.000000	0.000000	0.000000
61.692320	12.446256	24.612494	0.305177	-0.345884	2.136199	0.000000	-0.051654	0.000000	-0.000002	-0.000000	0.000000	0.000000
62.134530	12.334420	24.643533	-0.020335	0.214065	2.126939	0.000000	0.004371	0.000000	-0.000002	-0.000000	0.000000	0.000000
62.431853	12.353682	24.519991	-0.044450	0.201448	2.128238	0.000000	0.004371	0.000000	-0.000002	-0.000000	0.000000	0.000000
62.765186	12.392327	24.390408	-0.071486	0.187302	2.129695	0.000000	0.004371	0.000000	-0.000002	-0.000000	0.000000	0.000000
63.098520	12.448996	24.270256	-0.098521	0.173156	2.131152	0.000000	0.004371	0.000000	-0.000002	-0.000000	0.000000	0.000000
63.433103	12.524003	24.159137	-0.125659	0.158957	2.132614	0.000000	0.004371	0.000000	-0.000002	-0.000000	0.000000	0.000000
63.730426	12.605895	24.068365	-0.118860	0.087315	2.133914	0.000000	-0.000863	0.000000	-0.000003	-0.000000	0.000000	0.000000
64.171386	12.871201	23.726283	-0.485077	0.685502	2.147074	0.000000	0.060608	0.000000	-0.000003	-0.000000	0.000000	0.000000
64.612346	13.467995	22.868438	-0.873456	1.252499	2.187467	0.000000	0.122769	0.000000	-0.000003	-0.000000	0.000000	0.000000
65.053306	14.423544	21.533861	-1.301740	1.762509	2.255552	0.000000	0.186329	0.000000	-0.000003	-0.000000	0.000000	0.000000
65.494266	15.781505	19.783276	-1.789498	2.192325	2.352106	0.000000	0.252010	0.000000	-0.000003	-0.000001	0.000000	0.000000
65.940226	17.627085	17.671553	-2.363706	2.523150	2.479799	0.000000	0.320964	0.000000	-0.000004	-0.000001	0.000000	0.000000
66.489286	19.992782	15.309124	-1.919420	1.804927	2.635661	0.000000	0.245941	0.000000	-0.000004	-0.000001	0.000000	0.000000
67.038346	21.792810	13.660589	-1.339555	1.215265	2.749071	0.000000	0.166555	0.000000	-0.000004	-0.000000	0.000000	0.000000
67.587406	22.900025	12.608525	-0.665072	0.712163	2.818017	0.000000	0.084216	0.000000	-0.000004	-0.000000	0.000000	0.000000
68.136466	23.236218	12.077998	0.056389	0.259787	2.841276	0.000000	0.000382	0.000000	-0.000004	-0.000000	0.000000	0.000000
68.435038	23.242637	11.912030	-0.017174	0.264527	2.843606	0.000000	0.007806	0.000000	-0.000004	-0.000000	0.000000	0.000000
68.768372	23.258869	11.745659	-0.031520	0.234586	2.846208	0.000000	0.007806	0.000000	-0.000004	-0.000000	0.000000	0.000000
69.101705	23.284664	11.599249	-0.045866	0.204645	2.848810	0.000000	0.007806	0.000000	-0.000005	-0.000000	0.000000	0.000000
69.436288	23.320174	11.472362	-0.060265	0.174592	2.851422	0.000000	0.007806	0.000000	-0.000005	-0.000000	0.000000	0.000000
69.733611	23.359815	11.376483	-0.134098	0.177611	2.853743	0.000000	0.015263	0.000000	-0.000005	-0.000000	0.000000	0.000000
70.282671	23.105886	11.409213	0.593839	-0.237574	2.838938	0.000000	-0.069112	0.000000	-0.000005	0.000000	0.000000	0.000000
