#ParticleID	Turn	x[m]	xp	y[m]	yp	z[m]	dE[GeV]# s	beta_x	beta_y	alpha_x	alpha_y	D_x	D_y	D_px	D_py	orbit_x	orbit_px	orbit_y	orbit_py
0.300000	11.813184	25.021561	-0.010934	-0.027260	2.618054	0.000000	0.000035	0.000000	-0.000000	0.000001	0.000000	0.000000
0.601250	11.827455	25.041615	-0.036438	-0.039308	2.618064	0.000000	0.000035	0.000000	-0.000000	0.000001	0.000000	0.000000
0.898573	11.856607	25.068525	-0.032534	-0.112674	2.618074	0.000000	-0.006385	0.000000	0.000000	0.000001	0.000000	0.000000
1.339533	12.037420	24.889815	-0.379066	0.516406	2.631551	0.000000	0.067571	0.000000	0.000001	0.000001	0.000000	0.000000
1.780493	12.530300	24.164588	-0.742917	1.121991	2.677778	0.000000	0.142297	0.000000	0.000001	0.000001	0.000000	0.000000
2.221453	13.357766	22.925840	-1.140710	1.676526	2.757282	0.000000	0.218644	0.000000	0.000002	0.000001	0.000000	0.000000
2.662413	14.557621	21.229934	-1.590619	2.154780	2.870968	0.000000	0.297481	0.000000	0.000002	0.000001	0.000000	0.000000
3.108373	16.205427	19.129161	-2.117488	2.536126	3.021993	0.000000	0.380195	0.000000	0.000003	0.000001	0.000000	0.000000
3.657433	18.318466	16.769678	-1.708196	1.786553	3.205471	0.000000	0.287157	0.000000	0.000004	0.000001	0.000000	0.000000
4.206493	19.912733	15.159027	-1.178245	1.164232	3.336389	0.000000	0.189025	0.000000	0.000005	0.000001	0.000000	0.000000
4.755553	20.875617	14.182486	-0.565069	0.624836	3.412426	0.000000	0.087541	0.000000	0.000005	0.000001	0.000000	0.000000
5.304613	21.139105	13.770498	0.088021	0.129946	3.432233	0.000000	-0.015496	0.000000	0.000006	0.000001	0.000000	0.000000
5.603185	21.123746	13.678069	0.018651	0.143645	3.430284	0.000000	-0.006529	0.000000	0.000006	0.000001	0.000000	0.000000
5.936519	21.116574	13.590596	0.002866	0.118772	3.428107	0.000000	-0.006529	0.000000	0.000006	0.000001	0.000000	0.000000
6.269852	21.119925	13.519706	-0.012920	0.093899	3.425931	0.000000	-0.006529	0.000000	0.000006	0.000001	0.000000	0.000000
6.604435	21.133872	13.465225	-0.028764	0.068933	3.423746	0.000000	-0.006529	0.000000	0.000007	0.000001	0.000000	0.000000
6.901758	21.155162	13.430830	-0.098116	0.081838	3.421804	0.000000	0.002411	0.000000	0.000007	0.000001	0.000000	0.000000
7.450818	20.902362	13.601790	0.555815	-0.395045	3.394926	0.000000	-0.100174	0.000000	0.000007	0.000001	0.000000	0.000000
7.999878	19.948874	14.308710	1.170486	-0.900065	3.312127	0.000000	-0.200981	0.000000	0.000008	0.000000	0.000000	0.000000
8.548938	18.362050	15.601943	1.702480	-1.469196	3.174878	0.000000	-0.298224	0.000000	0.000008	0.000000	0.000000	0.000000
9.097998	16.253974	17.573603	2.114219	-2.142974	2.985613	0.000000	-0.390178	0.000000	0.000008	-0.000000	0.000000	0.000000
9.543958	14.609297	19.330447	1.586841	-1.779841	2.829916	0.000000	-0.308467	0.000000	0.000008	0.000000	0.000000	0.000000
9.984918	13.413062	20.710083	1.136248	-1.336962	2.711142	0.000000	-0.230755	0.000000	0.000008	0.000000	0.000000	0.000000
10.425878	12.589907	21.670715	0.737568	-0.833251	2.626024	0.000000	-0.155670	0.000000	0.000008	0.000001	0.000000	0.000000
10.866838	12.102224	22.168637	0.372585	-0.291628	2.573593	0.000000	-0.082358	0.000000	0.000008	0.000001	0.000000	0.000000
11.309048	11.927598	22.180671	0.053767	0.208814	2.553232	0.000000	-0.016245	0.000000	0.000009	0.000001	0.000000	0.000000
11.606371	11.903059	22.060660	0.028767	0.194825	2.548402	0.000000	-0.016245	0.000000	0.000009	0.000001	0.000000	0.000000
12.086371	11.894815	21.884468	-0.011592	0.172241	2.540604	0.000000	-0.016245	0.000000	0.000009	0.000001	0.000000	0.000000
12.566371	11.925316	21.729957	-0.051951	0.149657	2.532806	0.000000	-0.016245	0.000000	0.000010	0.000001	0.000000	0.000000
13.046371	11.994561	21.597127	-0.092310	0.127073	2.525008	0.000000	-0.016245	0.000000	0.000010	0.000001	0.000000	0.000000
13.526371	12.102551	21.485978	-0.132669	0.104489	2.517210	0.000000	-0.016245	0.000000	0.000011	0.000001	0.000000	0.000000
14.007621	12.249719	21.396304	-0.173134	0.081846	2.509391	0.000000	-0.016245	0.000000	0.000011	0.000001	0.000000	0.000000
14.304943	12.360105	21.351794	-0.167826	0.015502	2.504561	0.000000	-0.022386	0.000000	0.000012	0.000001	0.000000	0.000000
14.745903	12.666649	21.104429	-0.529986	0.543334	2.510322	0.000000	0.048544	0.000000	0.000012	0.000001	0.000000	0.000000
15.186863	13.302020	20.400721	-0.916360	1.046446	2.547453	0.000000	0.120028	0.000000	0.000013	0.000002	0.000000	0.000000
15.627823	14.295246	19.272691	-1.344601	1.501944	2.616377	0.000000	0.192878	0.000000	0.000013	0.000002	0.000000	0.000000
16.068783	15.691704	17.771661	-1.834272	1.889106	2.717877	0.000000	0.267926	0.000000	0.000014	0.000002	0.000000	0.000000
16.514743	17.578852	15.944425	-2.412503	2.191059	2.854807	0.000000	0.346487	0.000000	0.000015	0.000003	0.000000	0.000000
17.063803	20.002635	13.904149	-1.975786	1.546817	3.021313	0.000000	0.259141	0.000000	0.000017	0.000002	0.000000	0.000000
17.612863	21.866911	12.507040	-1.399508	1.012751	3.138528	0.000000	0.167198	0.000000	0.000018	0.000002	0.000000	0.000000
18.161923	23.039996	11.653583	-0.724376	0.550821	3.204371	0.000000	0.072290	0.000000	0.000018	0.000001	0.000000	0.000000
18.710983	23.439029	11.282989	0.001922	0.128124	3.217674	0.000000	-0.023901	0.000000	0.000019	0.000000	0.000000	0.000000
19.009556	23.478262	11.196976	-0.072093	0.130480	3.213047	0.000000	-0.015495	0.000000	0.000019	0.000000	0.000000	0.000000
19.342889	23.531082	11.120081	-0.086365	0.100204	3.207882	0.000000	-0.015495	0.000000	0.000019	0.000000	0.000000	0.000000
19.676223	23.593415	11.063371	-0.100636	0.069927	3.202717	0.000000	-0.015495	0.000000	0.000019	0.000000	0.000000	0.000000
20.010806	23.665843	11.026610	-0.232214	0.094169	3.197552	0.000000	0.000347	0.000000	0.000019	0.000000	0.000000	0.000000
20.308129	23.807865	10.978701	-0.307651	0.095647	3.197655	0.000000	0.008701	0.000000	0.000019	0.000001	0.000000	0.000000
20.857189	23.735075	11.095797	0.439439	-0.310173	3.176208	0.000000	-0.086709	0.000000	0.000019	-0.000000	0.000000	0.000000
21.406249	22.854149	11.667976	1.155489	-0.738085	3.102721	0.000000	-0.180581	0.000000	0.000019	-0.000001	0.000000	0.000000
21.955309	21.227311	12.735993	1.789921	-1.218570	2.978497	0.000000	-0.271250	0.000000	0.000019	-0.000001	0.000000	0.000000
22.504369	18.969474	14.375920	2.297922	-1.785850	2.805741	0.000000	-0.357108	0.000000	0.000018	-0.000002	0.000000	0.000000
22.950329	17.190072	15.848289	1.706209	-1.501790	2.663782	0.000000	-0.279885	0.000000	0.000017	-0.000001	0.000000	0.000000
23.391289	15.914646	17.022202	1.197146	-1.150254	2.556689	0.000000	-0.206304	0.000000	0.000016	-0.000001	0.000000	0.000000
23.832249	15.062451	17.861738	0.742776	-0.746383	2.481494	0.000000	-0.135073	0.000000	0.000016	-0.000001	0.000000	0.000000
24.273209	14.594551	18.328698	0.322342	-0.308551	2.437341	0.000000	-0.065381	0.000000	0.000016	-0.000000	0.000000	0.000000
24.715418	14.489689	18.401592	-0.047924	0.098131	2.423722	0.000000	-0.002376	0.000000	0.000016	0.000000	0.000000	0.000000
25.012741	14.524302	18.348089	-0.068491	0.081818	2.423016	0.000000	-0.002376	0.000000	0.000016	0.000000	0.000000	0.000000
25.346075	14.577648	18.299640	-0.091548	0.063529	2.422224	0.000000	-0.002376	0.000000	0.000016	0.000000	0.000000	0.000000
25.679408	14.646367	18.263384	-0.114606	0.045240	2.421432	0.000000	-0.002376	0.000000	0.000016	0.000000	0.000000	0.000000
26.013991	14.730502	18.239622	-0.018247	-0.121086	2.420612	0.000000	-0.022013	0.000000	0.000016	0.000000	0.000000	0.000000
26.311314	14.747356	18.316543	-0.002278	-0.182537	2.414067	0.000000	-0.027932	0.000000	0.000016	-0.000000	0.000000	0.000000
26.752274	14.931057	18.278883	-0.415895	0.267616	2.416864	0.000000	0.040627	0.000000	0.000016	0.000000	0.000000	0.000000
27.193234	15.486503	17.848098	-0.848514	0.705592	2.449965	0.000000	0.109650	0.000000	0.000016	0.000001	0.000000	0.000000
27.634194	16.439073	17.043788	-1.319898	1.111464	2.513748	0.000000	0.179921	0.000000	0.000017	0.000001	0.000000	0.000000
28.075154	17.832285	15.902549	-1.851585	1.466766	2.608940	0.000000	0.252241	0.000000	0.000018	0.000002	0.000000	0.000000
28.521114	19.753996	14.459114	-2.472833	1.756243	2.738228	0.000000	0.327877	0.000000	0.000018	0.000002	0.000000	0.000000
29.070174	22.196504	12.850858	-1.949358	1.190154	2.895581	0.000000	0.244457	0.000000	0.000019	0.000002	0.000000	0.000000
29.619234	23.984699	11.814316	-1.288190	0.708838	3.005873	0.000000	0.156700	0.000000	0.000020	0.000001	0.000000	0.000000
30.168294	24.992270	11.275655	-0.536031	0.278011	3.067145	0.000000	0.066164	0.000000	0.000020	0.000000	0.000000	0.000000
30.717354	25.148049	11.196510	0.253991	-0.133014	3.078313	0.000000	-0.025546	0.000000	0.000020	-0.000000	0.000000	0.000000
31.015927	25.039280	11.266520	0.176002	-0.130718	3.073086	0.000000	-0.017504	0.000000	0.000020	-0.000000	0.000000	0.000000
31.349260	24.926521	11.363695	0.162277	-0.160809	3.067252	0.000000	-0.017504	0.000000	0.000020	-0.000000	0.000000	0.000000
31.682593	24.822911	11.480932	0.148552	-0.190901	3.061417	0.000000	-0.017504	0.000000	0.000020	-0.000000	0.000000	0.000000
32.017177	24.728114	11.618783	0.134776	-0.221106	3.055561	0.000000	-0.017504	0.000000	0.000020	-0.000000	0.000000	0.000000
32.314499	24.651611	11.758243	0.058134	-0.217230	3.050356	0.000000	-0.009536	0.000000	0.000020	-0.000000	0.000000	0.000000
32.863559	24.165407	12.235996	0.822144	-0.658035	3.020233	0.000000	-0.100032	0.000000	0.000019	-0.000001	0.000000	0.000000
33.412619	22.867307	13.220549	1.528081	-1.145710	2.940836	0.000000	-0.188755	0.000000	0.000019	-0.000002	0.000000	0.000000
33.961679	20.849003	14.782030	2.126082	-1.714992	2.813574	0.000000	-0.274129	0.000000	0.000018	-0.000002	0.000000	0.000000
34.510739	18.253059	17.031659	2.573908	-2.406429	2.640704	0.000000	-0.354642	0.000000	0.000016	-0.000003	0.000000	0.000000
34.956699	16.234597	19.043875	1.968412	-2.086831	2.498894	0.000000	-0.281698	0.000000	0.000015	-0.000002	0.000000	0.000000
35.397659	14.729457	20.708156	1.457862	-1.673028	2.390062	0.000000	-0.212390	0.000000	0.000014	-0.000002	0.000000	0.000000
35.838619	13.643619	21.972406	1.013918	-1.183103	2.311230	0.000000	-0.145502	0.000000	0.000014	-0.000002	0.000000	0.000000
36.279579	12.927477	22.779104	0.616296	-0.639348	2.261499	0.000000	-0.080270	0.000000	0.000013	-0.000001	0.000000	0.000000
36.721789	12.547616	23.091854	0.277493	-0.123179	2.240278	0.000000	-0.021447	0.000000	0.000013	-0.000001	0.000000	0.000000
37.019112	12.390194	23.168988	0.251973	-0.136250	2.233901	0.000000	-0.021447	0.000000	0.000012	-0.000001	0.000000	0.000000
37.352445	12.231749	23.264706	0.223362	-0.150904	2.226753	0.000000	-0.021447	0.000000	0.000012	-0.000001	0.000000	0.000000
37.685779	12.092379	23.370193	0.194751	-0.165558	2.219604	0.000000	-0.021447	0.000000	0.000012	-0.000001	0.000000	0.000000
38.020362	11.971667	23.485901	0.166032	-0.180267	2.212429	0.000000	-0.021447	0.000000	0.000011	-0.000001	0.000000	0.000000
38.317684	11.880524	23.596982	0.169644	-0.251199	2.206053	0.000000	-0.026856	0.000000	0.000011	-0.000001	0.000000	0.000000
38.758644	11.882374	23.557152	-0.173854	0.341181	2.208140	0.000000	0.036332	0.000000	0.000011	-0.000001	0.000000	0.000000
39.199604	12.189505	22.999766	-0.525294	0.918038	2.238156	0.000000	0.099934	0.000000	0.000011	-0.000000	0.000000	0.000000
39.640564	12.815949	21.950184	-0.900733	1.453124	2.296441	0.000000	0.164673	0.000000	0.000010	-0.000000	0.000000	0.000000
40.081524	13.790328	20.456162	-1.317325	1.922095	2.383660	0.000000	0.231289	0.000000	0.000010	0.000000	0.000000	0.000000
40.527484	15.174733	18.563105	-1.797928	2.304896	2.502277	0.000000	0.300944	0.000000	0.000011	0.000000	0.000000	0.000000
41.076544	16.941379	16.435772	-1.400608	1.592473	2.646980	0.000000	0.225373	0.000000	0.000011	0.000000	0.000000	0.000000
41.625604	18.214478	15.024261	-0.904356	0.993479	2.749030	0.000000	0.145805	0.000000	0.000011	-0.000000	0.000000	0.000000
42.174664	18.904106	14.228032	-0.344224	0.465248	2.806616	0.000000	0.063650	0.000000	0.000010	-0.000001	0.000000	0.000000
42.723724	18.961550	13.990372	0.240221	-0.029844	2.818718	0.000000	-0.019633	0.000000	0.000010	-0.000001	0.000000	0.000000
43.022297	18.852557	13.992740	0.174364	-0.014635	2.815056	0.000000	-0.012269	0.000000	0.000010	-0.000001	0.000000	0.000000
43.502297	18.697760	14.023259	0.148129	-0.048946	2.809167	0.000000	-0.012269	0.000000	0.000009	-0.000001	0.000000	0.000000
43.982297	18.568149	14.086716	0.121894	-0.083257	2.803278	0.000000	-0.012269	0.000000	0.000009	-0.000001	0.000000	0.000000
44.462297	18.463723	14.183112	0.095659	-0.117568	2.797390	0.000000	-0.012269	0.000000	0.000009	-0.000001	0.000000	0.000000
44.942297	18.384483	14.312446	0.069425	-0.151879	2.791501	0.000000	-0.012269	0.000000	0.000008	-0.000001	0.000000	0.000000
45.423547	18.330548	14.475005	-0.047698	-0.114561	2.785614	0.000000	0.001533	0.000000	0.000008	-0.000001	0.000000	0.000000
45.720870	18.363745	14.549316	-0.111933	-0.097359	2.786070	0.000000	0.008812	0.000000	0.000007	-0.000001	0.000000	0.000000
46.269930	18.177452	14.937611	0.449218	-0.614017	2.768334	0.000000	-0.073323	0.000000	0.000007	-0.000001	0.000000	0.000000
46.818990	17.388804	15.913803	0.978639	-1.174410	2.705793	0.000000	-0.154156	0.000000	0.000006	-0.000001	0.000000	0.000000
47.368050	16.053506	17.547421	1.438934	-1.818453	2.599556	0.000000	-0.232256	0.000000	0.000005	-0.000001	0.000000	0.000000
47.917110	14.265877	19.954826	1.797590	-2.592021	2.451506	0.000000	-0.306236	0.000000	0.000005	-0.000002	0.000000	0.000000
48.363070	12.874772	22.095200	1.332812	-2.187277	2.330231	0.000000	-0.237932	0.000000	0.000004	-0.000002	0.000000	0.000000
48.804030	11.879549	23.808927	0.932695	-1.684288	2.239774	0.000000	-0.172736	0.000000	0.000003	-0.000001	0.000000	0.000000
49.244990	11.217144	25.043442	0.575191	-1.104665	2.177605	0.000000	-0.109507	0.000000	0.000003	-0.000001	0.000000	0.000000
49.685950	10.857294	25.742575	0.243966	-0.474781	2.143015	0.000000	-0.047526	0.000000	0.000002	-0.000001	0.000000	0.000000
50.128160	10.783681	25.874233	-0.049785	0.113206	2.135623	0.000000	0.008678	0.000000	0.000001	-0.000001	0.000000	0.000000
50.425482	10.821503	25.810376	-0.077425	0.101568	2.138204	0.000000	0.008678	0.000000	0.000001	-0.000001	0.000000	0.000000
50.758816	10.883449	25.747014	-0.108412	0.088520	2.141097	0.000000	0.008678	0.000000	0.000001	-0.000001	0.000000	0.000000
51.092149	10.966053	25.692350	-0.139400	0.075472	2.143990	0.000000	0.008678	0.000000	0.000000	-0.000001	0.000000	0.000000
51.426732	11.069517	25.646748	-0.080700	-0.145684	2.146872	0.000000	-0.008739	0.000000	-0.000000	-0.000001	0.000000	0.000000
51.724055	11.125543	25.736899	-0.080452	-0.220638	2.144274	0.000000	-0.013998	0.000000	-0.000001	-0.000001	0.000000	0.000000
52.165015	11.341764	25.645146	-0.411752	0.427921	2.151690	0.000000	0.047666	0.000000	-0.000001	-0.000001	0.000000	0.000000
52.605975	11.857326	24.987849	-0.761864	1.057011	2.186392	0.000000	0.109873	0.000000	-0.000002	-0.000001	0.000000	0.000000
53.046935	12.695783	23.794915	-1.146784	1.638007	2.248774	0.000000	0.173331	0.000000	-0.000002	-0.000001	0.000000	0.000000
53.487895	13.895441	22.120620	-1.584097	2.144475	2.339547	0.000000	0.238763	0.000000	-0.000003	-0.000001	0.000000	0.000000
53.933855	15.531675	20.016112	-2.098011	2.554709	2.461249	0.000000	0.307314	0.000000	-0.000004	-0.000002	0.000000	0.000000
54.482915	17.638290	17.647988	-1.716044	1.783801	2.609803	0.000000	0.233010	0.000000	-0.000004	-0.000001	0.000000	0.000000
55.031975	19.256012	16.052094	-1.212864	1.139949	2.716364	0.000000	0.154573	0.000000	-0.000005	-0.000001	0.000000	0.000000
55.581035	20.270573	15.114758	-0.624014	0.577293	2.779041	0.000000	0.073395	0.000000	-0.000006	-0.000001	0.000000	0.000000
56.130095	20.610311	14.769216	0.008914	0.055757	2.796723	0.000000	-0.009085	0.000000	-0.000006	-0.000001	0.000000	0.000000
56.428668	20.641480	14.718966	-0.059456	0.073952	2.796192	0.000000	-0.001778	0.000000	-0.000006	-0.000001	0.000000	0.000000
56.762001	20.686519	14.677255	-0.075661	0.051182	2.795600	0.000000	-0.001778	0.000000	-0.000007	-0.000001	0.000000	0.000000
57.095334	20.742362	14.650724	-0.091867	0.028411	2.795008	0.000000	-0.001778	0.000000	-0.000007	-0.000001	0.000000	0.000000
57.429918	20.809279	14.639359	-0.108134	0.005556	2.794414	0.000000	-0.001778	0.000000	-0.000007	-0.000001	0.000000	0.000000
57.727240	20.877878	14.642094	-0.177142	0.023504	2.793885	0.000000	0.005523	0.000000	-0.000008	-0.000001	0.000000	0.000000
58.276300	20.716232	14.897431	0.469805	-0.491293	2.774280	0.000000	-0.076834	0.000000	-0.000008	-0.000001	0.000000	0.000000
58.825360	19.858258	15.733860	1.083568	-1.041084	2.709763	0.000000	-0.157829	0.000000	-0.000008	-0.000000	0.000000	0.000000
59.374420	18.364560	17.210959	1.620793	-1.665029	2.601479	0.000000	-0.236024	0.000000	-0.000008	-0.000000	0.000000	0.000000
59.923480	16.340645	19.433938	2.043533	-2.407570	2.451350	0.000000	-0.310032	0.000000	-0.000008	0.000000	0.000000	0.000000
60.369440	14.756558	21.409730	1.521129	-2.004153	2.328377	0.000000	-0.241755	0.000000	-0.000008	-0.000000	0.000000	0.000000
60.810400	13.617227	22.965659	1.072424	-1.510924	2.236219	0.000000	-0.176628	0.000000	-0.000009	-0.000000	0.000000	0.000000
61.251360	12.850599	24.054508	0.672715	-0.948949	2.172310	0.000000	-0.113514	0.000000	-0.000009	-0.000000	0.000000	0.000000
61.692320	12.421649	24.626735	0.303740	-0.343798	2.135920	0.000000	-0.051692	0.000000	-0.000009	-0.000001	0.000000	0.000000
62.134530	12.310833	24.655763	-0.021267	0.216473	2.126642	0.000000	0.004326	0.000000	-0.000009	-0.000001	0.000000	0.000000
62.431853	12.330663	24.530791	-0.045430	0.203849	2.127928	0.000000	0.004326	0.000000	-0.000010	-0.000001	0.000000	0.000000
62.765186	12.369979	24.399609	-0.072518	0.189696	2.129370	0.000000	0.004326	0.000000	-0.000010	-0.000001	0.000000	0.000000
63.098520	12.427354	24.277863	-0.099607	0.175543	2.130812	0.000000	0.004326	0.000000	-0.000010	-0.000001	0.000000	0.000000
63.433103	12.503105	24.165148	-0.126797	0.161337	2.132260	0.000000	0.004326	0.000000	-0.000011	-0.000001	0.000000	0.000000
63.730426	12.585688	24.072963	-0.120092	0.089673	2.133547	0.000000	-0.000907	0.000000	-0.000011	-0.000001	0.000000	0.000000
64.171386	12.851888	23.728766	-0.485880	0.687920	2.146686	0.000000	0.060554	0.000000	-0.000011	-0.000001	0.000000	0.000000
64.612346	13.449215	22.868802	-0.873866	1.254868	2.187053	0.000000	0.122705	0.000000	-0.000012	-0.000001	0.000000	0.000000
65.053306	14.404960	21.532198	-1.301777	1.764720	2.255108	0.000000	0.186253	0.000000	-0.000013	-0.000002	0.000000	0.000000
65.494266	15.762789	19.779770	-1.789162	2.194279	2.351626	0.000000	0.251923	0.000000	-0.000013	-0.000002	0.000000	0.000000
65.940226	17.607896	17.666455	-2.362980	2.524753	2.479278	0.000000	0.320863	0.000000	-0.000014	-0.000003	0.000000	0.000000
66.489286	19.973206	15.302330	-1.919448	1.806432	2.635090	0.000000	0.245858	0.000000	-0.000016	-0.000002	0.000000	0.000000
67.038346	21.773680	13.652147	-1.340336	1.216779	2.748461	0.000000	0.166492	0.000000	-0.000017	-0.000001	0.000000	0.000000
67.587406	22.882142	12.598367	-0.666550	0.713794	2.817377	0.000000	0.084172	0.000000	-0.000017	-0.000001	0.000000	0.000000
68.136466	23.220296	12.065931	0.054318	0.261652	2.840619	0.000000	0.000360	0.000000	-0.000018	-0.000000	0.000000	0.000000
68.435038	23.227934	11.898882	-0.019220	0.266311	2.842942	0.000000	0.007783	0.000000	-0.000018	-0.000000	0.000000	0.000000
68.768372	23.245533	11.731342	-0.033576	0.236310	2.845537	0.000000	0.007783	0.000000	-0.000018	-0.000000	0.000000	0.000000
69.101705	23.272702	11.583802	-0.047932	0.206309	2.848131	0.000000	0.007783	0.000000	-0.000018	-0.000000	0.000000	0.000000
69.436288	23.309598	11.455822	-0.062342	0.176196	2.850736	0.000000	0.007783	0.000000	-0.000018	-0.000000	0.000000	0.000000
69.733611	23.350476	11.359004	-0.136166	0.179120	2.853050	0.000000	0.015239	0.000000	-0.000018	-0.000000	0.000000	0.000000
70.282671	23.098970	11.389803	0.591523	-0.235545	2.838238	0.000000	-0.069113	0.000000	-0.000018	0.000000	0.000000	0.000000
