#ParticleID	Turn	x[m]	xp	y[m]	yp	z[m]	dE[GeV]# s	beta_x	beta_y	alpha_x	alpha_y	D_x	D_y	D_px	D_py	orbit_x	orbit_px	orbit_y	orbit_py
0.300000	11.809029	25.038316	-0.010510	-0.027068	2.618111	0.000000	0.000013	0.000000	-0.000001	0.000001	0.000000	0.000000
0.601250	11.823047	25.058252	-0.036023	-0.039109	2.618115	0.000000	0.000013	0.000000	-0.000000	0.000001	0.000000	0.000000
0.898573	11.851955	25.085041	-0.032139	-0.112507	2.618118	0.000000	-0.006407	0.000000	0.000000	0.000001	0.000000	0.000000
1.339533	12.032370	24.905992	-0.378556	0.517006	2.631586	0.000000	0.067550	0.000000	0.000001	0.000001	0.000000	0.000000
1.780493	12.524741	24.180054	-0.742267	1.122996	2.677804	0.000000	0.142277	0.000000	0.000002	0.000002	0.000000	0.000000
2.221453	13.351561	22.940257	-1.139891	1.677891	2.757299	0.000000	0.218624	0.000000	0.000002	0.000002	0.000000	0.000000
2.662413	14.550605	21.243010	-1.589593	2.156443	2.870976	0.000000	0.297461	0.000000	0.000003	0.000002	0.000000	0.000000
3.108373	16.197386	19.140648	-2.116206	2.538012	3.021993	0.000000	0.380176	0.000000	0.000004	0.000002	0.000000	0.000000
3.657433	18.309126	16.779355	-1.707126	1.787983	3.205459	0.000000	0.287138	0.000000	0.000005	0.000002	0.000000	0.000000
4.206493	19.902370	15.167336	-1.177462	1.165308	3.336367	0.000000	0.189007	0.000000	0.000005	0.000001	0.000000	0.000000
4.755553	20.864579	14.189772	-0.564629	0.625635	3.412394	0.000000	0.087523	0.000000	0.000006	0.000001	0.000000	0.000000
5.304613	21.127787	13.777031	0.088087	0.130524	3.432192	0.000000	-0.015513	0.000000	0.000007	0.000001	0.000000	0.000000
5.603185	21.112372	13.684245	0.018740	0.144246	3.430237	0.000000	-0.006546	0.000000	0.000007	0.000001	0.000000	0.000000
5.936519	21.105144	13.596370	0.002946	0.119381	3.428055	0.000000	-0.006546	0.000000	0.000007	0.000001	0.000000	0.000000
6.269852	21.108444	13.525071	-0.012848	0.094515	3.425873	0.000000	-0.006546	0.000000	0.000008	0.000001	0.000000	0.000000
6.604435	21.122346	13.470176	-0.028701	0.069556	3.423682	0.000000	-0.006546	0.000000	0.000008	0.000001	0.000000	0.000000
6.901758	21.143601	13.435409	-0.098029	0.082478	3.421736	0.000000	0.002394	0.000000	0.000008	0.000001	0.000000	0.000000
7.450818	20.890919	13.605734	0.555515	-0.394521	3.394848	0.000000	-0.100188	0.000000	0.000009	0.000001	0.000000	0.000000
7.999878	19.937964	14.312126	1.169821	-0.899621	3.312043	0.000000	-0.200993	0.000000	0.000009	0.000000	0.000000	0.000000
8.548938	18.352051	15.604900	1.701497	-1.468799	3.174788	0.000000	-0.298234	0.000000	0.000009	0.000000	0.000000	0.000000
9.097998	16.245198	17.576138	2.112987	-2.142597	2.985518	0.000000	-0.390184	0.000000	0.000009	-0.000000	0.000000	0.000000
9.543958	14.601499	19.332593	1.585872	-1.779347	2.829818	0.000000	-0.308476	0.000000	0.000009	0.000000	0.000000	0.000000
9.984918	13.406020	20.711749	1.135496	-1.336373	2.711039	0.000000	-0.230766	0.000000	0.000010	0.000000	0.000000	0.000000
10.425878	12.583445	21.671830	0.736998	-0.832595	2.625916	0.000000	-0.155684	0.000000	0.000010	0.000001	0.000000	0.000000
10.866838	12.096194	22.169154	0.372172	-0.290935	2.573478	0.000000	-0.082375	0.000000	0.000010	0.000001	0.000000	0.000000
11.309048	11.921871	22.180569	0.053477	0.209515	2.553109	0.000000	-0.016264	0.000000	0.000011	0.000001	0.000000	0.000000
11.606371	11.897507	22.060143	0.028467	0.195522	2.548273	0.000000	-0.016264	0.000000	0.000011	0.000001	0.000000	0.000000
12.086371	11.889560	21.883286	-0.011911	0.172931	2.540465	0.000000	-0.016264	0.000000	0.000011	0.000001	0.000000	0.000000
12.566371	11.920375	21.728115	-0.052288	0.150341	2.532658	0.000000	-0.016264	0.000000	0.000012	0.000001	0.000000	0.000000
13.046371	11.989953	21.594632	-0.092665	0.127750	2.524851	0.000000	-0.016264	0.000000	0.000012	0.000001	0.000000	0.000000
13.526371	12.098292	21.482835	-0.133042	0.105160	2.517043	0.000000	-0.016264	0.000000	0.000013	0.000001	0.000000	0.000000
14.007621	12.245828	21.392519	-0.173525	0.082510	2.509215	0.000000	-0.016264	0.000000	0.000014	0.000001	0.000000	0.000000
14.304943	12.356450	21.347615	-0.168238	0.016174	2.504379	0.000000	-0.022405	0.000000	0.000014	0.000001	0.000000	0.000000
14.745903	12.663326	21.099711	-0.530329	0.543879	2.510131	0.000000	0.048521	0.000000	0.000014	0.000001	0.000000	0.000000
15.186863	13.298974	20.395588	-0.916649	1.046839	2.547250	0.000000	0.119999	0.000000	0.000015	0.000002	0.000000	0.000000
15.627823	14.292435	19.267285	-1.344848	1.502168	2.616160	0.000000	0.192844	0.000000	0.000016	0.000002	0.000000	0.000000
16.068783	15.689099	17.766137	-1.834490	1.889149	2.717644	0.000000	0.267886	0.000000	0.000017	0.000003	0.000000	0.000000
16.514743	17.576432	15.938945	-2.412702	2.190919	2.854553	0.000000	0.346441	0.000000	0.000018	0.000003	0.000000	0.000000
17.063803	20.000506	13.898753	-1.976113	1.546802	3.021037	0.000000	0.259103	0.000000	0.000020	0.000002	0.000000	0.000000
17.612863	21.865202	12.501591	-1.399941	1.012861	3.138233	0.000000	0.167169	0.000000	0.000021	0.000002	0.000000	0.000000
18.161923	23.038807	11.647942	-0.724885	0.551063	3.204063	0.000000	0.072271	0.000000	0.000022	0.000001	0.000000	0.000000
18.710983	23.438424	11.277001	0.001374	0.128517	3.217358	0.000000	-0.023910	0.000000	0.000022	0.000000	0.000000	0.000000
19.009556	23.477982	11.190768	-0.072639	0.130839	3.212729	0.000000	-0.015505	0.000000	0.000022	0.000000	0.000000	0.000000
19.342889	23.531166	11.113641	-0.086911	0.100543	3.207560	0.000000	-0.015505	0.000000	0.000023	0.000000	0.000000	0.000000
19.676223	23.593864	11.056711	-0.101184	0.070246	3.202392	0.000000	-0.015505	0.000000	0.000023	0.000000	0.000000	0.000000
20.010806	23.666659	11.019743	-0.232768	0.094435	3.197224	0.000000	0.000336	0.000000	0.000023	0.000001	0.000000	0.000000
20.308129	23.809011	10.971681	-0.308208	0.095875	3.197324	0.000000	0.008688	0.000000	0.000023	0.000001	0.000000	0.000000
20.857189	23.736809	11.088418	0.438932	-0.309742	3.175872	0.000000	-0.086711	0.000000	0.000023	-0.000000	0.000000	0.000000
21.406249	22.856395	11.660001	1.155067	-0.737422	3.102387	0.000000	-0.180572	0.000000	0.000023	-0.000001	0.000000	0.000000
21.955309	21.229960	12.727141	1.789615	-1.217626	2.978172	0.000000	-0.271230	0.000000	0.000022	-0.000002	0.000000	0.000000
22.504369	18.972385	14.365849	2.297752	-1.784560	2.805429	0.000000	-0.357078	0.000000	0.000021	-0.000002	0.000000	0.000000
22.950329	17.193150	15.837168	1.706001	-1.500739	2.663482	0.000000	-0.279863	0.000000	0.000020	-0.000002	0.000000	0.000000
23.391289	15.917929	17.010276	1.196889	-1.149488	2.556398	0.000000	-0.206290	0.000000	0.000020	-0.000001	0.000000	0.000000
23.832249	15.065985	17.849276	0.742460	-0.745937	2.481208	0.000000	-0.135066	0.000000	0.000019	-0.000001	0.000000	0.000000
24.273209	14.598397	18.315992	0.321951	-0.308446	2.437055	0.000000	-0.065381	0.000000	0.000019	-0.000000	0.000000	0.000000
24.715418	14.493921	18.388946	-0.048398	0.097923	2.423435	0.000000	-0.002382	0.000000	0.000019	0.000000	0.000000	0.000000
25.012741	14.528814	18.335570	-0.068960	0.081599	2.422727	0.000000	-0.002382	0.000000	0.000019	0.000000	0.000000	0.000000
25.346075	14.582471	18.287271	-0.092012	0.063299	2.421932	0.000000	-0.002382	0.000000	0.000019	0.000000	0.000000	0.000000
25.679408	14.651497	18.251172	-0.115064	0.044998	2.421138	0.000000	-0.002382	0.000000	0.000019	0.000000	0.000000	0.000000
26.013991	14.735936	18.227576	-0.018655	-0.121242	2.420317	0.000000	-0.022017	0.000000	0.000019	0.000000	0.000000	0.000000
26.311314	14.753031	18.304593	-0.002667	-0.182674	2.413770	0.000000	-0.027936	0.000000	0.000019	-0.000000	0.000000	0.000000
26.752274	14.937136	18.267197	-0.416429	0.267157	2.416563	0.000000	0.040616	0.000000	0.000019	0.000000	0.000000	0.000000
27.193234	15.493126	17.836951	-0.849216	0.704833	2.449658	0.000000	0.109631	0.000000	0.000020	0.000001	0.000000	0.000000
27.634194	16.446401	17.033430	-1.320802	1.110440	2.513431	0.000000	0.179894	0.000000	0.000020	0.000002	0.000000	0.000000
28.075154	17.840515	15.893195	-1.852731	1.465522	2.608609	0.000000	0.252205	0.000000	0.000021	0.000002	0.000000	0.000000
28.521114	19.763377	14.450947	-2.474277	1.754836	2.737879	0.000000	0.327833	0.000000	0.000022	0.000003	0.000000	0.000000
29.070174	22.207344	12.844054	-1.950555	1.189065	2.895211	0.000000	0.244424	0.000000	0.000023	0.000002	0.000000	0.000000
29.619234	23.996677	11.808569	-1.289055	0.707989	3.005488	0.000000	0.156680	0.000000	0.000024	0.000001	0.000000	0.000000
30.168294	25.004987	11.270738	-0.536502	0.277341	3.066753	0.000000	0.066156	0.000000	0.000025	0.000000	0.000000	0.000000
30.717354	25.161050	11.192252	0.253946	-0.133552	3.077920	0.000000	-0.025541	0.000000	0.000025	-0.000000	0.000000	0.000000
31.015927	25.052325	11.262595	0.175932	-0.131282	3.072695	0.000000	-0.017501	0.000000	0.000024	-0.000000	0.000000	0.000000
31.349260	24.939610	11.360152	0.162215	-0.161388	3.066861	0.000000	-0.017501	0.000000	0.000024	-0.000000	0.000000	0.000000
31.682593	24.836039	11.477779	0.148497	-0.191495	3.061028	0.000000	-0.017501	0.000000	0.000024	-0.000000	0.000000	0.000000
32.017177	24.741276	11.616032	0.134728	-0.221714	3.055173	0.000000	-0.017501	0.000000	0.000024	-0.000000	0.000000	0.000000
32.314499	24.664799	11.755858	0.058061	-0.217859	3.049969	0.000000	-0.009533	0.000000	0.000024	-0.000000	0.000000	0.000000
32.863559	24.178434	12.234279	0.822507	-0.658631	3.019850	0.000000	-0.100017	0.000000	0.000023	-0.000001	0.000000	0.000000
33.412619	22.879706	13.219489	1.528855	-1.146317	2.940465	0.000000	-0.188728	0.000000	0.000023	-0.000002	0.000000	0.000000
33.961679	20.860351	14.781661	2.127212	-1.715652	2.813221	0.000000	-0.274091	0.000000	0.000021	-0.000003	0.000000	0.000000
34.510739	18.263005	17.032066	2.575314	-2.407190	2.640376	0.000000	-0.354592	0.000000	0.000020	-0.000003	0.000000	0.000000
34.956699	16.243428	19.044991	1.969514	-2.087653	2.498587	0.000000	-0.281656	0.000000	0.000018	-0.000003	0.000000	0.000000
35.397659	14.737429	20.710010	1.458714	-1.673875	2.389772	0.000000	-0.212356	0.000000	0.000017	-0.000002	0.000000	0.000000
35.838619	13.650937	21.975005	1.014558	-1.183936	2.310953	0.000000	-0.145475	0.000000	0.000016	-0.000002	0.000000	0.000000
36.279579	12.934312	22.782417	0.616754	-0.640129	2.261233	0.000000	-0.080251	0.000000	0.000016	-0.000001	0.000000	0.000000
36.721789	12.554120	23.095821	0.277804	-0.123880	2.240018	0.000000	-0.021433	0.000000	0.000015	-0.000001	0.000000	0.000000
37.019112	12.396510	23.173372	0.252293	-0.136951	2.233646	0.000000	-0.021433	0.000000	0.000015	-0.000001	0.000000	0.000000
37.352445	12.237848	23.269557	0.223692	-0.151605	2.226502	0.000000	-0.021433	0.000000	0.000014	-0.000001	0.000000	0.000000
37.685779	12.098254	23.375512	0.195091	-0.166260	2.219358	0.000000	-0.021433	0.000000	0.000014	-0.000001	0.000000	0.000000
38.020362	11.977310	23.491689	0.166383	-0.180969	2.212188	0.000000	-0.021433	0.000000	0.000014	-0.000001	0.000000	0.000000
38.317684	11.885956	23.603187	0.170016	-0.251915	2.205815	0.000000	-0.026842	0.000000	0.000013	-0.000001	0.000000	0.000000
38.758644	11.887531	23.563914	-0.173601	0.340640	2.207908	0.000000	0.036340	0.000000	0.000013	-0.000001	0.000000	0.000000
39.199604	12.194487	23.006918	-0.525149	0.917695	2.237926	0.000000	0.099936	0.000000	0.000013	-0.000000	0.000000	0.000000
39.640564	12.820849	21.957545	-0.900690	1.452996	2.296211	0.000000	0.164670	0.000000	0.000013	-0.000000	0.000000	0.000000
40.081524	13.795234	20.463538	-1.317382	1.922187	2.383427	0.000000	0.231279	0.000000	0.000013	0.000000	0.000000	0.000000
40.527484	15.179736	18.570300	-1.798088	2.305206	2.502039	0.000000	0.300928	0.000000	0.000013	0.000001	0.000000	0.000000
41.076544	16.946451	16.442734	-1.400573	1.592590	2.646735	0.000000	0.225365	0.000000	0.000013	0.000000	0.000000	0.000000
41.625604	18.219405	15.031197	-0.904128	0.993411	2.748782	0.000000	0.145805	0.000000	0.000013	-0.000000	0.000000	0.000000
42.174664	18.908684	14.235146	-0.343820	0.464990	2.806371	0.000000	0.063658	0.000000	0.000013	-0.000001	0.000000	0.000000
42.723724	18.965600	13.997881	0.240773	-0.030310	2.818480	0.000000	-0.019617	0.000000	0.000012	-0.000001	0.000000	0.000000
43.022297	18.856283	14.000512	0.174906	-0.015071	2.814822	0.000000	-0.012254	0.000000	0.000012	-0.000001	0.000000	0.000000
43.502297	18.700966	14.031440	0.148672	-0.049363	2.808940	0.000000	-0.012254	0.000000	0.000011	-0.000001	0.000000	0.000000
43.982297	18.570834	14.095289	0.122437	-0.083655	2.803059	0.000000	-0.012254	0.000000	0.000011	-0.000001	0.000000	0.000000
44.462297	18.465886	14.192058	0.096203	-0.117948	2.797178	0.000000	-0.012254	0.000000	0.000010	-0.000001	0.000000	0.000000
44.942297	18.386124	14.321748	0.069968	-0.152240	2.791296	0.000000	-0.012254	0.000000	0.000010	-0.000001	0.000000	0.000000
45.423547	18.331665	14.484646	-0.047160	-0.114855	2.785417	0.000000	0.001547	0.000000	0.000009	-0.000001	0.000000	0.000000
45.720870	18.364541	14.559128	-0.111394	-0.097616	2.785877	0.000000	0.008825	0.000000	0.000009	-0.000001	0.000000	0.000000
46.269930	18.177647	14.947871	0.449769	-0.614579	2.768151	0.000000	-0.073303	0.000000	0.000008	-0.000001	0.000000	0.000000
46.818990	17.388406	15.924864	0.979162	-1.175317	2.705622	0.000000	-0.154131	0.000000	0.000008	-0.000002	0.000000	0.000000
47.368050	16.052566	17.559697	1.439392	-1.819771	2.599400	0.000000	-0.232225	0.000000	0.000007	-0.000002	0.000000	0.000000
47.917110	14.264484	19.968816	1.797951	-2.593842	2.451369	0.000000	-0.306200	0.000000	0.000006	-0.000002	0.000000	0.000000
48.363070	12.873062	22.110680	1.333164	-2.188784	2.330109	0.000000	-0.237900	0.000000	0.000005	-0.000002	0.000000	0.000000
48.804030	11.877527	23.825572	0.933055	-1.685413	2.239665	0.000000	-0.172707	0.000000	0.000004	-0.000002	0.000000	0.000000
49.244990	11.214795	25.060891	0.575575	-1.105357	2.177508	0.000000	-0.109481	0.000000	0.000003	-0.000002	0.000000	0.000000
49.685950	10.854590	25.760431	0.244391	-0.475008	2.142931	0.000000	-0.047502	0.000000	0.000002	-0.000002	0.000000	0.000000
50.128160	10.780576	25.892080	-0.049307	0.113410	2.135549	0.000000	0.008700	0.000000	0.000002	-0.000002	0.000000	0.000000
50.425482	10.818116	25.828100	-0.076954	0.101779	2.138136	0.000000	0.008700	0.000000	0.000001	-0.000002	0.000000	0.000000
50.758816	10.879750	25.764594	-0.107949	0.088740	2.141036	0.000000	0.008700	0.000000	0.000001	-0.000002	0.000000	0.000000
51.092149	10.962048	25.709780	-0.138944	0.075700	2.143937	0.000000	0.008700	0.000000	0.000000	-0.000002	0.000000	0.000000
51.426732	11.065209	25.664024	-0.080287	-0.145587	2.146826	0.000000	-0.008716	0.000000	-0.000000	-0.000002	0.000000	0.000000
51.724055	11.120992	25.754115	-0.080058	-0.220576	2.144235	0.000000	-0.013975	0.000000	-0.000001	-0.000002	0.000000	0.000000
52.165015	11.336818	25.662106	-0.411245	0.428437	2.151662	0.000000	0.047688	0.000000	-0.000001	-0.000002	0.000000	0.000000
52.605975	11.851874	25.004162	-0.761221	1.057956	2.186373	0.000000	0.109894	0.000000	-0.000002	-0.000002	0.000000	0.000000
53.046935	12.689692	23.810220	-1.145974	1.639339	2.248765	0.000000	0.173352	0.000000	-0.000003	-0.000002	0.000000	0.000000
53.487895	13.888549	22.134601	-1.583084	2.146134	2.339547	0.000000	0.238784	0.000000	-0.000003	-0.000002	0.000000	0.000000
53.933855	15.523771	20.028494	-2.096747	2.556619	2.461258	0.000000	0.307335	0.000000	-0.000004	-0.000002	0.000000	0.000000
54.482915	17.629105	17.658546	-1.714988	1.785233	2.609824	0.000000	0.233031	0.000000	-0.000005	-0.000002	0.000000	0.000000
55.031975	19.245816	16.061293	-1.212091	1.141006	2.716396	0.000000	0.154593	0.000000	-0.000006	-0.000001	0.000000	0.000000
55.581035	20.259709	15.122967	-0.623578	0.578050	2.779084	0.000000	0.073413	0.000000	-0.000007	-0.000001	0.000000	0.000000
56.130095	20.599169	14.776733	0.008982	0.056267	2.796775	0.000000	-0.009068	0.000000	-0.000007	-0.000001	0.000000	0.000000
56.428668	20.630283	14.726164	-0.059367	0.074491	2.796250	0.000000	-0.001761	0.000000	-0.000008	-0.000001	0.000000	0.000000
56.762001	20.675266	14.684090	-0.075581	0.051730	2.795663	0.000000	-0.001761	0.000000	-0.000008	-0.000001	0.000000	0.000000
57.095334	20.731058	14.657191	-0.091796	0.028969	2.795077	0.000000	-0.001761	0.000000	-0.000008	-0.000001	0.000000	0.000000
57.429918	20.797930	14.645450	-0.108071	0.006122	2.794488	0.000000	-0.001761	0.000000	-0.000009	-0.000001	0.000000	0.000000
57.727240	20.866494	14.647845	-0.177058	0.024095	2.793965	0.000000	0.005540	0.000000	-0.000009	-0.000001	0.000000	0.000000
58.276300	20.704965	14.902620	0.469508	-0.490855	2.774368	0.000000	-0.076820	0.000000	-0.000010	-0.000001	0.000000	0.000000
58.825360	19.847518	15.738638	1.082911	-1.040767	2.709859	0.000000	-0.157817	0.000000	-0.000010	-0.000000	0.000000	0.000000
59.374420	18.354718	17.215446	1.619823	-1.664811	2.601581	0.000000	-0.236015	0.000000	-0.000010	-0.000000	0.000000	0.000000
59.923480	16.332010	19.438233	2.042318	-2.407436	2.451455	0.000000	-0.310027	0.000000	-0.000010	0.000000	0.000000	0.000000
60.369440	14.748887	21.413835	1.520173	-2.003862	2.328485	0.000000	-0.241747	0.000000	-0.000010	-0.000000	0.000000	0.000000
60.810400	13.610303	22.969444	1.071681	-1.510491	2.236331	0.000000	-0.176618	0.000000	-0.000010	-0.000000	0.000000	0.000000
61.251360	12.844249	24.057855	0.672151	-0.948394	2.172427	0.000000	-0.113500	0.000000	-0.000010	-0.000001	0.000000	0.000000
61.692320	12.415726	24.629547	0.303330	-0.343145	2.136044	0.000000	-0.051675	0.000000	-0.000011	-0.000001	0.000000	0.000000
62.134530	12.305210	24.657966	-0.021555	0.217188	2.126774	0.000000	0.004345	0.000000	-0.000011	-0.000001	0.000000	0.000000
62.431853	12.325215	24.532570	-0.045729	0.204561	2.128066	0.000000	0.004345	0.000000	-0.000011	-0.000001	0.000000	0.000000
62.765186	12.364735	24.400915	-0.072830	0.190405	2.129515	0.000000	0.004345	0.000000	-0.000012	-0.000001	0.000000	0.000000
63.098520	12.422322	24.278697	-0.099932	0.176249	2.130964	0.000000	0.004345	0.000000	-0.000012	-0.000001	0.000000	0.000000
63.433103	12.498295	24.165511	-0.127135	0.162040	2.132418	0.000000	0.004345	0.000000	-0.000013	-0.000001	0.000000	0.000000
63.730426	12.581082	24.072909	-0.120452	0.090372	2.133711	0.000000	-0.000888	0.000000	-0.000013	-0.000001	0.000000	0.000000
64.171386	12.847555	23.728101	-0.486144	0.688600	2.146859	0.000000	0.060578	0.000000	-0.000014	-0.000001	0.000000	0.000000
64.612346	13.445078	22.867558	-0.874047	1.255497	2.187238	0.000000	0.122733	0.000000	-0.000014	-0.000002	0.000000	0.000000
65.053306	14.400949	21.530433	-1.301882	1.765270	2.255306	0.000000	0.186286	0.000000	-0.000015	-0.000002	0.000000	0.000000
65.494266	15.758839	19.777564	-1.789197	2.194724	2.351840	0.000000	0.251961	0.000000	-0.000016	-0.000003	0.000000	0.000000
65.940226	17.603947	17.663907	-2.362946	2.525072	2.479511	0.000000	0.320908	0.000000	-0.000017	-0.000003	0.000000	0.000000
66.489286	19.969312	15.299427	-1.919582	1.806762	2.635346	0.000000	0.245894	0.000000	-0.000019	-0.000002	0.000000	0.000000
67.038346	21.770022	13.648866	-1.340629	1.217143	2.748734	0.000000	0.166519	0.000000	-0.000020	-0.000002	0.000000	0.000000
67.587406	22.878884	12.594656	-0.666981	0.714218	2.817664	0.000000	0.084191	0.000000	-0.000021	-0.000001	0.000000	0.000000
68.136466	23.217573	12.061709	0.053779	0.262165	2.840912	0.000000	0.000369	0.000000	-0.000021	-0.000000	0.000000	0.000000
68.435038	23.225530	11.894364	-0.019755	0.266797	2.843239	0.000000	0.007793	0.000000	-0.000021	-0.000001	0.000000	0.000000
68.768372	23.243486	11.726505	-0.034113	0.236778	2.845837	0.000000	0.007793	0.000000	-0.000022	-0.000001	0.000000	0.000000
69.101705	23.271013	11.578660	-0.048470	0.206759	2.848435	0.000000	0.007793	0.000000	-0.000022	-0.000001	0.000000	0.000000
69.436288	23.308270	11.450385	-0.062882	0.176627	2.851043	0.000000	0.007793	0.000000	-0.000022	-0.000001	0.000000	0.000000
69.733611	23.349470	11.353316	-0.136707	0.179520	2.853360	0.000000	0.015250	0.000000	-0.000022	-0.000001	0.000000	0.000000
70.282671	23.098571	11.383587	0.590964	-0.234978	2.838552	0.000000	-0.069112	0.000000	-0.000022	0.000000	0.000000	0.000000
