#ParticleID	Turn	x[m]	xp	y[m]	yp	z[m]	dE[GeV]# s	beta_x	beta_y	alpha_x	alpha_y	D_x	D_y	D_px	D_py	orbit_x	orbit_px	orbit_y	orbit_py
0.300000	11.817005	25.005842	-0.011369	-0.027414	2.618048	0.000000	0.000038	0.000000	-0.000001	0.000001	0.000000	0.000000
0.601250	11.831536	25.025991	-0.036865	-0.039471	2.618059	0.000000	0.000038	0.000000	-0.000001	0.000001	0.000000	0.000000
0.898573	11.860940	25.053000	-0.032943	-0.112807	2.618070	0.000000	-0.006382	0.000000	-0.000001	0.000001	0.000000	0.000000
1.339533	12.042160	24.874588	-0.379584	0.515866	2.631549	0.000000	0.067574	0.000000	-0.000000	0.000001	0.000000	0.000000
1.780493	12.535554	24.150009	-0.743569	1.121068	2.677778	0.000000	0.142300	0.000000	0.000000	0.000001	0.000000	0.000000
2.221453	13.363663	22.912229	-1.141524	1.675262	2.757283	0.000000	0.218647	0.000000	0.000001	0.000001	0.000000	0.000000
2.662413	14.564321	21.217567	-1.591633	2.153233	2.870971	0.000000	0.297484	0.000000	0.000001	0.000001	0.000000	0.000000
3.108373	16.213139	19.118275	-2.118750	2.534366	3.021998	0.000000	0.380199	0.000000	0.000002	0.000001	0.000000	0.000000
3.657433	18.327461	16.760480	-1.709258	1.785221	3.205478	0.000000	0.287160	0.000000	0.000002	0.000001	0.000000	0.000000
4.206493	19.922750	15.151101	-1.179033	1.163234	3.336398	0.000000	0.189028	0.000000	0.000003	0.000001	0.000000	0.000000
4.755553	20.886322	14.175505	-0.565527	0.624101	3.412437	0.000000	0.087544	0.000000	0.000003	0.000001	0.000000	0.000000
5.304613	21.150115	13.764203	0.087925	0.129422	3.432245	0.000000	-0.015494	0.000000	0.000003	0.000001	0.000000	0.000000
5.603185	21.134829	13.672099	0.018534	0.143099	3.430296	0.000000	-0.006526	0.000000	0.000004	0.000001	0.000000	0.000000
5.936519	21.127732	13.584993	0.002757	0.118219	3.428121	0.000000	-0.006526	0.000000	0.000004	0.000001	0.000000	0.000000
6.269852	21.131153	13.514473	-0.013021	0.093339	3.425945	0.000000	-0.006526	0.000000	0.000004	0.000001	0.000000	0.000000
6.604435	21.145165	13.460369	-0.028857	0.068366	3.423761	0.000000	-0.006526	0.000000	0.000004	0.000001	0.000000	0.000000
6.901758	21.166508	13.426313	-0.098232	0.081254	3.421821	0.000000	0.002414	0.000000	0.000004	0.000001	0.000000	0.000000
7.450818	20.913626	13.597848	0.556079	-0.395512	3.394943	0.000000	-0.100171	0.000000	0.000005	0.000001	0.000000	0.000000
7.999878	19.959647	14.305233	1.171112	-0.900450	3.312146	0.000000	-0.200980	0.000000	0.000005	0.000000	0.000000	0.000000
8.548938	18.371956	15.598856	1.703423	-1.469525	3.174898	0.000000	-0.298223	0.000000	0.000005	0.000000	0.000000	0.000000
9.097998	16.262700	17.570857	2.115413	-2.143270	2.985632	0.000000	-0.390177	0.000000	0.000005	0.000000	0.000000	0.000000
9.543958	14.617077	19.328019	1.587775	-1.780256	2.829937	0.000000	-0.308467	0.000000	0.000005	0.000000	0.000000	0.000000
9.984918	13.420115	20.708066	1.136969	-1.337475	2.711162	0.000000	-0.230753	0.000000	0.000005	0.000000	0.000000	0.000000
10.425878	12.596407	21.669186	0.738107	-0.833839	2.626045	0.000000	-0.155668	0.000000	0.000006	0.000000	0.000000	0.000000
10.866838	12.108319	22.167649	0.372967	-0.292264	2.573615	0.000000	-0.082355	0.000000	0.000006	0.000001	0.000000	0.000000
11.309048	11.933418	22.180256	0.054025	0.208158	2.553256	0.000000	-0.016242	0.000000	0.000006	0.000001	0.000000	0.000000
11.606371	11.908722	22.060634	0.029037	0.194173	2.548426	0.000000	-0.016242	0.000000	0.000006	0.000001	0.000000	0.000000
12.086371	11.900209	21.885066	-0.011303	0.171594	2.540630	0.000000	-0.016242	0.000000	0.000007	0.000001	0.000000	0.000000
12.566371	11.930424	21.731173	-0.051644	0.149015	2.532833	0.000000	-0.016242	0.000000	0.000007	0.000001	0.000000	0.000000
13.046371	11.999365	21.598956	-0.091984	0.126437	2.525037	0.000000	-0.016242	0.000000	0.000007	0.000001	0.000000	0.000000
13.526371	12.107034	21.488414	-0.132325	0.103858	2.517240	0.000000	-0.016242	0.000000	0.000008	0.000001	0.000000	0.000000
14.007621	12.253861	21.399345	-0.172771	0.081221	2.509423	0.000000	-0.016242	0.000000	0.000008	0.000001	0.000000	0.000000
14.304943	12.364028	21.355205	-0.167441	0.014870	2.504594	0.000000	-0.022384	0.000000	0.000008	0.000001	0.000000	0.000000
14.745903	12.670268	21.108352	-0.529678	0.542809	2.510357	0.000000	0.048548	0.000000	0.000009	0.000001	0.000000	0.000000
15.186863	13.305396	20.405052	-0.916115	1.046050	2.547490	0.000000	0.120032	0.000000	0.000009	0.000001	0.000000	0.000000
15.627823	14.298428	19.277307	-1.344407	1.501696	2.616415	0.000000	0.192884	0.000000	0.000010	0.000001	0.000000	0.000000
16.068783	15.694735	17.776427	-1.834121	1.889016	2.717919	0.000000	0.267932	0.000000	0.000011	0.000002	0.000000	0.000000
16.514743	17.581765	15.949198	-2.412388	2.191134	2.854851	0.000000	0.346494	0.000000	0.000011	0.000002	0.000000	0.000000
17.063803	20.005342	13.908898	-1.975529	1.546787	3.021362	0.000000	0.259147	0.000000	0.000012	0.000002	0.000000	0.000000
17.612863	21.869266	12.511878	-1.399129	1.012615	3.138580	0.000000	0.167202	0.000000	0.000013	0.000001	0.000000	0.000000
18.161923	23.041878	11.658632	-0.723901	0.550570	3.204424	0.000000	0.072292	0.000000	0.000014	0.000001	0.000000	0.000000
18.710983	23.440351	11.288385	0.002460	0.127740	3.217729	0.000000	-0.023900	0.000000	0.000014	0.000000	0.000000	0.000000
19.009556	23.479266	11.202588	-0.071560	0.130127	3.213103	0.000000	-0.015494	0.000000	0.000014	0.000000	0.000000	0.000000
19.342889	23.531729	11.125923	-0.085829	0.099868	3.207938	0.000000	-0.015494	0.000000	0.000014	0.000000	0.000000	0.000000
19.676223	23.593706	11.069430	-0.100099	0.069609	3.202773	0.000000	-0.015494	0.000000	0.000014	0.000000	0.000000	0.000000
20.010806	23.665774	11.032875	-0.231675	0.093901	3.197609	0.000000	0.000349	0.000000	0.000014	0.000000	0.000000	0.000000
20.308129	23.807474	10.985121	-0.307110	0.095413	3.197713	0.000000	0.008703	0.000000	0.000014	0.000000	0.000000	0.000000
20.857189	23.734100	11.102574	0.439955	-0.310592	3.176266	0.000000	-0.086709	0.000000	0.000015	-0.000000	0.000000	0.000000
21.406249	22.852638	11.675328	1.155944	-0.738720	3.102779	0.000000	-0.180583	0.000000	0.000014	-0.000000	0.000000	0.000000
21.955309	21.225349	12.744180	1.790283	-1.219465	2.978553	0.000000	-0.271254	0.000000	0.000014	-0.000001	0.000000	0.000000
22.504369	18.967178	14.385262	2.298165	-1.787070	2.805794	0.000000	-0.357113	0.000000	0.000013	-0.000001	0.000000	0.000000
22.950329	17.187550	15.858625	1.706474	-1.502791	2.663833	0.000000	-0.279889	0.000000	0.000013	-0.000001	0.000000	0.000000
23.391289	15.911877	17.033307	1.197444	-1.150991	2.556739	0.000000	-0.206307	0.000000	0.000012	-0.000001	0.000000	0.000000
23.832249	15.059399	17.873364	0.743122	-0.746822	2.481543	0.000000	-0.135074	0.000000	0.000012	-0.000000	0.000000	0.000000
24.273209	14.591168	18.340572	0.322751	-0.308673	2.437389	0.000000	-0.065381	0.000000	0.000012	-0.000000	0.000000	0.000000
24.715418	14.485911	18.413430	-0.047442	0.098301	2.423771	0.000000	-0.002375	0.000000	0.000012	0.000000	0.000000	0.000000
25.012741	14.520239	18.359823	-0.068013	0.081998	2.423065	0.000000	-0.002375	0.000000	0.000012	0.000000	0.000000	0.000000
25.346075	14.573269	18.311250	-0.091076	0.063721	2.422273	0.000000	-0.002375	0.000000	0.000012	0.000000	0.000000	0.000000
25.679408	14.641674	18.274862	-0.114139	0.045443	2.421482	0.000000	-0.002375	0.000000	0.000012	0.000000	0.000000	0.000000
26.013991	14.725498	18.250962	-0.017825	-0.120964	2.420663	0.000000	-0.022013	0.000000	0.000012	0.000000	0.000000	0.000000
26.311314	14.742103	18.327807	-0.001875	-0.182433	2.414118	0.000000	-0.027932	0.000000	0.000012	0.000000	0.000000	0.000000
26.752274	14.925390	18.289921	-0.415357	0.268023	2.416914	0.000000	0.040629	0.000000	0.000012	0.000000	0.000000	0.000000
27.193234	15.480293	17.858650	-0.847815	0.706283	2.450017	0.000000	0.109652	0.000000	0.000013	0.000001	0.000000	0.000000
27.634194	16.432164	17.053616	-1.319008	1.112409	2.513801	0.000000	0.179925	0.000000	0.000013	0.000001	0.000000	0.000000
28.075154	17.824492	15.911447	-1.850462	1.467920	2.608995	0.000000	0.252246	0.000000	0.000014	0.000001	0.000000	0.000000
28.521114	19.745078	14.466908	-2.471424	1.757555	2.738286	0.000000	0.327884	0.000000	0.000014	0.000002	0.000000	0.000000
29.070174	22.186158	12.857382	-1.948181	1.191167	2.895643	0.000000	0.244462	0.000000	0.000015	0.000001	0.000000	0.000000
29.619234	23.973226	11.819858	-1.287328	0.709623	3.005937	0.000000	0.156703	0.000000	0.000016	0.000001	0.000000	0.000000
30.168294	24.980053	11.280435	-0.535545	0.278624	3.067211	0.000000	0.066165	0.000000	0.000016	0.000000	0.000000	0.000000
30.717354	25.135522	11.200691	0.254067	-0.132529	3.078378	0.000000	-0.025547	0.000000	0.000016	-0.000000	0.000000	0.000000
31.015927	25.026691	11.270401	0.176101	-0.130209	3.073152	0.000000	-0.017505	0.000000	0.000016	-0.000000	0.000000	0.000000
31.349260	24.913868	11.367232	0.162369	-0.160286	3.067317	0.000000	-0.017505	0.000000	0.000016	-0.000000	0.000000	0.000000
31.682593	24.810199	11.484115	0.148637	-0.190363	3.061482	0.000000	-0.017505	0.000000	0.000016	-0.000000	0.000000	0.000000
32.017177	24.715348	11.621601	0.134853	-0.220554	3.055625	0.000000	-0.017505	0.000000	0.000016	-0.000000	0.000000	0.000000
32.314499	24.638800	11.760729	0.058236	-0.216657	3.050420	0.000000	-0.009536	0.000000	0.000016	-0.000000	0.000000	0.000000
32.863559	24.152719	12.237878	0.821821	-0.657501	3.020296	0.000000	-0.100035	0.000000	0.000015	-0.000001	0.000000	0.000000
33.412619	22.855198	13.221848	1.527356	-1.145177	2.940897	0.000000	-0.188759	0.000000	0.000015	-0.000001	0.000000	0.000000
33.961679	20.837890	14.782726	2.125006	-1.714421	2.813632	0.000000	-0.274136	0.000000	0.000014	-0.000002	0.000000	0.000000
34.510739	18.243286	17.031689	2.572557	-2.405780	2.640758	0.000000	-0.354650	0.000000	0.000013	-0.000002	0.000000	0.000000
34.956699	16.225894	19.043294	1.967356	-2.086114	2.498944	0.000000	-0.281704	0.000000	0.000012	-0.000002	0.000000	0.000000
35.397659	14.721574	20.706925	1.457051	-1.672277	2.390109	0.000000	-0.212396	0.000000	0.000011	-0.000001	0.000000	0.000000
35.838619	13.636359	21.970512	1.013314	-1.182353	2.311275	0.000000	-0.145506	0.000000	0.000011	-0.000001	0.000000	0.000000
36.279579	12.920668	22.776561	0.615872	-0.638633	2.261543	0.000000	-0.080273	0.000000	0.000010	-0.000001	0.000000	0.000000
36.721789	12.541111	23.088706	0.277214	-0.122525	2.240320	0.000000	-0.021449	0.000000	0.000010	-0.000001	0.000000	0.000000
37.019112	12.383857	23.165451	0.251684	-0.135595	2.233943	0.000000	-0.021449	0.000000	0.000010	-0.000001	0.000000	0.000000
37.352445	12.225609	23.260732	0.223062	-0.150249	2.226794	0.000000	-0.021449	0.000000	0.000010	-0.000001	0.000000	0.000000
37.685779	12.086441	23.365783	0.194440	-0.164903	2.219644	0.000000	-0.021449	0.000000	0.000009	-0.000001	0.000000	0.000000
38.020362	11.965940	23.481052	0.165711	-0.179612	2.212468	0.000000	-0.021449	0.000000	0.000009	-0.000001	0.000000	0.000000
38.317684	11.874992	23.591743	0.169300	-0.250532	2.206091	0.000000	-0.026858	0.000000	0.000009	-0.000001	0.000000	0.000000
38.758644	11.877089	23.551388	-0.174075	0.341700	2.208178	0.000000	0.036331	0.000000	0.000009	-0.000000	0.000000	0.000000
39.199604	12.184365	22.993618	-0.525403	0.918386	2.238193	0.000000	0.099933	0.000000	0.000009	-0.000000	0.000000	0.000000
39.640564	12.810858	21.943811	-0.900735	1.453285	2.296478	0.000000	0.164674	0.000000	0.000009	0.000000	0.000000	0.000000
40.081524	13.785190	20.449733	-1.317219	1.922061	2.383697	0.000000	0.231290	0.000000	0.000009	0.000000	0.000000	0.000000
40.527484	15.169451	18.556793	-1.797709	2.304667	2.502315	0.000000	0.300946	0.000000	0.000009	0.000000	0.000000	0.000000
41.076544	16.935966	16.429621	-1.400590	1.592409	2.647019	0.000000	0.225374	0.000000	0.000009	0.000000	0.000000	0.000000
41.625604	18.209158	15.018091	-0.904540	0.993576	2.749069	0.000000	0.145805	0.000000	0.000009	-0.000000	0.000000	0.000000
42.174664	18.899095	14.221666	-0.344598	0.465512	2.806655	0.000000	0.063649	0.000000	0.000009	-0.000000	0.000000	0.000000
42.723724	18.957042	13.983616	0.239684	-0.029394	2.818756	0.000000	-0.019636	0.000000	0.000008	-0.000001	0.000000	0.000000
43.022297	18.848363	13.985727	0.173837	-0.014212	2.815092	0.000000	-0.012271	0.000000	0.000008	-0.000001	0.000000	0.000000
43.502297	18.694073	14.015848	0.147601	-0.048540	2.809202	0.000000	-0.012271	0.000000	0.000008	-0.000001	0.000000	0.000000
43.982297	18.564969	14.078924	0.121365	-0.082868	2.803312	0.000000	-0.012271	0.000000	0.000008	-0.000001	0.000000	0.000000
44.462297	18.461052	14.174954	0.095129	-0.117195	2.797422	0.000000	-0.012271	0.000000	0.000007	-0.000001	0.000000	0.000000
44.942297	18.382321	14.303939	0.068893	-0.151523	2.791532	0.000000	-0.012271	0.000000	0.000007	-0.000001	0.000000	0.000000
45.423547	18.328897	14.466164	-0.048223	-0.114266	2.785644	0.000000	0.001530	0.000000	0.000007	-0.000001	0.000000	0.000000
45.720870	18.362407	14.540302	-0.112457	-0.097098	2.786100	0.000000	0.008809	0.000000	0.000006	-0.000001	0.000000	0.000000
46.269930	18.176709	14.928160	0.448665	-0.613475	2.768362	0.000000	-0.073326	0.000000	0.000006	-0.000001	0.000000	0.000000
46.818990	17.388667	15.903585	0.978095	-1.173548	2.705819	0.000000	-0.154160	0.000000	0.000006	-0.000001	0.000000	0.000000
47.368050	16.053944	17.536054	1.438438	-1.817210	2.599579	0.000000	-0.232261	0.000000	0.000005	-0.000001	0.000000	0.000000
47.917110	14.266819	19.941845	1.797176	-2.590308	2.451527	0.000000	-0.306241	0.000000	0.000004	-0.000001	0.000000	0.000000
48.363070	12.876072	22.080815	1.332419	-2.185854	2.330249	0.000000	-0.237937	0.000000	0.000004	-0.000001	0.000000	0.000000
48.804030	11.881193	23.793438	0.932306	-1.683218	2.239790	0.000000	-0.172741	0.000000	0.000003	-0.000001	0.000000	0.000000
49.244990	11.219137	25.027183	0.574787	-1.103997	2.177618	0.000000	-0.109511	0.000000	0.000003	-0.000001	0.000000	0.000000
49.685950	10.859656	25.725916	0.243529	-0.474545	2.143027	0.000000	-0.047530	0.000000	0.000002	-0.000001	0.000000	0.000000
50.128160	10.786452	25.857562	-0.050269	0.113040	2.135633	0.000000	0.008674	0.000000	0.000002	-0.000001	0.000000	0.000000
50.425482	10.824561	25.793806	-0.077903	0.101394	2.138213	0.000000	0.008674	0.000000	0.000002	-0.000001	0.000000	0.000000
50.758816	10.886823	25.730562	-0.108884	0.088338	2.141104	0.000000	0.008674	0.000000	0.000001	-0.000001	0.000000	0.000000
51.092149	10.969740	25.676021	-0.139865	0.075283	2.143996	0.000000	0.008674	0.000000	0.000001	-0.000001	0.000000	0.000000
51.426732	11.073513	25.630549	-0.081127	-0.145750	2.146877	0.000000	-0.008743	0.000000	0.000001	-0.000001	0.000000	0.000000
51.724055	11.129790	25.720741	-0.080860	-0.220672	2.144278	0.000000	-0.014001	0.000000	0.000000	-0.000001	0.000000	0.000000
52.165015	11.346418	25.629206	-0.412268	0.427462	2.151693	0.000000	0.047663	0.000000	-0.000000	-0.000001	0.000000	0.000000
52.605975	11.862490	24.972495	-0.762511	1.056146	2.186393	0.000000	0.109870	0.000000	-0.000001	-0.000001	0.000000	0.000000
53.046935	12.701585	23.780488	-1.147590	1.636777	2.248773	0.000000	0.173328	0.000000	-0.000001	-0.000001	0.000000	0.000000
53.487895	13.902038	22.107419	-1.585100	2.142935	2.339544	0.000000	0.238760	0.000000	-0.000001	-0.000001	0.000000	0.000000
53.933855	15.539272	20.004397	-2.099259	2.552929	2.461244	0.000000	0.307310	0.000000	-0.000002	-0.000001	0.000000	0.000000
54.482915	17.647158	17.637972	-1.717096	1.782470	2.609797	0.000000	0.233007	0.000000	-0.000002	-0.000001	0.000000	0.000000
55.031975	19.265892	16.043338	-1.213645	1.138972	2.716356	0.000000	0.154570	0.000000	-0.000003	-0.000001	0.000000	0.000000
55.581035	20.281137	15.106913	-0.624469	0.576601	2.779031	0.000000	0.073392	0.000000	-0.000003	-0.000001	0.000000	0.000000
56.130095	20.621180	14.761998	0.008817	0.055299	2.796711	0.000000	-0.009088	0.000000	-0.000004	-0.000001	0.000000	0.000000
56.428668	20.652421	14.712036	-0.059573	0.073467	2.796179	0.000000	-0.001780	0.000000	-0.000004	-0.000001	0.000000	0.000000
56.762001	20.697536	14.670651	-0.075770	0.050688	2.795586	0.000000	-0.001780	0.000000	-0.000004	-0.000001	0.000000	0.000000
57.095334	20.753449	14.644452	-0.091968	0.027908	2.794993	0.000000	-0.001780	0.000000	-0.000005	-0.000001	0.000000	0.000000
57.429918	20.820430	14.633427	-0.108226	0.005043	2.794398	0.000000	-0.001780	0.000000	-0.000005	-0.000001	0.000000	0.000000
57.727240	20.889082	14.636469	-0.177255	0.022968	2.793869	0.000000	0.005520	0.000000	-0.000005	-0.000001	0.000000	0.000000
58.276300	20.727352	14.892309	0.470068	-0.491678	2.774262	0.000000	-0.076837	0.000000	-0.000005	-0.000001	0.000000	0.000000
58.825360	19.868891	15.729092	1.084188	-1.041346	2.709744	0.000000	-0.157830	0.000000	-0.000006	-0.000000	0.000000	0.000000
59.374420	18.374335	17.206420	1.621726	-1.665186	2.601459	0.000000	-0.236025	0.000000	-0.000006	-0.000000	0.000000	0.000000
59.923480	16.349252	19.429519	2.044713	-2.407634	2.451329	0.000000	-0.310032	0.000000	-0.000006	0.000000	0.000000	0.000000
60.369440	14.764230	21.405438	1.522054	-2.004372	2.328356	0.000000	-0.241756	0.000000	-0.000006	-0.000000	0.000000	0.000000
60.810400	13.624179	22.961624	1.073137	-1.511287	2.236198	0.000000	-0.176630	0.000000	-0.000006	-0.000000	0.000000	0.000000
61.251360	12.857003	24.050851	0.673250	-0.949439	2.172288	0.000000	-0.113516	0.000000	-0.000006	-0.000000	0.000000	0.000000
61.692320	12.427651	24.623558	0.304121	-0.344393	2.135897	0.000000	-0.051694	0.000000	-0.000006	-0.000001	0.000000	0.000000
62.134530	12.316559	24.653149	-0.021010	0.215809	2.126617	0.000000	0.004323	0.000000	-0.000007	-0.000001	0.000000	0.000000
62.431853	12.336233	24.528572	-0.045161	0.203187	2.127903	0.000000	0.004323	0.000000	-0.000007	-0.000001	0.000000	0.000000
62.765186	12.375366	24.397831	-0.072237	0.189036	2.129344	0.000000	0.004323	0.000000	-0.000007	-0.000001	0.000000	0.000000
63.098520	12.432549	24.276524	-0.099312	0.174885	2.130785	0.000000	0.004323	0.000000	-0.000007	-0.000001	0.000000	0.000000
63.433103	12.508098	24.164249	-0.126490	0.160682	2.132232	0.000000	0.004323	0.000000	-0.000008	-0.000001	0.000000	0.000000
63.730426	12.590495	24.072453	-0.119762	0.089022	2.133517	0.000000	-0.000910	0.000000	-0.000008	-0.000001	0.000000	0.000000
64.171386	12.856449	23.728830	-0.485651	0.687273	2.146655	0.000000	0.060551	0.000000	-0.000008	-0.000001	0.000000	0.000000
64.612346	13.453615	22.869424	-0.873728	1.254254	2.187020	0.000000	0.122701	0.000000	-0.000009	-0.000001	0.000000	0.000000
65.053306	14.409276	21.533338	-1.301723	1.764167	2.255072	0.000000	0.186248	0.000000	-0.000009	-0.000001	0.000000	0.000000
65.494266	15.767093	19.781361	-1.789189	2.193811	2.351588	0.000000	0.251917	0.000000	-0.000010	-0.000002	0.000000	0.000000
65.940226	17.612262	17.668415	-2.363091	2.524394	2.479237	0.000000	0.320856	0.000000	-0.000011	-0.000002	0.000000	0.000000
66.489286	19.977597	15.304679	-1.919381	1.806079	2.635045	0.000000	0.245852	0.000000	-0.000012	-0.000002	0.000000	0.000000
67.038346	21.777903	13.654892	-1.340097	1.216407	2.748413	0.000000	0.166487	0.000000	-0.000012	-0.000001	0.000000	0.000000
67.587406	22.886014	12.601543	-0.666154	0.713376	2.817327	0.000000	0.084170	0.000000	-0.000013	-0.000001	0.000000	0.000000
68.136466	23.223660	12.069605	0.054842	0.261159	2.840567	0.000000	0.000359	0.000000	-0.000013	-0.000000	0.000000	0.000000
68.435038	23.230988	11.902841	-0.018701	0.265841	2.842891	0.000000	0.007781	0.000000	-0.000013	-0.000000	0.000000	0.000000
68.768372	23.248240	11.735608	-0.033055	0.235857	2.845485	0.000000	0.007781	0.000000	-0.000013	-0.000000	0.000000	0.000000
69.101705	23.275061	11.588365	-0.047408	0.205874	2.848079	0.000000	0.007781	0.000000	-0.000013	-0.000000	0.000000	0.000000
69.436288	23.311606	11.460671	-0.061816	0.175777	2.850682	0.000000	0.007781	0.000000	-0.000014	-0.000000	0.000000	0.000000
69.733611	23.352171	11.364097	-0.135641	0.178729	2.852996	0.000000	0.015237	0.000000	-0.000014	-0.000000	0.000000	0.000000
70.282671	23.100061	11.395406	0.592089	-0.236087	2.838183	0.000000	-0.069113	0.000000	-0.000014	0.000000	0.000000	0.000000
