#ParticleID	Turn	x[m]	xp	y[m]	yp	z[m]	dE[GeV]# s	beta_x	beta_y	alpha_x	alpha_y	D_x	D_y	D_px	D_py	orbit_x	orbit_px	orbit_y	orbit_py
0.300000	11.821270	24.988235	-0.011904	-0.027559	2.618077	0.000000	0.000026	0.000000	0.000000	0.000001	0.000000	0.000000
0.601250	11.836120	25.008474	-0.037391	-0.039623	2.618084	0.000000	0.000026	0.000000	0.000000	0.000001	0.000000	0.000000
0.898573	11.865834	25.035576	-0.033448	-0.112925	2.618092	0.000000	-0.006394	0.000000	0.000001	0.000001	0.000000	0.000000
1.339533	12.047553	24.857472	-0.380214	0.515290	2.631565	0.000000	0.067562	0.000000	0.000001	0.000001	0.000000	0.000000
1.780493	12.541567	24.133593	-0.744352	1.120060	2.677789	0.000000	0.142289	0.000000	0.000001	0.000001	0.000000	0.000000
2.221453	13.370447	22.896875	-1.142496	1.673869	2.757289	0.000000	0.218635	0.000000	0.000001	0.000001	0.000000	0.000000
2.662413	14.572062	21.203590	-1.592838	2.151517	2.870972	0.000000	0.297472	0.000000	0.000002	0.000001	0.000000	0.000000
3.108373	16.222080	19.105944	-2.120247	2.532405	3.021994	0.000000	0.380187	0.000000	0.000002	0.000001	0.000000	0.000000
3.657433	18.337930	16.750027	-1.710527	1.783743	3.205467	0.000000	0.287149	0.000000	0.000003	0.000001	0.000000	0.000000
4.206493	19.934445	15.142056	-1.179984	1.162132	3.336381	0.000000	0.189017	0.000000	0.000003	0.000001	0.000000	0.000000
4.755553	20.898856	14.167500	-0.566094	0.623298	3.412415	0.000000	0.087533	0.000000	0.000003	0.000001	0.000000	0.000000
5.304613	21.163042	13.756944	0.087783	0.128860	3.432218	0.000000	-0.015503	0.000000	0.000004	0.000000	0.000000	0.000000
5.603185	21.147857	13.665188	0.018367	0.142510	3.430266	0.000000	-0.006536	0.000000	0.000004	0.000000	0.000000	0.000000
5.936519	21.140869	13.578478	0.002599	0.117622	3.428087	0.000000	-0.006536	0.000000	0.000004	0.000000	0.000000	0.000000
6.269852	21.144391	13.508359	-0.013168	0.092734	3.425909	0.000000	-0.006536	0.000000	0.000004	0.000000	0.000000	0.000000
6.604435	21.158498	13.454664	-0.028995	0.067752	3.423722	0.000000	-0.006536	0.000000	0.000004	0.000000	0.000000	0.000000
6.901758	21.179921	13.420976	-0.098396	0.080618	3.421778	0.000000	0.002404	0.000000	0.000004	0.000000	0.000000	0.000000
7.450818	20.926971	13.593128	0.556366	-0.396009	3.394896	0.000000	-0.100180	0.000000	0.000005	0.000000	0.000000	0.000000
7.999878	19.972439	14.301000	1.171828	-0.900843	3.312095	0.000000	-0.200986	0.000000	0.000005	0.000000	0.000000	0.000000
8.548938	18.383747	15.595010	1.704518	-1.469842	3.174844	0.000000	-0.298228	0.000000	0.000005	0.000000	0.000000	0.000000
9.097998	16.273114	17.567328	2.116810	-2.143534	2.985576	0.000000	-0.390180	0.000000	0.000005	-0.000000	0.000000	0.000000
9.543958	14.626386	19.324791	1.588866	-1.780662	2.829879	0.000000	-0.308471	0.000000	0.000005	0.000000	0.000000	0.000000
9.984918	13.428576	20.705250	1.137805	-1.338003	2.711102	0.000000	-0.230759	0.000000	0.000005	0.000000	0.000000	0.000000
10.425878	12.604228	21.666881	0.738728	-0.834465	2.625982	0.000000	-0.155675	0.000000	0.000005	0.000000	0.000000	0.000000
10.866838	12.115677	22.165930	0.373400	-0.292961	2.573549	0.000000	-0.082365	0.000000	0.000005	0.000000	0.000000	0.000000
11.309048	11.940469	22.179172	0.054308	0.207426	2.553185	0.000000	-0.016253	0.000000	0.000005	0.000000	0.000000	0.000000
11.606371	11.915600	22.059984	0.029334	0.193444	2.548352	0.000000	-0.016253	0.000000	0.000005	0.000000	0.000000	0.000000
12.086371	11.906792	21.885113	-0.010984	0.170871	2.540550	0.000000	-0.016253	0.000000	0.000006	0.000000	0.000000	0.000000
12.566371	11.936689	21.731912	-0.051302	0.148298	2.532749	0.000000	-0.016253	0.000000	0.000006	0.000000	0.000000	0.000000
13.046371	12.005291	21.600381	-0.091620	0.125725	2.524947	0.000000	-0.016253	0.000000	0.000006	0.000000	0.000000	0.000000
13.526371	12.112599	21.490520	-0.131938	0.103152	2.517145	0.000000	-0.016253	0.000000	0.000006	0.000000	0.000000	0.000000
14.007621	12.259043	21.402128	-0.172361	0.080520	2.509323	0.000000	-0.016253	0.000000	0.000007	0.000000	0.000000	0.000000
14.304943	12.368962	21.358404	-0.167004	0.014164	2.504491	0.000000	-0.022394	0.000000	0.000007	0.000000	0.000000	0.000000
14.745903	12.674861	21.112131	-0.529340	0.542204	2.510248	0.000000	0.048534	0.000000	0.000007	0.000001	0.000000	0.000000
15.186863	13.309728	20.409310	-0.915860	1.045574	2.547375	0.000000	0.120016	0.000000	0.000007	0.000001	0.000000	0.000000
15.627823	14.302568	19.281919	-1.344223	1.501371	2.616292	0.000000	0.192864	0.000000	0.000008	0.000001	0.000000	0.000000
16.068783	15.698741	17.781253	-1.833999	1.888858	2.717787	0.000000	0.267909	0.000000	0.000008	0.000001	0.000000	0.000000
16.514743	17.585688	15.954088	-2.412324	2.191149	2.854709	0.000000	0.346468	0.000000	0.000009	0.000001	0.000000	0.000000
17.063803	20.009095	13.913825	-1.975285	1.546703	3.021206	0.000000	0.259125	0.000000	0.000010	0.000001	0.000000	0.000000
17.612863	21.872660	12.516955	-1.398723	1.012426	3.138414	0.000000	0.167186	0.000000	0.000010	0.000001	0.000000	0.000000
18.161923	23.044750	11.663981	-0.723361	0.550261	3.204251	0.000000	0.072281	0.000000	0.000010	0.000001	0.000000	0.000000
18.710983	23.442574	11.294147	0.003095	0.127291	3.217551	0.000000	-0.023905	0.000000	0.000011	0.000000	0.000000	0.000000
19.009556	23.481114	11.208603	-0.070930	0.129711	3.212924	0.000000	-0.015499	0.000000	0.000011	0.000000	0.000000	0.000000
19.342889	23.533157	11.132209	-0.085197	0.099472	3.207757	0.000000	-0.015499	0.000000	0.000011	0.000000	0.000000	0.000000
19.676223	23.594710	11.075974	-0.099464	0.069233	3.202591	0.000000	-0.015499	0.000000	0.000011	0.000000	0.000000	0.000000
20.010806	23.666353	11.039664	-0.231041	0.093577	3.197425	0.000000	0.000343	0.000000	0.000011	0.000000	0.000000	0.000000
20.308129	23.807675	10.992097	-0.306474	0.095127	3.197526	0.000000	0.008697	0.000000	0.000011	0.000000	0.000000	0.000000
20.857189	23.733603	11.109973	0.440584	-0.311081	3.176078	0.000000	-0.086709	0.000000	0.000011	-0.000000	0.000000	0.000000
21.406249	22.851474	11.683391	1.156521	-0.739446	3.102592	0.000000	-0.180577	0.000000	0.000011	-0.000000	0.000000	0.000000
21.955309	21.223598	12.753194	1.790768	-1.220481	2.978371	0.000000	-0.271242	0.000000	0.000011	-0.000001	0.000000	0.000000
22.504369	18.964961	14.395582	2.298524	-1.788447	2.805620	0.000000	-0.357096	0.000000	0.000010	-0.000001	0.000000	0.000000
22.950329	17.185011	15.870070	1.706843	-1.503929	2.663666	0.000000	-0.279876	0.000000	0.000010	-0.000001	0.000000	0.000000
23.391289	15.909002	17.045631	1.197840	-1.151838	2.556577	0.000000	-0.206298	0.000000	0.000009	-0.000001	0.000000	0.000000
23.832249	15.056157	17.886291	0.743563	-0.747340	2.481383	0.000000	-0.135070	0.000000	0.000009	-0.000000	0.000000	0.000000
24.273209	14.587510	18.353802	0.323257	-0.308838	2.437230	0.000000	-0.065380	0.000000	0.000009	-0.000000	0.000000	0.000000
24.715418	14.481768	18.426647	-0.046857	0.098463	2.423611	0.000000	-0.002378	0.000000	0.000009	0.000000	0.000000	0.000000
25.012741	14.515749	18.372940	-0.067433	0.082171	2.422904	0.000000	-0.002378	0.000000	0.000009	0.000000	0.000000	0.000000
25.346075	14.568393	18.324248	-0.090501	0.063906	2.422111	0.000000	-0.002378	0.000000	0.000009	0.000000	0.000000	0.000000
25.679408	14.636416	18.287733	-0.113569	0.045641	2.421319	0.000000	-0.002378	0.000000	0.000009	0.000000	0.000000	0.000000
26.013991	14.719861	18.263696	-0.017306	-0.120857	2.420499	0.000000	-0.022015	0.000000	0.000009	-0.000000	0.000000	0.000000
26.311314	14.736160	18.340474	-0.001377	-0.182347	2.413953	0.000000	-0.027934	0.000000	0.000009	-0.000000	0.000000	0.000000
26.752274	14.918942	18.302361	-0.414705	0.268450	2.416748	0.000000	0.040623	0.000000	0.000009	0.000000	0.000000	0.000000
27.193234	15.473192	17.870569	-0.846980	0.707033	2.449847	0.000000	0.109642	0.000000	0.000009	0.000000	0.000000	0.000000
27.634194	16.424231	17.064744	-1.317951	1.113446	2.513626	0.000000	0.179910	0.000000	0.000009	0.000001	0.000000	0.000000
28.075154	17.815512	15.921550	-1.849135	1.469198	2.608812	0.000000	0.252227	0.000000	0.000010	0.000001	0.000000	0.000000
28.521114	19.734769	14.475784	-2.469763	1.759016	2.738094	0.000000	0.327860	0.000000	0.000010	0.000001	0.000000	0.000000
29.070174	22.174160	12.864849	-1.946785	1.192290	2.895439	0.000000	0.244444	0.000000	0.000011	0.000001	0.000000	0.000000
29.619234	23.959887	11.826241	-1.286295	0.710487	3.005725	0.000000	0.156692	0.000000	0.000011	0.000000	0.000000	0.000000
30.168294	24.965813	11.285983	-0.534948	0.279291	3.066994	0.000000	0.066160	0.000000	0.000011	0.000000	0.000000	0.000000
30.717354	25.120887	11.205592	0.254185	-0.132012	3.078161	0.000000	-0.025544	0.000000	0.000011	-0.000000	0.000000	0.000000
31.015927	25.011967	11.274980	0.176247	-0.129662	3.072935	0.000000	-0.017503	0.000000	0.000011	-0.000000	0.000000	0.000000
31.349260	24.899050	11.371442	0.162506	-0.159723	3.067101	0.000000	-0.017503	0.000000	0.000011	-0.000000	0.000000	0.000000
31.682593	24.795293	11.487944	0.148765	-0.189785	3.061267	0.000000	-0.017503	0.000000	0.000011	-0.000000	0.000000	0.000000
32.017177	24.700359	11.625038	0.134973	-0.219958	3.055411	0.000000	-0.017503	0.000000	0.000011	-0.000000	0.000000	0.000000
32.314499	24.623742	11.763807	0.058385	-0.216038	3.050207	0.000000	-0.009534	0.000000	0.000011	-0.000000	0.000000	0.000000
32.863559	24.137773	12.240308	0.821469	-0.656934	3.020086	0.000000	-0.100026	0.000000	0.000011	-0.000001	0.000000	0.000000
33.412619	22.840904	13.223667	1.526528	-1.144623	2.940694	0.000000	-0.188743	0.000000	0.000010	-0.000001	0.000000	0.000000
33.961679	20.824741	14.783925	2.123761	-1.713840	2.813439	0.000000	-0.274113	0.000000	0.000010	-0.000001	0.000000	0.000000
34.510739	18.231695	17.032216	2.570982	-2.405130	2.640578	0.000000	-0.354621	0.000000	0.000009	-0.000002	0.000000	0.000000
34.956699	16.215548	19.043201	1.966129	-2.085379	2.498776	0.000000	-0.281681	0.000000	0.000008	-0.000001	0.000000	0.000000
35.397659	14.712180	20.706159	1.456111	-1.671492	2.389951	0.000000	-0.212376	0.000000	0.000008	-0.000001	0.000000	0.000000
35.838619	13.627682	21.969043	1.012620	-1.181553	2.311124	0.000000	-0.145491	0.000000	0.000007	-0.000001	0.000000	0.000000
36.279579	12.912507	22.774393	0.615392	-0.637854	2.261397	0.000000	-0.080262	0.000000	0.000007	-0.000001	0.000000	0.000000
36.721789	12.533288	23.085871	0.276907	-0.121797	2.240179	0.000000	-0.021441	0.000000	0.000007	-0.000001	0.000000	0.000000
37.019112	12.376221	23.162184	0.251365	-0.134867	2.233804	0.000000	-0.021441	0.000000	0.000007	-0.000001	0.000000	0.000000
37.352445	12.218189	23.256979	0.222730	-0.149520	2.226657	0.000000	-0.021441	0.000000	0.000007	-0.000001	0.000000	0.000000
37.685779	12.079248	23.361544	0.194095	-0.164173	2.219511	0.000000	-0.021441	0.000000	0.000006	-0.000001	0.000000	0.000000
38.020362	11.958983	23.476324	0.165352	-0.178881	2.212337	0.000000	-0.021441	0.000000	0.000006	-0.000001	0.000000	0.000000
38.317684	11.868251	23.586581	0.168913	-0.249790	2.205962	0.000000	-0.026850	0.000000	0.000006	-0.000001	0.000000	0.000000
38.758644	11.870622	23.545634	-0.174312	0.342296	2.208052	0.000000	0.036335	0.000000	0.000006	-0.000000	0.000000	0.000000
39.199604	12.178046	22.987414	-0.525501	0.918807	2.238068	0.000000	0.099935	0.000000	0.000006	-0.000000	0.000000	0.000000
39.640564	12.804566	21.937320	-0.900699	1.453513	2.296354	0.000000	0.164672	0.000000	0.000006	-0.000000	0.000000	0.000000
40.081524	13.778807	20.443131	-1.317047	1.922085	2.383571	0.000000	0.231285	0.000000	0.000006	0.000000	0.000000	0.000000
40.527484	15.162851	18.550262	-1.797393	2.304485	2.502187	0.000000	0.300938	0.000000	0.000006	0.000000	0.000000	0.000000
41.076544	16.929154	16.423197	-1.400521	1.592393	2.646887	0.000000	0.225370	0.000000	0.000006	0.000000	0.000000	0.000000
41.625604	18.202409	15.011597	-0.904724	0.993723	2.748936	0.000000	0.145805	0.000000	0.000006	-0.000000	0.000000	0.000000
42.174664	18.892681	14.214915	-0.345021	0.465834	2.806524	0.000000	0.063654	0.000000	0.000006	-0.000000	0.000000	0.000000
42.723724	18.951211	13.976406	0.239052	-0.028875	2.818629	0.000000	-0.019627	0.000000	0.000005	-0.000001	0.000000	0.000000
43.022297	18.842902	13.978221	0.173217	-0.013722	2.814967	0.000000	-0.012263	0.000000	0.000005	-0.000001	0.000000	0.000000
43.502297	18.689207	14.007881	0.146979	-0.048068	2.809082	0.000000	-0.012263	0.000000	0.000005	-0.000001	0.000000	0.000000
43.982297	18.560702	14.070511	0.120741	-0.082413	2.803196	0.000000	-0.012263	0.000000	0.000005	-0.000001	0.000000	0.000000
44.462297	18.457385	14.166114	0.094503	-0.116759	2.797310	0.000000	-0.012263	0.000000	0.000004	-0.000001	0.000000	0.000000
44.942297	18.379256	14.294689	0.068265	-0.151105	2.791424	0.000000	-0.012263	0.000000	0.000004	-0.000001	0.000000	0.000000
45.423547	18.326438	14.456520	-0.048841	-0.113913	2.785540	0.000000	0.001539	0.000000	0.000004	-0.000000	0.000000	0.000000
45.720870	18.360317	14.530452	-0.113074	-0.096783	2.785998	0.000000	0.008818	0.000000	0.000004	-0.000000	0.000000	0.000000
46.269930	18.175330	14.917796	0.447995	-0.612850	2.768266	0.000000	-0.073314	0.000000	0.000003	-0.000001	0.000000	0.000000
46.818990	17.388030	15.892347	0.977420	-1.172570	2.705730	0.000000	-0.154146	0.000000	0.000003	-0.000001	0.000000	0.000000
47.368050	16.054030	17.523518	1.437805	-1.815809	2.599498	0.000000	-0.232243	0.000000	0.000003	-0.000001	0.000000	0.000000
47.917110	14.267555	19.927495	1.796630	-2.588385	2.451456	0.000000	-0.306221	0.000000	0.000002	-0.000001	0.000000	0.000000
48.363070	12.877277	22.064884	1.331910	-2.184248	2.330186	0.000000	-0.237919	0.000000	0.000002	-0.000001	0.000000	0.000000
48.804030	11.882839	23.776258	0.931810	-1.682002	2.239734	0.000000	-0.172724	0.000000	0.000001	-0.000001	0.000000	0.000000
49.244990	11.221223	25.009124	0.574281	-1.103226	2.177570	0.000000	-0.109496	0.000000	0.000001	-0.000001	0.000000	0.000000
49.685950	10.862201	25.707386	0.242990	-0.474254	2.142985	0.000000	-0.047516	0.000000	0.000001	-0.000001	0.000000	0.000000
50.128160	10.789498	25.838993	-0.050858	0.112883	2.135597	0.000000	0.008687	0.000000	0.000000	-0.000001	0.000000	0.000000
50.425482	10.827955	25.775333	-0.078486	0.101229	2.138180	0.000000	0.008687	0.000000	0.000000	-0.000001	0.000000	0.000000
50.758816	10.890603	25.712201	-0.109460	0.088165	2.141076	0.000000	0.008687	0.000000	0.000000	-0.000001	0.000000	0.000000
51.092149	10.973901	25.657780	-0.140434	0.075100	2.143972	0.000000	0.008687	0.000000	-0.000000	-0.000001	0.000000	0.000000
51.426732	11.078052	25.612433	-0.081652	-0.145795	2.146856	0.000000	-0.008730	0.000000	-0.000000	-0.000001	0.000000	0.000000
51.724055	11.134639	25.702654	-0.081364	-0.220681	2.144261	0.000000	-0.013988	0.000000	-0.000001	-0.000001	0.000000	0.000000
52.165015	11.351763	25.611339	-0.412895	0.426975	2.151682	0.000000	0.047675	0.000000	-0.000001	-0.000001	0.000000	0.000000
52.605975	11.868454	24.955260	-0.763290	1.055205	2.186387	0.000000	0.109882	0.000000	-0.000001	-0.000001	0.000000	0.000000
53.046935	12.708315	23.764269	-1.148557	1.635423	2.248773	0.000000	0.173340	0.000000	-0.000002	-0.000001	0.000000	0.000000
53.487895	13.909719	22.092554	-1.586299	2.141231	2.339550	0.000000	0.238772	0.000000	-0.000002	-0.000001	0.000000	0.000000
53.933855	15.548148	19.991181	-2.100747	2.550950	2.461255	0.000000	0.307323	0.000000	-0.000002	-0.000001	0.000000	0.000000
54.482915	17.657551	17.626641	-1.718357	1.780995	2.609814	0.000000	0.233019	0.000000	-0.000003	-0.000001	0.000000	0.000000
55.031975	19.277506	16.033400	-1.214592	1.137895	2.716380	0.000000	0.154582	0.000000	-0.000003	-0.000001	0.000000	0.000000
55.581035	20.293585	15.097976	-0.625033	0.575845	2.779061	0.000000	0.073403	0.000000	-0.000004	-0.000001	0.000000	0.000000
56.130095	20.634018	14.753739	0.008674	0.054811	2.796746	0.000000	-0.009078	0.000000	-0.000004	-0.000000	0.000000	0.000000
56.428668	20.665362	14.704084	-0.059740	0.072948	2.796218	0.000000	-0.001771	0.000000	-0.000004	-0.000000	0.000000	0.000000
56.762001	20.710585	14.663048	-0.075928	0.050158	2.795628	0.000000	-0.001771	0.000000	-0.000004	-0.000000	0.000000	0.000000
57.095334	20.766599	14.637206	-0.092115	0.027368	2.795038	0.000000	-0.001771	0.000000	-0.000004	-0.000000	0.000000	0.000000
57.429918	20.833676	14.626546	-0.108364	0.004492	2.794445	0.000000	-0.001771	0.000000	-0.000005	-0.000000	0.000000	0.000000
57.727240	20.902407	14.629919	-0.177419	0.022391	2.793919	0.000000	0.005530	0.000000	-0.000005	-0.000001	0.000000	0.000000
58.276300	20.740612	14.886292	0.470352	-0.492078	2.774317	0.000000	-0.076829	0.000000	-0.000005	-0.000000	0.000000	0.000000
58.825360	19.881601	15.723430	1.084899	-1.041597	2.709803	0.000000	-0.157824	0.000000	-0.000005	-0.000000	0.000000	0.000000
59.374420	18.386052	17.200962	1.622814	-1.665307	2.601521	0.000000	-0.236020	0.000000	-0.000005	-0.000000	0.000000	0.000000
59.923480	16.359601	19.424127	2.046102	-2.407633	2.451393	0.000000	-0.310030	0.000000	-0.000005	0.000000	0.000000	0.000000
60.369440	14.773480	21.400126	1.523138	-2.004553	2.328421	0.000000	-0.241752	0.000000	-0.000005	0.000000	0.000000	0.000000
60.810400	13.632588	22.956549	1.073969	-1.511640	2.236265	0.000000	-0.176624	0.000000	-0.000005	-0.000000	0.000000	0.000000
61.251360	12.864776	24.046158	0.673866	-0.949949	2.172358	0.000000	-0.113508	0.000000	-0.000005	-0.000000	0.000000	0.000000
61.692320	12.434963	24.619376	0.304551	-0.345036	2.135971	0.000000	-0.051685	0.000000	-0.000005	-0.000000	0.000000	0.000000
62.134530	12.323566	24.649585	-0.020729	0.215070	2.126695	0.000000	0.004334	0.000000	-0.000006	-0.000001	0.000000	0.000000
62.431853	12.343069	24.525446	-0.044866	0.202450	2.127984	0.000000	0.004334	0.000000	-0.000006	-0.000001	0.000000	0.000000
62.765186	12.381999	24.395196	-0.071926	0.188302	2.129428	0.000000	0.004334	0.000000	-0.000006	-0.000001	0.000000	0.000000
63.098520	12.438970	24.274377	-0.098986	0.174153	2.130873	0.000000	0.004334	0.000000	-0.000006	-0.000001	0.000000	0.000000
63.433103	12.514296	24.162591	-0.126148	0.159952	2.132323	0.000000	0.004334	0.000000	-0.000006	-0.000001	0.000000	0.000000
63.730426	12.596486	24.071229	-0.119392	0.088299	2.133612	0.000000	-0.000899	0.000000	-0.000006	-0.000000	0.000000	0.000000
64.171386	12.862170	23.728253	-0.485408	0.686536	2.146755	0.000000	0.060564	0.000000	-0.000007	-0.000001	0.000000	0.000000
64.612346	13.459174	22.869491	-0.873601	1.253536	2.187126	0.000000	0.122717	0.000000	-0.000007	-0.000001	0.000000	0.000000
65.053306	14.414771	21.534016	-1.301706	1.763502	2.255186	0.000000	0.186267	0.000000	-0.000007	-0.000001	0.000000	0.000000
65.494266	15.772622	19.782591	-1.789282	2.193230	2.351711	0.000000	0.251938	0.000000	-0.000008	-0.000001	0.000000	0.000000
65.940226	17.617925	17.670117	-2.363298	2.523922	2.479370	0.000000	0.320881	0.000000	-0.000008	-0.000001	0.000000	0.000000
66.489286	19.983365	15.306882	-1.919365	1.805632	2.635191	0.000000	0.245873	0.000000	-0.000009	-0.000001	0.000000	0.000000
67.038346	21.783530	13.657586	-1.339858	1.215953	2.748568	0.000000	0.166503	0.000000	-0.000010	-0.000001	0.000000	0.000000
67.587406	22.891264	12.604754	-0.665710	0.712884	2.817490	0.000000	0.084180	0.000000	-0.000010	-0.000001	0.000000	0.000000
68.136466	23.228324	12.073394	0.055460	0.260591	2.840734	0.000000	0.000364	0.000000	-0.000010	-0.000000	0.000000	0.000000
68.435038	23.235288	11.906958	-0.018091	0.265299	2.843059	0.000000	0.007787	0.000000	-0.000010	-0.000000	0.000000	0.000000
68.768372	23.252133	11.740080	-0.032441	0.235334	2.845655	0.000000	0.007787	0.000000	-0.000010	-0.000000	0.000000	0.000000
69.101705	23.278544	11.593180	-0.046792	0.205369	2.848251	0.000000	0.007787	0.000000	-0.000010	-0.000000	0.000000	0.000000
69.436288	23.314675	11.465817	-0.061197	0.175291	2.850856	0.000000	0.007787	0.000000	-0.000011	-0.000000	0.000000	0.000000
69.733611	23.354871	11.369528	-0.135024	0.178272	2.853172	0.000000	0.015242	0.000000	-0.000011	-0.000000	0.000000	0.000000
70.282671	23.102041	11.401423	0.592777	-0.236705	2.838361	0.000000	-0.069113	0.000000	-0.000011	0.000000	0.000000	0.000000
