#ParticleID	Turn	x[m]	xp	y[m]	yp	z[m]	dE[GeV]# s	beta_x	beta_y	alpha_x	alpha_y	D_x	D_y	D_px	D_py	orbit_x	orbit_px	orbit_y	orbit_py
0.300000	11.815344	25.012751	-0.011173	-0.027350	2.618045	0.000000	0.000038	0.000000	-0.000001	0.000001	0.000000	0.000000
0.601250	11.829757	25.032860	-0.036673	-0.039403	2.618057	0.000000	0.000038	0.000000	-0.000001	0.000001	0.000000	0.000000
0.898573	11.859047	25.059828	-0.032758	-0.112752	2.618068	0.000000	-0.006382	0.000000	-0.000001	0.000001	0.000000	0.000000
1.339533	12.040084	24.881288	-0.379352	0.516100	2.631546	0.000000	0.067574	0.000000	-0.000000	0.000001	0.000000	0.000000
1.780493	12.533248	24.156427	-0.743277	1.121470	2.677774	0.000000	0.142300	0.000000	0.000000	0.000001	0.000000	0.000000
2.221453	13.361069	22.918224	-1.141161	1.675815	2.757280	0.000000	0.218647	0.000000	0.000001	0.000001	0.000000	0.000000
2.662413	14.561369	21.223018	-1.591181	2.153911	2.870967	0.000000	0.297483	0.000000	0.000002	0.000001	0.000000	0.000000
3.108373	16.209737	19.123076	-2.118188	2.535138	3.021993	0.000000	0.380198	0.000000	0.000002	0.000001	0.000000	0.000000
3.657433	18.323487	16.764541	-1.708784	1.785805	3.205473	0.000000	0.287160	0.000000	0.000003	0.000001	0.000000	0.000000
4.206493	19.918319	15.154605	-1.178680	1.163671	3.336392	0.000000	0.189028	0.000000	0.000004	0.000001	0.000000	0.000000
4.755553	20.881582	14.178596	-0.565319	0.624422	3.412431	0.000000	0.087543	0.000000	0.000004	0.000001	0.000000	0.000000
5.304613	21.145235	13.766995	0.087972	0.129650	3.432239	0.000000	-0.015494	0.000000	0.000005	0.000001	0.000000	0.000000
5.603185	21.129914	13.674750	0.018591	0.143336	3.430290	0.000000	-0.006526	0.000000	0.000005	0.000001	0.000000	0.000000
5.936519	21.122780	13.587485	0.002810	0.118459	3.428115	0.000000	-0.006526	0.000000	0.000005	0.000001	0.000000	0.000000
6.269852	21.126168	13.516804	-0.012971	0.093583	3.425939	0.000000	-0.006526	0.000000	0.000006	0.000001	0.000000	0.000000
6.604435	21.140147	13.462536	-0.028811	0.068613	3.423755	0.000000	-0.006526	0.000000	0.000006	0.000001	0.000000	0.000000
6.901758	21.161465	13.428333	-0.098175	0.081508	3.421814	0.000000	0.002414	0.000000	0.000006	0.000001	0.000000	0.000000
7.450818	20.908614	13.599618	0.555967	-0.395311	3.394937	0.000000	-0.100171	0.000000	0.000007	0.000001	0.000000	0.000000
7.999878	19.954848	14.306804	1.170838	-0.900286	3.312140	0.000000	-0.200980	0.000000	0.000007	0.000000	0.000000	0.000000
8.548938	18.367539	15.600262	1.703007	-1.469387	3.174891	0.000000	-0.298223	0.000000	0.000007	0.000000	0.000000	0.000000
9.097998	16.258804	17.572122	2.114885	-2.143149	2.985626	0.000000	-0.390177	0.000000	0.000007	0.000000	0.000000	0.000000
9.543958	14.613599	19.329152	1.587362	-1.780082	2.829931	0.000000	-0.308466	0.000000	0.000007	0.000000	0.000000	0.000000
9.984918	13.416958	20.709024	1.136651	-1.337255	2.711156	0.000000	-0.230753	0.000000	0.000007	0.000000	0.000000	0.000000
10.425878	12.593493	21.669934	0.737870	-0.833585	2.626039	0.000000	-0.155668	0.000000	0.000008	0.000001	0.000000	0.000000
10.866838	12.105583	22.168163	0.372800	-0.291987	2.573610	0.000000	-0.082355	0.000000	0.000008	0.000001	0.000000	0.000000
11.309048	11.930801	22.180519	0.053914	0.208446	2.553250	0.000000	-0.016242	0.000000	0.000008	0.000001	0.000000	0.000000
11.606371	11.906173	22.060726	0.028921	0.194459	2.548420	0.000000	-0.016242	0.000000	0.000009	0.000001	0.000000	0.000000
12.086371	11.897776	21.884883	-0.011428	0.171878	2.540624	0.000000	-0.016242	0.000000	0.000009	0.000001	0.000000	0.000000
12.566371	11.928115	21.730719	-0.051777	0.149298	2.532827	0.000000	-0.016242	0.000000	0.000010	0.000001	0.000000	0.000000
13.046371	11.997188	21.598232	-0.092126	0.126717	2.525030	0.000000	-0.016242	0.000000	0.000010	0.000001	0.000000	0.000000
13.526371	12.104997	21.487423	-0.132475	0.104136	2.517234	0.000000	-0.016242	0.000000	0.000010	0.000001	0.000000	0.000000
14.007621	12.251973	21.398088	-0.172929	0.081496	2.509417	0.000000	-0.016242	0.000000	0.000011	0.000001	0.000000	0.000000
14.304943	12.362235	21.353785	-0.167609	0.015149	2.504587	0.000000	-0.022383	0.000000	0.000011	0.000001	0.000000	0.000000
14.745903	12.668608	21.106704	-0.529812	0.543043	2.510350	0.000000	0.048548	0.000000	0.000012	0.000001	0.000000	0.000000
15.186863	13.303840	20.403222	-0.916219	1.046229	2.547483	0.000000	0.120032	0.000000	0.000012	0.000002	0.000000	0.000000
15.627823	14.296954	19.275346	-1.344487	1.501812	2.616408	0.000000	0.192883	0.000000	0.000013	0.000002	0.000000	0.000000
16.068783	15.693322	17.774393	-1.834180	1.889064	2.717911	0.000000	0.267932	0.000000	0.000014	0.000002	0.000000	0.000000
16.514743	17.580395	15.947153	-2.412429	2.191110	2.854843	0.000000	0.346494	0.000000	0.000015	0.000003	0.000000	0.000000
17.063803	20.004054	13.906855	-1.975635	1.546807	3.021353	0.000000	0.259146	0.000000	0.000016	0.000002	0.000000	0.000000
17.612863	21.868126	12.509789	-1.399291	1.012680	3.138570	0.000000	0.167202	0.000000	0.000017	0.000002	0.000000	0.000000
18.161923	23.040944	11.656445	-0.724109	0.550684	3.204415	0.000000	0.072292	0.000000	0.000018	0.000001	0.000000	0.000000
18.710983	23.439665	11.286041	0.002221	0.127912	3.217720	0.000000	-0.023900	0.000000	0.000018	0.000000	0.000000	0.000000
19.009556	23.478721	11.200148	-0.071796	0.130285	3.213093	0.000000	-0.015494	0.000000	0.000019	0.000000	0.000000	0.000000
19.342889	23.531341	11.123380	-0.086066	0.100019	3.207929	0.000000	-0.015494	0.000000	0.000019	0.000000	0.000000	0.000000
19.676223	23.593476	11.066789	-0.100337	0.069752	3.202764	0.000000	-0.015494	0.000000	0.000019	0.000000	0.000000	0.000000
20.010806	23.665703	11.030142	-0.231914	0.094022	3.197600	0.000000	0.000349	0.000000	0.000019	0.000001	0.000000	0.000000
20.308129	23.807546	10.982318	-0.307347	0.095518	3.197703	0.000000	0.008703	0.000000	0.000019	0.000001	0.000000	0.000000
20.857189	23.734430	11.099611	0.439725	-0.310406	3.176257	0.000000	-0.086709	0.000000	0.000019	-0.000000	0.000000	0.000000
21.406249	22.853208	11.672111	1.155738	-0.738439	3.102769	0.000000	-0.180582	0.000000	0.000019	-0.000001	0.000000	0.000000
21.955309	21.226126	12.740595	1.790115	-1.219070	2.978544	0.000000	-0.271253	0.000000	0.000019	-0.000001	0.000000	0.000000
22.504369	18.968111	14.381167	2.298047	-1.786533	2.805786	0.000000	-0.357112	0.000000	0.000018	-0.000002	0.000000	0.000000
22.950329	17.188592	15.854092	1.706349	-1.502349	2.663825	0.000000	-0.279888	0.000000	0.000017	-0.000001	0.000000	0.000000
23.391289	15.913034	17.028434	1.197306	-1.150665	2.556732	0.000000	-0.206306	0.000000	0.000017	-0.000001	0.000000	0.000000
23.832249	15.060685	17.868259	0.742965	-0.746626	2.481536	0.000000	-0.135074	0.000000	0.000016	-0.000001	0.000000	0.000000
24.273209	14.592604	18.335357	0.322567	-0.308616	2.437382	0.000000	-0.065381	0.000000	0.000016	-0.000000	0.000000	0.000000
24.715418	14.487523	18.408228	-0.047657	0.098230	2.423763	0.000000	-0.002374	0.000000	0.000016	0.000000	0.000000	0.000000
25.012741	14.521978	18.354664	-0.068227	0.081923	2.423057	0.000000	-0.002374	0.000000	0.000016	0.000000	0.000000	0.000000
25.346075	14.575149	18.306143	-0.091287	0.063640	2.422266	0.000000	-0.002374	0.000000	0.000016	0.000000	0.000000	0.000000
25.679408	14.643694	18.269810	-0.114348	0.045358	2.421474	0.000000	-0.002374	0.000000	0.000016	0.000000	0.000000	0.000000
26.013991	14.727658	18.245968	-0.018014	-0.121014	2.420655	0.000000	-0.022012	0.000000	0.000016	0.000000	0.000000	0.000000
26.311314	14.744374	18.322844	-0.002057	-0.182474	2.414110	0.000000	-0.027932	0.000000	0.000016	0.000000	0.000000	0.000000
26.752274	14.927847	18.285054	-0.415598	0.267848	2.416907	0.000000	0.040629	0.000000	0.000016	0.000000	0.000000	0.000000
27.193234	15.482993	17.853992	-0.848126	0.705984	2.450009	0.000000	0.109652	0.000000	0.000017	0.000001	0.000000	0.000000
27.634194	16.435174	17.049273	-1.319402	1.111997	2.513794	0.000000	0.179925	0.000000	0.000017	0.000001	0.000000	0.000000
28.075154	17.827894	15.907510	-1.850959	1.467415	2.608988	0.000000	0.252246	0.000000	0.000018	0.000002	0.000000	0.000000
28.521114	19.748977	14.463455	-2.472047	1.756980	2.738278	0.000000	0.327884	0.000000	0.000019	0.000002	0.000000	0.000000
29.070174	22.190689	12.854485	-1.948703	1.190724	2.895635	0.000000	0.244461	0.000000	0.000020	0.000002	0.000000	0.000000
29.619234	23.978257	11.817390	-1.287712	0.709281	3.005928	0.000000	0.156703	0.000000	0.000021	0.000001	0.000000	0.000000
30.168294	24.985418	11.278299	-0.535764	0.278358	3.067202	0.000000	0.066165	0.000000	0.000021	0.000000	0.000000	0.000000
30.717354	25.141029	11.198814	0.254028	-0.132738	3.078369	0.000000	-0.025547	0.000000	0.000021	-0.000000	0.000000	0.000000
31.015927	25.032227	11.268654	0.176054	-0.130429	3.073143	0.000000	-0.017505	0.000000	0.000021	-0.000000	0.000000	0.000000
31.349260	24.919435	11.365635	0.162325	-0.160513	3.067308	0.000000	-0.017505	0.000000	0.000021	-0.000000	0.000000	0.000000
31.682593	24.815794	11.482671	0.148596	-0.190597	3.061473	0.000000	-0.017505	0.000000	0.000021	-0.000000	0.000000	0.000000
32.017177	24.720970	11.620315	0.134815	-0.220793	3.055617	0.000000	-0.017505	0.000000	0.000021	-0.000000	0.000000	0.000000
32.314499	24.644443	11.759588	0.058189	-0.216907	3.050412	0.000000	-0.009536	0.000000	0.000021	-0.000000	0.000000	0.000000
32.863559	24.158310	12.236999	0.821961	-0.657732	3.020288	0.000000	-0.100035	0.000000	0.000020	-0.000001	0.000000	0.000000
33.412619	22.860536	13.221221	1.527674	-1.145406	2.940889	0.000000	-0.188759	0.000000	0.000020	-0.000002	0.000000	0.000000
33.961679	20.842790	14.782357	2.125479	-1.714665	2.813624	0.000000	-0.274135	0.000000	0.000019	-0.000002	0.000000	0.000000
34.510739	18.247596	17.031603	2.573151	-2.406056	2.640751	0.000000	-0.354649	0.000000	0.000017	-0.000003	0.000000	0.000000
34.956699	16.229734	19.043469	1.967820	-2.086421	2.498938	0.000000	-0.281704	0.000000	0.000016	-0.000002	0.000000	0.000000
35.397659	14.725053	20.707379	1.457407	-1.672601	2.390104	0.000000	-0.212395	0.000000	0.000015	-0.000002	0.000000	0.000000
35.838619	13.639565	21.971253	1.013579	-1.182679	2.311270	0.000000	-0.145506	0.000000	0.000014	-0.000002	0.000000	0.000000
36.279579	12.923676	22.777585	0.616058	-0.638946	2.261538	0.000000	-0.080273	0.000000	0.000014	-0.000001	0.000000	0.000000
36.721789	12.543986	23.089995	0.277335	-0.122812	2.240315	0.000000	-0.021448	0.000000	0.000013	-0.000001	0.000000	0.000000
37.019112	12.386659	23.166911	0.251809	-0.135883	2.233938	0.000000	-0.021448	0.000000	0.000013	-0.000001	0.000000	0.000000
37.352445	12.228326	23.262384	0.223192	-0.150537	2.226789	0.000000	-0.021448	0.000000	0.000013	-0.000001	0.000000	0.000000
37.685779	12.089070	23.367626	0.194575	-0.165191	2.219640	0.000000	-0.021448	0.000000	0.000012	-0.000001	0.000000	0.000000
38.020362	11.968477	23.483087	0.165851	-0.179900	2.212464	0.000000	-0.021448	0.000000	0.000012	-0.000001	0.000000	0.000000
38.317684	11.877444	23.593950	0.169449	-0.250824	2.206087	0.000000	-0.026858	0.000000	0.000012	-0.000001	0.000000	0.000000
38.758644	11.879434	23.553825	-0.173980	0.341471	2.208174	0.000000	0.036331	0.000000	0.000012	-0.000001	0.000000	0.000000
39.199604	12.186649	22.996226	-0.525358	0.918229	2.238189	0.000000	0.099933	0.000000	0.000011	-0.000000	0.000000	0.000000
39.640564	12.813123	21.946522	-0.900738	1.453208	2.296474	0.000000	0.164674	0.000000	0.000011	-0.000000	0.000000	0.000000
40.081524	13.787480	20.452475	-1.317270	1.922068	2.383693	0.000000	0.231290	0.000000	0.000011	0.000000	0.000000	0.000000
40.527484	15.171809	18.559491	-1.797811	2.304758	2.502312	0.000000	0.300946	0.000000	0.000012	0.000001	0.000000	0.000000
41.076544	16.938388	16.432257	-1.400603	1.592430	2.647015	0.000000	0.225374	0.000000	0.000012	0.000000	0.000000	0.000000
41.625604	18.211544	15.020742	-0.904463	0.993528	2.749065	0.000000	0.145805	0.000000	0.000012	-0.000000	0.000000	0.000000
42.174664	18.901347	14.224407	-0.344436	0.465393	2.806651	0.000000	0.063649	0.000000	0.000012	-0.000001	0.000000	0.000000
42.723724	18.959074	13.986531	0.239920	-0.029593	2.818753	0.000000	-0.019635	0.000000	0.000011	-0.000001	0.000000	0.000000
43.022297	18.850257	13.988756	0.174069	-0.014400	2.815089	0.000000	-0.012271	0.000000	0.000011	-0.000001	0.000000	0.000000
43.502297	18.695743	14.019054	0.147834	-0.048721	2.809200	0.000000	-0.012271	0.000000	0.000010	-0.000001	0.000000	0.000000
43.982297	18.566416	14.082300	0.121598	-0.083041	2.803310	0.000000	-0.012271	0.000000	0.000010	-0.000001	0.000000	0.000000
44.462297	18.462274	14.178493	0.095363	-0.117361	2.797420	0.000000	-0.012271	0.000000	0.000010	-0.000001	0.000000	0.000000
44.942297	18.383319	14.307634	0.069128	-0.151682	2.791530	0.000000	-0.012271	0.000000	0.000009	-0.000001	0.000000	0.000000
45.423547	18.329669	14.470008	-0.047991	-0.114398	2.785642	0.000000	0.001531	0.000000	0.000009	-0.000001	0.000000	0.000000
45.720870	18.363041	14.544224	-0.112226	-0.097216	2.786098	0.000000	0.008810	0.000000	0.000008	-0.000001	0.000000	0.000000
46.269930	18.177080	14.932277	0.448911	-0.613715	2.768361	0.000000	-0.073326	0.000000	0.000008	-0.000001	0.000000	0.000000
46.818990	17.388767	15.908041	0.978338	-1.173928	2.705818	0.000000	-0.154160	0.000000	0.000007	-0.000001	0.000000	0.000000
47.368050	16.053786	17.541017	1.438661	-1.817757	2.599578	0.000000	-0.232260	0.000000	0.000006	-0.000002	0.000000	0.000000
47.917110	14.266434	19.947518	1.797364	-2.591061	2.451526	0.000000	-0.306241	0.000000	0.000006	-0.000002	0.000000	0.000000
48.363070	12.875524	22.087106	1.332596	-2.186481	2.330249	0.000000	-0.237937	0.000000	0.000005	-0.000002	0.000000	0.000000
48.804030	11.880490	23.800216	0.932481	-1.683691	2.239789	0.000000	-0.172740	0.000000	0.000004	-0.000002	0.000000	0.000000
49.244990	11.218278	25.034302	0.574968	-1.104294	2.177618	0.000000	-0.109511	0.000000	0.000003	-0.000001	0.000000	0.000000
49.685950	10.858631	25.733214	0.243724	-0.474653	2.143027	0.000000	-0.047529	0.000000	0.000003	-0.000001	0.000000	0.000000
50.128160	10.785245	25.864870	-0.050054	0.113109	2.135634	0.000000	0.008674	0.000000	0.000002	-0.000001	0.000000	0.000000
50.425482	10.823226	25.801072	-0.077690	0.101466	2.138213	0.000000	0.008674	0.000000	0.000002	-0.000001	0.000000	0.000000
50.758816	10.885348	25.737778	-0.108674	0.088414	2.141105	0.000000	0.008674	0.000000	0.000001	-0.000001	0.000000	0.000000
51.092149	10.968125	25.683187	-0.139658	0.075362	2.143997	0.000000	0.008674	0.000000	0.000001	-0.000001	0.000000	0.000000
51.426732	11.071761	25.637661	-0.080937	-0.145725	2.146878	0.000000	-0.008742	0.000000	0.000001	-0.000001	0.000000	0.000000
51.724055	11.127926	25.727837	-0.080678	-0.220661	2.144279	0.000000	-0.014001	0.000000	0.000000	-0.000001	0.000000	0.000000
52.165015	11.344373	25.636210	-0.412038	0.427660	2.151694	0.000000	0.047663	0.000000	-0.000000	-0.000001	0.000000	0.000000
52.605975	11.860218	24.979245	-0.762224	1.056522	2.186395	0.000000	0.109870	0.000000	-0.000001	-0.000001	0.000000	0.000000
53.046935	12.699029	23.786833	-1.147233	1.637314	2.248775	0.000000	0.173328	0.000000	-0.000001	-0.000001	0.000000	0.000000
53.487895	13.899130	22.113229	-1.584656	2.143609	2.339547	0.000000	0.238760	0.000000	-0.000002	-0.000001	0.000000	0.000000
53.933855	15.535921	20.009556	-2.098706	2.553708	2.461247	0.000000	0.307311	0.000000	-0.000003	-0.000001	0.000000	0.000000
54.482915	17.643243	17.642388	-1.716629	1.783052	2.609800	0.000000	0.233007	0.000000	-0.000003	-0.000001	0.000000	0.000000
55.031975	19.261528	16.047203	-1.213298	1.139399	2.716359	0.000000	0.154571	0.000000	-0.000004	-0.000001	0.000000	0.000000
55.581035	20.276469	15.110381	-0.624266	0.576902	2.779035	0.000000	0.073392	0.000000	-0.000005	-0.000001	0.000000	0.000000
56.130095	20.616374	14.765194	0.008862	0.055497	2.796715	0.000000	-0.009088	0.000000	-0.000005	-0.000001	0.000000	0.000000
56.428668	20.647583	14.715107	-0.059519	0.073677	2.796184	0.000000	-0.001780	0.000000	-0.000006	-0.000001	0.000000	0.000000
56.762001	20.692663	14.673581	-0.075720	0.050901	2.795591	0.000000	-0.001780	0.000000	-0.000006	-0.000001	0.000000	0.000000
57.095334	20.748543	14.647239	-0.091921	0.028126	2.794998	0.000000	-0.001780	0.000000	-0.000006	-0.000001	0.000000	0.000000
57.429918	20.815495	14.636066	-0.108183	0.005265	2.794402	0.000000	-0.001780	0.000000	-0.000006	-0.000001	0.000000	0.000000
57.727240	20.884122	14.638976	-0.177204	0.023201	2.793873	0.000000	0.005520	0.000000	-0.000007	-0.000001	0.000000	0.000000
58.276300	20.722428	14.894598	0.469953	-0.491513	2.774267	0.000000	-0.076837	0.000000	-0.000007	-0.000001	0.000000	0.000000
58.825360	19.864181	15.731230	1.083915	-1.041236	2.709749	0.000000	-0.157830	0.000000	-0.000008	-0.000000	0.000000	0.000000
59.374420	18.370003	17.208465	1.621314	-1.665124	2.601464	0.000000	-0.236025	0.000000	-0.000008	-0.000000	0.000000	0.000000
59.923480	16.345436	19.431520	2.044192	-2.407615	2.451334	0.000000	-0.310033	0.000000	-0.000008	0.000000	0.000000	0.000000
60.369440	14.760827	21.407391	1.521645	-2.004284	2.328361	0.000000	-0.241756	0.000000	-0.000008	-0.000000	0.000000	0.000000
60.810400	13.621094	22.963471	1.072822	-1.511134	2.236203	0.000000	-0.176630	0.000000	-0.000008	-0.000000	0.000000	0.000000
61.251360	12.854160	24.052537	0.673014	-0.949229	2.172293	0.000000	-0.113516	0.000000	-0.000008	-0.000001	0.000000	0.000000
61.692320	12.424985	24.625037	0.303953	-0.344134	2.135902	0.000000	-0.051694	0.000000	-0.000008	-0.000001	0.000000	0.000000
62.134530	12.314013	24.654382	-0.021122	0.216099	2.126622	0.000000	0.004323	0.000000	-0.000009	-0.000001	0.000000	0.000000
62.431853	12.333756	24.529633	-0.045278	0.203477	2.127908	0.000000	0.004323	0.000000	-0.000009	-0.000001	0.000000	0.000000
62.765186	12.372968	24.398699	-0.072360	0.189325	2.129349	0.000000	0.004323	0.000000	-0.000009	-0.000001	0.000000	0.000000
63.098520	12.430235	24.277199	-0.099441	0.175173	2.130790	0.000000	0.004323	0.000000	-0.000010	-0.000001	0.000000	0.000000
63.433103	12.505873	24.164732	-0.126624	0.160969	2.132237	0.000000	0.004323	0.000000	-0.000010	-0.000001	0.000000	0.000000
63.730426	12.588351	24.072766	-0.119907	0.089306	2.133523	0.000000	-0.000910	0.000000	-0.000010	-0.000001	0.000000	0.000000
64.171386	12.854412	23.728891	-0.485750	0.687558	2.146660	0.000000	0.060551	0.000000	-0.000011	-0.000001	0.000000	0.000000
64.612346	13.451647	22.869239	-0.873786	1.254526	2.187026	0.000000	0.122701	0.000000	-0.000012	-0.000002	0.000000	0.000000
65.053306	14.407342	21.532921	-1.301743	1.764415	2.255079	0.000000	0.186248	0.000000	-0.000012	-0.000002	0.000000	0.000000
65.494266	15.765160	19.780741	-1.789172	2.194024	2.351594	0.000000	0.251917	0.000000	-0.000013	-0.000002	0.000000	0.000000
65.940226	17.610297	17.667626	-2.363036	2.524560	2.479244	0.000000	0.320857	0.000000	-0.000014	-0.000003	0.000000	0.000000
66.489286	19.975615	15.303711	-1.919406	1.806240	2.635053	0.000000	0.245853	0.000000	-0.000015	-0.000002	0.000000	0.000000
67.038346	21.775990	13.653745	-1.340199	1.216574	2.748421	0.000000	0.166488	0.000000	-0.000016	-0.000002	0.000000	0.000000
67.587406	22.884253	12.600203	-0.666327	0.713562	2.817336	0.000000	0.084169	0.000000	-0.000017	-0.000001	0.000000	0.000000
68.136466	23.222122	12.068044	0.054611	0.261376	2.840576	0.000000	0.000358	0.000000	-0.000018	-0.000000	0.000000	0.000000
68.435038	23.229588	11.901154	-0.018931	0.266049	2.842899	0.000000	0.007781	0.000000	-0.000018	-0.000000	0.000000	0.000000
68.768372	23.246994	11.733785	-0.033286	0.236058	2.845493	0.000000	0.007781	0.000000	-0.000018	-0.000000	0.000000	0.000000
69.101705	23.273969	11.586410	-0.047641	0.206067	2.848087	0.000000	0.007781	0.000000	-0.000018	-0.000000	0.000000	0.000000
69.436288	23.310669	11.458589	-0.062049	0.175964	2.850691	0.000000	0.007781	0.000000	-0.000018	-0.000000	0.000000	0.000000
69.733611	23.351373	11.361907	-0.135875	0.178904	2.853005	0.000000	0.015237	0.000000	-0.000018	-0.000001	0.000000	0.000000
70.282671	23.099533	11.392989	0.591835	-0.235847	2.838192	0.000000	-0.069113	0.000000	-0.000018	0.000000	0.000000	0.000000
