#ParticleID	Turn	x[m]	xp	y[m]	yp	z[m]	dE[GeV]# s	beta_x	beta_y	alpha_x	alpha_y	D_x	D_y	D_px	D_py	orbit_x	orbit_px	orbit_y	orbit_py
0.300000	11.824473	24.975361	-0.012331	-0.027644	2.618123	0.000000	0.000007	0.000000	0.000001	0.000000	0.000000	0.000000
0.601250	11.839578	24.995653	-0.037812	-0.039715	2.618125	0.000000	0.000007	0.000000	0.000001	0.000000	0.000000	0.000000
0.898573	11.869540	25.022811	-0.033853	-0.112991	2.618127	0.000000	-0.006413	0.000000	0.000001	0.000000	0.000000	0.000000
1.339533	12.051657	24.844914	-0.380714	0.514888	2.631593	0.000000	0.067544	0.000000	0.000001	0.000000	0.000000	0.000000
1.780493	12.546162	24.121531	-0.744969	1.119341	2.677809	0.000000	0.142271	0.000000	0.000002	0.000001	0.000000	0.000000
2.221453	13.375649	22.885577	-1.143260	1.672865	2.757302	0.000000	0.218619	0.000000	0.000002	0.000001	0.000000	0.000000
2.662413	14.578014	21.193286	-1.593783	2.150274	2.870977	0.000000	0.297456	0.000000	0.000002	0.000001	0.000000	0.000000
3.108373	16.228972	19.096836	-2.121417	2.530979	3.021992	0.000000	0.380170	0.000000	0.000003	0.000001	0.000000	0.000000
3.657433	18.346019	16.742282	-1.711524	1.782670	3.205456	0.000000	0.287132	0.000000	0.000003	0.000001	0.000000	0.000000
4.206493	19.943501	15.135331	-1.180737	1.161337	3.336361	0.000000	0.189002	0.000000	0.000003	0.000001	0.000000	0.000000
4.755553	20.908579	14.161523	-0.566549	0.622723	3.412386	0.000000	0.087518	0.000000	0.000003	0.000000	0.000000	0.000000
5.304613	21.173086	13.751497	0.087657	0.128465	3.432181	0.000000	-0.015517	0.000000	0.000004	0.000000	0.000000	0.000000
5.603185	21.157990	13.659988	0.018221	0.142095	3.430226	0.000000	-0.006550	0.000000	0.000004	0.000000	0.000000	0.000000
5.936519	21.151096	13.573556	0.002462	0.117200	3.428042	0.000000	-0.006550	0.000000	0.000004	0.000000	0.000000	0.000000
6.269852	21.154708	13.503721	-0.013298	0.092305	3.425859	0.000000	-0.006550	0.000000	0.000004	0.000000	0.000000	0.000000
6.604435	21.168899	13.450314	-0.029117	0.067317	3.423667	0.000000	-0.006550	0.000000	0.000004	0.000000	0.000000	0.000000
6.901758	21.190393	13.416887	-0.098539	0.080166	3.421720	0.000000	0.002390	0.000000	0.000004	0.000000	0.000000	0.000000
7.450818	20.937406	13.589474	0.556574	-0.396353	3.394830	0.000000	-0.100192	0.000000	0.000004	0.000000	0.000000	0.000000
7.999878	19.982457	14.297676	1.172374	-0.901104	3.312023	0.000000	-0.200996	0.000000	0.000004	0.000000	0.000000	0.000000
8.548938	18.392998	15.591935	1.705363	-1.470038	3.174767	0.000000	-0.298236	0.000000	0.000004	-0.000000	0.000000	0.000000
9.097998	16.281300	17.564440	2.117894	-2.143680	2.985496	0.000000	-0.390185	0.000000	0.000004	-0.000000	0.000000	0.000000
9.543958	14.633715	19.322083	1.589710	-1.780918	2.829796	0.000000	-0.308478	0.000000	0.000004	-0.000000	0.000000	0.000000
9.984918	13.435251	20.702812	1.138450	-1.338357	2.711016	0.000000	-0.230769	0.000000	0.000004	-0.000000	0.000000	0.000000
10.425878	12.610411	21.664793	0.739203	-0.834901	2.625891	0.000000	-0.155687	0.000000	0.000004	0.000000	0.000000	0.000000
10.866838	12.121508	22.164254	0.373728	-0.293458	2.573452	0.000000	-0.082379	0.000000	0.000004	0.000000	0.000000	0.000000
11.309048	11.946069	22.177955	0.054516	0.206893	2.553081	0.000000	-0.016270	0.000000	0.000004	0.000000	0.000000	0.000000
11.606371	11.921073	22.059084	0.029554	0.192913	2.548244	0.000000	-0.016270	0.000000	0.000004	0.000000	0.000000	0.000000
12.086371	11.912046	21.884721	-0.010746	0.170343	2.540435	0.000000	-0.016270	0.000000	0.000004	0.000000	0.000000	0.000000
12.566371	11.941706	21.732025	-0.051046	0.147774	2.532625	0.000000	-0.016270	0.000000	0.000005	0.000000	0.000000	0.000000
13.046371	12.010055	21.600996	-0.091346	0.125204	2.524816	0.000000	-0.016270	0.000000	0.000005	0.000000	0.000000	0.000000
13.526371	12.117091	21.491633	-0.131646	0.102634	2.517006	0.000000	-0.016270	0.000000	0.000005	0.000000	0.000000	0.000000
14.007621	12.263246	21.403737	-0.172051	0.080006	2.509176	0.000000	-0.016270	0.000000	0.000005	0.000000	0.000000	0.000000
14.304943	12.372977	21.360319	-0.166673	0.013647	2.504339	0.000000	-0.022411	0.000000	0.000005	0.000000	0.000000	0.000000
14.745903	12.678622	21.114475	-0.529090	0.541750	2.510088	0.000000	0.048514	0.000000	0.000005	0.000000	0.000000	0.000000
15.186863	13.313299	20.412019	-0.915679	1.045204	2.547205	0.000000	0.119991	0.000000	0.000005	0.000001	0.000000	0.000000
15.627823	14.306007	19.284911	-1.344103	1.501102	2.616111	0.000000	0.192835	0.000000	0.000006	0.000001	0.000000	0.000000
16.068783	15.702099	17.784434	-1.833936	1.888701	2.717592	0.000000	0.267875	0.000000	0.000006	0.000001	0.000000	0.000000
16.514743	17.589013	15.957355	-2.412313	2.191113	2.854498	0.000000	0.346429	0.000000	0.000006	0.000001	0.000000	0.000000
17.063803	20.012327	13.917165	-1.975127	1.546606	3.020976	0.000000	0.259093	0.000000	0.000007	0.000001	0.000000	0.000000
17.612863	21.875642	12.520438	-1.398428	1.012261	3.138168	0.000000	0.167162	0.000000	0.000007	0.000001	0.000000	0.000000
18.161923	23.047343	11.667687	-0.722952	0.550017	3.203995	0.000000	0.072265	0.000000	0.000008	0.000000	0.000000	0.000000
18.710983	23.444667	11.298174	0.003591	0.126949	3.217288	0.000000	-0.023913	0.000000	0.000008	0.000000	0.000000	0.000000
19.009556	23.482914	11.212823	-0.070439	0.129393	3.212658	0.000000	-0.015507	0.000000	0.000008	0.000000	0.000000	0.000000
19.342889	23.534629	11.136636	-0.084704	0.099168	3.207489	0.000000	-0.015507	0.000000	0.000008	0.000000	0.000000	0.000000
19.676223	23.595854	11.080600	-0.098969	0.068942	3.202320	0.000000	-0.015507	0.000000	0.000008	0.000000	0.000000	0.000000
20.010806	23.667164	11.044480	-0.230548	0.093325	3.197151	0.000000	0.000333	0.000000	0.000008	0.000000	0.000000	0.000000
20.308129	23.808193	10.997059	-0.305981	0.094901	3.197250	0.000000	0.008687	0.000000	0.000008	0.000000	0.000000	0.000000
20.857189	23.733572	11.115260	0.441084	-0.311451	3.175799	0.000000	-0.086710	0.000000	0.000008	-0.000000	0.000000	0.000000
21.406249	22.850907	11.689176	1.156992	-0.739988	3.102315	0.000000	-0.180569	0.000000	0.000008	-0.000000	0.000000	0.000000
21.955309	21.222546	12.759684	1.791177	-1.221232	2.978101	0.000000	-0.271225	0.000000	0.000007	-0.000001	0.000000	0.000000
22.504369	18.963507	14.403036	2.298842	-1.789462	2.805361	0.000000	-0.357070	0.000000	0.000007	-0.000001	0.000000	0.000000
22.950329	17.183274	15.878356	1.707160	-1.504771	2.663417	0.000000	-0.279857	0.000000	0.000007	-0.000001	0.000000	0.000000
23.391289	15.906981	17.054570	1.198171	-1.152472	2.556334	0.000000	-0.206285	0.000000	0.000006	-0.000000	0.000000	0.000000
23.832249	15.053831	17.895686	0.743923	-0.747736	2.481145	0.000000	-0.135064	0.000000	0.000006	-0.000000	0.000000	0.000000
24.273209	14.584847	18.363435	0.323663	-0.308978	2.436994	0.000000	-0.065380	0.000000	0.000006	-0.000000	0.000000	0.000000
24.715418	14.478718	18.436286	-0.046392	0.098560	2.423373	0.000000	-0.002384	0.000000	0.000006	-0.000000	0.000000	0.000000
25.012741	14.512424	18.382519	-0.066972	0.082277	2.422665	0.000000	-0.002384	0.000000	0.000006	-0.000000	0.000000	0.000000
25.346075	14.564763	18.333754	-0.090044	0.064021	2.421870	0.000000	-0.002384	0.000000	0.000006	-0.000000	0.000000	0.000000
25.679408	14.632482	18.297158	-0.113115	0.045765	2.421076	0.000000	-0.002384	0.000000	0.000006	-0.000000	0.000000	0.000000
26.013991	14.715625	18.273036	-0.016891	-0.120799	2.420254	0.000000	-0.022018	0.000000	0.000006	-0.000000	0.000000	0.000000
26.311314	14.731678	18.349777	-0.000977	-0.182304	2.413707	0.000000	-0.027937	0.000000	0.000006	-0.000000	0.000000	0.000000
26.752274	14.914058	18.311515	-0.414189	0.268743	2.416499	0.000000	0.040613	0.000000	0.000006	0.000000	0.000000	0.000000
27.193234	15.467793	17.879358	-0.846323	0.707564	2.449592	0.000000	0.109626	0.000000	0.000006	0.000000	0.000000	0.000000
27.634194	16.418181	17.072969	-1.317124	1.114190	2.513363	0.000000	0.179887	0.000000	0.000006	0.000000	0.000000	0.000000
28.075154	17.808644	15.929038	-1.848101	1.470122	2.608539	0.000000	0.252197	0.000000	0.000006	0.000001	0.000000	0.000000
28.521114	19.726868	14.482382	-2.468471	1.760078	2.737805	0.000000	0.327823	0.000000	0.000007	0.000001	0.000000	0.000000
29.070174	22.164942	12.870424	-1.945694	1.193102	2.895133	0.000000	0.244416	0.000000	0.000007	0.000000	0.000000	0.000000
29.619234	23.949617	11.831034	-1.285483	0.711108	3.005407	0.000000	0.156675	0.000000	0.000007	0.000000	0.000000	0.000000
30.168294	24.954832	11.290177	-0.534471	0.279765	3.066670	0.000000	0.066154	0.000000	0.000007	0.000000	0.000000	0.000000
30.717354	25.109582	11.209330	0.254293	-0.131651	3.077836	0.000000	-0.025541	0.000000	0.000007	-0.000000	0.000000	0.000000
31.015927	25.000584	11.278493	0.176376	-0.129280	3.072612	0.000000	-0.017499	0.000000	0.000007	-0.000000	0.000000	0.000000
31.349260	24.887582	11.374695	0.162628	-0.159328	3.066778	0.000000	-0.017499	0.000000	0.000007	-0.000000	0.000000	0.000000
31.682593	24.783746	11.490931	0.148880	-0.189377	3.060945	0.000000	-0.017499	0.000000	0.000007	-0.000000	0.000000	0.000000
32.017177	24.688738	11.627747	0.135081	-0.219538	3.055091	0.000000	-0.017499	0.000000	0.000007	-0.000000	0.000000	0.000000
32.314499	24.612058	11.766263	0.058515	-0.215600	3.049888	0.000000	-0.009531	0.000000	0.000007	-0.000000	0.000000	0.000000
32.863559	24.126160	12.242311	0.821210	-0.656541	3.019770	0.000000	-0.100013	0.000000	0.000007	-0.000000	0.000000	0.000000
33.412619	22.829782	13.225250	1.525899	-1.144247	2.940388	0.000000	-0.188720	0.000000	0.000006	-0.000001	0.000000	0.000000
33.961679	20.814494	14.785093	2.122805	-1.713455	2.813148	0.000000	-0.274081	0.000000	0.000006	-0.000001	0.000000	0.000000
34.510739	18.222647	17.032943	2.569768	-2.404708	2.640308	0.000000	-0.354580	0.000000	0.000006	-0.000001	0.000000	0.000000
34.956699	16.207460	19.043518	1.965184	-2.084888	2.498523	0.000000	-0.281646	0.000000	0.000005	-0.000001	0.000000	0.000000
35.397659	14.704824	20.706021	1.455390	-1.670954	2.389711	0.000000	-0.212347	0.000000	0.000005	-0.000001	0.000000	0.000000
35.838619	13.620876	21.968420	1.012090	-1.180994	2.310895	0.000000	-0.145468	0.000000	0.000005	-0.000001	0.000000	0.000000
36.279579	12.906093	22.773277	0.615029	-0.637299	2.261178	0.000000	-0.080245	0.000000	0.000004	-0.000001	0.000000	0.000000
36.721789	12.527128	23.084275	0.276680	-0.121269	2.239965	0.000000	-0.021429	0.000000	0.000004	-0.000000	0.000000	0.000000
37.019112	12.370198	23.160273	0.251129	-0.134338	2.233594	0.000000	-0.021429	0.000000	0.000004	-0.000000	0.000000	0.000000
37.352445	12.212328	23.254715	0.222483	-0.148990	2.226451	0.000000	-0.021429	0.000000	0.000004	-0.000000	0.000000	0.000000
37.685779	12.073555	23.358926	0.193837	-0.163642	2.219309	0.000000	-0.021429	0.000000	0.000004	-0.000000	0.000000	0.000000
38.020362	11.953466	23.473351	0.165083	-0.178349	2.212139	0.000000	-0.021429	0.000000	0.000004	-0.000000	0.000000	0.000000
38.317684	11.862897	23.583291	0.168623	-0.249250	2.205768	0.000000	-0.026838	0.000000	0.000003	-0.000000	0.000000	0.000000
38.758644	11.865472	23.541908	-0.174484	0.342740	2.207861	0.000000	0.036343	0.000000	0.000003	-0.000000	0.000000	0.000000
39.199604	12.172997	22.983345	-0.525562	0.919137	2.237880	0.000000	0.099937	0.000000	0.000003	-0.000000	0.000000	0.000000
39.640564	12.799523	21.933017	-0.900651	1.453713	2.296165	0.000000	0.164670	0.000000	0.000003	-0.000000	0.000000	0.000000
40.081524	13.773674	20.438712	-1.316889	1.922146	2.383380	0.000000	0.231278	0.000000	0.000003	-0.000000	0.000000	0.000000
40.527484	15.157525	18.545852	-1.797117	2.304403	2.501992	0.000000	0.300925	0.000000	0.000003	-0.000000	0.000000	0.000000
41.076544	16.923632	16.418819	-1.400443	1.592418	2.646687	0.000000	0.225364	0.000000	0.000003	-0.000000	0.000000	0.000000
41.625604	18.196913	15.007131	-0.904849	0.993858	2.748734	0.000000	0.145805	0.000000	0.000003	-0.000000	0.000000	0.000000
42.174664	18.887429	14.210237	-0.345341	0.466088	2.806324	0.000000	0.063660	0.000000	0.000003	-0.000000	0.000000	0.000000
42.723724	18.946407	13.971376	0.238561	-0.028484	2.818434	0.000000	-0.019614	0.000000	0.000003	-0.000000	0.000000	0.000000
43.022297	18.838385	13.972968	0.172736	-0.013352	2.814777	0.000000	-0.012250	0.000000	0.000002	-0.000000	0.000000	0.000000
43.502297	18.685154	14.002278	0.146496	-0.047710	2.808897	0.000000	-0.012250	0.000000	0.000002	-0.000000	0.000000	0.000000
43.982297	18.557113	14.064572	0.120256	-0.082068	2.803018	0.000000	-0.012250	0.000000	0.000002	-0.000000	0.000000	0.000000
44.462297	18.454263	14.159850	0.094016	-0.116427	2.797138	0.000000	-0.012250	0.000000	0.000002	-0.000000	0.000000	0.000000
44.942297	18.376603	14.288111	0.067776	-0.150785	2.791258	0.000000	-0.012250	0.000000	0.000002	-0.000000	0.000000	0.000000
45.423547	18.324257	14.449640	-0.049322	-0.113640	2.785380	0.000000	0.001551	0.000000	0.000002	-0.000000	0.000000	0.000000
45.720870	18.358422	14.523413	-0.113553	-0.096536	2.785842	0.000000	0.008830	0.000000	0.000001	-0.000000	0.000000	0.000000
46.269930	18.173992	14.910367	0.447466	-0.612382	2.768117	0.000000	-0.073298	0.000000	0.000001	-0.000000	0.000000	0.000000
46.818990	17.387284	15.884267	0.976878	-1.171847	2.705591	0.000000	-0.154124	0.000000	0.000001	-0.000000	0.000000	0.000000
47.368050	16.053868	17.514481	1.437289	-1.814780	2.599373	0.000000	-0.232218	0.000000	0.000001	-0.000000	0.000000	0.000000
47.917110	14.267930	19.917126	1.796176	-2.586975	2.451346	0.000000	-0.306192	0.000000	0.000000	-0.000000	0.000000	0.000000
48.363070	12.878039	22.053355	1.331491	-2.183066	2.330089	0.000000	-0.237893	0.000000	0.000000	-0.000000	0.000000	0.000000
48.804030	11.883964	23.763806	0.931405	-1.681101	2.239647	0.000000	-0.172700	0.000000	0.000000	-0.000000	0.000000	0.000000
49.244990	11.222705	24.996016	0.573873	-1.102646	2.177493	0.000000	-0.109474	0.000000	-0.000000	-0.000000	0.000000	0.000000
49.685950	10.864051	25.693919	0.242559	-0.474022	2.142918	0.000000	-0.047495	0.000000	-0.000000	-0.000000	0.000000	0.000000
50.128160	10.791746	25.825480	-0.051324	0.112788	2.135538	0.000000	0.008706	0.000000	-0.000001	-0.000000	0.000000	0.000000
50.425482	10.830479	25.761877	-0.078948	0.101129	2.138127	0.000000	0.008706	0.000000	-0.000001	-0.000000	0.000000	0.000000
50.758816	10.893434	25.698815	-0.109917	0.088058	2.141029	0.000000	0.008706	0.000000	-0.000001	-0.000000	0.000000	0.000000
51.092149	10.977035	25.644467	-0.140886	0.074986	2.143931	0.000000	0.008706	0.000000	-0.000001	-0.000000	0.000000	0.000000
51.426732	11.081487	25.599197	-0.082071	-0.145807	2.146822	0.000000	-0.008710	0.000000	-0.000001	-0.000000	0.000000	0.000000
51.724055	11.138322	25.689428	-0.081768	-0.220668	2.144233	0.000000	-0.013969	0.000000	-0.000001	-0.000000	0.000000	0.000000
52.165015	11.355842	25.598255	-0.413393	0.426640	2.151661	0.000000	0.047694	0.000000	-0.000002	-0.000001	0.000000	0.000000
52.605975	11.873022	24.942622	-0.763905	1.054535	2.186375	0.000000	0.109900	0.000000	-0.000002	-0.000001	0.000000	0.000000
53.046935	12.713488	23.752358	-1.149318	1.634450	2.248769	0.000000	0.173358	0.000000	-0.000002	-0.000001	0.000000	0.000000
53.487895	13.915639	22.081619	-1.587239	2.139998	2.339553	0.000000	0.238790	0.000000	-0.000002	-0.000001	0.000000	0.000000
53.933855	15.555003	19.981442	-2.101912	2.549514	2.461267	0.000000	0.307341	0.000000	-0.000003	-0.000001	0.000000	0.000000
54.482915	17.665598	17.618269	-1.719350	1.779927	2.609836	0.000000	0.233037	0.000000	-0.000003	-0.000001	0.000000	0.000000
55.031975	19.286514	16.026034	-1.215341	1.137120	2.716410	0.000000	0.154599	0.000000	-0.000003	-0.000001	0.000000	0.000000
55.581035	20.303258	15.091326	-0.625487	0.575307	2.779100	0.000000	0.073419	0.000000	-0.000004	-0.000000	0.000000	0.000000
56.130095	20.644011	14.747569	0.008548	0.054472	2.796794	0.000000	-0.009064	0.000000	-0.000004	-0.000000	0.000000	0.000000
56.428668	20.675444	14.698127	-0.059885	0.072586	2.796270	0.000000	-0.001756	0.000000	-0.000004	-0.000000	0.000000	0.000000
56.762001	20.720761	14.657336	-0.076065	0.049788	2.795684	0.000000	-0.001756	0.000000	-0.000004	-0.000000	0.000000	0.000000
57.095334	20.776865	14.631744	-0.092245	0.026989	2.795099	0.000000	-0.001756	0.000000	-0.000004	-0.000000	0.000000	0.000000
57.429918	20.844026	14.621340	-0.108486	0.004106	2.794512	0.000000	-0.001756	0.000000	-0.000004	-0.000000	0.000000	0.000000
57.727240	20.912828	14.624944	-0.177561	0.021984	2.793990	0.000000	0.005544	0.000000	-0.000004	-0.000000	0.000000	0.000000
58.276300	20.750996	14.881688	0.470559	-0.492350	2.774394	0.000000	-0.076816	0.000000	-0.000004	-0.000000	0.000000	0.000000
58.825360	19.891571	15.719059	1.085442	-1.041752	2.709886	0.000000	-0.157815	0.000000	-0.000005	-0.000000	0.000000	0.000000
59.374420	18.395257	17.196702	1.623654	-1.665357	2.601609	0.000000	-0.236014	0.000000	-0.000004	0.000000	0.000000	0.000000
59.923480	16.367746	19.419866	2.047180	-2.407581	2.451484	0.000000	-0.310026	0.000000	-0.000004	0.000000	0.000000	0.000000
60.369440	14.780773	21.395881	1.523978	-2.004641	2.328514	0.000000	-0.241746	0.000000	-0.000004	0.000000	0.000000	0.000000
60.810400	13.639230	22.952441	1.074611	-1.511863	2.236361	0.000000	-0.176616	0.000000	-0.000004	0.000000	0.000000	0.000000
61.251360	12.870928	24.042302	0.674339	-0.950296	2.172458	0.000000	-0.113497	0.000000	-0.000004	-0.000000	0.000000	0.000000
61.692320	12.440764	24.615876	0.304877	-0.345492	2.136077	0.000000	-0.051671	0.000000	-0.000004	-0.000000	0.000000	0.000000
62.134530	12.329138	24.646528	-0.020522	0.214534	2.126808	0.000000	0.004350	0.000000	-0.000004	-0.000000	0.000000	0.000000
62.431853	12.348515	24.522708	-0.044648	0.201916	2.128101	0.000000	0.004350	0.000000	-0.000005	-0.000000	0.000000	0.000000
62.765186	12.387296	24.392813	-0.071695	0.187769	2.129551	0.000000	0.004350	0.000000	-0.000005	-0.000000	0.000000	0.000000
63.098520	12.444109	24.272350	-0.098743	0.173622	2.131001	0.000000	0.004350	0.000000	-0.000005	-0.000000	0.000000	0.000000
63.433103	12.519268	24.160919	-0.125892	0.159422	2.132457	0.000000	0.004350	0.000000	-0.000005	-0.000000	0.000000	0.000000
63.730426	12.601302	24.069872	-0.119114	0.087774	2.133751	0.000000	-0.000883	0.000000	-0.000005	-0.000000	0.000000	0.000000
64.171386	12.866788	23.727370	-0.485233	0.685989	2.146901	0.000000	0.060584	0.000000	-0.000005	-0.000000	0.000000	0.000000
64.612346	13.463679	22.869092	-0.873520	1.252992	2.187282	0.000000	0.122740	0.000000	-0.000005	-0.000001	0.000000	0.000000
65.053306	14.419246	21.534087	-1.301717	1.762985	2.255354	0.000000	0.186295	0.000000	-0.000006	-0.000001	0.000000	0.000000
65.494266	15.777147	19.783097	-1.789385	2.192763	2.351891	0.000000	0.251971	0.000000	-0.000006	-0.000001	0.000000	0.000000
65.940226	17.622584	17.671008	-2.363498	2.523529	2.479566	0.000000	0.320919	0.000000	-0.000006	-0.000001	0.000000	0.000000
66.489286	19.988146	15.308185	-1.919384	1.805270	2.635405	0.000000	0.245904	0.000000	-0.000007	-0.000001	0.000000	0.000000
67.038346	21.788231	13.659282	-1.339695	1.215596	2.748797	0.000000	0.166527	0.000000	-0.000007	-0.000001	0.000000	0.000000
67.587406	22.895692	12.606850	-0.665377	0.712506	2.817730	0.000000	0.084196	0.000000	-0.000007	-0.000000	0.000000	0.000000
68.136466	23.232301	12.075928	0.055940	0.260167	2.840981	0.000000	0.000372	0.000000	-0.000007	-0.000000	0.000000	0.000000
68.435038	23.238984	11.909739	-0.017617	0.264892	2.843308	0.000000	0.007795	0.000000	-0.000007	-0.000000	0.000000	0.000000
68.768372	23.255512	11.743128	-0.031965	0.234940	2.845907	0.000000	0.007795	0.000000	-0.000008	-0.000000	0.000000	0.000000
69.101705	23.281605	11.596485	-0.046313	0.204988	2.848505	0.000000	0.007795	0.000000	-0.000008	-0.000000	0.000000	0.000000
69.436288	23.317415	11.469373	-0.060715	0.174923	2.851113	0.000000	0.007795	0.000000	-0.000008	-0.000000	0.000000	0.000000
69.733611	23.357324	11.373299	-0.134546	0.177925	2.853431	0.000000	0.015251	0.000000	-0.000008	-0.000000	0.000000	0.000000
70.282671	23.103928	11.405634	0.593322	-0.237165	2.838623	0.000000	-0.069113	0.000000	-0.000008	0.000000	0.000000	0.000000
