#ParticleID	Turn	x[m]	xp	y[m]	yp	z[m]	dE[GeV]# s	beta_x	beta_y	alpha_x	alpha_y	D_x	D_y	D_px	D_py	orbit_x	orbit_px	orbit_y	orbit_py
0.300000	11.820667	24.990652	-0.011827	-0.027540	2.618070	0.000000	0.000029	0.000000	0.000000	0.000001	0.000000	0.000000
0.601250	11.835472	25.010879	-0.037316	-0.039604	2.618079	0.000000	0.000029	0.000000	0.000001	0.000001	0.000000	0.000000
0.898573	11.865141	25.037969	-0.033375	-0.112910	2.618087	0.000000	-0.006391	0.000000	0.000001	0.000001	0.000000	0.000000
1.339533	12.046788	24.859823	-0.380124	0.515368	2.631562	0.000000	0.067565	0.000000	0.000001	0.000001	0.000000	0.000000
1.780493	12.540714	24.135849	-0.744240	1.120198	2.677786	0.000000	0.142292	0.000000	0.000001	0.000001	0.000000	0.000000
2.221453	13.369485	22.898987	-1.142358	1.674059	2.757288	0.000000	0.218638	0.000000	0.000002	0.000001	0.000000	0.000000
2.662413	14.570963	21.205513	-1.592667	2.151752	2.870973	0.000000	0.297475	0.000000	0.000002	0.000001	0.000000	0.000000
3.108373	16.220810	19.107642	-2.120033	2.532674	3.021995	0.000000	0.380190	0.000000	0.000002	0.000001	0.000000	0.000000
3.657433	18.336442	16.751467	-1.710346	1.783945	3.205470	0.000000	0.287152	0.000000	0.000003	0.000001	0.000000	0.000000
4.206493	19.932783	15.143304	-1.179849	1.162283	3.336386	0.000000	0.189020	0.000000	0.000003	0.000001	0.000000	0.000000
4.755553	20.897074	14.168606	-0.566013	0.623408	3.412421	0.000000	0.087536	0.000000	0.000003	0.000001	0.000000	0.000000
5.304613	21.161203	13.757948	0.087804	0.128936	3.432225	0.000000	-0.015501	0.000000	0.000004	0.000000	0.000000	0.000000
5.603185	21.146003	13.666145	0.018391	0.142590	3.430275	0.000000	-0.006534	0.000000	0.000004	0.000000	0.000000	0.000000
5.936519	21.138999	13.579381	0.002622	0.117703	3.428097	0.000000	-0.006534	0.000000	0.000004	0.000000	0.000000	0.000000
6.269852	21.142507	13.509208	-0.013147	0.092816	3.425919	0.000000	-0.006534	0.000000	0.000004	0.000000	0.000000	0.000000
6.604435	21.156600	13.455456	-0.028974	0.067836	3.423732	0.000000	-0.006534	0.000000	0.000004	0.000000	0.000000	0.000000
6.901758	21.178012	13.421718	-0.098372	0.080704	3.421790	0.000000	0.002407	0.000000	0.000004	0.000000	0.000000	0.000000
7.450818	20.925071	13.593787	0.556325	-0.395942	3.394909	0.000000	-0.100178	0.000000	0.000004	0.000000	0.000000	0.000000
7.999878	19.970616	14.301593	1.171727	-0.900790	3.312109	0.000000	-0.200985	0.000000	0.000005	0.000000	0.000000	0.000000
8.548938	18.382067	15.595552	1.704363	-1.469800	3.174858	0.000000	-0.298227	0.000000	0.000005	-0.000000	0.000000	0.000000
9.097998	16.271630	17.567829	2.116611	-2.143500	2.985591	0.000000	-0.390180	0.000000	0.000005	-0.000000	0.000000	0.000000
9.543958	14.625059	19.325252	1.588711	-1.780609	2.829894	0.000000	-0.308470	0.000000	0.000005	-0.000000	0.000000	0.000000
9.984918	13.427370	20.705657	1.137686	-1.337932	2.711118	0.000000	-0.230758	0.000000	0.000005	0.000000	0.000000	0.000000
10.425878	12.603112	21.667219	0.738640	-0.834381	2.625999	0.000000	-0.155674	0.000000	0.000005	0.000000	0.000000	0.000000
10.866838	12.114627	22.166188	0.373339	-0.292866	2.573566	0.000000	-0.082363	0.000000	0.000005	0.000000	0.000000	0.000000
11.309048	11.939462	22.179343	0.054268	0.207527	2.553203	0.000000	-0.016250	0.000000	0.000005	0.000000	0.000000	0.000000
11.606371	11.914618	22.060096	0.029292	0.193544	2.548372	0.000000	-0.016250	0.000000	0.000005	0.000000	0.000000	0.000000
12.086371	11.905851	21.885129	-0.011029	0.170970	2.540571	0.000000	-0.016250	0.000000	0.000005	0.000000	0.000000	0.000000
12.566371	11.935793	21.731834	-0.051350	0.148396	2.532771	0.000000	-0.016250	0.000000	0.000005	0.000000	0.000000	0.000000
13.046371	12.004443	21.600209	-0.091671	0.125822	2.524970	0.000000	-0.016250	0.000000	0.000006	0.000000	0.000000	0.000000
13.526371	12.111802	21.490255	-0.131993	0.103249	2.517170	0.000000	-0.016250	0.000000	0.000006	0.000000	0.000000	0.000000
14.007621	12.258300	21.401770	-0.172419	0.080616	2.509349	0.000000	-0.016250	0.000000	0.000006	0.000000	0.000000	0.000000
14.304943	12.368254	21.357989	-0.167066	0.014260	2.504517	0.000000	-0.022392	0.000000	0.000006	0.000000	0.000000	0.000000
14.745903	12.674201	21.111637	-0.529387	0.542287	2.510276	0.000000	0.048538	0.000000	0.000006	0.000001	0.000000	0.000000
15.186863	13.309104	20.408750	-0.915895	1.045640	2.547404	0.000000	0.120020	0.000000	0.000007	0.000001	0.000000	0.000000
15.627823	14.301970	19.281309	-1.344248	1.501417	2.616324	0.000000	0.192869	0.000000	0.000007	0.000001	0.000000	0.000000
16.068783	15.698161	17.780612	-1.834015	1.888881	2.717821	0.000000	0.267915	0.000000	0.000007	0.000001	0.000000	0.000000
16.514743	17.585118	15.953436	-2.412331	2.191149	2.854745	0.000000	0.346475	0.000000	0.000008	0.000001	0.000000	0.000000
17.063803	20.008547	13.913167	-1.975318	1.546717	3.021246	0.000000	0.259130	0.000000	0.000009	0.000001	0.000000	0.000000
17.612863	21.872161	12.516275	-1.398779	1.012453	3.138456	0.000000	0.167190	0.000000	0.000009	0.000001	0.000000	0.000000
18.161923	23.044324	11.663262	-0.723437	0.550304	3.204296	0.000000	0.072284	0.000000	0.000009	0.000000	0.000000	0.000000
18.710983	23.442240	11.293371	0.003005	0.127352	3.217597	0.000000	-0.023904	0.000000	0.000009	0.000000	0.000000	0.000000
19.009556	23.480834	11.207792	-0.071020	0.129769	3.212969	0.000000	-0.015498	0.000000	0.000010	0.000000	0.000000	0.000000
19.342889	23.532937	11.131360	-0.085288	0.099527	3.207803	0.000000	-0.015498	0.000000	0.000010	0.000000	0.000000	0.000000
19.676223	23.594551	11.075089	-0.099555	0.069285	3.202637	0.000000	-0.015498	0.000000	0.000010	0.000000	0.000000	0.000000
20.010806	23.666255	11.038746	-0.231132	0.093622	3.197472	0.000000	0.000344	0.000000	0.000010	0.000000	0.000000	0.000000
20.308129	23.807631	10.991152	-0.306566	0.095167	3.197574	0.000000	0.008698	0.000000	0.000010	0.000000	0.000000	0.000000
20.857189	23.733660	11.108969	0.440492	-0.311013	3.176126	0.000000	-0.086709	0.000000	0.000010	-0.000000	0.000000	0.000000
21.406249	22.851628	11.682295	1.156437	-0.739346	3.102640	0.000000	-0.180578	0.000000	0.000010	-0.000000	0.000000	0.000000
21.955309	21.223839	12.751966	1.790696	-1.220341	2.978418	0.000000	-0.271245	0.000000	0.000009	-0.000001	0.000000	0.000000
22.504369	18.965271	14.394174	2.298470	-1.788258	2.805665	0.000000	-0.357100	0.000000	0.000009	-0.000001	0.000000	0.000000
22.950329	17.185369	15.868508	1.706788	-1.503772	2.663709	0.000000	-0.279879	0.000000	0.000008	-0.000001	0.000000	0.000000
23.391289	15.909410	17.043947	1.197782	-1.151721	2.556618	0.000000	-0.206300	0.000000	0.000008	-0.000001	0.000000	0.000000
23.832249	15.056618	17.884523	0.743498	-0.747267	2.481424	0.000000	-0.135071	0.000000	0.000008	-0.000000	0.000000	0.000000
24.273209	14.588032	18.351992	0.323183	-0.308814	2.437271	0.000000	-0.065380	0.000000	0.000008	-0.000000	0.000000	0.000000
24.715418	14.482361	18.424836	-0.046942	0.098442	2.423652	0.000000	-0.002377	0.000000	0.000008	0.000000	0.000000	0.000000
25.012741	14.516392	18.371143	-0.067517	0.082148	2.422945	0.000000	-0.002377	0.000000	0.000008	0.000000	0.000000	0.000000
25.346075	14.569092	18.322466	-0.090584	0.063881	2.422153	0.000000	-0.002377	0.000000	0.000008	0.000000	0.000000	0.000000
25.679408	14.637170	18.285968	-0.113651	0.045614	2.421360	0.000000	-0.002377	0.000000	0.000008	0.000000	0.000000	0.000000
26.013991	14.720670	18.261949	-0.017381	-0.120871	2.420541	0.000000	-0.022014	0.000000	0.000008	-0.000000	0.000000	0.000000
26.311314	14.737013	18.338736	-0.001448	-0.182358	2.413995	0.000000	-0.027934	0.000000	0.000008	-0.000000	0.000000	0.000000
26.752274	14.919867	18.300654	-0.414798	0.268392	2.416790	0.000000	0.040624	0.000000	0.000008	0.000000	0.000000	0.000000
27.193234	15.474211	17.868933	-0.847099	0.706930	2.449890	0.000000	0.109644	0.000000	0.000008	0.000000	0.000000	0.000000
27.634194	16.425370	17.063216	-1.318102	1.113304	2.513671	0.000000	0.179913	0.000000	0.000008	0.000001	0.000000	0.000000
28.075154	17.816800	15.920163	-1.849325	1.469023	2.608859	0.000000	0.252231	0.000000	0.000008	0.000001	0.000000	0.000000
28.521114	19.736248	14.474566	-2.470001	1.758816	2.738143	0.000000	0.327866	0.000000	0.000009	0.000001	0.000000	0.000000
29.070174	22.175881	12.863824	-1.946985	1.192136	2.895491	0.000000	0.244448	0.000000	0.000009	0.000001	0.000000	0.000000
29.619234	23.961800	11.825364	-1.286443	0.710369	3.005779	0.000000	0.156694	0.000000	0.000010	0.000000	0.000000	0.000000
30.168294	24.967856	11.285220	-0.535034	0.279200	3.067050	0.000000	0.066161	0.000000	0.000010	0.000000	0.000000	0.000000
30.717354	25.122986	11.204918	0.254168	-0.132082	3.078217	0.000000	-0.025545	0.000000	0.000010	-0.000000	0.000000	0.000000
31.015927	25.014080	11.274350	0.176225	-0.129737	3.072991	0.000000	-0.017503	0.000000	0.000010	-0.000000	0.000000	0.000000
31.349260	24.901177	11.370862	0.162485	-0.159800	3.067156	0.000000	-0.017503	0.000000	0.000010	-0.000000	0.000000	0.000000
31.682593	24.797433	11.487416	0.148745	-0.189863	3.061322	0.000000	-0.017503	0.000000	0.000010	-0.000000	0.000000	0.000000
32.017177	24.702512	11.624563	0.134954	-0.220039	3.055466	0.000000	-0.017503	0.000000	0.000009	-0.000000	0.000000	0.000000
32.314499	24.625906	11.763381	0.058361	-0.216122	3.050262	0.000000	-0.009534	0.000000	0.000009	-0.000000	0.000000	0.000000
32.863559	24.139923	12.239969	0.821517	-0.657010	3.020140	0.000000	-0.100028	0.000000	0.000009	-0.000000	0.000000	0.000000
33.412619	22.842964	13.223410	1.526645	-1.144697	2.940746	0.000000	-0.188747	0.000000	0.000009	-0.000001	0.000000	0.000000
33.961679	20.826638	14.783750	2.123938	-1.713917	2.813488	0.000000	-0.274119	0.000000	0.000008	-0.000001	0.000000	0.000000
34.510739	18.233370	17.032131	2.571207	-2.405217	2.640624	0.000000	-0.354628	0.000000	0.000008	-0.000001	0.000000	0.000000
34.956699	16.217045	19.043198	1.966304	-2.085477	2.498819	0.000000	-0.281686	0.000000	0.000007	-0.000001	0.000000	0.000000
35.397659	14.713542	20.706246	1.456245	-1.671597	2.389991	0.000000	-0.212381	0.000000	0.000007	-0.000001	0.000000	0.000000
35.838619	13.628942	21.969225	1.012718	-1.181661	2.311162	0.000000	-0.145494	0.000000	0.000006	-0.000001	0.000000	0.000000
36.279579	12.913694	22.774669	0.615459	-0.637959	2.261434	0.000000	-0.080265	0.000000	0.000006	-0.000001	0.000000	0.000000
36.721789	12.534429	23.086238	0.276949	-0.121897	2.240215	0.000000	-0.021443	0.000000	0.000006	-0.000000	0.000000	0.000000
37.019112	12.377335	23.162609	0.251410	-0.134967	2.233840	0.000000	-0.021443	0.000000	0.000006	-0.000000	0.000000	0.000000
37.352445	12.219273	23.257472	0.222776	-0.149620	2.226692	0.000000	-0.021443	0.000000	0.000005	-0.000000	0.000000	0.000000
37.685779	12.080300	23.362103	0.194143	-0.164273	2.219545	0.000000	-0.021443	0.000000	0.000005	-0.000000	0.000000	0.000000
38.020362	11.960002	23.476950	0.165403	-0.178981	2.212371	0.000000	-0.021443	0.000000	0.000005	-0.000000	0.000000	0.000000
38.317684	11.869240	23.587267	0.168968	-0.249892	2.205995	0.000000	-0.026852	0.000000	0.000005	-0.000000	0.000000	0.000000
38.758644	11.871573	23.546401	-0.174279	0.342213	2.208084	0.000000	0.036334	0.000000	0.000005	-0.000000	0.000000	0.000000
39.199604	12.178976	22.988244	-0.525489	0.918747	2.238100	0.000000	0.099934	0.000000	0.000005	-0.000000	0.000000	0.000000
39.640564	12.805494	21.938192	-0.900706	1.453479	2.296385	0.000000	0.164673	0.000000	0.000005	-0.000000	0.000000	0.000000
40.081524	13.779751	20.444020	-1.317075	1.922079	2.383603	0.000000	0.231287	0.000000	0.000005	-0.000000	0.000000	0.000000
40.527484	15.163828	18.551144	-1.797442	2.304507	2.502220	0.000000	0.300940	0.000000	0.000005	0.000000	0.000000	0.000000
41.076544	16.930165	16.424067	-1.400534	1.592393	2.646921	0.000000	0.225371	0.000000	0.000005	-0.000000	0.000000	0.000000
41.625604	18.203414	15.012479	-0.904699	0.993701	2.748970	0.000000	0.145805	0.000000	0.000005	-0.000000	0.000000	0.000000
42.174664	18.893639	14.215834	-0.344961	0.465788	2.806557	0.000000	0.063652	0.000000	0.000004	-0.000000	0.000000	0.000000
42.723724	18.952085	13.977389	0.239143	-0.028947	2.818661	0.000000	-0.019629	0.000000	0.000004	-0.000000	0.000000	0.000000
43.022297	18.843723	13.979246	0.173306	-0.013790	2.814999	0.000000	-0.012265	0.000000	0.000004	-0.000000	0.000000	0.000000
43.502297	18.689943	14.008969	0.147068	-0.048133	2.809113	0.000000	-0.012265	0.000000	0.000004	-0.000000	0.000000	0.000000
43.982297	18.561351	14.071662	0.120831	-0.082477	2.803226	0.000000	-0.012265	0.000000	0.000004	-0.000000	0.000000	0.000000
44.462297	18.457948	14.167324	0.094593	-0.116820	2.797339	0.000000	-0.012265	0.000000	0.000003	-0.000000	0.000000	0.000000
44.942297	18.379733	14.295956	0.068355	-0.151163	2.791452	0.000000	-0.012265	0.000000	0.000003	-0.000000	0.000000	0.000000
45.423547	18.326828	14.457842	-0.048752	-0.113962	2.785567	0.000000	0.001537	0.000000	0.000003	-0.000000	0.000000	0.000000
45.720870	18.360653	14.531802	-0.112986	-0.096826	2.786024	0.000000	0.008816	0.000000	0.000003	-0.000000	0.000000	0.000000
46.269930	18.175564	14.919218	0.448092	-0.612936	2.768291	0.000000	-0.073317	0.000000	0.000003	-0.000001	0.000000	0.000000
46.818990	17.388157	15.893889	0.977519	-1.172705	2.705753	0.000000	-0.154149	0.000000	0.000002	-0.000001	0.000000	0.000000
47.368050	16.054050	17.525239	1.437899	-1.816002	2.599519	0.000000	-0.232248	0.000000	0.000002	-0.000001	0.000000	0.000000
47.917110	14.267478	19.929465	1.796713	-2.588649	2.451474	0.000000	-0.306226	0.000000	0.000002	-0.000001	0.000000	0.000000
48.363070	12.877130	22.067072	1.331986	-2.184469	2.330203	0.000000	-0.237924	0.000000	0.000001	-0.000001	0.000000	0.000000
48.804030	11.882626	23.778618	0.931883	-1.682169	2.239748	0.000000	-0.172728	0.000000	0.000001	-0.000001	0.000000	0.000000
49.244990	11.220945	25.011605	0.574356	-1.103332	2.177582	0.000000	-0.109500	0.000000	0.000001	-0.000001	0.000000	0.000000
49.685950	10.861856	25.709932	0.243068	-0.474294	2.142996	0.000000	-0.047519	0.000000	0.000000	-0.000001	0.000000	0.000000
50.128160	10.789080	25.841545	-0.050772	0.112903	2.135606	0.000000	0.008684	0.000000	0.000000	-0.000001	0.000000	0.000000
50.425482	10.827486	25.777872	-0.078401	0.101251	2.138188	0.000000	0.008684	0.000000	-0.000000	-0.000001	0.000000	0.000000
50.758816	10.890078	25.714725	-0.109376	0.088188	2.141083	0.000000	0.008684	0.000000	-0.000000	-0.000001	0.000000	0.000000
51.092149	10.973321	25.660288	-0.140351	0.075124	2.143978	0.000000	0.008684	0.000000	-0.000001	-0.000001	0.000000	0.000000
51.426732	11.077417	25.614924	-0.081575	-0.145789	2.146862	0.000000	-0.008733	0.000000	-0.000001	-0.000001	0.000000	0.000000
51.724055	11.133959	25.705142	-0.081290	-0.220681	2.144266	0.000000	-0.013991	0.000000	-0.000001	-0.000001	0.000000	0.000000
52.165015	11.351011	25.613798	-0.412804	0.427041	2.151685	0.000000	0.047672	0.000000	-0.000001	-0.000001	0.000000	0.000000
52.605975	11.867611	24.957633	-0.763177	1.055333	2.186389	0.000000	0.109879	0.000000	-0.000001	-0.000001	0.000000	0.000000
53.046935	12.707362	23.766503	-1.148418	1.635608	2.248773	0.000000	0.173337	0.000000	-0.000002	-0.000001	0.000000	0.000000
53.487895	13.908629	22.094602	-1.586126	2.141465	2.339548	0.000000	0.238769	0.000000	-0.000002	-0.000001	0.000000	0.000000
53.933855	15.546885	19.993003	-2.100533	2.551222	2.461253	0.000000	0.307320	0.000000	-0.000002	-0.000001	0.000000	0.000000
54.482915	17.656070	17.628204	-1.718175	1.781197	2.609810	0.000000	0.233016	0.000000	-0.000003	-0.000001	0.000000	0.000000
55.031975	19.275847	16.034773	-1.214454	1.138042	2.716374	0.000000	0.154579	0.000000	-0.000003	-0.000001	0.000000	0.000000
55.581035	20.291805	15.099211	-0.624950	0.575948	2.779054	0.000000	0.073400	0.000000	-0.000004	-0.000001	0.000000	0.000000
56.130095	20.632180	14.754882	0.008697	0.054878	2.796737	0.000000	-0.009080	0.000000	-0.000004	-0.000000	0.000000	0.000000
56.428668	20.663508	14.705185	-0.059714	0.073019	2.796208	0.000000	-0.001773	0.000000	-0.000004	-0.000000	0.000000	0.000000
56.762001	20.708714	14.664102	-0.075903	0.050230	2.795617	0.000000	-0.001773	0.000000	-0.000004	-0.000000	0.000000	0.000000
57.095334	20.764712	14.638212	-0.092092	0.027441	2.795027	0.000000	-0.001773	0.000000	-0.000004	-0.000000	0.000000	0.000000
57.429918	20.831774	14.627502	-0.108342	0.004567	2.794434	0.000000	-0.001773	0.000000	-0.000004	-0.000000	0.000000	0.000000
57.727240	20.900492	14.630830	-0.177393	0.022470	2.793907	0.000000	0.005527	0.000000	-0.000005	-0.000000	0.000000	0.000000
58.276300	20.738704	14.887131	0.470313	-0.492024	2.774303	0.000000	-0.076831	0.000000	-0.000005	-0.000000	0.000000	0.000000
58.825360	19.879769	15.724222	1.084799	-1.041564	2.709788	0.000000	-0.157826	0.000000	-0.000005	-0.000000	0.000000	0.000000
59.374420	18.384361	17.201727	1.622659	-1.665292	2.601506	0.000000	-0.236021	0.000000	-0.000005	0.000000	0.000000	0.000000
59.923480	16.358105	19.424886	2.045903	-2.407636	2.451377	0.000000	-0.310031	0.000000	-0.000005	0.000000	0.000000	0.000000
60.369440	14.772141	21.400876	1.522983	-2.004531	2.328405	0.000000	-0.241753	0.000000	-0.000005	0.000000	0.000000	0.000000
60.810400	13.631369	22.957269	1.073851	-1.511594	2.236248	0.000000	-0.176626	0.000000	-0.000005	-0.000000	0.000000	0.000000
61.251360	12.863646	24.046827	0.673779	-0.949881	2.172340	0.000000	-0.113510	0.000000	-0.000005	-0.000000	0.000000	0.000000
61.692320	12.433899	24.619976	0.304491	-0.344949	2.135952	0.000000	-0.051687	0.000000	-0.000005	-0.000000	0.000000	0.000000
62.134530	12.322543	24.650100	-0.020768	0.215172	2.126675	0.000000	0.004331	0.000000	-0.000005	-0.000000	0.000000	0.000000
62.431853	12.342070	24.525902	-0.044906	0.202552	2.127963	0.000000	0.004331	0.000000	-0.000005	-0.000000	0.000000	0.000000
62.765186	12.381028	24.395583	-0.071969	0.188403	2.129407	0.000000	0.004331	0.000000	-0.000005	-0.000000	0.000000	0.000000
63.098520	12.438028	24.274698	-0.099031	0.174254	2.130851	0.000000	0.004331	0.000000	-0.000005	-0.000000	0.000000	0.000000
63.433103	12.513385	24.162844	-0.126195	0.160052	2.132300	0.000000	0.004331	0.000000	-0.000006	-0.000000	0.000000	0.000000
63.730426	12.595604	24.071422	-0.119444	0.088399	2.133588	0.000000	-0.000901	0.000000	-0.000006	-0.000000	0.000000	0.000000
64.171386	12.861325	23.728356	-0.485441	0.686638	2.146729	0.000000	0.060561	0.000000	-0.000006	-0.000001	0.000000	0.000000
64.612346	13.458350	22.869504	-0.873616	1.253637	2.187099	0.000000	0.122713	0.000000	-0.000006	-0.000001	0.000000	0.000000
65.053306	14.413955	21.533943	-1.301705	1.763596	2.255158	0.000000	0.186262	0.000000	-0.000007	-0.000001	0.000000	0.000000
65.494266	15.771797	19.782440	-1.789265	2.193312	2.351679	0.000000	0.251933	0.000000	-0.000007	-0.000001	0.000000	0.000000
65.940226	17.617077	17.669899	-2.363263	2.523990	2.479336	0.000000	0.320875	0.000000	-0.000008	-0.000001	0.000000	0.000000
66.489286	19.982497	15.306592	-1.919363	1.805696	2.635154	0.000000	0.245868	0.000000	-0.000008	-0.000001	0.000000	0.000000
67.038346	21.782678	13.657226	-1.339889	1.216017	2.748529	0.000000	0.166499	0.000000	-0.000009	-0.000001	0.000000	0.000000
67.587406	22.890464	12.604321	-0.665772	0.712953	2.817449	0.000000	0.084178	0.000000	-0.000009	-0.000000	0.000000	0.000000
68.136466	23.227606	12.072881	0.055371	0.260670	2.840692	0.000000	0.000363	0.000000	-0.000009	-0.000000	0.000000	0.000000
68.435038	23.234623	11.906399	-0.018177	0.265374	2.843017	0.000000	0.007786	0.000000	-0.000009	-0.000000	0.000000	0.000000
68.768372	23.251525	11.739472	-0.032529	0.235407	2.845612	0.000000	0.007786	0.000000	-0.000009	-0.000000	0.000000	0.000000
69.101705	23.277994	11.592524	-0.046880	0.205439	2.848207	0.000000	0.007786	0.000000	-0.000009	-0.000000	0.000000	0.000000
69.436288	23.314184	11.465115	-0.061285	0.175359	2.850812	0.000000	0.007786	0.000000	-0.000009	-0.000000	0.000000	0.000000
69.733611	23.354433	11.368786	-0.135111	0.178335	2.853127	0.000000	0.015241	0.000000	-0.000009	-0.000000	0.000000	0.000000
70.282671	23.101705	11.400600	0.592678	-0.236620	2.838316	0.000000	-0.069113	0.000000	-0.000009	0.000000	0.000000	0.000000
