#ParticleID	Turn	x[m]	xp	y[m]	yp	z[m]	dE[GeV]# s	beta_x	beta_y	alpha_x	alpha_y	D_x	D_y	D_px	D_py	orbit_x	orbit_px	orbit_y	orbit_py
0.300000	11.830417	24.953132	-0.013154	-0.027750	2.618252	0.000000	-0.000042	0.000000	-0.000000	0.000000	0.000000	0.000000
0.601250	11.846014	24.973491	-0.038622	-0.039832	2.618239	0.000000	-0.000042	0.000000	-0.000000	0.000000	0.000000	0.000000
0.898573	11.876454	25.000722	-0.034634	-0.113065	2.618227	0.000000	-0.006462	0.000000	0.000000	0.000000	0.000000	0.000000
1.339533	12.059335	24.823147	-0.381673	0.514233	2.631671	0.000000	0.067498	0.000000	0.000000	0.000000	0.000000	0.000000
1.780493	12.554781	24.100590	-0.746150	1.118133	2.677867	0.000000	0.142226	0.000000	0.000000	0.000000	0.000000	0.000000
2.221453	13.385426	22.865925	-1.144716	1.671159	2.757341	0.000000	0.218575	0.000000	0.000000	0.000000	0.000000	0.000000
2.662413	14.589220	21.175329	-1.595581	2.148149	2.870997	0.000000	0.297413	0.000000	0.000001	0.000000	0.000000	0.000000
3.108373	16.241966	19.080927	-2.123643	2.528530	3.021993	0.000000	0.380128	0.000000	0.000001	0.000000	0.000000	0.000000
3.657433	18.361292	16.728712	-1.713424	1.780834	3.205434	0.000000	0.287090	0.000000	0.000001	0.000000	0.000000	0.000000
4.206493	19.960619	15.123502	-1.182178	1.159983	3.336317	0.000000	0.188960	0.000000	0.000001	0.000000	0.000000	0.000000
4.755553	20.926978	14.150961	-0.567428	0.621755	3.412319	0.000000	0.087479	0.000000	0.000001	0.000000	0.000000	0.000000
5.304613	21.192111	13.741818	0.087402	0.127814	3.432094	0.000000	-0.015554	0.000000	0.000001	0.000000	0.000000	0.000000
5.603185	21.177195	13.650716	0.017928	0.141408	3.430127	0.000000	-0.006587	0.000000	0.000001	0.000000	0.000000	0.000000
5.936519	21.170492	13.564746	0.002183	0.116501	3.427931	0.000000	-0.006587	0.000000	0.000001	0.000000	0.000000	0.000000
6.269852	21.174285	13.495381	-0.013563	0.091594	3.425735	0.000000	-0.006587	0.000000	0.000002	0.000000	0.000000	0.000000
6.604435	21.188648	13.442454	-0.029367	0.066594	3.423531	0.000000	-0.006587	0.000000	0.000002	0.000000	0.000000	0.000000
6.901758	21.210287	13.409459	-0.098829	0.079414	3.421573	0.000000	0.002353	0.000000	0.000002	0.000000	0.000000	0.000000
7.450818	20.957252	13.582760	0.556953	-0.396908	3.394665	0.000000	-0.100224	0.000000	0.000002	0.000000	0.000000	0.000000
7.999878	20.001529	14.291481	1.173395	-0.901501	3.311841	0.000000	-0.201023	0.000000	0.000002	0.000000	0.000000	0.000000
8.548938	18.410627	15.586104	1.706954	-1.470306	3.174572	0.000000	-0.298256	0.000000	0.000002	0.000000	0.000000	0.000000
9.097998	16.296919	17.558841	2.119943	-2.143837	2.985292	0.000000	-0.390199	0.000000	0.000002	-0.000000	0.000000	0.000000
9.543958	14.647715	19.316715	1.591304	-1.781278	2.829584	0.000000	-0.308498	0.000000	0.000002	0.000000	0.000000	0.000000
9.984918	13.448018	20.697845	1.139665	-1.338902	2.710795	0.000000	-0.230793	0.000000	0.000002	0.000000	0.000000	0.000000
10.425878	12.622252	21.660379	0.740094	-0.835606	2.625658	0.000000	-0.155718	0.000000	0.000002	0.000000	0.000000	0.000000
10.866838	12.132690	22.160522	0.374336	-0.294291	2.573204	0.000000	-0.082416	0.000000	0.000002	0.000000	0.000000	0.000000
11.309048	11.956828	22.175003	0.054897	0.205975	2.552815	0.000000	-0.016313	0.000000	0.000002	0.000000	0.000000	0.000000
11.606371	11.931600	22.056677	0.029956	0.191998	2.547965	0.000000	-0.016313	0.000000	0.000002	0.000000	0.000000	0.000000
12.086371	11.922170	21.883189	-0.010310	0.169434	2.540135	0.000000	-0.016313	0.000000	0.000002	0.000000	0.000000	0.000000
12.566371	11.951395	21.731364	-0.050575	0.146869	2.532305	0.000000	-0.016313	0.000000	0.000002	0.000000	0.000000	0.000000
13.046371	12.019274	21.601200	-0.090841	0.124305	2.524475	0.000000	-0.016313	0.000000	0.000002	0.000000	0.000000	0.000000
13.526371	12.125809	21.492698	-0.131106	0.101741	2.516645	0.000000	-0.016313	0.000000	0.000003	0.000000	0.000000	0.000000
14.007621	12.271427	21.405660	-0.171476	0.079118	2.508794	0.000000	-0.016313	0.000000	0.000003	0.000000	0.000000	0.000000
14.304943	12.380810	21.362769	-0.166057	0.012754	2.503944	0.000000	-0.022453	0.000000	0.000003	0.000000	0.000000	0.000000
14.745903	12.685983	21.117678	-0.528633	0.540943	2.509673	0.000000	0.048461	0.000000	0.000003	0.000000	0.000000	0.000000
15.186863	13.320319	20.415881	-0.915360	1.044520	2.546764	0.000000	0.119928	0.000000	0.000003	0.000000	0.000000	0.000000
15.627823	14.312800	19.289310	-1.343907	1.500572	2.615639	0.000000	0.192760	0.000000	0.000003	0.000000	0.000000	0.000000
16.068783	15.708770	17.789224	-1.833854	1.888349	2.717084	0.000000	0.267787	0.000000	0.000003	0.000001	0.000000	0.000000
16.514743	17.595661	15.962372	-2.412342	2.190957	2.853947	0.000000	0.346327	0.000000	0.000004	0.000001	0.000000	0.000000
17.063803	20.018847	13.922398	-1.974868	1.546368	3.020375	0.000000	0.259010	0.000000	0.000004	0.000000	0.000000	0.000000
17.612863	21.881726	12.525984	-1.397899	1.011924	3.137527	0.000000	0.167099	0.000000	0.000004	0.000000	0.000000	0.000000
18.161923	23.052713	11.673669	-0.722189	0.549557	3.203325	0.000000	0.072223	0.000000	0.000004	0.000000	0.000000	0.000000
18.710983	23.449096	11.304742	0.004533	0.126333	3.216602	0.000000	-0.023933	0.000000	0.000004	0.000000	0.000000	0.000000
19.009556	23.486788	11.219742	-0.069507	0.128817	3.211965	0.000000	-0.015529	0.000000	0.000005	0.000000	0.000000	0.000000
19.342889	23.537880	11.143932	-0.083768	0.098614	3.206789	0.000000	-0.015529	0.000000	0.000005	0.000000	0.000000	0.000000
19.676223	23.598478	11.088257	-0.098029	0.068411	3.201613	0.000000	-0.015529	0.000000	0.000005	0.000000	0.000000	0.000000
20.010806	23.669159	11.052485	-0.229613	0.092857	3.196437	0.000000	0.000308	0.000000	0.000005	0.000000	0.000000	0.000000
20.308129	23.809629	11.005335	-0.305045	0.094477	3.196528	0.000000	0.008660	0.000000	0.000005	0.000000	0.000000	0.000000
20.857189	23.733959	11.124132	0.442047	-0.312118	3.175069	0.000000	-0.086713	0.000000	0.000005	-0.000000	0.000000	0.000000
21.406249	22.850252	11.698933	1.157915	-0.740944	3.101589	0.000000	-0.180549	0.000000	0.000005	-0.000000	0.000000	0.000000
21.955309	21.220930	12.770681	1.791994	-1.222547	2.977393	0.000000	-0.271181	0.000000	0.000004	-0.000000	0.000000	0.000000
22.504369	18.961080	14.415715	2.299495	-1.791228	2.804683	0.000000	-0.357004	0.000000	0.000004	-0.000000	0.000000	0.000000
22.950329	17.180273	15.892488	1.707802	-1.506250	2.662764	0.000000	-0.279808	0.000000	0.000004	-0.000000	0.000000	0.000000
23.391289	15.903407	17.069854	1.198832	-1.153596	2.555700	0.000000	-0.206253	0.000000	0.000004	-0.000000	0.000000	0.000000
23.832249	15.049656	17.911787	0.744632	-0.748455	2.480521	0.000000	-0.135048	0.000000	0.000004	-0.000000	0.000000	0.000000
24.273209	14.580014	18.379978	0.324453	-0.309259	2.436373	0.000000	-0.065380	0.000000	0.000004	-0.000000	0.000000	0.000000
24.715418	14.473138	18.452878	-0.045499	0.098689	2.422749	0.000000	-0.002398	0.000000	0.000004	0.000000	0.000000	0.000000
25.012741	14.506314	18.399031	-0.066084	0.082419	2.422036	0.000000	-0.002398	0.000000	0.000004	0.000000	0.000000	0.000000
25.346075	14.558063	18.350165	-0.089163	0.064179	2.421237	0.000000	-0.002398	0.000000	0.000004	0.000000	0.000000	0.000000
25.679408	14.625198	18.313459	-0.112242	0.045939	2.420438	0.000000	-0.002398	0.000000	0.000004	0.000000	0.000000	0.000000
26.013991	14.707760	18.289214	-0.016089	-0.120740	2.419611	0.000000	-0.022028	0.000000	0.000004	0.000000	0.000000	0.000000
26.311314	14.723339	18.365916	-0.000204	-0.182271	2.413061	0.000000	-0.027945	0.000000	0.000004	-0.000000	0.000000	0.000000
26.752274	14.904944	18.327432	-0.413199	0.269213	2.415846	0.000000	0.040588	0.000000	0.000004	0.000000	0.000000	0.000000
27.193234	15.457693	17.894676	-0.845071	0.708448	2.448925	0.000000	0.109584	0.000000	0.000004	0.000000	0.000000	0.000000
27.634194	16.406841	17.087338	-1.315551	1.115449	2.512674	0.000000	0.179828	0.000000	0.000004	0.000000	0.000000	0.000000
28.075154	17.795749	15.942153	-1.846136	1.471697	2.607819	0.000000	0.252120	0.000000	0.000004	0.000000	0.000000	0.000000
28.521114	19.712012	14.493976	-2.466021	1.761899	2.737047	0.000000	0.327726	0.000000	0.000004	0.000001	0.000000	0.000000
29.070174	22.147587	12.880266	-1.943620	1.194490	2.894329	0.000000	0.244345	0.000000	0.000005	0.000000	0.000000	0.000000
29.619234	23.930259	11.839543	-1.283931	0.712162	3.004571	0.000000	0.156630	0.000000	0.000005	0.000000	0.000000	0.000000
30.168294	24.934109	11.297678	-0.533551	0.280559	3.065817	0.000000	0.066136	0.000000	0.000005	0.000000	0.000000	0.000000
30.717354	25.088228	11.216076	0.254516	-0.131060	3.076981	0.000000	-0.025530	0.000000	0.000005	-0.000000	0.000000	0.000000
31.015927	24.979067	11.284869	0.176642	-0.128651	3.071759	0.000000	-0.017491	0.000000	0.000005	-0.000000	0.000000	0.000000
31.349260	24.865893	11.380645	0.162881	-0.158678	3.065928	0.000000	-0.017491	0.000000	0.000005	-0.000000	0.000000	0.000000
31.682593	24.761893	11.496440	0.149120	-0.188705	3.060098	0.000000	-0.017491	0.000000	0.000005	-0.000000	0.000000	0.000000
32.017177	24.666728	11.632799	0.135307	-0.218845	3.054246	0.000000	-0.017491	0.000000	0.000005	-0.000000	0.000000	0.000000
32.314499	24.589918	11.770898	0.058787	-0.214874	3.049046	0.000000	-0.009525	0.000000	0.000005	-0.000000	0.000000	0.000000
32.863559	24.104127	12.246203	0.820743	-0.655907	3.018939	0.000000	-0.099979	0.000000	0.000005	-0.000000	0.000000	0.000000
33.412619	22.808654	13.228474	1.524727	-1.143658	2.939582	0.000000	-0.188660	0.000000	0.000005	-0.000000	0.000000	0.000000
33.961679	20.795005	14.787676	2.121011	-1.712870	2.812382	0.000000	-0.273995	0.000000	0.000004	-0.000001	0.000000	0.000000
34.510739	18.205413	17.034867	2.567478	-2.404086	2.639596	0.000000	-0.354470	0.000000	0.000004	-0.000001	0.000000	0.000000
34.956699	16.192035	19.044826	1.963405	-2.084132	2.497855	0.000000	-0.281554	0.000000	0.000004	-0.000001	0.000000	0.000000
35.397659	14.690775	20.706616	1.454037	-1.670102	2.389080	0.000000	-0.212273	0.000000	0.000003	-0.000000	0.000000	0.000000
35.838619	13.607857	21.968235	1.011099	-1.180083	2.310293	0.000000	-0.145409	0.000000	0.000003	-0.000000	0.000000	0.000000
36.279579	12.893804	22.772278	0.614356	-0.636371	2.260598	0.000000	-0.080201	0.000000	0.000003	-0.000000	0.000000	0.000000
36.721789	12.515305	23.082463	0.276266	-0.120362	2.239402	0.000000	-0.021399	0.000000	0.000003	-0.000000	0.000000	0.000000
37.019112	12.358627	23.157921	0.250696	-0.133430	2.233039	0.000000	-0.021399	0.000000	0.000003	-0.000000	0.000000	0.000000
37.352445	12.201052	23.251757	0.222029	-0.148080	2.225907	0.000000	-0.021399	0.000000	0.000003	-0.000000	0.000000	0.000000
37.685779	12.062588	23.355360	0.193362	-0.162730	2.218774	0.000000	-0.021399	0.000000	0.000003	-0.000000	0.000000	0.000000
38.020362	11.942824	23.469174	0.164588	-0.177435	2.211614	0.000000	-0.021399	0.000000	0.000003	-0.000000	0.000000	0.000000
38.317684	11.852555	23.578570	0.168083	-0.248323	2.205252	0.000000	-0.026807	0.000000	0.000003	-0.000000	0.000000	0.000000
38.758644	11.855502	23.536427	-0.174793	0.343530	2.207356	0.000000	0.036361	0.000000	0.000003	-0.000000	0.000000	0.000000
39.199604	12.163205	22.977242	-0.525656	0.919752	2.237380	0.000000	0.099942	0.000000	0.000003	-0.000000	0.000000	0.000000
39.640564	12.789721	21.926458	-0.900534	1.454127	2.295664	0.000000	0.164662	0.000000	0.000003	-0.000000	0.000000	0.000000
40.081524	13.763674	20.431884	-1.316555	1.922340	2.382874	0.000000	0.231257	0.000000	0.000003	0.000000	0.000000	0.000000
40.527484	15.147123	18.538954	-1.796549	2.304366	2.501473	0.000000	0.300891	0.000000	0.000003	0.000000	0.000000	0.000000
41.076544	16.912815	16.411875	-1.400259	1.592539	2.646154	0.000000	0.225347	0.000000	0.000003	0.000000	0.000000	0.000000
41.625604	18.186112	14.999964	-0.905061	0.994146	2.748197	0.000000	0.145806	0.000000	0.000003	-0.000000	0.000000	0.000000
42.174664	18.877074	14.202653	-0.345935	0.466563	2.805791	0.000000	0.063678	0.000000	0.000003	-0.000000	0.000000	0.000000
42.723724	18.936895	13.963152	0.237627	-0.027787	2.817916	0.000000	-0.019579	0.000000	0.000002	-0.000000	0.000000	0.000000
43.022297	18.829417	13.964344	0.171825	-0.012689	2.814269	0.000000	-0.012216	0.000000	0.000002	-0.000000	0.000000	0.000000
43.502297	18.677062	13.993028	0.145580	-0.047068	2.808405	0.000000	-0.012216	0.000000	0.000002	-0.000000	0.000000	0.000000
43.982297	18.549903	14.054715	0.119335	-0.081447	2.802541	0.000000	-0.012216	0.000000	0.000002	-0.000000	0.000000	0.000000
44.462297	18.447938	14.149405	0.093091	-0.115825	2.796678	0.000000	-0.012216	0.000000	0.000002	-0.000000	0.000000	0.000000
44.942297	18.371169	14.277099	0.066846	-0.150204	2.790814	0.000000	-0.012216	0.000000	0.000002	-0.000000	0.000000	0.000000
45.423547	18.319719	14.438080	-0.050233	-0.113137	2.784952	0.000000	0.001582	0.000000	0.000002	-0.000000	0.000000	0.000000
45.720870	18.354428	14.511557	-0.114460	-0.096078	2.785423	0.000000	0.008860	0.000000	0.000002	-0.000000	0.000000	0.000000
46.269930	18.171059	14.897808	0.446451	-0.611550	2.767719	0.000000	-0.073254	0.000000	0.000002	-0.000000	0.000000	0.000000
46.818990	17.385492	15.870562	0.975827	-1.170580	2.705220	0.000000	-0.154068	0.000000	0.000002	-0.000000	0.000000	0.000000
47.368050	16.053217	17.499108	1.436275	-1.812989	2.599035	0.000000	-0.232150	0.000000	0.000001	-0.000000	0.000000	0.000000
47.917110	14.268338	19.899443	1.795272	-2.584533	2.451048	0.000000	-0.306114	0.000000	0.000001	-0.000000	0.000000	0.000000
48.363070	12.879218	22.033656	1.330661	-2.181009	2.329824	0.000000	-0.237822	0.000000	0.000001	-0.000000	0.000000	0.000000
48.804030	11.885856	23.742497	0.930611	-1.679520	2.239412	0.000000	-0.172636	0.000000	0.000001	-0.000000	0.000000	0.000000
49.244990	11.225296	24.973551	0.573077	-1.101614	2.177285	0.000000	-0.109416	0.000000	0.000001	-0.000000	0.000000	0.000000
49.685950	10.867358	25.670804	0.241726	-0.473586	2.142734	0.000000	-0.047442	0.000000	0.000001	-0.000000	0.000000	0.000000
50.128160	10.795819	25.802251	-0.052223	0.112666	2.135377	0.000000	0.008755	0.000000	0.000000	-0.000000	0.000000	0.000000
50.425482	10.835084	25.738724	-0.079838	0.100997	2.137980	0.000000	0.008755	0.000000	0.000000	-0.000000	0.000000	0.000000
50.758816	10.898630	25.675754	-0.110799	0.087914	2.140899	0.000000	0.008755	0.000000	0.000000	-0.000000	0.000000	0.000000
51.092149	10.982816	25.621505	-0.141759	0.074831	2.143817	0.000000	0.008755	0.000000	0.000000	-0.000000	0.000000	0.000000
51.426732	11.087849	25.576343	-0.082884	-0.145788	2.146725	0.000000	-0.008660	0.000000	-0.000000	-0.000000	0.000000	0.000000
51.724055	11.145163	25.666565	-0.082552	-0.220602	2.144150	0.000000	-0.013918	0.000000	-0.000000	-0.000000	0.000000	0.000000
52.165015	11.363451	25.575603	-0.414353	0.426100	2.151600	0.000000	0.047743	0.000000	-0.000000	-0.000000	0.000000	0.000000
52.605975	11.881570	24.920703	-0.765086	1.053416	2.186335	0.000000	0.109947	0.000000	-0.000000	-0.000000	0.000000	0.000000
53.046935	12.723194	23.731664	-1.150772	1.632802	2.248749	0.000000	0.173404	0.000000	-0.000001	-0.000000	0.000000	0.000000
53.487895	13.926773	22.062586	-1.589035	2.137896	2.339554	0.000000	0.238837	0.000000	-0.000001	-0.000000	0.000000	0.000000
53.933855	15.567922	19.964452	-2.104133	2.547053	2.461288	0.000000	0.307388	0.000000	-0.000001	-0.000000	0.000000	0.000000
54.482915	17.680793	17.603617	-1.721248	1.778103	2.609882	0.000000	0.233082	0.000000	-0.000001	-0.000000	0.000000	0.000000
55.031975	19.303555	16.013095	-1.216783	1.135805	2.716481	0.000000	0.154642	0.000000	-0.000001	-0.000000	0.000000	0.000000
55.581035	20.321583	15.079597	-0.626370	0.574407	2.779194	0.000000	0.073459	0.000000	-0.000001	-0.000000	0.000000	0.000000
56.130095	20.662969	14.736630	0.008286	0.053923	2.796909	0.000000	-0.009026	0.000000	-0.000001	-0.000000	0.000000	0.000000
56.428668	20.694584	14.687539	-0.060183	0.071994	2.796396	0.000000	-0.001719	0.000000	-0.000002	-0.000000	0.000000	0.000000
56.762001	20.740095	14.647147	-0.076349	0.049181	2.795823	0.000000	-0.001719	0.000000	-0.000002	-0.000000	0.000000	0.000000
57.095334	20.796382	14.621964	-0.092514	0.026369	2.795250	0.000000	-0.001719	0.000000	-0.000002	-0.000000	0.000000	0.000000
57.429918	20.863719	14.611980	-0.108740	0.003470	2.794675	0.000000	-0.001719	0.000000	-0.000002	-0.000000	0.000000	0.000000
57.727240	20.932668	14.615966	-0.177854	0.021312	2.794164	0.000000	0.005582	0.000000	-0.000002	-0.000000	0.000000	0.000000
58.276300	20.770791	14.873309	0.470934	-0.492775	2.774589	0.000000	-0.076785	0.000000	-0.000002	-0.000000	0.000000	0.000000
58.825360	19.910597	15.711027	1.086458	-1.041962	2.710096	0.000000	-0.157789	0.000000	-0.000002	-0.000000	0.000000	0.000000
59.374420	18.412846	17.188789	1.625239	-1.665365	2.601831	0.000000	-0.235995	0.000000	-0.000002	-0.000000	0.000000	0.000000
59.923480	16.383333	19.411853	2.049222	-2.407388	2.451714	0.000000	-0.310015	0.000000	-0.000002	0.000000	0.000000	0.000000
60.369440	14.794746	21.387809	1.525565	-2.004703	2.328750	0.000000	-0.241729	0.000000	-0.000002	-0.000000	0.000000	0.000000
60.810400	13.651974	22.944535	1.075820	-1.512174	2.236607	0.000000	-0.176592	0.000000	-0.000002	-0.000000	0.000000	0.000000
61.251360	12.882751	24.034776	0.675226	-0.950844	2.172715	0.000000	-0.113467	0.000000	-0.000002	-0.000000	0.000000	0.000000
61.692320	12.451933	24.608927	0.305481	-0.346250	2.136348	0.000000	-0.051635	0.000000	-0.000002	-0.000000	0.000000	0.000000
62.134530	12.339886	24.640331	-0.020147	0.213617	2.127097	0.000000	0.004393	0.000000	-0.000002	-0.000000	0.000000	0.000000
62.431853	12.359033	24.517056	-0.044251	0.201000	2.128403	0.000000	0.004393	0.000000	-0.000002	-0.000000	0.000000	0.000000
62.765186	12.397542	24.387771	-0.071275	0.186854	2.129868	0.000000	0.004393	0.000000	-0.000002	-0.000000	0.000000	0.000000
63.098520	12.454066	24.267917	-0.098298	0.172709	2.131332	0.000000	0.004393	0.000000	-0.000002	-0.000000	0.000000	0.000000
63.433103	12.528920	24.157096	-0.125423	0.158511	2.132802	0.000000	0.004393	0.000000	-0.000003	-0.000000	0.000000	0.000000
63.730426	12.610669	24.066590	-0.118602	0.086874	2.134109	0.000000	-0.000840	0.000000	-0.000003	-0.000000	0.000000	0.000000
64.171386	12.875792	23.724913	-0.484921	0.685025	2.147280	0.000000	0.060636	0.000000	-0.000003	-0.000000	0.000000	0.000000
64.612346	13.472492	22.867496	-0.873396	1.252009	2.187686	0.000000	0.122802	0.000000	-0.000003	-0.000000	0.000000	0.000000
65.053306	14.428029	21.533350	-1.301773	1.762027	2.255787	0.000000	0.186368	0.000000	-0.000003	-0.000000	0.000000	0.000000
65.494266	15.786060	19.783178	-1.789625	2.191874	2.352359	0.000000	0.252055	0.000000	-0.000003	-0.000001	0.000000	0.000000
65.940226	17.631798	17.671836	-2.363933	2.522750	2.480074	0.000000	0.321016	0.000000	-0.000003	-0.000001	0.000000	0.000000
66.489286	19.997647	15.309820	-1.919467	1.804571	2.635962	0.000000	0.245984	0.000000	-0.000004	-0.000000	0.000000	0.000000
67.038346	21.797626	13.661663	-1.339420	1.214927	2.749393	0.000000	0.166588	0.000000	-0.000004	-0.000000	0.000000	0.000000
67.587406	22.904595	12.609972	-0.664762	0.711819	2.818354	0.000000	0.084238	0.000000	-0.000004	-0.000000	0.000000	0.000000
68.136466	23.240363	12.079837	0.056850	0.259413	2.841622	0.000000	0.000393	0.000000	-0.000004	-0.000000	0.000000	0.000000
68.435038	23.246512	11.914086	-0.016722	0.264167	2.843956	0.000000	0.007818	0.000000	-0.000004	-0.000000	0.000000	0.000000
68.768372	23.262441	11.747951	-0.031065	0.234237	2.846562	0.000000	0.007818	0.000000	-0.000004	-0.000000	0.000000	0.000000
69.101705	23.287932	11.601770	-0.045408	0.204306	2.849168	0.000000	0.007818	0.000000	-0.000004	-0.000000	0.000000	0.000000
69.436288	23.323135	11.475107	-0.059805	0.174263	2.851784	0.000000	0.007818	0.000000	-0.000004	-0.000000	0.000000	0.000000
69.733611	23.362501	11.379420	-0.133643	0.177300	2.854108	0.000000	0.015275	0.000000	-0.000004	-0.000000	0.000000	0.000000
70.282671	23.108028	11.412539	0.594370	-0.237974	2.839307	0.000000	-0.069111	0.000000	-0.000004	0.000000	0.000000	0.000000
