#ParticleID	Turn	x[m]	xp	y[m]	yp	z[m]	dE[GeV]# s	beta_x	beta_y	alpha_x	alpha_y	D_x	D_y	D_px	D_py	orbit_x	orbit_px	orbit_y	orbit_py
0.300000	11.809420	25.036774	-0.010548	-0.027087	2.618103	0.000000	0.000016	0.000000	-0.000001	0.000001	0.000000	0.000000
0.601250	11.823460	25.056722	-0.036060	-0.039128	2.618108	0.000000	0.000016	0.000000	-0.000000	0.000001	0.000000	0.000000
0.898573	11.852389	25.083523	-0.032174	-0.112524	2.618112	0.000000	-0.006404	0.000000	0.000000	0.000001	0.000000	0.000000
1.339533	12.032840	24.904506	-0.378601	0.516950	2.631581	0.000000	0.067553	0.000000	0.000001	0.000001	0.000000	0.000000
1.780493	12.525256	24.178634	-0.742325	1.122903	2.677800	0.000000	0.142280	0.000000	0.000002	0.000001	0.000000	0.000000
2.221453	13.352134	22.938935	-1.139964	1.677765	2.757296	0.000000	0.218627	0.000000	0.000002	0.000002	0.000000	0.000000
2.662413	14.551251	21.241812	-1.589685	2.156290	2.870975	0.000000	0.297464	0.000000	0.000003	0.000002	0.000000	0.000000
3.108373	16.198125	19.139596	-2.116322	2.537838	3.021993	0.000000	0.380178	0.000000	0.000004	0.000002	0.000000	0.000000
3.657433	18.309982	16.778471	-1.707222	1.787851	3.205461	0.000000	0.287140	0.000000	0.000004	0.000002	0.000000	0.000000
4.206493	19.903317	15.166579	-1.177532	1.165208	3.336370	0.000000	0.189009	0.000000	0.000005	0.000001	0.000000	0.000000
4.755553	20.865585	14.189109	-0.564667	0.625560	3.412399	0.000000	0.087526	0.000000	0.000006	0.000001	0.000000	0.000000
5.304613	21.128817	13.776439	0.088083	0.130470	3.432197	0.000000	-0.015511	0.000000	0.000007	0.000001	0.000000	0.000000
5.603185	21.113407	13.683686	0.018734	0.144190	3.430244	0.000000	-0.006543	0.000000	0.000007	0.000001	0.000000	0.000000
5.936519	21.106182	13.595848	0.002941	0.119324	3.428062	0.000000	-0.006543	0.000000	0.000007	0.000001	0.000000	0.000000
6.269852	21.109486	13.524588	-0.012853	0.094457	3.425881	0.000000	-0.006543	0.000000	0.000008	0.000001	0.000000	0.000000
6.604435	21.123390	13.469731	-0.028705	0.069498	3.423691	0.000000	-0.006543	0.000000	0.000008	0.000001	0.000000	0.000000
6.901758	21.144648	13.434999	-0.098035	0.082419	3.421745	0.000000	0.002396	0.000000	0.000008	0.000001	0.000000	0.000000
7.450818	20.891953	13.605383	0.555544	-0.394570	3.394859	0.000000	-0.100186	0.000000	0.000009	0.000001	0.000000	0.000000
7.999878	19.938949	14.311826	1.169883	-0.899664	3.312054	0.000000	-0.200992	0.000000	0.000009	0.000000	0.000000	0.000000
8.548938	18.352951	15.604644	1.701587	-1.468838	3.174800	0.000000	-0.298232	0.000000	0.000009	0.000000	0.000000	0.000000
9.097998	16.245986	17.575923	2.113099	-2.142634	2.985531	0.000000	-0.390183	0.000000	0.000009	-0.000000	0.000000	0.000000
9.543958	14.602198	19.332416	1.585960	-1.779395	2.829832	0.000000	-0.308475	0.000000	0.000009	0.000000	0.000000	0.000000
9.984918	13.406649	20.711618	1.135565	-1.336429	2.711053	0.000000	-0.230764	0.000000	0.000009	0.000000	0.000000	0.000000
10.425878	12.584021	21.671752	0.737051	-0.832657	2.625930	0.000000	-0.155682	0.000000	0.000010	0.000001	0.000000	0.000000
10.866838	12.096730	22.169132	0.372211	-0.290999	2.573494	0.000000	-0.082372	0.000000	0.000010	0.000001	0.000000	0.000000
11.309048	11.922378	22.180604	0.053505	0.209450	2.553126	0.000000	-0.016262	0.000000	0.000010	0.000001	0.000000	0.000000
11.606371	11.897998	22.060216	0.028495	0.195457	2.548290	0.000000	-0.016262	0.000000	0.000011	0.000001	0.000000	0.000000
12.086371	11.890023	21.883420	-0.011880	0.172868	2.540484	0.000000	-0.016262	0.000000	0.000011	0.000001	0.000000	0.000000
12.566371	11.920808	21.728310	-0.052256	0.150278	2.532678	0.000000	-0.016262	0.000000	0.000012	0.000001	0.000000	0.000000
13.046371	11.990354	21.594887	-0.092632	0.127688	2.524872	0.000000	-0.016262	0.000000	0.000012	0.000001	0.000000	0.000000
13.526371	12.098661	21.483150	-0.133007	0.105098	2.517066	0.000000	-0.016262	0.000000	0.000013	0.000001	0.000000	0.000000
14.007621	12.246162	21.392893	-0.173488	0.082449	2.509239	0.000000	-0.016262	0.000000	0.000013	0.000001	0.000000	0.000000
14.304943	12.356762	21.348025	-0.168199	0.016112	2.504404	0.000000	-0.022403	0.000000	0.000014	0.000001	0.000000	0.000000
14.745903	12.663606	21.100170	-0.530296	0.543830	2.510157	0.000000	0.048524	0.000000	0.000014	0.000001	0.000000	0.000000
15.186863	13.299228	20.396085	-0.916621	1.046804	2.547278	0.000000	0.120003	0.000000	0.000015	0.000002	0.000000	0.000000
15.627823	14.292666	19.267805	-1.344823	1.502149	2.616189	0.000000	0.192849	0.000000	0.000016	0.000002	0.000000	0.000000
16.068783	15.689308	17.766666	-1.834467	1.889148	2.717676	0.000000	0.267891	0.000000	0.000017	0.000003	0.000000	0.000000
16.514743	17.576621	15.939468	-2.412680	2.190935	2.854588	0.000000	0.346447	0.000000	0.000018	0.000003	0.000000	0.000000
17.063803	20.000664	13.899266	-1.976080	1.546806	3.021075	0.000000	0.259108	0.000000	0.000020	0.000002	0.000000	0.000000
17.612863	21.865318	12.502107	-1.399900	1.012852	3.138273	0.000000	0.167173	0.000000	0.000021	0.000002	0.000000	0.000000
18.161923	23.038874	11.648473	-0.724837	0.551042	3.204105	0.000000	0.072273	0.000000	0.000022	0.000001	0.000000	0.000000
18.710983	23.438437	11.277563	0.001424	0.128482	3.217401	0.000000	-0.023909	0.000000	0.000022	0.000000	0.000000	0.000000
19.009556	23.477966	11.191350	-0.072589	0.130807	3.212772	0.000000	-0.015504	0.000000	0.000022	0.000000	0.000000	0.000000
19.342889	23.531117	11.114244	-0.086862	0.100512	3.207604	0.000000	-0.015504	0.000000	0.000022	0.000000	0.000000	0.000000
19.676223	23.593782	11.057334	-0.101134	0.070218	3.202436	0.000000	-0.015504	0.000000	0.000022	0.000000	0.000000	0.000000
20.010806	23.666544	11.020384	-0.232717	0.094411	3.197269	0.000000	0.000338	0.000000	0.000023	0.000001	0.000000	0.000000
20.308129	23.808866	10.972336	-0.308157	0.095855	3.197369	0.000000	0.008690	0.000000	0.000023	0.000001	0.000000	0.000000
20.857189	23.736611	11.089105	0.438976	-0.309781	3.175918	0.000000	-0.086711	0.000000	0.000023	-0.000000	0.000000	0.000000
21.406249	22.856153	11.660742	1.155103	-0.737482	3.102433	0.000000	-0.180573	0.000000	0.000023	-0.000001	0.000000	0.000000
21.955309	21.229684	12.727962	1.789639	-1.217713	2.978216	0.000000	-0.271233	0.000000	0.000022	-0.000002	0.000000	0.000000
22.504369	18.972090	14.366781	2.297763	-1.784678	2.805472	0.000000	-0.357082	0.000000	0.000021	-0.000002	0.000000	0.000000
22.950329	17.192844	15.838196	1.706017	-1.500835	2.663523	0.000000	-0.279866	0.000000	0.000020	-0.000002	0.000000	0.000000
23.391289	15.917607	17.011378	1.196910	-1.149558	2.556438	0.000000	-0.206292	0.000000	0.000019	-0.000001	0.000000	0.000000
23.832249	15.065642	17.850426	0.742486	-0.745977	2.481247	0.000000	-0.135067	0.000000	0.000019	-0.000001	0.000000	0.000000
24.273209	14.598027	18.317164	0.321985	-0.308454	2.437094	0.000000	-0.065381	0.000000	0.000019	-0.000000	0.000000	0.000000
24.715418	14.493517	18.390111	-0.048356	0.097943	2.423474	0.000000	-0.002381	0.000000	0.000019	0.000000	0.000000	0.000000
25.012741	14.528385	18.336723	-0.068918	0.081621	2.422766	0.000000	-0.002381	0.000000	0.000019	0.000000	0.000000	0.000000
25.346075	14.582015	18.288409	-0.091971	0.063321	2.421972	0.000000	-0.002381	0.000000	0.000019	0.000000	0.000000	0.000000
25.679408	14.651013	18.252295	-0.115024	0.045022	2.421178	0.000000	-0.002381	0.000000	0.000019	0.000000	0.000000	0.000000
26.013991	14.735426	18.228683	-0.018619	-0.121227	2.420357	0.000000	-0.022017	0.000000	0.000019	0.000000	0.000000	0.000000
26.311314	14.752500	18.305691	-0.002633	-0.182660	2.413811	0.000000	-0.027935	0.000000	0.000019	-0.000000	0.000000	0.000000
26.752274	14.936570	18.268269	-0.416381	0.267201	2.416604	0.000000	0.040618	0.000000	0.000019	0.000000	0.000000	0.000000
27.193234	15.492511	17.837972	-0.849153	0.704904	2.449700	0.000000	0.109633	0.000000	0.000019	0.000001	0.000000	0.000000
27.634194	16.445723	17.034378	-1.320720	1.110535	2.513474	0.000000	0.179897	0.000000	0.000020	0.000001	0.000000	0.000000
28.075154	17.839754	15.894050	-1.852628	1.465637	2.608654	0.000000	0.252210	0.000000	0.000021	0.000002	0.000000	0.000000
28.521114	19.762512	14.451693	-2.474146	1.754966	2.737927	0.000000	0.327839	0.000000	0.000022	0.000003	0.000000	0.000000
29.070174	22.206347	12.844673	-1.950447	1.189166	2.895262	0.000000	0.244429	0.000000	0.000023	0.000002	0.000000	0.000000
29.619234	23.995578	11.809091	-1.288977	0.708068	3.005541	0.000000	0.156682	0.000000	0.000024	0.000001	0.000000	0.000000
30.168294	25.003822	11.271183	-0.536461	0.277404	3.066807	0.000000	0.066157	0.000000	0.000024	0.000000	0.000000	0.000000
30.717354	25.159861	11.192635	0.253949	-0.133501	3.077973	0.000000	-0.025542	0.000000	0.000024	-0.000000	0.000000	0.000000
31.015927	25.051133	11.262946	0.175936	-0.131229	3.072748	0.000000	-0.017501	0.000000	0.000024	-0.000000	0.000000	0.000000
31.349260	24.938415	11.360467	0.162218	-0.161334	3.066914	0.000000	-0.017501	0.000000	0.000024	-0.000000	0.000000	0.000000
31.682593	24.834842	11.478058	0.148500	-0.191439	3.061081	0.000000	-0.017501	0.000000	0.000024	-0.000000	0.000000	0.000000
32.017177	24.740077	11.616273	0.134731	-0.221657	3.055226	0.000000	-0.017501	0.000000	0.000024	-0.000000	0.000000	0.000000
32.314499	24.663598	11.756065	0.058066	-0.217800	3.050022	0.000000	-0.009533	0.000000	0.000023	-0.000000	0.000000	0.000000
32.863559	24.177250	12.234424	0.822472	-0.658575	3.019903	0.000000	-0.100020	0.000000	0.000023	-0.000001	0.000000	0.000000
33.412619	22.878581	13.219571	1.528783	-1.146259	2.940516	0.000000	-0.188731	0.000000	0.000022	-0.000002	0.000000	0.000000
33.961679	20.859323	14.781678	2.127108	-1.715589	2.813269	0.000000	-0.274096	0.000000	0.000021	-0.000003	0.000000	0.000000
34.510739	18.262106	17.032008	2.575185	-2.407116	2.640421	0.000000	-0.354599	0.000000	0.000019	-0.000003	0.000000	0.000000
34.956699	16.242632	19.044865	1.969413	-2.087575	2.498629	0.000000	-0.281662	0.000000	0.000018	-0.000003	0.000000	0.000000
35.397659	14.736712	20.709814	1.458635	-1.673794	2.389811	0.000000	-0.212361	0.000000	0.000017	-0.000002	0.000000	0.000000
35.838619	13.650280	21.974738	1.014498	-1.183858	2.310991	0.000000	-0.145479	0.000000	0.000016	-0.000002	0.000000	0.000000
36.279579	12.933700	22.782084	0.616711	-0.640056	2.261269	0.000000	-0.080253	0.000000	0.000015	-0.000001	0.000000	0.000000
36.721789	12.553539	23.095427	0.277774	-0.123816	2.240054	0.000000	-0.021435	0.000000	0.000015	-0.000001	0.000000	0.000000
37.019112	12.395947	23.172939	0.252263	-0.136887	2.233681	0.000000	-0.021435	0.000000	0.000015	-0.000001	0.000000	0.000000
37.352445	12.237306	23.269082	0.223661	-0.151541	2.226536	0.000000	-0.021435	0.000000	0.000014	-0.000001	0.000000	0.000000
37.685779	12.097732	23.374994	0.195059	-0.166195	2.219392	0.000000	-0.021435	0.000000	0.000014	-0.000001	0.000000	0.000000
38.020362	11.976811	23.491127	0.166350	-0.180904	2.212221	0.000000	-0.021435	0.000000	0.000014	-0.000001	0.000000	0.000000
38.317684	11.885477	23.602587	0.169981	-0.251849	2.205848	0.000000	-0.026844	0.000000	0.000013	-0.000001	0.000000	0.000000
38.758644	11.887077	23.563262	-0.173625	0.340689	2.207940	0.000000	0.036339	0.000000	0.000013	-0.000001	0.000000	0.000000
39.199604	12.194051	23.006232	-0.525164	0.917726	2.237957	0.000000	0.099936	0.000000	0.000013	-0.000000	0.000000	0.000000
39.640564	12.820423	21.956841	-0.900697	1.453006	2.296242	0.000000	0.164670	0.000000	0.000012	-0.000000	0.000000	0.000000
40.081524	13.794809	20.462835	-1.317379	1.922176	2.383458	0.000000	0.231280	0.000000	0.000012	0.000000	0.000000	0.000000
40.527484	15.179305	18.569616	-1.798077	2.305174	2.502071	0.000000	0.300930	0.000000	0.000013	0.000001	0.000000	0.000000
41.076544	16.946017	16.442075	-1.400579	1.592577	2.646768	0.000000	0.225366	0.000000	0.000013	0.000000	0.000000	0.000000
41.625604	18.218988	15.030542	-0.904151	0.993415	2.748816	0.000000	0.145805	0.000000	0.000013	-0.000000	0.000000	0.000000
42.174664	18.908300	14.234476	-0.343858	0.465013	2.806404	0.000000	0.063657	0.000000	0.000012	-0.000001	0.000000	0.000000
42.723724	18.965264	13.997176	0.240723	-0.030268	2.818512	0.000000	-0.019619	0.000000	0.000012	-0.000001	0.000000	0.000000
43.022297	18.855977	13.999783	0.174857	-0.015031	2.814853	0.000000	-0.012256	0.000000	0.000012	-0.000001	0.000000	0.000000
43.502297	18.700707	14.030674	0.148622	-0.049325	2.808971	0.000000	-0.012256	0.000000	0.000011	-0.000001	0.000000	0.000000
43.982297	18.570622	14.094488	0.122388	-0.083619	2.803089	0.000000	-0.012256	0.000000	0.000011	-0.000001	0.000000	0.000000
44.462297	18.465722	14.191223	0.096153	-0.117913	2.797207	0.000000	-0.012256	0.000000	0.000010	-0.000001	0.000000	0.000000
44.942297	18.386008	14.320881	0.069919	-0.152207	2.791324	0.000000	-0.012256	0.000000	0.000010	-0.000001	0.000000	0.000000
45.423547	18.331596	14.483749	-0.047209	-0.114829	2.785444	0.000000	0.001545	0.000000	0.000009	-0.000001	0.000000	0.000000
45.720870	18.364501	14.558215	-0.111443	-0.097593	2.785903	0.000000	0.008823	0.000000	0.000009	-0.000001	0.000000	0.000000
46.269930	18.177661	14.946918	0.449720	-0.614528	2.768176	0.000000	-0.073306	0.000000	0.000008	-0.000001	0.000000	0.000000
46.818990	17.388472	15.923838	0.979117	-1.175234	2.705645	0.000000	-0.154134	0.000000	0.000007	-0.000002	0.000000	0.000000
47.368050	16.052679	17.558560	1.439354	-1.819650	2.599421	0.000000	-0.232229	0.000000	0.000006	-0.000002	0.000000	0.000000
47.917110	14.264635	19.967521	1.797922	-2.593675	2.451388	0.000000	-0.306205	0.000000	0.000005	-0.000002	0.000000	0.000000
48.363070	12.873239	22.109249	1.333135	-2.188646	2.330126	0.000000	-0.237905	0.000000	0.000005	-0.000002	0.000000	0.000000
48.804030	11.877729	23.824034	0.933025	-1.685310	2.239680	0.000000	-0.172711	0.000000	0.000004	-0.000002	0.000000	0.000000
49.244990	11.215026	25.059280	0.575542	-1.105295	2.177522	0.000000	-0.109484	0.000000	0.000003	-0.000002	0.000000	0.000000
49.685950	10.854851	25.758784	0.244354	-0.474989	2.142942	0.000000	-0.047505	0.000000	0.000002	-0.000002	0.000000	0.000000
50.128160	10.780872	25.890434	-0.049350	0.113390	2.135559	0.000000	0.008697	0.000000	0.000002	-0.000001	0.000000	0.000000
50.425482	10.818438	25.826466	-0.076995	0.101758	2.138145	0.000000	0.008697	0.000000	0.000001	-0.000001	0.000000	0.000000
50.758816	10.880099	25.762974	-0.107990	0.088718	2.141045	0.000000	0.008697	0.000000	0.000001	-0.000001	0.000000	0.000000
51.092149	10.962424	25.708175	-0.138984	0.075678	2.143944	0.000000	0.008697	0.000000	0.000000	-0.000001	0.000000	0.000000
51.426732	11.065612	25.662434	-0.080323	-0.145598	2.146832	0.000000	-0.008720	0.000000	-0.000000	-0.000001	0.000000	0.000000
51.724055	11.121416	25.752531	-0.080092	-0.220583	2.144240	0.000000	-0.013978	0.000000	-0.000001	-0.000001	0.000000	0.000000
52.165015	11.337277	25.660547	-0.411290	0.428388	2.151666	0.000000	0.047685	0.000000	-0.000001	-0.000002	0.000000	0.000000
52.605975	11.852378	25.002664	-0.761278	1.057868	2.186376	0.000000	0.109891	0.000000	-0.000002	-0.000002	0.000000	0.000000
53.046935	12.690253	23.808814	-1.146047	1.639216	2.248766	0.000000	0.173349	0.000000	-0.000003	-0.000002	0.000000	0.000000
53.487895	13.889182	22.133319	-1.583175	2.145980	2.339547	0.000000	0.238781	0.000000	-0.000003	-0.000002	0.000000	0.000000
53.933855	15.524495	20.027359	-2.096861	2.556443	2.461257	0.000000	0.307332	0.000000	-0.000004	-0.000002	0.000000	0.000000
54.482915	17.629944	17.657580	-1.715083	1.785101	2.609821	0.000000	0.233028	0.000000	-0.000005	-0.000002	0.000000	0.000000
55.031975	19.246745	16.060453	-1.212159	1.140908	2.716392	0.000000	0.154590	0.000000	-0.000006	-0.000001	0.000000	0.000000
55.581035	20.260698	15.122219	-0.623616	0.577979	2.779078	0.000000	0.073411	0.000000	-0.000007	-0.000001	0.000000	0.000000
56.130095	20.600180	14.776049	0.008977	0.056219	2.796768	0.000000	-0.009071	0.000000	-0.000007	-0.000001	0.000000	0.000000
56.428668	20.631299	14.725510	-0.059373	0.074440	2.796242	0.000000	-0.001763	0.000000	-0.000008	-0.000001	0.000000	0.000000
56.762001	20.676285	14.683471	-0.075587	0.051678	2.795655	0.000000	-0.001763	0.000000	-0.000008	-0.000001	0.000000	0.000000
57.095334	20.732081	14.656606	-0.091801	0.028917	2.795067	0.000000	-0.001763	0.000000	-0.000008	-0.000001	0.000000	0.000000
57.429918	20.798956	14.644900	-0.108075	0.006069	2.794478	0.000000	-0.001763	0.000000	-0.000009	-0.000001	0.000000	0.000000
57.727240	20.867522	14.647327	-0.177064	0.024040	2.793954	0.000000	0.005538	0.000000	-0.000009	-0.000001	0.000000	0.000000
58.276300	20.705981	14.902155	0.469537	-0.490896	2.774356	0.000000	-0.076822	0.000000	-0.000009	-0.000001	0.000000	0.000000
58.825360	19.848484	15.738212	1.082972	-1.040798	2.709846	0.000000	-0.157819	0.000000	-0.000010	-0.000000	0.000000	0.000000
59.374420	18.355601	17.215049	1.619912	-1.664834	2.601567	0.000000	-0.236016	0.000000	-0.000010	-0.000000	0.000000	0.000000
59.923480	16.332783	19.437857	2.042429	-2.407451	2.451440	0.000000	-0.310028	0.000000	-0.000010	0.000000	0.000000	0.000000
60.369440	14.749573	21.413479	1.520260	-2.003892	2.328470	0.000000	-0.241748	0.000000	-0.000010	-0.000000	0.000000	0.000000
60.810400	13.610920	22.969119	1.071749	-1.510533	2.236316	0.000000	-0.176619	0.000000	-0.000010	-0.000000	0.000000	0.000000
61.251360	12.844813	24.057573	0.672203	-0.948446	2.172411	0.000000	-0.113502	0.000000	-0.000010	-0.000001	0.000000	0.000000
61.692320	12.416250	24.629315	0.303369	-0.343206	2.136027	0.000000	-0.051677	0.000000	-0.000011	-0.000001	0.000000	0.000000
62.134530	12.305706	24.657790	-0.021528	0.217122	2.126756	0.000000	0.004343	0.000000	-0.000011	-0.000001	0.000000	0.000000
62.431853	12.325695	24.532434	-0.045700	0.204495	2.128047	0.000000	0.004343	0.000000	-0.000011	-0.000001	0.000000	0.000000
62.765186	12.365195	24.400822	-0.072801	0.190340	2.129495	0.000000	0.004343	0.000000	-0.000012	-0.000001	0.000000	0.000000
63.098520	12.422762	24.278648	-0.099901	0.176184	2.130943	0.000000	0.004343	0.000000	-0.000012	-0.000001	0.000000	0.000000
63.433103	12.498714	24.165505	-0.127103	0.161975	2.132397	0.000000	0.004343	0.000000	-0.000012	-0.000001	0.000000	0.000000
63.730426	12.581482	24.072942	-0.120418	0.090307	2.133688	0.000000	-0.000890	0.000000	-0.000013	-0.000001	0.000000	0.000000
64.171386	12.847929	23.728190	-0.486118	0.688538	2.146835	0.000000	0.060574	0.000000	-0.000013	-0.000001	0.000000	0.000000
64.612346	13.445432	22.867700	-0.874028	1.255440	2.187212	0.000000	0.122729	0.000000	-0.000014	-0.000002	0.000000	0.000000
65.053306	14.401289	21.530621	-1.301870	1.765221	2.255279	0.000000	0.186282	0.000000	-0.000015	-0.000002	0.000000	0.000000
65.494266	15.759171	19.777791	-1.789190	2.194686	2.351811	0.000000	0.251956	0.000000	-0.000016	-0.000003	0.000000	0.000000
65.940226	17.604275	17.664162	-2.362944	2.525046	2.479479	0.000000	0.320902	0.000000	-0.000017	-0.000003	0.000000	0.000000
66.489286	19.969631	15.299713	-1.919566	1.806734	2.635311	0.000000	0.245889	0.000000	-0.000019	-0.000002	0.000000	0.000000
67.038346	21.770316	13.649184	-1.340600	1.217111	2.748697	0.000000	0.166516	0.000000	-0.000020	-0.000002	0.000000	0.000000
67.587406	22.879139	12.595012	-0.666940	0.714180	2.817624	0.000000	0.084188	0.000000	-0.000021	-0.000001	0.000000	0.000000
68.136466	23.217779	12.062111	0.053828	0.262119	2.840872	0.000000	0.000368	0.000000	-0.000021	-0.000000	0.000000	0.000000
68.435038	23.225707	11.894793	-0.019706	0.266753	2.843199	0.000000	0.007792	0.000000	-0.000021	-0.000000	0.000000	0.000000
68.768372	23.243630	11.726964	-0.034064	0.236736	2.845796	0.000000	0.007792	0.000000	-0.000021	-0.000000	0.000000	0.000000
69.101705	23.271125	11.579146	-0.048421	0.206718	2.848394	0.000000	0.007792	0.000000	-0.000021	-0.000000	0.000000	0.000000
69.436288	23.308349	11.450898	-0.062833	0.176588	2.851001	0.000000	0.007792	0.000000	-0.000022	-0.000000	0.000000	0.000000
69.733611	23.349520	11.353851	-0.136658	0.179484	2.853318	0.000000	0.015248	0.000000	-0.000022	-0.000001	0.000000	0.000000
70.282671	23.098566	11.384170	0.591013	-0.235029	2.838509	0.000000	-0.069112	0.000000	-0.000022	0.000000	0.000000	0.000000
