#ParticleID	Turn	x[m]	xp	y[m]	yp	z[m]	dE[GeV]# s	beta_x	beta_y	alpha_x	alpha_y	D_x	D_y	D_px	D_py	orbit_x	orbit_px	orbit_y	orbit_py
0.300000	11.802305	25.062928	-0.009981	-0.026720	2.618352	0.000000	-0.000078	0.000000	-0.000002	0.000002	0.000000	0.000000
0.601250	11.816009	25.082650	-0.035508	-0.038748	2.618327	0.000000	-0.000078	0.000000	-0.000001	0.000002	0.000000	0.000000
0.898573	11.844614	25.109221	-0.031656	-0.112194	2.618304	0.000000	-0.006499	0.000000	-0.000001	0.000002	0.000000	0.000000
1.339533	12.024527	24.929615	-0.377893	0.517952	2.631731	0.000000	0.067463	0.000000	0.000000	0.000002	0.000000	0.000000
1.780493	12.516223	24.202579	-0.741394	1.124531	2.677911	0.000000	0.142193	0.000000	0.000001	0.000002	0.000000	0.000000
2.221453	13.342166	22.961193	-1.138768	1.679946	2.757369	0.000000	0.218542	0.000000	0.000002	0.000002	0.000000	0.000000
2.662413	14.540092	21.261939	-1.588169	2.158924	2.871011	0.000000	0.297380	0.000000	0.000003	0.000002	0.000000	0.000000
3.108373	16.185443	19.157214	-2.114413	2.540807	3.021991	0.000000	0.380096	0.000000	0.000004	0.000002	0.000000	0.000000
3.657433	18.295381	16.793234	-1.705658	1.790112	3.205414	0.000000	0.287058	0.000000	0.000005	0.000002	0.000000	0.000000
4.206493	19.887242	15.179172	-1.176425	1.166922	3.336278	0.000000	0.188929	0.000000	0.000006	0.000002	0.000000	0.000000
4.755553	20.848583	14.200063	-0.564094	0.626850	3.412264	0.000000	0.087449	0.000000	0.000007	0.000002	0.000000	0.000000
5.304613	21.111500	13.786166	0.088081	0.131428	3.432022	0.000000	-0.015582	0.000000	0.000008	0.000001	0.000000	0.000000
5.603185	21.096067	13.692824	0.018766	0.145181	3.430046	0.000000	-0.006615	0.000000	0.000008	0.000001	0.000000	0.000000
5.936519	21.088825	13.604322	0.002959	0.120324	3.427841	0.000000	-0.006615	0.000000	0.000009	0.000001	0.000000	0.000000
6.269852	21.092121	13.532392	-0.012847	0.095467	3.425635	0.000000	-0.006615	0.000000	0.000009	0.000001	0.000000	0.000000
6.604435	21.106026	13.476856	-0.028712	0.070518	3.423422	0.000000	-0.006615	0.000000	0.000009	0.000001	0.000000	0.000000
6.901758	21.127291	13.441515	-0.098008	0.083464	3.421454	0.000000	0.002324	0.000000	0.000010	0.000001	0.000000	0.000000
7.450818	20.874885	13.610847	0.554994	-0.393688	3.394531	0.000000	-0.100249	0.000000	0.000011	0.000001	0.000000	0.000000
7.999878	19.922785	14.316380	1.168795	-0.898880	3.311695	0.000000	-0.201043	0.000000	0.000011	0.000001	0.000000	0.000000
8.548938	18.338244	15.608367	1.700038	-1.468099	3.174415	0.000000	-0.298272	0.000000	0.000011	0.000000	0.000000	0.000000
9.097998	16.233185	17.578835	2.111198	-2.141886	2.985128	0.000000	-0.390210	0.000000	0.000011	-0.000000	0.000000	0.000000
9.543958	14.590911	19.334585	1.584453	-1.778484	2.829414	0.000000	-0.308512	0.000000	0.000012	0.000000	0.000000	0.000000
9.984918	13.396545	20.712928	1.134380	-1.335400	2.710617	0.000000	-0.230812	0.000000	0.000012	0.000001	0.000000	0.000000
10.425878	12.574841	21.672119	0.736133	-0.831555	2.625470	0.000000	-0.155742	0.000000	0.000012	0.000001	0.000000	0.000000
10.866838	12.088257	22.168514	0.371518	-0.289876	2.573004	0.000000	-0.082444	0.000000	0.000013	0.000001	0.000000	0.000000
11.309048	11.914430	22.179002	0.052986	0.210550	2.552602	0.000000	-0.016345	0.000000	0.000013	0.000002	0.000000	0.000000
11.606371	11.890362	22.057962	0.027962	0.196550	2.547741	0.000000	-0.016345	0.000000	0.000014	0.000002	0.000000	0.000000
12.086371	11.882912	21.880123	-0.012439	0.173948	2.539895	0.000000	-0.016345	0.000000	0.000014	0.000002	0.000000	0.000000
12.566371	11.914245	21.723981	-0.052839	0.151347	2.532048	0.000000	-0.016345	0.000000	0.000015	0.000002	0.000000	0.000000
13.046371	11.984363	21.589537	-0.093240	0.128745	2.524202	0.000000	-0.016345	0.000000	0.000016	0.000002	0.000000	0.000000
13.526371	12.093265	21.476791	-0.133640	0.106144	2.516355	0.000000	-0.016345	0.000000	0.000017	0.000002	0.000000	0.000000
14.007621	12.241387	21.385533	-0.174146	0.083483	2.508488	0.000000	-0.016345	0.000000	0.000017	0.000002	0.000000	0.000000
14.304943	12.352382	21.340052	-0.168884	0.017161	2.503628	0.000000	-0.022484	0.000000	0.000018	0.000001	0.000000	0.000000
14.745903	12.659795	21.091374	-0.530904	0.544641	2.509341	0.000000	0.048422	0.000000	0.000018	0.000002	0.000000	0.000000
15.186863	13.295929	20.386691	-0.917180	1.047341	2.546411	0.000000	0.119879	0.000000	0.000019	0.000002	0.000000	0.000000
15.627823	14.289848	19.258067	-1.345358	1.502388	2.615263	0.000000	0.192702	0.000000	0.000021	0.000003	0.000000	0.000000
16.068783	15.686961	17.756854	-1.835003	1.889077	2.716679	0.000000	0.267720	0.000000	0.000022	0.000003	0.000000	0.000000
16.514743	17.574762	15.929856	-2.413242	2.190556	2.853508	0.000000	0.346248	0.000000	0.000024	0.000004	0.000000	0.000000
17.063803	19.999508	13.889939	-1.976788	1.546663	3.019895	0.000000	0.258946	0.000000	0.000026	0.000003	0.000000	0.000000
17.612863	21.864998	12.492812	-1.400703	1.012936	3.137015	0.000000	0.167051	0.000000	0.000027	0.000002	0.000000	0.000000
18.161923	23.039464	11.638961	-0.725680	0.551357	3.202791	0.000000	0.072193	0.000000	0.000028	0.000002	0.000000	0.000000
18.710983	23.439946	11.267568	0.000602	0.129050	3.216055	0.000000	-0.023946	0.000000	0.000029	0.000001	0.000000	0.000000
19.009556	23.479966	11.181041	-0.073412	0.131319	3.211413	0.000000	-0.015545	0.000000	0.000029	0.000001	0.000000	0.000000
19.342889	23.533665	11.103604	-0.087685	0.100993	3.206231	0.000000	-0.015545	0.000000	0.000029	0.000001	0.000000	0.000000
19.676223	23.596879	11.046384	-0.101958	0.070666	3.201049	0.000000	-0.015545	0.000000	0.000030	0.000001	0.000000	0.000000
20.010806	23.670192	11.009145	-0.233559	0.094772	3.195867	0.000000	0.000289	0.000000	0.000030	0.000001	0.000000	0.000000
20.308129	23.813016	10.960891	-0.309009	0.096155	3.195953	0.000000	0.008637	0.000000	0.000030	0.000001	0.000000	0.000000
20.857189	23.741616	11.077154	0.438280	-0.309154	3.174486	0.000000	-0.086717	0.000000	0.000030	-0.000000	0.000000	0.000000
21.406249	22.861814	11.647903	1.154611	-0.736483	3.101010	0.000000	-0.180534	0.000000	0.000030	-0.000001	0.000000	0.000000
21.955309	21.235756	12.713789	1.789386	-1.216269	2.976827	0.000000	-0.271148	0.000000	0.000029	-0.000002	0.000000	0.000000
22.504369	18.978299	14.350735	2.297767	-1.782688	2.804142	0.000000	-0.356953	0.000000	0.000028	-0.000003	0.000000	0.000000
22.950329	17.199100	15.820541	1.705906	-1.499231	2.662244	0.000000	-0.279770	0.000000	0.000027	-0.000002	0.000000	0.000000
23.391289	15.924011	16.992506	1.196681	-1.148411	2.555193	0.000000	-0.206229	0.000000	0.000026	-0.000002	0.000000	0.000000
23.832249	15.072305	17.830764	0.742128	-0.745340	2.480023	0.000000	-0.135036	0.000000	0.000025	-0.000001	0.000000	0.000000
24.273209	14.605068	18.297177	0.321481	-0.308356	2.435877	0.000000	-0.065381	0.000000	0.000025	-0.000000	0.000000	0.000000
24.715418	14.501076	18.370278	-0.049012	0.097550	2.422250	0.000000	-0.002410	0.000000	0.000025	0.000000	0.000000	0.000000
25.012741	14.536332	18.317129	-0.069565	0.081211	2.421533	0.000000	-0.002410	0.000000	0.000025	0.000000	0.000000	0.000000
25.346075	14.590389	18.269094	-0.092607	0.062893	2.420730	0.000000	-0.002410	0.000000	0.000025	0.000000	0.000000	0.000000
25.679408	14.659808	18.233271	-0.115649	0.044575	2.419926	0.000000	-0.002410	0.000000	0.000025	0.000000	0.000000	0.000000
26.013991	14.744636	18.209964	-0.019159	-0.121540	2.419095	0.000000	-0.022035	0.000000	0.000026	0.000000	0.000000	0.000000
26.311314	14.762027	18.287163	-0.003139	-0.182943	2.412544	0.000000	-0.027950	0.000000	0.000026	0.000000	0.000000	0.000000
26.752274	14.946648	18.250213	-0.417128	0.266421	2.415323	0.000000	0.040570	0.000000	0.000026	0.000001	0.000000	0.000000
27.193234	15.503365	17.820811	-0.850174	0.703662	2.448390	0.000000	0.109552	0.000000	0.000026	0.000001	0.000000	0.000000
27.634194	16.457615	17.018495	-1.322062	1.108888	2.512121	0.000000	0.179782	0.000000	0.000027	0.000002	0.000000	0.000000
28.075154	17.852994	15.879771	-1.854351	1.463660	2.607242	0.000000	0.252059	0.000000	0.000028	0.000003	0.000000	0.000000
28.521114	19.777491	14.439292	-2.476335	1.752748	2.736439	0.000000	0.327651	0.000000	0.000029	0.000004	0.000000	0.000000
29.070174	22.223519	12.834426	-1.952228	1.187438	2.893683	0.000000	0.244290	0.000000	0.000031	0.000003	0.000000	0.000000
29.619234	24.014424	11.800529	-1.290226	0.706707	3.003900	0.000000	0.156596	0.000000	0.000032	0.000002	0.000000	0.000000
30.168294	25.023704	11.263959	-0.537088	0.276313	3.065132	0.000000	0.066124	0.000000	0.000033	0.000000	0.000000	0.000000
30.717354	25.180070	11.186496	0.253987	-0.134399	3.076296	0.000000	-0.025520	0.000000	0.000033	-0.000001	0.000000	0.000000
31.015927	25.071344	11.257361	0.175937	-0.132165	3.071075	0.000000	-0.017485	0.000000	0.000033	-0.000001	0.000000	0.000000
31.349260	24.958622	11.355513	0.162230	-0.162292	3.065247	0.000000	-0.017485	0.000000	0.000032	-0.000001	0.000000	0.000000
31.682593	24.855038	11.473750	0.148523	-0.192420	3.059419	0.000000	-0.017485	0.000000	0.000032	-0.000001	0.000000	0.000000
32.017177	24.760255	11.612629	0.134764	-0.222660	3.053569	0.000000	-0.017485	0.000000	0.000032	-0.000001	0.000000	0.000000
32.314499	24.683753	11.753022	0.058061	-0.218833	3.048371	0.000000	-0.009522	0.000000	0.000032	-0.000000	0.000000	0.000000
32.863559	24.197044	12.232493	0.823130	-0.659580	3.018272	0.000000	-0.099955	0.000000	0.000031	-0.000001	0.000000	0.000000
33.412619	22.897307	13.218761	1.530057	-1.147307	2.938935	0.000000	-0.188615	0.000000	0.000030	-0.000002	0.000000	0.000000
33.961679	20.876350	14.782075	2.128909	-1.716755	2.811767	0.000000	-0.273930	0.000000	0.000029	-0.000003	0.000000	0.000000
34.510739	18.276923	17.033788	2.577384	-2.408483	2.639023	0.000000	-0.354385	0.000000	0.000027	-0.000004	0.000000	0.000000
34.956699	16.255700	19.047902	1.971149	-2.089016	2.497319	0.000000	-0.281483	0.000000	0.000025	-0.000004	0.000000	0.000000
35.397659	14.748421	20.714131	1.459992	-1.675243	2.388573	0.000000	-0.212216	0.000000	0.000023	-0.000003	0.000000	0.000000
35.838619	13.660937	21.980312	1.015537	-1.185248	2.309810	0.000000	-0.145365	0.000000	0.000022	-0.000002	0.000000	0.000000
36.279579	12.943563	22.788835	0.617479	-0.641326	2.260132	0.000000	-0.080169	0.000000	0.000021	-0.000002	0.000000	0.000000
36.721789	12.562830	23.103225	0.278328	-0.124922	2.238948	0.000000	-0.021376	0.000000	0.000021	-0.000001	0.000000	0.000000
37.019112	12.404905	23.181395	0.252828	-0.137992	2.232593	0.000000	-0.021376	0.000000	0.000020	-0.000001	0.000000	0.000000
37.352445	12.245883	23.278274	0.224239	-0.152645	2.225468	0.000000	-0.021376	0.000000	0.000020	-0.000001	0.000000	0.000000
37.685779	12.105920	23.384922	0.195650	-0.167298	2.218343	0.000000	-0.021376	0.000000	0.000019	-0.000001	0.000000	0.000000
38.020362	11.984598	23.501793	0.166954	-0.182006	2.211191	0.000000	-0.021376	0.000000	0.000019	-0.000001	0.000000	0.000000
38.317684	11.892901	23.613908	0.170614	-0.252975	2.204836	0.000000	-0.026782	0.000000	0.000018	-0.000001	0.000000	0.000000
38.758644	11.894018	23.575441	-0.173155	0.339878	2.206949	0.000000	0.036374	0.000000	0.000018	-0.000001	0.000000	0.000000
39.199604	12.200640	23.018973	-0.524836	0.917267	2.236977	0.000000	0.099946	0.000000	0.000018	-0.000000	0.000000	0.000000
39.640564	12.826778	21.969822	-0.900494	1.452921	2.295260	0.000000	0.164655	0.000000	0.000017	-0.000000	0.000000	0.000000
40.081524	13.801038	20.475725	-1.317294	1.922468	2.382464	0.000000	0.231240	0.000000	0.000017	0.000000	0.000000	0.000000
40.527484	15.185509	18.582080	-1.798105	2.305832	2.501053	0.000000	0.300863	0.000000	0.000018	0.000001	0.000000	0.000000
41.076544	16.952110	16.454009	-1.400349	1.592888	2.645722	0.000000	0.225333	0.000000	0.000018	0.000000	0.000000	0.000000
41.625604	18.224694	15.042314	-0.903680	0.993401	2.747761	0.000000	0.145805	0.000000	0.000018	-0.000000	0.000000	0.000000
42.174664	18.913371	14.246442	-0.343179	0.464672	2.805359	0.000000	0.063692	0.000000	0.000018	-0.000001	0.000000	0.000000
42.723724	18.969496	14.009705	0.241563	-0.030959	2.817495	0.000000	-0.019551	0.000000	0.000017	-0.000001	0.000000	0.000000
43.022297	18.859713	14.012699	0.175686	-0.015672	2.813856	0.000000	-0.012191	0.000000	0.000017	-0.000001	0.000000	0.000000
43.502297	18.703648	14.044190	0.149449	-0.049935	2.808005	0.000000	-0.012191	0.000000	0.000016	-0.000001	0.000000	0.000000
43.982297	18.572771	14.108574	0.123213	-0.084198	2.802154	0.000000	-0.012191	0.000000	0.000015	-0.000001	0.000000	0.000000
44.462297	18.467080	14.205850	0.096976	-0.118461	2.796303	0.000000	-0.012191	0.000000	0.000015	-0.000001	0.000000	0.000000
44.942297	18.386577	14.336018	0.070739	-0.152724	2.790452	0.000000	-0.012191	0.000000	0.000014	-0.000001	0.000000	0.000000
45.423547	18.331376	14.499367	-0.046389	-0.115237	2.784603	0.000000	0.001606	0.000000	0.000013	-0.000001	0.000000	0.000000
45.720870	18.363794	14.574071	-0.110620	-0.097940	2.785081	0.000000	0.008882	0.000000	0.000013	-0.000001	0.000000	0.000000
46.269930	18.176070	14.963420	0.450496	-0.615366	2.767393	0.000000	-0.073221	0.000000	0.000012	-0.000002	0.000000	0.000000
46.818990	17.386079	15.941555	0.979791	-1.176622	2.704916	0.000000	-0.154025	0.000000	0.000011	-0.000002	0.000000	0.000000
47.368050	16.049624	17.578147	1.439878	-1.821686	2.598758	0.000000	-0.232098	0.000000	0.000010	-0.000002	0.000000	0.000000
47.917110	14.261104	19.989764	1.798259	-2.596506	2.450803	0.000000	-0.306053	0.000000	0.000008	-0.000003	0.000000	0.000000
48.363070	12.869395	22.133801	1.333501	-2.190971	2.329606	0.000000	-0.237767	0.000000	0.000007	-0.000003	0.000000	0.000000
48.804030	11.873544	23.850374	0.933437	-1.687025	2.239218	0.000000	-0.172586	0.000000	0.000006	-0.000002	0.000000	0.000000
49.244990	11.210450	25.086834	0.576019	-1.106322	2.177112	0.000000	-0.109371	0.000000	0.000005	-0.000002	0.000000	0.000000
49.685950	10.849817	25.786922	0.244917	-0.475281	2.142581	0.000000	-0.047401	0.000000	0.000004	-0.000002	0.000000	0.000000
50.128160	10.775293	25.918500	-0.048688	0.113777	2.135242	0.000000	0.008793	0.000000	0.000003	-0.000002	0.000000	0.000000
50.425482	10.812468	25.854298	-0.076346	0.102157	2.137857	0.000000	0.008793	0.000000	0.000003	-0.000002	0.000000	0.000000
50.758816	10.873702	25.790535	-0.107354	0.089130	2.140788	0.000000	0.008793	0.000000	0.000002	-0.000002	0.000000	0.000000
51.092149	10.955608	25.735457	-0.138363	0.076103	2.143720	0.000000	0.008793	0.000000	0.000001	-0.000002	0.000000	0.000000
51.426732	11.058385	25.689428	-0.079775	-0.145379	2.146640	0.000000	-0.008622	0.000000	0.000001	-0.000002	0.000000	0.000000
51.724055	11.113867	25.779391	-0.079578	-0.220416	2.144077	0.000000	-0.013880	0.000000	0.000000	-0.000002	0.000000	0.000000
52.165015	11.329195	25.686947	-0.410591	0.429261	2.151545	0.000000	0.047779	0.000000	-0.000001	-0.000002	0.000000	0.000000
52.605975	11.843588	25.027996	-0.760364	1.059407	2.186296	0.000000	0.109983	0.000000	-0.000002	-0.000002	0.000000	0.000000
53.046935	12.680546	23.832520	-1.144875	1.641352	2.248727	0.000000	0.173439	0.000000	-0.000003	-0.000002	0.000000	0.000000
53.487895	13.878309	22.154912	-1.581692	2.148616	2.339547	0.000000	0.238871	0.000000	-0.000004	-0.000002	0.000000	0.000000
53.933855	15.512134	20.046423	-2.094996	2.559458	2.461297	0.000000	0.307422	0.000000	-0.000004	-0.000002	0.000000	0.000000
54.482915	17.615709	17.673757	-1.713555	1.787373	2.609911	0.000000	0.233116	0.000000	-0.000006	-0.000002	0.000000	0.000000
55.031975	19.231069	16.074467	-1.211078	1.142599	2.716529	0.000000	0.154675	0.000000	-0.000007	-0.000002	0.000000	0.000000
55.581035	20.244115	15.134638	-0.623056	0.579209	2.779260	0.000000	0.073490	0.000000	-0.000008	-0.000002	0.000000	0.000000
56.130095	20.583290	14.787330	0.008975	0.057075	2.796992	0.000000	-0.008998	0.000000	-0.000009	-0.000001	0.000000	0.000000
56.428668	20.614387	14.736258	-0.059344	0.075339	2.796488	0.000000	-0.001690	0.000000	-0.000009	-0.000001	0.000000	0.000000
56.762001	20.659359	14.693615	-0.075571	0.052591	2.795925	0.000000	-0.001690	0.000000	-0.000010	-0.000001	0.000000	0.000000
57.095334	20.715148	14.666137	-0.091798	0.029842	2.795362	0.000000	-0.001690	0.000000	-0.000010	-0.000001	0.000000	0.000000
57.429918	20.782026	14.653807	-0.108085	0.007009	2.794798	0.000000	-0.001690	0.000000	-0.000010	-0.000001	0.000000	0.000000
57.727240	20.850602	14.655672	-0.177043	0.025014	2.794296	0.000000	0.005612	0.000000	-0.000011	-0.000001	0.000000	0.000000
58.276300	20.689348	14.909556	0.468995	-0.490140	2.774735	0.000000	-0.076759	0.000000	-0.000012	-0.000001	0.000000	0.000000
58.825360	19.832740	15.744877	1.081905	-1.040206	2.710256	0.000000	-0.157769	0.000000	-0.000012	-0.000001	0.000000	0.000000
59.374420	18.341285	17.221134	1.618395	-1.664363	2.602001	0.000000	-0.235980	0.000000	-0.000012	-0.000000	0.000000	0.000000
59.923480	16.320331	19.443476	2.040569	-2.407069	2.451890	0.000000	-0.310006	0.000000	-0.000012	0.000000	0.000000	0.000000
60.369440	14.738603	21.418656	1.518784	-2.003287	2.328932	0.000000	-0.241715	0.000000	-0.000012	-0.000000	0.000000	0.000000
60.810400	13.601110	22.973675	1.070586	-1.509734	2.236796	0.000000	-0.176574	0.000000	-0.000013	-0.000001	0.000000	0.000000
61.251360	12.835912	24.061352	0.671299	-0.947490	2.172914	0.000000	-0.113444	0.000000	-0.000013	-0.000001	0.000000	0.000000
61.692320	12.408048	24.632197	0.302682	-0.342136	2.136559	0.000000	-0.051606	0.000000	-0.000013	-0.000001	0.000000	0.000000
62.134530	12.298026	24.659694	-0.022045	0.218250	2.127322	0.000000	0.004427	0.000000	-0.000014	-0.000002	0.000000	0.000000
62.431853	12.318327	24.533668	-0.046234	0.205619	2.128639	0.000000	0.004427	0.000000	-0.000014	-0.000002	0.000000	0.000000
62.765186	12.358189	24.401309	-0.073351	0.191458	2.130115	0.000000	0.004427	0.000000	-0.000015	-0.000002	0.000000	0.000000
63.098520	12.416129	24.278391	-0.100469	0.177296	2.131591	0.000000	0.004427	0.000000	-0.000016	-0.000002	0.000000	0.000000
63.433103	12.492467	24.164506	-0.127689	0.163082	2.133073	0.000000	0.004427	0.000000	-0.000016	-0.000002	0.000000	0.000000
63.730426	12.575588	24.071286	-0.121033	0.091411	2.134390	0.000000	-0.000808	0.000000	-0.000016	-0.000002	0.000000	0.000000
64.171386	12.842524	23.725589	-0.486616	0.689569	2.147577	0.000000	0.060675	0.000000	-0.000017	-0.000002	0.000000	0.000000
64.612346	13.440423	22.864239	-0.874432	1.256352	2.188003	0.000000	0.122850	0.000000	-0.000018	-0.000002	0.000000	0.000000
65.053306	14.396601	21.526424	-1.302197	1.765972	2.256128	0.000000	0.186424	0.000000	-0.000019	-0.000003	0.000000	0.000000
65.494266	15.754743	19.773016	-1.789456	2.195241	2.352728	0.000000	0.252120	0.000000	-0.000021	-0.000003	0.000000	0.000000
65.940226	17.600062	17.658990	-2.363162	2.525379	2.480475	0.000000	0.321091	0.000000	-0.000022	-0.000004	0.000000	0.000000
66.489286	19.965772	15.294144	-1.919991	1.807126	2.636403	0.000000	0.246045	0.000000	-0.000024	-0.000003	0.000000	0.000000
67.038346	21.767023	13.643139	-1.341202	1.217591	2.749864	0.000000	0.166635	0.000000	-0.000026	-0.000002	0.000000	0.000000
67.587406	22.876586	12.588376	-0.667677	0.714783	2.818847	0.000000	0.084269	0.000000	-0.000027	-0.000002	0.000000	0.000000
68.136466	23.216085	12.054727	0.053008	0.262886	2.842128	0.000000	0.000408	0.000000	-0.000028	-0.000001	0.000000	0.000000
68.435038	23.224502	11.886969	-0.020526	0.267476	2.844468	0.000000	0.007836	0.000000	-0.000028	-0.000001	0.000000	0.000000
68.768372	23.242973	11.718668	-0.034885	0.237428	2.847080	0.000000	0.007836	0.000000	-0.000028	-0.000001	0.000000	0.000000
69.101705	23.271015	11.570399	-0.049244	0.207379	2.849692	0.000000	0.007836	0.000000	-0.000028	-0.000001	0.000000	0.000000
69.436288	23.308790	11.441719	-0.063656	0.177219	2.852314	0.000000	0.007836	0.000000	-0.000028	-0.000001	0.000000	0.000000
69.733611	23.350451	11.344306	-0.137489	0.180064	2.854644	0.000000	0.015296	0.000000	-0.000029	-0.000001	0.000000	0.000000
70.282671	23.100384	11.373839	0.590237	-0.234170	2.839849	0.000000	-0.069108	0.000000	-0.000029	0.000000	0.000000	0.000000
