#ParticleID	Turn	x[m]	xp	y[m]	yp	z[m]	dE[GeV]# s	beta_x	beta_y	alpha_x	alpha_y	D_x	D_y	D_px	D_py	orbit_x	orbit_px	orbit_y	orbit_py
0.300000	11.805716	25.051026	-0.010219	-0.026902	2.618200	0.000000	-0.000021	0.000000	-0.000001	0.000002	0.000000	0.000000
0.601250	11.819560	25.070860	-0.035739	-0.038937	2.618194	0.000000	-0.000021	0.000000	-0.000000	0.000002	0.000000	0.000000
0.898573	11.848301	25.097545	-0.031871	-0.112360	2.618187	0.000000	-0.006441	0.000000	0.000000	0.000002	0.000000	0.000000
1.339533	12.028441	24.918220	-0.378197	0.517481	2.631640	0.000000	0.067518	0.000000	0.000001	0.000002	0.000000	0.000000
1.780493	12.520450	24.191727	-0.741802	1.123777	2.677844	0.000000	0.142246	0.000000	0.000002	0.000002	0.000000	0.000000
2.221453	13.346804	22.951119	-1.139297	1.678942	2.757325	0.000000	0.218594	0.000000	0.000002	0.000002	0.000000	0.000000
2.662413	14.545260	21.252843	-1.588845	2.157717	2.870989	0.000000	0.297431	0.000000	0.000003	0.000002	0.000000	0.000000
3.108373	16.191291	19.149267	-2.115267	2.539450	3.021992	0.000000	0.380146	0.000000	0.000004	0.000002	0.000000	0.000000
3.657433	18.302084	16.786592	-1.706351	1.789076	3.205442	0.000000	0.287108	0.000000	0.000005	0.000002	0.000000	0.000000
4.206493	19.894592	15.173525	-1.176906	1.166134	3.336334	0.000000	0.188978	0.000000	0.000006	0.000002	0.000000	0.000000
4.755553	20.856329	14.195172	-0.564330	0.626254	3.412346	0.000000	0.087496	0.000000	0.000007	0.000001	0.000000	0.000000
5.304613	21.119362	13.781845	0.088107	0.130980	3.432129	0.000000	-0.015538	0.000000	0.000007	0.000001	0.000000	0.000000
5.603185	21.103925	13.688778	0.018776	0.144718	3.430166	0.000000	-0.006571	0.000000	0.000008	0.000001	0.000000	0.000000
5.936519	21.096674	13.600586	0.002976	0.119858	3.427975	0.000000	-0.006571	0.000000	0.000008	0.000001	0.000000	0.000000
6.269852	21.099957	13.528968	-0.012825	0.094997	3.425785	0.000000	-0.006571	0.000000	0.000009	0.000001	0.000000	0.000000
6.604435	21.113845	13.473749	-0.028684	0.070043	3.423586	0.000000	-0.006571	0.000000	0.000009	0.000001	0.000000	0.000000
6.901758	21.135092	13.438691	-0.097996	0.082978	3.421631	0.000000	0.002368	0.000000	0.000009	0.000001	0.000000	0.000000
7.450818	20.882529	13.608516	0.555266	-0.394104	3.394730	0.000000	-0.100211	0.000000	0.000010	0.000001	0.000000	0.000000
7.999878	19.929997	14.314481	1.169306	-0.899257	3.311913	0.000000	-0.201012	0.000000	0.000010	0.000001	0.000000	0.000000
8.548938	18.344780	15.606873	1.700752	-1.468462	3.174649	0.000000	-0.298248	0.000000	0.000010	0.000000	0.000000	0.000000
9.097998	16.238848	17.577744	2.112065	-2.142263	2.985373	0.000000	-0.390193	0.000000	0.000011	-0.000000	0.000000	0.000000
9.543958	14.595882	19.333862	1.585143	-1.778930	2.829668	0.000000	-0.308490	0.000000	0.000011	0.000000	0.000000	0.000000
9.984918	13.400973	20.712621	1.134926	-1.335893	2.710882	0.000000	-0.230783	0.000000	0.000011	0.000000	0.000000	0.000000
10.425878	12.578840	21.672260	0.736561	-0.832074	2.625750	0.000000	-0.155705	0.000000	0.000011	0.000001	0.000000	0.000000
10.866838	12.091924	22.169115	0.371847	-0.290396	2.573302	0.000000	-0.082401	0.000000	0.000011	0.000001	0.000000	0.000000
11.309048	11.917844	22.180055	0.053240	0.210048	2.552921	0.000000	-0.016294	0.000000	0.000012	0.000001	0.000000	0.000000
11.606371	11.893624	22.059312	0.028222	0.196052	2.548076	0.000000	-0.016294	0.000000	0.000012	0.000001	0.000000	0.000000
12.086371	11.885918	21.881949	-0.012168	0.173456	2.540254	0.000000	-0.016294	0.000000	0.000013	0.000001	0.000000	0.000000
12.566371	11.916987	21.726277	-0.052558	0.150860	2.532432	0.000000	-0.016294	0.000000	0.000013	0.000001	0.000000	0.000000
13.046371	11.986830	21.592298	-0.092948	0.128264	2.524610	0.000000	-0.016294	0.000000	0.000014	0.000001	0.000000	0.000000
13.526371	12.095448	21.480011	-0.133338	0.105668	2.516788	0.000000	-0.016294	0.000000	0.000015	0.000001	0.000000	0.000000
14.007621	12.243274	21.389208	-0.173833	0.083013	2.508945	0.000000	-0.016294	0.000000	0.000015	0.000001	0.000000	0.000000
14.304943	12.354081	21.344006	-0.168560	0.016683	2.504100	0.000000	-0.022434	0.000000	0.000016	0.000001	0.000000	0.000000
14.745903	12.661222	21.095698	-0.530608	0.544281	2.509838	0.000000	0.048484	0.000000	0.000016	0.000002	0.000000	0.000000
15.186863	13.297102	20.391276	-0.916898	1.047114	2.546939	0.000000	0.119955	0.000000	0.000017	0.000002	0.000000	0.000000
15.627823	14.290774	19.262791	-1.345078	1.502304	2.615827	0.000000	0.192792	0.000000	0.000018	0.000003	0.000000	0.000000
16.068783	15.687635	17.761587	-1.834711	1.889140	2.717285	0.000000	0.267824	0.000000	0.000019	0.000003	0.000000	0.000000
16.514743	17.575166	15.934468	-2.412925	2.190765	2.854165	0.000000	0.346369	0.000000	0.000021	0.000004	0.000000	0.000000
17.063803	19.999531	13.894387	-1.976417	1.546755	3.020613	0.000000	0.259045	0.000000	0.000023	0.000003	0.000000	0.000000
17.612863	21.864596	12.497220	-1.400305	1.012918	3.137781	0.000000	0.167125	0.000000	0.000024	0.000002	0.000000	0.000000
18.161923	23.038622	11.643449	-0.725282	0.551228	3.203590	0.000000	0.072242	0.000000	0.000025	0.000001	0.000000	0.000000
18.710983	23.438680	11.272263	0.000971	0.128801	3.216874	0.000000	-0.023923	0.000000	0.000025	0.000000	0.000000	0.000000
19.009556	23.478479	11.185873	-0.073041	0.131097	3.212240	0.000000	-0.015520	0.000000	0.000025	0.000001	0.000000	0.000000
19.342889	23.531931	11.108579	-0.087314	0.100785	3.207067	0.000000	-0.015520	0.000000	0.000026	0.000001	0.000000	0.000000
19.676223	23.594898	11.051493	-0.101587	0.070473	3.201893	0.000000	-0.015520	0.000000	0.000026	0.000001	0.000000	0.000000
20.010806	23.667964	11.014378	-0.233178	0.094620	3.196720	0.000000	0.000319	0.000000	0.000026	0.000001	0.000000	0.000000
20.308129	23.810560	10.966210	-0.308623	0.096031	3.196815	0.000000	0.008669	0.000000	0.000026	0.000001	0.000000	0.000000
20.857189	23.738783	11.082691	0.438577	-0.309429	3.175358	0.000000	-0.086713	0.000000	0.000026	-0.000000	0.000000	0.000000
21.406249	22.858714	11.653834	1.154798	-0.736930	3.101876	0.000000	-0.180558	0.000000	0.000026	-0.000001	0.000000	0.000000
21.955309	21.232519	12.720320	1.789449	-1.216920	2.977673	0.000000	-0.271200	0.000000	0.000025	-0.000002	0.000000	0.000000
22.504369	18.975063	14.358112	2.297703	-1.783589	2.804951	0.000000	-0.357031	0.000000	0.000024	-0.000003	0.000000	0.000000
22.950329	17.195892	15.828644	1.705907	-1.499952	2.663022	0.000000	-0.279828	0.000000	0.000023	-0.000002	0.000000	0.000000
23.391289	15.920775	17.001154	1.196746	-1.148922	2.555951	0.000000	-0.206267	0.000000	0.000022	-0.000001	0.000000	0.000000
23.832249	15.068982	17.839761	0.742260	-0.745616	2.480768	0.000000	-0.135055	0.000000	0.000022	-0.000001	0.000000	0.000000
24.273209	14.601597	18.306309	0.321687	-0.308386	2.436618	0.000000	-0.065381	0.000000	0.000022	-0.000000	0.000000	0.000000
24.715418	14.497387	18.379327	-0.048731	0.097744	2.422995	0.000000	-0.002393	0.000000	0.000022	0.000000	0.000000	0.000000
25.012741	14.532477	18.326059	-0.069289	0.081413	2.422283	0.000000	-0.002393	0.000000	0.000022	0.000000	0.000000	0.000000
25.346075	14.586352	18.277887	-0.092336	0.063103	2.421486	0.000000	-0.002393	0.000000	0.000022	0.000000	0.000000	0.000000
25.679408	14.655592	18.241922	-0.115383	0.044794	2.420688	0.000000	-0.002393	0.000000	0.000022	0.000000	0.000000	0.000000
26.013991	14.740243	18.218466	-0.018934	-0.121382	2.419863	0.000000	-0.022024	0.000000	0.000022	0.000000	0.000000	0.000000
26.311314	14.757502	18.295569	-0.002930	-0.182799	2.413315	0.000000	-0.027941	0.000000	0.000022	0.000000	0.000000	0.000000
26.752274	14.941889	18.258391	-0.416806	0.266790	2.416103	0.000000	0.040599	0.000000	0.000022	0.000001	0.000000	0.000000
27.193234	15.498268	17.828569	-0.849723	0.704240	2.449187	0.000000	0.109601	0.000000	0.000023	0.000001	0.000000	0.000000
27.634194	16.452056	17.025662	-1.321463	1.109648	2.512945	0.000000	0.179852	0.000000	0.000023	0.000002	0.000000	0.000000
28.075154	17.846831	15.886199	-1.853576	1.464568	2.608101	0.000000	0.252151	0.000000	0.000024	0.000002	0.000000	0.000000
28.521114	19.770544	14.444860	-2.475347	1.753762	2.737344	0.000000	0.327765	0.000000	0.000025	0.000003	0.000000	0.000000
29.070174	22.215586	12.839007	-1.951431	1.188231	2.894644	0.000000	0.244374	0.000000	0.000027	0.000002	0.000000	0.000000
29.619234	24.005747	11.804336	-1.289677	0.707334	3.004898	0.000000	0.156648	0.000000	0.000028	0.000001	0.000000	0.000000
30.168294	25.014579	11.267147	-0.536826	0.276820	3.066151	0.000000	0.066144	0.000000	0.000028	0.000000	0.000000	0.000000
30.717354	25.170823	11.189179	0.253944	-0.133978	3.077317	0.000000	-0.025533	0.000000	0.000028	-0.000001	0.000000	0.000000
31.015927	25.062112	11.259784	0.175911	-0.131726	3.072093	0.000000	-0.017495	0.000000	0.000028	-0.000000	0.000000	0.000000
31.349260	24.949408	11.357640	0.162199	-0.161844	3.066262	0.000000	-0.017495	0.000000	0.000028	-0.000000	0.000000	0.000000
31.682593	24.845846	11.475575	0.148487	-0.191961	3.060430	0.000000	-0.017495	0.000000	0.000028	-0.000000	0.000000	0.000000
32.017177	24.751089	11.614144	0.134724	-0.222192	3.054577	0.000000	-0.017495	0.000000	0.000027	-0.000000	0.000000	0.000000
32.314499	24.674612	11.754257	0.058038	-0.218351	3.049376	0.000000	-0.009529	0.000000	0.000027	-0.000000	0.000000	0.000000
32.863559	24.188095	12.233206	0.822807	-0.659106	3.019264	0.000000	-0.099994	0.000000	0.000027	-0.000001	0.000000	0.000000
33.412619	22.888868	13.218943	1.529457	-1.146808	2.939897	0.000000	-0.188686	0.000000	0.000026	-0.000002	0.000000	0.000000
33.961679	20.868704	14.781679	2.128074	-1.716194	2.812681	0.000000	-0.274031	0.000000	0.000025	-0.000003	0.000000	0.000000
34.510739	18.270296	17.032724	2.576374	-2.407821	2.639874	0.000000	-0.354515	0.000000	0.000023	-0.000004	0.000000	0.000000
34.956699	16.249877	19.046232	1.970350	-2.088325	2.498116	0.000000	-0.281592	0.000000	0.000021	-0.000003	0.000000	0.000000
35.397659	14.743225	20.711851	1.459363	-1.674556	2.389326	0.000000	-0.212304	0.000000	0.000020	-0.000003	0.000000	0.000000
35.838619	13.656230	21.977438	1.015051	-1.184595	2.310528	0.000000	-0.145434	0.000000	0.000019	-0.000002	0.000000	0.000000
36.279579	12.939230	22.785411	0.617114	-0.640737	2.260824	0.000000	-0.080221	0.000000	0.000018	-0.000002	0.000000	0.000000
36.721789	12.558772	23.099319	0.278058	-0.124416	2.239621	0.000000	-0.021412	0.000000	0.000017	-0.000001	0.000000	0.000000
37.019112	12.401010	23.177188	0.252553	-0.137486	2.233255	0.000000	-0.021412	0.000000	0.000017	-0.000001	0.000000	0.000000
37.352445	12.242172	23.273731	0.223959	-0.152140	2.226118	0.000000	-0.021412	0.000000	0.000017	-0.000001	0.000000	0.000000
37.685779	12.102397	23.380042	0.195365	-0.166794	2.218981	0.000000	-0.021412	0.000000	0.000016	-0.000001	0.000000	0.000000
38.020362	11.981268	23.496576	0.166664	-0.181503	2.211817	0.000000	-0.021412	0.000000	0.000016	-0.000001	0.000000	0.000000
38.317684	11.889746	23.608392	0.170312	-0.252460	2.205452	0.000000	-0.026820	0.000000	0.000015	-0.000001	0.000000	0.000000
38.758644	11.891097	23.569537	-0.173389	0.340240	2.207552	0.000000	0.036353	0.000000	0.000015	-0.000001	0.000000	0.000000
39.199604	12.197899	23.012824	-0.525011	0.917459	2.237573	0.000000	0.099939	0.000000	0.000015	-0.000000	0.000000	0.000000
39.640564	12.824169	21.963583	-0.900619	1.452934	2.295858	0.000000	0.164664	0.000000	0.000015	-0.000000	0.000000	0.000000
40.081524	13.798519	20.469553	-1.317374	1.922302	2.383069	0.000000	0.231264	0.000000	0.000015	0.000000	0.000000	0.000000
40.527484	15.183043	18.576133	-1.798144	2.305494	2.501672	0.000000	0.300904	0.000000	0.000015	0.000001	0.000000	0.000000
41.076544	16.949747	16.448341	-1.400496	1.592718	2.646358	0.000000	0.225353	0.000000	0.000015	0.000000	0.000000	0.000000
41.625604	18.222546	15.036746	-0.903923	0.993387	2.748403	0.000000	0.145805	0.000000	0.000015	-0.000000	0.000000	0.000000
42.174664	18.911535	14.240805	-0.343502	0.464813	2.805995	0.000000	0.063671	0.000000	0.000015	-0.000001	0.000000	0.000000
42.723724	18.968049	14.003824	0.241183	-0.030653	2.818114	0.000000	-0.019593	0.000000	0.000014	-0.000001	0.000000	0.000000
43.022297	18.858491	14.006647	0.175310	-0.015389	2.814463	0.000000	-0.012230	0.000000	0.000014	-0.000001	0.000000	0.000000
43.502297	18.702786	14.037874	0.149075	-0.049667	2.808593	0.000000	-0.012230	0.000000	0.000013	-0.000001	0.000000	0.000000
43.982297	18.572267	14.102007	0.122840	-0.083944	2.802723	0.000000	-0.012230	0.000000	0.000013	-0.000001	0.000000	0.000000
44.462297	18.466934	14.199047	0.096605	-0.118222	2.796853	0.000000	-0.012230	0.000000	0.000012	-0.000001	0.000000	0.000000
44.942297	18.386786	14.328993	0.070370	-0.152499	2.790983	0.000000	-0.012230	0.000000	0.000011	-0.000001	0.000000	0.000000
45.423547	18.331940	14.492133	-0.046760	-0.115063	2.785115	0.000000	0.001569	0.000000	0.000011	-0.000001	0.000000	0.000000
45.720870	18.364579	14.566736	-0.110993	-0.097794	2.785581	0.000000	0.008846	0.000000	0.000010	-0.000001	0.000000	0.000000
46.269930	18.177247	14.955802	0.450159	-0.614993	2.767869	0.000000	-0.073273	0.000000	0.000010	-0.000001	0.000000	0.000000
46.818990	17.387595	15.933393	0.979515	-1.175997	2.705359	0.000000	-0.154092	0.000000	0.000009	-0.000002	0.000000	0.000000
47.368050	16.051400	17.569140	1.439683	-1.820764	2.599162	0.000000	-0.232178	0.000000	0.000008	-0.000002	0.000000	0.000000
47.917110	14.263044	19.979552	1.798158	-2.595220	2.451159	0.000000	-0.306146	0.000000	0.000007	-0.000002	0.000000	0.000000
48.363070	12.871436	22.122542	1.333376	-2.189919	2.329922	0.000000	-0.237851	0.000000	0.000006	-0.000002	0.000000	0.000000
48.804030	11.875707	23.838309	0.933283	-1.686254	2.239499	0.000000	-0.172662	0.000000	0.000005	-0.000002	0.000000	0.000000
49.244990	11.212764	25.074225	0.575829	-1.105866	2.177361	0.000000	-0.109440	0.000000	0.000004	-0.000002	0.000000	0.000000
49.685950	10.852318	25.774058	0.244682	-0.475162	2.142801	0.000000	-0.047464	0.000000	0.000003	-0.000002	0.000000	0.000000
50.128160	10.778025	25.905683	-0.048972	0.113586	2.135435	0.000000	0.008734	0.000000	0.000002	-0.000002	0.000000	0.000000
50.425482	10.815368	25.841596	-0.076624	0.101960	2.138032	0.000000	0.008734	0.000000	0.000002	-0.000002	0.000000	0.000000
50.758816	10.876784	25.777967	-0.107625	0.088927	2.140944	0.000000	0.008734	0.000000	0.000001	-0.000002	0.000000	0.000000
51.092149	10.958868	25.723026	-0.138626	0.075894	2.143856	0.000000	0.008734	0.000000	0.000001	-0.000002	0.000000	0.000000
51.426732	11.061819	25.677138	-0.080003	-0.145494	2.146757	0.000000	-0.008682	0.000000	0.000000	-0.000002	0.000000	0.000000
51.724055	11.117435	25.767171	-0.079790	-0.220508	2.144176	0.000000	-0.013940	0.000000	-0.000000	-0.000002	0.000000	0.000000
52.165015	11.332987	25.674950	-0.410890	0.428849	2.151618	0.000000	0.047722	0.000000	-0.000001	-0.000002	0.000000	0.000000
52.605975	11.847686	25.016498	-0.760762	1.058693	2.186345	0.000000	0.109927	0.000000	-0.000002	-0.000002	0.000000	0.000000
53.046935	12.685046	23.821774	-1.145391	1.640367	2.248750	0.000000	0.173384	0.000000	-0.000003	-0.000002	0.000000	0.000000
53.487895	13.883324	22.145138	-1.582350	2.147406	2.339547	0.000000	0.238816	0.000000	-0.000004	-0.000002	0.000000	0.000000
53.933855	15.517811	20.037807	-2.095826	2.558078	2.461272	0.000000	0.307367	0.000000	-0.000005	-0.000002	0.000000	0.000000
54.482915	17.622215	17.666463	-1.714227	1.786331	2.609856	0.000000	0.233062	0.000000	-0.000006	-0.000002	0.000000	0.000000
55.031975	19.238205	16.068167	-1.211544	1.141820	2.716445	0.000000	0.154623	0.000000	-0.000007	-0.000002	0.000000	0.000000
55.581035	20.251634	15.129075	-0.623284	0.578639	2.779149	0.000000	0.073442	0.000000	-0.000007	-0.000001	0.000000	0.000000
56.130095	20.590920	14.782298	0.009002	0.056672	2.796855	0.000000	-0.009042	0.000000	-0.000008	-0.000001	0.000000	0.000000
56.428668	20.622011	14.731477	-0.059332	0.074917	2.796338	0.000000	-0.001734	0.000000	-0.000009	-0.000001	0.000000	0.000000
56.762001	20.666973	14.689116	-0.075552	0.052163	2.795760	0.000000	-0.001734	0.000000	-0.000009	-0.000001	0.000000	0.000000
57.095334	20.722748	14.661926	-0.091773	0.029409	2.795183	0.000000	-0.001734	0.000000	-0.000009	-0.000001	0.000000	0.000000
57.429918	20.789607	14.649888	-0.108055	0.006569	2.794603	0.000000	-0.001734	0.000000	-0.000010	-0.000001	0.000000	0.000000
57.727240	20.858164	14.652017	-0.177027	0.024559	2.794088	0.000000	0.005567	0.000000	-0.000010	-0.000001	0.000000	0.000000
58.276300	20.696753	14.906345	0.469262	-0.490501	2.774504	0.000000	-0.076797	0.000000	-0.000011	-0.000001	0.000000	0.000000
58.825360	19.839722	15.742022	1.082404	-1.040498	2.710006	0.000000	-0.157799	0.000000	-0.000011	-0.000001	0.000000	0.000000
59.374420	18.347606	17.218571	1.619091	-1.664607	2.601737	0.000000	-0.236002	0.000000	-0.000011	-0.000000	0.000000	0.000000
59.923480	16.325801	19.441162	2.041414	-2.407282	2.451616	0.000000	-0.310019	0.000000	-0.000011	0.000000	0.000000	0.000000
60.369440	14.743399	21.416576	1.519458	-2.003596	2.328651	0.000000	-0.241735	0.000000	-0.000011	-0.000000	0.000000	0.000000
60.810400	13.605375	22.971905	1.071121	-1.510125	2.236504	0.000000	-0.176601	0.000000	-0.000011	-0.000000	0.000000	0.000000
61.251360	12.839756	24.059956	0.671720	-0.947945	2.172608	0.000000	-0.113479	0.000000	-0.000012	-0.000001	0.000000	0.000000
61.692320	12.411565	24.631224	0.303008	-0.342634	2.136235	0.000000	-0.051649	0.000000	-0.000012	-0.000001	0.000000	0.000000
62.134530	12.301291	24.659172	-0.021792	0.217734	2.126977	0.000000	0.004376	0.000000	-0.000013	-0.000001	0.000000	0.000000
62.431853	12.321439	24.533452	-0.045973	0.205105	2.128279	0.000000	0.004376	0.000000	-0.000013	-0.000001	0.000000	0.000000
62.765186	12.361125	24.401435	-0.073084	0.190946	2.129738	0.000000	0.004376	0.000000	-0.000013	-0.000001	0.000000	0.000000
63.098520	12.418884	24.278857	-0.100194	0.176788	2.131197	0.000000	0.004376	0.000000	-0.000014	-0.000001	0.000000	0.000000
63.433103	12.495035	24.165312	-0.127406	0.162576	2.132661	0.000000	0.004376	0.000000	-0.000014	-0.000001	0.000000	0.000000
63.730426	12.577986	24.072392	-0.120738	0.090906	2.133963	0.000000	-0.000858	0.000000	-0.000015	-0.000001	0.000000	0.000000
64.171386	12.844684	23.727124	-0.486368	0.689106	2.147126	0.000000	0.060614	0.000000	-0.000015	-0.000002	0.000000	0.000000
64.612346	13.442380	22.866154	-0.874218	1.255953	2.187522	0.000000	0.122776	0.000000	-0.000016	-0.000002	0.000000	0.000000
65.053306	14.398381	21.528657	-1.302009	1.765654	2.255611	0.000000	0.186337	0.000000	-0.000017	-0.000002	0.000000	0.000000
65.494266	15.756366	19.775488	-1.789285	2.195020	2.352170	0.000000	0.252020	0.000000	-0.000018	-0.000003	0.000000	0.000000
65.940226	17.601535	17.661612	-2.362998	2.525265	2.479869	0.000000	0.320976	0.000000	-0.000020	-0.000003	0.000000	0.000000
66.489286	19.967020	15.296911	-1.919746	1.806975	2.635738	0.000000	0.245950	0.000000	-0.000021	-0.000003	0.000000	0.000000
67.038346	21.767965	13.646097	-1.340892	1.217392	2.749153	0.000000	0.166562	0.000000	-0.000023	-0.000002	0.000000	0.000000
67.587406	22.877161	12.591585	-0.667324	0.714522	2.818103	0.000000	0.084220	0.000000	-0.000024	-0.000001	0.000000	0.000000
68.136466	23.216261	12.058265	0.053380	0.262545	2.841364	0.000000	0.000383	0.000000	-0.000024	-0.000001	0.000000	0.000000
68.435038	23.224455	11.890702	-0.020154	0.267155	2.843695	0.000000	0.007809	0.000000	-0.000024	-0.000001	0.000000	0.000000
68.768372	23.242677	11.722610	-0.034512	0.237121	2.846299	0.000000	0.007809	0.000000	-0.000025	-0.000001	0.000000	0.000000
69.101705	23.270472	11.574541	-0.048871	0.207087	2.848902	0.000000	0.007809	0.000000	-0.000025	-0.000001	0.000000	0.000000
69.436288	23.307996	11.446051	-0.063283	0.176941	2.851515	0.000000	0.007809	0.000000	-0.000025	-0.000001	0.000000	0.000000
69.733611	23.349435	11.348799	-0.137111	0.179810	2.853837	0.000000	0.015267	0.000000	-0.000025	-0.000001	0.000000	0.000000
70.282671	23.098976	11.378681	0.590571	-0.234555	2.839033	0.000000	-0.069110	0.000000	-0.000025	0.000000	0.000000	0.000000
