#ParticleID	Turn	x[m]	xp	y[m]	yp	z[m]	dE[GeV]# s	beta_x	beta_y	alpha_x	alpha_y	D_x	D_y	D_px	D_py	orbit_x	orbit_px	orbit_y	orbit_py
0.300000	11.832337	24.946379	-0.013427	-0.027770	2.618294	0.000000	-0.000058	0.000000	0.000001	0.000000	0.000000	0.000000
0.601250	11.848097	24.966751	-0.038891	-0.039855	2.618277	0.000000	-0.000058	0.000000	0.000001	0.000000	0.000000	0.000000
0.898573	11.878696	24.993997	-0.034894	-0.113075	2.618259	0.000000	-0.006479	0.000000	0.000001	0.000000	0.000000	0.000000
1.339533	12.061831	24.816510	-0.381991	0.514046	2.631696	0.000000	0.067482	0.000000	0.000001	0.000000	0.000000	0.000000
1.780493	12.557587	24.094192	-0.746540	1.117777	2.677885	0.000000	0.142211	0.000000	0.000001	0.000000	0.000000	0.000000
2.221453	13.388614	22.859910	-1.145196	1.670651	2.757352	0.000000	0.218560	0.000000	0.000001	0.000000	0.000000	0.000000
2.662413	14.592880	21.169822	-1.596173	2.147511	2.871003	0.000000	0.297398	0.000000	0.000001	0.000000	0.000000	0.000000
3.108373	16.246215	19.076036	-2.124376	2.527791	3.021991	0.000000	0.380113	0.000000	0.000001	0.000000	0.000000	0.000000
3.657433	18.366292	16.724525	-1.714051	1.780282	3.205424	0.000000	0.287076	0.000000	0.000001	0.000000	0.000000	0.000000
4.206493	19.966228	15.119837	-1.182655	1.159579	3.336299	0.000000	0.188946	0.000000	0.000002	0.000000	0.000000	0.000000
4.755553	20.933013	14.147673	-0.567721	0.621470	3.412294	0.000000	0.087465	0.000000	0.000002	0.000000	0.000000	0.000000
5.304613	21.198356	13.738788	0.087313	0.127626	3.432062	0.000000	-0.015567	0.000000	0.000002	0.000000	0.000000	0.000000
5.603185	21.183501	13.647803	0.017828	0.141209	3.430091	0.000000	-0.006600	0.000000	0.000002	0.000000	0.000000	0.000000
5.936519	21.176863	13.561968	0.002087	0.116298	3.427891	0.000000	-0.006600	0.000000	0.000002	0.000000	0.000000	0.000000
6.269852	21.180718	13.492739	-0.013653	0.091387	3.425691	0.000000	-0.006600	0.000000	0.000002	0.000000	0.000000	0.000000
6.604435	21.195141	13.439951	-0.029453	0.066383	3.423483	0.000000	-0.006600	0.000000	0.000002	0.000000	0.000000	0.000000
6.901758	21.216829	13.407083	-0.098928	0.079193	3.421521	0.000000	0.002340	0.000000	0.000002	0.000000	0.000000	0.000000
7.450818	20.963781	13.580590	0.557075	-0.397065	3.394606	0.000000	-0.100235	0.000000	0.000002	-0.000000	0.000000	0.000000
7.999878	20.007808	14.289454	1.173728	-0.901605	3.311777	0.000000	-0.201032	0.000000	0.000002	-0.000000	0.000000	0.000000
8.548938	18.416434	15.584166	1.707475	-1.470365	3.174504	0.000000	-0.298263	0.000000	0.000002	-0.000000	0.000000	0.000000
9.097998	16.302067	17.556944	2.120615	-2.143855	2.985221	0.000000	-0.390204	0.000000	0.000002	-0.000000	0.000000	0.000000
9.543958	14.652332	19.314864	1.591826	-1.781362	2.829510	0.000000	-0.308504	0.000000	0.000001	-0.000000	0.000000	0.000000
9.984918	13.452231	20.696096	1.140062	-1.339047	2.710717	0.000000	-0.230802	0.000000	0.000001	-0.000000	0.000000	0.000000
10.425878	12.626163	21.658783	0.740385	-0.835807	2.625576	0.000000	-0.155728	0.000000	0.000001	-0.000000	0.000000	0.000000
10.866838	12.136387	22.159123	0.374534	-0.294537	2.573117	0.000000	-0.082429	0.000000	0.000001	-0.000000	0.000000	0.000000
11.309048	11.960388	22.173838	0.055019	0.205697	2.552723	0.000000	-0.016327	0.000000	0.000001	0.000000	0.000000	0.000000
11.606371	11.935084	22.055677	0.030085	0.191721	2.547868	0.000000	-0.016327	0.000000	0.000001	0.000000	0.000000	0.000000
12.086371	11.925525	21.882455	-0.010169	0.169158	2.540031	0.000000	-0.016327	0.000000	0.000001	0.000000	0.000000	0.000000
12.566371	11.954609	21.730894	-0.050423	0.146595	2.532194	0.000000	-0.016327	0.000000	0.000001	0.000000	0.000000	0.000000
13.046371	12.022337	21.600993	-0.090677	0.124032	2.524357	0.000000	-0.016327	0.000000	0.000001	0.000000	0.000000	0.000000
13.526371	12.128709	21.492753	-0.130931	0.101469	2.516520	0.000000	-0.016327	0.000000	0.000001	0.000000	0.000000	0.000000
14.007621	12.274152	21.405976	-0.171290	0.078847	2.508662	0.000000	-0.016327	0.000000	0.000001	0.000000	0.000000	0.000000
14.304943	12.383422	21.363246	-0.165856	0.012482	2.503808	0.000000	-0.022467	0.000000	0.000001	-0.000000	0.000000	0.000000
14.745903	12.688442	21.118387	-0.528485	0.540691	2.509529	0.000000	0.048443	0.000000	0.000001	0.000000	0.000000	0.000000
15.186863	13.322669	20.416801	-0.915259	1.044298	2.546611	0.000000	0.119906	0.000000	0.000001	0.000000	0.000000	0.000000
15.627823	14.315080	19.290409	-1.343848	1.500390	2.615477	0.000000	0.192734	0.000000	0.000001	0.000000	0.000000	0.000000
16.068783	15.711015	17.790461	-1.833834	1.888216	2.716909	0.000000	0.267757	0.000000	0.000001	0.000000	0.000000	0.000000
16.514743	17.597905	15.963704	-2.412360	2.190879	2.853758	0.000000	0.346292	0.000000	0.000002	0.000000	0.000000	0.000000
17.063803	20.021058	13.923823	-1.974790	1.546273	3.020169	0.000000	0.258981	0.000000	0.000002	0.000000	0.000000	0.000000
17.612863	21.883800	12.527527	-1.397730	1.011805	3.137307	0.000000	0.167077	0.000000	0.000002	0.000000	0.000000	0.000000
18.161923	23.054557	11.675359	-0.721941	0.549405	3.203095	0.000000	0.072209	0.000000	0.000002	0.000000	0.000000	0.000000
18.710983	23.450631	11.306623	0.004842	0.126138	3.216365	0.000000	-0.023940	0.000000	0.000002	-0.000000	0.000000	0.000000
19.009556	23.488141	11.221735	-0.069202	0.128633	3.211727	0.000000	-0.015536	0.000000	0.000002	-0.000000	0.000000	0.000000
19.342889	23.539029	11.146045	-0.083461	0.098437	3.206548	0.000000	-0.015536	0.000000	0.000002	-0.000000	0.000000	0.000000
19.676223	23.599423	11.090486	-0.097721	0.068241	3.201369	0.000000	-0.015536	0.000000	0.000002	-0.000000	0.000000	0.000000
20.010806	23.669896	11.054825	-0.229307	0.092704	3.196191	0.000000	0.000300	0.000000	0.000002	-0.000000	0.000000	0.000000
20.308129	23.810184	11.007764	-0.304740	0.094339	3.196280	0.000000	0.008651	0.000000	0.000002	-0.000000	0.000000	0.000000
20.857189	23.734170	11.126751	0.442364	-0.312328	3.174818	0.000000	-0.086714	0.000000	0.000002	-0.000000	0.000000	0.000000
21.406249	22.850120	11.701829	1.158221	-0.741241	3.101340	0.000000	-0.180541	0.000000	0.000002	-0.000000	0.000000	0.000000
21.955309	21.220477	12.773960	1.792268	-1.222951	2.977150	0.000000	-0.271166	0.000000	0.000002	-0.000000	0.000000	0.000000
22.504369	18.960353	14.419509	2.299717	-1.791769	2.804451	0.000000	-0.356981	0.000000	0.000001	-0.000000	0.000000	0.000000
22.950329	17.179350	15.896729	1.708019	-1.506706	2.662541	0.000000	-0.279791	0.000000	0.000001	-0.000000	0.000000	0.000000
23.391289	15.902293	17.074452	1.199053	-1.153947	2.555482	0.000000	-0.206242	0.000000	0.000001	-0.000000	0.000000	0.000000
23.832249	15.048341	17.916640	0.744868	-0.748683	2.480307	0.000000	-0.135042	0.000000	0.000001	-0.000000	0.000000	0.000000
24.273209	14.578481	18.384975	0.324714	-0.309356	2.436160	0.000000	-0.065380	0.000000	0.000001	-0.000000	0.000000	0.000000
24.715418	14.471359	18.457902	-0.045204	0.098714	2.422535	0.000000	-0.002403	0.000000	0.000001	-0.000000	0.000000	0.000000
25.012741	14.504361	18.404037	-0.065792	0.082449	2.421821	0.000000	-0.002403	0.000000	0.000001	-0.000000	0.000000	0.000000
25.346075	14.555916	18.355150	-0.088873	0.064214	2.421020	0.000000	-0.002403	0.000000	0.000001	-0.000000	0.000000	0.000000
25.679408	14.622858	18.318418	-0.111954	0.045979	2.420219	0.000000	-0.002403	0.000000	0.000001	-0.000000	0.000000	0.000000
26.013991	14.705227	18.294146	-0.015823	-0.120735	2.419390	0.000000	-0.022031	0.000000	0.000001	-0.000000	0.000000	0.000000
26.311314	14.720649	18.370843	0.000052	-0.182275	2.412840	0.000000	-0.027948	0.000000	0.000001	-0.000000	0.000000	0.000000
26.752274	14.901998	18.332303	-0.412872	0.269342	2.415623	0.000000	0.040580	0.000000	0.000001	-0.000000	0.000000	0.000000
27.193234	15.454423	17.899377	-0.844659	0.708704	2.448696	0.000000	0.109570	0.000000	0.000001	-0.000000	0.000000	0.000000
27.634194	16.403163	17.091761	-1.315036	1.115821	2.512437	0.000000	0.179808	0.000000	0.000001	-0.000000	0.000000	0.000000
28.075154	17.791562	15.946202	-1.845493	1.472169	2.607572	0.000000	0.252093	0.000000	0.000001	0.000000	0.000000	0.000000
28.521114	19.707182	14.497569	-2.465219	1.762448	2.736787	0.000000	0.327693	0.000000	0.000001	0.000000	0.000000	0.000000
29.070174	22.141939	12.883332	-1.942940	1.194906	2.894054	0.000000	0.244321	0.000000	0.000001	0.000000	0.000000	0.000000
29.619234	23.923953	11.842211	-1.283420	0.712475	3.004285	0.000000	0.156615	0.000000	0.000001	-0.000000	0.000000	0.000000
30.168294	24.927351	11.300049	-0.533246	0.280791	3.065525	0.000000	0.066130	0.000000	0.000001	-0.000000	0.000000	0.000000
30.717354	25.081260	11.218229	0.254593	-0.130892	3.076688	0.000000	-0.025527	0.000000	0.000001	-0.000000	0.000000	0.000000
31.015927	24.972044	11.286916	0.176731	-0.128471	3.071467	0.000000	-0.017488	0.000000	0.000001	-0.000000	0.000000	0.000000
31.349260	24.858812	11.382570	0.162966	-0.158491	3.065638	0.000000	-0.017488	0.000000	0.000001	-0.000000	0.000000	0.000000
31.682593	24.754756	11.498238	0.149201	-0.188511	3.059808	0.000000	-0.017488	0.000000	0.000001	-0.000000	0.000000	0.000000
32.017177	24.659539	11.634465	0.135384	-0.218644	3.053957	0.000000	-0.017488	0.000000	0.000001	-0.000000	0.000000	0.000000
32.314499	24.582684	11.772442	0.058876	-0.214662	3.048758	0.000000	-0.009522	0.000000	0.000001	-0.000000	0.000000	0.000000
32.863559	24.096928	12.247533	0.820592	-0.655727	3.018655	0.000000	-0.099967	0.000000	0.000001	-0.000000	0.000000	0.000000
33.412619	22.801750	13.229619	1.524345	-1.143498	2.939307	0.000000	-0.188640	0.000000	0.000001	-0.000000	0.000000	0.000000
33.961679	20.788636	14.788649	2.120425	-1.712717	2.812121	0.000000	-0.273966	0.000000	0.000001	-0.000000	0.000000	0.000000
34.510739	18.199781	17.035672	2.566730	-2.403930	2.639353	0.000000	-0.354433	0.000000	0.000001	-0.000000	0.000000	0.000000
34.956699	16.186993	19.045471	1.962824	-2.083932	2.497627	0.000000	-0.281523	0.000000	0.000000	-0.000000	0.000000	0.000000
35.397659	14.686183	20.707068	1.453595	-1.669865	2.388864	0.000000	-0.212247	0.000000	0.000000	-0.000000	0.000000	0.000000
35.838619	13.603601	21.968466	1.010776	-1.179822	2.310088	0.000000	-0.145389	0.000000	0.000000	-0.000000	0.000000	0.000000
36.279579	12.889787	22.772272	0.614137	-0.636097	2.260401	0.000000	-0.080186	0.000000	0.000000	-0.000000	0.000000	0.000000
36.721789	12.511439	23.082215	0.276132	-0.120089	2.239210	0.000000	-0.021388	0.000000	0.000000	-0.000000	0.000000	0.000000
37.019112	12.354843	23.157510	0.250556	-0.133156	2.232850	0.000000	-0.021388	0.000000	0.000000	-0.000000	0.000000	0.000000
37.352445	12.197363	23.251164	0.221882	-0.147805	2.225721	0.000000	-0.021388	0.000000	0.000000	-0.000000	0.000000	0.000000
37.685779	12.059000	23.354584	0.193209	-0.162455	2.218592	0.000000	-0.021388	0.000000	0.000000	-0.000000	0.000000	0.000000
38.020362	11.939341	23.468213	0.164427	-0.177159	2.211436	0.000000	-0.021388	0.000000	0.000000	-0.000000	0.000000	0.000000
38.317684	11.849169	23.577444	0.167909	-0.248045	2.205076	0.000000	-0.026796	0.000000	0.000000	-0.000000	0.000000	0.000000
38.758644	11.852237	23.535070	-0.174893	0.343775	2.207185	0.000000	0.036367	0.000000	-0.000000	-0.000000	0.000000	0.000000
39.199604	12.159996	22.975689	-0.525684	0.919952	2.237210	0.000000	0.099944	0.000000	-0.000000	-0.000000	0.000000	0.000000
39.640564	12.786506	21.924751	-0.900493	1.454273	2.295494	0.000000	0.164660	0.000000	-0.000000	-0.000000	0.000000	0.000000
40.081524	13.760392	20.430075	-1.316443	1.922425	2.382702	0.000000	0.231250	0.000000	-0.000000	-0.000000	0.000000	0.000000
40.527484	15.143707	18.537098	-1.796360	2.304386	2.501297	0.000000	0.300880	0.000000	-0.000000	-0.000000	0.000000	0.000000
41.076544	16.909260	16.409975	-1.400196	1.592599	2.645973	0.000000	0.225342	0.000000	-0.000000	-0.000000	0.000000	0.000000
41.625604	18.182558	14.997975	-0.905128	0.994250	2.748015	0.000000	0.145806	0.000000	-0.000000	-0.000000	0.000000	0.000000
42.174664	18.873663	14.200523	-0.346127	0.466718	2.805611	0.000000	0.063684	0.000000	-0.000000	-0.000000	0.000000	0.000000
42.723724	18.933759	13.960819	0.237323	-0.027570	2.817741	0.000000	-0.019567	0.000000	-0.000000	-0.000000	0.000000	0.000000
43.022297	18.826458	13.961886	0.171526	-0.012481	2.814097	0.000000	-0.012205	0.000000	-0.000000	-0.000000	0.000000	0.000000
43.502297	18.674391	13.990372	0.145280	-0.046865	2.808239	0.000000	-0.012205	0.000000	-0.000001	-0.000000	0.000000	0.000000
43.982297	18.547520	14.051867	0.119034	-0.081250	2.802380	0.000000	-0.012205	0.000000	-0.000001	-0.000000	0.000000	0.000000
44.462297	18.445846	14.146371	0.092788	-0.115635	2.796522	0.000000	-0.012205	0.000000	-0.000001	-0.000000	0.000000	0.000000
44.942297	18.369367	14.273885	0.066542	-0.150019	2.790664	0.000000	-0.012205	0.000000	-0.000001	-0.000000	0.000000	0.000000
45.423547	18.318212	14.434691	-0.050531	-0.112975	2.784808	0.000000	0.001593	0.000000	-0.000001	-0.000000	0.000000	0.000000
45.720870	18.353098	14.508073	-0.114757	-0.095929	2.785282	0.000000	0.008870	0.000000	-0.000001	-0.000000	0.000000	0.000000
46.269930	18.170078	14.894100	0.446117	-0.611289	2.767585	0.000000	-0.073239	0.000000	-0.000001	-0.000000	0.000000	0.000000
46.818990	17.384888	15.866499	0.975480	-1.170191	2.705095	0.000000	-0.154049	0.000000	-0.000001	-0.000000	0.000000	0.000000
47.368050	16.052989	17.494533	1.435940	-1.812442	2.598922	0.000000	-0.232127	0.000000	-0.000001	-0.000000	0.000000	0.000000
47.917110	14.268460	19.894164	1.794973	-2.583789	2.450948	0.000000	-0.306087	0.000000	-0.000001	0.000000	0.000000	0.000000
48.363070	12.879595	22.027762	1.330387	-2.180379	2.329735	0.000000	-0.237798	0.000000	-0.000001	-0.000000	0.000000	0.000000
48.804030	11.886469	23.736109	0.930348	-1.679032	2.239334	0.000000	-0.172614	0.000000	-0.000001	-0.000000	0.000000	0.000000
49.244990	11.226139	24.966803	0.572815	-1.101290	2.177216	0.000000	-0.109396	0.000000	-0.000001	-0.000000	0.000000	0.000000
49.685950	10.868437	25.663848	0.241452	-0.473441	2.142673	0.000000	-0.047423	0.000000	-0.000001	-0.000000	0.000000	0.000000
50.128160	10.797152	25.795249	-0.052518	0.112642	2.135324	0.000000	0.008772	0.000000	-0.000001	-0.000000	0.000000	0.000000
50.425482	10.836591	25.731738	-0.080131	0.100970	2.137932	0.000000	0.008772	0.000000	-0.000001	-0.000000	0.000000	0.000000
50.758816	10.900331	25.668786	-0.111089	0.087884	2.140856	0.000000	0.008772	0.000000	-0.000001	-0.000000	0.000000	0.000000
51.092149	10.984710	25.614560	-0.142046	0.074797	2.143780	0.000000	0.008772	0.000000	-0.000001	-0.000000	0.000000	0.000000
51.426732	11.089934	25.569421	-0.083151	-0.145770	2.146693	0.000000	-0.008643	0.000000	-0.000001	-0.000000	0.000000	0.000000
51.724055	11.147406	25.659633	-0.082810	-0.220570	2.144124	0.000000	-0.013901	0.000000	-0.000001	-0.000000	0.000000	0.000000
52.165015	11.365945	25.568724	-0.414669	0.425949	2.151582	0.000000	0.047759	0.000000	-0.000001	-0.000000	0.000000	0.000000
52.605975	11.884374	24.914036	-0.765473	1.053088	2.186324	0.000000	0.109964	0.000000	-0.000001	-0.000000	0.000000	0.000000
53.046935	12.726378	23.725359	-1.151250	1.632312	2.248745	0.000000	0.173421	0.000000	-0.000001	-0.000000	0.000000	0.000000
53.487895	13.930427	22.056776	-1.589624	2.137267	2.339556	0.000000	0.238853	0.000000	-0.000001	-0.000000	0.000000	0.000000
53.933855	15.572162	19.959255	-2.104863	2.546312	2.461298	0.000000	0.307404	0.000000	-0.000001	-0.000000	0.000000	0.000000
54.482915	17.685780	17.599123	-1.721872	1.777557	2.609900	0.000000	0.233098	0.000000	-0.000001	-0.000000	0.000000	0.000000
55.031975	19.309148	16.009113	-1.217257	1.135413	2.716508	0.000000	0.154657	0.000000	-0.000002	-0.000000	0.000000	0.000000
55.581035	20.327599	15.075972	-0.626661	0.574143	2.779229	0.000000	0.073473	0.000000	-0.000002	-0.000000	0.000000	0.000000
56.130095	20.669193	14.733235	0.008199	0.053767	2.796951	0.000000	-0.009014	0.000000	-0.000002	-0.000000	0.000000	0.000000
56.428668	20.700868	14.684243	-0.060282	0.071825	2.796442	0.000000	-0.001706	0.000000	-0.000002	-0.000000	0.000000	0.000000
56.762001	20.746443	14.643966	-0.076443	0.049008	2.795873	0.000000	-0.001706	0.000000	-0.000002	-0.000000	0.000000	0.000000
57.095334	20.802792	14.618900	-0.092604	0.026190	2.795305	0.000000	-0.001706	0.000000	-0.000002	-0.000000	0.000000	0.000000
57.429918	20.870187	14.609037	-0.108825	0.003288	2.794734	0.000000	-0.001706	0.000000	-0.000002	-0.000000	0.000000	0.000000
57.727240	20.939185	14.613133	-0.177951	0.021117	2.794227	0.000000	0.005595	0.000000	-0.000002	-0.000000	0.000000	0.000000
58.276300	20.777294	14.870645	0.471056	-0.492891	2.774658	0.000000	-0.076774	0.000000	-0.000002	0.000000	0.000000	0.000000
58.825360	19.916850	15.708451	1.086790	-1.042007	2.710171	0.000000	-0.157781	0.000000	-0.000002	0.000000	0.000000	0.000000
59.374420	18.418629	17.186226	1.625759	-1.665344	2.601910	0.000000	-0.235989	0.000000	-0.000002	0.000000	0.000000	0.000000
59.923480	16.388458	19.409229	2.049892	-2.407298	2.451795	0.000000	-0.310012	0.000000	-0.000002	0.000000	0.000000	0.000000
60.369440	14.799342	21.385141	1.526086	-2.004694	2.328834	0.000000	-0.241723	0.000000	-0.000001	0.000000	0.000000	0.000000
60.810400	13.656168	22.941895	1.076217	-1.512246	2.236693	0.000000	-0.176584	0.000000	-0.000001	0.000000	0.000000	0.000000
61.251360	12.886643	24.032234	0.675517	-0.950993	2.172805	0.000000	-0.113457	0.000000	-0.000001	0.000000	0.000000	0.000000
61.692320	12.455610	24.606549	0.305679	-0.346470	2.136443	0.000000	-0.051622	0.000000	-0.000001	0.000000	0.000000	0.000000
62.134530	12.343427	24.638175	-0.020025	0.213341	2.127198	0.000000	0.004408	0.000000	-0.000001	-0.000000	0.000000	0.000000
62.431853	12.362499	24.515064	-0.044122	0.200725	2.128509	0.000000	0.004408	0.000000	-0.000001	-0.000000	0.000000	0.000000
62.765186	12.400919	24.385962	-0.071138	0.186580	2.129978	0.000000	0.004408	0.000000	-0.000001	-0.000000	0.000000	0.000000
63.098520	12.457350	24.266291	-0.098153	0.172435	2.131447	0.000000	0.004408	0.000000	-0.000001	-0.000000	0.000000	0.000000
63.433103	12.532104	24.155653	-0.125271	0.158237	2.132922	0.000000	0.004408	0.000000	-0.000001	-0.000000	0.000000	0.000000
63.730426	12.613760	24.065310	-0.118435	0.086604	2.134233	0.000000	-0.000825	0.000000	-0.000001	-0.000000	0.000000	0.000000
64.171386	12.878766	23.723884	-0.484821	0.684729	2.147412	0.000000	0.060654	0.000000	-0.000001	-0.000000	0.000000	0.000000
64.612346	13.475405	22.866735	-0.873357	1.251699	2.187826	0.000000	0.122824	0.000000	-0.000001	-0.000000	0.000000	0.000000
65.053306	14.430934	21.532863	-1.301794	1.761717	2.255938	0.000000	0.186393	0.000000	-0.000001	-0.000000	0.000000	0.000000
65.494266	15.789011	19.782958	-1.789707	2.191579	2.352521	0.000000	0.252085	0.000000	-0.000002	-0.000000	0.000000	0.000000
65.940226	17.634851	17.671867	-2.364081	2.522484	2.480250	0.000000	0.321050	0.000000	-0.000002	-0.000000	0.000000	0.000000
66.489286	20.000799	15.310123	-1.919498	1.804337	2.636155	0.000000	0.246011	0.000000	-0.000002	-0.000000	0.000000	0.000000
67.038346	21.800747	13.662214	-1.339332	1.214708	2.749598	0.000000	0.166609	0.000000	-0.000002	-0.000000	0.000000	0.000000
67.587406	22.907557	12.610761	-0.664562	0.711601	2.818569	0.000000	0.084252	0.000000	-0.000002	-0.000000	0.000000	0.000000
68.136466	23.243050	12.080873	0.057149	0.259179	2.841843	0.000000	0.000400	0.000000	-0.000002	0.000000	0.000000	0.000000
68.435038	23.249024	11.915259	-0.016428	0.263941	2.844179	0.000000	0.007826	0.000000	-0.000002	0.000000	0.000000	0.000000
68.768372	23.264756	11.749273	-0.030769	0.234016	2.846788	0.000000	0.007826	0.000000	-0.000002	0.000000	0.000000	0.000000
69.101705	23.290049	11.603237	-0.045110	0.204092	2.849396	0.000000	0.007826	0.000000	-0.000002	0.000000	0.000000	0.000000
69.436288	23.325052	11.476715	-0.059506	0.174056	2.852015	0.000000	0.007826	0.000000	-0.000002	0.000000	0.000000	0.000000
69.733611	23.364240	11.381149	-0.133345	0.177102	2.854341	0.000000	0.015284	0.000000	-0.000002	0.000000	0.000000	0.000000
70.282671	23.109411	11.414512	0.594716	-0.238225	2.839542	0.000000	-0.069110	0.000000	-0.000002	0.000000	0.000000	0.000000
