#ParticleID	Turn	x[m]	xp	y[m]	yp	z[m]	dE[GeV]# s	beta_x	beta_y	alpha_x	alpha_y	D_x	D_y	D_px	D_py	orbit_x	orbit_px	orbit_y	orbit_py
0.300000	11.832416	24.946115	-0.013438	-0.027770	2.618296	0.000000	-0.000059	0.000000	0.000001	0.000000	0.000000	0.000000
0.601250	11.848183	24.966488	-0.038902	-0.039856	2.618279	0.000000	-0.000059	0.000000	0.000001	0.000000	0.000000	0.000000
0.898573	11.878788	24.993734	-0.034904	-0.113075	2.618261	0.000000	-0.006480	0.000000	0.000001	0.000000	0.000000	0.000000
1.339533	12.061933	24.816250	-0.382004	0.514038	2.631698	0.000000	0.067481	0.000000	0.000001	0.000000	0.000000	0.000000
1.780493	12.557702	24.093942	-0.746556	1.117763	2.677886	0.000000	0.142210	0.000000	0.000001	0.000000	0.000000	0.000000
2.221453	13.388745	22.859675	-1.145216	1.670631	2.757353	0.000000	0.218559	0.000000	0.000001	0.000000	0.000000	0.000000
2.662413	14.593030	21.169606	-1.596197	2.147486	2.871003	0.000000	0.297397	0.000000	0.000001	0.000000	0.000000	0.000000
3.108373	16.246388	19.075845	-2.124406	2.527763	3.021991	0.000000	0.380112	0.000000	0.000001	0.000000	0.000000	0.000000
3.657433	18.366495	16.724362	-1.714077	1.780261	3.205424	0.000000	0.287075	0.000000	0.000001	0.000000	0.000000	0.000000
4.206493	19.966456	15.119694	-1.182674	1.159563	3.336299	0.000000	0.188946	0.000000	0.000001	0.000000	0.000000	0.000000
4.755553	20.933258	14.147545	-0.567733	0.621458	3.412293	0.000000	0.087465	0.000000	0.000002	0.000000	0.000000	0.000000
5.304613	21.198610	13.738670	0.087310	0.127619	3.432060	0.000000	-0.015567	0.000000	0.000002	0.000000	0.000000	0.000000
5.603185	21.183757	13.647690	0.017824	0.141202	3.430090	0.000000	-0.006600	0.000000	0.000002	0.000000	0.000000	0.000000
5.936519	21.177121	13.561859	0.002083	0.116291	3.427890	0.000000	-0.006600	0.000000	0.000002	0.000000	0.000000	0.000000
6.269852	21.180979	13.492636	-0.013657	0.091379	3.425690	0.000000	-0.006600	0.000000	0.000002	0.000000	0.000000	0.000000
6.604435	21.195404	13.439854	-0.029456	0.066375	3.423481	0.000000	-0.006600	0.000000	0.000002	0.000000	0.000000	0.000000
6.901758	21.217094	13.406991	-0.098932	0.079184	3.421519	0.000000	0.002339	0.000000	0.000002	0.000000	0.000000	0.000000
7.450818	20.964046	13.580506	0.557080	-0.397071	3.394604	0.000000	-0.100235	0.000000	0.000002	-0.000000	0.000000	0.000000
7.999878	20.008062	14.289375	1.173742	-0.901609	3.311775	0.000000	-0.201032	0.000000	0.000002	-0.000000	0.000000	0.000000
8.548938	18.416669	15.584090	1.707496	-1.470367	3.174501	0.000000	-0.298263	0.000000	0.000002	-0.000000	0.000000	0.000000
9.097998	16.302275	17.556871	2.120642	-2.143856	2.985218	0.000000	-0.390204	0.000000	0.000001	-0.000000	0.000000	0.000000
9.543958	14.652519	19.314792	1.591847	-1.781366	2.829507	0.000000	-0.308504	0.000000	0.000001	-0.000000	0.000000	0.000000
9.984918	13.452402	20.696028	1.140079	-1.339053	2.710714	0.000000	-0.230802	0.000000	0.000001	-0.000000	0.000000	0.000000
10.425878	12.626321	21.658721	0.740397	-0.835814	2.625573	0.000000	-0.155729	0.000000	0.000001	-0.000000	0.000000	0.000000
10.866838	12.136536	22.159069	0.374542	-0.294547	2.573114	0.000000	-0.082429	0.000000	0.000001	-0.000000	0.000000	0.000000
11.309048	11.960531	22.173793	0.055024	0.205686	2.552719	0.000000	-0.016328	0.000000	0.000001	0.000000	0.000000	0.000000
11.606371	11.935225	22.055638	0.030090	0.191710	2.547864	0.000000	-0.016328	0.000000	0.000001	0.000000	0.000000	0.000000
12.086371	11.925660	21.882427	-0.010163	0.169147	2.540027	0.000000	-0.016328	0.000000	0.000001	0.000000	0.000000	0.000000
12.566371	11.954738	21.730876	-0.050417	0.146584	2.532189	0.000000	-0.016328	0.000000	0.000001	0.000000	0.000000	0.000000
13.046371	12.022460	21.600986	-0.090670	0.124021	2.524352	0.000000	-0.016328	0.000000	0.000001	0.000000	0.000000	0.000000
13.526371	12.128825	21.492756	-0.130924	0.101458	2.516514	0.000000	-0.016328	0.000000	0.000001	0.000000	0.000000	0.000000
14.007621	12.274262	21.405989	-0.171282	0.078836	2.508656	0.000000	-0.016328	0.000000	0.000001	0.000000	0.000000	0.000000
14.304943	12.383527	21.363265	-0.165848	0.012472	2.503802	0.000000	-0.022468	0.000000	0.000001	0.000000	0.000000	0.000000
14.745903	12.688541	21.118415	-0.528479	0.540681	2.509523	0.000000	0.048442	0.000000	0.000001	0.000000	0.000000	0.000000
15.186863	13.322764	20.416837	-0.915255	1.044289	2.546605	0.000000	0.119905	0.000000	0.000001	0.000000	0.000000	0.000000
15.627823	14.315172	19.290452	-1.343846	1.500383	2.615470	0.000000	0.192733	0.000000	0.000001	0.000000	0.000000	0.000000
16.068783	15.711105	17.790510	-1.833833	1.888211	2.716902	0.000000	0.267756	0.000000	0.000001	0.000000	0.000000	0.000000
16.514743	17.597995	15.963756	-2.412361	2.190877	2.853750	0.000000	0.346290	0.000000	0.000002	0.000000	0.000000	0.000000
17.063803	20.021146	13.923879	-1.974786	1.546270	3.020160	0.000000	0.258980	0.000000	0.000002	0.000000	0.000000	0.000000
17.612863	21.883882	12.527587	-1.397723	1.011800	3.137297	0.000000	0.167076	0.000000	0.000002	0.000000	0.000000	0.000000
18.161923	23.054629	11.675426	-0.721931	0.549399	3.203085	0.000000	0.072208	0.000000	0.000002	0.000000	0.000000	0.000000
18.710983	23.450692	11.306696	0.004855	0.126130	3.216355	0.000000	-0.023940	0.000000	0.000002	-0.000000	0.000000	0.000000
19.009556	23.488194	11.221813	-0.069189	0.128625	3.211716	0.000000	-0.015536	0.000000	0.000002	-0.000000	0.000000	0.000000
19.342889	23.539074	11.146128	-0.083449	0.098430	3.206538	0.000000	-0.015536	0.000000	0.000002	-0.000000	0.000000	0.000000
19.676223	23.599459	11.090573	-0.097708	0.068234	3.201359	0.000000	-0.015536	0.000000	0.000002	-0.000000	0.000000	0.000000
20.010806	23.669924	11.054917	-0.229295	0.092699	3.196180	0.000000	0.000299	0.000000	0.000002	-0.000000	0.000000	0.000000
20.308129	23.810204	11.007859	-0.304727	0.094333	3.196269	0.000000	0.008650	0.000000	0.000002	-0.000000	0.000000	0.000000
20.857189	23.734177	11.126853	0.442377	-0.312336	3.174807	0.000000	-0.086714	0.000000	0.000002	-0.000000	0.000000	0.000000
21.406249	22.850112	11.701942	1.158234	-0.741253	3.101329	0.000000	-0.180541	0.000000	0.000002	-0.000000	0.000000	0.000000
21.955309	21.220457	12.774088	1.792279	-1.222967	2.977140	0.000000	-0.271166	0.000000	0.000002	-0.000000	0.000000	0.000000
22.504369	18.960321	14.419657	2.299726	-1.791791	2.804441	0.000000	-0.356980	0.000000	0.000001	-0.000000	0.000000	0.000000
22.950329	17.179311	15.896895	1.708028	-1.506724	2.662531	0.000000	-0.279790	0.000000	0.000001	-0.000000	0.000000	0.000000
23.391289	15.902246	17.074632	1.199062	-1.153960	2.555473	0.000000	-0.206241	0.000000	0.000001	-0.000000	0.000000	0.000000
23.832249	15.048286	17.916830	0.744877	-0.748692	2.480298	0.000000	-0.135042	0.000000	0.000001	-0.000000	0.000000	0.000000
24.273209	14.578417	18.385171	0.324724	-0.309360	2.436151	0.000000	-0.065380	0.000000	0.000001	-0.000000	0.000000	0.000000
24.715418	14.471285	18.458098	-0.045192	0.098716	2.422526	0.000000	-0.002403	0.000000	0.000001	-0.000000	0.000000	0.000000
25.012741	14.504280	18.404233	-0.065780	0.082451	2.421812	0.000000	-0.002403	0.000000	0.000001	-0.000000	0.000000	0.000000
25.346075	14.555827	18.355345	-0.088861	0.064216	2.421011	0.000000	-0.002403	0.000000	0.000001	-0.000000	0.000000	0.000000
25.679408	14.622761	18.318612	-0.111942	0.045981	2.420209	0.000000	-0.002403	0.000000	0.000001	-0.000000	0.000000	0.000000
26.013991	14.705122	18.294339	-0.015813	-0.120735	2.419381	0.000000	-0.022031	0.000000	0.000001	-0.000000	0.000000	0.000000
26.311314	14.720538	18.371036	0.000062	-0.182275	2.412830	0.000000	-0.027948	0.000000	0.000001	-0.000000	0.000000	0.000000
26.752274	14.901877	18.332494	-0.412859	0.269347	2.415613	0.000000	0.040580	0.000000	0.000001	-0.000000	0.000000	0.000000
27.193234	15.454289	17.899560	-0.844642	0.708714	2.448686	0.000000	0.109569	0.000000	0.000001	-0.000000	0.000000	0.000000
27.634194	16.403012	17.091933	-1.315015	1.115836	2.512427	0.000000	0.179807	0.000000	0.000001	0.000000	0.000000	0.000000
28.075154	17.791391	15.946360	-1.845466	1.472187	2.607562	0.000000	0.252092	0.000000	0.000001	0.000000	0.000000	0.000000
28.521114	19.706984	14.497709	-2.465187	1.762470	2.736776	0.000000	0.327692	0.000000	0.000001	0.000000	0.000000	0.000000
29.070174	22.141708	12.883452	-1.942912	1.194922	2.894042	0.000000	0.244320	0.000000	0.000001	0.000000	0.000000	0.000000
29.619234	23.923695	11.842315	-1.283400	0.712487	3.004272	0.000000	0.156614	0.000000	0.000001	-0.000000	0.000000	0.000000
30.168294	24.927076	11.300141	-0.533234	0.280800	3.065512	0.000000	0.066130	0.000000	0.000001	-0.000000	0.000000	0.000000
30.717354	25.080976	11.218312	0.254596	-0.130886	3.076676	0.000000	-0.025527	0.000000	0.000001	-0.000000	0.000000	0.000000
31.015927	24.971758	11.286995	0.176735	-0.128464	3.071454	0.000000	-0.017488	0.000000	0.000001	-0.000000	0.000000	0.000000
31.349260	24.858523	11.382645	0.162969	-0.158484	3.065625	0.000000	-0.017488	0.000000	0.000001	-0.000000	0.000000	0.000000
31.682593	24.754465	11.498307	0.149204	-0.188504	3.059796	0.000000	-0.017488	0.000000	0.000001	-0.000000	0.000000	0.000000
32.017177	24.659246	11.634529	0.135387	-0.218636	3.053945	0.000000	-0.017488	0.000000	0.000001	-0.000000	0.000000	0.000000
32.314499	24.582389	11.772502	0.058880	-0.214654	3.048745	0.000000	-0.009522	0.000000	0.000001	-0.000000	0.000000	0.000000
32.863559	24.096634	12.247585	0.820586	-0.655720	3.018643	0.000000	-0.099967	0.000000	0.000001	-0.000000	0.000000	0.000000
33.412619	22.801468	13.229663	1.524329	-1.143491	2.939295	0.000000	-0.188639	0.000000	0.000001	-0.000000	0.000000	0.000000
33.961679	20.788376	14.788687	2.120402	-1.712711	2.812110	0.000000	-0.273965	0.000000	0.000001	-0.000000	0.000000	0.000000
34.510739	18.199551	17.035702	2.566700	-2.403924	2.639342	0.000000	-0.354431	0.000000	0.000001	-0.000000	0.000000	0.000000
34.956699	16.186787	19.045495	1.962800	-2.083924	2.497617	0.000000	-0.281521	0.000000	0.000001	-0.000000	0.000000	0.000000
35.397659	14.685995	20.707085	1.453577	-1.669856	2.388855	0.000000	-0.212246	0.000000	0.000000	-0.000000	0.000000	0.000000
35.838619	13.603427	21.968474	1.010763	-1.179812	2.310079	0.000000	-0.145388	0.000000	0.000000	-0.000000	0.000000	0.000000
36.279579	12.889622	22.772271	0.614128	-0.636086	2.260392	0.000000	-0.080186	0.000000	0.000000	-0.000000	0.000000	0.000000
36.721789	12.511280	23.082204	0.276127	-0.120078	2.239201	0.000000	-0.021388	0.000000	0.000000	-0.000000	0.000000	0.000000
37.019112	12.354687	23.157493	0.250550	-0.133145	2.232842	0.000000	-0.021388	0.000000	0.000000	-0.000000	0.000000	0.000000
37.352445	12.197212	23.251140	0.221876	-0.147794	2.225713	0.000000	-0.021388	0.000000	0.000000	-0.000000	0.000000	0.000000
37.685779	12.058852	23.354552	0.193202	-0.162444	2.218584	0.000000	-0.021388	0.000000	0.000000	-0.000000	0.000000	0.000000
38.020362	11.939198	23.468174	0.164421	-0.177148	2.211428	0.000000	-0.021388	0.000000	0.000000	-0.000000	0.000000	0.000000
38.317684	11.849030	23.577400	0.167902	-0.248034	2.205069	0.000000	-0.026795	0.000000	0.000000	-0.000000	0.000000	0.000000
38.758644	11.852103	23.535016	-0.174897	0.343784	2.207177	0.000000	0.036367	0.000000	0.000000	-0.000000	0.000000	0.000000
39.199604	12.159864	22.975627	-0.525685	0.919960	2.237203	0.000000	0.099944	0.000000	0.000000	-0.000000	0.000000	0.000000
39.640564	12.786374	21.924683	-0.900491	1.454278	2.295487	0.000000	0.164659	0.000000	-0.000000	-0.000000	0.000000	0.000000
40.081524	13.760257	20.430003	-1.316438	1.922428	2.382694	0.000000	0.231250	0.000000	-0.000000	-0.000000	0.000000	0.000000
40.527484	15.143567	18.537025	-1.796352	2.304387	2.501289	0.000000	0.300879	0.000000	-0.000000	-0.000000	0.000000	0.000000
41.076544	16.909114	16.409900	-1.400193	1.592602	2.645965	0.000000	0.225341	0.000000	-0.000000	-0.000000	0.000000	0.000000
41.625604	18.182412	14.997896	-0.905131	0.994254	2.748007	0.000000	0.145806	0.000000	-0.000000	-0.000000	0.000000	0.000000
42.174664	18.873523	14.200438	-0.346135	0.466725	2.805603	0.000000	0.063685	0.000000	-0.000000	-0.000000	0.000000	0.000000
42.723724	18.933630	13.960726	0.237310	-0.027561	2.817733	0.000000	-0.019566	0.000000	-0.000000	-0.000000	0.000000	0.000000
43.022297	18.826337	13.961788	0.171514	-0.012472	2.814089	0.000000	-0.012204	0.000000	-0.000000	-0.000000	0.000000	0.000000
43.502297	18.674281	13.990266	0.145268	-0.046857	2.808231	0.000000	-0.012204	0.000000	-0.000000	-0.000000	0.000000	0.000000
43.982297	18.547422	14.051754	0.119022	-0.081242	2.802373	0.000000	-0.012204	0.000000	-0.000000	-0.000000	0.000000	0.000000
44.462297	18.445759	14.146251	0.092776	-0.115627	2.796515	0.000000	-0.012204	0.000000	-0.000000	-0.000000	0.000000	0.000000
44.942297	18.369293	14.273758	0.066529	-0.150012	2.790657	0.000000	-0.012204	0.000000	-0.000001	-0.000000	0.000000	0.000000
45.423547	18.318149	14.434557	-0.050543	-0.112969	2.784801	0.000000	0.001593	0.000000	-0.000001	-0.000000	0.000000	0.000000
45.720870	18.353043	14.507936	-0.114769	-0.095923	2.785275	0.000000	0.008871	0.000000	-0.000001	-0.000000	0.000000	0.000000
46.269930	18.170037	14.893953	0.446104	-0.611279	2.767578	0.000000	-0.073238	0.000000	-0.000001	-0.000000	0.000000	0.000000
46.818990	17.384862	15.866339	0.975466	-1.170175	2.705090	0.000000	-0.154048	0.000000	-0.000001	-0.000000	0.000000	0.000000
47.368050	16.052978	17.494353	1.435927	-1.812420	2.598917	0.000000	-0.232126	0.000000	-0.000001	-0.000000	0.000000	0.000000
47.917110	14.268464	19.893956	1.794961	-2.583760	2.450944	0.000000	-0.306086	0.000000	-0.000001	-0.000000	0.000000	0.000000
48.363070	12.879609	22.027530	1.330375	-2.180354	2.329731	0.000000	-0.237797	0.000000	-0.000001	-0.000000	0.000000	0.000000
48.804030	11.886493	23.735857	0.930338	-1.679013	2.239330	0.000000	-0.172613	0.000000	-0.000001	-0.000000	0.000000	0.000000
49.244990	11.226172	24.966537	0.572804	-1.101278	2.177212	0.000000	-0.109395	0.000000	-0.000001	-0.000000	0.000000	0.000000
49.685950	10.868480	25.663575	0.241441	-0.473435	2.142670	0.000000	-0.047423	0.000000	-0.000001	-0.000000	0.000000	0.000000
50.128160	10.797205	25.794974	-0.052530	0.112641	2.135321	0.000000	0.008773	0.000000	-0.000001	-0.000000	0.000000	0.000000
50.425482	10.836652	25.731463	-0.080143	0.100969	2.137930	0.000000	0.008773	0.000000	-0.000001	-0.000000	0.000000	0.000000
50.758816	10.900400	25.668513	-0.111101	0.087882	2.140854	0.000000	0.008773	0.000000	-0.000001	-0.000000	0.000000	0.000000
51.092149	10.984786	25.614287	-0.142058	0.074796	2.143778	0.000000	0.008773	0.000000	-0.000001	-0.000000	0.000000	0.000000
51.426732	11.090018	25.569149	-0.083162	-0.145769	2.146692	0.000000	-0.008642	0.000000	-0.000001	-0.000000	0.000000	0.000000
51.724055	11.147496	25.659361	-0.082820	-0.220569	2.144122	0.000000	-0.013900	0.000000	-0.000001	-0.000000	0.000000	0.000000
52.165015	11.366046	25.568453	-0.414682	0.425943	2.151581	0.000000	0.047760	0.000000	-0.000001	-0.000000	0.000000	0.000000
52.605975	11.884487	24.913774	-0.765489	1.053075	2.186323	0.000000	0.109964	0.000000	-0.000001	-0.000000	0.000000	0.000000
53.046935	12.726507	23.725112	-1.151270	1.632293	2.248744	0.000000	0.173421	0.000000	-0.000001	-0.000000	0.000000	0.000000
53.487895	13.930574	22.056548	-1.589648	2.137243	2.339556	0.000000	0.238853	0.000000	-0.000001	-0.000000	0.000000	0.000000
53.933855	15.572333	19.959051	-2.104893	2.546283	2.461298	0.000000	0.307405	0.000000	-0.000001	-0.000000	0.000000	0.000000
54.482915	17.685982	17.598946	-1.721898	1.777536	2.609901	0.000000	0.233098	0.000000	-0.000001	-0.000000	0.000000	0.000000
55.031975	19.309375	16.008956	-1.217276	1.135398	2.716509	0.000000	0.154658	0.000000	-0.000001	-0.000000	0.000000	0.000000
55.581035	20.327843	15.075830	-0.626673	0.574132	2.779230	0.000000	0.073474	0.000000	-0.000002	-0.000000	0.000000	0.000000
56.130095	20.669446	14.733102	0.008196	0.053761	2.796953	0.000000	-0.009013	0.000000	-0.000002	-0.000000	0.000000	0.000000
56.428668	20.701123	14.684114	-0.060286	0.071818	2.796444	0.000000	-0.001705	0.000000	-0.000002	-0.000000	0.000000	0.000000
56.762001	20.746701	14.643841	-0.076447	0.049001	2.795875	0.000000	-0.001705	0.000000	-0.000002	-0.000000	0.000000	0.000000
57.095334	20.803052	14.618779	-0.092607	0.026183	2.795307	0.000000	-0.001705	0.000000	-0.000002	-0.000000	0.000000	0.000000
57.429918	20.870449	14.608921	-0.108829	0.003281	2.794736	0.000000	-0.001705	0.000000	-0.000002	-0.000000	0.000000	0.000000
57.727240	20.939449	14.613022	-0.177955	0.021110	2.794230	0.000000	0.005596	0.000000	-0.000002	-0.000000	0.000000	0.000000
58.276300	20.777558	14.870540	0.471061	-0.492896	2.774660	0.000000	-0.076773	0.000000	-0.000002	0.000000	0.000000	0.000000
58.825360	19.917104	15.708350	1.086804	-1.042009	2.710174	0.000000	-0.157780	0.000000	-0.000002	0.000000	0.000000	0.000000
59.374420	18.418864	17.186125	1.625780	-1.665343	2.601913	0.000000	-0.235989	0.000000	-0.000002	0.000000	0.000000	0.000000
59.923480	16.388666	19.409126	2.049919	-2.407295	2.451798	0.000000	-0.310012	0.000000	-0.000002	0.000000	0.000000	0.000000
60.369440	14.799529	21.385036	1.526107	-2.004693	2.328837	0.000000	-0.241723	0.000000	-0.000001	0.000000	0.000000	0.000000
60.810400	13.656338	22.941791	1.076233	-1.512249	2.236696	0.000000	-0.176584	0.000000	-0.000001	0.000000	0.000000	0.000000
61.251360	12.886801	24.032134	0.675528	-0.950999	2.172809	0.000000	-0.113457	0.000000	-0.000001	0.000000	0.000000	0.000000
61.692320	12.455760	24.606455	0.305687	-0.346479	2.136447	0.000000	-0.051622	0.000000	-0.000001	0.000000	0.000000	0.000000
62.134530	12.343571	24.638090	-0.020020	0.213331	2.127202	0.000000	0.004409	0.000000	-0.000001	-0.000000	0.000000	0.000000
62.431853	12.362640	24.514985	-0.044117	0.200714	2.128513	0.000000	0.004409	0.000000	-0.000001	-0.000000	0.000000	0.000000
62.765186	12.401057	24.385891	-0.071132	0.186569	2.129983	0.000000	0.004409	0.000000	-0.000001	-0.000000	0.000000	0.000000
63.098520	12.457483	24.266227	-0.098148	0.172424	2.131452	0.000000	0.004409	0.000000	-0.000001	-0.000000	0.000000	0.000000
63.433103	12.532233	24.155597	-0.125264	0.158226	2.132927	0.000000	0.004409	0.000000	-0.000001	-0.000000	0.000000	0.000000
63.730426	12.613885	24.065260	-0.118428	0.086593	2.134238	0.000000	-0.000825	0.000000	-0.000001	-0.000000	0.000000	0.000000
64.171386	12.878887	23.723843	-0.484817	0.684717	2.147417	0.000000	0.060655	0.000000	-0.000001	-0.000000	0.000000	0.000000
64.612346	13.475523	22.866705	-0.873355	1.251687	2.187832	0.000000	0.122825	0.000000	-0.000001	-0.000000	0.000000	0.000000
65.053306	14.431053	21.532844	-1.301795	1.761705	2.255944	0.000000	0.186394	0.000000	-0.000001	-0.000000	0.000000	0.000000
65.494266	15.789131	19.782950	-1.789711	2.191568	2.352528	0.000000	0.252086	0.000000	-0.000002	-0.000000	0.000000	0.000000
65.940226	17.634976	17.671868	-2.364087	2.522474	2.480258	0.000000	0.321051	0.000000	-0.000002	-0.000000	0.000000	0.000000
66.489286	20.000927	15.310135	-1.919500	1.804328	2.636163	0.000000	0.246012	0.000000	-0.000002	-0.000000	0.000000	0.000000
67.038346	21.800874	13.662235	-1.339329	1.214700	2.749607	0.000000	0.166610	0.000000	-0.000002	-0.000000	0.000000	0.000000
67.587406	22.907678	12.610792	-0.664554	0.711592	2.818578	0.000000	0.084253	0.000000	-0.000002	-0.000000	0.000000	0.000000
68.136466	23.243159	12.080913	0.057161	0.259170	2.841852	0.000000	0.000401	0.000000	-0.000002	0.000000	0.000000	0.000000
68.435038	23.249127	11.915305	-0.016416	0.263932	2.844189	0.000000	0.007826	0.000000	-0.000002	0.000000	0.000000	0.000000
68.768372	23.264851	11.749325	-0.030757	0.234008	2.846797	0.000000	0.007826	0.000000	-0.000002	0.000000	0.000000	0.000000
69.101705	23.290136	11.603294	-0.045098	0.204084	2.849406	0.000000	0.007826	0.000000	-0.000002	0.000000	0.000000	0.000000
69.436288	23.325131	11.476778	-0.059494	0.174048	2.852024	0.000000	0.007826	0.000000	-0.000002	0.000000	0.000000	0.000000
69.733611	23.364312	11.381217	-0.133333	0.177094	2.854351	0.000000	0.015284	0.000000	-0.000002	0.000000	0.000000	0.000000
70.282671	23.109468	11.414590	0.594730	-0.238234	2.839553	0.000000	-0.069110	0.000000	-0.000002	0.000000	0.000000	0.000000
