#ParticleID	Turn	x[m]	xp	y[m]	yp	z[m]	dE[GeV]# s	beta_x	beta_y	alpha_x	alpha_y	D_x	D_y	D_px	D_py	orbit_x	orbit_px	orbit_y	orbit_py
0.300000	11.819117	24.997029	-0.011630	-0.027490	2.618056	0.000000	0.000035	0.000000	0.000000	0.000001	0.000000	0.000000
0.601250	11.833803	25.017225	-0.037122	-0.039550	2.618066	0.000000	0.000035	0.000000	0.000000	0.000001	0.000000	0.000000
0.898573	11.863358	25.044283	-0.033189	-0.112869	2.618076	0.000000	-0.006386	0.000000	0.000001	0.000001	0.000000	0.000000
1.339533	12.044822	24.866027	-0.379892	0.515575	2.631553	0.000000	0.067571	0.000000	0.000001	0.000001	0.000000	0.000000
1.780493	12.538520	24.141800	-0.743952	1.120561	2.677781	0.000000	0.142297	0.000000	0.000001	0.000001	0.000000	0.000000
2.221453	13.367007	22.904554	-1.142001	1.674563	2.757285	0.000000	0.218643	0.000000	0.000002	0.000001	0.000000	0.000000
2.662413	14.568134	21.210583	-1.592224	2.152373	2.870971	0.000000	0.297480	0.000000	0.000002	0.000001	0.000000	0.000000
3.108373	16.217540	19.112116	-2.119484	2.533383	3.021996	0.000000	0.380195	0.000000	0.000002	0.000001	0.000000	0.000000
3.657433	18.332612	16.755262	-1.709880	1.784480	3.205474	0.000000	0.287157	0.000000	0.000003	0.000001	0.000000	0.000000
4.206493	19.928502	15.146590	-1.179499	1.162681	3.336392	0.000000	0.189025	0.000000	0.000003	0.000001	0.000000	0.000000
4.755553	20.892484	14.171516	-0.565803	0.623697	3.412430	0.000000	0.087540	0.000000	0.000003	0.000001	0.000000	0.000000
5.304613	21.156467	13.760590	0.087858	0.129138	3.432237	0.000000	-0.015497	0.000000	0.000004	0.000000	0.000000	0.000000
5.603185	21.141230	13.668661	0.018454	0.142802	3.430287	0.000000	-0.006529	0.000000	0.000004	0.000000	0.000000	0.000000
5.936519	21.134185	13.581754	0.002682	0.117918	3.428110	0.000000	-0.006529	0.000000	0.000004	0.000000	0.000000	0.000000
6.269852	21.137654	13.511437	-0.013091	0.093034	3.425934	0.000000	-0.006529	0.000000	0.000004	0.000000	0.000000	0.000000
6.604435	21.151711	13.457539	-0.028922	0.068057	3.423749	0.000000	-0.006529	0.000000	0.000004	0.000000	0.000000	0.000000
6.901758	21.173093	13.423668	-0.098310	0.080933	3.421808	0.000000	0.002411	0.000000	0.000005	0.000000	0.000000	0.000000
7.450818	20.920174	13.595515	0.556222	-0.395764	3.394929	0.000000	-0.100174	0.000000	0.000005	0.000000	0.000000	0.000000
7.999878	19.965921	14.303147	1.171465	-0.900651	3.312131	0.000000	-0.200982	0.000000	0.000005	0.000000	0.000000	0.000000
8.548938	18.377738	15.596969	1.703962	-1.469689	3.174881	0.000000	-0.298225	0.000000	0.000005	0.000000	0.000000	0.000000
9.097998	16.267804	17.569135	2.116100	-2.143409	2.985615	0.000000	-0.390178	0.000000	0.000005	-0.000000	0.000000	0.000000
9.543958	14.621638	19.326454	1.588312	-1.780465	2.829919	0.000000	-0.308468	0.000000	0.000005	-0.000000	0.000000	0.000000
9.984918	13.424259	20.706711	1.137381	-1.337744	2.711144	0.000000	-0.230755	0.000000	0.000005	0.000000	0.000000	0.000000
10.425878	12.600235	21.668091	0.738413	-0.834156	2.626026	0.000000	-0.155670	0.000000	0.000005	0.000000	0.000000	0.000000
10.866838	12.111919	22.166850	0.373181	-0.292615	2.573595	0.000000	-0.082358	0.000000	0.000005	0.000000	0.000000	0.000000
11.309048	11.936865	22.179775	0.054166	0.207792	2.553234	0.000000	-0.016245	0.000000	0.000005	0.000000	0.000000	0.000000
11.606371	11.912083	22.060370	0.029185	0.193808	2.548404	0.000000	-0.016245	0.000000	0.000005	0.000000	0.000000	0.000000
12.086371	11.903423	21.885152	-0.011145	0.171232	2.540606	0.000000	-0.016245	0.000000	0.000006	0.000000	0.000000	0.000000
12.566371	11.933481	21.731605	-0.051474	0.148656	2.532808	0.000000	-0.016245	0.000000	0.000006	0.000000	0.000000	0.000000
13.046371	12.002254	21.599732	-0.091804	0.126080	2.525010	0.000000	-0.016245	0.000000	0.000006	0.000000	0.000000	0.000000
13.526371	12.109744	21.489531	-0.132133	0.103505	2.517212	0.000000	-0.016245	0.000000	0.000006	0.000000	0.000000	0.000000
14.007621	12.256381	21.400801	-0.172568	0.080870	2.509393	0.000000	-0.016245	0.000000	0.000007	0.000000	0.000000	0.000000
14.304943	12.366425	21.356870	-0.167225	0.014516	2.504563	0.000000	-0.022387	0.000000	0.000007	0.000000	0.000000	0.000000
14.745903	12.672496	21.110306	-0.529510	0.542507	2.510324	0.000000	0.048544	0.000000	0.000007	0.000001	0.000000	0.000000
15.186863	13.307493	20.407245	-0.915987	1.045814	2.547455	0.000000	0.120027	0.000000	0.000007	0.000001	0.000000	0.000000
15.627823	14.300428	19.279673	-1.344312	1.501538	2.616379	0.000000	0.192878	0.000000	0.000008	0.000001	0.000000	0.000000
16.068783	15.696665	17.778896	-1.834056	1.888942	2.717879	0.000000	0.267925	0.000000	0.000008	0.000001	0.000000	0.000000
16.514743	17.583649	15.951693	-2.412350	2.191148	2.854809	0.000000	0.346486	0.000000	0.000009	0.000001	0.000000	0.000000
17.063803	20.007136	13.911406	-1.975404	1.546750	3.021316	0.000000	0.259140	0.000000	0.000010	0.000001	0.000000	0.000000
17.612863	21.870878	12.514456	-1.398925	1.012524	3.138530	0.000000	0.167197	0.000000	0.000010	0.000001	0.000000	0.000000
18.161923	23.043231	11.661343	-0.723634	0.550418	3.204373	0.000000	0.072289	0.000000	0.000011	0.000001	0.000000	0.000000
18.710983	23.441384	11.291301	0.002772	0.127516	3.217676	0.000000	-0.023902	0.000000	0.000011	0.000000	0.000000	0.000000
19.009556	23.480115	11.205630	-0.071251	0.129921	3.213049	0.000000	-0.015495	0.000000	0.000011	0.000000	0.000000	0.000000
19.342889	23.532372	11.129098	-0.085519	0.099672	3.207884	0.000000	-0.015495	0.000000	0.000011	0.000000	0.000000	0.000000
19.676223	23.594141	11.072733	-0.099788	0.069423	3.202719	0.000000	-0.015495	0.000000	0.000011	0.000000	0.000000	0.000000
20.010806	23.666001	11.036300	-0.231364	0.093741	3.197554	0.000000	0.000347	0.000000	0.000011	0.000000	0.000000	0.000000
20.308129	23.807516	10.988638	-0.306799	0.095273	3.197657	0.000000	0.008701	0.000000	0.000011	0.000000	0.000000	0.000000
20.857189	23.733801	11.106300	0.440261	-0.310835	3.176210	0.000000	-0.086709	0.000000	0.000011	-0.000000	0.000000	0.000000
21.406249	22.852016	11.679384	1.156223	-0.739082	3.102723	0.000000	-0.180581	0.000000	0.000011	-0.000000	0.000000	0.000000
21.955309	21.224445	12.748710	1.790515	-1.219972	2.978499	0.000000	-0.271250	0.000000	0.000011	-0.000001	0.000000	0.000000
22.504369	18.966052	14.390444	2.298334	-1.787758	2.805743	0.000000	-0.357108	0.000000	0.000010	-0.000001	0.000000	0.000000
22.950329	17.186272	15.864369	1.706650	-1.503359	2.663784	0.000000	-0.279885	0.000000	0.000010	-0.000001	0.000000	0.000000
23.391289	15.910439	17.039489	1.197634	-1.151413	2.556691	0.000000	-0.206304	0.000000	0.000009	-0.000001	0.000000	0.000000
23.832249	15.057784	17.879845	0.743334	-0.747078	2.481496	0.000000	-0.135073	0.000000	0.000009	-0.000000	0.000000	0.000000
24.273209	14.589352	18.347203	0.322996	-0.308752	2.437342	0.000000	-0.065380	0.000000	0.000009	-0.000000	0.000000	0.000000
24.715418	14.483859	18.420051	-0.047157	0.098385	2.423724	0.000000	-0.002376	0.000000	0.000009	0.000000	0.000000	0.000000
25.012741	14.518018	18.366392	-0.067731	0.082088	2.423017	0.000000	-0.002376	0.000000	0.000009	0.000000	0.000000	0.000000
25.346075	14.570860	18.317758	-0.090796	0.063816	2.422225	0.000000	-0.002376	0.000000	0.000009	0.000000	0.000000	0.000000
25.679408	14.639079	18.281304	-0.113861	0.045545	2.421433	0.000000	-0.002376	0.000000	0.000009	0.000000	0.000000	0.000000
26.013991	14.722718	18.257334	-0.017573	-0.120908	2.420614	0.000000	-0.022013	0.000000	0.000009	-0.000000	0.000000	0.000000
26.311314	14.739174	18.334143	-0.001632	-0.182388	2.414069	0.000000	-0.027933	0.000000	0.000009	-0.000000	0.000000	0.000000
26.752274	14.922215	18.296142	-0.415038	0.268239	2.416865	0.000000	0.040627	0.000000	0.000009	0.000000	0.000000	0.000000
27.193234	15.476798	17.864608	-0.847406	0.706660	2.449966	0.000000	0.109649	0.000000	0.000009	0.000000	0.000000	0.000000
27.634194	16.428263	17.059177	-1.318490	1.112929	2.513750	0.000000	0.179920	0.000000	0.000009	0.000001	0.000000	0.000000
28.075154	17.820077	15.916494	-1.849812	1.468561	2.608941	0.000000	0.252240	0.000000	0.000010	0.000001	0.000000	0.000000
28.521114	19.740012	14.471340	-2.470610	1.758287	2.738230	0.000000	0.327877	0.000000	0.000010	0.000001	0.000000	0.000000
29.070174	22.180264	12.861108	-1.947497	1.191730	2.895583	0.000000	0.244456	0.000000	0.000011	0.000001	0.000000	0.000000
29.619234	23.966675	11.823041	-1.286823	0.710057	3.005875	0.000000	0.156699	0.000000	0.000011	0.000000	0.000000	0.000000
30.168294	24.973062	11.283198	-0.535254	0.278959	3.067147	0.000000	0.066163	0.000000	0.000011	0.000000	0.000000	0.000000
30.717354	25.128339	11.203128	0.254123	-0.132268	3.078314	0.000000	-0.025546	0.000000	0.000011	-0.000000	0.000000	0.000000
31.015927	25.019467	11.272676	0.176169	-0.129933	3.073088	0.000000	-0.017504	0.000000	0.000011	-0.000000	0.000000	0.000000
31.349260	24.906599	11.369321	0.162433	-0.160002	3.067253	0.000000	-0.017504	0.000000	0.000011	-0.000000	0.000000	0.000000
31.682593	24.802889	11.486012	0.148697	-0.190071	3.061419	0.000000	-0.017504	0.000000	0.000011	-0.000000	0.000000	0.000000
32.017177	24.708000	11.623300	0.134909	-0.220253	3.055562	0.000000	-0.017504	0.000000	0.000011	-0.000000	0.000000	0.000000
32.314499	24.631420	11.762247	0.058305	-0.216344	3.050358	0.000000	-0.009535	0.000000	0.000011	-0.000000	0.000000	0.000000
32.863559	24.145398	12.239068	0.821644	-0.657214	3.020234	0.000000	-0.100032	0.000000	0.000011	-0.000001	0.000000	0.000000
33.412619	22.848202	13.222728	1.526946	-1.144895	2.940837	0.000000	-0.188754	0.000000	0.000010	-0.000001	0.000000	0.000000
33.961679	20.831458	14.783289	2.124393	-1.714124	2.813575	0.000000	-0.274129	0.000000	0.000010	-0.000001	0.000000	0.000000
34.510739	18.237621	17.031908	2.571783	-2.405447	2.640705	0.000000	-0.354641	0.000000	0.000009	-0.000002	0.000000	0.000000
34.956699	16.220841	19.043196	1.966753	-2.085739	2.498895	0.000000	-0.281697	0.000000	0.000008	-0.000001	0.000000	0.000000
35.397659	14.716990	20.706485	1.456588	-1.671878	2.390063	0.000000	-0.212390	0.000000	0.000008	-0.000001	0.000000	0.000000
35.838619	13.632128	21.969715	1.012971	-1.181948	2.311231	0.000000	-0.145501	0.000000	0.000007	-0.000001	0.000000	0.000000
36.279579	12.916693	22.775411	0.615634	-0.638240	2.261500	0.000000	-0.080270	0.000000	0.000007	-0.000001	0.000000	0.000000
36.721789	12.537304	23.087220	0.277060	-0.122160	2.240279	0.000000	-0.021446	0.000000	0.000007	-0.000001	0.000000	0.000000
37.019112	12.380144	23.163749	0.251525	-0.135231	2.233902	0.000000	-0.021446	0.000000	0.000007	-0.000001	0.000000	0.000000
37.352445	12.222003	23.258787	0.222897	-0.149884	2.226754	0.000000	-0.021446	0.000000	0.000007	-0.000001	0.000000	0.000000
37.685779	12.082948	23.363594	0.194269	-0.164537	2.219605	0.000000	-0.021446	0.000000	0.000006	-0.000001	0.000000	0.000000
38.020362	11.962564	23.478618	0.165533	-0.179246	2.212430	0.000000	-0.021446	0.000000	0.000006	-0.000001	0.000000	0.000000
38.317684	11.871723	23.589092	0.169109	-0.250161	2.206054	0.000000	-0.026856	0.000000	0.000006	-0.000001	0.000000	0.000000
38.758644	11.873957	23.548441	-0.174194	0.341996	2.208141	0.000000	0.036332	0.000000	0.000006	-0.000000	0.000000	0.000000
39.199604	12.181307	22.990449	-0.525454	0.918592	2.238157	0.000000	0.099934	0.000000	0.000006	-0.000000	0.000000	0.000000
39.640564	12.807817	21.940502	-0.900722	1.453393	2.296442	0.000000	0.164673	0.000000	0.000006	-0.000000	0.000000	0.000000
40.081524	13.782109	20.446374	-1.317140	1.922066	2.383661	0.000000	0.231289	0.000000	0.000006	0.000000	0.000000	0.000000
40.527484	15.166270	18.553476	-1.797562	2.304568	2.502278	0.000000	0.300944	0.000000	0.000006	0.000000	0.000000	0.000000
41.076544	16.932688	16.426365	-1.400562	1.592395	2.646981	0.000000	0.225373	0.000000	0.000006	0.000000	0.000000	0.000000
41.625604	18.205916	15.014806	-0.904634	0.993645	2.749031	0.000000	0.145805	0.000000	0.000006	-0.000000	0.000000	0.000000
42.174664	18.896020	14.218256	-0.344807	0.465670	2.806617	0.000000	0.063650	0.000000	0.000005	-0.000000	0.000000	0.000000
42.723724	18.954253	13.979979	0.239375	-0.029136	2.818719	0.000000	-0.019633	0.000000	0.000005	-0.000001	0.000000	0.000000
43.022297	18.845756	13.981944	0.173533	-0.013969	2.815056	0.000000	-0.012269	0.000000	0.000005	-0.000001	0.000000	0.000000
43.502297	18.691758	14.011835	0.147296	-0.048306	2.809168	0.000000	-0.012269	0.000000	0.000005	-0.000001	0.000000	0.000000
43.982297	18.562947	14.074690	0.121059	-0.082642	2.803279	0.000000	-0.012269	0.000000	0.000005	-0.000001	0.000000	0.000000
44.462297	18.459324	14.170509	0.094822	-0.116979	2.797390	0.000000	-0.012269	0.000000	0.000004	-0.000001	0.000000	0.000000
44.942297	18.380888	14.299290	0.068585	-0.151316	2.791502	0.000000	-0.012269	0.000000	0.000004	-0.000001	0.000000	0.000000
45.423547	18.327761	14.461320	-0.048526	-0.114091	2.785615	0.000000	0.001533	0.000000	0.000004	-0.000001	0.000000	0.000000
45.720870	18.361451	14.535356	-0.112760	-0.096942	2.786071	0.000000	0.008812	0.000000	0.000004	-0.000000	0.000000	0.000000
46.269930	18.176101	14.922959	0.448338	-0.613164	2.768335	0.000000	-0.073322	0.000000	0.000003	-0.000001	0.000000	0.000000
46.818990	17.388420	15.897948	0.977768	-1.173060	2.705794	0.000000	-0.154156	0.000000	0.000003	-0.000001	0.000000	0.000000
47.368050	16.054046	17.529769	1.438133	-1.816510	2.599556	0.000000	-0.232255	0.000000	0.000003	-0.000001	0.000000	0.000000
47.917110	14.267233	19.934653	1.796916	-2.589346	2.451507	0.000000	-0.306235	0.000000	0.000002	-0.000001	0.000000	0.000000
48.363070	12.876710	22.072832	1.332175	-2.185052	2.330232	0.000000	-0.237932	0.000000	0.000002	-0.000001	0.000000	0.000000
48.804030	11.882042	23.784831	0.932067	-1.682611	2.239774	0.000000	-0.172736	0.000000	0.000001	-0.000001	0.000000	0.000000
49.244990	11.220199	25.018138	0.574543	-1.103613	2.177605	0.000000	-0.109507	0.000000	0.000001	-0.000001	0.000000	0.000000
49.685950	10.860940	25.716637	0.243267	-0.474401	2.143016	0.000000	-0.047525	0.000000	0.000001	-0.000001	0.000000	0.000000
50.128160	10.787980	25.848266	-0.050555	0.112958	2.135624	0.000000	0.008678	0.000000	0.000000	-0.000001	0.000000	0.000000
50.425482	10.826257	25.784559	-0.078186	0.101309	2.138204	0.000000	0.008678	0.000000	0.000000	-0.000001	0.000000	0.000000
50.758816	10.888708	25.721373	-0.109164	0.088249	2.141097	0.000000	0.008678	0.000000	-0.000000	-0.000001	0.000000	0.000000
51.092149	10.971809	25.666894	-0.140142	0.075188	2.143990	0.000000	0.008678	0.000000	-0.000000	-0.000001	0.000000	0.000000
51.426732	11.075766	25.621486	-0.081381	-0.145775	2.146872	0.000000	-0.008739	0.000000	-0.000001	-0.000001	0.000000	0.000000
51.724055	11.132194	25.711694	-0.081104	-0.220679	2.144274	0.000000	-0.013997	0.000000	-0.000001	-0.000001	0.000000	0.000000
52.165015	11.349062	25.620272	-0.412573	0.427216	2.151691	0.000000	0.047667	0.000000	-0.000001	-0.000001	0.000000	0.000000
52.605975	11.865435	24.963880	-0.762890	1.055673	2.186392	0.000000	0.109873	0.000000	-0.000001	-0.000001	0.000000	0.000000
53.046935	12.704904	23.772383	-1.148062	1.636097	2.248774	0.000000	0.173332	0.000000	-0.000002	-0.000001	0.000000	0.000000
53.487895	13.905822	22.099994	-1.585686	2.142081	2.339547	0.000000	0.238764	0.000000	-0.000002	-0.000001	0.000000	0.000000
53.933855	15.543640	19.997799	-2.099987	2.551938	2.461249	0.000000	0.307314	0.000000	-0.000002	-0.000001	0.000000	0.000000
54.482915	17.652268	17.632318	-1.717712	1.781730	2.609803	0.000000	0.233011	0.000000	-0.000003	-0.000001	0.000000	0.000000
55.031975	19.271597	16.038382	-1.214106	1.138431	2.716364	0.000000	0.154574	0.000000	-0.000003	-0.000001	0.000000	0.000000
55.581035	20.287247	15.102460	-0.624742	0.576221	2.779041	0.000000	0.073395	0.000000	-0.000004	-0.000001	0.000000	0.000000
56.130095	20.627477	14.757887	0.008751	0.055053	2.796723	0.000000	-0.009085	0.000000	-0.000004	-0.000000	0.000000	0.000000
56.428668	20.658766	14.708080	-0.059651	0.073205	2.796192	0.000000	-0.001777	0.000000	-0.000004	-0.000000	0.000000	0.000000
56.762001	20.703931	14.666872	-0.075843	0.050420	2.795600	0.000000	-0.001777	0.000000	-0.000004	-0.000000	0.000000	0.000000
57.095334	20.759891	14.640853	-0.092036	0.027635	2.795008	0.000000	-0.001777	0.000000	-0.000005	-0.000000	0.000000	0.000000
57.429918	20.826917	14.630012	-0.108289	0.004765	2.794413	0.000000	-0.001777	0.000000	-0.000005	-0.000000	0.000000	0.000000
57.727240	20.895605	14.633221	-0.177331	0.022677	2.793885	0.000000	0.005523	0.000000	-0.000005	-0.000001	0.000000	0.000000
58.276300	20.733839	14.889330	0.470211	-0.491881	2.774279	0.000000	-0.076834	0.000000	-0.000005	-0.000000	0.000000	0.000000
58.825360	19.875104	15.726295	1.084539	-1.041476	2.709763	0.000000	-0.157829	0.000000	-0.000005	-0.000000	0.000000	0.000000
59.374420	18.380059	17.203730	1.622261	-1.665252	2.601479	0.000000	-0.236023	0.000000	-0.000005	-0.000000	0.000000	0.000000
59.923480	16.354304	19.426870	2.045395	-2.407641	2.451349	0.000000	-0.310032	0.000000	-0.000005	0.000000	0.000000	0.000000
60.369440	14.768742	21.402835	1.522587	-2.004469	2.328377	0.000000	-0.241755	0.000000	-0.000005	0.000000	0.000000	0.000000
60.810400	13.628277	22.959146	1.073547	-1.511469	2.236219	0.000000	-0.176628	0.000000	-0.000005	-0.000000	0.000000	0.000000
61.251360	12.860787	24.048567	0.673554	-0.949698	2.172310	0.000000	-0.113514	0.000000	-0.000005	-0.000000	0.000000	0.000000
61.692320	12.431208	24.621533	0.304334	-0.344717	2.135920	0.000000	-0.051692	0.000000	-0.000005	-0.000000	0.000000	0.000000
62.134530	12.319963	24.651434	-0.020869	0.215439	2.126641	0.000000	0.004326	0.000000	-0.000006	-0.000001	0.000000	0.000000
62.431853	12.339552	24.527077	-0.045013	0.202818	2.127928	0.000000	0.004326	0.000000	-0.000006	-0.000001	0.000000	0.000000
62.765186	12.378583	24.396581	-0.072081	0.188668	2.129370	0.000000	0.004326	0.000000	-0.000006	-0.000001	0.000000	0.000000
63.098520	12.435660	24.275519	-0.099149	0.174519	2.130812	0.000000	0.004326	0.000000	-0.000006	-0.000001	0.000000	0.000000
63.433103	12.511098	24.163488	-0.126319	0.160316	2.132260	0.000000	0.004326	0.000000	-0.000006	-0.000001	0.000000	0.000000
63.730426	12.593392	24.071910	-0.119578	0.088660	2.133546	0.000000	-0.000906	0.000000	-0.000006	-0.000000	0.000000	0.000000
64.171386	12.859211	23.728609	-0.485528	0.686906	2.146685	0.000000	0.060555	0.000000	-0.000007	-0.000001	0.000000	0.000000
64.612346	13.456294	22.869523	-0.873661	1.253899	2.187052	0.000000	0.122705	0.000000	-0.000007	-0.000001	0.000000	0.000000
65.053306	14.411919	21.533738	-1.301708	1.763839	2.255107	0.000000	0.186254	0.000000	-0.000007	-0.000001	0.000000	0.000000
65.494266	15.769746	19.782032	-1.789227	2.193527	2.351625	0.000000	0.251923	0.000000	-0.000008	-0.000001	0.000000	0.000000
65.940226	17.614974	17.669316	-2.363183	2.524165	2.479277	0.000000	0.320864	0.000000	-0.000009	-0.000001	0.000000	0.000000
66.489286	19.980351	15.305824	-1.919365	1.805861	2.635089	0.000000	0.245859	0.000000	-0.000009	-0.000001	0.000000	0.000000
67.038346	21.780580	13.656277	-1.339974	1.216184	2.748459	0.000000	0.166492	0.000000	-0.000010	-0.000001	0.000000	0.000000
67.587406	22.888502	12.603182	-0.665934	0.713133	2.817376	0.000000	0.084173	0.000000	-0.000010	-0.000001	0.000000	0.000000
68.136466	23.225858	12.071531	0.055145	0.260877	2.840618	0.000000	0.000360	0.000000	-0.000010	-0.000000	0.000000	0.000000
68.435038	23.233008	11.904930	-0.018401	0.265572	2.842942	0.000000	0.007783	0.000000	-0.000010	-0.000000	0.000000	0.000000
68.768372	23.250059	11.737873	-0.032753	0.235597	2.845536	0.000000	0.007783	0.000000	-0.000010	-0.000000	0.000000	0.000000
69.101705	23.276679	11.590800	-0.047105	0.205623	2.848130	0.000000	0.007783	0.000000	-0.000011	-0.000000	0.000000	0.000000
69.436288	23.313020	11.463271	-0.061511	0.175536	2.850735	0.000000	0.007783	0.000000	-0.000011	-0.000000	0.000000	0.000000
69.733611	23.353404	11.366838	-0.135337	0.178502	2.853049	0.000000	0.015238	0.000000	-0.000011	-0.000000	0.000000	0.000000
70.282671	23.100940	11.398439	0.592425	-0.236395	2.838237	0.000000	-0.069114	0.000000	-0.000011	0.000000	0.000000	0.000000
