#ParticleID	Turn	x[m]	xp	y[m]	yp	z[m]	dE[GeV]# s	beta_x	beta_y	alpha_x	alpha_y	D_x	D_y	D_px	D_py	orbit_x	orbit_px	orbit_y	orbit_py
0.300000	11.815704	25.011262	-0.011214	-0.027364	2.618045	0.000000	0.000038	0.000000	-0.000001	0.000001	0.000000	0.000000
0.601250	11.830142	25.031380	-0.036713	-0.039418	2.618057	0.000000	0.000038	0.000000	-0.000001	0.000001	0.000000	0.000000
0.898573	11.859456	25.058357	-0.032797	-0.112765	2.618068	0.000000	-0.006382	0.000000	-0.000001	0.000001	0.000000	0.000000
1.339533	12.040532	24.879846	-0.379401	0.516049	2.631546	0.000000	0.067574	0.000000	-0.000000	0.000001	0.000000	0.000000
1.780493	12.533745	24.155045	-0.743339	1.121383	2.677775	0.000000	0.142300	0.000000	0.000000	0.000001	0.000000	0.000000
2.221453	13.361628	22.916934	-1.141238	1.675695	2.757280	0.000000	0.218647	0.000000	0.000001	0.000001	0.000000	0.000000
2.662413	14.562004	21.221845	-1.591277	2.153764	2.870968	0.000000	0.297484	0.000000	0.000001	0.000001	0.000000	0.000000
3.108373	16.210468	19.122044	-2.118308	2.534971	3.021994	0.000000	0.380198	0.000000	0.000002	0.000001	0.000000	0.000000
3.657433	18.324340	16.763669	-1.708885	1.785679	3.205473	0.000000	0.287160	0.000000	0.000003	0.000001	0.000000	0.000000
4.206493	19.919270	15.153853	-1.178755	1.163576	3.336393	0.000000	0.189028	0.000000	0.000003	0.000001	0.000000	0.000000
4.755553	20.882598	14.177933	-0.565363	0.624353	3.412432	0.000000	0.087544	0.000000	0.000004	0.000001	0.000000	0.000000
5.304613	21.146281	13.766397	0.087963	0.129600	3.432241	0.000000	-0.015494	0.000000	0.000004	0.000001	0.000000	0.000000
5.603185	21.130966	13.674182	0.018579	0.143285	3.430292	0.000000	-0.006526	0.000000	0.000005	0.000001	0.000000	0.000000
5.936519	21.123840	13.586952	0.002799	0.118407	3.428116	0.000000	-0.006526	0.000000	0.000005	0.000001	0.000000	0.000000
6.269852	21.127235	13.516306	-0.012981	0.093530	3.425940	0.000000	-0.006526	0.000000	0.000005	0.000001	0.000000	0.000000
6.604435	21.141221	13.462074	-0.028820	0.068559	3.423756	0.000000	-0.006526	0.000000	0.000006	0.000001	0.000000	0.000000
6.901758	21.162544	13.427903	-0.098187	0.081453	3.421816	0.000000	0.002414	0.000000	0.000006	0.000001	0.000000	0.000000
7.450818	20.909685	13.599242	0.555991	-0.395355	3.394938	0.000000	-0.100171	0.000000	0.000006	0.000001	0.000000	0.000000
7.999878	19.955873	14.306472	1.170897	-0.900322	3.312141	0.000000	-0.200980	0.000000	0.000007	0.000000	0.000000	0.000000
8.548938	18.368482	15.599966	1.703097	-1.469417	3.174893	0.000000	-0.298223	0.000000	0.000007	0.000000	0.000000	0.000000
9.097998	16.259635	17.571857	2.114998	-2.143176	2.985628	0.000000	-0.390177	0.000000	0.000007	0.000000	0.000000	0.000000
9.543958	14.614341	19.328917	1.587451	-1.780120	2.829932	0.000000	-0.308466	0.000000	0.000007	0.000000	0.000000	0.000000
9.984918	13.417631	20.708828	1.136719	-1.337304	2.711158	0.000000	-0.230753	0.000000	0.000007	0.000000	0.000000	0.000000
10.425878	12.594113	21.669784	0.737921	-0.833640	2.626041	0.000000	-0.155668	0.000000	0.000007	0.000001	0.000000	0.000000
10.866838	12.106165	22.168063	0.372837	-0.292047	2.573611	0.000000	-0.082355	0.000000	0.000008	0.000001	0.000000	0.000000
11.309048	11.931357	22.180473	0.053938	0.208384	2.553252	0.000000	-0.016242	0.000000	0.000008	0.000001	0.000000	0.000000
11.606371	11.906714	22.060717	0.028946	0.194398	2.548422	0.000000	-0.016242	0.000000	0.000008	0.000001	0.000000	0.000000
12.086371	11.898292	21.884934	-0.011401	0.171817	2.540626	0.000000	-0.016242	0.000000	0.000009	0.000001	0.000000	0.000000
12.566371	11.928604	21.730828	-0.051748	0.149237	2.532829	0.000000	-0.016242	0.000000	0.000009	0.000001	0.000000	0.000000
13.046371	11.997649	21.598399	-0.092095	0.126656	2.525033	0.000000	-0.016242	0.000000	0.000010	0.000001	0.000000	0.000000
13.526371	12.105427	21.487648	-0.132443	0.104076	2.517236	0.000000	-0.016242	0.000000	0.000010	0.000001	0.000000	0.000000
14.007621	12.252370	21.398370	-0.172895	0.081437	2.509419	0.000000	-0.016242	0.000000	0.000011	0.000001	0.000000	0.000000
14.304943	12.362612	21.354102	-0.167573	0.015089	2.504590	0.000000	-0.022383	0.000000	0.000011	0.000001	0.000000	0.000000
14.745903	12.668956	21.107070	-0.529783	0.542993	2.510353	0.000000	0.048548	0.000000	0.000011	0.000001	0.000000	0.000000
15.186863	13.304165	20.403627	-0.916196	1.046191	2.547486	0.000000	0.120032	0.000000	0.000012	0.000002	0.000000	0.000000
15.627823	14.297261	19.275778	-1.344469	1.501788	2.616411	0.000000	0.192884	0.000000	0.000013	0.000002	0.000000	0.000000
16.068783	15.693615	17.774840	-1.834166	1.889055	2.717914	0.000000	0.267932	0.000000	0.000013	0.000002	0.000000	0.000000
16.514743	17.580678	15.947601	-2.412419	2.191117	2.854847	0.000000	0.346494	0.000000	0.000015	0.000003	0.000000	0.000000
17.063803	20.004318	13.907302	-1.975611	1.546804	3.021357	0.000000	0.259147	0.000000	0.000016	0.000002	0.000000	0.000000
17.612863	21.868357	12.510245	-1.399256	1.012667	3.138574	0.000000	0.167202	0.000000	0.000017	0.000002	0.000000	0.000000
18.161923	23.041131	11.656921	-0.724064	0.550660	3.204419	0.000000	0.072292	0.000000	0.000017	0.000001	0.000000	0.000000
18.710983	23.439798	11.286550	0.002272	0.127875	3.217724	0.000000	-0.023900	0.000000	0.000018	0.000000	0.000000	0.000000
19.009556	23.478824	11.200677	-0.071745	0.130252	3.213098	0.000000	-0.015494	0.000000	0.000018	0.000000	0.000000	0.000000
19.342889	23.531411	11.123931	-0.086015	0.099987	3.207933	0.000000	-0.015494	0.000000	0.000018	0.000000	0.000000	0.000000
19.676223	23.593511	11.067362	-0.100286	0.069722	3.202768	0.000000	-0.015494	0.000000	0.000018	0.000000	0.000000	0.000000
20.010806	23.665705	11.030734	-0.231863	0.093996	3.197604	0.000000	0.000349	0.000000	0.000018	0.000001	0.000000	0.000000
20.308129	23.807517	10.982925	-0.307296	0.095496	3.197708	0.000000	0.008703	0.000000	0.000019	0.000001	0.000000	0.000000
20.857189	23.734346	11.100252	0.439774	-0.310446	3.176261	0.000000	-0.086709	0.000000	0.000019	-0.000000	0.000000	0.000000
21.406249	22.853073	11.672807	1.155782	-0.738500	3.102773	0.000000	-0.180583	0.000000	0.000018	-0.000001	0.000000	0.000000
21.955309	21.225947	12.741369	1.790150	-1.219155	2.978549	0.000000	-0.271253	0.000000	0.000018	-0.000001	0.000000	0.000000
22.504369	18.967900	14.382052	2.298071	-1.786649	2.805790	0.000000	-0.357113	0.000000	0.000017	-0.000002	0.000000	0.000000
22.950329	17.188358	15.855070	1.706375	-1.502444	2.663829	0.000000	-0.279888	0.000000	0.000016	-0.000001	0.000000	0.000000
23.391289	15.912777	17.029485	1.197335	-1.150735	2.556735	0.000000	-0.206306	0.000000	0.000016	-0.000001	0.000000	0.000000
23.832249	15.060401	17.869360	0.742998	-0.746668	2.481540	0.000000	-0.135074	0.000000	0.000016	-0.000001	0.000000	0.000000
24.273209	14.592288	18.336481	0.322606	-0.308628	2.437385	0.000000	-0.065381	0.000000	0.000015	-0.000000	0.000000	0.000000
24.715418	14.487169	18.409349	-0.047611	0.098246	2.423767	0.000000	-0.002374	0.000000	0.000015	0.000000	0.000000	0.000000
25.012741	14.521597	18.355776	-0.068181	0.081940	2.423061	0.000000	-0.002374	0.000000	0.000016	0.000000	0.000000	0.000000
25.346075	14.574738	18.307243	-0.091242	0.063658	2.422269	0.000000	-0.002374	0.000000	0.000016	0.000000	0.000000	0.000000
25.679408	14.643253	18.270898	-0.114303	0.045377	2.421478	0.000000	-0.002374	0.000000	0.000016	0.000000	0.000000	0.000000
26.013991	14.727187	18.247043	-0.017974	-0.121002	2.420659	0.000000	-0.022012	0.000000	0.000016	0.000000	0.000000	0.000000
26.311314	14.743880	18.323912	-0.002018	-0.182464	2.414114	0.000000	-0.027932	0.000000	0.000016	0.000000	0.000000	0.000000
26.752274	14.927314	18.286100	-0.415546	0.267887	2.416911	0.000000	0.040629	0.000000	0.000016	0.000000	0.000000	0.000000
27.193234	15.482408	17.854993	-0.848059	0.706049	2.450013	0.000000	0.109653	0.000000	0.000016	0.000001	0.000000	0.000000
27.634194	16.434523	17.050206	-1.319318	1.112086	2.513798	0.000000	0.179925	0.000000	0.000017	0.000001	0.000000	0.000000
28.075154	17.827158	15.908355	-1.850852	1.467524	2.608992	0.000000	0.252246	0.000000	0.000017	0.000002	0.000000	0.000000
28.521114	19.748135	14.464195	-2.471913	1.757104	2.738283	0.000000	0.327884	0.000000	0.000018	0.000002	0.000000	0.000000
29.070174	22.189711	12.855106	-1.948591	1.190820	2.895639	0.000000	0.244462	0.000000	0.000019	0.000002	0.000000	0.000000
29.619234	23.977172	11.817918	-1.287630	0.709355	3.005933	0.000000	0.156703	0.000000	0.000020	0.000001	0.000000	0.000000
30.168294	24.984262	11.278755	-0.535717	0.278416	3.067207	0.000000	0.066165	0.000000	0.000020	0.000000	0.000000	0.000000
30.717354	25.139843	11.199213	0.254036	-0.132692	3.078374	0.000000	-0.025547	0.000000	0.000020	-0.000000	0.000000	0.000000
31.015927	25.031035	11.269025	0.176063	-0.130381	3.073148	0.000000	-0.017505	0.000000	0.000020	-0.000000	0.000000	0.000000
31.349260	24.918236	11.365973	0.162334	-0.160464	3.067313	0.000000	-0.017505	0.000000	0.000020	-0.000000	0.000000	0.000000
31.682593	24.814590	11.482976	0.148604	-0.190546	3.061478	0.000000	-0.017505	0.000000	0.000020	-0.000000	0.000000	0.000000
32.017177	24.719760	11.620586	0.134823	-0.220741	3.055621	0.000000	-0.017505	0.000000	0.000020	-0.000000	0.000000	0.000000
32.314499	24.643230	11.759827	0.058199	-0.216853	3.050417	0.000000	-0.009536	0.000000	0.000020	-0.000000	0.000000	0.000000
32.863559	24.157107	12.237181	0.821931	-0.657682	3.020292	0.000000	-0.100035	0.000000	0.000020	-0.000001	0.000000	0.000000
33.412619	22.859388	13.221348	1.527605	-1.145356	2.940894	0.000000	-0.188759	0.000000	0.000019	-0.000002	0.000000	0.000000
33.961679	20.841737	14.782427	2.125377	-1.714611	2.813629	0.000000	-0.274135	0.000000	0.000018	-0.000002	0.000000	0.000000
34.510739	18.246670	17.031612	2.573023	-2.405995	2.640755	0.000000	-0.354649	0.000000	0.000017	-0.000003	0.000000	0.000000
34.956699	16.228909	19.043420	1.967720	-2.086353	2.498942	0.000000	-0.281704	0.000000	0.000016	-0.000002	0.000000	0.000000
35.397659	14.724306	20.707269	1.457330	-1.672530	2.390107	0.000000	-0.212396	0.000000	0.000015	-0.000002	0.000000	0.000000
35.838619	13.638876	21.971080	1.013521	-1.182608	2.311273	0.000000	-0.145506	0.000000	0.000014	-0.000001	0.000000	0.000000
36.279579	12.923030	22.777351	0.616018	-0.638878	2.261541	0.000000	-0.080273	0.000000	0.000013	-0.000001	0.000000	0.000000
36.721789	12.543369	23.089704	0.277308	-0.122750	2.240318	0.000000	-0.021449	0.000000	0.000013	-0.000001	0.000000	0.000000
37.019112	12.386058	23.166583	0.251782	-0.135821	2.233941	0.000000	-0.021449	0.000000	0.000013	-0.000001	0.000000	0.000000
37.352445	12.227743	23.262014	0.223164	-0.150475	2.226792	0.000000	-0.021449	0.000000	0.000012	-0.000001	0.000000	0.000000
37.685779	12.088506	23.367215	0.194546	-0.165129	2.219643	0.000000	-0.021449	0.000000	0.000012	-0.000001	0.000000	0.000000
38.020362	11.967934	23.482635	0.165821	-0.179837	2.212467	0.000000	-0.021449	0.000000	0.000012	-0.000001	0.000000	0.000000
38.317684	11.876919	23.593461	0.169417	-0.250760	2.206090	0.000000	-0.026858	0.000000	0.000012	-0.000001	0.000000	0.000000
38.758644	11.878932	23.553287	-0.174001	0.341520	2.208176	0.000000	0.036331	0.000000	0.000011	-0.000001	0.000000	0.000000
39.199604	12.186160	22.995651	-0.525368	0.918262	2.238192	0.000000	0.099933	0.000000	0.000011	-0.000000	0.000000	0.000000
39.640564	12.812639	21.945925	-0.900738	1.453224	2.296477	0.000000	0.164674	0.000000	0.000011	-0.000000	0.000000	0.000000
40.081524	13.786991	20.451872	-1.317259	1.922065	2.383696	0.000000	0.231290	0.000000	0.000011	0.000000	0.000000	0.000000
40.527484	15.171306	18.558899	-1.797790	2.304737	2.502314	0.000000	0.300946	0.000000	0.000011	0.000001	0.000000	0.000000
41.076544	16.937872	16.431680	-1.400601	1.592425	2.647018	0.000000	0.225374	0.000000	0.000011	0.000000	0.000000	0.000000
41.625604	18.211036	15.020163	-0.904480	0.993538	2.749068	0.000000	0.145805	0.000000	0.000011	-0.000000	0.000000	0.000000
42.174664	18.900869	14.223809	-0.344471	0.465418	2.806654	0.000000	0.063649	0.000000	0.000011	-0.000001	0.000000	0.000000
42.723724	18.958643	13.985895	0.239869	-0.029550	2.818755	0.000000	-0.019636	0.000000	0.000011	-0.000001	0.000000	0.000000
43.022297	18.849856	13.988096	0.174019	-0.014360	2.815092	0.000000	-0.012271	0.000000	0.000011	-0.000001	0.000000	0.000000
43.502297	18.695390	14.018356	0.147784	-0.048682	2.809202	0.000000	-0.012271	0.000000	0.000010	-0.000001	0.000000	0.000000
43.982297	18.566111	14.081565	0.121548	-0.083004	2.803312	0.000000	-0.012271	0.000000	0.000010	-0.000001	0.000000	0.000000
44.462297	18.462018	14.177724	0.095313	-0.117326	2.797422	0.000000	-0.012271	0.000000	0.000009	-0.000001	0.000000	0.000000
44.942297	18.383111	14.306831	0.069077	-0.151648	2.791532	0.000000	-0.012271	0.000000	0.000009	-0.000001	0.000000	0.000000
45.423547	18.329509	14.469174	-0.048041	-0.114370	2.785644	0.000000	0.001530	0.000000	0.000009	-0.000001	0.000000	0.000000
45.720870	18.362911	14.543373	-0.112275	-0.097191	2.786100	0.000000	0.008809	0.000000	0.000008	-0.000001	0.000000	0.000000
46.269930	18.177006	14.931385	0.448858	-0.613664	2.768362	0.000000	-0.073326	0.000000	0.000008	-0.000001	0.000000	0.000000
46.818990	17.388751	15.907076	0.978287	-1.173846	2.705819	0.000000	-0.154160	0.000000	0.000007	-0.000001	0.000000	0.000000
47.368050	16.053825	17.539943	1.438614	-1.817640	2.599579	0.000000	-0.232261	0.000000	0.000006	-0.000002	0.000000	0.000000
47.917110	14.266521	19.946291	1.797324	-2.590899	2.451527	0.000000	-0.306241	0.000000	0.000005	-0.000002	0.000000	0.000000
48.363070	12.875646	22.085746	1.332559	-2.186346	2.330250	0.000000	-0.237937	0.000000	0.000005	-0.000002	0.000000	0.000000
48.804030	11.880644	23.798751	0.932444	-1.683589	2.239790	0.000000	-0.172741	0.000000	0.000004	-0.000001	0.000000	0.000000
49.244990	11.218465	25.032764	0.574930	-1.104231	2.177619	0.000000	-0.109512	0.000000	0.000003	-0.000001	0.000000	0.000000
49.685950	10.858854	25.731638	0.243682	-0.474630	2.143028	0.000000	-0.047530	0.000000	0.000003	-0.000001	0.000000	0.000000
50.128160	10.785507	25.863292	-0.050100	0.113093	2.135634	0.000000	0.008674	0.000000	0.000002	-0.000001	0.000000	0.000000
50.425482	10.823515	25.799504	-0.077736	0.101450	2.138214	0.000000	0.008674	0.000000	0.000002	-0.000001	0.000000	0.000000
50.758816	10.885667	25.736221	-0.108719	0.088397	2.141106	0.000000	0.008674	0.000000	0.000002	-0.000001	0.000000	0.000000
51.092149	10.968474	25.681641	-0.139702	0.075344	2.143997	0.000000	0.008674	0.000000	0.000001	-0.000001	0.000000	0.000000
51.426732	11.072138	25.636127	-0.080977	-0.145731	2.146878	0.000000	-0.008743	0.000000	0.000001	-0.000001	0.000000	0.000000
51.724055	11.128328	25.726307	-0.080717	-0.220664	2.144279	0.000000	-0.014001	0.000000	0.000000	-0.000001	0.000000	0.000000
52.165015	11.344813	25.634700	-0.412087	0.427617	2.151694	0.000000	0.047663	0.000000	-0.000000	-0.000001	0.000000	0.000000
52.605975	11.860707	24.977790	-0.762285	1.056441	2.186395	0.000000	0.109870	0.000000	-0.000001	-0.000001	0.000000	0.000000
53.046935	12.699579	23.785467	-1.147309	1.637198	2.248775	0.000000	0.173328	0.000000	-0.000001	-0.000001	0.000000	0.000000
53.487895	13.899755	22.111978	-1.584751	2.143463	2.339546	0.000000	0.238760	0.000000	-0.000002	-0.000001	0.000000	0.000000
53.933855	15.536641	20.008446	-2.098825	2.553540	2.461247	0.000000	0.307310	0.000000	-0.000002	-0.000001	0.000000	0.000000
54.482915	17.644084	17.641438	-1.716729	1.782926	2.609799	0.000000	0.233007	0.000000	-0.000003	-0.000001	0.000000	0.000000
55.031975	19.262465	16.046372	-1.213372	1.139306	2.716359	0.000000	0.154570	0.000000	-0.000004	-0.000001	0.000000	0.000000
55.581035	20.277471	15.109636	-0.624309	0.576836	2.779034	0.000000	0.073392	0.000000	-0.000004	-0.000001	0.000000	0.000000
56.130095	20.617405	14.764508	0.008852	0.055454	2.796714	0.000000	-0.009088	0.000000	-0.000005	-0.000001	0.000000	0.000000
56.428668	20.648621	14.714449	-0.059530	0.073631	2.796183	0.000000	-0.001780	0.000000	-0.000005	-0.000001	0.000000	0.000000
56.762001	20.693708	14.672953	-0.075731	0.050855	2.795589	0.000000	-0.001780	0.000000	-0.000006	-0.000001	0.000000	0.000000
57.095334	20.749595	14.646642	-0.091931	0.028079	2.794996	0.000000	-0.001780	0.000000	-0.000006	-0.000001	0.000000	0.000000
57.429918	20.816553	14.635502	-0.108192	0.005217	2.794401	0.000000	-0.001780	0.000000	-0.000006	-0.000001	0.000000	0.000000
57.727240	20.885185	14.638440	-0.177214	0.023151	2.793872	0.000000	0.005520	0.000000	-0.000006	-0.000001	0.000000	0.000000
58.276300	20.723483	14.894110	0.469978	-0.491549	2.774265	0.000000	-0.076837	0.000000	-0.000007	-0.000001	0.000000	0.000000
58.825360	19.865190	15.730775	1.083973	-1.041260	2.709747	0.000000	-0.157831	0.000000	-0.000007	-0.000000	0.000000	0.000000
59.374420	18.370931	17.208031	1.621402	-1.665138	2.601463	0.000000	-0.236025	0.000000	-0.000007	-0.000000	0.000000	0.000000
59.923480	16.346253	19.431098	2.044304	-2.407621	2.451333	0.000000	-0.310033	0.000000	-0.000007	0.000000	0.000000	0.000000
60.369440	14.761555	21.406980	1.521733	-2.004304	2.328359	0.000000	-0.241756	0.000000	-0.000007	-0.000000	0.000000	0.000000
60.810400	13.621755	22.963084	1.072890	-1.511168	2.236201	0.000000	-0.176630	0.000000	-0.000008	-0.000000	0.000000	0.000000
61.251360	12.854768	24.052185	0.673064	-0.949275	2.172291	0.000000	-0.113516	0.000000	-0.000008	-0.000001	0.000000	0.000000
61.692320	12.425555	24.624730	0.303989	-0.344190	2.135900	0.000000	-0.051694	0.000000	-0.000008	-0.000001	0.000000	0.000000
62.134530	12.314558	24.654128	-0.021098	0.216036	2.126620	0.000000	0.004323	0.000000	-0.000008	-0.000001	0.000000	0.000000
62.431853	12.334285	24.529416	-0.045253	0.203414	2.127906	0.000000	0.004323	0.000000	-0.000009	-0.000001	0.000000	0.000000
62.765186	12.373480	24.398524	-0.072333	0.189262	2.129347	0.000000	0.004323	0.000000	-0.000009	-0.000001	0.000000	0.000000
63.098520	12.430729	24.277066	-0.099413	0.175111	2.130788	0.000000	0.004323	0.000000	-0.000009	-0.000001	0.000000	0.000000
63.433103	12.506348	24.164640	-0.126595	0.160907	2.132235	0.000000	0.004323	0.000000	-0.000010	-0.000001	0.000000	0.000000
63.730426	12.588808	24.072711	-0.119875	0.089245	2.133520	0.000000	-0.000910	0.000000	-0.000010	-0.000001	0.000000	0.000000
64.171386	12.854846	23.728891	-0.485728	0.687497	2.146658	0.000000	0.060550	0.000000	-0.000010	-0.000001	0.000000	0.000000
64.612346	13.452066	22.869291	-0.873773	1.254468	2.187023	0.000000	0.122700	0.000000	-0.000011	-0.000001	0.000000	0.000000
65.053306	14.407753	21.533023	-1.301738	1.764362	2.255076	0.000000	0.186248	0.000000	-0.000012	-0.000002	0.000000	0.000000
65.494266	15.765571	19.780886	-1.789175	2.193979	2.351591	0.000000	0.251917	0.000000	-0.000013	-0.000002	0.000000	0.000000
65.940226	17.610714	17.667807	-2.363047	2.524525	2.479241	0.000000	0.320856	0.000000	-0.000014	-0.000002	0.000000	0.000000
66.489286	19.976035	15.303929	-1.919400	1.806206	2.635050	0.000000	0.245852	0.000000	-0.000015	-0.000002	0.000000	0.000000
67.038346	21.776394	13.654000	-1.340177	1.216539	2.748417	0.000000	0.166487	0.000000	-0.000016	-0.000001	0.000000	0.000000
67.587406	22.884624	12.600500	-0.666290	0.713523	2.817332	0.000000	0.084169	0.000000	-0.000016	-0.000001	0.000000	0.000000
68.136466	23.222445	12.068388	0.054660	0.261329	2.840572	0.000000	0.000358	0.000000	-0.000017	-0.000000	0.000000	0.000000
68.435038	23.229882	11.901525	-0.018882	0.266004	2.842895	0.000000	0.007781	0.000000	-0.000017	-0.000000	0.000000	0.000000
68.768372	23.247254	11.734185	-0.033236	0.236015	2.845489	0.000000	0.007781	0.000000	-0.000017	-0.000000	0.000000	0.000000
69.101705	23.274197	11.586838	-0.047591	0.206026	2.848083	0.000000	0.007781	0.000000	-0.000017	-0.000000	0.000000	0.000000
69.436288	23.310864	11.459044	-0.061999	0.175924	2.850687	0.000000	0.007781	0.000000	-0.000017	-0.000000	0.000000	0.000000
69.733611	23.351538	11.362385	-0.135825	0.178866	2.853001	0.000000	0.015237	0.000000	-0.000018	-0.000001	0.000000	0.000000
70.282671	23.099640	11.393516	0.591889	-0.235899	2.838188	0.000000	-0.069113	0.000000	-0.000018	0.000000	0.000000	0.000000
