#ParticleID	Turn	x[m]	xp	y[m]	yp	z[m]	dE[GeV]# s	beta_x	beta_y	alpha_x	alpha_y	D_x	D_y	D_px	D_py	orbit_x	orbit_px	orbit_y	orbit_py
0.300000	11.827969	24.962047	-0.012810	-0.027714	2.618199	0.000000	-0.000020	0.000000	-0.000000	0.000000	0.000000	0.000000
0.601250	11.843361	24.982384	-0.038284	-0.039792	2.618192	0.000000	-0.000020	0.000000	-0.000000	0.000000	0.000000	0.000000
0.898573	11.873601	25.009590	-0.034308	-0.113043	2.618186	0.000000	-0.006441	0.000000	-0.000000	0.000000	0.000000	0.000000
1.339533	12.056163	24.831892	-0.381273	0.514488	2.631640	0.000000	0.067518	0.000000	-0.000000	0.000000	0.000000	0.000000
1.780493	12.551217	24.109010	-0.745658	1.118611	2.677845	0.000000	0.142246	0.000000	0.000000	0.000000	0.000000	0.000000
2.221453	13.381380	22.873833	-1.144110	1.671838	2.757327	0.000000	0.218594	0.000000	0.000000	0.000000	0.000000	0.000000
2.662413	14.584580	21.182562	-1.594833	2.148997	2.870992	0.000000	0.297432	0.000000	0.000000	0.000000	0.000000	0.000000
3.108373	16.236583	19.087342	-2.122718	2.529509	3.021996	0.000000	0.380147	0.000000	0.000001	0.000000	0.000000	0.000000
3.657433	18.354961	16.734192	-1.712634	1.781567	3.205448	0.000000	0.287109	0.000000	0.000001	0.000000	0.000000	0.000000
4.206493	19.953520	15.128288	-1.181578	1.160522	3.336341	0.000000	0.188979	0.000000	0.000001	0.000000	0.000000	0.000000
4.755553	20.919344	14.155243	-0.567061	0.622139	3.412353	0.000000	0.087496	0.000000	0.000001	0.000000	0.000000	0.000000
5.304613	21.184214	13.745752	0.087510	0.128069	3.432137	0.000000	-0.015538	0.000000	0.000001	0.000000	0.000000	0.000000
5.603185	21.169223	13.654489	0.018052	0.141678	3.430175	0.000000	-0.006571	0.000000	0.000001	0.000000	0.000000	0.000000
5.936519	21.162438	13.568338	0.002300	0.116776	3.427985	0.000000	-0.006571	0.000000	0.000001	0.000000	0.000000	0.000000
6.269852	21.166155	13.498788	-0.013451	0.091874	3.425794	0.000000	-0.006571	0.000000	0.000001	0.000000	0.000000	0.000000
6.604435	21.180446	13.445672	-0.029261	0.066879	3.423596	0.000000	-0.006571	0.000000	0.000001	0.000000	0.000000	0.000000
6.901758	21.202023	13.412507	-0.098707	0.079711	3.421642	0.000000	0.002369	0.000000	0.000001	0.000000	0.000000	0.000000
7.450818	20.949006	13.585527	0.556797	-0.396692	3.394742	0.000000	-0.100210	0.000000	0.000002	0.000000	0.000000	0.000000
7.999878	19.993604	14.294048	1.172972	-0.901351	3.311926	0.000000	-0.201011	0.000000	0.000002	0.000000	0.000000	0.000000
8.548938	18.403300	15.588537	1.706294	-1.470211	3.174662	0.000000	-0.298248	0.000000	0.000002	0.000000	0.000000	0.000000
9.097998	16.290426	17.561197	2.119092	-2.143791	2.985386	0.000000	-0.390194	0.000000	0.000002	0.000000	0.000000	0.000000
9.543958	14.641893	19.318991	1.590643	-1.781148	2.829681	0.000000	-0.308489	0.000000	0.000002	0.000000	0.000000	0.000000
9.984918	13.442709	20.699972	1.139161	-1.338694	2.710896	0.000000	-0.230783	0.000000	0.000002	0.000000	0.000000	0.000000
10.425878	12.617326	21.662292	0.739725	-0.835331	2.625764	0.000000	-0.155704	0.000000	0.000002	0.000000	0.000000	0.000000
10.866838	12.128037	22.162167	0.374084	-0.293961	2.573317	0.000000	-0.082400	0.000000	0.000002	0.000000	0.000000	0.000000
11.309048	11.952350	22.176336	0.054740	0.206342	2.552936	0.000000	-0.016294	0.000000	0.000002	0.000000	0.000000	0.000000
11.606371	11.927217	22.057792	0.029790	0.192364	2.548091	0.000000	-0.016294	0.000000	0.000002	0.000000	0.000000	0.000000
12.086371	11.917953	21.883954	-0.010490	0.169798	2.540270	0.000000	-0.016294	0.000000	0.000002	0.000000	0.000000	0.000000
12.566371	11.947358	21.731780	-0.050770	0.147232	2.532449	0.000000	-0.016294	0.000000	0.000002	0.000000	0.000000	0.000000
13.046371	12.015431	21.601269	-0.091049	0.124665	2.524628	0.000000	-0.016294	0.000000	0.000002	0.000000	0.000000	0.000000
13.526371	12.122172	21.492422	-0.131329	0.102099	2.516807	0.000000	-0.016294	0.000000	0.000003	0.000000	0.000000	0.000000
14.007621	12.268012	21.405040	-0.171714	0.079474	2.508966	0.000000	-0.016294	0.000000	0.000003	0.000000	0.000000	0.000000
14.304943	12.377539	21.361937	-0.166311	0.013112	2.504121	0.000000	-0.022434	0.000000	0.000003	0.000000	0.000000	0.000000
14.745903	12.682906	21.116543	-0.528821	0.541270	2.509859	0.000000	0.048485	0.000000	0.000003	0.000000	0.000000	0.000000
15.186863	13.317382	20.414477	-0.915490	1.044802	2.546961	0.000000	0.119956	0.000000	0.000003	0.000000	0.000000	0.000000
15.627823	14.309955	19.287682	-1.343985	1.500795	2.615850	0.000000	0.192793	0.000000	0.000003	0.000000	0.000000	0.000000
16.068783	15.705972	17.787428	-1.833884	1.888504	2.717311	0.000000	0.267826	0.000000	0.000003	0.000001	0.000000	0.000000
16.514743	17.592869	15.960472	-2.412325	2.191036	2.854193	0.000000	0.346372	0.000000	0.000004	0.000001	0.000000	0.000000
17.063803	20.016102	13.920395	-1.974971	1.546476	3.020644	0.000000	0.259047	0.000000	0.000004	0.000001	0.000000	0.000000
17.612863	21.879158	12.523844	-1.398115	1.012068	3.137813	0.000000	0.167126	0.000000	0.000004	0.000000	0.000000	0.000000
18.161923	23.050439	11.671346	-0.722504	0.549748	3.203624	0.000000	0.072242	0.000000	0.000005	0.000000	0.000000	0.000000
18.710983	23.447212	11.302178	0.004142	0.126584	3.216908	0.000000	-0.023924	0.000000	0.000005	0.000000	0.000000	0.000000
19.009556	23.485134	11.217035	-0.069894	0.129053	3.212274	0.000000	-0.015519	0.000000	0.000005	0.000000	0.000000	0.000000
19.342889	23.536485	11.141071	-0.084157	0.098841	3.207101	0.000000	-0.015519	0.000000	0.000005	0.000000	0.000000	0.000000
19.676223	23.597344	11.085247	-0.098420	0.068629	3.201928	0.000000	-0.015519	0.000000	0.000005	0.000000	0.000000	0.000000
20.010806	23.668286	11.049332	-0.230002	0.093050	3.196755	0.000000	0.000319	0.000000	0.000005	0.000000	0.000000	0.000000
20.308129	23.808988	11.002070	-0.305434	0.094653	3.196850	0.000000	0.008672	0.000000	0.000005	0.000000	0.000000	0.000000
20.857189	23.733755	11.120622	0.441645	-0.311846	3.175394	0.000000	-0.086712	0.000000	0.000005	-0.000000	0.000000	0.000000
21.406249	22.850484	11.695064	1.157528	-0.740557	3.101912	0.000000	-0.180558	0.000000	0.000005	-0.000000	0.000000	0.000000
21.955309	21.221565	12.766311	1.791650	-1.222017	2.977708	0.000000	-0.271201	0.000000	0.000005	-0.000000	0.000000	0.000000
22.504369	18.962057	14.410667	2.299218	-1.790518	2.804985	0.000000	-0.357034	0.000000	0.000004	-0.000000	0.000000	0.000000
22.950329	17.181493	15.886855	1.707531	-1.505653	2.663055	0.000000	-0.279830	0.000000	0.000004	-0.000000	0.000000	0.000000
23.391289	15.904868	17.063755	1.198554	-1.153140	2.555982	0.000000	-0.206268	0.000000	0.000004	-0.000000	0.000000	0.000000
23.832249	15.051370	17.905355	0.744335	-0.748160	2.480799	0.000000	-0.135055	0.000000	0.000004	-0.000000	0.000000	0.000000
24.273209	14.582003	18.373362	0.324123	-0.309139	2.436649	0.000000	-0.065380	0.000000	0.000004	-0.000000	0.000000	0.000000
24.715418	14.475439	18.446237	-0.045871	0.098644	2.423026	0.000000	-0.002392	0.000000	0.000004	0.000000	0.000000	0.000000
25.012741	14.508836	18.392418	-0.066454	0.082369	2.422315	0.000000	-0.002392	0.000000	0.000004	0.000000	0.000000	0.000000
25.346075	14.560831	18.343587	-0.089530	0.064123	2.421518	0.000000	-0.002392	0.000000	0.000004	0.000000	0.000000	0.000000
25.679408	14.628210	18.306921	-0.112606	0.045876	2.420721	0.000000	-0.002392	0.000000	0.000004	0.000000	0.000000	0.000000
26.013991	14.711014	18.282720	-0.016423	-0.120757	2.419896	0.000000	-0.022024	0.000000	0.000004	0.000000	0.000000	0.000000
26.311314	14.726791	18.359433	-0.000527	-0.182277	2.413348	0.000000	-0.027942	0.000000	0.000004	0.000000	0.000000	0.000000
26.752274	14.908719	18.321032	-0.413611	0.269031	2.416136	0.000000	0.040599	0.000000	0.000004	0.000000	0.000000	0.000000
27.193234	15.461878	17.888511	-0.845592	0.708099	2.449221	0.000000	0.109602	0.000000	0.000004	0.000000	0.000000	0.000000
27.634194	16.411542	17.081549	-1.316205	1.114949	2.512979	0.000000	0.179854	0.000000	0.000004	0.000000	0.000000	0.000000
28.075154	17.801097	15.936862	-1.846953	1.471070	2.608137	0.000000	0.252154	0.000000	0.000005	0.000000	0.000000	0.000000
28.521114	19.718174	14.489293	-2.467040	1.761171	2.737382	0.000000	0.327769	0.000000	0.000005	0.000001	0.000000	0.000000
29.070174	22.154789	12.876283	-1.944482	1.193936	2.894685	0.000000	0.244377	0.000000	0.000005	0.000000	0.000000	0.000000
29.619234	23.938294	11.836090	-1.284577	0.711743	3.004941	0.000000	0.156649	0.000000	0.000005	0.000000	0.000000	0.000000
30.168294	24.942712	11.294625	-0.533935	0.280245	3.066194	0.000000	0.066144	0.000000	0.000005	0.000000	0.000000	0.000000
30.717354	25.097095	11.213320	0.254421	-0.131291	3.077359	0.000000	-0.025535	0.000000	0.000005	-0.000000	0.000000	0.000000
31.015927	24.988003	11.282258	0.176529	-0.128897	3.072136	0.000000	-0.017495	0.000000	0.000005	-0.000000	0.000000	0.000000
31.349260	24.874902	11.378202	0.162774	-0.158933	3.066304	0.000000	-0.017495	0.000000	0.000005	-0.000000	0.000000	0.000000
31.682593	24.770971	11.494169	0.149018	-0.188969	3.060473	0.000000	-0.017495	0.000000	0.000005	-0.000000	0.000000	0.000000
32.017177	24.675872	11.630708	0.135211	-0.219117	3.054619	0.000000	-0.017495	0.000000	0.000005	-0.000000	0.000000	0.000000
32.314499	24.599117	11.768971	0.058672	-0.215160	3.049418	0.000000	-0.009528	0.000000	0.000005	-0.000000	0.000000	0.000000
32.863559	24.113284	12.244566	0.820935	-0.656154	3.019306	0.000000	-0.099994	0.000000	0.000005	-0.000000	0.000000	0.000000
33.412619	22.817437	13.227095	1.525212	-1.143884	2.939938	0.000000	-0.188687	0.000000	0.000005	-0.000000	0.000000	0.000000
33.961679	20.803109	14.786541	2.121755	-1.713090	2.812721	0.000000	-0.274033	0.000000	0.000005	-0.000001	0.000000	0.000000
34.510739	18.212582	17.033978	2.568428	-2.404317	2.639910	0.000000	-0.354519	0.000000	0.000004	-0.000001	0.000000	0.000000
34.956699	16.198453	19.044169	1.964143	-2.084419	2.498150	0.000000	-0.281595	0.000000	0.000004	-0.000001	0.000000	0.000000
35.397659	14.696622	20.706232	1.454598	-1.670430	2.389358	0.000000	-0.212306	0.000000	0.000004	-0.000000	0.000000	0.000000
35.838619	13.613277	21.968153	1.011510	-1.180438	2.310559	0.000000	-0.145435	0.000000	0.000004	-0.000000	0.000000	0.000000
36.279579	12.898922	22.772516	0.614634	-0.636737	2.260854	0.000000	-0.080221	0.000000	0.000003	-0.000000	0.000000	0.000000
36.721789	12.520230	23.083024	0.276436	-0.120724	2.239650	0.000000	-0.021412	0.000000	0.000003	-0.000000	0.000000	0.000000
37.019112	12.363449	23.158698	0.250874	-0.133792	2.233284	0.000000	-0.021412	0.000000	0.000003	-0.000000	0.000000	0.000000
37.352445	12.205752	23.252777	0.222216	-0.148444	2.226146	0.000000	-0.021412	0.000000	0.000003	-0.000000	0.000000	0.000000
37.685779	12.067161	23.356623	0.193558	-0.163095	2.219009	0.000000	-0.021412	0.000000	0.000003	-0.000000	0.000000	0.000000
38.020362	11.947263	23.470681	0.164793	-0.177801	2.211845	0.000000	-0.021412	0.000000	0.000003	-0.000000	0.000000	0.000000
38.317684	11.856870	23.580295	0.168306	-0.248693	2.205479	0.000000	-0.026821	0.000000	0.000003	-0.000000	0.000000	0.000000
38.758644	11.859664	23.538457	-0.174666	0.343210	2.207578	0.000000	0.036353	0.000000	0.000003	-0.000000	0.000000	0.000000
39.199604	12.167294	22.979526	-0.525619	0.919498	2.237599	0.000000	0.099940	0.000000	0.000003	-0.000000	0.000000	0.000000
39.640564	12.793817	21.928933	-0.900585	1.453949	2.295884	0.000000	0.164665	0.000000	0.000003	0.000000	0.000000	0.000000
40.081524	13.767854	20.434479	-1.316697	1.922247	2.383096	0.000000	0.231266	0.000000	0.000003	0.000000	0.000000	0.000000
40.527484	15.151474	18.541592	-1.796789	2.304363	2.501700	0.000000	0.300906	0.000000	0.000003	0.000000	0.000000	0.000000
41.076544	16.917343	16.414548	-1.400339	1.592478	2.646387	0.000000	0.225354	0.000000	0.000003	0.000000	0.000000	0.000000
41.625604	18.190636	15.002738	-0.904975	0.994021	2.748432	0.000000	0.145805	0.000000	0.000003	-0.000000	0.000000	0.000000
42.174664	18.881415	14.205603	-0.345689	0.466366	2.806024	0.000000	0.063670	0.000000	0.000003	-0.000000	0.000000	0.000000
42.723724	18.940886	13.966364	0.238015	-0.028070	2.818142	0.000000	-0.019594	0.000000	0.000003	-0.000000	0.000000	0.000000
43.022297	18.833182	13.967719	0.172204	-0.012959	2.814491	0.000000	-0.012231	0.000000	0.000003	-0.000000	0.000000	0.000000
43.502297	18.680463	13.996658	0.145961	-0.047330	2.808620	0.000000	-0.012231	0.000000	0.000003	-0.000000	0.000000	0.000000
43.982297	18.552937	14.058592	0.119718	-0.081700	2.802749	0.000000	-0.012231	0.000000	0.000003	-0.000000	0.000000	0.000000
44.462297	18.450604	14.153522	0.093476	-0.116071	2.796878	0.000000	-0.012231	0.000000	0.000002	-0.000000	0.000000	0.000000
44.942297	18.373464	14.281448	0.067233	-0.150442	2.791007	0.000000	-0.012231	0.000000	0.000002	-0.000000	0.000000	0.000000
45.423547	18.321641	14.442654	-0.049854	-0.113344	2.785139	0.000000	0.001568	0.000000	0.000002	-0.000000	0.000000	0.000000
45.720870	18.356123	14.516253	-0.114082	-0.096267	2.785605	0.000000	0.008846	0.000000	0.000002	-0.000000	0.000000	0.000000
46.269930	18.172312	14.902791	0.446875	-0.611888	2.767892	0.000000	-0.073273	0.000000	0.000002	-0.000000	0.000000	0.000000
46.818990	17.386269	15.876008	0.976267	-1.171091	2.705381	0.000000	-0.154093	0.000000	0.000002	-0.000000	0.000000	0.000000
47.368050	16.053516	17.505226	1.436700	-1.813709	2.599181	0.000000	-0.232180	0.000000	0.000002	-0.000000	0.000000	0.000000
47.917110	14.268192	19.906489	1.795652	-2.585513	2.451177	0.000000	-0.306148	0.000000	0.000001	-0.000000	0.000000	0.000000
48.363070	12.878749	22.041512	1.331009	-2.181837	2.329938	0.000000	-0.237853	0.000000	0.000001	-0.000000	0.000000	0.000000
48.804030	11.885088	23.751002	0.930944	-1.680158	2.239514	0.000000	-0.172664	0.000000	0.000001	-0.000000	0.000000	0.000000
49.244990	11.224235	24.982524	0.573410	-1.102033	2.177374	0.000000	-0.109442	0.000000	0.000001	-0.000000	0.000000	0.000000
49.685950	10.865997	25.680043	0.242074	-0.473767	2.142812	0.000000	-0.047465	0.000000	0.000001	-0.000000	0.000000	0.000000
50.128160	10.794139	25.811542	-0.051848	0.112708	2.135445	0.000000	0.008733	0.000000	0.000001	-0.000000	0.000000	0.000000
50.425482	10.833182	25.747988	-0.079467	0.101043	2.138042	0.000000	0.008733	0.000000	0.000001	-0.000000	0.000000	0.000000
50.758816	10.896481	25.684986	-0.110431	0.087965	2.140953	0.000000	0.008733	0.000000	0.000000	-0.000000	0.000000	0.000000
51.092149	10.980423	25.630702	-0.141395	0.074887	2.143865	0.000000	0.008733	0.000000	0.000000	-0.000000	0.000000	0.000000
51.426732	11.085213	25.585501	-0.082544	-0.145803	2.146765	0.000000	-0.008683	0.000000	0.000000	-0.000000	0.000000	0.000000
51.724055	11.142327	25.675731	-0.082224	-0.220635	2.144183	0.000000	-0.013941	0.000000	0.000000	-0.000000	0.000000	0.000000
52.165015	11.360294	25.584690	-0.413953	0.426310	2.151624	0.000000	0.047721	0.000000	-0.000000	-0.000000	0.000000	0.000000
52.605975	11.878022	24.929501	-0.764593	1.053858	2.186350	0.000000	0.109926	0.000000	-0.000000	-0.000000	0.000000	0.000000
53.046935	12.719163	23.739976	-1.150166	1.633457	2.248755	0.000000	0.173384	0.000000	-0.000000	-0.000000	0.000000	0.000000
53.487895	13.922147	22.070237	-1.588287	2.138735	2.339550	0.000000	0.238816	0.000000	-0.000000	-0.000000	0.000000	0.000000
53.933855	15.562553	19.971287	-2.103208	2.548036	2.461275	0.000000	0.307367	0.000000	-0.000001	-0.000000	0.000000	0.000000
54.482915	17.674476	17.609518	-1.720457	1.778831	2.609858	0.000000	0.233062	0.000000	-0.000001	-0.000000	0.000000	0.000000
55.031975	19.296468	16.018314	-1.216182	1.136328	2.716446	0.000000	0.154623	0.000000	-0.000001	-0.000000	0.000000	0.000000
55.581035	20.313960	15.084335	-0.626001	0.574763	2.779149	0.000000	0.073441	0.000000	-0.000001	-0.000000	0.000000	0.000000
56.130095	20.655082	14.741057	0.008397	0.054138	2.796854	0.000000	-0.009043	0.000000	-0.000001	-0.000000	0.000000	0.000000
56.428668	20.686619	14.691828	-0.060057	0.072225	2.796336	0.000000	-0.001735	0.000000	-0.000001	-0.000000	0.000000	0.000000
56.762001	20.732048	14.651280	-0.076228	0.049419	2.795758	0.000000	-0.001735	0.000000	-0.000001	-0.000000	0.000000	0.000000
57.095334	20.788257	14.625937	-0.092400	0.026612	2.795179	0.000000	-0.001735	0.000000	-0.000002	-0.000000	0.000000	0.000000
57.429918	20.855519	14.615788	-0.108632	0.003720	2.794599	0.000000	-0.001735	0.000000	-0.000002	-0.000000	0.000000	0.000000
57.727240	20.924406	14.619625	-0.177729	0.021576	2.794083	0.000000	0.005565	0.000000	-0.000002	-0.000000	0.000000	0.000000
58.276300	20.762544	14.876734	0.470781	-0.492612	2.774499	0.000000	-0.076799	0.000000	-0.000002	-0.000000	0.000000	0.000000
58.825360	19.902668	15.714323	1.086037	-1.041888	2.709999	0.000000	-0.157800	0.000000	-0.000002	-0.000000	0.000000	0.000000
59.374420	18.405513	17.192050	1.624581	-1.665375	2.601729	0.000000	-0.236003	0.000000	-0.000002	-0.000000	0.000000	0.000000
59.923480	16.376832	19.415171	2.048373	-2.407483	2.451609	0.000000	-0.310020	0.000000	-0.000002	0.000000	0.000000	0.000000
60.369440	14.788915	21.391165	1.524906	-2.004693	2.328643	0.000000	-0.241736	0.000000	-0.000002	-0.000000	0.000000	0.000000
60.810400	13.646654	22.947837	1.075318	-1.512062	2.236495	0.000000	-0.176602	0.000000	-0.000002	-0.000000	0.000000	0.000000
61.251360	12.877813	24.037936	0.674859	-0.950633	2.172599	0.000000	-0.113480	0.000000	-0.000002	-0.000000	0.000000	0.000000
61.692320	12.447265	24.611862	0.305232	-0.345952	2.136225	0.000000	-0.051651	0.000000	-0.000002	-0.000000	0.000000	0.000000
62.134530	12.335392	24.642967	-0.020301	0.213983	2.126966	0.000000	0.004374	0.000000	-0.000002	-0.000000	0.000000	0.000000
62.431853	12.354633	24.519475	-0.044414	0.201366	2.128267	0.000000	0.004374	0.000000	-0.000002	-0.000000	0.000000	0.000000
62.765186	12.393254	24.389946	-0.071448	0.187220	2.129725	0.000000	0.004374	0.000000	-0.000002	-0.000000	0.000000	0.000000
63.098520	12.449897	24.269848	-0.098481	0.173074	2.131183	0.000000	0.004374	0.000000	-0.000002	-0.000000	0.000000	0.000000
63.433103	12.524876	24.158784	-0.125616	0.158875	2.132647	0.000000	0.004374	0.000000	-0.000003	-0.000000	0.000000	0.000000
63.730426	12.606743	24.068061	-0.118813	0.087234	2.133948	0.000000	-0.000859	0.000000	-0.000003	-0.000000	0.000000	0.000000
64.171386	12.872015	23.726052	-0.485049	0.685415	2.147110	0.000000	0.060613	0.000000	-0.000003	-0.000000	0.000000	0.000000
64.612346	13.468793	22.868285	-0.873445	1.252410	2.187505	0.000000	0.122775	0.000000	-0.000003	-0.000000	0.000000	0.000000
65.053306	14.424339	21.533787	-1.301746	1.762422	2.255593	0.000000	0.186335	0.000000	-0.000003	-0.000000	0.000000	0.000000
65.494266	15.782312	19.783276	-1.789520	2.192245	2.352150	0.000000	0.252018	0.000000	-0.000003	-0.000001	0.000000	0.000000
65.940226	17.627920	17.671620	-2.363746	2.523079	2.479847	0.000000	0.320973	0.000000	-0.000004	-0.000001	0.000000	0.000000
66.489286	19.993643	15.309264	-1.919427	1.804863	2.635713	0.000000	0.245948	0.000000	-0.000004	-0.000001	0.000000	0.000000
67.038346	21.793661	13.660797	-1.339531	1.215204	2.749126	0.000000	0.166561	0.000000	-0.000004	-0.000000	0.000000	0.000000
67.587406	22.900832	12.608801	-0.665016	0.712101	2.818075	0.000000	0.084219	0.000000	-0.000004	-0.000000	0.000000	0.000000
68.136466	23.236949	12.078345	0.056472	0.259719	2.841335	0.000000	0.000384	0.000000	-0.000004	-0.000000	0.000000	0.000000
68.435038	23.243320	11.912416	-0.017094	0.264462	2.843667	0.000000	0.007808	0.000000	-0.000004	-0.000000	0.000000	0.000000
68.768372	23.259497	11.746088	-0.031439	0.234523	2.846269	0.000000	0.007808	0.000000	-0.000004	-0.000000	0.000000	0.000000
69.101705	23.285238	11.599719	-0.045784	0.204584	2.848872	0.000000	0.007808	0.000000	-0.000004	-0.000000	0.000000	0.000000
69.436288	23.320693	11.472873	-0.060183	0.174532	2.851485	0.000000	0.007808	0.000000	-0.000005	-0.000000	0.000000	0.000000
69.733611	23.360285	11.377028	-0.134017	0.177555	2.853806	0.000000	0.015265	0.000000	-0.000005	-0.000000	0.000000	0.000000
70.282671	23.106260	11.409829	0.593933	-0.237647	2.839002	0.000000	-0.069112	0.000000	-0.000005	0.000000	0.000000	0.000000
