#ParticleID	Turn	x[m]	xp	y[m]	yp	z[m]	dE[GeV]# s	beta_x	beta_y	alpha_x	alpha_y	D_x	D_y	D_px	D_py	orbit_x	orbit_px	orbit_y	orbit_py
0.300000	11.810360	25.033054	-0.010639	-0.027132	2.618087	0.000000	0.000022	0.000000	-0.000001	0.000001	0.000000	0.000000
0.601250	11.824455	25.053029	-0.036149	-0.039175	2.618093	0.000000	0.000022	0.000000	-0.000000	0.000001	0.000000	0.000000
0.898573	11.853436	25.079858	-0.032258	-0.112564	2.618099	0.000000	-0.006398	0.000000	-0.000000	0.000001	0.000000	0.000000
1.339533	12.033973	24.900919	-0.378711	0.516814	2.631570	0.000000	0.067559	0.000000	0.000001	0.000002	0.000000	0.000000
1.780493	12.526499	24.175207	-0.742467	1.122677	2.677792	0.000000	0.142285	0.000000	0.000001	0.000002	0.000000	0.000000
2.221453	13.353518	22.935742	-1.140144	1.677460	2.757291	0.000000	0.218632	0.000000	0.000002	0.000002	0.000000	0.000000
2.662413	14.552813	21.238918	-1.589910	2.155919	2.870972	0.000000	0.297469	0.000000	0.000003	0.000002	0.000000	0.000000
3.108373	16.199911	19.137057	-2.116603	2.537418	3.021991	0.000000	0.380184	0.000000	0.000003	0.000002	0.000000	0.000000
3.657433	18.312053	16.776334	-1.707456	1.787532	3.205462	0.000000	0.287145	0.000000	0.000004	0.000002	0.000000	0.000000
4.206493	19.905611	15.164747	-1.177702	1.164968	3.336374	0.000000	0.189014	0.000000	0.000005	0.000001	0.000000	0.000000
4.755553	20.868026	14.187506	-0.564761	0.625382	3.412405	0.000000	0.087530	0.000000	0.000006	0.000001	0.000000	0.000000
5.304613	21.131316	13.775004	0.088071	0.130340	3.432207	0.000000	-0.015506	0.000000	0.000007	0.000001	0.000000	0.000000
5.603185	21.115916	13.682332	0.018718	0.144055	3.430254	0.000000	-0.006539	0.000000	0.000007	0.000001	0.000000	0.000000
5.936519	21.108701	13.594585	0.002926	0.119187	3.428074	0.000000	-0.006539	0.000000	0.000007	0.000001	0.000000	0.000000
6.269852	21.112014	13.523417	-0.012865	0.094319	3.425894	0.000000	-0.006539	0.000000	0.000008	0.000001	0.000000	0.000000
6.604435	21.125926	13.468653	-0.028716	0.069358	3.423706	0.000000	-0.006539	0.000000	0.000008	0.000001	0.000000	0.000000
6.901758	21.147190	13.434005	-0.098051	0.082275	3.421762	0.000000	0.002401	0.000000	0.000008	0.000001	0.000000	0.000000
7.450818	20.894465	13.604533	0.555613	-0.394689	3.394878	0.000000	-0.100182	0.000000	0.000009	0.000001	0.000000	0.000000
7.999878	19.941340	14.311095	1.170032	-0.899766	3.312075	0.000000	-0.200988	0.000000	0.000009	0.000001	0.000000	0.000000
8.548938	18.355139	15.604020	1.701806	-1.468930	3.174822	0.000000	-0.298230	0.000000	0.000009	0.000000	0.000000	0.000000
9.097998	16.247904	17.575398	2.113372	-2.142724	2.985554	0.000000	-0.390181	0.000000	0.000009	-0.000000	0.000000	0.000000
9.543958	14.603899	19.331983	1.586175	-1.779510	2.829856	0.000000	-0.308472	0.000000	0.000009	0.000000	0.000000	0.000000
9.984918	13.408182	20.711295	1.135732	-1.336564	2.711079	0.000000	-0.230761	0.000000	0.000010	0.000000	0.000000	0.000000
10.425878	12.585425	21.671555	0.737178	-0.832805	2.625958	0.000000	-0.155678	0.000000	0.000010	0.000001	0.000000	0.000000
10.866838	12.098037	22.169069	0.372304	-0.291155	2.573523	0.000000	-0.082368	0.000000	0.000010	0.000001	0.000000	0.000000
11.309048	11.923617	22.180680	0.053571	0.209294	2.553157	0.000000	-0.016256	0.000000	0.000011	0.000001	0.000000	0.000000
11.606371	11.899196	22.060384	0.028564	0.195303	2.548323	0.000000	-0.016256	0.000000	0.000011	0.000001	0.000000	0.000000
12.086371	11.891153	21.883735	-0.011808	0.172714	2.540520	0.000000	-0.016256	0.000000	0.000011	0.000001	0.000000	0.000000
12.566371	11.921867	21.728772	-0.052180	0.150126	2.532716	0.000000	-0.016256	0.000000	0.000012	0.000001	0.000000	0.000000
13.046371	11.991338	21.595494	-0.092551	0.127538	2.524912	0.000000	-0.016256	0.000000	0.000013	0.000001	0.000000	0.000000
13.526371	12.099566	21.483900	-0.132923	0.104949	2.517109	0.000000	-0.016256	0.000000	0.000013	0.000001	0.000000	0.000000
14.007621	12.246984	21.393786	-0.173400	0.082302	2.509285	0.000000	-0.016256	0.000000	0.000014	0.000001	0.000000	0.000000
14.304943	12.357531	21.349005	-0.168107	0.015963	2.504451	0.000000	-0.022397	0.000000	0.000014	0.000001	0.000000	0.000000
14.745903	12.664301	21.101268	-0.530218	0.543711	2.510207	0.000000	0.048530	0.000000	0.000015	0.000001	0.000000	0.000000
15.186863	13.299858	20.397273	-0.916554	1.046720	2.547331	0.000000	0.120011	0.000000	0.000015	0.000002	0.000000	0.000000
15.627823	14.293241	19.269050	-1.344764	1.502104	2.616246	0.000000	0.192858	0.000000	0.000016	0.000002	0.000000	0.000000
16.068783	15.689833	17.767933	-1.834413	1.889143	2.717736	0.000000	0.267902	0.000000	0.000017	0.000003	0.000000	0.000000
16.514743	17.577100	15.940720	-2.412628	2.190972	2.854654	0.000000	0.346459	0.000000	0.000019	0.000003	0.000000	0.000000
17.063803	20.001071	13.900493	-1.976002	1.546814	3.021147	0.000000	0.259118	0.000000	0.000020	0.000003	0.000000	0.000000
17.612863	21.865628	12.503341	-1.399800	1.012831	3.138350	0.000000	0.167181	0.000000	0.000021	0.000002	0.000000	0.000000
18.161923	23.039066	11.649747	-0.724723	0.550991	3.204185	0.000000	0.072279	0.000000	0.000022	0.000001	0.000000	0.000000
18.710983	23.438499	11.278911	0.001544	0.128396	3.217484	0.000000	-0.023906	0.000000	0.000023	0.000000	0.000000	0.000000
19.009556	23.477957	11.192746	-0.072469	0.130729	3.212856	0.000000	-0.015501	0.000000	0.000023	0.000000	0.000000	0.000000
19.342889	23.531027	11.115690	-0.086741	0.100439	3.207689	0.000000	-0.015501	0.000000	0.000023	0.000000	0.000000	0.000000
19.676223	23.593611	11.058828	-0.101013	0.070149	3.202521	0.000000	-0.015501	0.000000	0.000023	0.000000	0.000000	0.000000
20.010806	23.666292	11.021923	-0.232595	0.094354	3.197355	0.000000	0.000341	0.000000	0.000023	0.000001	0.000000	0.000000
20.308129	23.808541	10.973907	-0.308033	0.095806	3.197456	0.000000	0.008693	0.000000	0.000024	0.000001	0.000000	0.000000
20.857189	23.736156	11.090755	0.439088	-0.309875	3.176006	0.000000	-0.086710	0.000000	0.000024	-0.000000	0.000000	0.000000
21.406249	22.855587	11.662522	1.155193	-0.737628	3.102520	0.000000	-0.180576	0.000000	0.000023	-0.000001	0.000000	0.000000
21.955309	21.229034	12.729936	1.789701	-1.217921	2.978301	0.000000	-0.271238	0.000000	0.000023	-0.000002	0.000000	0.000000
22.504369	18.971389	14.369025	2.297794	-1.784964	2.805553	0.000000	-0.357090	0.000000	0.000022	-0.000002	0.000000	0.000000
22.950329	17.192111	15.840673	1.706057	-1.501067	2.663602	0.000000	-0.279872	0.000000	0.000021	-0.000002	0.000000	0.000000
23.391289	15.916833	17.014032	1.196962	-1.149726	2.556514	0.000000	-0.206295	0.000000	0.000020	-0.000001	0.000000	0.000000
23.832249	15.064816	17.853197	0.742553	-0.746074	2.481322	0.000000	-0.135069	0.000000	0.000020	-0.000001	0.000000	0.000000
24.273209	14.597134	18.319988	0.322070	-0.308476	2.437169	0.000000	-0.065381	0.000000	0.000019	-0.000000	0.000000	0.000000
24.715418	14.492540	18.392920	-0.048253	0.097992	2.423549	0.000000	-0.002379	0.000000	0.000019	0.000000	0.000000	0.000000
25.012741	14.527347	18.339502	-0.068816	0.081672	2.422842	0.000000	-0.002379	0.000000	0.000020	0.000000	0.000000	0.000000
25.346075	14.580909	18.291153	-0.091870	0.063375	2.422049	0.000000	-0.002379	0.000000	0.000020	0.000000	0.000000	0.000000
25.679408	14.649840	18.255002	-0.114924	0.045078	2.421255	0.000000	-0.002379	0.000000	0.000020	0.000000	0.000000	0.000000
26.013991	14.734187	18.231352	-0.018531	-0.121189	2.420435	0.000000	-0.022016	0.000000	0.000020	0.000000	0.000000	0.000000
26.311314	14.751208	18.308337	-0.002549	-0.182626	2.413889	0.000000	-0.027934	0.000000	0.000020	0.000000	0.000000	0.000000
26.752274	14.935191	18.270854	-0.416265	0.267306	2.416683	0.000000	0.040621	0.000000	0.000020	0.000001	0.000000	0.000000
27.193234	15.491013	17.840435	-0.848999	0.705075	2.449781	0.000000	0.109638	0.000000	0.000020	0.000001	0.000000	0.000000
27.634194	16.444070	17.036663	-1.320521	1.110764	2.513558	0.000000	0.179905	0.000000	0.000021	0.000002	0.000000	0.000000
28.075154	17.837903	15.896110	-1.852374	1.465915	2.608741	0.000000	0.252220	0.000000	0.000022	0.000002	0.000000	0.000000
28.521114	19.760405	14.453488	-2.473826	1.755279	2.738019	0.000000	0.327851	0.000000	0.000023	0.000003	0.000000	0.000000
29.070174	22.203918	12.846165	-1.950183	1.189409	2.895359	0.000000	0.244437	0.000000	0.000024	0.000002	0.000000	0.000000
29.619234	23.992898	11.810346	-1.288788	0.708258	3.005642	0.000000	0.156688	0.000000	0.000025	0.000001	0.000000	0.000000
30.168294	25.000981	11.272252	-0.536359	0.277555	3.066910	0.000000	0.066159	0.000000	0.000025	0.000000	0.000000	0.000000
30.717354	25.156962	11.193555	0.253955	-0.133379	3.078077	0.000000	-0.025543	0.000000	0.000025	-0.000000	0.000000	0.000000
31.015927	25.048225	11.263791	0.175949	-0.131101	3.072851	0.000000	-0.017502	0.000000	0.000025	-0.000000	0.000000	0.000000
31.349260	24.935499	11.361226	0.162230	-0.161203	3.067018	0.000000	-0.017502	0.000000	0.000025	-0.000000	0.000000	0.000000
31.682593	24.831919	11.478729	0.148510	-0.191305	3.061184	0.000000	-0.017502	0.000000	0.000025	-0.000000	0.000000	0.000000
32.017177	24.737149	11.616854	0.134739	-0.221520	3.055328	0.000000	-0.017502	0.000000	0.000025	-0.000000	0.000000	0.000000
32.314499	24.660665	11.756563	0.058081	-0.217659	3.050124	0.000000	-0.009534	0.000000	0.000025	-0.000000	0.000000	0.000000
32.863559	24.174355	12.234771	0.822390	-0.658440	3.020004	0.000000	-0.100024	0.000000	0.000024	-0.000001	0.000000	0.000000
33.412619	22.875827	13.219770	1.528610	-1.146121	2.940614	0.000000	-0.188739	0.000000	0.000023	-0.000002	0.000000	0.000000
33.961679	20.856803	14.781718	2.126856	-1.715438	2.813363	0.000000	-0.274106	0.000000	0.000022	-0.000003	0.000000	0.000000
34.510739	18.259899	17.031870	2.574871	-2.406941	2.640508	0.000000	-0.354612	0.000000	0.000020	-0.000003	0.000000	0.000000
34.956699	16.240673	19.044565	1.969167	-2.087387	2.498710	0.000000	-0.281673	0.000000	0.000019	-0.000003	0.000000	0.000000
35.397659	14.734944	20.709346	1.458445	-1.673602	2.389888	0.000000	-0.212370	0.000000	0.000018	-0.000002	0.000000	0.000000
35.838619	13.648658	21.974102	1.014355	-1.183670	2.311064	0.000000	-0.145486	0.000000	0.000017	-0.000002	0.000000	0.000000
36.279579	12.932186	22.781287	0.616608	-0.639882	2.261340	0.000000	-0.080259	0.000000	0.000016	-0.000001	0.000000	0.000000
36.721789	12.552100	23.094484	0.277704	-0.123659	2.240122	0.000000	-0.021438	0.000000	0.000016	-0.000001	0.000000	0.000000
37.019112	12.394551	23.171904	0.252190	-0.136730	2.233749	0.000000	-0.021438	0.000000	0.000015	-0.000001	0.000000	0.000000
37.352445	12.235959	23.267942	0.223586	-0.151385	2.226603	0.000000	-0.021438	0.000000	0.000015	-0.000001	0.000000	0.000000
37.685779	12.096436	23.373750	0.194982	-0.166039	2.219457	0.000000	-0.021438	0.000000	0.000015	-0.000001	0.000000	0.000000
38.020362	11.975567	23.489779	0.166271	-0.180748	2.212285	0.000000	-0.021438	0.000000	0.000014	-0.000001	0.000000	0.000000
38.317684	11.884281	23.601147	0.169897	-0.251689	2.205911	0.000000	-0.026847	0.000000	0.000014	-0.000001	0.000000	0.000000
38.758644	11.885944	23.561698	-0.173683	0.340808	2.208001	0.000000	0.036337	0.000000	0.000014	-0.000001	0.000000	0.000000
39.199604	12.192958	23.004582	-0.525199	0.917799	2.238018	0.000000	0.099935	0.000000	0.000013	-0.000000	0.000000	0.000000
39.640564	12.819350	21.955148	-0.900709	1.453031	2.296303	0.000000	0.164671	0.000000	0.000013	-0.000000	0.000000	0.000000
40.081524	13.793738	20.461142	-1.317370	1.922150	2.383520	0.000000	0.231283	0.000000	0.000013	0.000000	0.000000	0.000000
40.527484	15.178216	18.567968	-1.798046	2.305099	2.502135	0.000000	0.300934	0.000000	0.000013	0.000001	0.000000	0.000000
41.076544	16.944917	16.440485	-1.400590	1.592546	2.646833	0.000000	0.225368	0.000000	0.000014	0.000000	0.000000	0.000000
41.625604	18.217923	15.028962	-0.904204	0.993427	2.748882	0.000000	0.145805	0.000000	0.000014	-0.000000	0.000000	0.000000
42.174664	18.907315	14.232859	-0.343950	0.465068	2.806470	0.000000	0.063655	0.000000	0.000013	-0.000001	0.000000	0.000000
42.723724	18.964398	13.995473	0.240600	-0.030166	2.818576	0.000000	-0.019624	0.000000	0.000013	-0.000001	0.000000	0.000000
43.022297	18.855183	13.998022	0.174736	-0.014936	2.814916	0.000000	-0.012260	0.000000	0.000012	-0.000001	0.000000	0.000000
43.502297	18.700029	14.028824	0.148502	-0.049234	2.809032	0.000000	-0.012260	0.000000	0.000012	-0.000001	0.000000	0.000000
43.982297	18.570060	14.092552	0.122267	-0.083532	2.803147	0.000000	-0.012260	0.000000	0.000011	-0.000001	0.000000	0.000000
44.462297	18.465276	14.189206	0.096033	-0.117831	2.797263	0.000000	-0.012260	0.000000	0.000011	-0.000001	0.000000	0.000000
44.942297	18.385677	14.318787	0.069798	-0.152129	2.791379	0.000000	-0.012260	0.000000	0.000010	-0.000001	0.000000	0.000000
45.423547	18.331381	14.481580	-0.047328	-0.114766	2.785497	0.000000	0.001541	0.000000	0.000010	-0.000001	0.000000	0.000000
45.720870	18.364358	14.556010	-0.111563	-0.097538	2.785955	0.000000	0.008820	0.000000	0.000009	-0.000001	0.000000	0.000000
46.269930	18.177650	14.944616	0.449599	-0.614405	2.768225	0.000000	-0.073311	0.000000	0.000009	-0.000001	0.000000	0.000000
46.818990	17.388590	15.921359	0.979003	-1.175034	2.705691	0.000000	-0.154141	0.000000	0.000008	-0.000002	0.000000	0.000000
47.368050	16.052914	17.555813	1.439255	-1.819358	2.599463	0.000000	-0.232238	0.000000	0.000007	-0.000002	0.000000	0.000000
47.917110	14.264967	19.964393	1.797846	-2.593271	2.451425	0.000000	-0.306215	0.000000	0.000006	-0.000002	0.000000	0.000000
48.363070	12.873638	22.105791	1.333060	-2.188312	2.330159	0.000000	-0.237913	0.000000	0.000005	-0.000002	0.000000	0.000000
48.804030	11.878195	23.820319	0.932947	-1.685062	2.239709	0.000000	-0.172719	0.000000	0.000004	-0.000002	0.000000	0.000000
49.244990	11.215562	25.055387	0.575459	-1.105143	2.177548	0.000000	-0.109492	0.000000	0.000004	-0.000002	0.000000	0.000000
49.685950	10.855465	25.754803	0.244261	-0.474941	2.142965	0.000000	-0.047511	0.000000	0.000003	-0.000002	0.000000	0.000000
50.128160	10.781574	25.886458	-0.049454	0.113342	2.135579	0.000000	0.008691	0.000000	0.000002	-0.000002	0.000000	0.000000
50.425482	10.819201	25.822519	-0.077099	0.101709	2.138164	0.000000	0.008691	0.000000	0.000002	-0.000002	0.000000	0.000000
50.758816	10.880931	25.759061	-0.108091	0.088667	2.141061	0.000000	0.008691	0.000000	0.000001	-0.000002	0.000000	0.000000
51.092149	10.963322	25.704297	-0.139084	0.075624	2.143959	0.000000	0.008691	0.000000	0.000001	-0.000002	0.000000	0.000000
51.426732	11.066576	25.658592	-0.080413	-0.145622	2.146845	0.000000	-0.008726	0.000000	0.000000	-0.000002	0.000000	0.000000
51.724055	11.122434	25.748704	-0.080178	-0.220599	2.144251	0.000000	-0.013984	0.000000	-0.000000	-0.000002	0.000000	0.000000
52.165015	11.338381	25.656779	-0.411401	0.428271	2.151674	0.000000	0.047679	0.000000	-0.000001	-0.000002	0.000000	0.000000
52.605975	11.853593	24.999042	-0.761420	1.057656	2.186381	0.000000	0.109886	0.000000	-0.000002	-0.000002	0.000000	0.000000
53.046935	12.691609	23.805419	-1.146225	1.638917	2.248769	0.000000	0.173344	0.000000	-0.000002	-0.000002	0.000000	0.000000
53.487895	13.890714	22.130219	-1.583399	2.145610	2.339548	0.000000	0.238776	0.000000	-0.000003	-0.000002	0.000000	0.000000
53.933855	15.526251	20.024616	-2.097140	2.556017	2.461255	0.000000	0.307326	0.000000	-0.000004	-0.000002	0.000000	0.000000
54.482915	17.631982	17.655244	-1.715315	1.784781	2.609817	0.000000	0.233022	0.000000	-0.000005	-0.000002	0.000000	0.000000
55.031975	19.249006	16.058421	-1.212329	1.140671	2.716384	0.000000	0.154585	0.000000	-0.000006	-0.000002	0.000000	0.000000
55.581035	20.263104	15.120409	-0.623710	0.577809	2.779068	0.000000	0.073406	0.000000	-0.000007	-0.000001	0.000000	0.000000
56.130095	20.602646	14.774395	0.008964	0.056103	2.796755	0.000000	-0.009075	0.000000	-0.000007	-0.000001	0.000000	0.000000
56.428668	20.633776	14.723928	-0.059391	0.074318	2.796228	0.000000	-0.001767	0.000000	-0.000008	-0.000001	0.000000	0.000000
56.762001	20.678774	14.681971	-0.075603	0.051555	2.795639	0.000000	-0.001767	0.000000	-0.000008	-0.000001	0.000000	0.000000
57.095334	20.734580	14.655189	-0.091815	0.028791	2.795050	0.000000	-0.001767	0.000000	-0.000008	-0.000001	0.000000	0.000000
57.429918	20.801464	14.643568	-0.108087	0.005941	2.794459	0.000000	-0.001767	0.000000	-0.000009	-0.000001	0.000000	0.000000
57.727240	20.870037	14.646072	-0.177081	0.023907	2.793934	0.000000	0.005533	0.000000	-0.000009	-0.000001	0.000000	0.000000
58.276300	20.708468	14.901027	0.469604	-0.490996	2.774334	0.000000	-0.076826	0.000000	-0.000010	-0.000001	0.000000	0.000000
58.825360	19.850854	15.737179	1.083118	-1.040872	2.709821	0.000000	-0.157822	0.000000	-0.000010	-0.000001	0.000000	0.000000
59.374420	18.357772	17.214085	1.620127	-1.664887	2.601541	0.000000	-0.236019	0.000000	-0.000010	-0.000000	0.000000	0.000000
59.923480	16.334685	19.436941	2.042698	-2.407487	2.451413	0.000000	-0.310029	0.000000	-0.000010	0.000000	0.000000	0.000000
60.369440	14.751261	21.412611	1.520472	-2.003962	2.328442	0.000000	-0.241750	0.000000	-0.000010	-0.000000	0.000000	0.000000
60.810400	13.612443	22.968327	1.071914	-1.510634	2.236287	0.000000	-0.176622	0.000000	-0.000010	-0.000000	0.000000	0.000000
61.251360	12.846209	24.056881	0.672329	-0.948573	2.172381	0.000000	-0.113506	0.000000	-0.000010	-0.000001	0.000000	0.000000
61.692320	12.417551	24.628744	0.303460	-0.343353	2.135995	0.000000	-0.051682	0.000000	-0.000011	-0.000001	0.000000	0.000000
62.134530	12.306940	24.657356	-0.021463	0.216962	2.126721	0.000000	0.004337	0.000000	-0.000011	-0.000001	0.000000	0.000000
62.431853	12.326889	24.532094	-0.045633	0.204336	2.128011	0.000000	0.004337	0.000000	-0.000012	-0.000001	0.000000	0.000000
62.765186	12.366343	24.400588	-0.072730	0.190181	2.129458	0.000000	0.004337	0.000000	-0.000012	-0.000001	0.000000	0.000000
63.098520	12.423862	24.278519	-0.099828	0.176026	2.130904	0.000000	0.004337	0.000000	-0.000012	-0.000001	0.000000	0.000000
63.433103	12.499764	24.165482	-0.127027	0.161818	2.132355	0.000000	0.004337	0.000000	-0.000013	-0.000001	0.000000	0.000000
63.730426	12.582486	24.073011	-0.120337	0.090151	2.133645	0.000000	-0.000896	0.000000	-0.000013	-0.000001	0.000000	0.000000
64.171386	12.848871	23.728396	-0.486058	0.688387	2.146790	0.000000	0.060568	0.000000	-0.000014	-0.000001	0.000000	0.000000
64.612346	13.446330	22.868033	-0.873986	1.255302	2.187164	0.000000	0.122722	0.000000	-0.000014	-0.000002	0.000000	0.000000
65.053306	14.402157	21.531068	-1.301844	1.765102	2.255227	0.000000	0.186273	0.000000	-0.000015	-0.000002	0.000000	0.000000
65.494266	15.760022	19.778332	-1.789179	2.194591	2.351755	0.000000	0.251946	0.000000	-0.000016	-0.000003	0.000000	0.000000
65.940226	17.605122	17.664775	-2.362947	2.524981	2.479418	0.000000	0.320890	0.000000	-0.000018	-0.000003	0.000000	0.000000
66.489286	19.970461	15.300399	-1.919533	1.806664	2.635244	0.000000	0.245880	0.000000	-0.000019	-0.000002	0.000000	0.000000
67.038346	21.771090	13.649951	-1.340532	1.217033	2.748625	0.000000	0.166508	0.000000	-0.000020	-0.000002	0.000000	0.000000
67.587406	22.879822	12.595872	-0.666843	0.714088	2.817550	0.000000	0.084183	0.000000	-0.000021	-0.000001	0.000000	0.000000
68.136466	23.218342	12.063084	0.053948	0.262005	2.840795	0.000000	0.000365	0.000000	-0.000022	-0.000000	0.000000	0.000000
68.435038	23.226200	11.895831	-0.019588	0.266646	2.843121	0.000000	0.007789	0.000000	-0.000022	-0.000001	0.000000	0.000000
68.768372	23.244044	11.728071	-0.033945	0.236633	2.845718	0.000000	0.007789	0.000000	-0.000022	-0.000001	0.000000	0.000000
69.101705	23.271460	11.580320	-0.048303	0.206620	2.848314	0.000000	0.007789	0.000000	-0.000022	-0.000001	0.000000	0.000000
69.436288	23.308605	11.452137	-0.062714	0.176494	2.850920	0.000000	0.007789	0.000000	-0.000022	-0.000001	0.000000	0.000000
69.733611	23.349704	11.355146	-0.136540	0.179397	2.853236	0.000000	0.015245	0.000000	-0.000022	-0.000001	0.000000	0.000000
70.282671	23.098618	11.385580	0.591135	-0.235154	2.838426	0.000000	-0.069113	0.000000	-0.000023	0.000000	0.000000	0.000000
