#ParticleID	Turn	x[m]	xp	y[m]	yp	z[m]	dE[GeV]# s	beta_x	beta_y	alpha_x	alpha_y	D_x	D_y	D_px	D_py	orbit_x	orbit_px	orbit_y	orbit_py
0.300000	11.828424	24.960349	-0.012874	-0.027722	2.618208	0.000000	-0.000024	0.000000	-0.000000	0.000000	0.000000	0.000000
0.601250	11.843854	24.980690	-0.038347	-0.039800	2.618200	0.000000	-0.000024	0.000000	-0.000000	0.000000	0.000000	0.000000
0.898573	11.874131	25.007902	-0.034368	-0.113048	2.618193	0.000000	-0.006444	0.000000	0.000000	0.000000	0.000000	0.000000
1.339533	12.056753	24.830228	-0.381348	0.514439	2.631645	0.000000	0.067515	0.000000	0.000000	0.000000	0.000000	0.000000
1.780493	12.551879	24.107408	-0.745750	1.118520	2.677848	0.000000	0.142243	0.000000	0.000000	0.000000	0.000000	0.000000
2.221453	13.382132	22.872329	-1.144223	1.671708	2.757329	0.000000	0.218591	0.000000	0.000000	0.000000	0.000000	0.000000
2.662413	14.585443	21.181186	-1.594973	2.148836	2.870993	0.000000	0.297429	0.000000	0.000001	0.000000	0.000000	0.000000
3.108373	16.237584	19.086122	-2.122890	2.529323	3.021995	0.000000	0.380144	0.000000	0.000001	0.000000	0.000000	0.000000
3.657433	18.356139	16.733150	-1.712781	1.781428	3.205445	0.000000	0.287106	0.000000	0.000001	0.000000	0.000000	0.000000
4.206493	19.954840	15.127378	-1.181689	1.160419	3.336336	0.000000	0.188975	0.000000	0.000001	0.000000	0.000000	0.000000
4.755553	20.920765	14.154430	-0.567129	0.622065	3.412347	0.000000	0.087493	0.000000	0.000001	0.000000	0.000000	0.000000
5.304613	21.185684	13.745005	0.087490	0.128020	3.432129	0.000000	-0.015541	0.000000	0.000001	0.000000	0.000000	0.000000
5.603185	21.170706	13.653774	0.018029	0.141626	3.430166	0.000000	-0.006574	0.000000	0.000001	0.000000	0.000000	0.000000
5.936519	21.163937	13.567657	0.002279	0.116723	3.427975	0.000000	-0.006574	0.000000	0.000001	0.000000	0.000000	0.000000
6.269852	21.167668	13.498142	-0.013472	0.091821	3.425784	0.000000	-0.006574	0.000000	0.000002	0.000000	0.000000	0.000000
6.604435	21.181972	13.445063	-0.029281	0.066824	3.423584	0.000000	-0.006574	0.000000	0.000002	0.000000	0.000000	0.000000
6.901758	21.203561	13.411930	-0.098730	0.079654	3.421630	0.000000	0.002366	0.000000	0.000002	0.000000	0.000000	0.000000
7.450818	20.950540	13.585004	0.556826	-0.396734	3.394728	0.000000	-0.100212	0.000000	0.000002	0.000000	0.000000	0.000000
7.999878	19.995078	14.293564	1.173051	-0.901380	3.311911	0.000000	-0.201013	0.000000	0.000002	0.000000	0.000000	0.000000
8.548938	18.404663	15.588079	1.706417	-1.470230	3.174646	0.000000	-0.298249	0.000000	0.000002	0.000000	0.000000	0.000000
9.097998	16.291633	17.560755	2.119250	-2.143801	2.985369	0.000000	-0.390195	0.000000	0.000002	-0.000000	0.000000	0.000000
9.543958	14.642976	19.318565	1.590766	-1.781174	2.829664	0.000000	-0.308491	0.000000	0.000002	0.000000	0.000000	0.000000
9.984918	13.443696	20.699575	1.139255	-1.338735	2.710878	0.000000	-0.230785	0.000000	0.000002	0.000000	0.000000	0.000000
10.425878	12.618242	21.661937	0.739794	-0.835384	2.625745	0.000000	-0.155707	0.000000	0.000002	0.000000	0.000000	0.000000
10.866838	12.128902	22.161863	0.374131	-0.294024	2.573296	0.000000	-0.082402	0.000000	0.000002	0.000000	0.000000	0.000000
11.309048	11.953183	22.176092	0.054769	0.206272	2.552914	0.000000	-0.016297	0.000000	0.000002	0.000000	0.000000	0.000000
11.606371	11.928032	22.057589	0.029821	0.192294	2.548069	0.000000	-0.016297	0.000000	0.000002	0.000000	0.000000	0.000000
12.086371	11.918737	21.883818	-0.010456	0.169729	2.540246	0.000000	-0.016297	0.000000	0.000002	0.000000	0.000000	0.000000
12.566371	11.948108	21.731710	-0.050733	0.147163	2.532423	0.000000	-0.016297	0.000000	0.000002	0.000000	0.000000	0.000000
13.046371	12.016145	21.601266	-0.091010	0.124597	2.524601	0.000000	-0.016297	0.000000	0.000002	0.000000	0.000000	0.000000
13.526371	12.122848	21.492484	-0.131288	0.102031	2.516778	0.000000	-0.016297	0.000000	0.000003	0.000000	0.000000	0.000000
14.007621	12.268646	21.405168	-0.171670	0.079406	2.508935	0.000000	-0.016297	0.000000	0.000003	0.000000	0.000000	0.000000
14.304943	12.378147	21.362105	-0.166264	0.013044	2.504089	0.000000	-0.022438	0.000000	0.000003	0.000000	0.000000	0.000000
14.745903	12.683477	21.116768	-0.528785	0.541208	2.509826	0.000000	0.048480	0.000000	0.000003	0.000000	0.000000	0.000000
15.186863	13.317928	20.414753	-0.915466	1.044749	2.546926	0.000000	0.119951	0.000000	0.000003	0.000000	0.000000	0.000000
15.627823	14.310483	19.288001	-1.343971	1.500753	2.615813	0.000000	0.192787	0.000000	0.000003	0.000000	0.000000	0.000000
16.068783	15.706492	17.787778	-1.833878	1.888475	2.717271	0.000000	0.267819	0.000000	0.000003	0.000001	0.000000	0.000000
16.514743	17.593386	15.960841	-2.412328	2.191022	2.854150	0.000000	0.346364	0.000000	0.000004	0.000001	0.000000	0.000000
17.063803	20.016611	13.920783	-1.974952	1.546456	3.020596	0.000000	0.259040	0.000000	0.000004	0.000000	0.000000	0.000000
17.612863	21.879634	12.524258	-1.398075	1.012041	3.137762	0.000000	0.167121	0.000000	0.000004	0.000000	0.000000	0.000000
18.161923	23.050860	11.671793	-0.722445	0.549712	3.203571	0.000000	0.072239	0.000000	0.000004	0.000000	0.000000	0.000000
18.710983	23.447560	11.302671	0.004215	0.126537	3.216853	0.000000	-0.023926	0.000000	0.000004	0.000000	0.000000	0.000000
19.009556	23.485440	11.217555	-0.069822	0.129008	3.212219	0.000000	-0.015521	0.000000	0.000004	0.000000	0.000000	0.000000
19.342889	23.536742	11.141620	-0.084085	0.098798	3.207045	0.000000	-0.015521	0.000000	0.000004	0.000000	0.000000	0.000000
19.676223	23.597553	11.085825	-0.098347	0.068588	3.201872	0.000000	-0.015521	0.000000	0.000004	0.000000	0.000000	0.000000
20.010806	23.668446	11.049936	-0.229930	0.093013	3.196698	0.000000	0.000317	0.000000	0.000004	0.000000	0.000000	0.000000
20.308129	23.809105	11.002696	-0.305362	0.094620	3.196793	0.000000	0.008670	0.000000	0.000005	0.000000	0.000000	0.000000
20.857189	23.733791	11.121294	0.441719	-0.311897	3.175336	0.000000	-0.086712	0.000000	0.000005	-0.000000	0.000000	0.000000
21.406249	22.850439	11.695804	1.157600	-0.740631	3.101855	0.000000	-0.180556	0.000000	0.000004	-0.000000	0.000000	0.000000
21.955309	21.221446	12.767146	1.791714	-1.222117	2.977652	0.000000	-0.271197	0.000000	0.000004	-0.000000	0.000000	0.000000
22.504369	18.961875	14.411631	2.299269	-1.790653	2.804931	0.000000	-0.357028	0.000000	0.000004	-0.000000	0.000000	0.000000
22.950329	17.181265	15.887930	1.707582	-1.505767	2.663003	0.000000	-0.279826	0.000000	0.000004	-0.000000	0.000000	0.000000
23.391289	15.904596	17.064918	1.198605	-1.153227	2.555932	0.000000	-0.206265	0.000000	0.000004	-0.000000	0.000000	0.000000
23.832249	15.051051	17.906581	0.744390	-0.748216	2.480749	0.000000	-0.135053	0.000000	0.000004	-0.000000	0.000000	0.000000
24.273209	14.581633	18.374623	0.324184	-0.309161	2.436600	0.000000	-0.065380	0.000000	0.000004	-0.000000	0.000000	0.000000
24.715418	14.475011	18.447502	-0.045802	0.098653	2.422977	0.000000	-0.002393	0.000000	0.000004	0.000000	0.000000	0.000000
25.012741	14.508367	18.393677	-0.066386	0.082379	2.422266	0.000000	-0.002393	0.000000	0.000004	0.000000	0.000000	0.000000
25.346075	14.560317	18.344840	-0.089462	0.064134	2.421468	0.000000	-0.002393	0.000000	0.000004	0.000000	0.000000	0.000000
25.679408	14.627650	18.308166	-0.112539	0.045889	2.420670	0.000000	-0.002393	0.000000	0.000004	0.000000	0.000000	0.000000
26.013991	14.710409	18.283957	-0.016361	-0.120753	2.419845	0.000000	-0.022024	0.000000	0.000004	0.000000	0.000000	0.000000
26.311314	14.726149	18.360667	-0.000467	-0.182276	2.413297	0.000000	-0.027942	0.000000	0.000004	-0.000000	0.000000	0.000000
26.752274	14.908017	18.322250	-0.413534	0.269066	2.416084	0.000000	0.040597	0.000000	0.000004	0.000000	0.000000	0.000000
27.193234	15.461101	17.889684	-0.845495	0.708166	2.449168	0.000000	0.109599	0.000000	0.000004	0.000000	0.000000	0.000000
27.634194	16.410668	17.082650	-1.316084	1.115044	2.512925	0.000000	0.179849	0.000000	0.000004	0.000000	0.000000	0.000000
28.075154	17.800103	15.937868	-1.846801	1.471189	2.608081	0.000000	0.252148	0.000000	0.000004	0.000000	0.000000	0.000000
28.521114	19.717029	14.490184	-2.466850	1.761310	2.737323	0.000000	0.327761	0.000000	0.000004	0.000001	0.000000	0.000000
29.070174	22.153451	12.877040	-1.944322	1.194042	2.894622	0.000000	0.244371	0.000000	0.000005	0.000000	0.000000	0.000000
29.619234	23.936801	11.836746	-1.284457	0.711823	3.004875	0.000000	0.156646	0.000000	0.000005	0.000000	0.000000	0.000000
30.168294	24.941113	11.295205	-0.533864	0.280305	3.066127	0.000000	0.066143	0.000000	0.000005	0.000000	0.000000	0.000000
30.717354	25.095447	11.213843	0.254439	-0.131247	3.077292	0.000000	-0.025534	0.000000	0.000005	-0.000000	0.000000	0.000000
31.015927	24.986342	11.282753	0.176550	-0.128850	3.072069	0.000000	-0.017494	0.000000	0.000005	-0.000000	0.000000	0.000000
31.349260	24.873228	11.378664	0.162794	-0.158884	3.066238	0.000000	-0.017494	0.000000	0.000005	-0.000000	0.000000	0.000000
31.682593	24.769284	11.494599	0.149037	-0.188918	3.060406	0.000000	-0.017494	0.000000	0.000005	-0.000000	0.000000	0.000000
32.017177	24.674173	11.631103	0.135229	-0.219065	3.054553	0.000000	-0.017494	0.000000	0.000005	-0.000000	0.000000	0.000000
32.314499	24.597408	11.769334	0.058693	-0.215105	3.049352	0.000000	-0.009527	0.000000	0.000005	-0.000000	0.000000	0.000000
32.863559	24.111584	12.244874	0.820899	-0.656106	3.019241	0.000000	-0.099991	0.000000	0.000005	-0.000000	0.000000	0.000000
33.412619	22.815807	13.227353	1.525121	-1.143840	2.939875	0.000000	-0.188682	0.000000	0.000004	-0.000000	0.000000	0.000000
33.961679	20.801605	14.786752	2.121617	-1.713048	2.812661	0.000000	-0.274026	0.000000	0.000004	-0.000001	0.000000	0.000000
34.510739	18.211252	17.034141	2.568252	-2.404272	2.639855	0.000000	-0.354510	0.000000	0.000004	-0.000001	0.000000	0.000000
34.956699	16.197263	19.044286	1.964006	-2.084363	2.498098	0.000000	-0.281587	0.000000	0.000004	-0.000001	0.000000	0.000000
35.397659	14.695538	20.706297	1.454494	-1.670367	2.389309	0.000000	-0.212300	0.000000	0.000003	-0.000000	0.000000	0.000000
35.838619	13.612273	21.968160	1.011433	-1.180370	2.310512	0.000000	-0.145430	0.000000	0.000003	-0.000000	0.000000	0.000000
36.279579	12.897974	22.772461	0.614582	-0.636667	2.260809	0.000000	-0.080217	0.000000	0.000003	-0.000000	0.000000	0.000000
36.721789	12.519319	23.082907	0.276404	-0.120655	2.239606	0.000000	-0.021410	0.000000	0.000003	-0.000000	0.000000	0.000000
37.019112	12.362556	23.158540	0.250841	-0.133723	2.233241	0.000000	-0.021410	0.000000	0.000003	-0.000000	0.000000	0.000000
37.352445	12.204882	23.252573	0.222181	-0.148374	2.226104	0.000000	-0.021410	0.000000	0.000003	-0.000000	0.000000	0.000000
37.685779	12.066315	23.356372	0.193522	-0.163025	2.218967	0.000000	-0.021410	0.000000	0.000003	-0.000000	0.000000	0.000000
38.020362	11.946442	23.470384	0.164754	-0.177731	2.211804	0.000000	-0.021410	0.000000	0.000003	-0.000000	0.000000	0.000000
38.317684	11.856072	23.579956	0.168265	-0.248623	2.205439	0.000000	-0.026818	0.000000	0.000003	-0.000000	0.000000	0.000000
38.758644	11.858894	23.538061	-0.174690	0.343271	2.207539	0.000000	0.036354	0.000000	0.000003	-0.000000	0.000000	0.000000
39.199604	12.166539	22.979082	-0.525626	0.919546	2.237561	0.000000	0.099940	0.000000	0.000002	-0.000000	0.000000	0.000000
39.640564	12.793060	21.928453	-0.900576	1.453982	2.295845	0.000000	0.164665	0.000000	0.000002	-0.000000	0.000000	0.000000
40.081524	13.767082	20.433977	-1.316671	1.922264	2.383057	0.000000	0.231264	0.000000	0.000002	0.000000	0.000000	0.000000
40.527484	15.150671	18.541083	-1.796745	2.304362	2.501660	0.000000	0.300903	0.000000	0.000002	0.000000	0.000000	0.000000
41.076544	16.916507	16.414033	-1.400324	1.592489	2.646346	0.000000	0.225353	0.000000	0.000003	0.000000	0.000000	0.000000
41.625604	18.189801	15.002205	-0.904992	0.994044	2.748391	0.000000	0.145806	0.000000	0.000002	-0.000000	0.000000	0.000000
42.174664	18.880615	14.205037	-0.345735	0.466403	2.805983	0.000000	0.063672	0.000000	0.000002	-0.000000	0.000000	0.000000
42.723724	18.940151	13.965749	0.237943	-0.028017	2.818103	0.000000	-0.019591	0.000000	0.000002	-0.000000	0.000000	0.000000
43.022297	18.832488	13.967073	0.172133	-0.012908	2.814452	0.000000	-0.012228	0.000000	0.000002	-0.000000	0.000000	0.000000
43.502297	18.679837	13.995964	0.145890	-0.047280	2.808582	0.000000	-0.012228	0.000000	0.000002	-0.000000	0.000000	0.000000
43.982297	18.552379	14.057851	0.119647	-0.081652	2.802713	0.000000	-0.012228	0.000000	0.000002	-0.000000	0.000000	0.000000
44.462297	18.450115	14.152736	0.093404	-0.116025	2.796843	0.000000	-0.012228	0.000000	0.000002	-0.000000	0.000000	0.000000
44.942297	18.373044	14.280618	0.067161	-0.150397	2.790974	0.000000	-0.012228	0.000000	0.000002	-0.000000	0.000000	0.000000
45.423547	18.321290	14.441781	-0.049924	-0.113305	2.785106	0.000000	0.001571	0.000000	0.000002	-0.000000	0.000000	0.000000
45.720870	18.355815	14.515357	-0.114153	-0.096232	2.785573	0.000000	0.008849	0.000000	0.000002	-0.000000	0.000000	0.000000
46.269930	18.172086	14.901841	0.446796	-0.611824	2.767862	0.000000	-0.073270	0.000000	0.000002	-0.000000	0.000000	0.000000
46.818990	17.386131	15.874970	0.976185	-1.170994	2.705353	0.000000	-0.154089	0.000000	0.000001	-0.000000	0.000000	0.000000
47.368050	16.053467	17.504060	1.436622	-1.813572	2.599156	0.000000	-0.232175	0.000000	0.000001	-0.000000	0.000000	0.000000
47.917110	14.268225	19.905146	1.795582	-2.585327	2.451154	0.000000	-0.306142	0.000000	0.000001	-0.000000	0.000000	0.000000
48.363070	12.878841	22.040015	1.330945	-2.181679	2.329918	0.000000	-0.237848	0.000000	0.000001	-0.000000	0.000000	0.000000
48.804030	11.885235	23.749382	0.930882	-1.680037	2.239496	0.000000	-0.172659	0.000000	0.000001	-0.000000	0.000000	0.000000
49.244990	11.224436	24.980815	0.573349	-1.101954	2.177359	0.000000	-0.109437	0.000000	0.000001	-0.000000	0.000000	0.000000
49.685950	10.866254	25.678284	0.242010	-0.473733	2.142799	0.000000	-0.047461	0.000000	0.000000	-0.000000	0.000000	0.000000
50.128160	10.794455	25.809773	-0.051917	0.112700	2.135434	0.000000	0.008737	0.000000	0.000000	-0.000000	0.000000	0.000000
50.425482	10.833539	25.746225	-0.079536	0.101034	2.138032	0.000000	0.008737	0.000000	0.000000	-0.000000	0.000000	0.000000
50.758816	10.896884	25.683229	-0.110499	0.087955	2.140944	0.000000	0.008737	0.000000	0.000000	-0.000000	0.000000	0.000000
51.092149	10.980871	25.628952	-0.141462	0.074876	2.143857	0.000000	0.008737	0.000000	0.000000	-0.000000	0.000000	0.000000
51.426732	11.085707	25.583759	-0.082607	-0.145800	2.146758	0.000000	-0.008679	0.000000	-0.000000	-0.000000	0.000000	0.000000
51.724055	11.142857	25.673987	-0.082285	-0.220629	2.144178	0.000000	-0.013937	0.000000	-0.000000	-0.000000	0.000000	0.000000
52.165015	11.360884	25.582962	-0.414027	0.426270	2.151621	0.000000	0.047725	0.000000	-0.000000	-0.000000	0.000000	0.000000
52.605975	11.878684	24.927829	-0.764685	1.053774	2.186347	0.000000	0.109930	0.000000	-0.000000	-0.000000	0.000000	0.000000
53.046935	12.719915	23.738396	-1.150279	1.633332	2.248754	0.000000	0.173387	0.000000	-0.000001	-0.000000	0.000000	0.000000
53.487895	13.923010	22.068783	-1.588426	2.138575	2.339551	0.000000	0.238820	0.000000	-0.000001	-0.000000	0.000000	0.000000
53.933855	15.563553	19.969989	-2.103380	2.547849	2.461278	0.000000	0.307370	0.000000	-0.000001	-0.000000	0.000000	0.000000
54.482915	17.675653	17.608398	-1.720604	1.778692	2.609862	0.000000	0.233065	0.000000	-0.000001	-0.000000	0.000000	0.000000
55.031975	19.297788	16.017324	-1.216293	1.136228	2.716452	0.000000	0.154626	0.000000	-0.000001	-0.000000	0.000000	0.000000
55.581035	20.315379	15.083437	-0.626069	0.574695	2.779157	0.000000	0.073444	0.000000	-0.000001	-0.000000	0.000000	0.000000
56.130095	20.656549	14.740218	0.008377	0.054096	2.796864	0.000000	-0.009040	0.000000	-0.000001	-0.000000	0.000000	0.000000
56.428668	20.688101	14.691016	-0.060080	0.072181	2.796347	0.000000	-0.001732	0.000000	-0.000002	-0.000000	0.000000	0.000000
56.762001	20.733544	14.650498	-0.076250	0.049373	2.795770	0.000000	-0.001732	0.000000	-0.000002	-0.000000	0.000000	0.000000
57.095334	20.789768	14.625185	-0.092421	0.026565	2.795192	0.000000	-0.001732	0.000000	-0.000002	-0.000000	0.000000	0.000000
57.429918	20.857043	14.615069	-0.108652	0.003672	2.794613	0.000000	-0.001732	0.000000	-0.000002	-0.000000	0.000000	0.000000
57.727240	20.925941	14.618934	-0.177752	0.021525	2.794098	0.000000	0.005568	0.000000	-0.000002	-0.000000	0.000000	0.000000
58.276300	20.764077	14.876088	0.470810	-0.492644	2.774515	0.000000	-0.076796	0.000000	-0.000002	-0.000000	0.000000	0.000000
58.825360	19.904141	15.713702	1.086116	-1.041903	2.710017	0.000000	-0.157798	0.000000	-0.000002	-0.000000	0.000000	0.000000
59.374420	18.406875	17.191437	1.624704	-1.665374	2.601748	0.000000	-0.236002	0.000000	-0.000002	-0.000000	0.000000	0.000000
59.923480	16.378039	19.414548	2.048531	-2.407466	2.451628	0.000000	-0.310019	0.000000	-0.000002	0.000000	0.000000	0.000000
60.369440	14.789998	21.390536	1.525029	-2.004696	2.328662	0.000000	-0.241735	0.000000	-0.000002	-0.000000	0.000000	0.000000
60.810400	13.647641	22.947219	1.075412	-1.512084	2.236515	0.000000	-0.176601	0.000000	-0.000002	-0.000000	0.000000	0.000000
61.251360	12.878729	24.037345	0.674927	-0.950674	2.172620	0.000000	-0.113478	0.000000	-0.000002	-0.000000	0.000000	0.000000
61.692320	12.448131	24.611314	0.305278	-0.346009	2.136247	0.000000	-0.051648	0.000000	-0.000002	-0.000000	0.000000	0.000000
62.134530	12.336225	24.642477	-0.020272	0.213913	2.126990	0.000000	0.004378	0.000000	-0.000002	-0.000000	0.000000	0.000000
62.431853	12.355449	24.519026	-0.044383	0.201296	2.128291	0.000000	0.004378	0.000000	-0.000002	-0.000000	0.000000	0.000000
62.765186	12.394048	24.389544	-0.071415	0.187150	2.129751	0.000000	0.004378	0.000000	-0.000002	-0.000000	0.000000	0.000000
63.098520	12.450669	24.269492	-0.098447	0.173004	2.131210	0.000000	0.004378	0.000000	-0.000002	-0.000000	0.000000	0.000000
63.433103	12.525625	24.158474	-0.125580	0.158806	2.132675	0.000000	0.004378	0.000000	-0.000002	-0.000000	0.000000	0.000000
63.730426	12.607470	24.067792	-0.118774	0.087165	2.133977	0.000000	-0.000855	0.000000	-0.000003	-0.000000	0.000000	0.000000
64.171386	12.872714	23.725847	-0.485025	0.685341	2.147140	0.000000	0.060617	0.000000	-0.000003	-0.000000	0.000000	0.000000
64.612346	13.469477	22.868146	-0.873435	1.252334	2.187537	0.000000	0.122780	0.000000	-0.000003	-0.000000	0.000000	0.000000
65.053306	14.425021	21.533714	-1.301750	1.762347	2.255628	0.000000	0.186341	0.000000	-0.000003	-0.000000	0.000000	0.000000
65.494266	15.783004	19.783266	-1.789539	2.192175	2.352187	0.000000	0.252025	0.000000	-0.000003	-0.000001	0.000000	0.000000
65.940226	17.628636	17.671669	-2.363780	2.523018	2.479887	0.000000	0.320981	0.000000	-0.000003	-0.000001	0.000000	0.000000
66.489286	19.994381	15.309377	-1.919434	1.804809	2.635758	0.000000	0.245954	0.000000	-0.000004	-0.000000	0.000000	0.000000
67.038346	21.794392	13.660968	-1.339510	1.215152	2.749174	0.000000	0.166566	0.000000	-0.000004	-0.000000	0.000000	0.000000
67.587406	22.901524	12.609029	-0.664969	0.712048	2.818125	0.000000	0.084223	0.000000	-0.000004	-0.000000	0.000000	0.000000
68.136466	23.237576	12.078634	0.056542	0.259661	2.841386	0.000000	0.000386	0.000000	-0.000004	-0.000000	0.000000	0.000000
68.435038	23.243906	11.912738	-0.017024	0.264406	2.843718	0.000000	0.007810	0.000000	-0.000004	-0.000000	0.000000	0.000000
68.768372	23.260037	11.746447	-0.031369	0.234468	2.846321	0.000000	0.007810	0.000000	-0.000004	-0.000000	0.000000	0.000000
69.101705	23.285732	11.600114	-0.045714	0.204531	2.848925	0.000000	0.007810	0.000000	-0.000004	-0.000000	0.000000	0.000000
69.436288	23.321139	11.473303	-0.060113	0.174481	2.851538	0.000000	0.007810	0.000000	-0.000004	-0.000000	0.000000	0.000000
69.733611	23.360690	11.377487	-0.133947	0.177506	2.853860	0.000000	0.015267	0.000000	-0.000004	-0.000000	0.000000	0.000000
70.282671	23.106581	11.410348	0.594014	-0.237709	2.839056	0.000000	-0.069112	0.000000	-0.000004	0.000000	0.000000	0.000000
