#ParticleID	Turn	x[m]	xp	y[m]	yp	z[m]	dE[GeV]# s	beta_x	beta_y	alpha_x	alpha_y	D_x	D_y	D_px	D_py	orbit_x	orbit_px	orbit_y	orbit_py
0.300000	11.809224	25.037549	-0.010529	-0.027078	2.618107	0.000000	0.000015	0.000000	-0.000001	0.000001	0.000000	0.000000
0.601250	11.823253	25.057490	-0.036041	-0.039119	2.618111	0.000000	0.000015	0.000000	-0.000000	0.000001	0.000000	0.000000
0.898573	11.852171	25.084285	-0.032156	-0.112516	2.618115	0.000000	-0.006406	0.000000	0.000000	0.000001	0.000000	0.000000
1.339533	12.032604	24.905252	-0.378578	0.516978	2.631583	0.000000	0.067552	0.000000	0.000001	0.000001	0.000000	0.000000
1.780493	12.524997	24.179347	-0.742296	1.122950	2.677802	0.000000	0.142278	0.000000	0.000002	0.000001	0.000000	0.000000
2.221453	13.351846	22.939598	-1.139927	1.677828	2.757298	0.000000	0.218625	0.000000	0.000002	0.000002	0.000000	0.000000
2.662413	14.550927	21.242413	-1.589639	2.156367	2.870976	0.000000	0.297463	0.000000	0.000003	0.000002	0.000000	0.000000
3.108373	16.197754	19.140124	-2.116264	2.537925	3.021993	0.000000	0.380177	0.000000	0.000004	0.000002	0.000000	0.000000
3.657433	18.309552	16.778915	-1.707173	1.787917	3.205460	0.000000	0.287139	0.000000	0.000004	0.000002	0.000000	0.000000
4.206493	19.902841	15.166959	-1.177497	1.165258	3.336369	0.000000	0.189008	0.000000	0.000005	0.000001	0.000000	0.000000
4.755553	20.865080	14.189442	-0.564648	0.625598	3.412397	0.000000	0.087524	0.000000	0.000006	0.000001	0.000000	0.000000
5.304613	21.128300	13.776736	0.088085	0.130497	3.432195	0.000000	-0.015512	0.000000	0.000007	0.000001	0.000000	0.000000
5.603185	21.112888	13.683967	0.018737	0.144218	3.430241	0.000000	-0.006544	0.000000	0.000007	0.000001	0.000000	0.000000
5.936519	21.105661	13.596110	0.002943	0.119352	3.428059	0.000000	-0.006544	0.000000	0.000007	0.000001	0.000000	0.000000
6.269852	21.108963	13.524831	-0.012850	0.094486	3.425877	0.000000	-0.006544	0.000000	0.000008	0.000001	0.000000	0.000000
6.604435	21.122866	13.469955	-0.028703	0.069527	3.423687	0.000000	-0.006544	0.000000	0.000008	0.000001	0.000000	0.000000
6.901758	21.144123	13.435205	-0.098032	0.082449	3.421741	0.000000	0.002395	0.000000	0.000008	0.000001	0.000000	0.000000
7.450818	20.891434	13.605560	0.555530	-0.394546	3.394854	0.000000	-0.100187	0.000000	0.000009	0.000001	0.000000	0.000000
7.999878	19.938455	14.311977	1.169852	-0.899642	3.312049	0.000000	-0.200993	0.000000	0.000009	0.000000	0.000000	0.000000
8.548938	18.352499	15.604773	1.701542	-1.468819	3.174794	0.000000	-0.298233	0.000000	0.000009	0.000000	0.000000	0.000000
9.097998	16.245591	17.576031	2.113043	-2.142616	2.985525	0.000000	-0.390183	0.000000	0.000009	-0.000000	0.000000	0.000000
9.543958	14.601847	19.332505	1.585916	-1.779371	2.829826	0.000000	-0.308476	0.000000	0.000009	0.000000	0.000000	0.000000
9.984918	13.406333	20.711684	1.135531	-1.336401	2.711047	0.000000	-0.230765	0.000000	0.000009	0.000000	0.000000	0.000000
10.425878	12.583732	21.671792	0.737025	-0.832626	2.625923	0.000000	-0.155683	0.000000	0.000010	0.000001	0.000000	0.000000
10.866838	12.096461	22.169144	0.372191	-0.290967	2.573486	0.000000	-0.082374	0.000000	0.000010	0.000001	0.000000	0.000000
11.309048	11.922124	22.180587	0.053491	0.209482	2.553118	0.000000	-0.016263	0.000000	0.000010	0.000001	0.000000	0.000000
11.606371	11.897752	22.060180	0.028481	0.195490	2.548282	0.000000	-0.016263	0.000000	0.000011	0.000001	0.000000	0.000000
12.086371	11.889791	21.883353	-0.011896	0.172899	2.540475	0.000000	-0.016263	0.000000	0.000011	0.000001	0.000000	0.000000
12.566371	11.920591	21.728213	-0.052272	0.150309	2.532669	0.000000	-0.016263	0.000000	0.000012	0.000001	0.000000	0.000000
13.046371	11.990153	21.594759	-0.092648	0.127719	2.524862	0.000000	-0.016263	0.000000	0.000012	0.000001	0.000000	0.000000
13.526371	12.098476	21.482992	-0.133025	0.105129	2.517055	0.000000	-0.016263	0.000000	0.000013	0.000001	0.000000	0.000000
14.007621	12.245994	21.392706	-0.173507	0.082480	2.509228	0.000000	-0.016263	0.000000	0.000013	0.000001	0.000000	0.000000
14.304943	12.356605	21.347820	-0.168219	0.016143	2.504392	0.000000	-0.022404	0.000000	0.000014	0.000001	0.000000	0.000000
14.745903	12.663466	21.099940	-0.530312	0.543854	2.510145	0.000000	0.048522	0.000000	0.000014	0.000001	0.000000	0.000000
15.186863	13.299101	20.395836	-0.916635	1.046821	2.547265	0.000000	0.120001	0.000000	0.000015	0.000002	0.000000	0.000000
15.627823	14.292550	19.267544	-1.344836	1.502158	2.616175	0.000000	0.192847	0.000000	0.000016	0.000002	0.000000	0.000000
16.068783	15.689203	17.766401	-1.834478	1.889148	2.717660	0.000000	0.267889	0.000000	0.000017	0.000003	0.000000	0.000000
16.514743	17.576526	15.939205	-2.412691	2.190927	2.854571	0.000000	0.346444	0.000000	0.000018	0.000003	0.000000	0.000000
17.063803	20.000585	13.899009	-1.976097	1.546804	3.021057	0.000000	0.259106	0.000000	0.000020	0.000002	0.000000	0.000000
17.612863	21.865260	12.501848	-1.399921	1.012857	3.138254	0.000000	0.167171	0.000000	0.000021	0.000002	0.000000	0.000000
18.161923	23.038840	11.648207	-0.724861	0.551053	3.204084	0.000000	0.072272	0.000000	0.000022	0.000001	0.000000	0.000000
18.710983	23.438430	11.277281	0.001399	0.128499	3.217381	0.000000	-0.023909	0.000000	0.000022	0.000000	0.000000	0.000000
19.009556	23.477974	11.191059	-0.072614	0.130823	3.212751	0.000000	-0.015504	0.000000	0.000022	0.000000	0.000000	0.000000
19.342889	23.531141	11.113942	-0.086887	0.100528	3.207583	0.000000	-0.015504	0.000000	0.000022	0.000000	0.000000	0.000000
19.676223	23.593823	11.057022	-0.101159	0.070232	3.202415	0.000000	-0.015504	0.000000	0.000022	0.000000	0.000000	0.000000
20.010806	23.666602	11.020063	-0.232743	0.094423	3.197247	0.000000	0.000337	0.000000	0.000023	0.000001	0.000000	0.000000
20.308129	23.808939	10.972008	-0.308183	0.095865	3.197347	0.000000	0.008689	0.000000	0.000023	0.000001	0.000000	0.000000
20.857189	23.736710	11.088761	0.438954	-0.309762	3.175896	0.000000	-0.086711	0.000000	0.000023	-0.000000	0.000000	0.000000
21.406249	22.856275	11.660370	1.155085	-0.737452	3.102411	0.000000	-0.180573	0.000000	0.000023	-0.000001	0.000000	0.000000
21.955309	21.229823	12.727550	1.789626	-1.217669	2.978195	0.000000	-0.271232	0.000000	0.000022	-0.000002	0.000000	0.000000
22.504369	18.972239	14.366314	2.297758	-1.784619	2.805451	0.000000	-0.357080	0.000000	0.000021	-0.000002	0.000000	0.000000
22.950329	17.192998	15.837681	1.706009	-1.500786	2.663503	0.000000	-0.279864	0.000000	0.000020	-0.000002	0.000000	0.000000
23.391289	15.917769	17.010825	1.196899	-1.149523	2.556418	0.000000	-0.206291	0.000000	0.000019	-0.000001	0.000000	0.000000
23.832249	15.065815	17.849849	0.742473	-0.745957	2.481228	0.000000	-0.135067	0.000000	0.000019	-0.000001	0.000000	0.000000
24.273209	14.598213	18.316576	0.321968	-0.308450	2.437076	0.000000	-0.065381	0.000000	0.000019	-0.000000	0.000000	0.000000
24.715418	14.493720	18.389526	-0.048377	0.097933	2.423455	0.000000	-0.002382	0.000000	0.000019	0.000000	0.000000	0.000000
25.012741	14.528601	18.336144	-0.068939	0.081610	2.422747	0.000000	-0.002382	0.000000	0.000019	0.000000	0.000000	0.000000
25.346075	14.582245	18.287838	-0.091992	0.063310	2.421953	0.000000	-0.002382	0.000000	0.000019	0.000000	0.000000	0.000000
25.679408	14.651257	18.251731	-0.115044	0.045010	2.421159	0.000000	-0.002382	0.000000	0.000019	0.000000	0.000000	0.000000
26.013991	14.735684	18.228128	-0.018637	-0.121234	2.420338	0.000000	-0.022017	0.000000	0.000019	0.000000	0.000000	0.000000
26.311314	14.752767	18.305140	-0.002650	-0.182667	2.413791	0.000000	-0.027935	0.000000	0.000019	-0.000000	0.000000	0.000000
26.752274	14.936855	18.267731	-0.416405	0.267179	2.416585	0.000000	0.040617	0.000000	0.000019	0.000000	0.000000	0.000000
27.193234	15.492821	17.837460	-0.849185	0.704868	2.449680	0.000000	0.109632	0.000000	0.000019	0.000001	0.000000	0.000000
27.634194	16.446065	17.033903	-1.320761	1.110487	2.513453	0.000000	0.179895	0.000000	0.000020	0.000001	0.000000	0.000000
28.075154	17.840137	15.893621	-1.852680	1.465579	2.608632	0.000000	0.252208	0.000000	0.000021	0.000002	0.000000	0.000000
28.521114	19.762947	14.451319	-2.474212	1.754900	2.737904	0.000000	0.327836	0.000000	0.000022	0.000003	0.000000	0.000000
29.070174	22.206849	12.844363	-1.950501	1.189115	2.895237	0.000000	0.244426	0.000000	0.000023	0.000002	0.000000	0.000000
29.619234	23.996131	11.808829	-1.289016	0.708028	3.005515	0.000000	0.156681	0.000000	0.000024	0.000001	0.000000	0.000000
30.168294	25.004408	11.270960	-0.536482	0.277372	3.066781	0.000000	0.066157	0.000000	0.000024	0.000000	0.000000	0.000000
30.717354	25.160460	11.192443	0.253948	-0.133527	3.077947	0.000000	-0.025541	0.000000	0.000024	-0.000000	0.000000	0.000000
31.015927	25.051733	11.262770	0.175934	-0.131255	3.072722	0.000000	-0.017501	0.000000	0.000024	-0.000000	0.000000	0.000000
31.349260	24.939016	11.360309	0.162216	-0.161361	3.066889	0.000000	-0.017501	0.000000	0.000024	-0.000000	0.000000	0.000000
31.682593	24.835445	11.477919	0.148499	-0.191467	3.061055	0.000000	-0.017501	0.000000	0.000024	-0.000000	0.000000	0.000000
32.017177	24.740681	11.616153	0.134730	-0.221686	3.055200	0.000000	-0.017501	0.000000	0.000024	-0.000000	0.000000	0.000000
32.314499	24.664203	11.755961	0.058064	-0.217829	3.049997	0.000000	-0.009533	0.000000	0.000024	-0.000000	0.000000	0.000000
32.863559	24.177846	12.234352	0.822490	-0.658603	3.019877	0.000000	-0.100019	0.000000	0.000023	-0.000001	0.000000	0.000000
33.412619	22.879148	13.219530	1.528819	-1.146288	2.940491	0.000000	-0.188730	0.000000	0.000022	-0.000002	0.000000	0.000000
33.961679	20.859841	14.781670	2.127161	-1.715621	2.813246	0.000000	-0.274093	0.000000	0.000021	-0.000003	0.000000	0.000000
34.510739	18.262559	17.032037	2.575250	-2.407153	2.640399	0.000000	-0.354595	0.000000	0.000020	-0.000003	0.000000	0.000000
34.956699	16.243033	19.044928	1.969464	-2.087614	2.498608	0.000000	-0.281659	0.000000	0.000018	-0.000003	0.000000	0.000000
35.397659	14.737073	20.709913	1.458675	-1.673835	2.389792	0.000000	-0.212359	0.000000	0.000017	-0.000002	0.000000	0.000000
35.838619	13.650611	21.974872	1.014528	-1.183897	2.310972	0.000000	-0.145477	0.000000	0.000016	-0.000002	0.000000	0.000000
36.279579	12.934009	22.782251	0.616732	-0.640093	2.261252	0.000000	-0.080252	0.000000	0.000015	-0.000001	0.000000	0.000000
36.721789	12.553832	23.095624	0.277789	-0.123848	2.240037	0.000000	-0.021434	0.000000	0.000015	-0.000001	0.000000	0.000000
37.019112	12.396231	23.173156	0.252278	-0.136919	2.233664	0.000000	-0.021434	0.000000	0.000015	-0.000001	0.000000	0.000000
37.352445	12.237580	23.269320	0.223677	-0.151573	2.226520	0.000000	-0.021434	0.000000	0.000014	-0.000001	0.000000	0.000000
37.685779	12.097996	23.375254	0.195075	-0.166227	2.219376	0.000000	-0.021434	0.000000	0.000014	-0.000001	0.000000	0.000000
38.020362	11.977063	23.491409	0.166367	-0.180936	2.212205	0.000000	-0.021434	0.000000	0.000014	-0.000001	0.000000	0.000000
38.317684	11.885719	23.602888	0.169999	-0.251882	2.205832	0.000000	-0.026843	0.000000	0.000013	-0.000001	0.000000	0.000000
38.758644	11.887307	23.563589	-0.173613	0.340664	2.207924	0.000000	0.036340	0.000000	0.000013	-0.000001	0.000000	0.000000
39.199604	12.194272	23.006577	-0.525157	0.917710	2.237942	0.000000	0.099936	0.000000	0.000013	-0.000000	0.000000	0.000000
39.640564	12.820638	21.957194	-0.900694	1.453001	2.296227	0.000000	0.164670	0.000000	0.000012	-0.000000	0.000000	0.000000
40.081524	13.795024	20.463188	-1.317381	1.922182	2.383443	0.000000	0.231280	0.000000	0.000012	0.000000	0.000000	0.000000
40.527484	15.179523	18.569959	-1.798083	2.305190	2.502055	0.000000	0.300929	0.000000	0.000013	0.000001	0.000000	0.000000
41.076544	16.946237	16.442406	-1.400576	1.592583	2.646752	0.000000	0.225366	0.000000	0.000013	0.000000	0.000000	0.000000
41.625604	18.219200	15.030871	-0.904139	0.993413	2.748799	0.000000	0.145805	0.000000	0.000013	-0.000000	0.000000	0.000000
42.174664	18.908495	14.234812	-0.343839	0.465001	2.806388	0.000000	0.063658	0.000000	0.000013	-0.000001	0.000000	0.000000
42.723724	18.965435	13.997530	0.240748	-0.030289	2.818497	0.000000	-0.019618	0.000000	0.000012	-0.000001	0.000000	0.000000
43.022297	18.856133	14.000149	0.174882	-0.015051	2.814838	0.000000	-0.012255	0.000000	0.000012	-0.000001	0.000000	0.000000
43.502297	18.700839	14.031059	0.148647	-0.049344	2.808956	0.000000	-0.012255	0.000000	0.000011	-0.000001	0.000000	0.000000
43.982297	18.570730	14.094890	0.122413	-0.083637	2.803074	0.000000	-0.012255	0.000000	0.000011	-0.000001	0.000000	0.000000
44.462297	18.465806	14.191643	0.096178	-0.117931	2.797192	0.000000	-0.012255	0.000000	0.000010	-0.000001	0.000000	0.000000
44.942297	18.386068	14.321317	0.069944	-0.152224	2.791311	0.000000	-0.012255	0.000000	0.000010	-0.000001	0.000000	0.000000
45.423547	18.331632	14.484199	-0.047184	-0.114842	2.785431	0.000000	0.001546	0.000000	0.000009	-0.000001	0.000000	0.000000
45.720870	18.364523	14.558673	-0.111419	-0.097604	2.785891	0.000000	0.008824	0.000000	0.000009	-0.000001	0.000000	0.000000
46.269930	18.177655	14.947396	0.449744	-0.614554	2.768163	0.000000	-0.073304	0.000000	0.000008	-0.000001	0.000000	0.000000
46.818990	17.388440	15.924354	0.979140	-1.175276	2.705634	0.000000	-0.154133	0.000000	0.000007	-0.000002	0.000000	0.000000
47.368050	16.052623	17.559131	1.439373	-1.819711	2.599411	0.000000	-0.232227	0.000000	0.000007	-0.000002	0.000000	0.000000
47.917110	14.264560	19.968171	1.797937	-2.593759	2.451379	0.000000	-0.306203	0.000000	0.000006	-0.000002	0.000000	0.000000
48.363070	12.873151	22.109968	1.333149	-2.188715	2.330118	0.000000	-0.237903	0.000000	0.000005	-0.000002	0.000000	0.000000
48.804030	11.877628	23.824807	0.933040	-1.685362	2.239673	0.000000	-0.172709	0.000000	0.000004	-0.000002	0.000000	0.000000
49.244990	11.214911	25.060089	0.575558	-1.105326	2.177515	0.000000	-0.109483	0.000000	0.000003	-0.000002	0.000000	0.000000
49.685950	10.854720	25.759611	0.244373	-0.474999	2.142936	0.000000	-0.047503	0.000000	0.000002	-0.000002	0.000000	0.000000
50.128160	10.780724	25.891261	-0.049328	0.113400	2.135554	0.000000	0.008698	0.000000	0.000002	-0.000001	0.000000	0.000000
50.425482	10.818276	25.827286	-0.076974	0.101769	2.138140	0.000000	0.008698	0.000000	0.000001	-0.000001	0.000000	0.000000
50.758816	10.879924	25.763787	-0.107969	0.088729	2.141040	0.000000	0.008698	0.000000	0.000001	-0.000001	0.000000	0.000000
51.092149	10.962235	25.708981	-0.138964	0.075689	2.143940	0.000000	0.008698	0.000000	0.000000	-0.000001	0.000000	0.000000
51.426732	11.065410	25.663232	-0.080305	-0.145593	2.146829	0.000000	-0.008718	0.000000	-0.000000	-0.000001	0.000000	0.000000
51.724055	11.121203	25.753326	-0.080075	-0.220579	2.144238	0.000000	-0.013976	0.000000	-0.000001	-0.000001	0.000000	0.000000
52.165015	11.337046	25.661330	-0.411267	0.428413	2.151664	0.000000	0.047687	0.000000	-0.000001	-0.000002	0.000000	0.000000
52.605975	11.852124	25.003416	-0.761249	1.057912	2.186374	0.000000	0.109893	0.000000	-0.000002	-0.000002	0.000000	0.000000
53.046935	12.689971	23.809520	-1.146010	1.639278	2.248765	0.000000	0.173351	0.000000	-0.000003	-0.000002	0.000000	0.000000
53.487895	13.888864	22.133962	-1.583129	2.146057	2.339547	0.000000	0.238783	0.000000	-0.000003	-0.000002	0.000000	0.000000
53.933855	15.524131	20.027929	-2.096803	2.556531	2.461257	0.000000	0.307333	0.000000	-0.000004	-0.000002	0.000000	0.000000
54.482915	17.629522	17.658065	-1.715035	1.785167	2.609822	0.000000	0.233029	0.000000	-0.000005	-0.000002	0.000000	0.000000
55.031975	19.246278	16.060875	-1.212125	1.140957	2.716394	0.000000	0.154592	0.000000	-0.000006	-0.000001	0.000000	0.000000
55.581035	20.260200	15.122594	-0.623596	0.578015	2.779080	0.000000	0.073412	0.000000	-0.000007	-0.000001	0.000000	0.000000
56.130095	20.599671	14.776392	0.008980	0.056243	2.796771	0.000000	-0.009070	0.000000	-0.000007	-0.000001	0.000000	0.000000
56.428668	20.630787	14.725838	-0.059370	0.074466	2.796245	0.000000	-0.001762	0.000000	-0.000008	-0.000001	0.000000	0.000000
56.762001	20.675772	14.683782	-0.075584	0.051704	2.795659	0.000000	-0.001762	0.000000	-0.000008	-0.000001	0.000000	0.000000
57.095334	20.731566	14.656899	-0.091798	0.028943	2.795072	0.000000	-0.001762	0.000000	-0.000008	-0.000001	0.000000	0.000000
57.429918	20.798439	14.645176	-0.108073	0.006096	2.794483	0.000000	-0.001762	0.000000	-0.000009	-0.000001	0.000000	0.000000
57.727240	20.867004	14.647587	-0.177061	0.024068	2.793959	0.000000	0.005539	0.000000	-0.000009	-0.000001	0.000000	0.000000
58.276300	20.705469	14.902389	0.469523	-0.490876	2.774362	0.000000	-0.076821	0.000000	-0.000009	-0.000001	0.000000	0.000000
58.825360	19.847997	15.738426	1.082942	-1.040783	2.709852	0.000000	-0.157818	0.000000	-0.000010	-0.000000	0.000000	0.000000
59.374420	18.355156	17.215248	1.619867	-1.664822	2.601573	0.000000	-0.236016	0.000000	-0.000010	-0.000000	0.000000	0.000000
59.923480	16.332393	19.438046	2.042373	-2.407444	2.451447	0.000000	-0.310027	0.000000	-0.000010	0.000000	0.000000	0.000000
60.369440	14.749227	21.413658	1.520217	-2.003877	2.328477	0.000000	-0.241748	0.000000	-0.000010	-0.000000	0.000000	0.000000
60.810400	13.610608	22.969282	1.071715	-1.510512	2.236323	0.000000	-0.176619	0.000000	-0.000010	-0.000000	0.000000	0.000000
61.251360	12.844528	24.057714	0.672177	-0.948420	2.172419	0.000000	-0.113501	0.000000	-0.000010	-0.000001	0.000000	0.000000
61.692320	12.415985	24.629432	0.303349	-0.343175	2.136036	0.000000	-0.051676	0.000000	-0.000011	-0.000001	0.000000	0.000000
62.134530	12.305456	24.657878	-0.021541	0.217155	2.126764	0.000000	0.004344	0.000000	-0.000011	-0.000001	0.000000	0.000000
62.431853	12.325452	24.532502	-0.045715	0.204528	2.128056	0.000000	0.004344	0.000000	-0.000011	-0.000001	0.000000	0.000000
62.765186	12.364962	24.400869	-0.072815	0.190372	2.129505	0.000000	0.004344	0.000000	-0.000012	-0.000001	0.000000	0.000000
63.098520	12.422540	24.278672	-0.099916	0.176217	2.130953	0.000000	0.004344	0.000000	-0.000012	-0.000001	0.000000	0.000000
63.433103	12.498502	24.165508	-0.127119	0.162008	2.132407	0.000000	0.004344	0.000000	-0.000012	-0.000001	0.000000	0.000000
63.730426	12.581279	24.072925	-0.120435	0.090340	2.133699	0.000000	-0.000889	0.000000	-0.000013	-0.000001	0.000000	0.000000
64.171386	12.847740	23.728146	-0.486131	0.688569	2.146847	0.000000	0.060576	0.000000	-0.000013	-0.000001	0.000000	0.000000
64.612346	13.445252	22.867628	-0.874037	1.255469	2.187225	0.000000	0.122731	0.000000	-0.000014	-0.000002	0.000000	0.000000
65.053306	14.401116	21.530527	-1.301876	1.765246	2.255292	0.000000	0.186284	0.000000	-0.000015	-0.000002	0.000000	0.000000
65.494266	15.759002	19.777677	-1.789193	2.194705	2.351825	0.000000	0.251958	0.000000	-0.000016	-0.000003	0.000000	0.000000
65.940226	17.604108	17.664034	-2.362945	2.525059	2.479494	0.000000	0.320904	0.000000	-0.000017	-0.000003	0.000000	0.000000
66.489286	19.969468	15.299569	-1.919574	1.806748	2.635328	0.000000	0.245892	0.000000	-0.000019	-0.000002	0.000000	0.000000
67.038346	21.770166	13.649024	-1.340615	1.217127	2.748714	0.000000	0.166517	0.000000	-0.000020	-0.000002	0.000000	0.000000
67.587406	22.879008	12.594833	-0.666961	0.714199	2.817643	0.000000	0.084190	0.000000	-0.000021	-0.000001	0.000000	0.000000
68.136466	23.217673	12.061909	0.053804	0.262142	2.840892	0.000000	0.000368	0.000000	-0.000021	-0.000000	0.000000	0.000000
68.435038	23.225615	11.894577	-0.019731	0.266775	2.843218	0.000000	0.007792	0.000000	-0.000021	-0.000000	0.000000	0.000000
68.768372	23.243555	11.726733	-0.034088	0.236757	2.845816	0.000000	0.007792	0.000000	-0.000021	-0.000000	0.000000	0.000000
69.101705	23.271066	11.578901	-0.048446	0.206738	2.848414	0.000000	0.007792	0.000000	-0.000021	-0.000000	0.000000	0.000000
69.436288	23.308307	11.450640	-0.062857	0.176608	2.851021	0.000000	0.007792	0.000000	-0.000022	-0.000000	0.000000	0.000000
69.733611	23.349492	11.353582	-0.136683	0.179502	2.853338	0.000000	0.015249	0.000000	-0.000022	-0.000001	0.000000	0.000000
70.282671	23.098566	11.383877	0.590989	-0.235003	2.838529	0.000000	-0.069112	0.000000	-0.000022	0.000000	0.000000	0.000000
