#ParticleID	Turn	x[m]	xp	y[m]	yp	z[m]	dE[GeV]# s	beta_x	beta_y	alpha_x	alpha_y	D_x	D_y	D_px	D_py	orbit_x	orbit_px	orbit_y	orbit_py
0.300000	11.811649	25.027824	-0.010770	-0.027191	2.618067	0.000000	0.000029	0.000000	-0.000000	0.000001	0.000000	0.000000
0.601250	11.825822	25.047836	-0.036278	-0.039237	2.618075	0.000000	0.000029	0.000000	0.000000	0.000001	0.000000	0.000000
0.898573	11.854879	25.074702	-0.032381	-0.112615	2.618084	0.000000	-0.006391	0.000000	0.000000	0.000001	0.000000	0.000000
1.339533	12.035539	24.895869	-0.378870	0.516627	2.631558	0.000000	0.067565	0.000000	0.000001	0.000001	0.000000	0.000000
1.780493	12.528225	24.170378	-0.742669	1.122364	2.677783	0.000000	0.142292	0.000000	0.000002	0.000001	0.000000	0.000000
2.221453	13.355444	22.931240	-1.140398	1.677034	2.757284	0.000000	0.218638	0.000000	0.000002	0.000002	0.000000	0.000000
2.662413	14.554991	21.234835	-1.590229	2.155400	2.870968	0.000000	0.297475	0.000000	0.000003	0.000002	0.000000	0.000000
3.108373	16.202408	19.133469	-2.117002	2.536830	3.021990	0.000000	0.380190	0.000000	0.000004	0.000002	0.000000	0.000000
3.657433	18.314954	16.773311	-1.707788	1.787086	3.205465	0.000000	0.287152	0.000000	0.000005	0.000002	0.000000	0.000000
4.206493	19.908830	15.162151	-1.177945	1.164632	3.336380	0.000000	0.189020	0.000000	0.000005	0.000001	0.000000	0.000000
4.755553	20.871455	14.185229	-0.564898	0.625132	3.412414	0.000000	0.087536	0.000000	0.000006	0.000001	0.000000	0.000000
5.304613	21.134832	13.772962	0.088051	0.130160	3.432219	0.000000	-0.015501	0.000000	0.000007	0.000001	0.000000	0.000000
5.603185	21.119449	13.680401	0.018690	0.143867	3.430268	0.000000	-0.006533	0.000000	0.000007	0.000001	0.000000	0.000000
5.936519	21.112252	13.592780	0.002901	0.118997	3.428090	0.000000	-0.006533	0.000000	0.000007	0.000001	0.000000	0.000000
6.269852	21.115581	13.521739	-0.012888	0.094127	3.425911	0.000000	-0.006533	0.000000	0.000008	0.000001	0.000000	0.000000
6.604435	21.129507	13.467104	-0.028736	0.069164	3.423725	0.000000	-0.006533	0.000000	0.000008	0.000001	0.000000	0.000000
6.901758	21.150782	13.432572	-0.098078	0.082075	3.421782	0.000000	0.002406	0.000000	0.000008	0.000001	0.000000	0.000000
7.450818	20.898020	13.603298	0.555707	-0.394852	3.394901	0.000000	-0.100178	0.000000	0.000009	0.000001	0.000000	0.000000
7.999878	19.944730	14.310026	1.170239	-0.899904	3.312101	0.000000	-0.200985	0.000000	0.000009	0.000000	0.000000	0.000000
8.548938	18.358246	15.603093	1.702111	-1.469054	3.174850	0.000000	-0.298227	0.000000	0.000009	0.000000	0.000000	0.000000
9.097998	16.250630	17.574603	2.113755	-2.142841	2.985584	0.000000	-0.390179	0.000000	0.000009	-0.000000	0.000000	0.000000
9.543958	14.606321	19.331309	1.586476	-1.779664	2.829887	0.000000	-0.308470	0.000000	0.000009	0.000000	0.000000	0.000000
9.984918	13.410370	20.710771	1.135966	-1.336747	2.711111	0.000000	-0.230757	0.000000	0.000009	0.000000	0.000000	0.000000
10.425878	12.587432	21.671202	0.737355	-0.833010	2.625992	0.000000	-0.155673	0.000000	0.000010	0.000001	0.000000	0.000000
10.866838	12.099910	22.168903	0.372432	-0.291371	2.573559	0.000000	-0.082362	0.000000	0.000010	0.000001	0.000000	0.000000
11.309048	11.925395	22.180706	0.053661	0.209076	2.553196	0.000000	-0.016250	0.000000	0.000010	0.000001	0.000000	0.000000
11.606371	11.900920	22.060540	0.028657	0.195085	2.548364	0.000000	-0.016250	0.000000	0.000011	0.000001	0.000000	0.000000
12.086371	11.892785	21.884100	-0.011709	0.172499	2.540563	0.000000	-0.016250	0.000000	0.000011	0.000001	0.000000	0.000000
12.566371	11.923401	21.729342	-0.052075	0.149912	2.532763	0.000000	-0.016250	0.000000	0.000012	0.000001	0.000000	0.000000
13.046371	11.992769	21.596268	-0.092441	0.127326	2.524962	0.000000	-0.016250	0.000000	0.000012	0.000001	0.000000	0.000000
13.526371	12.100888	21.484876	-0.132807	0.104740	2.517162	0.000000	-0.016250	0.000000	0.000013	0.000001	0.000000	0.000000
14.007621	12.248191	21.394962	-0.173278	0.082094	2.509341	0.000000	-0.016250	0.000000	0.000013	0.000001	0.000000	0.000000
14.304943	12.358665	21.350305	-0.167979	0.015754	2.504509	0.000000	-0.022391	0.000000	0.000013	0.000001	0.000000	0.000000
14.745903	12.665332	21.102736	-0.530112	0.543541	2.510268	0.000000	0.048538	0.000000	0.000014	0.000001	0.000000	0.000000
15.186863	13.300803	20.398871	-0.916464	1.046597	2.547396	0.000000	0.120020	0.000000	0.000015	0.000002	0.000000	0.000000
15.627823	14.294113	19.270733	-1.344687	1.502034	2.616315	0.000000	0.192869	0.000000	0.000015	0.000002	0.000000	0.000000
16.068783	15.690641	17.769654	-1.834345	1.889129	2.717811	0.000000	0.267915	0.000000	0.000016	0.000003	0.000000	0.000000
16.514743	17.577850	15.942427	-2.412566	2.191015	2.854735	0.000000	0.346474	0.000000	0.000018	0.000003	0.000000	0.000000
17.063803	20.001731	13.902175	-1.975900	1.546818	3.021235	0.000000	0.259130	0.000000	0.000019	0.000002	0.000000	0.000000
17.612863	21.866157	12.505039	-1.399665	1.012797	3.138444	0.000000	0.167190	0.000000	0.000020	0.000002	0.000000	0.000000
18.161923	23.039433	11.651506	-0.724565	0.550915	3.204284	0.000000	0.072285	0.000000	0.000021	0.000001	0.000000	0.000000
18.710983	23.438685	11.280778	0.001714	0.128274	3.217585	0.000000	-0.023903	0.000000	0.000022	0.000000	0.000000	0.000000
19.009556	23.478042	11.194682	-0.072299	0.130617	3.212958	0.000000	-0.015498	0.000000	0.000022	0.000000	0.000000	0.000000
19.342889	23.530999	11.117699	-0.086571	0.100333	3.207792	0.000000	-0.015498	0.000000	0.000022	0.000000	0.000000	0.000000
19.676223	23.593470	11.060905	-0.100843	0.070049	3.202626	0.000000	-0.015498	0.000000	0.000022	0.000000	0.000000	0.000000
20.010806	23.666037	11.024064	-0.232423	0.094271	3.197460	0.000000	0.000344	0.000000	0.000022	0.000001	0.000000	0.000000
20.308129	23.808183	10.976096	-0.307860	0.095735	3.197562	0.000000	0.008697	0.000000	0.000022	0.000001	0.000000	0.000000
20.857189	23.735615	11.093056	0.439245	-0.310010	3.176114	0.000000	-0.086710	0.000000	0.000022	-0.000000	0.000000	0.000000
21.406249	22.854888	11.665010	1.155324	-0.737836	3.102627	0.000000	-0.180579	0.000000	0.000022	-0.000001	0.000000	0.000000
21.955309	21.228210	12.732698	1.789796	-1.218216	2.978406	0.000000	-0.271245	0.000000	0.000021	-0.000002	0.000000	0.000000
22.504369	18.970483	14.372168	2.297846	-1.785367	2.805653	0.000000	-0.357099	0.000000	0.000020	-0.000002	0.000000	0.000000
22.950329	17.191154	15.844142	1.706122	-1.501395	2.663698	0.000000	-0.279879	0.000000	0.000020	-0.000002	0.000000	0.000000
23.391289	15.915813	17.017752	1.197042	-1.149966	2.556608	0.000000	-0.206300	0.000000	0.000019	-0.000001	0.000000	0.000000
23.832249	15.063717	17.857086	0.742652	-0.746213	2.481414	0.000000	-0.135071	0.000000	0.000018	-0.000001	0.000000	0.000000
24.273209	14.595939	18.323953	0.322191	-0.308509	2.437261	0.000000	-0.065381	0.000000	0.000018	-0.000000	0.000000	0.000000
24.715418	14.491225	18.396866	-0.048106	0.098057	2.423642	0.000000	-0.002377	0.000000	0.000018	0.000000	0.000000	0.000000
25.012741	14.525945	18.343408	-0.068670	0.081740	2.422935	0.000000	-0.002377	0.000000	0.000018	0.000000	0.000000	0.000000
25.346075	14.579411	18.295013	-0.091726	0.063446	2.422143	0.000000	-0.002377	0.000000	0.000018	0.000000	0.000000	0.000000
25.679408	14.648247	18.258813	-0.114782	0.045153	2.421350	0.000000	-0.002377	0.000000	0.000018	0.000000	0.000000	0.000000
26.013991	14.732499	18.235112	-0.018404	-0.121141	2.420530	0.000000	-0.022014	0.000000	0.000018	0.000000	0.000000	0.000000
26.311314	14.749445	18.312066	-0.002429	-0.182584	2.413985	0.000000	-0.027933	0.000000	0.000018	-0.000000	0.000000	0.000000
26.752274	14.933302	18.274502	-0.416099	0.267448	2.416780	0.000000	0.040624	0.000000	0.000019	0.000000	0.000000	0.000000
27.193234	15.488956	17.843915	-0.848781	0.705312	2.449880	0.000000	0.109644	0.000000	0.000019	0.000001	0.000000	0.000000
27.634194	16.441793	17.039897	-1.320240	1.111084	2.513660	0.000000	0.179913	0.000000	0.000019	0.000001	0.000000	0.000000
28.075154	17.835346	15.899031	-1.852018	1.466303	2.608848	0.000000	0.252231	0.000000	0.000020	0.000002	0.000000	0.000000
28.521114	19.757491	14.456039	-2.473377	1.755718	2.738131	0.000000	0.327865	0.000000	0.000021	0.000002	0.000000	0.000000
29.070174	22.200550	12.848291	-1.949811	1.189749	2.895479	0.000000	0.244448	0.000000	0.000022	0.000002	0.000000	0.000000
29.619234	23.989177	11.812141	-1.288519	0.708523	3.005766	0.000000	0.156695	0.000000	0.000023	0.000001	0.000000	0.000000
30.168294	24.997031	11.273789	-0.536213	0.277763	3.067037	0.000000	0.066162	0.000000	0.000023	0.000000	0.000000	0.000000
30.717354	25.152923	11.194887	0.253969	-0.133211	3.078204	0.000000	-0.025544	0.000000	0.000023	-0.000000	0.000000	0.000000
31.015927	25.044173	11.265019	0.175971	-0.130926	3.072978	0.000000	-0.017503	0.000000	0.000023	-0.000000	0.000000	0.000000
31.349260	24.931433	11.362335	0.162249	-0.161023	3.067144	0.000000	-0.017503	0.000000	0.000023	-0.000000	0.000000	0.000000
31.682593	24.827841	11.479716	0.148527	-0.191120	3.061310	0.000000	-0.017503	0.000000	0.000023	-0.000000	0.000000	0.000000
32.017177	24.733060	11.617716	0.134753	-0.221331	3.055454	0.000000	-0.017503	0.000000	0.000023	-0.000000	0.000000	0.000000
32.314499	24.656569	11.757311	0.058103	-0.217463	3.050250	0.000000	-0.009535	0.000000	0.000023	-0.000000	0.000000	0.000000
32.863559	24.170309	12.235310	0.822277	-0.658254	3.020127	0.000000	-0.100028	0.000000	0.000022	-0.000001	0.000000	0.000000
33.412619	22.871977	13.220104	1.528369	-1.145932	2.940734	0.000000	-0.188747	0.000000	0.000022	-0.000002	0.000000	0.000000
33.961679	20.853281	14.781837	2.126505	-1.715232	2.813477	0.000000	-0.274119	0.000000	0.000020	-0.000002	0.000000	0.000000
34.510739	18.256811	17.031748	2.574434	-2.406704	2.640614	0.000000	-0.354628	0.000000	0.000019	-0.000003	0.000000	0.000000
34.956699	16.237932	19.044221	1.968825	-2.087130	2.498810	0.000000	-0.281686	0.000000	0.000018	-0.000003	0.000000	0.000000
35.397659	14.732470	20.708772	1.458180	-1.673338	2.389982	0.000000	-0.212381	0.000000	0.000017	-0.000002	0.000000	0.000000
35.838619	13.646389	21.973296	1.014156	-1.183410	2.311154	0.000000	-0.145494	0.000000	0.000016	-0.000002	0.000000	0.000000
36.279579	12.930067	22.780258	0.616466	-0.639638	2.261426	0.000000	-0.080265	0.000000	0.000015	-0.000001	0.000000	0.000000
36.721789	12.550084	23.093252	0.277607	-0.123441	2.240207	0.000000	-0.021443	0.000000	0.000014	-0.000001	0.000000	0.000000
37.019112	12.392593	23.170541	0.252090	-0.136512	2.233832	0.000000	-0.021443	0.000000	0.000014	-0.000001	0.000000	0.000000
37.352445	12.234068	23.266434	0.223483	-0.151166	2.226684	0.000000	-0.021443	0.000000	0.000014	-0.000001	0.000000	0.000000
37.685779	12.094615	23.372096	0.194876	-0.165820	2.219537	0.000000	-0.021443	0.000000	0.000013	-0.000001	0.000000	0.000000
38.020362	11.973818	23.487978	0.166162	-0.180529	2.212363	0.000000	-0.021443	0.000000	0.000013	-0.000001	0.000000	0.000000
38.317684	11.882598	23.599216	0.169781	-0.251466	2.205988	0.000000	-0.026852	0.000000	0.000013	-0.000001	0.000000	0.000000
38.758644	11.884347	23.559594	-0.173762	0.340977	2.208077	0.000000	0.036334	0.000000	0.000012	-0.000001	0.000000	0.000000
39.199604	12.191415	23.002356	-0.525244	0.917906	2.238093	0.000000	0.099934	0.000000	0.000012	-0.000000	0.000000	0.000000
39.640564	12.817833	21.952857	-0.900723	1.453071	2.296379	0.000000	0.164673	0.000000	0.000012	-0.000000	0.000000	0.000000
40.081524	13.792219	20.458846	-1.317353	1.922122	2.383597	0.000000	0.231286	0.000000	0.000012	0.000000	0.000000	0.000000
40.527484	15.176667	18.565728	-1.797997	2.305002	2.502213	0.000000	0.300939	0.000000	0.000012	0.000000	0.000000	0.000000
41.076544	16.943348	16.438317	-1.400602	1.592510	2.646914	0.000000	0.225371	0.000000	0.000012	0.000000	0.000000	0.000000
41.625604	18.216400	15.026802	-0.904275	0.993449	2.748963	0.000000	0.145805	0.000000	0.000012	-0.000000	0.000000	0.000000
42.174664	18.905901	14.230644	-0.344075	0.465148	2.806550	0.000000	0.063653	0.000000	0.000012	-0.000001	0.000000	0.000000
42.723724	18.963147	13.993135	0.240429	-0.030020	2.818654	0.000000	-0.019629	0.000000	0.000011	-0.000001	0.000000	0.000000
43.022297	18.854033	13.995602	0.174568	-0.014800	2.814993	0.000000	-0.012265	0.000000	0.000011	-0.000001	0.000000	0.000000
43.502297	18.699040	14.026276	0.148333	-0.049104	2.809106	0.000000	-0.012265	0.000000	0.000011	-0.000001	0.000000	0.000000
43.982297	18.569233	14.089882	0.122099	-0.083408	2.803219	0.000000	-0.012265	0.000000	0.000010	-0.000001	0.000000	0.000000
44.462297	18.464611	14.186419	0.095864	-0.117712	2.797333	0.000000	-0.012265	0.000000	0.000010	-0.000001	0.000000	0.000000
44.942297	18.385174	14.315889	0.069629	-0.152016	2.791446	0.000000	-0.012265	0.000000	0.000009	-0.000001	0.000000	0.000000
45.423547	18.331041	14.478577	-0.047496	-0.114674	2.785562	0.000000	0.001537	0.000000	0.000009	-0.000001	0.000000	0.000000
45.720870	18.364118	14.552953	-0.111731	-0.097458	2.786019	0.000000	0.008815	0.000000	0.000008	-0.000001	0.000000	0.000000
46.269930	18.177597	14.941418	0.449428	-0.614229	2.768285	0.000000	-0.073317	0.000000	0.000008	-0.000001	0.000000	0.000000
46.818990	17.388722	15.917912	0.978841	-1.174750	2.705748	0.000000	-0.154150	0.000000	0.000007	-0.000001	0.000000	0.000000
47.368050	16.053214	17.551986	1.439113	-1.818947	2.599514	0.000000	-0.232248	0.000000	0.000006	-0.000002	0.000000	0.000000
47.917110	14.265407	19.960032	1.797734	-2.592703	2.451470	0.000000	-0.306226	0.000000	0.000005	-0.000002	0.000000	0.000000
48.363070	12.874176	22.100964	1.332951	-2.187842	2.330199	0.000000	-0.237924	0.000000	0.000004	-0.000002	0.000000	0.000000
48.804030	11.878830	23.815128	0.932836	-1.684711	2.239746	0.000000	-0.172728	0.000000	0.000004	-0.000002	0.000000	0.000000
49.244990	11.216298	25.049946	0.575340	-1.104927	2.177580	0.000000	-0.109500	0.000000	0.000003	-0.000002	0.000000	0.000000
49.685950	10.856310	25.749234	0.244129	-0.474869	2.142994	0.000000	-0.047519	0.000000	0.000002	-0.000001	0.000000	0.000000
50.128160	10.782544	25.880892	-0.049603	0.113279	2.135604	0.000000	0.008684	0.000000	0.000002	-0.000001	0.000000	0.000000
50.425482	10.820259	25.816991	-0.077245	0.101643	2.138187	0.000000	0.008684	0.000000	0.000001	-0.000001	0.000000	0.000000
50.758816	10.882085	25.753577	-0.108235	0.088598	2.141082	0.000000	0.008684	0.000000	0.000001	-0.000001	0.000000	0.000000
51.092149	10.964572	25.698860	-0.139225	0.075553	2.143977	0.000000	0.008684	0.000000	0.000000	-0.000001	0.000000	0.000000
51.426732	11.067920	25.653203	-0.080542	-0.145652	2.146861	0.000000	-0.008733	0.000000	-0.000000	-0.000001	0.000000	0.000000
51.724055	11.123853	25.743333	-0.080300	-0.220619	2.144265	0.000000	-0.013991	0.000000	-0.000001	-0.000001	0.000000	0.000000
52.165015	11.339923	25.651489	-0.411558	0.428110	2.151684	0.000000	0.047672	0.000000	-0.000001	-0.000001	0.000000	0.000000
52.605975	11.855292	24.993953	-0.761619	1.057360	2.186389	0.000000	0.109879	0.000000	-0.000002	-0.000002	0.000000	0.000000
53.046935	12.693506	23.800645	-1.146477	1.638502	2.248774	0.000000	0.173337	0.000000	-0.000003	-0.000002	0.000000	0.000000
53.487895	13.892860	22.125858	-1.583713	2.145092	2.339549	0.000000	0.238769	0.000000	-0.000003	-0.000002	0.000000	0.000000
53.933855	15.528711	20.020754	-2.097533	2.555421	2.461254	0.000000	0.307320	0.000000	-0.000004	-0.000002	0.000000	0.000000
54.482915	17.634840	17.651951	-1.715643	1.784334	2.609811	0.000000	0.233016	0.000000	-0.000005	-0.000002	0.000000	0.000000
55.031975	19.252178	16.055552	-1.212569	1.140342	2.716376	0.000000	0.154579	0.000000	-0.000006	-0.000001	0.000000	0.000000
55.581035	20.266483	15.117849	-0.623845	0.577573	2.779056	0.000000	0.073400	0.000000	-0.000007	-0.000001	0.000000	0.000000
56.130095	20.606111	14.772051	0.008943	0.055944	2.796740	0.000000	-0.009081	0.000000	-0.000007	-0.000001	0.000000	0.000000
56.428668	20.637258	14.721684	-0.059419	0.074150	2.796211	0.000000	-0.001773	0.000000	-0.000008	-0.000001	0.000000	0.000000
56.762001	20.682273	14.679839	-0.075628	0.051384	2.795620	0.000000	-0.001773	0.000000	-0.000008	-0.000001	0.000000	0.000000
57.095334	20.738095	14.653172	-0.091837	0.028617	2.795029	0.000000	-0.001773	0.000000	-0.000008	-0.000001	0.000000	0.000000
57.429918	20.804993	14.641669	-0.108106	0.005765	2.794437	0.000000	-0.001773	0.000000	-0.000009	-0.000001	0.000000	0.000000
57.727240	20.873576	14.644279	-0.177107	0.023723	2.793910	0.000000	0.005528	0.000000	-0.000009	-0.000001	0.000000	0.000000
58.276300	20.711970	14.899409	0.469696	-0.491133	2.774307	0.000000	-0.076830	0.000000	-0.000009	-0.000001	0.000000	0.000000
58.825360	19.854192	15.735689	1.083323	-1.040970	2.709792	0.000000	-0.157826	0.000000	-0.000010	-0.000000	0.000000	0.000000
59.374420	18.360831	17.212685	1.620429	-1.664954	2.601510	0.000000	-0.236021	0.000000	-0.000010	-0.000000	0.000000	0.000000
59.923480	16.337369	19.435601	2.043076	-2.407529	2.451381	0.000000	-0.310031	0.000000	-0.000010	0.000000	0.000000	0.000000
60.369440	14.753646	21.411330	1.520770	-2.004052	2.328409	0.000000	-0.241753	0.000000	-0.000010	-0.000000	0.000000	0.000000
60.810400	13.614595	22.967145	1.072145	-1.510768	2.236252	0.000000	-0.176626	0.000000	-0.000010	-0.000000	0.000000	0.000000
61.251360	12.848182	24.055836	0.672504	-0.948746	2.172344	0.000000	-0.113510	0.000000	-0.000010	-0.000001	0.000000	0.000000
61.692320	12.419392	24.627866	0.303587	-0.343556	2.135956	0.000000	-0.051687	0.000000	-0.000010	-0.000001	0.000000	0.000000
62.134530	12.308686	24.656667	-0.021373	0.216739	2.126680	0.000000	0.004331	0.000000	-0.000011	-0.000001	0.000000	0.000000
62.431853	12.328581	24.531538	-0.045540	0.204114	2.127968	0.000000	0.004331	0.000000	-0.000011	-0.000001	0.000000	0.000000
62.765186	12.367972	24.400180	-0.072633	0.189960	2.129412	0.000000	0.004331	0.000000	-0.000012	-0.000001	0.000000	0.000000
63.098520	12.425425	24.278257	-0.099727	0.175806	2.130856	0.000000	0.004331	0.000000	-0.000012	-0.000001	0.000000	0.000000
63.433103	12.501258	24.165367	-0.126922	0.161599	2.132305	0.000000	0.004331	0.000000	-0.000012	-0.000001	0.000000	0.000000
63.730426	12.583917	24.073027	-0.120225	0.089933	2.133593	0.000000	-0.000902	0.000000	-0.000013	-0.000001	0.000000	0.000000
64.171386	12.850216	23.728602	-0.485976	0.688175	2.146735	0.000000	0.060561	0.000000	-0.000013	-0.000001	0.000000	0.000000
64.612346	13.447614	22.868419	-0.873929	1.255106	2.187105	0.000000	0.122713	0.000000	-0.000014	-0.000002	0.000000	0.000000
65.053306	14.403401	21.531617	-1.301810	1.764931	2.255164	0.000000	0.186262	0.000000	-0.000015	-0.000002	0.000000	0.000000
65.494266	15.761247	19.779019	-1.789167	2.194452	2.351687	0.000000	0.251933	0.000000	-0.000016	-0.000002	0.000000	0.000000
65.940226	17.606347	17.665569	-2.362957	2.524881	2.479344	0.000000	0.320876	0.000000	-0.000017	-0.000003	0.000000	0.000000
66.489286	19.971668	15.301304	-1.919490	1.806561	2.635163	0.000000	0.245868	0.000000	-0.000018	-0.000002	0.000000	0.000000
67.038346	21.772223	13.650974	-1.340441	1.216919	2.748538	0.000000	0.166499	0.000000	-0.000019	-0.000002	0.000000	0.000000
67.587406	22.880830	12.597029	-0.666709	0.713955	2.817458	0.000000	0.084177	0.000000	-0.000020	-0.000001	0.000000	0.000000
68.136466	23.219184	12.064401	0.054115	0.261845	2.840701	0.000000	0.000362	0.000000	-0.000021	-0.000000	0.000000	0.000000
68.435038	23.226942	11.897240	-0.019422	0.266494	2.843026	0.000000	0.007786	0.000000	-0.000021	-0.000000	0.000000	0.000000
68.768372	23.244676	11.729579	-0.033779	0.236487	2.845622	0.000000	0.007786	0.000000	-0.000021	-0.000000	0.000000	0.000000
69.101705	23.271980	11.581924	-0.048135	0.206479	2.848217	0.000000	0.007786	0.000000	-0.000021	-0.000000	0.000000	0.000000
69.436288	23.309012	11.453832	-0.062546	0.176359	2.850822	0.000000	0.007786	0.000000	-0.000021	-0.000000	0.000000	0.000000
69.733611	23.350012	11.356919	-0.136371	0.179272	2.853137	0.000000	0.015242	0.000000	-0.000021	-0.000001	0.000000	0.000000
70.282671	23.098737	11.387519	0.591308	-0.235331	2.838326	0.000000	-0.069113	0.000000	-0.000021	0.000000	0.000000	0.000000
